DTS Sentinel unit serial number:	SN413079Multiplexer serial number:	ORYXHardware model number:	OX4-SRSoftware version number:	ORYX F/W v4.00 Oryx Data Collector v3.7.2.0data status	okinstallation	princeton_trtdifferential loss correction	single-endedforward channel	channel 1reverse channel	N/Adate	2019/09/16time	19:06:35forward acquisition time	60.00reverse acquisition time	0.00gamma	496.2192k internal	0.2312k external	0.2312temperature offset calibration	0.9946default loss term (dB/km)	0.3790temperature slope calibration	1.0000multiplexer offset coefficient	1.0000multiplexer slope coefficient	1.0000fibre end	0.00T internal ref (°C)	35.37T ext. ref 1 (°C)	0.06T ext. ref 2 (°C)	28.54length (m)	temperature (°C)	Stokes	anti-Stokes-747.200	482.078	0.132	0.305
-746.185	651.407	-0.109	0.282
-745.171	-130.222	-0.188	-0.026
-744.156	61.236	-0.110	0.111
-743.142	359.552	0.057	-0.116
-742.127	60.981	-0.129	0.130
-741.112	800.000	-0.141	0.577
-740.098	118.108	-0.333	0.417
-739.083	800.000	-0.129	-0.372
-738.069	40.457	-0.427	0.390
-737.054	-55.346	-0.238	-0.108
-736.039	313.444	-0.148	-0.281
-735.025	-200.000	0.021	0.200
-734.010	-200.000	-0.010	-0.095
-732.996	-2.906	-0.194	-0.137
-731.981	-200.000	0.010	-0.118
-730.966	179.387	0.110	0.163
-729.952	800.000	0.061	0.179
-728.937	-91.706	0.199	-0.057
-727.923	800.000	0.059	-0.258
-726.908	215.746	-0.104	0.168
-725.894	-127.936	-0.138	0.020
-724.879	300.437	0.142	0.266
-723.864	800.000	-0.120	-0.517
-722.850	556.126	-0.139	-0.339
-721.835	-63.622	-0.305	0.127
-720.821	-165.334	0.174	-0.008
-719.806	-92.146	0.254	0.073
-718.791	-200.000	-0.027	-0.162
-717.777	-154.336	0.239	0.016
-716.762	-34.125	0.181	0.101
-715.748	800.000	-0.046	0.168
-714.733	596.374	-0.163	-0.410
-713.718	15.998	0.455	-0.363
-712.704	756.027	-0.071	-0.196
-711.689	84.085	-0.090	0.100
-710.675	-100.592	0.363	0.091
-709.660	212.576	-0.138	-0.220
-708.645	407.767	0.139	-0.298
-707.631	37.427	0.180	-0.161
-706.616	91.549	-0.294	-0.335
-705.602	124.561	-0.115	-0.147
-704.587	-75.399	-0.314	0.113
-703.572	-200.000	-0.038	0.309
-702.558	147.358	0.076	-0.103
-701.543	-131.980	-0.116	0.015
-700.529	-117.951	0.115	0.021
-699.514	314.449	-0.063	0.119
-698.499	800.000	0.031	-0.104
-697.485	-68.502	0.303	0.119
-696.470	-46.213	-0.172	-0.086
-695.456	46.773	0.309	-0.290
-694.441	-44.851	-0.140	-0.071
-693.426	-147.113	-0.216	-0.019
-692.412	-200.000	-0.022	0.366
-691.397	781.492	0.097	-0.268
-690.383	112.536	-0.219	-0.269
-689.368	85.132	-0.188	0.209
-688.354	-99.574	0.223	0.057
-687.339	467.251	0.170	-0.385
-686.324	303.880	-0.065	-0.122
-685.310	112.926	-0.183	0.224
-684.295	-31.929	0.106	0.060
-683.281	81.629	-0.065	-0.072
-682.266	349.113	0.130	-0.260
-681.251	-128.370	-0.313	-0.045
-680.237	141.117	-0.020	-0.026
-679.222	281.621	0.062	0.112
-678.208	-46.274	-0.357	0.178
-677.193	45.300	0.118	-0.110
-676.178	21.589	0.250	-0.206
-675.164	-159.695	-0.428	-0.024
-674.149	-80.221	0.394	-0.133
-673.135	-65.454	-0.234	0.095
-672.120	101.439	0.309	-0.364
-671.105	-120.859	0.059	-0.010
-670.091	-3.131	0.074	0.052
-669.076	800.000	0.115	0.347
-668.062	-121.266	-0.306	-0.052
-667.047	116.012	-0.187	0.232
-666.032	288.923	-0.051	-0.094
-665.018	800.000	0.035	0.105
-664.003	6.489	-0.118	-0.089
-662.989	437.924	0.178	0.392
-661.974	-200.000	-0.030	0.290
-660.959	-33.323	-0.158	0.088
-659.945	-200.000	-0.051	0.261
-658.930	-200.000	0.007	-0.105
-657.916	219.020	-0.090	-0.146
-656.901	-200.000	-0.038	0.512
-655.886	191.257	-0.186	-0.283
-654.872	-130.577	0.356	-0.049
-653.857	-129.374	-0.082	-0.011
-652.843	330.719	0.108	0.210
-651.828	-74.216	0.273	-0.100
-650.814	60.488	-0.279	0.279
-649.799	132.769	0.189	0.247
-648.784	-200.000	-0.026	-0.375
-647.770	-135.017	0.195	-0.024
-646.755	800.000	0.036	-0.157
-645.741	800.000	0.069	0.277
-644.726	-123.567	0.193	-0.031
-643.711	3.161	0.147	-0.108
-642.697	148.648	0.153	0.210
-641.682	800.000	-0.088	0.264
-640.668	-32.865	-0.086	0.048
-639.653	-51.602	0.117	-0.055
-638.638	-200.000	0.001	0.101
-637.624	-122.884	-0.057	-0.009
-636.609	-168.888	-0.348	0.013
-635.595	135.295	0.212	-0.279
-634.580	-200.000	-0.001	0.054
-633.565	-89.946	0.181	-0.053
-632.551	6.136	-0.035	-0.027
-631.536	44.972	0.199	-0.185
-630.522	-200.000	0.008	0.074
-629.507	73.019	-0.134	0.142
-628.492	-200.000	0.032	0.176
-627.478	800.000	0.048	-0.198
-626.463	537.125	-0.082	-0.197
-625.449	-200.000	-0.005	0.309
-624.434	-31.479	-0.082	-0.047
-623.419	-4.142	-0.134	0.094
-622.405	-37.357	0.051	-0.027
-621.390	-13.708	0.161	0.105
-620.376	562.915	-0.163	-0.399
-619.361	100.585	-0.104	-0.122
-618.346	34.791	0.122	0.108
-617.332	368.658	-0.062	-0.126
-616.317	-200.000	-0.021	0.150
-615.303	-96.825	0.077	-0.021
-614.288	800.000	-0.101	-0.333
-613.273	800.000	-0.043	0.140
-612.259	241.098	-0.101	0.170
-611.244	304.339	-0.122	0.228
-610.230	38.162	-0.137	0.123
-609.215	-89.354	-0.226	0.067
-608.201	193.569	0.071	0.108
-607.186	800.000	0.069	-0.237
-606.171	-48.070	-0.073	0.035
-605.157	-200.000	-0.053	-0.346
-604.142	642.071	-0.097	0.249
-603.128	-154.976	-0.189	-0.013
-602.113	800.000	-0.093	0.272
-601.098	-104.016	-0.009	0.002
-600.084	-200.000	0.033	-0.209
-599.069	-200.000	0.050	0.253
-598.055	-19.938	-0.122	-0.076
-597.040	-9.479	-0.145	0.098
-596.025	79.512	-0.278	-0.300
-595.011	279.141	0.076	0.137
-593.996	158.401	0.092	0.129
-592.982	800.000	0.055	-0.155
-591.967	-81.321	-0.418	-0.139
-590.952	116.115	0.119	-0.147
-589.938	800.000	-0.111	-0.373
-588.923	20.866	-0.283	0.231
-587.909	800.000	-0.068	0.225
-586.894	-200.000	-0.111	0.598
-585.879	-30.389	0.170	-0.097
-584.865	316.588	-0.161	0.306
-583.850	-14.549	-0.117	-0.076
-582.836	-200.000	0.080	-0.549
-581.821	34.254	0.197	0.173
-580.806	498.763	0.088	-0.205
-579.792	-139.429	-0.194	0.021
-578.777	336.902	0.108	0.212
-577.763	-200.000	-0.013	0.162
-576.748	-43.633	-0.179	-0.091
-575.733	734.927	-0.033	-0.088
-574.719	-129.642	-0.151	0.021
-573.704	371.602	0.143	-0.293
-572.690	-200.000	0.068	-0.338
-571.675	-146.686	-0.063	-0.005
-570.661	-154.457	-0.073	-0.005
-569.646	800.000	0.029	-0.103
-568.631	-57.059	-0.215	0.095
-567.617	800.000	0.110	-0.327
-566.602	-49.071	0.051	0.024
-565.588	-200.000	-0.059	0.317
-564.573	-9.649	0.212	-0.143
-563.558	436.002	-0.142	-0.310
-562.544	-200.000	0.045	0.380
-561.529	-25.399	0.343	-0.204
-560.515	204.678	-0.113	0.176
-559.500	-200.000	-0.002	0.027
-558.485	-54.874	0.391	-0.178
-557.471	-156.193	-0.133	-0.008
-556.456	-6.271	-0.069	-0.047
-555.442	64.278	-0.252	-0.256
-554.427	-170.450	-0.222	0.008
-553.412	-200.000	-0.022	0.150
-552.398	-200.000	0.017	0.226
-551.383	690.720	0.035	0.092
-550.369	-115.658	0.228	0.043
-549.354	-129.523	-0.237	-0.033
-548.339	14.929	-0.160	-0.126
-547.325	255.937	0.085	-0.147
-546.310	800.000	0.087	0.281
-545.296	-42.314	0.159	-0.082
-544.281	45.308	-0.192	-0.178
-543.266	232.697	-0.175	-0.290
-542.252	-81.918	-0.154	-0.051
-541.237	-75.887	0.241	0.086
-540.223	7.033	0.163	0.122
-539.208	707.211	-0.063	0.168
-538.193	-200.000	-0.021	0.171
-537.179	13.310	-0.383	0.299
-536.164	-200.000	0.018	0.238
-535.150	19.755	0.182	-0.147
-534.135	-200.000	0.016	0.116
-533.121	455.373	0.129	0.288
-532.106	-107.194	0.171	-0.038
-531.091	358.687	0.044	0.088
-530.077	366.236	0.172	0.349
-529.062	-121.647	-0.313	-0.052
-528.048	-131.571	0.067	0.009
-527.033	106.496	-0.052	0.061
-526.018	-118.956	-0.429	0.076
-525.004	348.444	0.111	0.220
-523.989	-33.552	0.272	-0.151
-522.975	-28.443	-0.253	-0.147
-521.960	-200.000	-0.006	-0.166
-520.945	-42.966	-0.220	-0.112
-519.931	-59.661	-0.123	0.053
-518.916	194.398	0.090	0.137
-517.902	413.797	-0.005	-0.010
-516.887	-29.064	-0.053	-0.031
-515.872	30.815	0.062	-0.054
-514.858	39.832	0.332	0.300
-513.843	-2.631	0.440	0.310
-512.829	50.206	-0.071	-0.067
-511.814	-34.857	-0.170	-0.093
-510.799	122.511	-0.069	-0.086
-509.785	24.662	-0.150	-0.125
-508.770	-41.141	0.220	0.114
-507.756	-91.946	-0.306	0.087
-506.741	-200.000	0.044	-0.408
-505.726	-1.670	-0.141	-0.100
-504.712	177.244	0.206	-0.301
-503.697	206.121	-0.080	0.125
-502.683	800.000	-0.099	-0.403
-501.668	-178.708	-0.353	0.008
-500.653	-200.000	-0.001	-0.057
-499.639	-12.350	-0.121	-0.080
-498.624	-64.118	-0.086	-0.035
-497.610	12.740	0.225	0.175
-496.595	190.077	-0.052	-0.079
-495.581	19.355	-0.193	-0.155
-494.566	-142.438	0.456	0.045
-493.551	-122.259	0.106	0.017
-492.537	-200.000	-0.058	-0.289
-491.522	66.950	0.323	-0.330
-490.508	-104.848	-0.205	-0.047
-489.493	37.387	-0.065	0.058
-488.478	92.591	0.139	0.158
-487.464	-134.978	0.227	-0.028
-486.449	196.344	-0.120	0.184
-485.435	27.940	-0.429	0.363
-484.420	-154.077	-0.318	0.022
-483.405	800.000	-0.062	0.251
-482.391	25.006	-0.141	-0.118
-481.376	-200.000	0.009	0.421
-480.362	-200.000	0.040	0.278
-479.347	-200.000	-0.015	-0.238
-478.332	16.028	-0.053	-0.042
-477.318	-200.000	-0.043	0.475
-476.303	-200.000	-0.010	-0.072
-475.289	-84.588	-0.235	0.074
-474.274	-200.000	0.104	-0.469
-473.259	-200.000	-0.005	0.039
-472.245	151.599	-0.099	0.136
-471.230	800.000	0.048	-0.192
-470.216	-200.000	-0.057	0.281
-469.201	123.760	0.173	0.217
-468.186	609.206	0.025	0.062
-467.172	-36.535	0.058	-0.031
-466.157	-75.649	0.164	-0.059
-465.143	13.313	0.048	0.037
-464.128	-200.000	0.021	-0.305
-463.113	800.000	-0.086	-0.281
-462.099	-27.298	0.134	0.078
-461.084	-122.384	-0.075	0.012
-460.070	416.564	0.092	0.198
-459.055	101.612	0.084	0.098
-458.040	-41.277	0.219	0.114
-457.026	-200.000	-0.019	-0.114
-456.011	-86.511	-0.097	0.030
-454.997	-129.916	0.031	0.004
-453.982	192.018	-0.192	0.291
-452.968	393.315	0.079	0.165
-451.953	52.795	0.138	0.132
-450.938	112.205	-0.075	-0.090
-449.924	-200.000	-0.001	-0.145
-448.909	-58.571	0.086	-0.037
-447.895	-118.399	0.186	0.033
-446.880	22.638	-0.257	-0.211
-445.865	54.807	-0.161	-0.156
-444.851	76.523	0.058	-0.062
-443.836	-155.754	0.187	-0.012
-442.822	800.000	-0.087	-0.308
-441.807	237.322	-0.164	0.273
-440.792	-200.000	0.018	-0.289
-439.778	-110.685	-0.426	0.088
-438.763	-100.058	-0.384	-0.096
-437.749	-200.000	0.031	-0.189
-436.734	120.357	-0.117	0.146
-435.719	-200.000	-0.025	0.186
-434.705	132.348	-0.179	0.231
-433.690	32.940	-0.203	-0.176
-432.676	800.000	-0.020	-0.071
-431.661	176.410	0.083	-0.121
-430.646	800.000	-0.067	0.241
-429.632	59.111	-0.044	0.043
-428.617	-19.959	0.065	0.040
-427.603	234.328	-0.165	-0.273
-426.588	89.538	0.107	0.120
-425.573	-200.000	-0.049	0.281
-424.559	-124.956	-0.366	0.056
-423.544	-147.766	0.113	-0.010
-422.530	800.000	0.008	0.029
-421.515	206.845	0.109	-0.170
-420.500	-110.096	-0.236	-0.049
-419.486	88.229	-0.049	0.054
-418.471	800.000	-0.100	0.326
-417.457	-107.251	0.153	0.034
-416.442	98.244	0.035	-0.040
-415.428	657.334	0.128	0.329
-414.413	800.000	0.021	-0.089
-413.398	293.993	-0.028	-0.051
-412.384	-89.105	-0.220	-0.065
-411.369	-200.000	0.059	0.285
-410.355	10.755	-0.297	-0.227
-409.340	70.630	-0.053	0.055
-408.325	78.294	-0.287	-0.307
-407.311	-36.998	0.103	-0.056
-406.296	538.970	-0.019	0.046
-405.282	-149.295	-0.216	-0.017
-404.267	90.408	0.097	-0.109
-403.252	-200.000	0.042	0.209
-402.238	209.865	-0.168	-0.264
-401.223	643.613	0.104	0.264
-400.209	183.272	-0.141	0.209
-399.194	-59.243	0.207	-0.089
-398.179	-200.000	0.008	0.174
-397.165	-16.033	-0.181	-0.115
-396.150	193.284	-0.093	0.140
-395.136	119.323	0.107	-0.133
-394.121	-172.449	0.300	-0.010
-393.106	800.000	-0.049	-0.143
-392.092	-200.000	-0.091	-0.459
-391.077	160.823	0.048	0.067
-390.063	325.185	-0.068	-0.130
-389.048	-79.507	0.062	0.021
-388.033	171.977	-0.148	0.214
-387.019	-132.288	-0.328	-0.042
-386.004	183.853	-0.202	0.299
-384.990	36.543	-0.329	-0.290
-383.975	22.686	0.196	-0.160
-382.960	800.000	0.117	0.337
-381.946	468.504	-0.131	0.295
-380.931	-200.000	0.005	-0.064
-379.917	153.416	-0.410	-0.562
-378.902	-62.795	-0.154	-0.064
-377.888	-5.626	0.119	-0.081
-376.873	-45.968	0.177	-0.087
-375.858	311.058	-0.151	-0.282
-374.844	631.075	0.022	0.054
-373.829	-200.000	0.058	-0.271
-372.815	41.541	0.204	0.185
-371.800	-105.035	-0.505	-0.116
-370.785	-61.363	-0.234	-0.099
-369.771	187.911	-0.042	-0.063
-368.756	131.921	0.192	-0.247
-367.742	-12.566	0.422	-0.275
-366.727	-38.628	0.437	-0.231
-365.712	-10.735	0.243	-0.161
-364.698	-0.090	0.098	0.070
-363.683	-21.026	0.193	0.118
-362.669	146.451	-0.234	0.314
-361.654	0.820	0.040	0.029
-360.639	800.000	-0.076	-0.254
-359.625	44.044	0.068	-0.062
-358.610	348.848	0.101	-0.199
-357.596	618.910	0.027	-0.067
-356.581	59.037	0.123	-0.121
-355.566	-200.000	-0.022	-0.275
-354.552	3.871	0.080	0.059
-353.537	45.507	0.305	0.281
-352.523	-200.000	-0.045	0.251
-351.508	-150.967	-0.071	-0.005
-350.493	-29.213	0.093	0.053
-349.479	121.152	0.205	0.255
-348.464	107.341	-0.160	0.190
-347.450	-72.495	-0.019	-0.007
-346.435	38.759	0.108	-0.097
-345.420	-82.625	0.192	0.062
-344.406	464.065	0.224	0.500
-343.391	-18.751	0.093	0.058
-342.377	-191.612	0.283	0.003
-341.362	298.231	-0.089	-0.164
-340.348	63.030	0.013	0.013
-339.333	-16.311	0.100	0.063
-338.318	-101.046	-0.418	0.102
-337.304	-200.000	0.011	0.271
-336.289	800.000	-0.064	0.260
-335.275	-23.327	0.272	-0.163
-334.260	-123.669	0.247	0.039
-333.245	-24.534	0.028	0.017
-332.231	593.070	0.056	-0.138
-331.216	140.052	-0.131	0.172
-330.202	-113.738	0.414	-0.081
-329.187	-200.000	0.012	0.116
-328.172	800.000	0.095	-0.396
-327.158	-30.431	0.216	-0.122
-326.143	800.000	-0.024	-0.067
-325.129	-8.847	0.164	0.110
-324.114	266.388	0.039	0.068
-323.099	800.000	-0.068	0.220
-322.085	-200.000	0.055	-0.242
-321.070	-79.496	-0.348	-0.117
-320.056	-200.000	0.045	-0.495
-319.041	1.525	0.090	0.065
-318.026	-57.315	-0.135	0.059
-317.012	176.580	-0.179	-0.260
-315.997	-62.498	0.415	-0.172
-314.983	-200.000	0.243	0.001
-313.968	480.876	0.105	-0.238
-312.953	-131.898	-0.301	-0.039
-311.939	93.672	-0.090	-0.102
-310.924	317.641	-0.056	0.105
-309.910	800.000	-0.063	0.250
-308.895	-90.797	0.212	0.061
-307.880	800.000	0.038	-0.146
-306.866	-200.000	-0.024	0.154
-305.851	-200.000	0.003	0.119
-304.837	-134.846	-0.305	-0.037
-303.822	-154.480	-0.202	0.014
-302.807	800.000	0.037	-0.155
-301.793	-200.000	0.015	-0.084
-300.778	-200.000	-0.060	0.450
-299.764	15.088	-0.062	0.048
-298.749	196.611	-0.092	0.140
-297.735	263.131	-0.138	0.239
-296.720	-7.240	0.116	-0.079
-295.705	-161.200	-0.200	0.010
-294.691	-130.516	0.176	-0.024
-293.676	19.264	0.072	0.058
-292.662	41.200	0.219	0.197
-291.647	467.709	0.100	-0.223
-290.632	-200.000	0.025	0.251
-289.618	380.227	0.184	0.375
-288.603	721.499	0.072	-0.190
-287.589	-200.000	0.020	-0.209
-286.574	18.188	0.084	-0.067
-285.559	18.039	-0.324	0.257
-284.545	89.731	0.128	-0.142
-283.530	114.078	-0.070	-0.085
-282.516	113.502	-0.262	0.318
-281.501	-200.000	0.023	0.320
-280.486	-200.000	0.030	-0.269
-279.472	16.114	0.109	0.086
-278.457	33.947	0.113	0.098
-277.443	386.893	0.061	-0.126
-276.428	-200.000	0.060	0.267
-275.413	-116.226	-0.217	0.040
-274.399	-111.490	-0.207	0.042
-273.384	277.167	0.167	0.296
-272.370	25.433	0.136	0.112
-271.355	31.530	-0.177	0.151
-270.340	679.180	-0.082	0.214
-269.326	-200.000	-0.005	0.057
-268.311	90.037	-0.140	-0.156
-267.297	-200.000	0.008	0.117
-266.282	232.240	-0.172	0.281
-265.267	-76.999	0.176	-0.061
-264.253	146.576	0.190	0.255
-263.238	116.814	0.184	-0.225
-262.224	73.564	0.150	0.156
-261.209	-200.000	-0.002	0.113
-260.195	-17.394	0.330	-0.207
-259.180	28.317	0.079	0.067
-258.165	800.000	-0.086	0.286
-257.151	-26.706	-0.085	0.049
-256.136	-162.586	0.284	0.014
-255.122	28.790	-0.203	-0.172
-254.107	-200.000	-0.020	-0.110
-253.092	-200.000	-0.018	0.354
-252.078	157.332	-0.115	0.159
-251.063	-37.850	-0.205	0.108
-250.049	148.854	-0.082	-0.110
-249.034	-126.879	-0.130	-0.019
-248.019	-200.000	-0.044	-0.208
-247.005	-200.000	0.002	0.115
-245.990	-98.769	0.120	-0.030
-244.976	142.864	0.074	0.098
-243.961	325.681	-0.112	-0.213
-242.946	800.000	0.080	0.331
-241.932	-115.982	0.135	-0.025
-240.917	211.890	0.132	-0.206
-239.903	-79.977	-0.034	-0.011
-238.888	-33.291	0.091	-0.050
-237.873	27.182	0.202	0.168
-236.859	116.065	-0.252	0.307
-235.844	-140.553	-0.047	0.005
-234.830	-64.223	0.012	-0.005
-233.815	-200.000	-0.010	-0.565
-232.800	800.000	-0.071	-0.295
-231.786	-200.000	-0.193	-0.001
-230.771	90.149	-0.107	-0.119
-229.757	375.670	-0.103	-0.208
-228.742	-200.000	0.003	0.208
-227.727	-59.361	-0.253	-0.108
-226.713	-129.015	0.324	0.045
-225.698	544.474	0.270	-0.642
-224.684	38.387	-0.062	0.055
-223.669	-5.172	0.098	-0.067
-222.655	-200.000	0.024	0.212
-221.640	-14.366	0.413	0.265
-220.625	-117.874	-0.274	0.049
-219.611	-165.457	0.066	-0.003
-218.596	-154.085	-0.288	-0.019
-217.582	228.161	0.016	0.026
-216.567	-167.020	-0.073	-0.003
-215.552	-127.753	0.294	-0.042
-214.538	63.528	-0.286	-0.285
-213.523	261.505	-0.158	-0.272
-212.509	-128.672	-0.042	-0.006
-211.494	297.660	0.057	-0.104
-210.479	-200.000	0.013	0.077
-209.465	-95.878	0.122	0.032
-208.450	130.564	0.133	0.170
-207.436	-19.918	0.289	0.178
-206.421	54.929	0.277	0.266
-205.406	800.000	-0.075	-0.240
-204.392	-23.681	0.160	-0.095
-203.377	109.099	0.216	-0.256
-202.363	139.147	-0.105	-0.137
-201.348	-200.000	-0.019	-0.155
-200.333	156.578	-0.127	-0.174
-199.319	741.412	0.014	-0.039
-198.304	285.130	0.118	0.212
-197.290	412.321	0.134	0.284
-196.275	-178.552	0.233	0.005
-195.260	410.746	-0.111	0.235
-194.246	-200.000	-0.027	0.211
-193.231	147.320	0.054	-0.072
-192.217	-148.826	0.382	0.031
-191.202	-200.000	0.026	-0.170
-190.187	-200.000	-0.077	-0.413
-189.173	251.900	-0.178	-0.301
-188.158	-167.372	0.197	-0.008
-187.144	15.804	0.188	0.147
-186.129	-142.264	0.266	-0.026
-185.114	-200.000	-0.059	-0.292
-184.100	216.391	0.062	-0.097
-183.085	-113.324	-0.154	-0.030
-182.071	296.973	-0.111	-0.201
-181.056	-200.000	-0.006	-0.030
-180.042	262.880	0.231	0.398
-179.027	-200.000	0.037	0.247
-178.012	-162.608	0.322	0.016
-176.998	224.042	-0.052	-0.084
-175.983	-52.145	0.156	-0.072
-174.969	9.856	0.155	-0.117
-173.954	294.368	0.025	-0.045
-172.939	-75.952	0.210	0.074
-171.925	120.306	0.205	0.252
-170.910	-63.375	0.297	-0.121
-169.896	49.606	0.061	0.057
-168.881	-8.488	-0.082	-0.055
-167.866	-105.620	-0.312	0.070
-166.852	104.418	0.129	-0.151
-165.837	-200.000	-0.041	-0.187
-164.823	34.934	-0.070	-0.061
-163.808	-116.858	-0.074	-0.014
-162.793	34.122	-0.205	-0.177
-161.779	-200.000	-0.005	-0.079
-160.764	-121.432	0.163	-0.027
-159.750	-100.890	-0.077	-0.019
-158.735	197.585	0.114	-0.173
-157.720	-189.636	-0.065	-0.001
-156.706	25.894	-0.206	-0.170
-155.691	652.521	0.117	-0.298
-154.677	800.000	-0.056	0.217
-153.662	-56.709	-0.330	0.145
-152.647	109.183	0.190	0.226
-151.633	-112.271	0.359	-0.071
-150.618	-200.000	0.010	-0.091
-149.604	-151.012	0.306	0.023
-148.589	-68.428	-0.254	-0.098
-147.574	560.447	0.045	-0.108
-146.560	-148.762	0.362	-0.029
-145.545	-200.000	-0.102	-0.445
-144.531	560.018	-0.142	-0.339
-143.516	-200.000	0.042	0.361
-142.502	189.845	-0.055	-0.082
-141.487	-200.000	0.156	0.001
-140.472	-158.730	0.180	0.010
-139.458	-115.700	-0.194	0.036
-138.443	-43.582	0.245	0.122
-137.429	-19.985	0.276	-0.169
-136.414	-50.737	0.190	0.089
-135.399	-79.325	-0.110	0.037
-134.385	-200.000	0.009	0.230
-133.370	472.340	-0.065	-0.145
-132.356	-200.000	-0.006	0.099
-131.341	-200.000	-0.002	0.236
-130.326	245.545	-0.041	-0.069
-129.312	-27.331	-0.240	-0.139
-128.297	-106.188	0.255	-0.057
-127.283	-62.356	-0.318	0.131
-126.268	-59.341	0.340	-0.145
-125.253	-200.000	0.058	-0.394
-124.239	-128.040	-0.166	0.024
-123.224	-35.823	0.293	0.157
-122.210	800.000	0.139	-0.417
-121.195	-200.000	-0.007	0.379
-120.180	-108.414	-0.284	-0.061
-119.166	800.000	0.034	0.144
-118.151	231.423	0.083	-0.135
-117.137	-200.000	-0.081	-0.381
-116.122	-73.163	0.076	0.028
-115.107	102.307	0.235	-0.271
-114.093	70.097	0.096	0.098
-113.078	-131.481	-0.300	-0.039
-112.064	-97.632	-0.360	-0.092
-111.049	-200.000	0.023	-0.166
-110.034	-99.307	0.203	-0.051
-109.020	51.969	0.256	0.241
-108.005	-14.153	0.166	0.106
-106.991	800.000	-0.024	0.080
-105.976	800.000	-0.022	-0.070
-104.962	-200.000	0.038	0.276
-103.947	272.379	-0.125	0.218
-102.932	800.000	0.060	-0.166
-101.918	-200.000	0.036	-0.465
-100.903	4.507	-0.236	-0.171
-99.889	41.304	0.095	-0.085
-98.874	-200.000	-0.025	-0.407
-97.859	794.515	0.075	-0.205
-96.845	-200.000	-0.007	0.113
-95.830	800.000	-0.084	-0.245
-94.816	-53.615	0.202	-0.091
-93.801	18.306	-0.085	0.067
-92.786	297.072	0.097	-0.176
-91.772	-152.872	-0.275	0.019
-90.757	58.747	0.147	0.143
-89.743	153.206	-0.184	-0.249
-88.728	800.000	-0.052	0.215
-87.713	101.991	-0.068	0.079
-86.699	-141.474	-0.346	0.035
-85.684	-67.260	-0.192	0.075
-84.670	52.227	-0.156	0.147
-83.655	-44.134	0.083	0.041
-82.640	-64.559	-0.083	0.033
-81.626	70.884	0.261	0.267
-80.611	116.166	-0.046	-0.055
-79.597	-104.481	0.339	0.077
-78.582	800.000	-0.053	-0.180
-77.567	-182.717	0.036	-0.001
-76.553	-120.196	0.032	0.005
-75.538	-105.071	-0.271	-0.061
-74.524	121.860	-0.143	-0.177
-73.509	562.972	0.058	-0.139
-72.494	376.817	0.025	0.050
-71.480	-200.000	0.023	0.191
-70.465	-68.255	-0.216	-0.083
-69.451	-154.375	-0.218	0.014
-68.436	6.878	-0.058	-0.043
-67.422	-117.260	0.294	-0.053
-66.407	314.205	0.138	0.256
-65.392	-200.000	0.002	-0.281
-64.378	34.035	-0.224	0.193
-63.363	46.299	0.381	-0.349
-62.349	-46.771	-0.252	0.122
-61.334	101.632	-0.650	-0.749
-60.319	342.783	0.171	0.330
-59.305	800.000	-0.408	-1.220
-58.290	800.000	0.406	1.131
-57.276	440.991	0.672	1.451
-56.261	-200.000	95.692	570.086
-55.246	555.705	1378.352	3278.020
-54.232	154.788	2569.432	3487.266
-53.217	116.299	2167.421	2623.036
-52.203	47.120	1625.919	1494.223
-51.188	38.966	1362.015	1201.993
-50.173	35.464	1320.739	1144.681
-49.159	56.963	1368.735	1317.188
-48.144	61.314	1386.796	1360.871
-47.130	39.218	1341.688	1185.390
-46.115	35.594	1323.997	1148.099
-45.100	35.380	1318.787	1142.266
-44.086	35.301	1316.471	1139.741
-43.071	35.152	1314.299	1136.933
-42.057	35.166	1312.289	1135.232
-41.042	35.241	1310.850	1134.387
-40.027	35.140	1309.593	1132.658
-39.013	35.274	1307.195	1131.330
-37.998	35.253	1305.736	1129.895
-36.984	35.334	1303.640	1128.515
-35.969	35.405	1301.818	1127.312
-34.954	35.342	1300.062	1125.378
-33.940	35.574	1298.618	1125.440
-32.925	35.404	1297.748	1123.648
-31.911	35.454	1296.170	1122.530
-30.896	35.487	1294.773	1121.466
-29.881	35.459	1293.016	1119.738
-28.867	35.514	1291.724	1118.895
-27.852	35.512	1290.357	1117.654
-26.838	35.433	1289.139	1116.095
-25.823	35.497	1287.812	1115.275
-24.809	35.542	1286.096	1114.006
-23.794	35.444	1284.964	1112.412
-22.779	35.521	1283.479	1111.529
-21.765	35.527	1282.204	1110.414
-20.750	35.440	1281.572	1109.322
-19.736	35.369	1280.175	1107.658
-18.721	35.313	1278.483	1105.825
-17.706	35.257	1277.697	1104.779
-16.692	35.337	1275.938	1103.672
-15.677	35.401	1275.295	1103.442
-14.663	35.321	1274.303	1102.080
-13.648	35.325	1273.089	1101.011
-12.633	35.367	1271.904	1100.182
-11.619	35.221	1271.942	1099.332
-10.604	35.247	1270.613	1098.292
-9.590	35.365	1269.474	1097.941
-8.575	35.208	1268.674	1096.303
-7.560	35.310	1267.231	1095.596
-6.546	35.202	1266.839	1094.597
-5.531	35.334	1265.453	1094.108
-4.517	35.195	1265.437	1093.261
-3.502	35.247	1264.654	1092.838
-2.487	35.397	1263.290	1092.467
-1.473	35.179	1259.782	1088.152
-0.458	33.546	1243.808	1065.145
0.556	27.213	1224.624	1020.568
1.571	22.981	1229.335	1000.502
2.586	21.797	1244.317	1005.819
3.600	21.071	1233.892	993.170
4.615	15.604	1159.776	904.096
5.629	5.590	1080.226	791.595
6.644	0.488	1058.185	750.060
7.659	-0.049	1055.312	745.297
8.673	-0.102	1054.366	744.302
9.688	-0.105	1052.996	743.252
10.702	0.141	1051.126	743.080
11.717	5.932	1059.255	777.510
12.731	14.897	1071.413	831.110
13.746	18.102	1074.054	849.026
14.761	17.015	1072.222	842.111
15.775	15.860	1070.265	834.774
16.790	14.948	1068.036	828.448
17.804	14.273	1066.049	823.497
18.819	13.859	1064.965	820.540
19.834	13.599	1064.433	818.772
20.848	13.270	1063.168	816.104
21.863	13.150	1062.514	814.937
22.877	13.025	1061.686	813.615
23.892	13.011	1060.717	812.731
24.907	12.929	1060.304	811.939
25.921	13.093	1059.740	812.243
26.936	13.035	1058.975	811.299
27.950	12.967	1058.020	810.159
28.965	13.146	1056.436	809.754
29.980	13.190	1055.808	809.415
30.994	13.213	1054.561	808.500
32.009	13.240	1053.314	807.604
33.023	13.281	1052.398	807.033
34.038	13.042	1051.966	805.461
35.053	13.170	1050.799	805.123
36.067	13.183	1049.839	804.378
37.082	13.111	1049.278	803.525
38.096	13.165	1048.830	803.375
39.111	13.170	1047.816	802.554
40.126	13.137	1046.644	801.424
41.140	13.015	1045.239	799.685
42.155	12.891	1044.314	798.306
43.169	12.977	1043.353	797.917
44.184	13.021	1042.080	797.086
45.199	12.901	1041.474	795.974
46.213	12.894	1040.323	794.989
47.228	12.993	1039.537	794.794
48.242	13.075	1038.200	794.095
49.257	12.961	1037.448	792.901
50.271	13.123	1036.488	792.877
51.286	13.019	1035.713	791.714
52.301	13.128	1035.037	791.650
53.315	12.947	1033.848	789.805
54.330	12.914	1032.452	788.509
55.344	12.908	1032.043	788.098
56.359	12.950	1031.100	787.511
57.374	12.986	1030.246	786.960
58.388	12.866	1029.803	785.983
59.403	12.941	1028.209	785.054
60.417	12.928	1027.587	784.444
61.432	12.927	1026.529	783.564
62.447	12.902	1025.689	782.737
63.461	12.787	1025.635	782.080
64.476	12.836	1024.454	781.342
65.490	12.864	1023.350	780.562
66.505	13.070	1022.184	780.576
67.520	12.975	1021.957	779.887
68.534	12.793	1021.944	778.949
69.549	12.985	1020.480	778.668
70.563	12.928	1019.671	777.712
71.578	12.852	1019.078	776.833
72.593	12.914	1017.886	776.149
73.607	12.661	1017.602	774.674
74.622	12.778	1016.990	774.688
75.636	12.774	1015.744	773.654
76.651	12.801	1015.560	773.570
77.666	12.764	1015.112	772.988
78.680	12.813	1014.236	772.483
79.695	12.868	1013.654	772.227
80.709	12.966	1012.520	771.752
81.724	12.900	1012.301	771.211
82.739	13.068	1011.414	771.252
83.753	13.113	1010.821	770.938
84.768	13.228	1009.693	770.548
85.782	13.156	1008.916	769.550
86.797	13.136	1007.849	768.575
87.812	13.045	1007.115	767.524
88.826	13.001	1006.686	766.928
89.841	13.042	1005.978	766.511
90.855	13.283	1004.324	766.301
91.870	13.321	1003.562	765.824
92.884	13.096	1002.962	764.256
93.899	13.090	1002.189	763.576
94.914	13.194	1001.628	763.561
95.928	13.237	1000.686	762.974
96.943	13.139	999.839	761.806
97.957	13.159	998.809	761.048
98.972	13.241	997.977	760.723
99.987	13.167	997.023	759.591
101.001	13.063	996.357	758.534
102.016	13.142	995.567	758.230
103.030	13.185	995.059	757.972
104.045	13.131	993.796	756.697
105.060	13.158	993.124	756.243
106.074	13.129	992.128	755.282
107.089	13.024	991.115	753.965
108.103	13.046	989.466	752.748
109.118	13.053	988.872	752.257
110.133	12.926	988.765	751.532
111.147	13.007	987.553	750.911
112.162	12.929	986.910	750.005
113.176	12.950	985.877	749.249
114.191	13.052	985.212	749.138
115.206	13.123	983.951	748.438
116.220	13.088	983.695	748.013
117.235	13.118	982.500	747.179
118.249	12.990	981.906	746.082
119.264	13.137	980.846	745.872
120.279	13.011	980.303	744.826
121.293	13.091	979.233	744.307
122.308	13.086	978.620	743.753
123.322	12.987	977.531	742.415
124.337	13.097	976.496	742.057
125.352	13.088	975.431	741.141
126.366	12.981	974.756	740.082
127.381	13.031	973.579	739.348
128.395	13.047	972.750	738.722
129.410	12.958	971.953	737.657
130.424	13.069	971.125	737.457
131.439	13.124	970.372	737.065
132.454	13.140	969.599	736.487
133.468	13.108	969.062	735.871
134.483	13.188	967.963	735.327
135.497	13.301	966.658	734.771
136.512	13.170	966.366	733.903
137.527	13.150	965.739	733.273
138.541	13.233	964.455	732.602
139.556	13.254	963.712	732.066
140.570	13.290	963.013	731.630
141.585	13.350	962.239	731.240
142.600	13.425	961.203	730.721
143.614	13.360	960.411	729.764
144.629	13.364	959.664	729.152
145.643	13.308	958.541	727.989
146.658	13.255	957.737	727.077
147.673	13.142	957.107	726.042
148.687	13.173	956.458	725.620
149.702	13.154	955.120	724.457
150.716	13.204	954.404	724.069
151.731	13.235	953.359	723.349
152.746	13.252	953.027	723.104
153.760	13.272	952.436	722.683
154.775	13.322	951.931	722.454
155.789	13.465	951.083	722.369
156.804	13.285	950.611	721.161
157.819	13.322	950.226	720.967
158.833	13.397	949.594	720.752
159.848	13.428	948.790	720.213
160.862	13.455	947.413	719.221
161.877	13.337	946.691	718.095
162.892	13.207	945.639	716.669
163.906	13.264	944.684	716.133
164.921	13.255	943.825	715.378
165.935	13.367	942.925	715.115
166.950	13.321	941.990	714.143
167.964	13.297	941.197	713.375
168.979	13.369	939.989	712.707
169.994	13.347	939.401	712.107
171.008	13.405	938.788	711.825
172.023	13.461	938.212	711.569
173.037	13.652	937.558	711.827
174.052	13.446	936.849	710.345
175.067	13.393	936.234	709.586
176.081	13.408	935.781	709.247
177.096	13.525	934.586	708.779
178.110	13.505	934.228	708.359
179.125	13.499	933.766	707.919
180.140	13.542	933.403	707.763
181.154	13.637	932.599	707.500
182.169	13.502	932.472	706.762
183.183	13.545	931.566	706.199
184.198	13.685	930.566	705.972
185.213	13.689	930.115	705.585
186.227	13.684	929.135	704.757
187.242	13.685	928.324	704.085
188.256	13.682	928.137	703.866
189.271	13.677	927.131	703.021
190.286	13.563	926.346	701.883
191.300	13.611	925.391	701.299
192.315	13.387	925.295	700.215
193.329	13.375	924.872	699.782
194.344	13.583	923.929	699.888
195.359	13.664	922.838	699.338
196.373	13.656	922.612	699.072
197.388	13.671	922.842	699.249
198.402	13.659	922.182	698.635
199.417	13.826	921.273	698.587
200.432	13.774	921.003	698.104
201.446	13.934	920.189	698.097
202.461	13.896	919.735	697.532
203.475	13.943	919.054	697.150
204.490	13.926	918.088	696.283
205.504	13.953	917.301	695.738
206.519	13.888	916.792	695.019
207.534	13.919	916.252	694.678
208.548	13.868	915.610	693.918
209.563	13.928	915.001	693.645
210.577	13.976	914.073	693.082
211.592	13.976	913.246	692.390
212.607	14.059	912.697	692.260
213.621	14.066	911.851	691.587
214.636	14.003	911.312	690.854
215.650	14.086	910.365	690.422
216.665	14.073	909.994	690.024
217.680	14.090	909.227	689.451
218.694	14.296	908.167	689.441
219.709	14.151	908.059	688.697
220.723	14.167	907.369	688.178
221.738	14.083	906.757	687.305
222.753	14.148	905.890	686.855
223.767	14.089	905.484	686.246
224.782	14.255	904.862	686.398
225.796	14.290	903.681	685.585
226.811	14.212	903.253	684.876
227.826	14.148	903.188	684.504
228.840	14.155	902.321	683.818
229.855	14.294	901.120	683.414
230.869	14.327	900.160	682.761
231.884	14.262	899.693	682.083
232.899	14.215	899.166	681.428
233.913	14.196	898.669	680.914
234.928	14.267	897.909	680.566
235.942	14.184	897.209	679.638
236.957	14.228	896.864	679.498
237.972	14.248	895.857	678.755
238.986	14.295	895.544	678.648
240.001	14.255	894.597	677.709
241.015	14.309	894.072	677.474
242.030	14.272	893.750	677.018
243.045	14.342	893.350	676.941
244.059	14.395	892.510	676.457
245.074	14.446	891.314	675.696
246.088	14.478	891.097	675.604
247.103	14.363	890.360	674.519
248.117	14.598	889.729	674.930
249.132	14.614	889.427	674.709
250.147	14.629	888.763	674.204
251.161	14.602	888.089	673.525
252.176	14.684	887.480	673.334
253.190	14.581	886.815	672.354
254.205	14.737	886.062	672.353
255.220	14.678	885.614	671.716
256.234	14.823	884.764	671.594
257.249	14.681	884.397	670.685
258.263	14.689	883.462	669.951
259.278	14.716	882.720	669.434
260.293	14.842	882.111	669.421
261.307	14.806	881.550	668.790
262.322	14.831	881.017	668.427
263.336	14.834	880.102	667.685
264.351	15.014	878.789	667.348
265.366	14.939	878.643	666.880
266.380	14.969	878.135	666.554
267.395	14.928	877.248	665.658
268.409	15.016	876.724	665.551
269.424	15.031	875.829	664.874
270.439	14.922	875.543	664.165
271.453	14.890	874.375	663.095
272.468	15.012	873.922	663.176
273.482	14.991	873.356	662.603
274.497	15.064	872.724	662.352
275.512	14.881	872.567	661.452
276.526	14.918	872.450	661.449
277.541	15.129	871.348	661.390
278.555	15.099	870.901	660.875
279.570	15.039	870.579	660.334
280.585	15.096	869.569	659.737
281.599	15.111	868.812	659.163
282.614	15.155	868.165	658.787
283.628	15.117	867.567	658.123
284.643	15.290	866.512	657.945
285.657	15.135	866.127	656.985
286.672	15.080	865.860	656.511
287.687	15.156	865.065	656.146
288.701	15.186	864.417	655.716
289.716	15.274	863.802	655.534
290.730	15.238	863.072	654.782
291.745	15.197	862.639	654.233
292.760	15.518	861.577	654.621
293.774	15.387	861.067	653.666
294.789	15.250	860.811	652.881
295.803	15.146	860.277	652.013
296.818	15.356	859.485	652.173
297.833	15.240	858.920	651.237
298.847	15.417	857.839	651.044
299.862	15.316	857.495	650.335
300.876	15.391	856.887	650.105
301.891	15.568	856.615	650.527
302.906	15.653	855.633	650.052
303.920	15.602	855.316	649.558
304.935	15.573	854.730	648.945
305.949	15.526	854.131	648.249
306.964	15.465	853.812	647.715
307.979	15.396	853.250	646.964
308.993	15.501	852.653	646.858
310.008	15.660	851.909	646.849
311.022	15.531	851.380	645.896
312.037	15.531	850.708	645.328
313.052	15.546	850.106	644.872
314.066	15.489	849.641	644.243
315.081	15.575	848.934	643.981
316.095	15.585	848.329	643.501
317.110	15.479	848.415	643.106
318.125	15.460	847.464	642.256
319.139	15.516	846.901	641.987
320.154	15.606	846.657	642.087
321.168	15.668	845.798	641.615
322.183	15.535	845.322	640.691
323.197	15.647	844.847	640.700
324.212	15.677	844.208	640.275
325.227	15.572	843.611	639.364
326.241	15.626	843.049	639.087
327.256	15.622	842.350	638.487
328.270	15.660	841.816	638.171
329.285	15.650	841.384	637.745
330.300	15.587	840.795	637.004
331.314	15.568	840.493	636.646
332.329	15.696	839.932	636.651
333.343	15.797	839.324	636.517
334.358	15.841	838.939	636.335
335.373	15.777	838.419	635.642
336.387	15.749	838.461	635.513
337.402	16.014	838.033	636.133
338.416	15.883	837.860	635.450
339.431	16.107	836.753	635.396
340.446	15.835	836.652	634.239
341.460	16.065	836.457	634.902
342.475	15.991	835.949	634.183
343.489	16.033	835.552	633.982
344.504	16.061	835.236	633.793
345.519	16.015	834.805	633.236
346.533	16.138	834.068	633.084
347.548	16.125	833.406	632.476
348.562	16.101	832.923	631.965
349.577	16.076	832.128	631.209
350.592	16.036	831.557	630.572
351.606	16.131	831.111	630.533
352.621	16.052	830.420	629.657
353.635	16.136	829.389	629.132
354.650	16.058	829.071	628.546
355.665	16.214	828.511	628.646
356.679	16.200	827.620	627.865
357.694	16.294	827.151	627.802
358.708	16.377	826.286	627.399
359.723	16.258	825.975	626.664
360.738	16.331	825.438	626.471
361.752	16.339	824.621	625.825
362.767	16.387	824.157	625.598
363.781	16.468	823.583	625.407
364.796	16.455	823.165	624.986
365.810	16.490	822.616	624.640
366.825	16.563	822.533	624.792
367.840	16.473	822.290	624.219
368.854	16.424	821.760	623.583
369.869	16.448	821.472	623.397
370.883	16.450	820.990	622.983
371.898	16.524	820.708	622.986
372.913	16.488	820.647	622.755
373.927	16.594	819.644	622.326
374.942	16.522	819.315	621.756
375.956	16.498	818.909	621.305
376.971	16.717	818.282	621.579
377.986	16.603	818.040	620.924
379.000	16.690	817.232	620.574
380.015	16.837	816.697	620.652
381.029	16.725	815.773	619.482
382.044	16.771	815.743	619.573
383.059	16.849	815.128	619.336
384.073	16.777	814.623	618.636
385.088	16.621	813.795	617.381
386.102	16.629	813.245	616.939
387.117	16.646	812.752	616.573
388.132	16.749	812.149	616.436
389.146	16.713	811.810	615.994
390.161	16.651	811.644	615.589
391.175	16.804	810.888	615.516
392.190	16.859	810.452	615.331
393.205	16.892	810.077	615.109
394.219	16.836	809.675	614.549
395.234	16.660	809.378	613.631
396.248	16.758	808.898	613.566
397.263	16.757	808.239	613.008
398.278	16.764	807.819	612.660
399.292	16.702	807.643	612.248
400.307	16.728	806.755	611.615
401.321	16.809	806.271	611.486
402.336	16.717	806.131	610.995
403.350	16.844	805.737	611.100
404.365	16.934	805.195	610.959
405.380	17.116	804.610	611.118
406.394	17.157	803.995	610.745
407.409	16.992	803.734	609.898
408.423	17.068	803.296	609.785
409.438	17.233	802.964	610.070
410.453	17.208	802.569	609.626
411.467	17.161	801.960	608.943
412.482	17.226	801.428	608.716
413.496	17.351	801.034	608.809
414.511	17.404	800.633	608.643
415.526	17.244	800.535	607.943
416.540	17.218	799.691	607.153
417.555	17.040	799.666	606.444
418.569	17.210	799.023	606.512
419.584	17.395	798.673	606.851
420.599	17.255	798.066	605.838
421.613	103.204	1283.430	1439.207
422.628	88.538	1354.142	1439.323
