DTS Sentinel unit serial number:	SN413079Multiplexer serial number:	ORYXHardware model number:	OX4-SRSoftware version number:	ORYX F/W v4.00 Oryx Data Collector v3.7.2.0data status	okinstallation	princeton_trtdifferential loss correction	single-endedforward channel	channel 1reverse channel	N/Adate	2019/09/15time	23:10:35forward acquisition time	60.00reverse acquisition time	0.00gamma	496.2192k internal	0.2331k external	0.2331temperature offset calibration	0.9966default loss term (dB/km)	0.3790temperature slope calibration	1.0000multiplexer offset coefficient	1.0000multiplexer slope coefficient	1.0000fibre end	0.00T internal ref (°C)	28.42T ext. ref 1 (°C)	9.03T ext. ref 2 (°C)	22.19length (m)	temperature (°C)	Stokes	anti-Stokes-747.200	-159.187	-0.301	-0.017
-746.185	99.840	-0.192	0.224
-745.171	257.504	-0.084	-0.146
-744.156	-200.000	-0.041	-0.266
-743.142	237.938	-0.060	0.101
-742.127	-51.840	-0.155	0.073
-741.112	133.302	-0.286	0.373
-740.098	-50.260	-0.381	0.181
-739.083	-169.228	0.200	-0.007
-738.069	-200.000	0.019	0.406
-737.054	-141.279	-0.207	-0.021
-736.039	45.465	-0.134	-0.124
-735.025	800.000	0.048	0.198
-734.010	429.812	-0.049	0.107
-732.996	3.441	-0.376	0.276
-731.981	-200.000	-0.037	-0.203
-730.966	216.778	0.181	-0.290
-729.952	-109.146	-0.441	-0.094
-728.937	-127.448	-0.238	0.035
-727.923	129.029	0.197	-0.253
-726.908	-117.174	-0.138	0.025
-725.894	167.043	0.046	-0.066
-724.879	71.646	-0.166	0.174
-723.864	36.475	0.226	-0.201
-722.850	98.665	0.061	0.071
-721.835	90.103	0.156	-0.175
-720.821	12.316	0.153	0.118
-719.806	16.695	-0.063	0.050
-718.791	-200.000	0.026	0.145
-717.777	-154.439	0.065	-0.004
-716.762	146.242	0.219	0.296
-715.748	232.620	-0.014	0.023
-714.733	-79.722	-0.486	0.165
-713.718	-200.000	-0.004	0.403
-712.704	185.339	-0.219	-0.326
-711.689	381.534	-0.158	-0.327
-710.675	191.436	-0.053	0.081
-709.660	74.290	0.349	-0.369
-708.645	-44.890	-0.108	0.054
-707.631	47.802	-0.138	-0.129
-706.616	-58.181	-0.152	-0.067
-705.602	218.664	-0.165	0.265
-704.587	-200.000	-0.016	-0.133
-703.572	-200.000	0.031	0.347
-702.558	-114.688	0.364	-0.070
-701.543	-200.000	-0.029	-0.128
-700.529	-89.874	0.239	0.070
-699.514	103.976	0.164	-0.194
-698.499	-200.000	0.015	0.396
-697.485	177.514	-0.033	-0.049
-696.470	-169.859	0.193	-0.007
-695.456	-185.229	-0.092	0.001
-694.441	519.266	-0.050	-0.118
-693.426	347.200	-0.145	-0.287
-692.412	245.627	-0.035	0.059
-691.397	-200.000	-0.016	-0.108
-690.383	-101.851	-0.250	0.061
-689.368	276.216	-0.111	-0.198
-688.354	-200.000	0.034	-0.173
-687.339	-200.000	0.010	0.123
-686.324	60.617	0.120	0.120
-685.310	87.531	0.207	0.230
-684.295	244.506	-0.205	-0.346
-683.281	-155.088	-0.292	-0.019
-682.266	-137.910	-0.361	0.040
-681.251	-90.961	0.370	0.107
-680.237	-83.760	0.171	0.055
-679.222	57.980	-0.132	-0.130
-678.208	43.449	0.187	-0.172
-677.193	-200.000	-0.022	-0.133
-676.178	-200.000	-0.032	-0.241
-675.164	-200.000	0.001	-0.094
-674.149	137.743	0.067	-0.088
-673.135	-121.964	-0.278	-0.046
-672.120	-36.433	-0.264	0.143
-671.105	59.135	-0.167	0.165
-670.091	-1.212	0.117	0.083
-669.076	-100.559	-0.302	-0.075
-668.062	-168.239	-0.183	0.007
-667.047	-138.847	0.278	0.030
-666.032	-44.057	-0.271	-0.137
-665.018	-144.289	0.011	0.001
-664.003	-200.000	-0.071	0.340
-662.989	-200.000	0.177	-0.001
-661.974	679.591	-0.167	-0.437
-660.959	42.288	0.078	0.071
-659.945	800.000	0.059	-0.216
-658.930	200.329	-0.077	0.118
-657.916	-141.375	0.403	-0.041
-656.901	-200.000	-0.017	-0.141
-655.886	800.000	-0.076	-0.296
-654.872	-110.567	0.333	0.069
-653.857	-200.000	-0.018	-0.167
-652.843	-88.130	0.262	-0.079
-651.828	-186.217	0.407	-0.006
-650.814	152.097	-0.117	-0.160
-649.799	-200.000	0.033	-0.265
-648.784	-200.000	0.057	-0.352
-647.770	35.644	0.200	-0.177
-646.755	-136.770	0.187	0.022
-645.741	-200.000	-0.019	-0.235
-644.726	457.082	0.098	-0.217
-643.711	31.861	0.080	-0.069
-642.697	27.195	0.228	-0.192
-641.682	-200.000	0.009	0.259
-640.668	-200.000	0.032	-0.186
-639.653	-181.237	-0.157	-0.003
-638.638	-87.441	0.338	-0.103
-637.624	-156.153	0.096	0.006
-636.609	-200.000	-0.003	-0.156
-635.595	-200.000	-0.053	-0.289
-634.580	-182.232	0.122	-0.002
-633.565	-200.000	-0.008	0.055
-632.551	15.132	-0.183	-0.144
-631.536	595.791	-0.047	-0.118
-630.522	-200.000	0.047	-0.375
-629.507	-200.000	-0.022	-0.219
-628.492	-147.879	-0.169	-0.014
-627.478	-114.113	0.026	0.005
-626.463	-200.000	-0.045	0.221
-625.449	51.680	-0.140	-0.133
-624.434	131.864	0.129	0.166
-623.419	97.613	-0.120	-0.138
-622.405	-128.749	-0.134	-0.019
-621.390	-129.951	-0.167	-0.023
-620.376	400.725	-0.240	-0.505
-619.361	608.395	0.084	-0.209
-618.346	-18.167	-0.266	-0.167
-617.332	-200.000	0.031	-0.271
-616.317	81.239	-0.265	-0.286
-615.303	800.000	0.023	0.089
-614.288	-146.925	-0.327	0.028
-613.273	205.511	-0.093	0.144
-612.259	173.454	0.140	-0.202
-611.244	68.449	-0.193	0.199
-610.230	-70.050	-0.151	0.057
-609.215	-34.932	-0.273	-0.149
-608.201	69.693	0.014	-0.015
-607.186	-143.920	0.085	-0.008
-606.171	236.406	-0.298	0.493
-605.157	343.059	-0.050	-0.099
-604.142	137.694	-0.162	0.212
-603.128	-65.888	0.181	-0.072
-602.113	-200.000	-0.014	-0.131
-601.098	-29.863	0.439	-0.250
-600.084	-60.873	-0.319	0.135
-599.069	800.000	-0.048	-0.151
-598.055	180.351	-0.211	-0.309
-597.040	-200.000	-0.022	-0.193
-596.025	-30.681	0.161	-0.091
-595.011	-86.833	0.134	0.041
-593.996	-200.000	-0.053	0.283
-592.982	253.019	-0.150	0.255
-591.967	-200.000	-0.008	-0.039
-590.952	-140.556	-0.171	-0.018
-589.938	35.234	0.164	-0.144
-588.923	-42.062	-0.194	0.100
-587.909	-200.000	-0.030	0.164
-586.894	-97.811	0.287	0.074
-585.879	-19.697	-0.103	-0.064
-584.865	91.667	0.156	-0.175
-583.850	627.467	0.115	0.291
-582.836	-67.295	-0.230	0.090
-581.821	25.820	0.242	-0.202
-580.806	45.739	0.087	-0.080
-579.792	-200.000	0.040	-0.388
-578.777	-27.792	-0.082	-0.048
-577.763	-71.073	0.176	-0.066
-576.748	57.569	-0.147	-0.143
-575.733	122.169	-0.166	-0.207
-574.719	41.970	-0.079	-0.072
-573.704	-200.000	-0.040	0.235
-572.690	-200.000	-0.050	-0.301
-571.675	-116.049	-0.378	0.070
-570.661	-200.000	0.036	-0.187
-569.646	33.882	-0.148	-0.128
-568.631	102.139	0.217	-0.254
-567.617	394.412	0.135	-0.280
-566.602	-79.833	0.185	0.062
-565.588	-123.936	-0.154	0.024
-564.573	146.034	-0.248	-0.332
-563.558	-63.424	-0.503	0.207
-562.544	-200.000	-0.009	-0.175
-561.529	-128.586	-0.436	-0.062
-560.515	800.000	0.020	0.062
-559.500	378.128	0.120	0.245
-558.485	-46.448	0.414	0.203
-557.471	-99.053	0.130	-0.033
-556.456	36.974	-0.128	-0.114
-555.442	800.000	-0.087	0.302
-554.427	88.957	0.063	0.070
-553.412	278.721	0.176	-0.313
-552.398	800.000	0.067	0.209
-551.383	-5.838	-0.074	-0.051
-550.369	648.789	0.060	0.152
-549.354	225.269	0.158	0.255
-548.339	-53.736	0.185	-0.084
-547.325	-200.000	-0.005	0.051
-546.310	-141.619	-0.469	0.047
-545.296	349.382	0.143	-0.281
-544.281	-138.051	0.235	-0.026
-543.266	-82.195	0.033	0.011
-542.252	-59.609	-0.202	0.086
-541.237	-56.388	-0.054	0.024
-540.223	-88.391	-0.252	0.075
-539.208	-200.000	-0.014	-0.312
-538.193	-7.518	-0.160	0.108
-537.179	-200.000	0.060	0.364
-536.164	768.285	-0.094	0.256
-535.150	-77.672	-0.345	0.119
-534.135	224.612	0.110	0.177
-533.121	200.543	-0.235	-0.360
-532.106	800.000	-0.093	-0.313
-531.091	-200.000	-0.087	-0.489
-530.077	-200.000	0.031	-0.155
-529.062	768.708	0.087	0.237
-528.048	59.357	0.116	0.114
-527.033	-188.621	-0.136	-0.002
-526.018	-3.313	-0.027	0.019
-525.004	-41.898	0.144	0.073
-523.989	47.722	0.087	-0.081
-522.975	-63.396	-0.186	0.076
-521.960	181.934	0.179	0.263
-520.945	-81.276	-0.198	0.065
-519.931	-114.204	0.175	0.034
-518.916	-64.278	-0.219	0.089
-517.902	53.921	-0.153	-0.147
-516.887	-146.922	-0.037	0.003
-515.872	-121.381	-0.074	-0.012
-514.858	-200.000	-0.012	-0.246
-513.843	362.801	-0.145	-0.290
-512.829	86.949	0.071	0.078
-511.814	800.000	-0.091	-0.332
-510.799	26.816	0.216	0.181
-509.785	229.060	-0.089	0.144
-508.770	225.998	0.042	0.068
-507.756	-72.050	-0.157	0.058
-506.741	28.364	0.127	-0.107
-505.726	-200.000	0.023	0.130
-504.712	-200.000	0.005	-0.225
-503.697	-0.401	-0.161	0.114
-502.683	-200.000	0.012	0.240
-501.668	-3.002	0.243	-0.169
-500.653	64.348	-0.152	0.152
-499.639	144.922	0.162	0.216
-498.624	800.000	0.003	-0.011
-497.610	-45.160	0.069	0.034
-496.595	-200.000	0.003	-0.065
-495.581	-72.461	-0.097	0.036
-494.566	-23.043	0.023	0.014
-493.551	800.000	-0.154	0.456
-492.537	-119.894	-0.276	-0.047
-491.522	-200.000	0.053	0.369
-490.508	-135.849	-0.198	-0.023
-489.493	-200.000	0.015	0.315
-488.478	25.197	-0.229	-0.189
-487.464	-87.008	0.261	0.079
-486.449	-119.316	-0.195	-0.034
-485.435	-200.000	0.023	-0.142
-484.420	-20.274	-0.212	-0.130
-483.405	-88.703	-0.341	0.101
-482.391	-166.402	-0.065	-0.003
-481.376	-118.726	-0.294	-0.052
-480.362	645.280	-0.062	-0.157
-479.347	49.082	0.226	0.212
-478.332	453.829	0.075	0.166
-477.318	201.536	-0.228	0.350
-476.303	800.000	-0.067	0.254
-475.289	50.632	-0.311	0.293
-474.274	-75.851	0.233	-0.082
-473.259	800.000	-0.047	0.188
-472.245	800.000	-0.081	-0.323
-471.230	-200.000	-0.045	-0.213
-470.216	595.359	-0.114	0.282
-469.201	-123.677	-0.498	0.079
-468.186	-69.967	-0.212	-0.080
-467.172	-200.000	-0.056	-0.279
-466.157	159.670	0.175	0.242
-465.143	-128.547	0.076	0.011
-464.128	42.039	0.042	0.038
-463.113	-200.000	0.044	-0.257
-462.099	-60.631	0.378	-0.160
-461.084	139.801	-0.170	-0.223
-460.070	258.234	0.034	-0.058
-459.055	-81.114	0.211	-0.069
-458.040	-34.045	-0.168	-0.092
-457.026	-154.024	0.197	0.013
-456.011	59.241	-0.090	-0.089
-454.997	328.349	-0.028	0.053
-453.982	-200.000	0.011	-0.050
-452.968	800.000	-0.065	-0.256
-451.953	-7.800	0.157	0.106
-450.938	52.822	0.241	-0.229
-449.924	-200.000	-0.018	0.095
-448.909	-54.923	-0.145	-0.065
-447.895	-158.415	0.398	0.023
-446.880	-114.075	-0.287	0.055
-445.865	-158.630	0.163	0.009
-444.851	-200.000	0.041	0.305
-443.836	54.479	0.177	0.169
-442.822	-200.000	-0.002	-0.100
-441.807	-148.029	0.136	0.011
-440.792	800.000	0.087	-0.255
-439.778	323.645	0.061	-0.116
-438.763	800.000	-0.081	-0.236
-437.749	-100.052	0.183	0.045
-436.734	800.000	0.044	0.178
-435.719	-200.000	-0.025	0.173
-434.705	-48.161	-0.203	-0.097
-433.690	-200.000	-0.021	-0.168
-432.676	-87.298	-0.349	-0.105
-431.661	-156.315	-0.287	0.018
-430.646	-79.814	0.212	-0.071
-429.632	52.869	0.066	-0.063
-428.617	-144.337	0.435	0.040
-427.603	281.656	0.129	0.230
-426.588	-97.595	-0.240	0.062
-425.573	516.972	-0.024	0.057
-424.559	606.461	-0.125	-0.311
-423.544	800.000	0.030	-0.115
-422.530	-123.534	0.228	0.036
-421.515	-200.000	-0.032	-0.148
-420.500	-152.848	-0.287	-0.020
-419.486	-2.804	0.348	-0.242
-418.471	66.368	-0.082	-0.083
-417.457	464.520	-0.068	-0.150
-416.442	800.000	-0.086	-0.247
-415.428	112.574	-0.163	-0.196
-414.413	-80.288	0.100	0.033
-413.398	-110.262	-0.197	0.041
-412.384	-130.630	0.157	-0.021
-411.369	17.414	-0.123	-0.097
-410.355	4.114	-0.085	-0.062
-409.340	-14.179	-0.280	-0.180
-408.325	800.000	0.127	0.475
-407.311	81.888	0.106	-0.114
-406.296	33.306	-0.062	-0.053
-405.282	-51.183	0.217	-0.101
-404.267	-42.246	0.252	-0.128
-403.252	44.889	0.192	-0.175
-402.238	331.467	-0.116	0.222
-401.223	800.000	-0.197	0.540
-400.209	800.000	0.043	0.163
-399.194	15.916	0.176	0.137
-398.179	-200.000	0.026	-0.236
-397.165	-200.000	-0.039	0.189
-396.150	1.794	0.027	0.019
-395.136	-100.910	-0.252	-0.061
-394.121	-134.528	0.302	0.037
-393.106	-200.000	-0.031	0.202
-392.092	-200.000	0.009	-0.141
-391.077	134.033	-0.072	0.093
-390.063	-200.000	0.007	0.100
-389.048	800.000	0.099	-0.295
-388.033	-55.710	0.066	-0.029
-387.019	-7.546	0.142	-0.095
-386.004	-200.000	-0.031	-0.416
-384.990	-85.318	0.179	0.055
-383.975	375.317	-0.048	0.098
-382.960	-92.710	0.280	0.078
-381.946	-64.507	-0.071	0.029
-380.931	-200.000	0.080	0.379
-379.917	800.000	0.032	-0.089
-378.902	51.978	-0.140	0.132
-377.888	423.507	0.052	0.111
-376.873	-200.000	-0.044	0.362
-375.858	800.000	-0.069	0.237
-374.844	-200.000	0.012	-0.105
-373.829	-123.902	-0.353	0.055
-372.815	132.586	0.120	0.153
-371.800	-142.772	0.276	-0.027
-370.785	766.936	0.058	0.157
-369.771	57.882	0.037	0.035
-368.756	-48.785	-0.206	-0.098
-367.742	-27.346	0.215	-0.124
-366.727	-8.459	0.158	-0.106
-365.712	16.051	0.174	0.136
-364.698	161.671	-0.097	-0.134
-363.683	800.000	-0.021	0.070
-362.669	39.341	0.170	0.151
-361.654	-200.000	0.027	0.162
-360.639	-200.000	0.016	-0.168
-359.625	800.000	0.078	-0.282
-358.610	39.927	0.121	0.108
-357.596	127.421	-0.053	0.067
-356.581	-200.000	-0.004	-0.094
-355.566	-172.540	-0.251	-0.008
-354.552	-0.368	-0.219	-0.154
-353.537	-139.210	-0.314	0.034
-352.523	-92.331	0.396	0.110
-351.508	-94.607	-0.174	0.047
-350.493	-94.157	0.218	0.059
-349.479	-200.000	0.013	-0.129
-348.464	800.000	-0.062	0.214
-347.450	-200.000	-0.004	0.163
-346.435	59.566	-0.112	-0.109
-345.420	-99.296	-0.348	-0.087
-344.406	800.000	-0.115	0.341
-343.391	-52.825	0.391	-0.178
-342.377	231.530	-0.172	0.280
-341.362	471.663	-0.073	-0.164
-340.348	271.745	0.053	-0.093
-339.333	-127.936	-0.240	-0.034
-338.318	-15.269	-0.195	0.123
-337.304	460.302	0.055	0.122
-336.289	354.749	0.068	-0.134
-335.275	438.966	-0.126	0.273
-334.260	71.035	0.023	-0.023
-333.245	-138.002	0.346	-0.038
-332.231	94.521	-0.149	-0.168
-331.216	75.354	0.085	0.089
-330.202	29.161	-0.199	0.167
-329.187	12.148	0.221	-0.169
-328.172	-200.000	-0.012	0.087
-327.158	26.369	0.397	0.328
-326.143	-200.000	0.003	0.013
-325.129	-200.000	0.003	-0.204
-324.114	-117.106	0.290	-0.052
-323.099	-147.928	0.221	-0.018
-322.085	-101.376	0.191	0.046
-321.070	99.498	0.265	0.304
-320.056	723.822	0.087	0.231
-319.041	653.431	-0.071	0.181
-318.026	-200.000	0.010	0.198
-317.012	800.000	0.022	-0.076
-315.997	-200.000	0.061	0.271
-314.983	32.545	-0.159	0.136
-313.968	202.744	-0.253	-0.387
-312.953	285.373	-0.117	0.208
-311.939	-135.186	0.187	0.022
-310.924	800.000	-0.120	-0.426
-309.910	-149.363	0.410	0.032
-308.895	215.166	0.115	0.181
-307.880	-24.779	0.117	0.068
-306.866	-166.646	0.199	0.008
-305.851	395.972	0.045	-0.093
-304.837	587.501	-0.063	-0.152
-303.822	-200.000	0.005	0.189
-302.807	-117.418	-0.448	0.080
-301.793	208.911	0.203	0.314
-300.778	-127.471	0.297	-0.043
-299.764	-200.000	-0.009	0.216
-298.749	443.128	0.051	-0.111
-297.735	-150.882	0.143	-0.011
-296.720	800.000	-0.039	-0.137
-295.705	800.000	-0.034	0.097
-294.691	209.273	0.240	0.372
-293.676	29.101	-0.247	-0.207
-292.662	81.422	-0.156	0.166
-291.647	-0.793	0.328	0.230
-290.632	800.000	0.045	0.152
-289.618	79.625	0.187	-0.198
-288.603	-58.379	0.121	-0.052
-287.589	18.462	0.230	0.182
-286.574	-200.000	-0.003	0.097
-285.559	-111.542	0.158	0.032
-284.545	-200.000	-0.011	-0.254
-283.530	702.401	-0.097	-0.253
-282.516	40.897	-0.079	0.071
-281.501	54.649	0.202	-0.192
-280.486	-200.000	-0.008	0.100
-279.472	-200.000	-0.040	-0.350
-278.457	500.651	0.117	-0.268
-277.443	-99.894	-0.157	0.039
-276.428	544.389	0.046	0.109
-275.413	97.765	-0.226	0.256
-274.399	303.295	0.212	0.388
-273.384	94.656	0.165	-0.185
-272.370	-88.614	0.399	0.117
-271.355	-42.349	0.218	-0.110
-270.340	800.000	-0.086	-0.284
-269.326	-200.000	-0.139	-0.000
-268.311	-200.000	0.030	0.231
-267.297	-13.050	-0.120	0.077
-266.282	114.437	0.138	0.166
-265.267	6.543	-0.399	-0.293
-264.253	554.667	0.101	0.239
-263.238	-200.000	0.017	-0.202
-262.224	-200.000	0.054	-0.380
-261.209	800.000	0.020	0.084
-260.195	-139.179	-0.246	0.026
-259.180	283.753	-0.026	-0.047
-258.165	-45.939	0.024	-0.012
-257.151	238.563	0.142	0.233
-256.136	-96.653	-0.005	-0.001
-255.122	-200.000	0.001	-0.115
-254.107	-13.219	-0.257	0.165
-253.092	-200.000	0.005	0.022
-252.078	-56.281	0.204	-0.089
-251.063	-117.383	-0.135	-0.024
-250.049	127.042	-0.207	0.259
-249.034	-200.000	-0.004	0.022
-248.019	30.164	0.099	0.083
-247.005	800.000	0.102	0.317
-245.990	474.390	0.048	0.106
-244.976	-91.111	0.510	-0.144
-243.961	137.395	0.176	-0.228
-242.946	100.865	-0.084	0.096
-241.932	-113.716	-0.294	-0.057
-240.917	149.895	0.052	0.069
-239.903	-200.000	0.004	0.119
-238.888	-87.680	0.055	0.016
-237.873	4.072	0.194	-0.140
-236.859	14.808	0.114	-0.088
-235.844	373.405	0.198	0.397
-234.830	-46.323	-0.064	-0.031
-233.815	-200.000	0.047	-0.431
-232.800	147.961	-0.058	0.078
-231.786	-59.046	-0.045	-0.019
-230.771	800.000	-0.094	0.330
-229.757	-92.437	-0.237	-0.066
-228.742	59.768	-0.158	-0.154
-227.727	361.937	-0.058	0.116
-226.713	-187.934	0.275	0.004
-225.698	-76.682	-0.222	-0.077
-224.684	800.000	-0.180	0.501
-223.669	-200.000	0.000	0.104
-222.655	-128.960	0.232	0.032
-221.640	34.104	0.082	-0.071
-220.625	87.742	-0.093	0.102
-219.611	246.509	-0.270	0.448
-218.596	-62.831	0.231	-0.094
-217.582	87.931	-0.237	-0.259
-216.567	-200.000	0.023	0.213
-215.552	305.226	0.059	0.109
-214.538	-200.000	-0.018	-0.263
-213.523	-124.382	0.180	-0.028
-212.509	-178.390	0.366	0.008
-211.494	800.000	-0.042	0.180
-210.479	666.139	0.058	-0.148
-209.465	-200.000	0.033	-0.180
-208.450	-13.272	-0.469	0.300
-207.436	-25.358	0.371	0.216
-206.421	-200.000	-0.008	-0.140
-205.406	-200.000	-0.014	-0.554
-204.392	111.571	0.046	0.055
-203.377	-120.014	-0.095	0.016
-202.363	47.642	0.219	0.202
-201.348	-42.442	0.208	0.105
-200.333	-200.000	0.018	-0.279
-199.319	30.940	0.193	0.163
-198.304	-48.069	-0.252	0.120
-197.290	-200.000	0.054	0.272
-196.275	-200.000	0.014	0.137
-195.260	-88.956	0.374	-0.109
-194.246	-160.082	0.139	-0.007
-193.231	-92.965	-0.047	-0.013
-192.217	-200.000	0.014	0.260
-191.202	43.576	-0.079	-0.071
-190.187	137.837	-0.048	0.061
-189.173	-45.017	0.158	-0.078
-188.158	-48.912	-0.085	0.040
-187.144	-200.000	0.024	0.129
-186.129	-153.212	0.253	0.017
-185.114	800.000	0.058	0.215
-184.100	-128.893	0.155	-0.021
-183.085	-200.000	0.016	0.136
-182.071	-91.412	-0.296	-0.083
-181.056	-99.586	-0.148	0.037
-180.042	671.438	-0.070	0.180
-179.027	78.747	0.075	0.079
-178.012	800.000	-0.139	-0.406
-176.998	-71.904	-0.322	0.118
-175.983	800.000	-0.130	-0.520
-174.969	49.913	-0.278	0.258
-173.954	-19.910	0.349	0.212
-172.939	215.665	0.059	-0.092
-171.925	800.000	-0.070	-0.205
-170.910	-33.953	0.062	-0.034
-169.896	-49.698	0.504	0.236
-168.881	800.000	-0.035	0.099
-167.866	-200.000	-0.003	0.196
-166.852	318.512	-0.109	0.204
-165.837	327.863	0.089	-0.168
-164.823	22.829	0.171	-0.138
-163.808	84.598	-0.185	-0.199
-162.793	100.450	0.120	0.137
-161.779	160.018	0.041	0.056
-160.764	-7.379	0.155	0.103
-159.750	33.722	-0.094	-0.080
-158.735	258.597	-0.104	-0.176
-157.720	-176.307	-0.141	-0.004
-156.706	-114.699	-0.170	-0.032
-155.691	-159.075	-0.044	-0.002
-154.677	2.758	-0.206	-0.147
-153.662	139.983	-0.084	0.108
-152.647	110.594	0.158	-0.186
-151.633	-200.000	-0.013	0.367
-150.618	-200.000	0.015	-0.209
-149.604	150.266	0.076	-0.102
-148.589	203.258	-0.153	0.232
-147.574	-200.000	0.025	0.396
-146.560	52.588	-0.143	0.134
-145.545	13.778	-0.070	0.054
-144.531	-78.545	-0.269	-0.091
-143.516	-44.509	-0.100	0.049
-142.502	-64.387	0.181	-0.073
-141.487	-200.000	0.001	0.084
-140.472	2.026	-0.231	0.164
-139.458	134.335	-0.169	0.216
-138.443	-32.688	0.216	0.118
-137.429	73.814	0.154	0.158
-136.414	41.363	0.239	-0.213
-135.399	89.283	-0.220	-0.241
-134.385	-97.025	0.135	0.035
-133.370	-200.000	-0.093	-0.404
-132.356	140.326	0.064	0.084
-131.341	-135.349	0.146	0.017
-130.326	-200.000	0.037	-0.162
-129.312	-123.149	0.251	0.040
-128.297	218.053	-0.132	-0.207
-127.283	79.011	-0.122	-0.129
-126.268	77.480	0.137	-0.143
-125.253	731.874	0.068	0.178
-124.239	-200.000	0.042	-0.350
-123.224	314.581	0.084	-0.156
-122.210	56.221	-0.193	0.184
-121.195	51.924	-0.308	0.288
-120.180	-200.000	-0.023	-0.143
-119.166	800.000	0.033	0.133
-118.151	-200.000	-0.014	-0.252
-117.137	-104.139	-0.021	0.005
-116.122	10.367	-0.196	0.147
-115.107	-15.256	0.278	0.175
-114.093	224.596	-0.107	0.170
-113.078	-149.491	0.137	0.011
-112.064	-35.598	0.072	-0.039
-111.049	-67.728	0.135	-0.052
-110.034	-31.224	-0.310	0.172
-109.020	554.759	0.010	0.023
-108.005	-200.000	0.036	0.182
-106.991	-59.972	0.269	-0.113
-105.976	-178.002	-0.292	0.007
-104.962	313.759	0.042	0.078
-103.947	110.052	-0.160	-0.189
-102.932	27.999	0.108	-0.089
-101.918	-200.000	0.002	0.037
-100.903	800.000	0.063	0.203
-99.889	136.905	0.200	-0.256
-98.874	-70.645	-0.312	0.116
-97.859	-123.065	-0.379	-0.060
-96.845	-132.658	0.230	0.029
-95.830	-29.585	0.102	-0.057
-94.816	800.000	0.126	0.352
-93.801	162.370	-0.158	0.217
-92.786	583.475	-0.100	0.242
-91.772	-200.000	-0.022	0.465
-90.757	-21.032	-0.086	0.052
-89.743	-200.000	-0.036	0.162
-88.728	266.337	0.156	0.267
-87.713	-200.000	0.046	0.272
-86.699	-200.000	-0.038	-0.196
-85.684	-19.405	-0.087	0.053
-84.670	-66.924	0.318	-0.123
-83.655	-38.038	0.056	0.029
-82.640	82.287	0.196	0.209
-81.626	337.954	0.126	-0.240
-80.611	-200.000	0.089	-0.438
-79.597	800.000	-0.077	-0.289
-78.582	-200.000	-0.017	-0.084
-77.567	-94.699	0.118	-0.031
-76.553	-200.000	0.025	0.201
-75.538	129.193	-0.163	0.204
-74.524	-80.332	-0.135	0.044
-73.509	8.043	0.093	-0.069
-72.494	395.942	-0.085	0.174
-71.480	-200.000	0.031	0.167
-70.465	-122.306	-0.328	-0.052
-69.451	-79.536	-0.104	0.035
-68.436	12.840	0.098	0.074
-67.422	-200.000	-0.018	-0.085
-66.407	-200.000	-0.025	0.264
-65.392	800.000	0.162	0.438
-64.378	-125.132	-0.174	0.026
-63.363	-3.729	0.144	-0.098
-62.349	-55.000	0.085	0.037
-61.334	-22.511	-1.223	-0.725
-60.319	534.129	0.390	0.905
-59.305	-200.000	-0.174	-0.960
-58.290	147.240	1.001	1.319
-57.276	800.000	0.432	1.591
-56.261	-200.000	110.627	640.797
-55.246	491.879	1481.819	3324.740
-54.232	151.312	2642.610	3523.379
-53.217	107.018	2136.522	2485.781
-52.203	39.700	1595.808	1401.978
-51.188	31.829	1344.089	1133.430
-50.173	28.865	1306.267	1084.042
-49.159	55.532	1360.852	1290.330
-48.144	55.767	1375.732	1305.794
-47.130	32.191	1331.976	1125.201
-46.115	28.580	1314.552	1089.049
-45.100	28.320	1309.705	1083.456
-44.086	28.286	1307.684	1081.537
-43.071	28.244	1305.013	1079.039
-42.057	28.298	1303.067	1077.703
-41.042	28.357	1301.506	1076.719
-40.027	28.324	1300.011	1075.244
-39.013	28.332	1298.150	1073.712
-37.998	28.357	1296.057	1072.085
-36.984	28.403	1294.309	1070.862
-35.969	28.351	1292.926	1069.376
-34.954	28.421	1290.844	1068.018
-33.940	28.434	1289.905	1067.271
-32.925	28.444	1288.200	1065.876
-31.911	28.526	1286.742	1065.107
-30.896	28.559	1285.785	1064.461
-29.881	28.527	1284.470	1063.147
-28.867	28.568	1282.909	1062.049
-27.852	28.582	1281.409	1060.846
-26.838	28.523	1280.084	1059.367
-25.823	28.551	1278.545	1058.211
-24.809	28.560	1277.273	1057.170
-23.794	28.548	1276.099	1056.085
-22.779	28.462	1275.052	1054.682
-21.765	28.531	1273.548	1053.794
-20.750	28.490	1271.986	1052.225
-19.736	28.333	1271.094	1050.545
-18.721	28.414	1269.530	1049.673
-17.706	28.285	1268.770	1048.265
-16.692	28.335	1267.644	1047.580
-15.677	28.416	1266.554	1047.102
-14.663	28.452	1265.322	1046.245
-13.648	28.400	1264.279	1045.048
-12.633	28.412	1263.372	1044.324
-11.619	28.392	1262.202	1043.198
-10.604	28.345	1261.513	1042.321
-9.590	28.268	1260.849	1041.292
-8.575	28.309	1259.486	1040.360
-7.560	28.323	1258.546	1039.622
-6.546	28.350	1257.981	1039.268
-5.531	28.362	1257.290	1038.722
-4.517	28.225	1256.403	1037.173
-3.502	28.434	1255.043	1037.190
-2.487	28.415	1254.517	1036.609
-1.473	28.286	1250.388	1032.428
-0.458	26.785	1234.918	1011.246
0.556	21.343	1218.696	972.698
1.571	17.580	1224.749	956.356
2.586	16.770	1239.134	962.899
3.600	16.650	1228.227	953.664
4.615	14.835	1161.737	892.280
5.629	10.943	1094.102	820.651
6.644	9.212	1076.681	798.915
7.659	9.003	1074.368	796.092
8.673	8.928	1073.287	794.849
9.688	8.986	1071.579	793.801
10.702	9.151	1070.106	793.454
11.717	11.446	1072.433	806.459
12.731	15.282	1077.307	829.058
13.746	17.340	1079.978	841.229
14.761	17.333	1079.242	840.545
15.775	16.357	1077.603	834.374
16.790	15.256	1075.571	827.296
17.804	14.546	1073.583	822.199
18.819	14.144	1072.335	819.192
19.834	13.835	1071.817	817.199
20.848	13.664	1070.591	815.351
21.863	13.461	1070.005	813.836
22.877	13.229	1069.453	812.202
23.892	13.351	1068.667	812.132
24.907	13.295	1068.096	811.354
25.921	13.382	1066.580	810.557
26.936	13.403	1064.982	809.373
27.950	13.381	1064.061	808.494
28.965	13.381	1062.709	807.397
29.980	13.599	1060.858	806.981
30.994	13.596	1059.556	805.901
32.009	13.563	1058.481	804.855
33.023	13.506	1057.447	803.717
34.038	13.465	1056.447	802.688
35.053	13.531	1055.467	802.196
36.067	13.383	1054.706	800.827
37.082	13.418	1054.158	800.512
38.096	13.490	1053.429	800.233
39.111	13.450	1052.572	799.319
40.126	13.451	1050.930	798.005
41.140	13.348	1049.313	796.210
42.155	13.296	1048.663	795.400
43.169	13.201	1047.579	794.048
44.184	13.234	1046.827	793.568
45.199	13.287	1045.104	792.447
46.213	13.375	1044.296	792.185
47.228	13.335	1043.513	791.327
48.242	13.469	1041.992	790.748
49.257	13.408	1041.492	790.003
50.271	13.438	1040.308	789.178
51.286	13.564	1039.616	789.185
52.301	13.479	1038.526	787.884
53.315	13.451	1037.338	786.778
54.330	13.285	1036.573	785.342
55.344	13.343	1035.607	784.816
56.359	13.303	1034.854	783.984
57.374	13.334	1033.858	783.308
58.388	13.301	1033.012	782.443
59.403	13.266	1032.572	781.872
60.417	13.270	1030.973	780.613
61.432	13.254	1030.269	779.936
62.447	13.182	1029.671	779.075
63.461	13.132	1028.694	778.030
64.476	13.073	1028.473	777.518
65.490	13.194	1026.992	776.896
66.505	13.172	1026.669	776.479
67.520	13.215	1025.949	776.071
68.534	13.268	1025.287	775.747
69.549	13.264	1024.446	775.023
70.563	13.126	1023.857	773.866
71.578	13.211	1022.650	773.281
72.593	13.131	1021.914	772.281
73.607	13.075	1021.307	771.495
74.622	13.162	1021.080	771.659
75.636	13.136	1020.161	770.778
76.651	13.116	1019.427	770.058
77.666	13.245	1018.546	769.926
78.680	13.081	1017.957	768.652
79.695	13.265	1017.253	768.908
80.709	13.314	1016.938	768.826
81.724	13.316	1016.215	768.223
82.739	13.397	1015.169	767.738
83.753	13.447	1014.679	767.531
84.768	13.635	1013.692	767.591
85.782	13.591	1012.606	766.497
86.797	13.518	1011.943	765.587
87.812	13.373	1011.448	764.475
88.826	13.453	1009.891	763.599
89.841	13.615	1009.064	763.654
90.855	13.589	1008.122	762.757
91.870	13.504	1007.715	761.987
92.884	13.537	1006.654	761.271
93.899	13.534	1005.883	760.607
94.914	13.699	1005.075	760.682
95.928	13.682	1004.179	759.862
96.943	13.545	1003.628	758.749
97.957	13.616	1002.507	758.158
98.972	13.541	1001.713	757.151
99.987	13.536	1000.865	756.418
101.001	13.538	999.836	755.584
102.016	13.505	999.218	754.899
103.030	13.649	998.393	754.867
104.045	13.474	997.808	753.561
105.060	13.463	996.697	752.601
106.074	13.466	995.192	751.415
107.089	13.263	994.487	749.895
108.103	13.314	993.703	749.466
109.118	13.320	992.813	748.758
110.133	13.257	991.906	747.725
111.147	13.322	990.668	747.018
112.162	13.366	990.211	746.803
113.176	13.402	989.564	746.414
114.191	13.372	988.665	745.534
115.206	13.434	988.030	745.270
116.220	13.405	987.180	744.429
117.235	13.453	985.942	743.648
118.249	13.302	985.700	742.721
119.264	13.448	984.496	742.402
120.279	13.383	983.356	741.188
121.293	13.364	982.505	740.393
122.308	13.355	981.962	739.878
123.322	13.396	980.831	739.145
124.337	13.309	979.700	737.840
125.352	13.265	978.802	736.900
126.366	13.398	977.302	736.297
127.381	13.209	977.162	735.286
128.395	13.363	975.825	734.901
129.410	13.423	974.796	734.324
130.424	13.323	974.228	733.390
131.439	13.463	973.266	733.222
132.454	13.357	972.855	732.379
133.468	13.438	971.861	731.922
134.483	13.418	970.969	731.095
135.497	13.522	969.711	730.544
136.512	13.393	969.098	729.450
137.527	13.281	968.481	728.428
138.541	13.456	967.905	728.698
139.556	13.450	967.342	728.185
140.570	13.594	966.267	727.945
141.585	13.610	965.380	727.281
142.600	13.581	964.391	726.345
143.614	13.650	963.844	726.170
144.629	13.710	963.076	725.792
145.643	13.738	961.893	724.956
146.658	13.646	960.700	723.593
147.673	13.544	960.049	722.595
148.687	13.483	959.521	721.865
149.702	13.461	958.822	721.182
150.716	13.518	957.608	720.451
151.731	13.527	957.024	719.985
152.746	13.580	956.137	719.484
153.760	13.728	955.694	719.730
154.775	13.680	954.871	718.841
155.789	13.615	954.382	718.127
156.804	13.733	953.915	718.224
157.819	13.688	953.337	717.530
158.833	13.730	952.418	716.957
159.848	13.840	951.744	716.861
160.862	13.663	950.783	715.311
161.877	13.638	949.529	714.196
162.892	13.674	949.009	713.896
163.906	13.645	947.530	712.596
164.921	13.523	947.324	711.852
165.935	13.601	946.242	711.310
166.950	13.740	945.056	710.952
167.964	13.779	943.898	710.185
168.979	13.642	943.450	709.200
169.994	13.674	942.532	708.585
171.008	13.766	942.054	708.553
172.023	13.864	940.990	708.108
173.037	13.975	939.816	707.639
174.052	13.852	939.338	706.692
175.067	13.753	938.755	705.768
176.081	13.662	938.282	704.961
177.096	13.675	938.241	704.926
178.110	13.747	937.058	704.281
179.125	13.669	936.616	703.553
180.140	13.726	935.846	703.154
181.154	13.901	935.613	703.658
182.169	13.927	935.207	703.404
183.183	13.844	934.452	702.420
184.198	13.895	933.547	701.893
185.213	14.004	932.965	701.854
186.227	13.923	932.363	700.997
187.242	14.051	931.758	701.022
188.256	14.142	930.754	700.588
189.271	14.018	930.272	699.641
190.286	13.858	929.292	698.166
191.300	13.700	929.015	697.236
192.315	13.782	928.072	696.810
193.329	13.909	927.515	696.863
194.344	13.807	927.244	696.168
195.359	13.960	926.414	696.124
196.373	13.992	925.926	695.832
197.388	14.034	925.680	695.762
198.402	14.078	924.898	695.295
199.417	14.209	924.335	695.358
200.432	14.248	923.526	694.851
201.446	14.424	922.977	695.110
202.461	14.332	922.512	694.313
203.475	14.156	922.809	693.744
204.490	14.197	921.661	692.991
205.504	14.149	920.674	691.986
206.519	14.311	919.568	691.768
207.534	14.157	919.345	690.900
208.548	14.277	918.248	690.512
209.563	14.253	917.637	689.890
210.577	14.190	917.069	689.142
211.592	14.263	916.429	688.901
212.607	14.384	915.718	688.806
213.621	14.427	914.970	688.359
214.636	14.408	914.354	687.756
215.650	14.470	913.357	687.202
216.665	14.416	913.198	686.800
217.680	14.510	912.086	686.289
218.694	14.417	912.046	685.816
219.709	14.596	910.969	685.679
220.723	14.497	910.090	684.552
221.738	14.595	909.477	684.431
222.753	14.388	909.094	683.235
223.767	14.551	908.718	683.562
224.782	14.556	907.672	682.733
225.796	14.409	907.643	682.049
226.811	14.619	906.592	682.056
227.826	14.499	906.253	681.251
228.840	14.562	905.080	680.569
229.855	14.394	904.713	679.546
230.869	14.687	903.146	679.499
231.884	14.583	903.004	678.910
232.899	14.478	902.337	677.924
233.913	14.563	901.060	677.246
234.928	14.484	900.588	676.515
235.942	14.503	900.200	676.238
236.957	14.486	899.675	675.716
237.972	14.459	899.278	675.248
238.986	14.439	898.364	674.422
240.001	14.593	897.555	674.377
241.015	14.549	897.133	673.823
242.030	14.652	896.583	673.765
243.045	14.606	896.115	673.169
244.059	14.736	895.624	673.264
245.074	14.695	894.939	672.525
246.088	14.697	894.245	671.950
247.103	14.635	893.742	671.264
248.117	14.888	893.216	671.827
249.132	14.899	892.569	671.326
250.147	15.100	891.838	671.522
251.161	15.031	891.319	670.797
252.176	14.906	890.723	669.788
253.190	15.087	889.985	669.895
254.205	15.000	889.698	669.275
255.220	15.024	889.055	668.826
256.234	15.065	888.313	668.372
257.249	15.114	887.178	667.656
258.263	15.142	886.507	667.203
259.278	15.143	886.280	666.979
260.293	15.042	885.677	666.061
261.307	15.111	885.243	665.949
262.322	15.257	884.303	665.763
263.336	15.360	883.503	665.512
264.351	15.401	882.683	664.999
265.366	15.271	882.232	664.083
266.380	15.312	881.531	663.661
267.395	15.293	880.919	663.064
268.409	15.194	880.091	661.993
269.424	15.224	879.650	661.720
270.439	15.186	879.003	661.027
271.453	15.223	877.949	660.322
272.468	15.175	877.497	659.733
273.482	15.209	877.039	659.463
274.497	15.213	876.432	658.967
275.512	15.325	875.557	658.687
276.526	15.241	875.472	658.238
277.541	15.413	874.808	658.353
278.555	15.560	873.856	658.157
279.570	15.576	873.451	657.855
280.585	15.531	872.643	657.011
281.599	15.470	871.915	656.167
282.614	15.514	871.187	655.733
283.628	15.447	870.701	655.047
284.643	15.487	870.029	654.642
285.657	15.368	869.547	653.755
286.672	15.497	868.831	653.664
287.687	15.532	867.996	653.113
288.701	15.504	867.968	652.923
289.716	15.635	867.290	652.866
290.730	15.630	866.929	652.517
291.745	15.662	866.317	652.125
292.760	15.648	865.443	651.352
293.774	15.727	864.778	651.099
294.789	15.878	864.042	651.073
295.803	15.543	863.559	649.355
296.818	15.582	862.698	648.801
297.833	15.685	861.791	648.459
298.847	15.705	861.152	648.000
299.862	15.724	860.847	647.785
300.876	15.616	860.748	647.237
301.891	15.698	860.404	647.236
302.906	15.715	859.775	646.770
303.920	15.809	858.816	646.355
304.935	15.931	858.161	646.274
305.949	15.951	857.589	645.863
306.964	15.832	857.344	645.165
307.979	15.868	856.578	644.670
308.993	15.895	856.010	644.286
310.008	16.019	855.114	644.028
311.022	15.974	854.973	643.693
312.037	15.791	854.333	642.458
313.052	15.748	853.707	641.764
314.066	15.817	853.034	641.463
315.081	15.882	852.556	641.297
316.095	15.907	851.874	640.821
317.110	15.862	851.296	640.158
318.125	15.886	850.572	639.648
319.139	15.726	850.078	638.614
320.154	15.820	849.876	638.764
321.168	15.969	849.352	638.878
322.183	15.780	848.662	637.587
323.197	15.898	848.373	637.760
324.212	15.914	847.936	637.435
325.227	16.094	847.201	637.505
326.241	15.943	846.384	636.266
327.256	15.957	845.941	635.928
328.270	15.948	845.298	635.356
329.285	15.942	845.036	635.078
330.300	15.963	844.368	634.601
331.314	15.745	844.082	633.509
332.329	16.156	843.271	634.389
333.343	16.059	842.953	633.729
334.358	16.062	842.565	633.393
335.373	16.144	842.258	633.413
336.387	16.108	841.910	632.959
337.402	16.186	841.571	632.941
338.416	16.241	841.258	632.858
339.431	16.217	841.157	632.634
340.446	16.294	840.588	632.440
341.460	16.502	839.497	632.342
342.475	16.410	839.313	631.802
343.489	16.492	839.145	631.927
344.504	16.487	838.489	631.360
345.519	16.547	838.005	631.161
346.533	16.477	837.982	630.827
347.548	16.414	836.915	629.732
348.562	16.363	836.585	629.239
349.577	16.417	836.051	628.982
350.592	16.359	835.342	628.179
351.606	16.432	834.386	627.677
352.621	16.388	834.110	627.247
353.635	16.396	833.211	626.548
354.650	16.428	832.433	626.024
355.665	16.504	832.056	625.969
356.679	16.519	831.554	625.591
357.694	16.511	830.717	624.875
358.708	16.418	830.674	624.443
359.723	16.529	829.640	624.020
360.738	16.641	828.900	623.822
361.752	16.635	828.518	623.456
362.767	16.696	827.738	623.038
363.781	16.692	827.792	623.010
364.796	16.697	827.307	622.609
365.810	16.885	826.398	622.560
366.825	16.682	826.558	621.879
367.840	16.830	826.001	621.950
368.854	16.951	825.174	621.714
369.869	16.891	825.137	621.411
370.883	16.710	824.778	620.424
371.898	16.901	824.456	620.827
372.913	16.827	823.702	619.931
373.927	17.015	823.010	620.045
374.942	16.904	822.869	619.479
375.956	16.912	822.464	619.146
376.971	17.057	821.728	619.065
377.986	17.074	820.958	618.495
379.000	17.167	820.862	618.706
380.015	17.011	820.253	617.624
381.029	16.977	819.756	617.073
382.044	17.057	819.317	616.977
383.059	17.114	818.472	616.494
384.073	17.026	817.949	615.726
385.088	16.985	817.438	615.139
386.102	16.951	816.872	614.534
387.117	17.058	816.321	614.451
388.132	16.938	815.906	613.652
389.146	17.156	815.128	613.800
390.161	17.136	814.730	613.374
391.175	17.145	814.202	612.955
392.190	17.073	813.867	612.388
393.205	17.032	813.505	611.915
394.219	17.166	813.049	612.001
395.234	17.081	812.474	611.208
396.248	17.110	811.971	610.877
397.263	17.132	811.465	610.524
398.278	17.030	811.118	609.841
399.292	17.011	810.950	609.594
400.307	17.020	810.290	609.074
401.321	17.079	809.709	608.794
402.336	17.083	809.207	608.380
403.350	17.145	808.980	608.377
404.365	17.246	808.564	608.370
405.380	17.369	808.000	608.332
406.394	17.375	807.289	607.767
407.409	17.417	807.187	607.786
408.423	17.344	806.906	607.259
409.438	17.501	806.095	607.156
410.453	17.458	805.973	606.857
411.467	17.414	805.455	606.255
412.482	17.501	805.190	606.312
413.496	17.459	805.029	605.988
414.511	17.534	804.556	605.846
415.526	17.616	803.928	605.610
416.540	17.403	803.748	604.666
417.555	17.610	802.867	604.681
418.569	17.725	802.185	604.521
419.584	17.553	802.230	603.893
420.599	17.583	801.746	603.581
421.613	110.807	1295.165	1475.569
422.628	95.444	1367.047	1475.659
