DTS Sentinel unit serial number:	SN413079Multiplexer serial number:	ORYXHardware model number:	OX4-SRSoftware version number:	ORYX F/W v4.00 Oryx Data Collector v3.7.2.0data status	okinstallation	princeton_trtdifferential loss correction	single-endedforward channel	channel 1reverse channel	N/Adate	2019/09/19time	03:10:35forward acquisition time	60.00reverse acquisition time	0.00gamma	496.2192k internal	0.2344k external	0.2344temperature offset calibration	1.0020default loss term (dB/km)	0.3790temperature slope calibration	1.0000multiplexer offset coefficient	1.0000multiplexer slope coefficient	1.0000fibre end	0.00T internal ref (°C)	20.80T ext. ref 1 (°C)	0.65T ext. ref 2 (°C)	14.28length (m)	temperature (°C)	Stokes	anti-Stokes-747.200	158.863	0.119	0.166
-746.185	-51.754	-0.285	-0.133
-745.171	448.037	0.069	0.152
-744.156	-157.930	-0.171	0.010
-743.142	290.259	0.119	0.217
-742.127	49.317	-0.218	-0.205
-741.112	-122.870	-0.202	-0.033
-740.098	284.966	0.073	0.132
-739.083	-200.000	-0.076	0.386
-738.069	-132.807	0.222	0.028
-737.054	66.615	-0.078	-0.080
-736.039	-133.456	-0.159	0.020
-735.025	133.486	0.418	0.541
-734.010	-140.035	-0.087	-0.009
-732.996	-199.733	0.163	-0.001
-731.981	-148.719	-0.060	-0.005
-730.966	-122.464	-0.261	-0.043
-729.952	-200.000	0.046	-0.269
-728.937	24.500	-0.229	-0.189
-727.923	362.863	0.204	-0.410
-726.908	-108.401	-0.287	0.062
-725.894	800.000	0.067	0.269
-724.879	98.795	-0.020	-0.023
-723.864	-51.853	0.210	0.098
-722.850	433.103	-0.152	-0.331
-721.835	-108.984	0.186	-0.040
-720.821	267.627	0.063	0.110
-719.806	-117.737	-0.149	0.027
-718.791	198.864	0.233	-0.357
-717.777	52.944	-0.175	-0.168
-716.762	77.574	-0.130	-0.138
-715.748	-200.000	-0.022	-0.307
-714.733	-106.514	-0.125	-0.028
-713.718	-200.000	-0.103	-0.528
-712.704	-45.892	-0.250	-0.123
-711.689	123.456	0.100	0.126
-710.675	50.297	0.175	-0.165
-709.660	9.907	0.132	-0.100
-708.645	-200.000	0.017	0.246
-707.631	-46.773	-0.070	0.034
-706.616	-46.374	-0.236	0.116
-705.602	94.011	0.172	0.195
-704.587	-44.717	0.199	0.099
-703.572	-200.000	0.040	0.291
-702.558	28.038	0.049	-0.042
-701.543	50.519	-0.269	0.254
-700.529	800.000	-0.014	0.060
-699.514	63.494	0.119	-0.119
-698.499	331.273	-0.169	0.326
-697.485	-200.000	0.032	0.230
-696.470	12.519	0.165	0.127
-695.456	123.128	-0.058	-0.072
-694.441	124.585	0.274	-0.345
-693.426	464.127	-0.076	0.169
-692.412	-200.000	0.028	0.232
-691.397	-61.884	-0.244	0.102
-690.383	-128.360	-0.310	0.044
-689.368	-39.829	-0.119	0.062
-688.354	800.000	0.145	-0.437
-687.339	-135.497	-0.152	0.018
-686.324	-200.000	-0.047	-0.366
-685.310	-103.191	-0.168	-0.040
-684.295	-105.861	-0.248	-0.056
-683.281	350.639	0.224	0.442
-682.266	-200.000	0.001	0.122
-681.251	2.729	0.130	-0.094
-680.237	-149.334	-0.169	-0.013
-679.222	800.000	-0.040	-0.175
-678.208	-107.282	0.229	0.050
-677.193	-61.880	-0.153	0.064
-676.178	-50.967	-0.414	0.194
-675.164	-200.000	-0.073	-0.342
-674.149	301.087	0.093	-0.171
-673.135	-86.601	-0.298	-0.091
-672.120	362.692	-0.074	0.148
-671.105	-80.786	0.328	0.109
-670.091	800.000	0.064	-0.281
-669.076	-30.721	-0.183	0.103
-668.062	800.000	0.108	-0.298
-667.047	-97.761	0.023	0.006
-666.032	96.526	-0.144	0.165
-665.018	-35.945	0.371	0.200
-664.003	-108.001	0.176	-0.038
-662.989	-138.878	-0.085	-0.009
-661.974	-72.983	-0.307	-0.112
-660.959	-187.531	0.313	-0.004
-659.945	-126.014	0.153	-0.023
-658.930	-170.319	-0.233	0.008
-657.916	-89.186	-0.342	-0.101
-656.901	800.000	0.175	-0.496
-655.886	800.000	-0.034	-0.098
-654.872	-200.000	-0.034	-0.231
-653.857	-56.153	-0.121	0.054
-652.843	-67.815	0.156	0.061
-651.828	-14.615	-0.244	0.157
-650.814	800.000	0.086	-0.243
-649.799	-200.000	-0.031	-0.187
-648.784	213.455	-0.211	-0.333
-647.770	239.491	0.060	-0.100
-646.755	589.776	0.029	0.072
-645.741	165.326	-0.256	0.360
-644.726	800.000	-0.106	-0.342
-643.711	800.000	0.025	0.108
-642.697	-176.371	-0.223	-0.006
-641.682	122.352	0.201	-0.250
-640.668	612.199	-0.046	-0.115
-639.653	10.483	0.067	0.051
-638.638	-87.828	-0.473	0.142
-637.624	-102.861	-0.216	-0.051
-636.609	481.663	-0.055	-0.125
-635.595	-97.840	-0.100	0.026
-634.580	-114.326	0.245	0.047
-633.565	-200.000	0.038	-0.306
-632.551	0.499	0.216	0.154
-631.536	-200.000	-0.073	0.459
-630.522	117.754	0.154	-0.189
-629.507	20.177	0.081	0.065
-628.492	800.000	-0.037	0.120
-627.478	115.174	-0.183	-0.222
-626.463	-139.040	-0.301	-0.032
-625.449	571.583	0.073	-0.178
-624.434	-200.000	-0.058	-0.257
-623.419	367.620	-0.063	-0.126
-622.405	-63.229	0.281	-0.115
-621.390	-200.000	-0.033	0.155
-620.376	119.971	-0.245	-0.302
-619.361	-200.000	-0.016	0.203
-618.346	106.289	0.149	-0.176
-617.332	-197.890	0.387	-0.002
-616.317	267.062	-0.166	-0.288
-615.303	-200.000	-0.045	-0.343
-614.288	128.165	-0.099	0.126
-613.273	127.693	-0.129	-0.163
-612.259	105.716	0.108	0.127
-611.244	44.123	-0.169	0.154
-610.230	156.724	0.251	-0.346
-609.215	-56.649	0.217	-0.096
-608.201	759.263	0.073	0.197
-607.186	-4.032	-0.120	0.083
-606.171	-85.728	-0.059	-0.018
-605.157	352.155	0.104	-0.205
-604.142	592.878	-0.165	0.405
-603.128	800.000	-0.030	-0.131
-602.113	19.110	0.149	-0.119
-601.098	-128.827	0.245	0.034
-600.084	62.818	0.244	0.243
-599.069	-20.318	-0.076	-0.046
-598.055	477.974	-0.138	0.311
-597.040	192.058	0.152	-0.228
-596.025	-200.000	-0.011	-0.293
-595.011	292.888	0.039	-0.071
-593.996	-135.661	-0.289	0.034
-592.982	-200.000	-0.017	0.245
-591.967	519.514	0.051	-0.118
-590.952	184.191	0.078	-0.115
-589.938	-200.000	-0.008	-0.281
-588.923	602.946	-0.106	-0.263
-587.909	-200.000	-0.042	0.229
-586.894	43.696	-0.198	0.181
-585.879	40.040	-0.118	0.105
-584.865	-200.000	-0.064	0.575
-583.850	320.216	-0.043	0.081
-582.836	-22.610	-0.176	-0.106
-581.821	800.000	0.075	0.269
-580.806	360.073	-0.044	-0.087
-579.792	75.503	0.042	0.044
-578.777	-17.611	0.143	-0.089
-577.763	180.160	-0.150	-0.219
-576.748	18.165	-0.101	0.080
-575.733	-90.190	-0.146	0.042
-574.719	119.299	0.103	0.127
-573.704	88.664	0.072	-0.080
-572.690	-200.000	-0.035	0.184
-571.675	-172.326	-0.271	-0.009
-570.661	800.000	0.046	-0.129
-569.646	-200.000	0.012	0.093
-568.631	-60.937	-0.230	0.097
-567.617	316.570	-0.046	-0.087
-566.602	752.214	0.054	0.145
-565.588	46.640	-0.287	0.265
-564.573	168.082	-0.237	0.335
-563.558	-186.788	0.181	-0.003
-562.544	800.000	-0.256	-0.792
-561.529	-54.741	0.319	0.143
-560.515	-130.602	-0.458	-0.061
-559.500	-196.254	-0.433	-0.003
-558.485	-181.391	-0.164	-0.003
-557.471	24.750	-0.240	-0.198
-556.456	-166.815	0.531	-0.022
-555.442	708.635	-0.102	0.269
-554.427	-200.000	0.021	-0.177
-553.412	126.226	-0.240	-0.301
-552.398	-118.005	0.218	-0.039
-551.383	-132.837	-0.266	-0.034
-550.369	800.000	-0.046	0.183
-549.354	51.372	-0.121	-0.114
-548.339	-123.105	-0.237	-0.038
-547.325	-35.195	-0.152	0.082
-546.310	75.847	0.114	0.120
-545.296	360.808	-0.047	0.093
-544.281	800.000	-0.073	0.318
-543.266	-126.121	0.175	0.026
-542.252	49.095	-0.112	-0.105
-541.237	8.441	0.118	-0.088
-540.223	-44.533	-0.266	0.132
-539.208	-123.318	-0.221	-0.035
-538.193	-15.705	0.276	-0.174
-537.179	800.000	-0.028	-0.108
-536.164	208.519	0.227	-0.352
-535.150	-155.659	-0.061	-0.004
-534.135	205.482	-0.140	0.216
-533.121	199.744	0.151	0.230
-532.106	32.120	-0.207	0.177
-531.091	-200.000	-0.163	0.001
-530.077	-93.161	-0.087	-0.024
-529.062	-13.972	0.143	-0.091
-528.048	143.232	-0.079	-0.104
-527.033	-81.754	0.186	-0.061
-526.018	-200.000	0.008	0.082
-525.004	341.952	0.127	0.247
-523.989	-99.528	-0.142	-0.035
-522.975	131.062	-0.084	0.107
-521.960	-1.213	0.192	-0.135
-520.945	3.364	0.218	-0.157
-519.931	718.428	0.042	-0.109
-518.916	188.485	0.077	0.114
-517.902	-89.436	-0.302	-0.088
-516.887	64.497	-0.235	0.235
-515.872	87.613	-0.125	0.138
-514.858	292.993	-0.189	-0.343
-513.843	800.000	0.028	-0.105
-512.829	76.867	-0.207	0.218
-511.814	-18.971	0.296	0.183
-510.799	81.455	0.258	0.277
-509.785	24.002	0.135	0.110
-508.770	-12.221	-0.218	0.141
-507.756	-71.821	0.346	0.128
-506.741	357.385	0.086	-0.171
-505.726	153.722	0.138	-0.188
-504.712	253.269	-0.231	0.390
-503.697	-39.324	-0.280	-0.146
-502.683	-200.000	0.059	-0.303
-501.668	78.692	0.349	-0.370
-500.653	-125.250	-0.101	0.015
-499.639	64.555	-0.219	0.219
-498.624	800.000	0.087	0.257
-497.610	-77.279	0.272	0.094
-496.595	800.000	0.030	0.112
-495.581	701.180	0.018	-0.048
-494.566	-91.971	0.115	-0.032
-493.551	369.869	0.035	0.070
-492.537	-200.000	-0.030	-0.242
-491.522	-73.420	-0.105	0.038
-490.508	-126.071	0.204	0.030
-489.493	800.000	-0.026	-0.107
-488.478	-200.000	0.063	0.289
-487.464	44.496	0.110	0.100
-486.449	-103.334	0.236	-0.055
-485.435	-104.821	0.056	-0.013
-484.420	-168.348	-0.440	-0.017
-483.405	143.734	0.275	0.364
-482.391	323.039	0.118	-0.223
-481.376	37.976	-0.029	-0.026
-480.362	-200.000	-0.005	0.229
-479.347	-20.659	0.164	-0.100
-478.332	580.737	0.012	-0.028
-477.318	-200.000	0.017	0.139
-476.303	-48.522	-0.206	0.098
-475.289	-59.104	-0.155	0.066
-474.274	800.000	0.077	-0.302
-473.259	106.629	-0.200	0.235
-472.245	13.852	0.194	-0.150
-471.230	130.783	0.147	0.187
-470.216	-187.938	-0.208	-0.003
-469.201	-200.000	-0.006	0.148
-468.186	-200.000	0.027	0.210
-467.172	-200.000	-0.042	-0.472
-466.157	800.000	0.050	-0.181
-465.143	302.574	-0.090	0.165
-464.128	-84.756	-0.276	0.086
-463.113	336.329	0.101	0.194
-462.099	252.261	0.097	-0.163
-461.084	-200.000	-0.006	-0.114
-460.070	59.395	0.192	-0.188
-459.055	-162.013	0.429	0.021
-458.040	270.223	-0.137	-0.238
-457.026	-11.520	-0.165	-0.107
-456.011	-200.000	-0.001	-0.046
-454.997	392.808	0.022	0.046
-453.982	-200.000	-0.013	0.251
-452.968	175.364	-0.101	-0.145
-451.953	213.919	-0.164	0.256
-450.938	-68.872	-0.244	0.093
-449.924	153.373	0.190	-0.257
-448.909	25.893	0.249	-0.205
-447.895	-86.257	-0.352	-0.107
-446.880	-68.719	-0.222	-0.085
-445.865	-167.622	-0.264	0.010
-444.851	332.523	0.063	0.121
-443.836	15.856	-0.127	-0.099
-442.822	150.299	0.086	-0.115
-441.807	-0.300	0.073	-0.052
-440.792	132.138	0.131	-0.167
-439.778	395.134	0.100	-0.207
-438.763	731.387	-0.078	-0.205
-437.749	5.164	-0.121	0.088
-436.734	-67.837	0.174	-0.067
-435.719	-64.424	-0.219	0.088
-434.705	10.169	-0.215	0.161
-433.690	-52.650	-0.413	0.189
-432.676	331.730	-0.041	-0.079
-431.661	506.268	0.113	0.260
-430.646	-200.000	-0.011	0.293
-429.632	122.861	-0.088	-0.109
-428.617	94.871	0.316	-0.355
-427.603	-193.334	0.120	-0.001
-426.588	-183.071	0.250	-0.004
-425.573	-200.000	-0.001	0.029
-424.559	181.495	0.162	0.235
-423.544	-129.212	0.110	0.015
-422.530	-21.777	0.345	-0.208
-421.515	63.417	-0.107	0.106
-420.500	-38.125	-0.395	0.207
-419.486	-30.541	0.061	-0.034
-418.471	-200.000	0.030	-0.246
-417.457	800.000	0.057	0.206
-416.442	-200.000	0.022	0.350
-415.428	-200.000	-0.023	0.108
-414.413	-200.000	0.006	0.045
-413.398	100.897	0.180	0.207
-412.384	-200.000	0.051	-0.561
-411.369	-47.252	-0.151	-0.073
-410.355	264.742	0.081	-0.139
-409.340	-8.844	-0.340	0.225
-408.325	-115.042	-0.449	0.084
-407.311	-150.792	-0.216	0.016
-406.296	275.304	-0.111	0.194
-405.282	-200.000	-0.013	-0.324
-404.267	56.306	-0.305	-0.293
-403.252	-12.095	-0.247	-0.160
-402.238	-58.872	-0.166	-0.071
-401.223	-103.898	0.172	0.040
-400.209	439.556	-0.112	0.243
-399.194	-151.488	0.411	0.030
-398.179	14.606	0.118	-0.091
-397.165	186.432	-0.085	-0.124
-396.150	-200.000	0.011	0.067
-395.136	99.658	0.017	-0.019
-394.121	-45.558	0.158	-0.077
-393.106	800.000	-0.040	0.153
-392.092	-103.124	0.158	-0.037
-391.077	691.236	0.078	0.203
-390.063	-200.000	-0.006	-0.167
-389.048	50.596	-0.039	0.036
-388.033	-136.177	-0.187	-0.022
-387.019	99.122	-0.131	0.149
-386.004	247.141	0.076	-0.126
-384.990	-119.991	0.399	0.068
-383.975	193.083	0.076	-0.113
-382.960	800.000	-0.013	-0.051
-381.946	236.631	-0.096	-0.157
-380.931	-200.000	0.019	0.191
-379.917	-200.000	0.004	-0.220
-378.902	-139.075	0.110	-0.012
-377.888	7.920	-0.061	0.045
-376.873	-151.649	0.257	-0.019
-375.858	-81.087	-0.489	-0.160
-374.844	-80.008	0.200	0.066
-373.829	-200.000	-0.036	0.167
-372.815	-146.359	-0.165	0.014
-371.800	-86.788	-0.194	-0.058
-370.785	226.070	0.325	0.521
-369.771	328.329	0.091	-0.173
-368.756	107.072	-0.239	-0.280
-367.742	-200.000	-0.042	0.310
-366.727	-51.570	0.164	0.076
-365.712	0.299	0.158	-0.111
-364.698	174.048	-0.173	0.246
-363.683	-200.000	0.006	0.078
-362.669	-94.171	0.299	-0.081
-361.654	-168.697	-0.300	-0.011
-360.639	-5.476	0.148	0.100
-359.625	79.441	0.205	-0.217
-358.610	-70.925	0.101	0.038
-357.596	22.487	0.073	0.059
-356.581	-134.734	0.061	0.007
-355.566	-200.000	0.004	0.088
-354.552	-200.000	-0.023	-0.339
-353.537	390.029	0.073	0.150
-352.523	133.472	-0.026	0.033
-351.508	3.151	-0.092	-0.066
-350.493	-188.514	-0.121	-0.001
-349.479	-74.230	-0.214	0.076
-348.464	-200.000	0.024	-0.267
-347.450	-200.000	-0.027	0.155
-346.435	38.438	-0.297	-0.261
-345.420	414.251	-0.149	0.312
-344.406	-49.665	0.249	0.117
-343.391	109.688	0.130	-0.154
-342.377	387.989	-0.115	-0.234
-341.362	-200.000	0.047	0.346
-340.348	-8.825	0.103	0.068
-339.333	68.362	0.212	-0.214
-338.318	800.000	0.146	-0.441
-337.304	28.716	-0.166	0.139
-336.289	800.000	-0.134	0.423
-335.275	-200.000	-0.008	-0.056
-334.260	-105.061	0.228	-0.051
-333.245	112.827	-0.058	0.069
-332.231	-200.000	0.007	-0.052
-331.216	257.880	-0.154	-0.261
-330.202	-200.000	-0.077	-0.411
-329.187	-80.833	0.217	-0.071
-328.172	-56.666	0.160	0.070
-327.158	207.163	0.159	0.244
-326.143	-39.401	-0.175	0.091
-325.129	-200.000	0.005	0.054
-324.114	-26.488	-0.181	0.104
-323.099	202.845	-0.142	-0.217
-322.085	-116.250	0.430	-0.078
-321.070	255.369	0.169	-0.285
-320.056	800.000	0.027	-0.100
-319.041	-22.868	0.096	0.057
-318.026	358.856	0.107	-0.211
-317.012	58.331	0.032	0.031
-315.997	32.764	0.159	-0.135
-314.983	1.852	0.123	-0.087
-313.968	56.828	-0.281	-0.269
-312.953	0.024	-0.120	0.084
-311.939	-185.799	0.303	0.004
-310.924	-66.511	0.222	-0.087
-309.910	-136.873	-0.202	-0.023
-308.895	45.777	0.134	0.122
-307.880	-143.647	-0.446	-0.042
-306.866	80.354	0.205	-0.217
-305.851	89.949	0.511	0.562
-304.837	350.771	0.133	0.259
-303.822	-120.221	0.254	0.043
-302.807	800.000	0.110	0.305
-301.793	-38.088	0.121	-0.063
-300.778	-49.362	-0.314	0.147
-299.764	-45.524	-0.118	0.057
-298.749	332.233	-0.038	-0.072
-297.735	91.485	0.052	-0.058
-296.720	-200.000	0.028	0.280
-295.705	-200.000	-0.015	0.195
-294.691	-200.000	-0.005	0.236
-293.676	-17.957	-0.109	0.067
-292.662	-126.661	0.261	-0.038
-291.647	54.511	0.127	-0.121
-290.632	-97.785	-0.349	-0.089
-289.618	-200.000	0.011	0.309
-288.603	-93.533	0.126	-0.034
-287.589	-104.080	-0.108	0.025
-286.574	210.745	-0.187	0.288
-285.559	145.689	0.117	-0.154
-284.545	21.622	-0.229	-0.183
-283.530	-116.314	0.132	0.024
-282.516	123.295	-0.118	0.146
-281.501	-200.000	0.006	-0.056
-280.486	-87.227	-0.304	-0.091
-279.472	-162.703	0.099	0.005
-278.457	154.488	-0.106	-0.143
-277.443	-100.308	-0.326	-0.080
-276.428	-57.526	-0.375	-0.162
-275.413	318.333	0.124	-0.230
-274.399	800.000	0.025	-0.085
-273.384	-117.174	0.179	0.032
-272.370	-59.211	-0.293	0.124
-271.355	103.206	-0.114	-0.131
-270.340	-68.855	0.370	0.141
-269.326	-124.332	0.125	-0.019
-268.311	536.873	0.133	0.309
-267.297	800.000	-0.138	0.562
-266.282	-200.000	0.059	0.296
-265.267	9.644	0.235	0.175
-264.253	-133.220	0.045	-0.006
-263.238	-108.825	0.268	-0.056
-262.224	-200.000	0.005	0.184
-261.209	-54.749	-0.226	0.100
-260.195	-106.340	0.206	0.045
-259.180	-57.783	0.172	0.074
-258.165	-58.090	0.199	0.085
-257.151	-148.208	0.357	-0.029
-256.136	-104.638	0.167	-0.038
-255.122	-161.096	0.335	0.017
-254.107	-110.761	-0.384	-0.078
-253.092	23.474	-0.091	0.074
-252.078	800.000	0.033	-0.118
-251.063	-200.000	0.050	0.545
-250.049	111.212	-0.080	0.095
-249.034	123.187	0.060	0.074
-248.019	-143.465	0.189	-0.018
-247.005	12.641	0.225	-0.171
-245.990	-61.043	-0.152	-0.063
-244.976	443.986	0.105	-0.226
-243.961	-156.269	0.249	-0.015
-242.946	-200.000	0.013	0.235
-241.932	-38.259	0.142	-0.074
-240.917	7.466	0.198	0.145
-239.903	57.304	-0.056	0.053
-238.888	-67.540	-0.476	-0.183
-237.873	-200.000	0.021	-0.191
-236.859	-74.785	-0.077	-0.027
-235.844	-200.000	0.039	0.176
-234.830	-44.917	0.152	0.074
-233.815	800.000	-0.174	-0.634
-232.800	79.381	-0.190	-0.200
-231.786	123.367	-0.060	0.073
-230.771	-101.776	-0.135	-0.032
-229.757	-17.364	-0.145	0.089
-228.742	241.499	-0.039	-0.064
-227.727	413.950	0.076	-0.159
-226.713	236.557	0.054	-0.088
-225.698	-52.117	0.285	0.130
-224.684	-23.310	-0.100	0.059
-223.669	336.289	-0.105	0.199
-222.655	-75.712	-0.157	0.055
-221.640	-52.281	-0.326	-0.148
-220.625	-200.000	0.008	-0.122
-219.611	-3.845	-0.227	-0.155
-218.596	44.750	-0.127	-0.115
-217.582	800.000	0.125	-0.352
-216.567	160.861	0.042	-0.057
-215.552	373.125	0.024	-0.049
-214.538	70.751	0.121	0.123
-213.523	95.650	-0.104	0.116
-212.509	-200.000	0.054	-0.421
-211.494	666.654	0.075	0.189
-210.479	-121.942	0.251	0.041
-209.465	46.813	-0.028	-0.025
-208.450	-39.266	0.197	0.102
-207.436	-200.000	-0.053	0.245
-206.421	29.054	-0.192	0.160
-205.406	8.215	0.370	0.273
-204.392	-128.550	0.285	0.040
-203.377	285.375	-0.074	0.131
-202.363	-93.763	-0.275	0.074
-201.348	-33.311	0.173	0.094
-200.333	-200.000	-0.007	-0.140
-199.319	-132.477	-0.230	0.029
-198.304	-62.361	-0.224	0.091
-197.290	-63.349	-0.134	0.054
-196.275	-124.758	-0.193	-0.029
-195.260	-90.116	0.139	-0.040
-194.246	-113.023	0.217	-0.042
-193.231	-200.000	-0.010	-0.079
-192.217	-181.229	0.115	-0.002
-191.202	79.851	0.160	0.169
-190.187	276.997	-0.044	-0.076
-189.173	9.617	-0.338	-0.251
-188.158	-83.733	0.214	-0.067
-187.144	107.716	-0.042	0.049
-186.129	120.284	0.024	0.029
-185.114	364.336	0.166	0.326
-184.100	-53.889	0.116	0.052
-183.085	-104.229	0.409	0.093
-182.071	-200.000	-0.159	0.000
-181.056	75.428	-0.152	0.157
-180.042	770.402	0.139	-0.371
-179.027	-120.255	-0.075	0.013
-178.012	-200.000	0.020	0.100
-176.998	-200.000	0.001	-0.297
-175.983	-68.223	-0.150	0.057
-174.969	-200.000	-0.014	0.283
-173.954	-10.655	0.083	0.054
-172.939	7.316	0.334	0.244
-171.925	230.655	-0.065	0.103
-170.910	-97.617	0.247	0.063
-169.896	-168.527	0.306	-0.011
-168.881	21.180	0.029	-0.023
-167.866	54.845	0.088	-0.083
-166.852	17.520	-0.131	-0.102
-165.837	44.822	0.094	-0.084
-164.823	-140.115	0.218	0.022
-163.808	-200.000	0.013	0.212
-162.793	-200.000	0.020	-0.380
-161.779	-0.253	-0.110	0.076
-160.764	441.668	0.044	-0.094
-159.750	-200.000	-0.038	-0.485
-158.735	-104.188	0.226	0.051
-157.720	-200.000	-0.012	-0.112
-156.706	43.733	-0.202	-0.181
-155.691	-200.000	-0.016	-0.258
-154.677	44.779	0.156	-0.140
-153.662	-67.178	0.400	0.154
-152.647	112.784	-0.056	0.067
-151.633	-200.000	-0.048	0.233
-150.618	-21.468	0.226	0.135
-149.604	-200.000	-0.030	-0.142
-148.589	-19.624	0.218	-0.132
-147.574	-49.817	0.273	-0.127
-146.560	-36.185	-0.075	-0.039
-145.545	-16.795	0.199	-0.123
-144.531	-36.982	0.239	-0.125
-143.516	-4.623	0.191	0.129
-142.502	400.952	0.045	0.093
-141.487	-24.104	-0.094	-0.055
-140.472	41.939	-0.269	0.238
-139.458	19.698	0.132	0.104
-138.443	10.272	0.348	0.259
-137.429	-33.527	0.189	0.102
-136.414	800.000	-0.059	-0.198
-135.399	81.508	0.172	-0.182
-134.385	125.327	-0.111	-0.137
-133.370	-92.916	0.185	0.050
-132.356	293.188	0.270	0.481
-131.341	73.184	-0.202	0.207
-130.326	-109.005	0.097	-0.020
-129.312	-200.000	0.000	0.212
-128.297	-25.136	-0.112	0.065
-127.283	279.590	0.083	-0.145
-126.268	148.205	-0.198	-0.261
-125.253	191.223	-0.094	-0.139
-124.239	632.977	0.050	0.123
-123.224	112.854	-0.301	0.357
-122.210	101.093	-0.043	-0.049
-121.195	-64.803	-0.074	-0.029
-120.180	52.058	0.191	0.178
-119.166	-105.429	-0.168	-0.037
-118.151	-33.372	0.175	-0.095
-117.137	54.057	0.166	0.156
-116.122	104.894	-0.254	0.293
-115.107	-61.942	-0.215	0.088
-114.093	-200.000	0.043	-0.246
-113.078	33.683	0.067	-0.057
-112.064	22.014	0.089	-0.071
-111.049	151.631	0.226	-0.301
-110.034	-200.000	-0.015	-0.112
-109.020	22.884	0.186	0.149
-108.005	-12.187	-0.164	0.105
-106.991	44.504	-0.097	-0.087
-105.976	-55.868	0.132	-0.057
-104.962	16.145	0.334	-0.257
-103.947	-200.000	0.025	0.108
-102.932	87.250	0.023	-0.024
-101.918	-173.046	-0.155	0.005
-100.903	-128.204	0.122	-0.017
-99.889	183.550	-0.111	-0.160
-98.874	-79.899	0.233	0.077
-97.859	-200.000	0.010	0.210
-96.845	800.000	0.019	0.064
-95.830	18.295	0.120	0.093
-94.816	294.370	-0.050	0.088
-93.801	-200.000	-0.100	0.476
-92.786	-18.191	0.385	-0.235
-91.772	259.474	-0.094	0.159
-90.757	116.500	-0.183	-0.219
-89.743	355.603	-0.115	0.222
-88.728	7.827	-0.167	-0.122
-87.713	-102.240	0.323	-0.076
-86.699	-63.000	0.117	0.047
-85.684	15.670	0.082	0.063
-84.670	-34.158	0.060	0.032
-83.655	-185.754	-0.207	0.003
-82.640	-94.245	-0.187	0.050
-81.626	-52.671	0.301	0.135
-80.611	-143.709	-0.156	0.014
-79.597	66.214	0.293	-0.291
-78.582	48.179	0.187	0.171
-77.567	699.491	0.021	0.054
-76.553	284.294	0.050	0.088
-75.538	27.516	-0.044	-0.036
-74.524	16.182	-0.115	0.088
-73.509	-73.558	0.139	0.049
-72.494	71.434	0.380	0.384
-71.480	149.475	0.060	-0.079
-70.465	574.859	-0.082	0.196
-69.451	-149.349	-0.276	-0.021
-68.436	-52.162	-0.241	-0.109
-67.422	-170.374	-0.254	0.009
-66.407	674.805	0.099	-0.250
-65.392	-200.000	0.004	-0.257
-64.378	-200.000	0.036	0.244
-63.363	105.640	0.307	0.354
-62.349	-200.000	-0.017	-0.088
-61.334	71.252	-1.075	-1.087
-60.319	-0.176	0.672	0.466
-59.305	800.000	-0.392	-1.398
-58.290	286.424	0.838	1.473
-57.276	260.421	0.878	1.478
-56.261	-200.000	136.638	679.164
-55.246	336.367	1680.018	3177.712
-54.232	133.939	2804.821	3538.948
-53.217	87.175	2172.821	2340.299
-52.203	31.854	1603.101	1344.966
-51.188	23.879	1352.831	1086.439
-50.173	21.778	1316.265	1044.527
-49.159	49.335	1391.255	1274.694
-48.144	45.696	1399.347	1259.740
-47.130	24.041	1346.906	1082.494
-46.115	20.910	1328.208	1048.619
-45.100	20.794	1322.173	1043.116
-44.086	20.671	1319.937	1040.576
-43.071	20.606	1317.973	1038.596
-42.057	20.588	1315.597	1036.579
-41.042	20.750	1313.632	1035.951
-40.027	20.641	1312.565	1034.424
-39.013	20.806	1310.617	1033.826
-37.998	20.724	1308.658	1031.754
-36.984	20.703	1307.176	1030.420
-35.969	20.833	1305.250	1029.626
-34.954	20.842	1303.612	1028.349
-33.940	20.698	1302.922	1026.912
-32.925	20.746	1301.246	1025.837
-31.911	20.886	1299.112	1024.935
-30.896	20.874	1298.296	1024.183
-29.881	20.935	1296.581	1023.144
-28.867	20.934	1294.782	1021.680
-27.852	20.915	1293.833	1020.777
-26.838	21.010	1292.684	1020.388
-25.823	20.969	1291.323	1019.033
-24.809	20.817	1290.246	1017.255
-23.794	20.759	1289.190	1016.041
-22.779	20.870	1287.447	1015.277
-21.765	20.868	1286.371	1014.373
-20.750	20.855	1284.789	1013.009
-19.736	20.816	1283.428	1011.674
-18.721	20.882	1282.640	1011.393
-17.706	20.795	1281.523	1009.968
-16.692	20.777	1280.583	1009.085
-15.677	20.713	1279.657	1007.940
-14.663	20.671	1278.411	1006.678
-13.648	20.658	1276.993	1005.447
-12.633	20.824	1275.672	1005.326
-11.619	20.752	1275.624	1004.833
-10.604	20.864	1274.397	1004.472
-9.590	20.640	1274.007	1002.833
-8.575	20.648	1273.352	1002.325
-7.560	20.759	1272.369	1002.151
-6.546	20.769	1271.156	1001.213
-5.531	20.689	1270.634	1000.304
-4.517	20.780	1269.358	999.776
-3.502	20.817	1268.333	999.146
-2.487	20.643	1268.164	997.975
-1.473	20.698	1263.130	994.284
-0.458	19.093	1247.621	972.973
0.556	14.513	1232.951	935.455
1.571	11.006	1240.929	921.594
2.586	10.331	1256.660	929.319
3.600	10.475	1244.319	920.928
4.615	7.958	1171.409	853.416
5.629	3.105	1102.759	778.801
6.644	0.776	1086.729	755.785
7.659	0.638	1084.605	753.552
8.673	0.555	1084.302	752.861
9.688	0.651	1082.939	752.325
10.702	0.787	1080.632	751.334
11.717	3.798	1083.675	768.367
12.731	10.144	1092.069	805.955
13.746	15.401	1099.174	837.427
14.761	17.121	1100.825	847.201
15.775	16.521	1099.106	842.816
16.790	15.592	1097.005	836.504
17.804	14.951	1095.341	831.976
18.819	14.593	1094.141	829.212
19.834	14.389	1093.618	827.728
20.848	14.144	1092.552	825.634
21.863	13.846	1092.020	823.681
22.877	13.718	1090.948	822.165
23.892	13.743	1090.404	821.804
24.907	13.662	1089.536	820.678
25.921	13.628	1089.042	820.065
26.936	13.703	1088.060	819.624
27.950	13.802	1086.918	819.176
28.965	13.782	1085.783	818.153
29.980	13.902	1084.775	817.911
30.994	13.913	1083.215	816.718
32.009	13.799	1082.502	815.549
33.023	13.885	1081.415	815.081
34.038	13.903	1080.353	814.292
35.053	13.720	1080.104	813.134
36.067	13.823	1079.082	812.798
37.082	13.882	1077.877	812.109
38.096	13.920	1077.135	811.663
39.111	13.919	1076.184	810.868
40.126	13.853	1074.981	809.572
41.140	13.600	1074.273	807.731
42.155	13.734	1073.018	807.372
43.169	13.800	1071.920	806.791
44.184	13.626	1071.073	805.240
45.199	13.592	1069.780	804.029
46.213	13.597	1068.723	803.189
47.228	13.695	1067.618	802.762
48.242	13.760	1066.777	802.375
49.257	13.768	1065.495	801.378
50.271	13.887	1064.265	800.957
51.286	13.844	1063.848	800.362
52.301	13.761	1062.590	798.945
53.315	13.736	1061.702	798.089
54.330	13.729	1060.714	797.240
55.344	13.652	1059.956	796.228
56.359	13.785	1059.200	796.230
57.374	13.789	1057.926	795.219
58.388	13.663	1057.287	794.068
59.403	13.622	1056.590	793.280
60.417	13.803	1055.305	793.105
61.432	13.562	1055.209	791.815
62.447	13.571	1053.968	790.857
63.461	13.629	1052.916	790.273
64.476	13.693	1052.027	789.840
65.490	13.652	1051.443	789.137
66.505	13.610	1050.607	788.241
67.520	13.571	1050.090	787.595
68.534	13.677	1049.189	787.354
69.549	13.626	1048.212	786.312
70.563	13.694	1047.354	785.920
71.578	13.683	1046.571	785.212
72.593	13.410	1046.167	783.545
73.607	13.698	1045.239	784.140
74.622	13.565	1044.751	783.076
75.636	13.588	1043.981	782.542
76.651	13.637	1043.154	782.084
77.666	13.567	1042.495	781.190
78.680	13.728	1041.277	780.966
79.695	13.642	1041.531	780.682
80.709	13.590	1040.845	779.856
81.724	13.716	1039.720	779.532
82.739	13.852	1038.952	779.529
83.753	13.894	1038.233	779.117
84.768	13.794	1037.828	778.277
85.782	13.893	1036.340	777.554
86.797	13.890	1035.682	776.979
87.812	13.702	1035.107	775.598
88.826	13.817	1033.588	774.929
89.841	13.798	1032.590	774.025
90.855	13.879	1032.049	773.928
91.870	13.917	1030.992	773.243
92.884	13.785	1030.381	772.103
93.899	13.837	1029.864	771.886
94.914	13.900	1028.449	771.051
95.928	13.864	1027.950	770.442
96.943	13.923	1026.842	769.816
97.957	13.895	1025.999	768.986
98.972	13.936	1024.863	768.256
99.987	13.888	1024.307	767.552
101.001	13.756	1023.740	766.448
102.016	13.855	1022.380	765.821
103.030	13.995	1021.343	765.621
104.045	13.933	1020.855	764.902
105.060	13.810	1020.004	763.627
106.074	13.648	1019.434	762.388
107.089	13.724	1017.889	761.517
108.103	13.888	1016.906	761.465
109.118	13.838	1015.986	760.479
110.133	13.879	1015.008	759.869
111.147	13.879	1013.969	759.023
112.162	13.872	1013.485	758.560
113.176	13.779	1012.548	757.367
114.191	13.789	1011.787	756.776
115.206	13.905	1011.115	756.737
116.220	13.795	1010.620	755.799
117.235	13.834	1009.302	754.922
118.249	13.829	1008.534	754.258
119.264	13.795	1008.255	753.830
120.279	13.821	1007.119	753.031
121.293	13.717	1006.351	751.917
122.308	13.747	1005.282	751.191
123.322	13.871	1003.914	750.662
124.337	13.893	1003.058	750.054
125.352	13.880	1001.701	748.915
126.366	13.719	1001.099	747.675
127.381	13.772	999.791	746.869
128.395	13.825	999.066	746.501
129.410	13.807	997.930	745.503
130.424	13.825	997.457	745.167
131.439	13.893	996.373	744.595
132.454	13.761	995.940	743.613
133.468	13.807	995.094	743.120
134.483	13.809	994.226	742.416
135.497	13.830	992.839	741.409
136.512	13.817	992.112	740.742
137.527	13.844	991.505	740.344
138.541	13.757	990.831	739.388
139.556	13.799	990.172	739.016
140.570	13.770	989.510	738.329
141.585	13.938	988.408	738.188
142.600	14.021	987.146	737.547
143.614	14.011	986.357	736.849
144.629	13.958	985.810	736.141
145.643	14.068	984.590	735.653
146.658	13.975	983.976	734.716
147.673	14.033	982.673	733.935
148.687	14.145	981.544	733.519
149.702	13.906	981.734	732.543
150.716	13.864	980.856	731.640
151.731	14.028	979.703	731.436
152.746	13.859	979.371	730.380
153.760	13.891	978.893	730.101
154.775	14.029	978.033	729.998
155.789	14.194	976.928	729.833
156.804	14.036	976.395	728.678
157.819	14.157	975.623	728.566
158.833	14.210	974.614	727.981
159.848	14.286	973.888	727.708
160.862	14.100	973.120	726.256
161.877	14.179	972.159	725.822
162.892	14.144	971.172	724.868
163.906	13.970	970.460	723.513
164.921	14.037	970.228	723.568
165.935	14.112	968.850	722.800
166.950	14.130	968.194	722.325
167.964	14.210	967.028	721.739
168.979	14.137	966.300	720.817
169.994	14.184	965.171	720.115
171.008	14.289	964.346	719.889
172.023	14.317	963.834	719.562
173.037	14.242	963.148	718.664
174.052	14.158	962.530	717.776
175.067	14.119	962.208	717.303
176.081	14.263	961.086	717.026
177.096	14.146	960.815	716.255
178.110	14.244	960.221	716.173
179.125	14.306	959.178	715.598
180.140	14.292	958.990	715.333
181.154	14.342	958.526	715.139
182.169	14.310	958.090	714.613
183.183	14.432	956.866	714.160
184.198	14.399	956.133	713.409
185.213	14.451	955.525	713.115
186.227	14.477	954.651	712.510
187.242	14.361	954.220	711.630
188.256	14.486	953.336	711.441
189.271	14.403	952.932	710.723
190.286	14.337	951.660	709.427
191.300	14.285	951.196	708.798
192.315	14.122	951.099	707.972
193.329	14.246	950.533	708.013
194.344	14.345	949.786	707.813
195.359	14.360	949.027	707.250
196.373	14.448	948.533	707.193
197.388	14.404	948.090	706.613
198.402	14.562	947.376	706.689
199.417	14.556	946.605	706.025
200.432	14.699	946.146	706.226
201.446	14.624	945.345	705.249
202.461	14.653	944.800	704.900
203.475	14.790	944.436	705.144
204.490	14.708	943.790	704.255
205.504	14.672	942.655	703.193
206.519	14.663	941.967	702.580
207.534	14.773	941.522	702.648
208.548	14.712	940.891	701.861
209.563	14.823	939.815	701.459
210.577	14.754	939.509	700.884
211.592	14.738	939.115	700.457
212.607	14.845	938.144	700.120
213.621	14.777	937.121	699.009
214.636	14.797	936.508	698.577
215.650	14.821	935.613	697.947
216.665	14.904	934.748	697.584
217.680	14.905	934.432	697.293
218.694	14.978	933.640	696.942
219.709	14.839	933.273	696.031
220.723	14.849	932.430	695.379
221.738	14.895	932.005	695.193
222.753	14.903	931.078	694.473
223.767	14.958	930.239	694.014
224.782	15.028	929.854	693.955
225.796	14.957	929.386	693.252
226.811	14.998	928.626	692.792
227.826	15.105	927.710	692.488
228.840	15.076	926.945	691.737
229.855	15.043	925.889	690.753
230.869	15.101	925.543	690.673
231.884	15.096	924.965	690.160
232.899	15.125	924.021	689.514
233.913	15.072	923.730	689.019
234.928	14.959	922.916	687.885
235.942	14.964	922.611	687.616
236.957	15.024	921.913	687.282
237.972	15.019	921.192	686.663
238.986	14.935	920.771	685.943
240.001	15.052	919.852	685.680
241.015	15.117	919.272	685.452
242.030	15.174	918.250	684.860
243.045	15.264	917.577	684.667
244.059	15.318	917.109	684.476
245.074	15.196	916.889	683.753
246.088	15.229	915.709	682.948
247.103	15.155	915.669	682.557
248.117	15.401	914.548	682.664
249.132	15.334	914.427	682.237
250.147	15.368	913.495	681.622
251.161	15.388	912.861	681.171
252.176	15.468	912.012	680.801
253.190	15.453	911.862	680.567
254.205	15.444	911.003	679.830
255.220	15.392	910.281	679.020
256.234	15.517	909.817	679.118
257.249	15.597	908.758	678.590
258.263	15.577	908.294	678.102
259.278	15.494	907.240	676.923
260.293	15.701	906.797	677.366
261.307	15.694	906.566	677.104
262.322	15.684	905.718	676.372
263.336	15.633	904.837	675.450
264.351	15.676	904.327	675.180
265.366	15.618	903.774	674.476
266.380	15.755	902.715	674.176
267.395	15.724	902.276	673.664
268.409	15.648	901.808	672.949
269.424	15.618	900.711	671.952
270.439	15.741	899.898	671.778
271.453	15.776	899.024	671.205
272.468	15.719	899.163	671.022
273.482	15.738	898.674	670.673
274.497	15.844	897.491	670.154
275.512	15.838	896.793	669.550
276.526	15.905	896.251	669.350
277.541	15.901	895.826	668.961
278.555	15.835	895.535	668.419
279.570	15.789	894.947	667.739
280.585	16.056	893.794	667.880
281.599	15.901	893.082	666.676
282.614	15.863	892.272	665.859
283.628	15.900	891.939	665.700
284.643	16.045	891.181	665.648
285.657	16.098	890.607	665.368
286.672	15.887	890.206	664.177
287.687	15.983	889.385	663.885
288.701	15.993	888.844	663.463
289.716	15.948	888.264	662.792
290.730	16.040	887.543	662.557
291.745	16.110	886.840	662.250
292.760	16.174	886.284	662.027
293.774	16.100	885.728	661.262
294.789	16.241	884.692	660.982
295.803	15.938	884.685	659.733
296.818	16.108	883.734	659.630
297.833	16.213	882.761	659.257
298.847	16.115	882.221	658.410
299.862	16.088	882.137	658.186
300.876	16.312	880.981	658.136
301.891	16.190	880.551	657.284
302.906	16.355	879.898	657.379
303.920	16.324	879.656	657.020
304.935	16.297	878.825	656.236
305.949	16.336	878.556	656.130
306.964	16.419	877.930	655.927
307.979	16.299	877.421	655.020
308.993	16.521	876.571	655.188
310.008	16.379	876.054	654.197
311.022	16.551	875.096	654.087
312.037	16.523	874.795	653.698
313.052	16.405	874.275	652.794
314.066	16.436	873.695	652.423
315.081	16.408	873.090	651.804
316.095	16.301	872.959	651.236
317.110	16.295	872.150	650.555
318.125	16.472	871.133	650.416
319.139	16.387	871.019	649.948
320.154	16.472	870.265	649.656
321.168	16.498	869.731	649.300
322.183	16.529	869.473	649.166
323.197	16.557	868.756	648.680
324.212	16.420	868.310	647.765
325.227	16.547	867.564	647.639
326.241	16.534	867.349	647.371
327.256	16.510	866.563	646.635
328.270	16.466	866.120	646.081
329.285	16.496	864.981	645.288
330.300	16.655	864.562	645.523
331.314	16.637	864.223	645.147
332.329	16.707	863.667	644.938
333.343	16.546	863.633	644.244
334.358	16.520	863.125	643.710
335.373	16.880	862.341	644.436
336.387	16.677	862.422	643.667
337.402	16.637	862.173	643.272
338.416	16.795	861.378	643.224
339.431	16.813	861.147	643.061
340.446	16.728	860.892	642.493
341.460	16.824	860.497	642.505
342.475	16.860	859.746	642.024
343.489	16.881	859.342	641.744
344.504	16.904	859.010	641.528
345.519	16.858	858.673	641.042
346.533	16.993	857.370	640.526
347.548	16.971	857.355	640.371
348.562	16.920	856.857	639.752
349.577	16.862	856.256	639.027
350.592	16.967	855.552	638.840
351.606	16.863	854.985	637.971
352.621	16.839	854.632	637.561
353.635	16.995	853.459	637.213
354.650	17.024	853.032	636.947
355.665	16.905	852.279	635.883
356.679	17.068	851.575	635.914
357.694	17.089	850.972	635.487
358.708	17.150	850.240	635.109
359.723	17.032	849.508	634.066
360.738	17.083	848.766	633.648
361.752	17.147	848.488	633.620
362.767	17.231	847.436	633.095
363.781	17.100	847.703	632.749
364.796	17.200	847.026	632.558
365.810	17.223	846.550	632.232
366.825	17.273	846.192	632.096
367.840	17.344	845.379	631.696
368.854	17.358	845.174	631.540
369.869	17.191	844.491	630.355
370.883	17.249	844.333	630.394
371.898	17.408	843.633	630.406
372.913	17.274	843.616	629.840
373.927	17.408	842.977	629.805
374.942	17.453	842.519	629.572
375.956	17.320	842.356	628.905
376.971	17.482	841.613	628.892
377.986	17.619	841.077	628.943
379.000	17.465	840.674	628.016
380.015	17.449	840.423	627.714
381.029	17.508	839.744	627.370
382.044	17.597	838.932	627.033
383.059	17.640	837.956	626.406
384.073	17.588	837.729	625.990
385.088	17.568	837.323	625.559
386.102	17.673	836.562	625.318
387.117	17.566	836.383	624.737
388.132	17.687	835.571	624.520
389.146	17.594	834.825	623.566
390.161	17.650	834.632	623.572
391.175	17.869	833.653	623.586
392.190	17.652	833.441	622.578
393.205	17.693	832.860	622.242
394.219	17.600	832.940	621.906
395.234	17.617	832.064	621.259
396.248	17.624	831.744	620.990
397.263	17.631	831.575	620.836
398.278	17.687	830.881	620.466
399.292	17.646	830.630	620.074
400.307	17.669	830.254	619.822
401.321	17.702	829.640	619.429
402.336	17.849	829.015	619.442
403.350	17.901	828.777	619.397
404.365	17.728	828.066	618.183
405.380	17.872	827.820	618.466
406.394	17.901	826.944	617.864
407.409	17.952	826.811	617.894
408.423	18.059	826.291	617.838
409.438	17.920	825.989	617.053
410.453	17.922	825.743	616.823
411.467	18.024	825.130	616.679
412.482	18.039	824.542	616.239
413.496	18.111	824.354	616.303
414.511	18.146	824.001	616.109
415.526	18.005	823.491	615.166
416.540	18.172	822.985	615.334
417.555	18.231	822.165	614.879
418.569	18.111	821.624	613.988
419.584	18.203	821.578	614.232
420.599	18.374	820.874	614.264
421.613	116.020	1301.937	1493.177
422.628	100.693	1371.988	1493.238
