DTS Sentinel unit serial number:	SN413079Multiplexer serial number:	ORYXHardware model number:	OX4-SRSoftware version number:	ORYX F/W v4.00 Oryx Data Collector v3.7.2.0data status	okinstallation	princeton_trtdifferential loss correction	single-endedforward channel	channel 1reverse channel	N/Adate	2019/09/12time	22:54:35forward acquisition time	60.00reverse acquisition time	0.00gamma	496.2192k internal	0.2327k external	0.2327temperature offset calibration	1.0145default loss term (dB/km)	0.3790temperature slope calibration	1.0000multiplexer offset coefficient	1.0000multiplexer slope coefficient	1.0000fibre end	0.00T internal ref (°C)	29.37T ext. ref 1 (°C)	3.71T ext. ref 2 (°C)	23.95length (m)	temperature (°C)	Stokes	anti-Stokes-747.200	66.681	0.146	0.149
-746.185	115.616	0.127	0.157
-745.171	-162.749	0.122	-0.006
-744.156	11.970	0.136	0.105
-743.142	319.051	-0.073	-0.139
-742.127	37.183	0.101	-0.090
-741.112	-200.000	0.011	0.143
-740.098	-33.288	-0.473	0.264
-739.083	-200.000	0.001	0.242
-738.069	-27.269	0.220	0.129
-737.054	285.964	-0.152	-0.276
-736.039	291.182	-0.245	-0.450
-735.025	800.000	0.165	0.506
-734.010	23.758	0.181	0.150
-732.996	-78.301	-0.172	0.060
-731.981	-123.349	0.201	-0.032
-730.966	35.665	0.241	-0.214
-729.952	-38.398	-0.077	-0.041
-728.937	-80.694	-0.220	0.074
-727.923	35.351	-0.108	-0.095
-726.908	800.000	0.032	0.103
-725.894	130.312	0.099	0.128
-724.879	-129.747	0.258	0.036
-723.864	-200.000	0.018	0.148
-722.850	783.665	-0.082	-0.227
-721.835	366.133	-0.070	0.142
-720.821	-200.000	-0.019	-0.141
-719.806	-71.935	-0.183	0.068
-718.791	71.408	0.181	0.189
-717.777	-200.000	0.032	-0.146
-716.762	-200.000	-0.016	-0.083
-715.748	-14.180	-0.224	-0.146
-714.733	-62.921	-0.186	0.078
-713.718	297.344	0.146	0.270
-712.704	372.608	-0.194	-0.397
-711.689	-77.446	-0.249	-0.087
-710.675	133.973	0.171	0.223
-709.660	-200.000	-0.033	-0.197
-708.645	643.495	0.088	-0.225
-707.631	-92.241	0.154	-0.044
-706.616	-123.019	0.169	0.027
-705.602	112.383	-0.120	0.146
-704.587	643.334	-0.034	0.086
-703.572	800.000	-0.091	-0.384
-702.558	-58.079	0.085	-0.037
-701.543	87.995	0.078	-0.087
-700.529	-200.000	0.071	0.000
-699.514	76.685	0.086	0.092
-698.499	-14.356	0.058	0.038
-697.485	-39.096	0.161	0.085
-696.470	296.899	-0.140	-0.258
-695.456	-200.000	0.012	0.100
-694.441	735.460	0.023	0.062
-693.426	-130.208	0.229	0.031
-692.412	-200.000	0.012	0.121
-691.397	67.835	-0.154	0.158
-690.383	-50.132	-0.201	-0.096
-689.368	147.992	-0.209	-0.283
-688.354	-200.000	0.008	0.276
-687.339	42.772	0.087	0.079
-686.324	58.174	-0.109	-0.108
-685.310	-200.000	-0.020	0.218
-684.295	800.000	0.078	0.332
-683.281	133.507	0.227	-0.295
-682.266	444.589	-0.075	-0.167
-681.251	13.620	-0.206	-0.161
-680.237	138.893	-0.150	-0.199
-679.222	-40.082	0.084	0.044
-678.208	-200.000	-0.011	-0.211
-677.193	126.310	0.128	-0.162
-676.178	-106.567	-0.044	0.010
-675.164	28.727	0.255	0.217
-674.149	-200.000	0.028	0.322
-673.135	97.220	0.129	-0.149
-672.120	-56.314	0.202	-0.090
-671.105	7.058	0.125	0.094
-670.091	324.981	0.075	0.144
-669.076	-138.777	0.127	0.014
-668.062	-60.813	0.216	-0.092
-667.047	108.184	-0.243	0.291
-666.032	275.301	0.135	0.240
-665.018	5.725	0.060	0.045
-664.003	243.564	-0.064	-0.107
-662.989	74.149	0.114	0.120
-661.974	21.220	0.022	0.018
-660.959	240.565	-0.180	-0.302
-659.945	-140.621	0.059	-0.006
-658.930	-25.336	0.145	-0.086
-657.916	69.053	-0.065	0.067
-656.901	146.419	0.118	0.160
-655.886	374.559	0.120	0.245
-654.872	171.935	-0.162	-0.235
-653.857	91.046	-0.171	-0.193
-652.843	13.384	-0.080	0.062
-651.828	-200.000	0.011	0.079
-650.814	12.669	-0.282	0.219
-649.799	-39.399	0.167	-0.088
-648.784	10.454	0.096	0.073
-647.770	-94.866	-0.176	0.048
-646.755	-90.011	-0.067	-0.020
-645.741	-41.766	-0.243	0.125
-644.726	-196.987	0.253	0.002
-643.711	800.000	-0.011	-0.037
-642.697	50.496	-0.087	-0.082
-641.682	-200.000	-0.038	-0.209
-640.668	19.584	-0.056	-0.045
-639.653	20.044	0.282	0.229
-638.638	-59.132	-0.402	0.174
-637.624	-200.000	0.059	-0.291
-636.609	-106.616	-0.168	0.038
-635.595	99.582	-0.062	-0.072
-634.580	800.000	0.044	-0.144
-633.565	-148.770	-0.227	-0.019
-632.551	-60.738	0.152	-0.065
-631.536	-185.226	0.168	-0.003
-630.522	-200.000	-0.003	0.384
-629.507	800.000	-0.014	0.040
-628.492	-200.000	0.027	-0.143
-627.478	-45.714	-0.127	0.063
-626.463	-88.357	0.100	0.030
-625.449	49.087	0.165	0.156
-624.434	-200.000	0.010	-0.448
-623.419	350.497	-0.160	0.317
-622.405	111.235	-0.167	0.202
-621.390	89.810	0.086	-0.096
-620.376	221.233	0.174	0.281
-619.361	-160.744	-0.227	0.012
-618.346	-200.000	0.022	0.212
-617.332	433.192	-0.014	0.029
-616.317	377.522	-0.154	-0.316
-615.303	-105.024	0.312	0.072
-614.288	117.859	0.073	0.091
-613.273	-200.000	0.001	-0.121
-612.259	-110.866	0.375	0.077
-611.244	-9.558	-0.168	-0.113
-610.230	52.127	0.141	-0.135
-609.215	-122.143	-0.152	-0.025
-608.201	800.000	0.049	-0.142
-607.186	374.812	-0.169	0.345
-606.171	-38.701	-0.108	-0.057
-605.157	35.563	0.069	-0.061
-604.142	800.000	-0.056	-0.175
-603.128	190.841	-0.057	-0.086
-602.113	-195.843	-0.520	0.004
-601.098	-200.000	-0.020	-0.141
-600.084	7.321	0.221	-0.166
-599.069	-200.000	0.032	0.252
-598.055	-29.192	0.223	0.128
-597.040	134.587	0.092	0.120
-596.025	-11.406	-0.112	-0.074
-595.011	-100.729	0.222	0.055
-593.996	-200.000	-0.012	-0.186
-592.982	522.748	-0.137	-0.322
-591.967	-200.000	0.029	-0.277
-590.952	-200.000	-0.007	-0.168
-589.938	-16.108	-0.283	0.180
-588.923	-32.585	0.179	-0.100
-587.909	-200.000	0.016	-0.238
-586.894	683.449	0.070	-0.182
-585.879	-95.914	0.106	0.028
-584.865	188.468	0.054	0.081
-583.850	-107.494	-0.351	-0.077
-582.836	-200.000	-0.023	0.193
-581.821	94.242	-0.147	0.167
-580.806	-200.000	0.060	-0.444
-579.792	115.457	-0.340	0.417
-578.777	204.962	0.064	-0.100
-577.763	676.983	0.102	-0.265
-576.748	-197.092	0.130	-0.001
-575.733	-70.436	0.132	0.050
-574.719	-185.605	0.229	0.003
-573.704	-76.837	-0.241	0.084
-572.690	-93.437	0.136	-0.038
-571.675	-101.000	-0.083	-0.020
-570.661	-39.332	0.257	-0.135
-569.646	556.694	0.073	-0.177
-568.631	-71.628	0.174	-0.065
-567.617	25.396	-0.138	-0.115
-566.602	78.361	-0.130	-0.139
-565.588	432.499	-0.126	-0.273
-564.573	47.957	0.173	-0.162
-563.558	-76.986	-0.318	-0.111
-562.544	781.947	-0.050	-0.138
-561.529	-144.242	0.175	-0.016
-560.515	-15.911	-0.262	0.167
-559.500	-200.000	0.001	-0.057
-558.485	-24.031	0.207	0.124
-557.471	-136.037	0.256	-0.030
-556.456	-48.291	0.091	0.044
-555.442	-155.225	-0.278	0.018
-554.427	74.530	-0.067	-0.070
-553.412	-85.923	0.131	0.041
-552.398	448.076	-0.089	-0.197
-551.383	-100.058	0.135	-0.034
-550.369	800.000	-0.090	-0.254
-549.354	-41.234	-0.183	-0.095
-548.339	146.024	-0.083	0.111
-547.325	-124.162	0.225	0.035
-546.310	115.004	-0.181	-0.220
-545.296	-200.000	-0.010	-0.139
-544.281	-103.101	0.106	0.025
-543.266	202.031	0.085	0.131
-542.252	-200.000	0.109	-0.566
-541.237	-60.916	-0.204	-0.086
-540.223	15.005	0.205	0.161
-539.208	-200.000	-0.030	0.166
-538.193	-116.330	-0.224	-0.041
-537.179	-200.000	-0.003	0.018
-536.164	-55.011	0.307	-0.139
-535.150	-101.235	0.140	-0.034
-534.135	-22.788	-0.173	-0.104
-533.121	11.350	-0.147	0.112
-532.106	800.000	-0.084	0.300
-531.091	572.113	-0.048	-0.117
-530.077	-79.051	-0.181	0.062
-529.062	4.200	-0.189	-0.138
-528.048	52.244	-0.240	-0.229
-527.033	-200.000	0.002	-0.323
-526.018	741.514	-0.125	0.337
-525.004	800.000	-0.022	-0.091
-523.989	-200.000	-0.004	-0.026
-522.975	88.231	0.046	-0.051
-521.960	800.000	-0.019	-0.057
-520.945	-106.657	0.200	-0.045
-519.931	277.632	-0.086	0.153
-518.916	4.792	-0.128	-0.094
-517.902	11.814	0.228	-0.175
-516.887	-65.850	-0.119	0.048
-515.872	1.591	-0.142	0.102
-514.858	18.378	-0.170	-0.136
-513.843	400.997	-0.023	0.049
-512.829	98.256	-0.062	-0.071
-511.814	-200.000	-0.018	-0.261
-510.799	-52.515	-0.332	-0.153
-509.785	-60.969	-0.251	-0.106
-508.770	800.000	0.053	0.223
-507.756	-200.000	0.009	-0.243
-506.741	71.343	0.257	0.266
-505.726	-200.000	-0.011	-0.273
-504.712	706.686	-0.138	0.363
-503.697	120.261	-0.105	-0.130
-502.683	-200.000	-0.039	-0.260
-501.668	186.521	0.076	-0.113
-500.653	440.667	-0.106	0.231
-499.639	-58.479	-0.381	0.165
-498.624	-3.175	-0.164	-0.114
-497.610	-70.376	-0.071	-0.027
-496.595	-200.000	-0.023	0.372
-495.581	51.559	0.103	-0.098
-494.566	276.872	-0.195	0.346
-493.551	-74.945	-0.287	-0.103
-492.537	237.257	-0.161	0.267
-491.522	75.083	0.230	-0.242
-490.508	-200.000	-0.054	-0.287
-489.493	-200.000	0.006	-0.057
-488.478	-2.498	0.110	0.077
-487.464	204.842	0.177	-0.274
-486.449	-200.000	-0.026	-0.176
-485.435	24.811	-0.153	0.126
-484.420	-200.000	-0.013	-0.220
-483.405	119.085	-0.196	-0.242
-482.391	260.393	0.176	0.304
-481.376	70.792	-0.131	0.135
-480.362	345.833	-0.055	0.109
-479.347	-10.549	0.226	0.149
-478.332	-31.849	-0.056	0.031
-477.318	-182.622	-0.239	0.004
-476.303	-200.000	-0.036	0.306
-475.289	143.073	-0.058	0.077
-474.274	82.803	-0.232	-0.251
-473.259	143.493	-0.045	-0.060
-472.245	545.415	0.050	-0.119
-471.230	-56.245	-0.172	0.076
-470.216	-168.231	0.373	-0.014
-469.201	-200.000	-0.003	0.096
-468.186	-34.232	0.057	0.031
-467.172	-124.548	-0.263	-0.041
-466.157	-121.175	0.174	-0.029
-465.143	268.489	-0.086	-0.150
-464.128	-38.286	0.227	0.120
-463.113	-154.350	-0.258	0.017
-462.099	-171.373	-0.219	0.007
-461.084	114.931	0.090	-0.109
-460.070	-200.000	0.035	0.259
-459.055	53.643	0.161	0.154
-458.040	37.202	-0.155	0.137
-457.026	34.713	-0.174	-0.152
-456.011	286.232	-0.056	-0.101
-454.997	800.000	-0.020	0.066
-453.982	70.834	0.493	-0.509
-452.968	136.362	-0.025	-0.032
-451.953	-83.831	0.156	0.050
-450.938	-127.321	-0.198	0.029
-449.924	-174.867	0.185	-0.005
-448.909	-138.417	-0.192	0.021
-447.895	269.430	-0.081	0.142
-446.880	-200.000	-0.031	0.149
-445.865	-89.413	-0.140	-0.041
-444.851	320.386	-0.289	0.546
-443.836	-200.000	-0.006	0.110
-442.822	800.000	-0.055	-0.191
-441.807	234.976	-0.153	-0.252
-440.792	16.097	-0.074	0.058
-439.778	-148.655	0.293	-0.024
-438.763	-200.000	-0.015	-0.290
-437.749	262.085	0.054	0.094
-436.734	103.964	-0.078	0.091
-435.719	-200.000	-0.005	-0.058
-434.705	-51.867	-0.235	0.109
-433.690	454.909	0.050	0.110
-432.676	219.665	0.088	-0.140
-431.661	3.229	0.345	0.250
-430.646	301.025	-0.115	0.212
-429.632	287.541	0.071	0.128
-428.617	554.552	-0.010	0.024
-427.603	-18.480	-0.138	-0.086
-426.588	-93.920	0.433	-0.119
-425.573	501.640	0.073	-0.168
-424.559	86.314	-0.134	-0.147
-423.544	-52.472	0.223	0.103
-422.530	458.539	0.184	-0.406
-421.515	88.903	0.065	-0.072
-420.500	-100.465	0.195	0.048
-419.486	-18.756	0.198	-0.123
-418.471	245.714	-0.137	0.229
-417.457	193.326	-0.216	-0.326
-416.442	411.022	0.053	-0.112
-415.428	800.000	0.057	0.173
-414.413	-200.000	0.008	-0.211
-413.398	-200.000	-0.011	-0.108
-412.384	31.841	-0.199	0.171
-411.369	-200.000	-0.012	0.146
-410.355	724.722	-0.121	0.321
-409.340	199.595	0.154	0.235
-408.325	800.000	0.085	0.258
-407.311	167.268	0.102	-0.144
-406.296	800.000	0.081	-0.231
-405.282	149.119	0.185	0.249
-404.267	-200.000	0.001	-0.013
-403.252	800.000	0.033	0.144
-402.238	182.387	-0.135	0.198
-401.223	498.923	-0.061	0.139
-400.209	-138.959	-0.335	-0.036
-399.194	800.000	-0.022	0.065
-398.179	346.957	-0.137	0.269
-397.165	-39.466	0.118	-0.062
-396.150	90.791	-0.092	0.103
-395.136	375.995	0.181	0.368
-394.121	-76.836	0.132	0.046
-393.106	-56.652	0.318	-0.140
-392.092	800.000	0.009	-0.034
-391.077	-17.910	-0.112	0.070
-390.063	-119.865	0.279	0.048
-389.048	800.000	-0.043	-0.140
-388.033	-147.152	-0.118	-0.010
-387.019	-101.923	0.142	0.034
-386.004	7.675	-0.207	0.154
-384.990	13.497	0.186	-0.143
-383.975	143.772	0.164	0.217
-382.960	-133.912	0.199	0.025
-381.946	-143.010	-0.294	-0.028
-380.931	-55.938	-0.299	-0.133
-379.917	381.903	0.141	-0.288
-378.902	82.106	-0.055	-0.059
-377.888	114.303	0.116	0.141
-376.873	-200.000	-0.006	0.037
-375.858	-7.537	0.140	0.094
-374.844	159.043	0.120	0.165
-373.829	-139.126	0.336	0.036
-372.815	56.650	0.180	-0.174
-371.800	337.323	0.057	-0.110
-370.785	-142.983	-0.104	0.010
-369.771	-200.000	0.024	0.163
-368.756	-200.000	-0.029	-0.155
-367.742	-29.898	0.052	-0.030
-366.727	620.686	0.058	-0.145
-365.712	164.677	0.038	-0.053
-364.698	-58.855	0.272	-0.117
-363.683	335.872	-0.069	0.133
-362.669	800.000	-0.104	0.310
-361.654	188.400	-0.144	0.214
-360.639	-128.223	-0.078	-0.011
-359.625	139.977	0.181	0.237
-358.610	-175.663	0.477	0.013
-357.596	138.168	-0.245	0.319
-356.581	800.000	0.034	-0.099
-355.566	-200.000	-0.045	-0.276
-354.552	188.907	0.125	-0.186
-353.537	-83.622	0.282	-0.089
-352.523	-200.000	0.040	-0.214
-351.508	800.000	0.059	-0.250
-350.493	-79.501	0.173	0.058
-349.479	67.904	-0.253	0.257
-348.464	-82.476	-0.153	0.049
-347.450	23.427	0.043	-0.035
-346.435	51.457	-0.173	-0.163
-345.420	323.692	-0.027	-0.052
-344.406	42.733	0.233	0.211
-343.391	617.443	-0.067	0.166
-342.377	-173.169	-0.430	0.013
-341.362	208.516	0.234	0.364
-340.348	-25.252	-0.172	0.101
-339.333	366.092	-0.081	-0.162
-338.318	-29.628	0.234	-0.132
-337.304	-116.614	0.098	0.018
-336.289	-65.287	0.120	-0.048
-335.275	195.380	-0.020	-0.030
-334.260	-96.923	-0.251	0.065
-333.245	108.679	-0.142	-0.169
-332.231	248.127	0.186	-0.312
-331.216	235.213	0.128	-0.210
-330.202	-200.000	-0.055	0.252
-329.187	-200.000	0.039	-0.170
-328.172	-120.759	0.352	0.059
-327.158	-200.000	-0.005	-0.166
-326.143	-145.373	-0.251	0.022
-325.129	-101.436	-0.201	-0.049
-324.114	-200.000	0.011	0.192
-323.099	-67.674	0.076	-0.029
-322.085	110.409	-0.130	0.155
-321.070	-171.302	0.186	-0.006
-320.056	-129.660	-0.154	-0.021
-319.041	47.984	-0.141	0.131
-318.026	785.832	0.123	0.334
-317.012	-200.000	0.034	0.156
-315.997	800.000	-0.045	-0.186
-314.983	-200.000	-0.025	0.227
-313.968	-200.000	-0.014	0.087
-312.953	-200.000	0.002	0.208
-311.939	332.096	0.188	0.359
-310.924	19.422	-0.201	0.160
-309.910	-125.601	-0.237	0.036
-308.895	26.890	-0.151	-0.125
-307.880	-153.735	-0.236	0.016
-306.866	86.163	0.163	-0.178
-305.851	800.000	-0.016	-0.047
-304.837	166.088	-0.029	0.040
-303.822	-10.823	-0.297	0.195
-302.807	-151.112	-0.141	-0.010
-301.793	4.427	-0.062	-0.045
-300.778	103.655	0.144	-0.168
-299.764	800.000	0.046	0.132
-298.749	-200.000	0.006	0.237
-297.735	-162.155	0.302	-0.015
-296.720	-95.951	-0.180	0.047
-295.705	-92.110	-0.190	0.053
-294.691	800.000	-0.070	0.234
-293.676	85.664	0.054	0.059
-292.662	-200.000	-0.005	-0.123
-291.647	-76.005	-0.248	0.087
-290.632	136.572	-0.264	0.342
-289.618	437.257	0.056	0.120
-288.603	-200.000	-0.022	0.212
-287.589	219.357	0.118	0.188
-286.574	-156.623	0.294	-0.018
-285.559	-200.000	-0.037	-0.238
-284.545	-70.277	0.201	-0.076
-283.530	-39.461	0.102	-0.053
-282.516	106.877	0.144	0.169
-281.501	-58.691	0.248	0.106
-280.486	14.915	-0.169	-0.131
-279.472	-72.886	0.287	0.105
-278.457	222.867	0.127	-0.202
-277.443	-95.010	0.330	0.088
-276.428	174.684	-0.032	-0.046
-275.413	-30.265	-0.239	-0.134
-274.399	227.478	0.053	0.085
-273.384	800.000	0.038	-0.150
-272.370	117.600	-0.189	0.230
-271.355	190.090	-0.255	0.379
-270.340	41.130	-0.047	0.042
-269.326	-123.124	0.123	0.019
-268.311	-49.224	-0.089	0.042
-267.297	-200.000	0.080	0.371
-266.282	-91.118	-0.116	0.033
-265.267	3.142	0.078	-0.056
-264.253	585.746	0.094	-0.228
-263.238	265.570	-0.054	0.094
-262.224	90.202	0.114	0.126
-261.209	-200.000	0.030	-0.221
-260.195	800.000	0.107	-0.384
-259.180	-113.456	-0.119	-0.023
-258.165	-200.000	-0.059	-0.302
-257.151	-31.714	0.298	-0.165
-256.136	800.000	-0.083	0.230
-255.122	-132.546	0.061	0.008
-254.107	-200.000	-0.019	0.091
-253.092	-3.271	0.032	0.022
-252.078	13.992	0.052	0.040
-251.063	800.000	0.101	-0.334
-250.049	-200.000	0.037	0.259
-249.034	-37.567	-0.182	0.096
-248.019	-106.482	-0.248	0.055
-247.005	800.000	-0.087	-0.337
-245.990	-57.693	0.127	-0.055
-244.976	-118.075	-0.100	0.018
-243.961	439.454	0.090	-0.195
-242.946	-19.956	-0.054	-0.033
-241.932	-79.680	-0.040	0.013
-240.917	150.599	0.049	-0.066
-239.903	129.781	-0.222	0.281
-238.888	-63.809	-0.250	0.101
-237.873	-122.792	0.042	0.007
-236.859	-48.152	0.212	-0.101
-235.844	800.000	0.019	-0.077
-234.830	163.359	-0.199	-0.276
-233.815	-200.000	-0.044	-0.359
-232.800	-116.970	0.094	0.017
-231.786	-200.000	0.015	0.265
-230.771	241.736	0.085	0.140
-229.757	69.680	-0.005	-0.005
-228.742	26.687	0.190	-0.157
-227.727	110.623	-0.085	0.101
-226.713	30.160	-0.157	-0.132
-225.698	-104.450	0.324	0.074
-224.684	-82.371	-0.282	0.090
-223.669	189.153	-0.136	-0.202
-222.655	79.972	-0.084	0.089
-221.640	313.110	0.126	-0.233
-220.625	-46.088	-0.117	0.057
-219.611	606.742	-0.041	0.101
-218.596	-22.849	-0.123	-0.073
-217.582	-163.510	0.167	-0.008
-216.567	-35.598	0.218	0.117
-215.552	-68.257	-0.200	-0.077
-214.538	659.016	-0.106	0.270
-213.523	-53.724	0.254	0.115
-212.509	-132.109	-0.132	0.017
-211.494	154.907	0.153	0.207
-210.479	111.722	-0.152	-0.181
-209.465	-45.986	0.134	-0.065
-208.450	-119.739	0.065	0.011
-207.436	-200.000	-0.040	0.279
-206.421	-54.422	0.127	0.057
-205.406	11.715	-0.049	-0.037
-204.392	800.000	-0.061	-0.225
-203.377	154.511	-0.106	0.144
-202.363	4.989	-0.196	0.142
-201.348	202.110	0.102	0.156
-200.333	-73.297	-0.329	-0.119
-199.319	-26.411	-0.244	-0.141
-198.304	-3.036	0.063	-0.043
-197.290	-98.877	0.079	-0.020
-196.275	800.000	0.030	-0.088
-195.260	-72.340	-0.168	0.062
-194.246	47.981	0.123	0.114
-193.231	81.865	0.311	-0.332
-192.217	-42.087	-0.121	0.061
-191.202	88.071	-0.202	-0.221
-190.187	220.146	-0.029	0.046
-189.173	800.000	-0.074	0.233
-188.158	-68.089	-0.164	-0.063
-187.144	-156.428	0.307	0.019
-186.129	719.867	-0.057	-0.150
-185.114	-200.000	-0.035	0.312
-184.100	-88.329	-0.247	-0.073
-183.085	-101.363	0.132	0.032
-182.071	-66.032	-0.118	-0.046
-181.056	-87.795	0.127	0.038
-180.042	287.771	-0.063	-0.112
-179.027	153.318	0.318	0.429
-178.012	800.000	-0.077	-0.230
-176.998	-94.032	0.197	0.053
-175.983	35.567	0.261	-0.226
-174.969	-200.000	0.022	-0.237
-173.954	800.000	0.015	-0.064
-172.939	46.896	-0.132	-0.121
-171.925	-144.255	0.184	0.017
-170.910	-200.000	0.008	-0.067
-169.896	18.300	0.149	0.117
-168.881	-51.897	0.268	0.123
-167.866	23.907	-0.085	0.069
-166.852	46.091	0.121	-0.111
-165.837	800.000	-0.120	0.354
-164.823	-200.000	0.024	0.238
-163.808	255.550	0.168	0.284
-162.793	-63.150	0.208	0.084
-161.779	147.528	-0.040	0.053
-160.764	-106.538	0.485	0.107
-159.750	554.124	-0.059	-0.140
-158.735	8.981	0.138	-0.102
-157.720	24.952	0.251	0.205
-156.706	800.000	0.011	0.047
-155.691	100.450	0.105	-0.121
-154.677	-79.832	0.317	-0.105
-153.662	263.551	-0.156	-0.267
-152.647	23.056	0.186	-0.151
-151.633	-156.664	0.129	0.008
-150.618	345.611	0.144	0.280
-149.604	616.937	-0.043	-0.106
-148.589	-13.870	0.150	-0.096
-147.574	-105.265	0.459	-0.103
-146.560	584.210	-0.021	0.051
-145.545	-48.188	-0.079	0.037
-144.531	800.000	-0.060	-0.228
-143.516	-200.000	-0.021	-0.226
-142.502	-200.000	0.064	0.296
-141.487	24.242	0.140	0.114
-140.472	-30.933	-0.135	-0.075
-139.458	-97.279	-0.219	0.056
-138.443	110.211	-0.225	0.266
-137.429	800.000	-0.080	0.282
-136.414	-200.000	-0.029	0.202
-135.399	4.782	0.129	-0.093
-134.385	-175.870	0.075	0.002
-133.370	-200.000	-0.013	-0.228
-132.356	-85.228	0.281	-0.087
-131.341	-200.000	-0.004	-0.227
-130.326	-47.182	-0.355	0.170
-129.312	-200.000	-0.016	0.337
-128.297	-64.593	0.215	0.086
-127.283	-19.762	0.176	-0.107
-126.268	59.716	0.213	-0.207
-125.253	800.000	-0.025	-0.080
-124.239	-17.687	-0.151	0.093
-123.224	-161.564	0.311	-0.016
-122.210	10.616	-0.052	-0.039
-121.195	-68.343	0.245	0.094
-120.180	-90.169	-0.008	0.002
-119.166	80.423	0.165	-0.175
-118.151	-99.889	0.177	0.044
-117.137	-120.594	-0.217	0.036
-116.122	-200.000	-0.026	0.289
-115.107	-85.042	0.064	0.020
-114.093	269.202	-0.164	-0.284
-113.078	108.428	0.086	0.101
-112.064	-36.461	-0.192	0.102
-111.049	13.645	0.225	-0.172
-110.034	-60.296	0.382	0.160
-109.020	-81.517	-0.274	-0.089
-108.005	-65.933	0.202	-0.080
-106.991	-200.000	0.079	-0.395
-105.976	478.947	-0.062	-0.137
-104.962	-135.440	-0.312	-0.037
-103.947	148.230	-0.379	0.503
-102.932	32.364	0.135	-0.114
-101.918	-14.513	-0.161	0.102
-100.903	-200.000	-0.023	-0.143
-99.889	108.335	0.219	0.257
-98.874	-20.534	0.116	-0.070
-97.859	800.000	0.104	0.297
-96.845	13.312	0.135	-0.103
-95.830	-3.225	0.257	-0.176
-94.816	-200.000	0.013	-0.268
-93.801	520.124	-0.142	0.326
-92.786	-72.862	0.117	-0.042
-91.772	258.394	0.146	-0.248
-90.757	155.245	-0.159	-0.215
-89.743	147.040	0.239	-0.316
-88.728	-200.000	-0.002	-0.106
-87.713	-54.754	0.175	0.078
-86.699	-200.000	0.020	0.314
-85.684	-200.000	-0.026	-0.165
-84.670	119.339	0.050	0.060
-83.655	-186.732	0.294	0.004
-82.640	-136.548	-0.177	0.020
-81.626	800.000	0.097	0.266
-80.611	-60.309	0.400	-0.167
-79.597	402.346	0.125	0.258
-78.582	6.314	0.058	0.043
-77.567	308.047	-0.163	0.299
-76.553	-135.575	0.196	-0.023
-75.538	-200.000	0.026	-0.226
-74.524	-200.000	-0.102	0.442
-73.509	-178.618	-0.195	-0.004
-72.494	42.975	0.118	0.105
-71.480	363.108	0.183	0.361
-70.465	-40.634	-0.088	0.045
-69.451	-138.823	-0.158	-0.017
-68.436	-153.622	0.294	0.020
-67.422	-133.541	-0.022	0.003
-66.407	-79.505	-0.344	0.114
-65.392	150.525	0.233	0.311
-64.378	800.000	-0.040	-0.141
-63.363	-88.445	0.205	0.060
-62.349	-94.528	0.294	-0.079
-61.334	56.158	-0.945	-0.900
-60.319	393.306	0.341	0.697
-59.305	800.000	-0.261	-0.981
-58.290	66.436	1.035	1.032
-57.276	800.000	0.575	1.765
-56.261	-200.000	109.510	606.426
-55.246	506.804	1498.461	3410.822
-54.232	178.856	2679.101	3843.401
-53.217	109.879	2149.405	2530.280
-52.203	40.631	1598.436	1413.713
-51.188	32.879	1339.670	1138.279
-50.173	29.810	1298.983	1085.686
-49.159	53.274	1354.996	1273.955
-48.144	53.587	1369.754	1289.653
-47.130	32.776	1324.259	1124.394
-46.115	29.390	1306.554	1089.359
-45.100	29.262	1301.825	1084.622
-44.086	29.241	1299.170	1082.240
-43.071	29.160	1296.754	1079.713
-42.057	29.206	1294.659	1078.192
-41.042	29.239	1292.846	1076.836
-40.027	29.259	1291.149	1075.493
-39.013	29.278	1289.293	1074.018
-37.998	29.298	1287.144	1072.299
-36.984	29.293	1285.934	1071.219
-35.969	29.275	1284.115	1069.561
-34.954	29.317	1282.532	1068.443
-33.940	29.409	1281.183	1067.806
-32.925	29.467	1279.976	1067.092
-31.911	29.419	1278.545	1065.579
-30.896	29.460	1276.882	1064.391
-29.881	29.534	1275.342	1063.488
-28.867	29.472	1274.399	1062.305
-27.852	29.447	1273.006	1060.957
-26.838	29.459	1271.376	1059.625
-25.823	29.466	1270.054	1058.524
-24.809	29.392	1268.834	1057.039
-23.794	29.486	1267.667	1056.562
-22.779	29.574	1265.921	1055.571
-21.765	29.487	1264.738	1054.043
-20.750	29.478	1263.755	1053.129
-19.736	29.387	1262.520	1051.543
-18.721	29.518	1260.803	1050.818
-17.706	29.342	1259.882	1049.007
-16.692	29.352	1259.184	1048.440
-15.677	29.369	1257.858	1047.393
-14.663	29.325	1257.056	1046.429
-13.648	29.332	1255.946	1045.507
-12.633	29.332	1254.690	1044.417
-11.619	29.379	1254.013	1044.081
-10.604	29.295	1253.392	1043.048
-9.590	29.304	1251.950	1041.853
-8.575	29.262	1251.335	1041.067
-7.560	29.220	1250.435	1040.038
-6.546	29.294	1249.519	1039.650
-5.531	29.265	1249.064	1039.066
-4.517	29.241	1248.069	1038.064
-3.502	29.289	1247.303	1037.656
-2.487	29.255	1246.129	1036.449
-1.473	29.213	1241.787	1032.561
-0.458	27.648	1226.847	1011.425
0.556	25.622	1209.338	973.255
1.571	21.625	1214.805	955.800
2.586	20.699	1228.633	961.477
3.600	20.359	1216.854	950.316
4.615	15.556	1146.225	870.255
5.629	7.531	1072.945	775.484
6.644	4.082	1054.113	745.233
7.659	3.729	1051.689	741.760
8.673	3.532	1050.051	739.596
9.688	3.488	1049.150	738.686
10.702	3.881	1047.755	739.514
11.717	8.996	1054.232	768.578
12.731	17.490	1065.927	818.019
13.746	22.459	1072.060	846.602
14.761	23.201	1072.914	850.771
15.775	22.730	1071.254	847.118
16.790	21.826	1070.038	841.745
17.804	21.480	1068.311	838.652
18.819	21.160	1068.223	836.974
19.834	21.345	1067.402	837.145
20.848	21.261	1066.946	836.311
21.863	21.293	1065.868	835.545
22.877	21.040	1065.229	833.762
23.892	21.026	1064.633	833.155
24.907	20.937	1063.743	831.957
25.921	20.915	1062.460	830.775
26.936	20.809	1061.095	829.132
27.950	20.843	1059.966	828.337
28.965	20.924	1058.427	827.444
29.980	21.045	1057.317	827.081
30.994	21.155	1056.705	827.050
32.009	21.221	1055.756	826.546
33.023	21.057	1055.080	825.168
34.038	21.012	1053.760	823.847
35.053	21.052	1052.609	823.066
36.067	20.914	1051.711	821.640
37.082	20.990	1050.953	821.334
38.096	21.121	1050.584	821.590
39.111	20.988	1049.994	820.428
40.126	21.047	1047.702	818.842
41.140	20.398	1046.996	815.173
42.155	20.232	1045.818	813.405
43.169	20.282	1044.426	812.485
44.184	20.333	1043.787	812.154
45.199	20.284	1042.903	811.163
46.213	20.591	1042.601	812.293
47.228	20.806	1042.243	812.947
48.242	21.059	1040.744	812.884
49.257	21.048	1039.965	812.150
50.271	21.068	1039.607	811.892
51.286	21.146	1038.885	811.622
52.301	21.125	1037.859	810.650
53.315	20.764	1037.066	808.283
54.330	20.729	1036.084	807.282
55.344	20.583	1034.669	805.434
56.359	20.541	1033.957	804.615
57.374	20.591	1033.073	804.087
58.388	20.302	1032.407	802.161
59.403	20.271	1031.534	801.268
60.417	20.355	1030.115	800.481
61.432	20.127	1029.800	799.117
62.447	20.226	1028.903	798.804
63.461	20.008	1028.416	797.353
64.476	20.032	1027.353	796.567
65.490	20.053	1026.348	795.815
66.505	20.298	1025.271	796.036
67.520	20.245	1024.898	795.431
68.534	20.134	1024.085	794.221
69.549	20.008	1023.536	793.147
70.563	19.790	1022.791	791.504
71.578	19.656	1021.561	789.869
72.593	19.755	1020.119	789.136
73.607	19.677	1020.228	788.795
74.622	19.835	1019.627	788.981
75.636	19.691	1019.344	788.033
76.651	19.786	1018.375	787.650
77.666	19.869	1017.591	787.351
78.680	19.870	1017.138	786.933
79.695	19.895	1016.414	786.418
80.709	20.211	1015.784	787.295
81.724	20.295	1015.254	787.196
82.739	20.406	1014.988	787.425
83.753	20.803	1014.484	788.762
84.768	21.337	1014.117	790.826
85.782	21.427	1013.793	790.906
86.797	21.438	1012.366	789.776
87.812	21.022	1011.393	787.070
88.826	21.114	1010.520	786.734
89.841	21.370	1009.770	787.233
90.855	21.401	1008.742	786.505
91.870	21.396	1008.021	785.848
92.884	21.429	1006.741	784.929
93.899	21.256	1006.120	783.598
94.914	21.427	1005.409	783.742
95.928	21.179	1004.685	781.997
96.943	21.098	1003.015	780.266
97.957	21.086	1001.977	779.337
98.972	21.201	1001.691	779.558
99.987	21.192	1000.423	778.461
101.001	21.098	999.606	777.341
102.016	21.086	998.855	776.635
103.030	21.121	998.509	776.450
104.045	21.211	997.680	776.139
105.060	21.015	996.984	774.658
106.074	20.772	995.286	772.190
107.089	20.525	994.209	770.192
108.103	20.245	993.291	768.174
109.118	20.125	991.797	766.420
110.133	19.893	991.105	764.796
111.147	19.991	989.818	764.166
112.162	20.072	989.915	764.529
113.176	20.352	988.969	764.966
114.191	20.333	988.554	764.492
115.206	20.290	987.377	763.326
116.220	20.289	986.713	762.741
117.235	20.182	985.748	761.458
118.249	20.082	985.098	760.450
119.264	20.172	983.617	759.633
120.279	20.028	983.018	758.472
121.293	19.865	982.077	756.967
122.308	19.816	980.983	755.844
123.322	19.754	979.733	754.542
124.337	19.668	979.168	753.666
125.352	19.754	978.135	753.176
126.366	19.681	976.942	751.874
127.381	19.790	976.476	751.921
128.395	19.770	975.670	751.150
129.410	19.919	974.989	751.204
130.424	20.011	974.408	751.089
131.439	20.206	973.548	751.206
132.454	20.338	972.777	751.114
133.468	20.229	972.304	750.214
134.483	20.261	971.278	749.493
135.497	20.278	970.350	748.783
136.512	20.377	969.671	748.621
137.527	20.456	968.735	748.171
138.541	20.455	967.837	747.407
139.556	20.511	967.517	747.334
140.570	20.819	966.892	748.110
141.585	20.953	966.513	748.327
142.600	21.176	965.374	748.332
143.614	21.428	964.462	748.639
144.629	21.249	964.219	747.619
145.643	21.121	963.145	746.171
146.658	20.894	961.891	744.167
147.673	20.690	960.586	742.219
148.687	20.442	959.814	740.499
149.702	20.365	958.646	739.205
150.716	20.416	957.675	738.608
151.731	20.534	957.282	738.740
152.746	20.731	956.148	738.637
153.760	20.574	955.889	737.704
154.775	20.784	955.026	737.867
155.789	20.858	954.609	737.792
156.804	20.716	953.890	736.568
157.819	20.821	953.408	736.577
158.833	21.255	952.586	737.709
159.848	21.344	951.928	737.512
160.862	21.120	950.777	735.609
161.877	20.635	949.492	732.508
162.892	20.310	948.470	730.289
163.906	20.372	947.091	729.422
164.921	20.267	946.228	728.251
165.935	20.476	945.269	728.324
166.950	20.481	944.750	727.883
167.964	20.480	943.814	727.090
168.979	20.419	942.928	726.091
169.994	20.302	941.965	724.796
171.008	20.641	941.464	725.761
172.023	20.913	941.156	726.595
173.037	21.024	940.364	726.380
174.052	20.946	939.163	725.061
175.067	20.322	938.513	721.901
176.081	20.142	937.543	720.345
177.096	20.165	936.930	719.908
178.110	20.322	936.289	720.002
179.125	20.251	935.815	719.280
180.140	20.586	935.718	720.527
181.154	20.770	935.432	721.007
182.169	20.878	935.563	721.492
183.183	20.983	934.485	721.028
184.198	20.949	934.014	720.461
185.213	20.825	933.019	719.120
186.227	20.996	932.361	719.253
187.242	20.986	932.215	719.037
188.256	21.306	931.544	719.773
189.271	21.251	930.771	718.884
190.286	20.849	929.546	716.226
191.300	20.176	928.106	712.285
192.315	20.069	927.231	711.113
193.329	20.173	927.167	711.429
194.344	20.368	926.927	711.982
195.359	20.540	925.807	711.763
196.373	20.676	925.810	712.258
197.388	20.944	925.535	713.082
198.402	21.344	924.885	714.152
199.417	21.386	924.704	714.121
200.432	21.556	924.156	714.328
201.446	21.592	923.858	714.181
202.461	21.731	923.114	714.110
203.475	21.523	922.150	712.451
204.490	21.231	920.906	710.241
205.504	20.952	919.975	708.325
206.519	20.930	919.587	707.877
207.534	20.848	918.874	706.931
208.548	21.025	917.945	706.872
209.563	20.989	917.571	706.374
210.577	21.037	917.553	706.493
211.592	21.382	916.970	707.381
212.607	21.527	916.105	707.237
213.621	21.321	915.443	705.829
214.636	21.330	914.385	704.986
215.650	21.208	914.098	704.210
216.665	21.561	912.887	704.636
217.680	21.536	912.836	704.435
218.694	21.464	912.427	703.769
219.709	21.522	911.124	702.934
220.723	21.274	910.621	701.488
221.738	21.164	910.365	700.787
222.753	21.302	909.698	700.763
223.767	21.469	908.766	700.655
224.782	21.469	908.519	700.402
225.796	21.557	908.259	700.490
226.811	21.559	907.052	699.508
227.826	21.233	906.500	697.715
228.840	21.054	905.450	696.133
229.855	21.028	905.092	695.693
230.869	21.091	904.187	695.186
231.884	20.904	903.568	693.903
232.899	20.935	902.740	693.330
233.913	20.830	901.602	691.979
234.928	20.806	900.942	691.313
235.942	20.670	900.321	690.238
236.957	20.626	899.993	689.751
237.972	20.784	899.368	689.835
238.986	20.810	898.501	689.214
240.001	20.702	898.342	688.604
241.015	20.841	897.463	688.419
242.030	20.973	897.489	688.898
243.045	21.056	897.006	688.793
244.059	21.153	896.287	688.565
245.074	21.304	895.646	688.607
246.088	21.308	895.105	688.145
247.103	21.470	894.945	688.599
248.117	21.691	894.804	689.301
249.132	22.169	894.788	691.105
250.147	22.494	894.195	691.865
251.161	22.590	893.214	691.419
252.176	22.349	893.213	690.410
253.190	22.699	892.125	690.881
254.205	22.626	891.754	690.249
255.220	22.522	890.912	689.125
256.234	22.259	890.656	687.840
257.249	22.322	889.773	687.344
258.263	22.315	888.544	686.305
259.278	22.156	888.384	685.501
260.293	22.416	887.694	685.923
261.307	22.528	887.413	686.079
262.322	22.403	886.773	685.039
263.336	22.473	885.753	684.461
264.351	22.471	885.007	683.817
265.366	22.377	884.523	683.017
266.380	22.483	884.113	683.053
267.395	22.411	882.900	681.775
268.409	22.227	882.375	680.598
269.424	22.314	881.541	680.228
270.439	22.216	880.802	679.219
271.453	22.036	880.058	677.892
272.468	21.992	879.519	677.247
273.482	21.998	878.951	676.772
274.497	21.907	878.460	675.986
275.512	21.916	877.596	675.295
276.526	22.009	877.582	675.581
277.541	22.222	877.098	675.970
278.555	22.403	876.692	676.293
279.570	22.584	876.254	676.589
280.585	22.368	875.528	675.140
281.599	22.157	874.592	673.548
282.614	22.029	873.439	672.111
283.628	22.004	872.753	671.427
284.643	22.023	872.566	671.299
285.657	21.994	871.878	670.598
286.672	22.062	871.103	670.202
287.687	22.222	870.718	670.457
288.701	22.166	869.986	669.622
289.716	22.110	869.609	669.057
290.730	22.186	869.362	669.098
291.745	22.121	868.477	668.113
292.760	22.250	868.090	668.244
293.774	22.606	867.709	669.245
294.789	22.599	866.589	668.293
295.803	22.217	865.841	666.210
296.818	22.033	865.406	665.121
297.833	22.191	864.576	665.021
298.847	22.156	863.973	664.367
299.862	22.170	863.727	664.172
300.876	22.419	863.318	664.739
301.891	22.662	862.968	665.327
302.906	22.731	862.253	664.979
303.920	23.032	861.994	665.854
304.935	23.178	861.367	665.860
305.949	22.930	860.764	664.400
306.964	22.524	859.788	662.062
307.979	22.340	859.444	661.047
308.993	22.670	859.131	661.989
310.008	22.795	858.342	661.789
311.022	22.550	857.768	660.372
312.037	22.240	856.991	658.556
313.052	22.133	856.257	657.530
314.066	22.019	855.389	656.383
315.081	21.921	854.998	655.658
316.095	21.923	854.454	655.189
317.110	22.037	853.607	654.908
318.125	21.914	853.168	654.053
319.139	21.835	852.814	653.430
320.154	21.921	852.284	653.287
321.168	22.054	851.786	653.342
322.183	22.141	851.222	653.175
323.197	22.181	850.666	652.837
324.212	22.210	850.176	652.511
325.227	22.143	849.198	651.454
326.241	22.022	848.909	650.729
327.256	22.011	848.037	649.961
328.270	21.925	847.712	649.336
329.285	21.829	847.168	648.507
330.300	22.015	846.440	648.579
331.314	22.286	845.658	648.922
332.329	22.445	845.792	649.553
333.343	22.416	845.833	649.423
334.358	22.508	844.810	648.918
335.373	22.536	844.427	648.670
336.387	22.640	844.786	649.269
337.402	22.827	844.310	649.534
338.416	22.957	843.889	649.631
339.431	23.081	844.167	650.243
340.446	23.123	843.629	649.928
341.460	23.379	843.097	650.399
342.475	23.499	842.676	650.459
343.489	23.364	842.568	649.822
344.504	23.405	842.149	649.591
345.519	23.449	841.490	649.187
346.533	23.446	840.928	648.683
347.548	22.983	840.088	646.285
348.562	22.647	839.215	644.331
349.577	22.576	838.853	643.736
350.592	22.535	837.904	642.799
351.606	22.326	836.989	641.281
352.621	22.388	836.641	641.184
353.635	22.781	835.922	642.006
354.650	22.680	834.842	640.753
355.665	22.644	834.565	640.352
356.679	22.789	834.264	640.590
357.694	22.909	833.759	640.579
358.708	22.736	832.856	639.204
359.723	22.854	832.141	639.024
360.738	22.764	831.979	638.520
361.752	22.822	831.777	638.518
362.767	23.005	830.966	638.500
363.781	23.409	830.629	639.643
364.796	23.707	830.057	640.218
365.810	23.578	830.206	639.812
366.825	23.626	829.647	639.497
367.840	23.619	829.277	639.131
368.854	23.232	828.308	636.935
369.869	23.187	827.886	636.393
370.883	23.166	827.446	635.924
371.898	23.522	827.067	636.854
372.913	23.551	826.752	636.660
373.927	23.408	825.854	635.398
374.942	23.476	825.065	634.980
375.956	23.468	825.442	635.183
376.971	23.704	824.935	635.583
377.986	23.829	824.933	635.970
379.000	23.893	823.547	635.078
380.015	23.825	823.429	634.685
381.029	23.582	822.919	633.370
382.044	23.761	822.242	633.431
383.059	23.914	821.431	633.294
384.073	23.608	820.969	631.795
385.088	23.343	819.951	630.011
386.102	23.087	818.986	628.306
387.117	23.089	818.626	627.981
388.132	23.138	817.733	627.412
389.146	23.189	817.277	627.189
390.161	23.579	817.299	628.533
391.175	23.751	816.504	628.476
392.190	23.356	816.336	626.892
393.205	23.191	815.417	625.547
394.219	23.104	814.974	624.845
395.234	22.838	814.889	623.786
396.248	22.831	814.343	623.287
397.263	22.920	813.669	623.029
398.278	22.821	813.043	622.146
399.292	22.780	812.570	621.585
400.307	22.575	812.378	620.662
401.321	22.762	811.630	620.694
402.336	22.964	811.760	621.449
403.350	23.276	811.481	622.276
404.365	23.592	811.167	623.091
405.380	23.904	810.746	623.805
406.394	23.873	810.477	623.435
407.409	24.026	810.127	623.648
408.423	24.060	809.967	623.588
409.438	24.100	809.309	623.167
410.453	24.085	808.917	622.756
411.467	24.147	808.349	622.481
412.482	24.240	807.971	622.460
413.496	24.219	808.257	622.552
414.511	24.096	807.751	621.678
415.526	24.028	806.773	620.632
416.540	23.884	806.444	619.822
417.555	24.021	805.832	619.772
418.569	24.114	805.021	619.419
419.584	23.963	804.666	618.565
420.599	23.922	804.229	618.033
421.613	163.389	1372.004	1797.676
422.628	142.053	1454.727	1797.760
