DTS Sentinel unit serial number:	SN413079Multiplexer serial number:	ORYXHardware model number:	OX4-SRSoftware version number:	ORYX F/W v4.00 Oryx Data Collector v3.7.2.0data status	okinstallation	princeton_trtdifferential loss correction	single-endedforward channel	channel 1reverse channel	N/Adate	2019/09/11time	03:36:11forward acquisition time	60.00reverse acquisition time	0.00gamma	496.2192k internal	0.2331k external	0.2331temperature offset calibration	0.9929default loss term (dB/km)	0.3790temperature slope calibration	1.0000multiplexer offset coefficient	1.0000multiplexer slope coefficient	1.0000fibre end	0.00T internal ref (°C)	29.50T ext. ref 1 (°C)	-0.28T ext. ref 2 (°C)	23.97length (m)	temperature (°C)	Stokes	anti-Stokes-747.200	-69.064	0.426	-0.165
-746.185	-61.146	-0.169	-0.072
-745.171	-12.240	-0.269	0.177
-744.156	-37.409	-0.123	-0.066
-743.142	84.705	-0.059	0.065
-742.127	-74.915	-0.372	0.134
-741.112	152.655	-0.126	0.173
-740.098	97.112	0.237	0.273
-739.083	-19.143	-0.150	-0.094
-738.069	-44.257	-0.243	0.123
-737.054	277.900	-0.072	0.130
-736.039	39.991	-0.044	0.039
-735.025	-49.576	-0.200	0.096
-734.010	-82.106	-0.345	-0.113
-732.996	-123.507	-0.215	-0.034
-731.981	139.442	-0.048	-0.064
-730.966	-200.000	0.070	-0.348
-729.952	-38.183	0.267	0.143
-728.937	-71.057	-0.208	0.079
-727.923	-89.846	0.300	-0.088
-726.908	-177.493	-0.140	-0.003
-725.894	-200.000	0.044	-0.193
-724.879	-111.455	0.347	-0.071
-723.864	-116.330	0.124	-0.023
-722.850	91.660	0.319	0.361
-721.835	90.693	0.086	-0.097
-720.821	7.409	-0.240	0.181
-719.806	-200.000	0.013	-0.186
-718.791	451.467	0.045	-0.101
-717.777	-200.000	-0.041	-0.270
-716.762	111.859	0.069	0.084
-715.748	50.584	0.121	0.115
-714.733	800.000	0.076	0.226
-713.718	-164.871	0.105	0.005
-712.704	6.009	-0.237	0.176
-711.689	56.238	0.269	-0.263
-710.675	132.696	-0.046	0.060
-709.660	-57.985	0.225	-0.099
-708.645	-200.000	0.001	0.327
-707.631	-1.101	0.065	0.046
-706.616	-200.000	0.015	-0.086
-705.602	-84.232	-0.108	0.034
-704.587	800.000	0.106	0.353
-703.572	-196.615	0.220	0.001
-702.558	333.515	-0.072	0.140
-701.543	-176.227	0.254	0.007
-700.529	294.626	-0.100	-0.183
-699.514	-115.368	0.370	-0.070
-698.499	-100.165	0.080	-0.020
-697.485	-57.396	-0.088	0.039
-696.470	-61.611	-0.173	0.073
-695.456	-199.660	0.144	0.001
-694.441	-200.000	-0.005	-0.032
-693.426	-134.995	0.087	-0.011
-692.412	-80.389	0.132	0.044
-691.397	-200.000	0.036	0.247
-690.383	-51.697	-0.099	0.046
-689.368	-91.087	0.030	-0.009
-688.354	-16.899	-0.318	-0.202
-687.339	800.000	-0.068	-0.281
-686.324	-99.245	0.338	0.086
-685.310	800.000	0.137	0.531
-684.295	237.437	-0.116	0.193
-683.281	-4.244	0.299	-0.208
-682.266	-147.445	-0.152	0.013
-681.251	10.328	-0.242	0.185
-680.237	-3.707	-0.215	0.150
-679.222	70.056	-0.163	-0.169
-678.208	-42.589	0.116	-0.059
-677.193	4.514	-0.024	-0.018
-676.178	-76.090	0.221	-0.078
-675.164	218.790	0.053	-0.084
-674.149	-200.000	0.003	-0.120
-673.135	800.000	0.031	-0.123
-672.120	-72.540	-0.218	-0.081
-671.105	-100.123	-0.106	0.026
-670.091	-200.000	0.008	-0.251
-669.076	-124.886	0.152	0.023
-668.062	-50.483	-0.027	-0.013
-667.047	87.483	0.096	0.106
-666.032	150.953	0.135	0.184
-665.018	-200.000	-0.037	-0.369
-664.003	68.185	-0.210	0.215
-662.989	-167.975	-0.057	0.002
-661.974	-11.501	-0.236	-0.156
-660.959	-74.485	-0.138	0.050
-659.945	-71.403	-0.110	-0.041
-658.930	800.000	-0.038	-0.143
-657.916	-103.013	0.320	0.076
-656.901	-200.000	-0.010	0.299
-655.886	800.000	-0.051	0.204
-654.872	-200.000	0.022	-0.130
-653.857	106.244	-0.310	-0.368
-652.843	74.360	-0.168	-0.177
-651.828	-79.470	0.338	-0.115
-650.814	458.823	-0.149	-0.332
-649.799	-174.079	-0.125	0.004
-648.784	3.762	0.171	0.125
-647.770	619.928	0.156	0.393
-646.755	265.443	0.137	0.239
-645.741	-157.860	-0.116	-0.007
-644.726	800.000	0.051	0.206
-643.711	-200.000	-0.032	-0.314
-642.697	-125.782	-0.369	-0.056
-641.682	800.000	0.012	0.036
-640.668	-185.736	0.247	-0.004
-639.653	411.931	-0.066	-0.140
-638.638	800.000	0.058	0.248
-637.624	-35.307	0.126	0.069
-636.609	-135.859	0.232	0.027
-635.595	11.621	0.245	-0.188
-634.580	71.458	-0.270	0.281
-633.565	474.224	-0.083	0.189
-632.551	-125.485	0.270	0.041
-631.536	-137.617	0.123	-0.014
-630.522	800.000	-0.045	-0.177
-629.507	232.285	0.129	0.212
-628.492	-200.000	-0.019	0.191
-627.478	-200.000	-0.033	-0.295
-626.463	-99.203	-0.225	0.057
-625.449	-90.514	0.204	-0.059
-624.434	800.000	0.036	-0.145
-623.419	-200.000	0.005	0.059
-622.405	-200.000	0.030	0.262
-621.390	-200.000	-0.013	0.117
-620.376	-94.397	0.199	0.054
-619.361	-25.463	0.296	0.175
-618.346	24.394	-0.132	0.110
-617.332	66.030	-0.080	0.081
-616.317	-200.000	0.015	0.067
-615.303	-164.420	-0.279	0.013
-614.288	-74.423	-0.209	-0.075
-613.273	48.846	-0.192	-0.180
-612.259	86.717	-0.124	0.137
-611.244	-26.868	0.189	0.111
-610.230	-200.000	-0.010	-0.139
-609.215	-200.000	-0.010	-0.162
-608.201	-200.000	-0.006	-0.081
-607.186	653.573	0.055	-0.141
-606.171	-200.000	-0.030	-0.187
-605.157	800.000	0.073	-0.206
-604.142	739.981	-0.139	0.374
-603.128	163.072	-0.043	0.061
-602.113	-200.000	0.002	-0.125
-601.098	138.070	0.109	-0.143
-600.084	-200.000	-0.037	0.220
-599.069	-200.000	0.022	0.133
-598.055	7.911	-0.155	0.116
-597.040	60.028	0.161	0.159
-596.025	-48.423	0.126	-0.061
-595.011	290.073	-0.139	-0.253
-593.996	184.958	-0.107	0.159
-592.982	-42.887	-0.148	-0.075
-591.967	800.000	0.139	0.386
-590.952	-28.675	0.279	-0.161
-589.938	-9.690	0.258	-0.172
-588.923	182.568	-0.133	0.196
-587.909	800.000	0.065	-0.231
-586.894	-200.000	-0.010	0.103
-585.879	-93.280	0.345	0.096
-584.865	-49.024	0.065	-0.031
-583.850	-37.099	-0.188	-0.101
-582.836	223.024	-0.236	-0.380
-581.821	-200.000	-0.022	-0.174
-580.806	-200.000	0.011	-0.152
-579.792	-110.450	-0.177	-0.037
-578.777	-200.000	-0.009	-0.185
-577.763	-122.498	0.266	-0.043
-576.748	238.243	-0.081	0.135
-575.733	-122.525	0.029	0.005
-574.719	45.482	-0.222	-0.205
-573.704	-116.140	0.296	-0.055
-572.690	-200.000	0.106	0.539
-571.675	-174.584	0.219	0.006
-570.661	-126.079	0.115	0.017
-569.646	100.574	-0.258	-0.299
-568.631	28.531	-0.075	0.064
-567.617	121.932	0.121	-0.151
-566.602	23.131	0.153	0.126
-565.588	800.000	-0.096	0.273
-564.573	-60.400	0.401	-0.170
-563.558	-122.554	-0.037	0.006
-562.544	-200.000	0.015	-0.408
-561.529	-200.000	-0.009	0.361
-560.515	695.161	-0.049	0.130
-559.500	800.000	-0.015	-0.056
-558.485	-33.010	0.223	-0.124
-557.471	-34.442	-0.123	-0.067
-556.456	93.673	-0.134	0.151
-555.442	34.816	-0.219	-0.192
-554.427	-84.296	0.114	-0.036
-553.412	-164.103	-0.177	-0.008
-552.398	-200.000	-0.005	-0.269
-551.383	-200.000	0.020	-0.140
-550.369	800.000	0.066	0.220
-549.354	-143.240	-0.234	-0.022
-548.339	-200.000	-0.061	0.280
-547.325	208.876	-0.052	0.081
-546.310	-160.923	-0.226	-0.012
-545.296	-59.919	0.201	-0.086
-544.281	94.516	-0.105	-0.119
-543.266	-39.016	0.353	-0.185
-542.252	-99.318	0.045	0.011
-541.237	160.457	0.119	0.166
-540.223	280.919	-0.108	0.192
-539.208	-53.660	0.223	0.102
-538.193	506.023	0.096	0.223
-537.179	190.617	-0.169	-0.254
-536.164	270.424	-0.111	0.195
-535.150	21.883	0.247	0.201
-534.135	350.974	-0.144	-0.284
-533.121	43.236	-0.091	-0.083
-532.106	477.235	0.157	0.355
-531.091	-58.126	-0.273	0.119
-530.077	800.000	0.103	0.333
-529.062	-200.000	-0.016	-0.094
-528.048	147.850	0.147	-0.197
-527.033	163.331	0.273	-0.383
-526.018	-154.209	-0.216	-0.015
-525.004	-49.576	0.095	0.045
-523.989	-10.587	-0.398	-0.263
-522.975	-65.241	0.194	-0.078
-521.960	92.715	-0.016	0.018
-520.945	-69.460	0.313	-0.120
-519.931	150.431	0.129	-0.175
-518.916	-1.009	-0.273	-0.193
-517.902	-72.855	0.195	-0.072
-516.887	40.609	0.289	0.260
-515.872	127.108	0.260	-0.329
-514.858	800.000	-0.106	-0.391
-513.843	221.000	-0.022	0.035
-512.829	-120.701	0.284	-0.048
-511.814	-121.785	0.136	-0.022
-510.799	-200.000	-0.031	-0.337
-509.785	515.975	-0.038	-0.088
-508.770	-142.798	0.217	-0.021
-507.756	-150.727	-0.313	0.024
-506.741	2.269	0.204	0.147
-505.726	-200.000	0.003	-0.156
-504.712	322.682	-0.097	-0.184
-503.697	-71.841	0.181	0.067
-502.683	155.499	0.054	0.074
-501.668	-17.908	0.109	0.068
-500.653	-157.120	0.306	0.019
-499.639	-98.579	-0.203	0.052
-498.624	312.643	-0.111	-0.208
-497.610	306.895	0.203	0.377
-496.595	-200.000	-0.438	-0.000
-495.581	260.043	0.117	-0.202
-494.566	-61.528	0.185	0.078
-493.551	-200.000	-0.027	0.178
-492.537	-56.650	-0.241	0.106
-491.522	-82.049	-0.456	0.148
-490.508	28.718	-0.365	0.308
-489.493	-200.000	0.007	-0.056
-488.478	800.000	0.070	0.258
-487.464	195.917	-0.107	-0.163
-486.449	-70.315	0.239	-0.090
-485.435	-40.317	-0.218	0.113
-484.420	393.989	0.050	0.105
-483.405	387.352	0.150	0.309
-482.391	41.068	0.183	0.165
-481.376	228.871	-0.053	0.086
-480.362	800.000	-0.088	-0.320
-479.347	-200.000	0.003	0.250
-478.332	-79.140	-0.180	0.061
-477.318	-57.427	-0.396	-0.173
-476.303	-122.308	0.249	-0.041
-475.289	28.230	0.067	-0.056
-474.274	681.358	0.135	0.350
-473.259	-4.583	-0.200	0.137
-472.245	800.000	0.059	-0.212
-471.230	-36.830	-0.070	-0.037
-470.216	90.803	-0.175	0.195
-469.201	-200.000	0.018	-0.163
-468.186	-49.027	0.266	-0.127
-467.172	-32.656	0.260	-0.144
-466.157	-200.000	0.008	0.084
-465.143	-137.178	0.155	-0.018
-464.128	-159.502	-0.088	0.005
-463.113	178.473	0.140	0.203
-462.099	-200.000	-0.010	0.210
-461.084	800.000	-0.029	-0.113
-460.070	-200.000	0.027	0.179
-459.055	-160.046	-0.203	-0.011
-458.040	800.000	-0.079	0.313
-457.026	-200.000	0.008	0.254
-456.011	-70.540	-0.114	0.043
-454.997	-13.108	0.298	0.193
-453.982	1.558	-0.293	0.210
-452.968	162.413	-0.033	-0.047
-451.953	67.404	0.118	-0.119
-450.938	95.145	-0.079	-0.090
-449.924	-114.873	-0.187	0.035
-448.909	21.059	-0.072	-0.058
-447.895	44.297	0.133	0.121
-446.880	375.371	-0.079	-0.159
-445.865	-93.974	-0.307	0.084
-444.851	223.238	-0.123	0.197
-443.836	800.000	0.077	-0.220
-442.822	91.812	0.057	-0.063
-441.807	-80.206	-0.045	0.015
-440.792	-109.347	-0.299	0.063
-439.778	229.484	0.170	0.275
-438.763	72.862	0.332	-0.345
-437.749	-51.457	-0.236	0.110
-436.734	302.795	0.115	-0.212
-435.719	-112.959	-0.113	0.022
-434.705	633.114	0.034	-0.085
-433.690	-24.399	0.200	-0.118
-432.676	-113.477	-0.052	0.010
-431.661	-200.000	-0.049	-0.251
-430.646	-115.551	0.389	-0.073
-429.632	53.328	-0.341	0.325
-428.617	-75.346	0.142	-0.050
-427.603	258.739	-0.038	0.064
-426.588	131.598	-0.175	0.224
-425.573	35.016	-0.093	0.081
-424.559	-114.383	0.261	0.050
-423.544	800.000	0.033	-0.115
-422.530	644.407	-0.163	-0.413
-421.515	41.513	-0.248	-0.223
-420.500	-52.986	0.136	-0.062
-419.486	-94.256	-0.135	0.037
-418.471	-200.000	0.008	-0.267
-417.457	88.949	-0.099	0.110
-416.442	195.885	0.129	0.195
-415.428	-200.000	-0.031	-0.259
-414.413	-99.814	-0.256	-0.064
-413.398	-89.130	-0.161	-0.047
-412.384	683.557	0.011	0.028
-411.369	541.953	-0.057	0.135
-410.355	371.897	-0.192	-0.387
-409.340	-95.200	0.133	-0.035
-408.325	-200.000	0.005	-0.040
-407.311	-200.000	0.024	-0.108
-406.296	-200.000	-0.016	0.121
-405.282	324.004	0.099	0.188
-404.267	-68.314	-0.170	0.066
-403.252	-63.874	0.148	-0.060
-402.238	134.899	0.225	0.290
-401.223	-59.035	-0.201	0.086
-400.209	336.524	-0.029	-0.056
-399.194	455.110	0.084	0.184
-398.179	333.178	0.064	-0.122
-397.165	-200.000	-0.072	0.314
-396.150	121.613	-0.157	-0.195
-395.136	518.045	0.056	-0.131
-394.121	-136.877	0.134	-0.015
-393.106	8.561	0.126	-0.094
-392.092	8.327	-0.065	-0.048
-391.077	-62.810	0.267	0.110
-390.063	-76.816	0.133	-0.046
-389.048	-27.368	0.101	-0.058
-388.033	2.202	-0.335	0.240
-387.019	132.454	0.074	-0.095
-386.004	-200.000	-0.022	0.099
-384.990	120.159	0.206	0.254
-383.975	-200.000	-0.050	0.237
-382.960	372.401	-0.274	0.552
-381.946	142.513	0.139	-0.184
-380.931	-12.285	-0.032	0.021
-379.917	579.036	0.136	0.331
-378.902	184.624	0.051	0.075
-377.888	261.118	-0.211	0.363
-376.873	133.332	-0.098	-0.126
-375.858	800.000	-0.138	0.393
-374.844	566.049	-0.054	0.131
-373.829	-45.362	-0.290	-0.143
-372.815	-200.000	0.063	0.450
-371.800	-66.834	-0.401	-0.157
-370.785	105.075	0.126	-0.147
-369.771	2.184	0.054	0.039
-368.756	33.060	-0.084	-0.072
-367.742	-200.000	-0.003	-0.070
-366.727	32.866	0.109	-0.094
-365.712	-4.191	0.227	0.156
-364.698	-200.000	0.028	-0.126
-363.683	-96.150	-0.251	0.066
-362.669	-178.070	-0.499	-0.012
-361.654	338.223	0.118	0.227
-360.639	24.918	-0.049	0.041
-359.625	-200.000	0.007	-0.072
-358.610	-40.287	-0.050	0.026
-357.596	-104.577	0.041	0.009
-356.581	291.435	-0.103	-0.186
-355.566	-200.000	-0.002	0.044
-354.552	800.000	0.037	-0.144
-353.537	128.102	-0.210	0.264
-352.523	-200.000	0.011	0.427
-351.508	65.146	0.081	0.081
-350.493	-48.795	-0.092	0.044
-349.479	800.000	0.011	-0.041
-348.464	-174.892	0.107	-0.003
-347.450	-200.000	0.023	-0.238
-346.435	157.945	-0.151	0.207
-345.420	714.261	-0.026	-0.067
-344.406	186.884	-0.182	-0.268
-343.391	-200.000	-0.060	-0.316
-342.377	-105.632	0.408	-0.092
-341.362	-102.514	-0.333	0.079
-340.348	142.521	0.132	0.173
-339.333	-200.000	0.008	0.052
-338.318	160.539	-0.053	-0.074
-337.304	-60.914	-0.189	-0.079
-336.289	216.925	0.289	0.455
-335.275	-137.122	0.350	-0.040
-334.260	-85.217	-0.353	-0.109
-333.245	356.019	-0.067	0.132
-332.231	-120.738	0.407	-0.068
-331.216	-200.000	-0.074	-0.338
-330.202	-18.311	-0.252	-0.156
-329.187	79.019	0.266	-0.282
-328.172	-46.048	-0.449	0.219
-327.158	1.714	0.204	0.146
-326.143	-31.801	-0.067	0.037
-325.129	800.000	-0.073	0.222
-324.114	428.509	0.082	0.175
-323.099	212.936	-0.106	-0.166
-322.085	178.056	-0.134	-0.194
-321.070	42.645	0.264	-0.238
-320.056	256.201	-0.158	-0.269
-319.041	-200.000	-0.013	-0.090
-318.026	69.708	0.113	-0.115
-317.012	-127.154	-0.209	-0.030
-315.997	-62.174	0.262	-0.108
-314.983	198.213	0.188	0.284
-313.968	-188.861	-0.235	-0.003
-312.953	800.000	0.022	0.079
-311.939	-114.172	-0.166	-0.032
-310.924	-52.558	-0.190	0.087
-309.910	-200.000	0.001	-0.016
-308.895	-19.912	-0.314	-0.192
-307.880	169.823	-0.087	0.124
-306.866	-127.905	-0.311	-0.044
-305.851	-45.417	0.054	0.026
-304.837	-200.000	-0.016	-0.091
-303.822	-200.000	-0.014	0.317
-302.807	-200.000	-0.009	0.075
-301.793	-107.273	-0.205	0.045
-300.778	186.060	-0.108	-0.159
-299.764	-64.321	0.272	0.110
-298.749	-200.000	-0.013	-0.188
-297.735	-107.499	0.166	-0.036
-296.720	4.141	-0.181	0.131
-295.705	129.710	0.150	-0.190
-294.691	-93.485	0.342	-0.094
-293.676	68.896	0.249	-0.253
-292.662	-200.000	-0.024	0.110
-291.647	-200.000	-0.226	-0.000
-290.632	-50.670	0.273	0.127
-289.618	-41.340	-0.171	0.087
-288.603	-133.151	-0.196	-0.025
-287.589	-87.830	-0.068	-0.020
-286.574	-181.614	-0.130	0.002
-285.559	78.269	0.151	-0.159
-284.545	-101.318	-0.029	0.007
-283.530	-119.781	0.060	0.010
-282.516	800.000	-0.098	0.405
-281.501	800.000	0.012	-0.038
-280.486	-151.810	0.167	0.012
-279.472	71.540	0.153	-0.157
-278.457	-126.242	0.366	0.054
-277.443	800.000	-0.078	-0.289
-276.428	-60.701	0.336	-0.141
-275.413	12.723	-0.156	-0.119
-274.399	-14.048	-0.180	-0.115
-273.384	-200.000	0.005	-0.029
-272.370	-15.079	0.138	-0.087
-271.355	116.868	-0.159	-0.193
-270.340	-200.000	-0.016	-0.203
-269.326	2.124	0.091	-0.065
-268.311	-200.000	-0.002	0.048
-267.297	800.000	0.062	-0.226
-266.282	73.774	-0.209	-0.217
-265.267	-39.590	0.326	-0.169
-264.253	-97.249	-0.072	0.019
-263.238	-200.000	-0.032	-0.219
-262.224	800.000	-0.017	-0.071
-261.209	50.290	0.111	0.103
-260.195	68.002	0.019	-0.019
-259.180	579.946	-0.180	-0.436
-258.165	-82.030	0.314	-0.101
-257.151	-155.643	-0.255	-0.016
-256.136	-122.732	-0.114	-0.018
-255.122	-54.611	0.195	0.087
-254.107	314.675	-0.100	-0.186
-253.092	-200.000	0.014	0.091
-252.078	-27.531	0.092	-0.053
-251.063	800.000	0.071	0.281
-250.049	-47.166	0.045	0.022
-249.034	-72.374	-0.317	0.116
-248.019	148.611	0.023	-0.030
-247.005	-200.000	0.009	-0.166
-245.990	-54.676	-0.056	-0.025
-244.976	-144.007	-0.062	0.006
-243.961	213.733	-0.215	-0.336
-242.946	79.906	-0.230	-0.244
-241.932	-200.000	0.003	-0.116
-240.917	736.263	-0.104	-0.276
-239.903	-49.716	0.039	0.018
-238.888	165.694	-0.006	0.009
-237.873	-101.817	-0.262	0.062
-236.859	-200.000	0.018	-0.354
-235.844	71.898	-0.405	0.416
-234.830	-159.567	-0.236	-0.013
-233.815	800.000	-0.082	0.339
-232.800	15.397	0.099	-0.077
-231.786	-73.668	0.234	0.084
-230.771	7.962	0.153	-0.113
-229.757	367.818	0.095	-0.189
-228.742	86.528	0.175	-0.190
-227.727	-117.097	-0.239	0.043
-226.713	190.050	-0.064	-0.094
-225.698	245.284	-0.036	0.060
-224.684	-135.483	0.087	0.010
-223.669	555.162	-0.080	0.190
-222.655	-119.363	-0.143	-0.025
-221.640	678.519	0.061	0.156
-220.625	-157.190	0.285	-0.017
-219.611	800.000	0.113	0.310
-218.596	-1.031	0.006	-0.004
-217.582	47.606	0.205	-0.188
-216.567	-15.573	0.351	-0.221
-215.552	800.000	0.068	0.265
-214.538	800.000	-0.062	-0.201
-213.523	-60.385	0.229	0.096
-212.509	48.087	-0.148	-0.137
-211.494	359.305	-0.118	-0.232
-210.479	315.102	0.089	-0.166
-209.465	678.248	0.040	0.103
-208.450	445.618	0.104	-0.225
-207.436	51.251	-0.159	0.149
-206.421	-200.000	0.070	0.346
-205.406	-111.563	0.345	0.069
-204.392	-63.909	-0.189	0.076
-203.377	800.000	-0.139	0.520
-202.363	-200.000	0.034	0.231
-201.348	59.261	-0.077	0.075
-200.333	-14.997	-0.246	-0.155
-199.319	622.666	-0.071	0.176
-198.304	-200.000	-0.029	0.277
-197.290	-96.684	-0.214	0.056
-196.275	800.000	-0.043	-0.170
-195.260	2.823	-0.032	0.023
-194.246	-69.514	-0.353	0.133
-193.231	-19.285	-0.144	0.088
-192.217	108.914	0.114	0.134
-191.202	-123.159	0.059	0.009
-190.187	-200.000	-0.021	0.104
-189.173	109.828	0.041	-0.049
-188.158	-200.000	-0.000	0.004
-187.144	-69.683	0.239	-0.090
-186.129	800.000	-0.069	0.264
-185.114	120.365	0.102	0.125
-184.100	155.544	0.112	-0.152
-183.085	12.874	0.304	-0.231
-182.071	-200.000	0.012	0.105
-181.056	273.405	0.103	-0.179
-180.042	-11.216	-0.187	0.122
-179.027	6.633	0.062	-0.045
-178.012	355.732	0.064	-0.126
-176.998	540.009	0.013	-0.031
-175.983	19.562	0.526	-0.416
-174.969	-200.000	0.000	-0.090
-173.954	69.621	-0.082	-0.083
-172.939	-82.216	0.127	0.041
-171.925	-75.003	0.094	0.033
-170.910	-24.812	-0.270	0.158
-169.896	-143.890	0.242	-0.022
-168.881	-137.392	0.168	-0.019
-167.866	22.049	-0.064	-0.052
-166.852	0.544	0.133	0.093
-165.837	-50.924	-0.402	-0.186
-164.823	-200.000	0.020	0.100
-163.808	-127.773	-0.097	-0.014
-162.793	-200.000	0.036	-0.168
-161.779	800.000	0.056	-0.160
-160.764	-200.000	0.006	-0.488
-159.750	64.195	-0.034	0.034
-158.735	-50.316	-0.046	0.021
-157.720	36.551	0.301	0.261
-156.706	-154.138	0.510	0.034
-155.691	20.853	-0.130	0.103
-154.677	-34.695	-0.263	-0.142
-153.662	800.000	0.035	0.150
-152.647	138.048	0.072	-0.092
-151.633	-200.000	-0.006	-0.038
-150.618	-172.348	0.155	0.005
-149.604	-200.000	-0.004	-0.143
-148.589	-200.000	-0.002	-0.057
-147.574	354.318	-0.043	-0.084
-146.560	-105.663	-0.296	-0.066
-145.545	-8.687	0.240	-0.159
-144.531	-86.299	-0.133	0.040
-143.516	-200.000	0.007	-0.102
-142.502	-55.395	0.394	0.174
-141.487	44.314	-0.254	0.230
-140.472	726.260	0.117	0.306
-139.458	367.751	0.151	0.301
-138.443	-200.000	-0.095	0.545
-137.429	800.000	-0.064	0.230
-136.414	-200.000	0.002	0.029
-135.399	-200.000	-0.005	0.066
-134.385	-134.772	0.050	-0.006
-133.370	183.941	0.141	0.205
-132.356	-74.744	0.197	-0.070
-131.341	-186.658	0.203	0.003
-130.326	-68.441	-0.364	0.139
-129.312	-115.737	0.269	-0.050
-128.297	128.334	0.189	-0.236
-127.283	56.376	-0.195	0.187
-126.268	207.145	-0.010	0.015
-125.253	-21.600	0.142	-0.085
-124.239	800.000	-0.092	0.297
-123.224	260.747	0.040	0.068
-122.210	86.096	0.239	0.258
-121.195	-160.113	0.081	0.004
-120.180	217.247	0.168	-0.262
-119.166	215.878	-0.050	-0.078
-118.151	132.718	0.107	-0.135
-117.137	800.000	0.050	-0.153
-116.122	800.000	0.094	-0.257
-115.107	800.000	-0.086	-0.315
-114.093	-163.812	0.117	-0.005
-113.078	397.123	0.112	0.231
-112.064	93.578	-0.068	-0.075
-111.049	-97.443	-0.184	0.047
-110.034	306.917	0.126	-0.231
-109.020	50.228	-0.129	-0.120
-108.005	-125.754	-0.384	-0.057
-106.991	-136.313	0.132	0.015
-105.976	-86.478	0.479	-0.145
-104.962	-105.415	-0.116	0.026
-103.947	-200.000	-0.058	0.295
-102.932	800.000	0.079	0.303
-101.918	-200.000	0.022	-0.207
-100.903	196.782	-0.032	-0.047
-99.889	-200.000	0.027	0.198
-98.874	197.628	0.129	-0.193
-97.859	131.537	0.149	0.188
-96.845	43.493	0.145	0.131
-95.830	-102.242	0.223	0.053
-94.816	-8.294	0.207	0.137
-93.801	82.752	0.133	-0.142
-92.786	-123.549	-0.071	-0.011
-91.772	-135.294	0.229	-0.027
-90.757	-129.951	-0.139	0.019
-89.743	-152.734	0.323	0.023
-88.728	-200.000	-0.020	-0.212
-87.713	800.000	0.012	0.038
-86.699	147.682	0.078	0.103
-85.684	-191.751	0.218	-0.002
-84.670	800.000	0.017	-0.058
-83.655	151.452	-0.151	-0.202
-82.640	-200.000	0.030	0.242
-81.626	340.184	0.027	0.052
-80.611	142.403	-0.143	0.187
-79.597	-200.000	0.077	0.337
-78.582	-200.000	0.017	0.188
-77.567	800.000	-0.034	0.142
-76.553	104.261	-0.105	0.121
-75.538	-178.640	0.183	0.004
-74.524	-39.209	-0.294	-0.152
-73.509	-139.725	-0.395	-0.041
-72.494	-200.000	0.000	0.400
-71.480	-200.000	-0.004	0.091
-70.465	-88.239	-0.544	-0.160
-69.451	-200.000	-0.010	0.143
-68.436	-41.719	0.076	-0.038
-67.422	18.259	-0.249	-0.195
-66.407	800.000	-0.045	-0.168
-65.392	6.365	-0.060	0.044
-64.378	137.079	0.204	-0.261
-63.363	800.000	-0.088	0.314
-62.349	265.594	-0.153	-0.261
-61.334	47.373	-1.375	-1.255
-60.319	800.000	0.136	0.423
-59.305	414.172	-0.479	-0.999
-58.290	218.795	0.644	1.008
-57.276	800.000	0.431	1.378
-56.261	-200.000	105.523	610.463
-55.246	502.857	1508.439	3416.371
-54.232	176.316	2701.490	3844.713
-53.217	111.748	2164.815	2559.951
-52.203	41.557	1598.099	1417.487
-51.188	33.085	1332.002	1130.992
-50.173	29.926	1290.704	1077.529
-49.159	54.264	1344.900	1268.032
-48.144	54.547	1360.531	1284.400
-47.130	33.159	1315.290	1117.061
-46.115	29.635	1297.491	1081.316
-45.100	29.292	1293.074	1075.594
-44.086	29.265	1290.347	1073.125
-43.071	29.378	1287.457	1071.335
-42.057	29.368	1285.384	1069.512
-41.042	29.398	1283.866	1068.377
-40.027	29.371	1282.539	1067.073
-39.013	29.462	1280.121	1065.547
-37.998	29.339	1279.183	1064.011
-36.984	29.486	1276.888	1062.911
-35.969	29.506	1274.870	1061.305
-34.954	29.521	1273.130	1059.896
-33.940	29.522	1271.859	1058.804
-32.925	29.614	1270.635	1058.268
-31.911	29.502	1269.655	1056.767
-30.896	29.579	1268.082	1055.857
-29.881	29.538	1266.737	1054.463
-28.867	29.693	1264.571	1053.500
-27.852	29.555	1263.807	1052.039
-26.838	29.654	1261.844	1050.925
-25.823	29.608	1261.184	1050.074
-24.809	29.535	1259.985	1048.618
-23.794	29.518	1258.977	1047.638
-22.779	29.558	1257.041	1046.213
-21.765	29.548	1255.498	1044.829
-20.750	29.539	1254.646	1044.028
-19.736	29.540	1252.989	1042.619
-18.721	29.538	1251.843	1041.611
-17.706	29.526	1250.871	1040.692
-16.692	29.396	1249.714	1038.954
-15.677	29.534	1248.195	1038.427
-14.663	29.552	1247.254	1037.704
-13.648	29.417	1246.471	1036.257
-12.633	29.394	1245.791	1035.519
-11.619	29.384	1244.618	1034.448
-10.604	29.489	1243.865	1034.366
-9.590	29.378	1243.313	1033.249
-8.575	29.505	1242.025	1032.848
-7.560	29.489	1240.976	1031.841
-6.546	29.393	1240.492	1030.865
-5.531	29.427	1239.211	1029.948
-4.517	29.447	1238.420	1029.363
-3.502	29.455	1237.546	1028.637
-2.487	29.392	1236.686	1027.530
-1.473	29.448	1232.525	1024.344
-0.458	27.954	1218.189	1004.184
0.556	22.507	1201.011	968.780
1.571	19.036	1206.854	954.193
2.586	18.400	1221.071	961.779
3.600	18.280	1210.817	952.950
4.615	13.614	1140.248	872.810
5.629	4.678	1065.119	771.099
6.644	-0.030	1044.886	733.451
7.659	-0.209	1042.139	730.585
8.673	-0.421	1041.012	728.699
9.688	-0.479	1039.980	727.634
10.702	0.131	1038.618	729.572
11.717	6.155	1047.048	764.801
12.731	15.171	1059.969	818.398
13.746	19.572	1065.146	843.877
14.761	20.502	1066.201	849.185
15.775	20.556	1065.266	848.628
16.790	20.276	1064.711	846.747
17.804	20.230	1064.157	846.009
18.819	20.415	1063.764	846.520
19.834	20.570	1063.180	846.736
20.848	20.496	1062.590	845.831
21.863	20.501	1062.221	845.487
22.877	20.420	1061.709	844.613
23.892	20.291	1061.211	843.515
24.907	20.373	1060.382	843.178
25.921	20.487	1059.283	842.780
26.936	20.418	1057.950	841.315
27.950	20.293	1056.558	839.528
28.965	20.194	1054.304	837.182
29.980	20.294	1052.819	836.414
30.994	20.473	1051.856	836.435
32.009	20.557	1050.050	835.331
33.023	20.313	1049.008	833.254
34.038	20.417	1048.429	833.218
35.053	20.424	1048.068	832.894
36.067	20.401	1047.419	832.194
37.082	20.546	1046.231	831.872
38.096	20.674	1045.980	832.207
39.111	20.683	1045.142	831.510
40.126	20.487	1043.570	829.254
41.140	20.282	1041.489	826.548
42.155	20.112	1040.287	824.715
43.169	20.198	1039.363	824.315
44.184	20.147	1038.418	823.251
45.199	20.121	1037.221	822.108
46.213	20.082	1036.170	821.017
47.228	20.330	1035.295	821.425
48.242	20.329	1034.693	820.868
49.257	20.542	1033.677	820.998
50.271	20.484	1033.321	820.367
51.286	20.464	1032.002	819.151
52.301	20.493	1030.891	818.335
53.315	20.452	1029.801	817.207
54.330	20.353	1028.924	815.973
55.344	20.522	1028.316	816.209
56.359	20.428	1027.416	814.981
57.374	20.325	1026.142	813.419
58.388	20.414	1025.507	813.262
59.403	20.096	1024.976	811.278
60.417	20.019	1024.092	810.148
61.432	20.160	1023.349	810.147
62.447	20.327	1022.303	810.026
63.461	20.236	1021.512	808.902
64.476	20.221	1020.415	807.892
65.490	20.055	1019.746	806.516
66.505	20.230	1019.240	806.862
67.520	20.180	1018.488	805.965
68.534	20.144	1017.264	804.756
69.549	19.706	1016.200	801.809
70.563	19.997	1015.244	802.333
71.578	19.771	1014.741	800.821
72.593	19.731	1013.705	799.747
73.607	19.821	1013.318	799.786
74.622	20.069	1013.454	800.968
75.636	20.051	1012.323	799.922
76.651	19.991	1010.963	798.499
77.666	19.951	1010.377	797.782
78.680	19.959	1009.624	797.153
79.695	20.045	1008.859	796.873
80.709	20.077	1008.445	796.625
81.724	20.307	1006.987	796.457
82.739	20.256	1006.694	795.919
83.753	20.466	1006.390	796.573
84.768	20.798	1005.322	797.177
85.782	20.850	1004.439	796.642
86.797	20.757	1002.819	794.864
87.812	20.504	1002.441	793.341
88.826	20.585	1001.920	793.229
89.841	20.653	1000.994	792.733
90.855	20.790	999.421	792.041
91.870	20.700	998.842	791.103
92.884	20.523	997.871	789.462
93.899	20.617	996.358	788.618
94.914	20.600	995.695	787.949
95.928	20.515	994.468	786.523
96.943	20.239	993.326	784.302
97.957	19.901	992.782	782.274
98.972	20.035	990.744	781.203
99.987	20.091	990.657	781.320
101.001	20.387	989.901	781.988
102.016	20.317	988.917	780.827
103.030	20.335	988.230	780.296
104.045	20.129	986.735	778.123
105.060	20.066	985.734	776.981
106.074	20.320	985.649	777.982
107.089	20.557	984.851	778.346
108.103	20.510	983.355	776.885
109.118	20.111	982.613	774.447
110.133	20.144	982.052	774.082
111.147	20.072	980.534	772.500
112.162	19.914	979.652	771.031
113.176	20.286	978.928	772.046
114.191	20.034	977.952	770.092
115.206	19.721	977.388	768.189
116.220	19.739	976.473	767.480
117.235	19.861	975.676	767.328
118.249	19.934	974.356	766.545
119.264	19.825	973.393	765.239
120.279	19.934	972.650	765.068
121.293	20.005	971.767	764.618
122.308	20.036	971.188	764.233
123.322	20.018	970.026	763.169
124.337	19.808	968.297	760.820
125.352	19.215	967.339	757.392
126.366	19.348	966.040	756.890
127.381	20.025	966.105	759.849
128.395	20.340	965.767	760.894
129.410	20.621	964.616	761.151
130.424	20.492	963.408	759.569
131.439	20.399	962.304	758.220
132.454	20.284	961.825	757.276
133.468	20.175	961.227	756.261
134.483	20.492	959.882	756.518
135.497	20.631	959.126	756.461
136.512	20.723	958.342	756.173
137.527	20.615	957.666	755.106
138.541	20.710	957.121	755.023
139.556	20.735	956.117	754.271
140.570	20.805	955.139	753.733
141.585	20.702	954.324	752.580
142.600	20.623	952.945	751.086
143.614	20.741	953.036	751.601
144.629	20.940	951.928	751.520
145.643	20.817	950.525	749.816
146.658	20.568	949.405	747.791
147.673	20.539	947.956	746.462
148.687	20.461	947.404	745.628
149.702	20.398	946.381	744.485
150.716	20.441	945.503	743.911
151.731	20.571	945.046	744.043
152.746	20.724	944.381	744.107
153.760	20.891	943.570	744.118
154.775	20.976	942.942	743.918
155.789	20.812	942.047	742.448
156.804	20.748	941.293	741.515
157.819	20.717	940.081	740.364
158.833	21.015	939.617	741.200
159.848	20.974	938.352	739.961
160.862	20.811	937.440	738.484
161.877	20.861	936.448	737.848
162.892	20.829	935.848	737.177
163.906	20.813	934.597	736.060
164.921	20.790	933.421	734.972
165.935	20.822	932.916	734.640
166.950	20.941	931.986	734.346
167.964	20.905	930.762	733.165
168.979	20.699	929.705	731.403
169.994	20.732	928.973	730.900
171.008	20.930	928.614	731.386
172.023	20.894	927.666	730.423
173.037	20.583	926.672	728.271
174.052	20.523	925.484	727.022
175.067	20.649	925.115	727.197
176.081	20.810	924.202	727.084
177.096	20.448	924.174	725.488
178.110	20.317	923.148	724.074
179.125	20.214	922.093	722.751
180.140	20.342	921.787	722.979
181.154	20.313	921.787	722.794
182.169	20.620	921.695	723.936
183.183	20.800	920.891	723.990
184.198	20.733	919.960	722.918
185.213	20.798	918.813	722.222
186.227	20.791	918.275	721.703
187.242	20.760	917.702	721.063
188.256	20.970	916.631	721.026
189.271	20.879	915.992	720.086
190.286	20.706	914.870	718.421
191.300	20.044	913.731	714.737
192.315	19.459	912.022	710.928
193.329	19.283	911.876	710.024
194.344	20.098	912.316	713.660
195.359	20.670	912.108	715.791
196.373	20.894	911.354	716.054
197.388	20.540	910.963	714.232
198.402	20.638	910.081	713.878
199.417	20.659	909.878	713.742
200.432	20.278	909.077	711.486
201.446	20.207	908.001	710.293
202.461	20.202	907.665	709.947
203.475	19.414	905.350	704.854
204.490	18.868	903.659	701.249
205.504	19.649	904.368	704.925
206.519	20.391	904.358	707.878
207.534	20.420	903.784	707.483
208.548	20.699	903.702	708.497
209.563	20.531	902.663	706.936
210.577	20.677	901.725	706.729
211.592	21.014	901.549	707.897
212.607	20.877	900.590	706.525
213.621	20.919	900.007	706.176
214.636	20.897	899.288	705.463
215.650	20.778	898.476	704.282
216.665	21.045	897.853	704.810
217.680	20.980	896.935	703.764
218.694	20.584	895.651	701.098
219.709	20.328	895.447	699.843
220.723	20.589	895.402	700.799
221.738	20.558	894.543	699.938
222.753	20.768	893.605	699.990
223.767	20.900	892.830	699.849
224.782	21.023	892.687	700.169
225.796	20.895	892.182	699.199
226.811	20.331	890.877	695.852
227.826	19.551	889.775	691.807
228.840	19.919	889.494	693.000
229.855	20.055	888.338	692.581
230.869	19.673	886.927	689.895
231.884	20.074	887.324	691.746
232.899	20.815	887.677	694.916
233.913	20.626	886.603	693.261
234.928	20.695	885.860	692.893
235.942	20.726	885.097	692.360
236.957	20.458	884.507	690.771
237.972	20.414	883.683	689.890
238.986	20.415	883.239	689.489
240.001	20.546	882.661	689.495
241.015	20.539	882.502	689.284
242.030	20.778	881.644	689.496
243.045	20.731	881.478	689.121
244.059	20.891	880.670	689.061
245.074	20.653	879.732	687.325
246.088	20.373	878.774	685.410
247.103	20.510	878.771	685.891
248.117	21.177	878.540	688.280
249.132	21.289	878.042	688.269
250.147	21.378	877.628	688.235
251.161	21.541	876.956	688.285
252.176	21.457	876.505	687.540
253.190	21.557	875.596	687.161
254.205	21.651	875.080	687.063
255.220	21.607	874.730	686.554
256.234	21.440	874.087	685.338
257.249	21.452	872.930	684.415
258.263	21.512	872.073	683.917
259.278	21.688	871.687	684.241
260.293	21.682	871.086	683.687
261.307	21.574	869.990	682.345
262.322	21.473	869.280	681.334
263.336	20.453	867.683	676.056
264.351	19.527	865.740	670.882
265.366	19.640	865.424	671.019
266.380	20.753	865.954	675.692
267.395	21.142	866.119	677.274
268.409	21.096	865.373	676.448
269.424	21.347	864.863	676.965
270.439	21.281	864.269	676.185
271.453	21.476	863.329	676.144
272.468	21.578	863.469	676.585
273.482	21.513	862.923	675.848
274.497	21.265	861.241	673.514
275.512	20.862	860.662	671.448
276.526	21.209	861.013	673.002
277.541	21.371	860.295	673.004
278.555	21.210	858.995	671.307
279.570	21.021	858.476	670.117
280.585	21.277	857.807	670.519
281.599	21.233	856.686	669.413
282.614	20.804	855.589	666.857
283.628	20.559	855.466	665.763
284.643	21.008	855.301	667.295
285.657	20.554	854.041	664.514
286.672	20.291	853.307	662.884
287.687	20.793	853.489	664.883
288.701	20.958	852.628	664.783
289.716	20.684	851.438	662.752
290.730	20.580	850.765	661.773
291.745	20.432	849.622	660.264
292.760	20.672	850.029	661.434
293.774	21.621	850.533	665.373
294.789	21.897	850.354	666.225
295.803	22.033	849.353	665.897
296.818	21.977	848.573	665.015
297.833	21.440	847.832	662.342
298.847	21.500	846.897	661.778
299.862	21.714	846.342	662.097
300.876	22.002	846.163	662.983
301.891	22.010	845.084	662.110
302.906	21.377	844.790	659.435
303.920	21.561	844.355	659.731
304.935	21.918	843.780	660.566
305.949	21.764	843.163	659.446
306.964	21.564	842.867	658.405
307.979	21.610	842.346	658.111
308.993	22.050	842.126	659.535
310.008	22.060	841.180	658.772
311.022	21.826	840.695	657.458
312.037	21.558	840.480	656.226
313.052	21.451	839.209	654.778
314.066	20.642	837.446	650.319
315.081	20.299	836.716	648.416
316.095	21.079	837.459	651.849
317.110	21.574	837.078	653.340
318.125	20.663	835.576	648.715
319.139	19.895	834.055	644.620
320.154	19.988	834.018	644.877
321.168	20.844	834.008	648.002
322.183	21.442	834.164	650.290
323.197	21.378	834.079	649.927
324.212	21.736	833.858	651.028
325.227	21.730	833.216	650.445
326.241	21.622	832.381	649.338
327.256	21.654	831.429	648.654
328.270	21.485	830.908	647.566
329.285	21.367	830.235	646.546
330.300	21.128	829.365	644.930
331.314	21.308	829.205	645.413
332.329	21.718	828.887	646.623
333.343	21.897	828.496	646.918
334.358	21.859	827.856	646.221
335.373	21.923	827.769	646.333
336.387	22.131	827.832	647.090
337.402	22.228	827.564	647.180
338.416	22.051	827.244	646.223
339.431	22.104	827.209	646.334
340.446	22.327	826.558	646.586
341.460	22.279	825.868	645.811
342.475	22.135	824.665	644.289
343.489	22.095	824.677	644.094
344.504	22.473	824.604	645.364
345.519	22.474	824.196	644.992
346.533	22.584	823.869	645.080
347.548	22.459	823.489	644.268
348.562	22.501	822.810	643.837
349.577	22.389	822.539	643.158
350.592	22.511	821.482	642.719
351.606	22.433	820.563	641.657
352.621	22.470	819.601	640.985
353.635	22.354	818.881	639.941
354.650	21.628	817.405	636.096
355.665	20.734	816.342	631.967
356.679	21.164	816.049	633.245
357.694	21.697	815.360	634.586
358.708	21.537	815.065	633.721
359.723	21.983	815.261	635.433
360.738	22.164	814.553	635.479
361.752	22.338	814.112	635.708
362.767	22.537	813.674	636.026
363.781	22.790	813.711	636.912
364.796	22.934	813.142	636.930
365.810	22.983	812.706	636.711
366.825	22.780	812.647	635.873
367.840	22.483	811.264	633.668
368.854	22.350	810.285	632.370
369.869	22.304	810.247	632.120
370.883	22.385	809.869	632.060
371.898	22.135	809.124	630.526
372.913	22.307	809.051	631.030
373.927	22.382	808.756	631.011
374.942	22.664	808.024	631.397
375.956	22.455	808.101	630.650
376.971	22.759	807.542	631.245
377.986	22.860	807.127	631.226
379.000	22.699	806.591	630.176
380.015	22.687	805.752	629.422
381.029	22.697	805.348	629.088
382.044	22.802	804.719	628.916
383.059	22.867	804.389	628.834
384.073	22.890	803.580	628.226
385.088	23.015	803.231	628.341
386.102	22.705	802.347	626.493
387.117	22.660	801.712	625.783
388.132	22.203	800.664	623.291
389.146	21.891	799.862	621.506
390.161	22.092	800.049	622.308
391.175	22.481	799.731	623.382
392.190	22.227	798.780	621.690
393.205	21.022	796.553	615.649
394.219	19.507	794.694	608.817
395.234	19.592	794.854	609.185
396.248	21.082	796.285	615.492
397.263	22.459	796.739	620.644
398.278	22.596	796.131	620.598
399.292	22.236	795.805	619.022
400.307	22.219	795.421	618.608
401.321	22.414	794.761	618.726
402.336	22.674	794.836	619.643
403.350	23.038	794.672	620.735
404.365	23.325	794.100	621.242
405.380	23.705	793.935	622.389
406.394	23.661	793.535	621.868
407.409	23.580	792.882	621.016
408.423	23.472	792.891	620.593
409.438	23.470	792.484	620.211
410.453	23.642	791.594	620.060
411.467	23.491	791.029	619.037
412.482	23.460	790.914	618.783
413.496	23.525	790.382	618.538
414.511	23.718	790.199	619.015
415.526	23.406	790.176	617.852
416.540	23.446	789.187	617.164
417.555	23.101	788.299	615.217
418.569	23.254	788.129	615.559
419.584	23.103	787.725	614.665
420.599	23.053	786.782	613.702
421.613	158.215	1364.193	1798.503
422.628	136.935	1448.311	1798.595
