DTS Sentinel unit serial number:	SN413079Multiplexer serial number:	ORYXHardware model number:	OX4-SRSoftware version number:	ORYX F/W v4.00 Oryx Data Collector v3.7.2.0data status	okinstallation	princeton_trtdifferential loss correction	single-endedforward channel	channel 1reverse channel	N/Adate	2019/09/14time	04:22:35forward acquisition time	60.00reverse acquisition time	0.00gamma	496.2192k internal	0.2334k external	0.2334temperature offset calibration	1.0074default loss term (dB/km)	0.3790temperature slope calibration	1.0000multiplexer offset coefficient	1.0000multiplexer slope coefficient	1.0000fibre end	0.00T internal ref (°C)	26.75T ext. ref 1 (°C)	3.33T ext. ref 2 (°C)	21.91length (m)	temperature (°C)	Stokes	anti-Stokes-747.200	-6.129	0.089	0.061
-746.185	-75.783	0.254	0.091
-745.171	-181.608	-0.256	-0.005
-744.156	-27.940	-0.263	0.153
-743.142	213.821	0.122	0.194
-742.127	6.980	-0.282	0.211
-741.112	307.554	0.052	0.098
-740.098	-101.782	0.367	0.089
-739.083	-200.000	0.000	0.036
-738.069	-200.000	0.001	-0.151
-737.054	-199.040	-0.016	0.000
-736.039	-13.861	-0.041	0.027
-735.025	-200.000	0.012	0.251
-734.010	-94.889	-0.327	-0.089
-732.996	82.939	-0.122	-0.133
-731.981	601.457	-0.142	0.354
-730.966	-162.816	-0.256	0.013
-729.952	-79.465	-0.146	-0.050
-728.937	-29.789	-0.105	-0.060
-727.923	612.168	-0.089	0.224
-726.908	-132.299	-0.241	-0.031
-725.894	431.403	0.095	-0.207
-724.879	-93.068	0.329	0.092
-723.864	174.624	-0.028	0.040
-722.850	164.294	-0.224	0.317
-721.835	-165.345	0.277	-0.012
-720.821	200.352	-0.188	-0.290
-719.806	-65.694	-0.195	-0.078
-718.791	-200.000	-0.031	0.179
-717.777	50.668	-0.096	0.091
-716.762	800.000	-0.017	-0.065
-715.748	72.763	0.250	-0.262
-714.733	-200.000	-0.023	0.218
-713.718	33.265	0.166	0.144
-712.704	337.066	-0.130	-0.255
-711.689	26.218	-0.198	-0.166
-710.675	-35.426	0.135	-0.074
-709.660	-192.535	0.344	0.003
-708.645	-24.950	0.390	-0.232
-707.631	135.950	0.149	-0.194
-706.616	56.608	0.121	0.118
-705.602	-72.023	0.093	0.035
-704.587	-26.341	0.358	-0.211
-703.572	-146.944	-0.134	0.012
-702.558	-125.803	0.275	-0.042
-701.543	105.113	-0.234	-0.277
-700.529	209.403	-0.090	-0.142
-699.514	-52.277	0.186	-0.086
-698.499	51.307	0.110	0.104
-697.485	-13.995	-0.166	-0.108
-696.470	135.916	0.133	-0.173
-695.456	29.019	0.448	0.381
-694.441	-137.027	0.185	-0.021
-693.426	64.174	-0.214	-0.216
-692.412	-70.244	-0.198	0.076
-691.397	800.000	0.064	0.241
-690.383	800.000	-0.054	-0.183
-689.368	298.847	0.055	0.102
-688.354	-200.000	0.035	0.169
-687.339	31.898	0.213	0.184
-686.324	245.028	-0.078	-0.131
-685.310	-42.804	0.107	0.054
-684.295	-56.263	-0.096	-0.043
-683.281	-127.514	-0.257	-0.037
-682.266	-68.178	-0.101	0.040
-681.251	29.135	0.131	-0.112
-680.237	-121.811	0.333	-0.055
-679.222	10.192	-0.122	-0.093
-678.208	22.527	-0.291	0.238
-677.193	800.000	0.110	0.338
-676.178	-3.499	-0.383	0.267
-675.164	-200.000	0.029	0.216
-674.149	20.155	0.207	-0.167
-673.135	-26.051	0.129	-0.076
-672.120	-87.890	0.274	-0.083
-671.105	800.000	-0.110	-0.385
-670.091	-85.280	0.161	0.050
-669.076	161.755	0.239	-0.336
-668.062	-84.200	-0.125	0.040
-667.047	800.000	-0.025	-0.090
-666.032	6.328	0.254	0.189
-665.018	373.188	0.109	-0.223
-664.003	40.376	0.185	0.167
-662.989	-145.710	-0.251	-0.022
-661.974	35.859	0.160	0.141
-660.959	65.397	-0.230	0.233
-659.945	114.671	0.151	-0.185
-658.930	800.000	-0.062	-0.191
-657.916	73.645	-0.153	0.160
-656.901	-156.839	-0.112	-0.007
-655.886	-76.403	0.202	0.071
-654.872	100.684	-0.204	-0.237
-653.857	-171.272	0.227	0.008
-652.843	-92.181	-0.128	0.036
-651.828	-26.861	-0.041	0.024
-650.814	114.615	0.092	-0.113
-649.799	-200.000	-0.001	-0.199
-648.784	-200.000	0.013	-0.163
-647.770	238.541	-0.217	0.361
-646.755	-96.041	0.093	-0.025
-645.741	-123.807	-0.242	-0.038
-644.726	-133.260	0.541	0.068
-643.711	28.362	-0.214	-0.181
-642.697	-200.000	-0.024	-0.127
-641.682	-115.926	0.190	0.036
-640.668	800.000	-0.034	-0.106
-639.653	800.000	0.062	-0.172
-638.638	-200.000	0.037	-0.332
-637.624	-200.000	-0.009	-0.322
-636.609	108.716	0.247	-0.296
-635.595	-60.105	0.214	0.092
-634.580	-116.062	-0.033	0.006
-633.565	-200.000	0.068	-0.520
-632.551	477.108	0.172	-0.389
-631.536	-200.000	0.055	-0.278
-630.522	-3.288	0.164	-0.115
-629.507	-131.926	0.141	-0.018
-628.492	-55.604	0.323	0.145
-627.478	-101.616	-0.201	-0.049
-626.463	182.822	-0.186	-0.275
-625.449	-200.000	-0.013	-0.130
-624.434	800.000	-0.062	-0.270
-623.419	-78.744	-0.231	0.079
-622.405	155.875	-0.230	0.317
-621.390	-146.304	0.167	0.015
-620.376	-200.000	-0.011	-0.119
-619.361	52.943	0.124	0.119
-618.346	412.407	-0.094	0.201
-617.332	181.980	-0.079	0.116
-616.317	33.137	-0.081	-0.070
-615.303	-44.953	-0.165	-0.082
-614.288	-104.489	0.071	-0.016
-613.273	-189.350	-0.362	-0.004
-612.259	41.400	-0.198	-0.179
-611.244	45.533	0.074	0.068
-610.230	-88.956	0.206	0.061
-609.215	-47.824	0.330	0.160
-608.201	800.000	0.053	-0.170
-607.186	73.279	-0.467	-0.489
-606.171	-200.000	0.041	-0.295
-605.157	149.070	0.062	-0.084
-604.142	293.984	-0.211	-0.386
-603.128	-150.666	0.122	-0.009
-602.113	140.744	-0.141	-0.186
-601.098	38.652	0.289	-0.258
-600.084	-87.218	-0.273	0.083
-599.069	39.117	0.149	-0.134
-598.055	-200.000	0.017	-0.272
-597.040	-38.151	-0.297	0.158
-596.025	386.243	0.226	0.466
-595.011	88.043	0.191	-0.211
-593.996	107.841	-0.163	0.194
-592.982	19.632	0.371	0.298
-591.967	595.039	0.117	-0.290
-590.952	191.983	0.103	-0.155
-589.938	-68.182	0.215	0.084
-588.923	446.826	0.067	0.148
-587.909	-47.871	0.226	-0.110
-586.894	-2.560	0.086	-0.060
-585.879	800.000	0.043	0.173
-584.865	-156.003	-0.599	0.038
-583.850	-200.000	-0.029	-0.131
-582.836	-49.967	-0.235	-0.111
-581.821	343.696	-0.030	0.059
-580.806	-75.833	0.184	-0.065
-579.792	-200.000	0.067	-0.414
-578.777	52.355	-0.459	-0.437
-577.763	-200.000	-0.031	-0.175
-576.748	160.205	-0.175	-0.243
-575.733	-94.830	-0.136	0.037
-574.719	527.125	0.144	0.338
-573.704	126.988	-0.236	-0.298
-572.690	-200.000	0.044	-0.259
-571.675	-155.069	0.022	0.001
-570.661	151.191	0.145	0.196
-569.646	-95.623	0.110	-0.029
-568.631	-81.914	0.246	-0.080
-567.617	4.729	0.144	0.106
-566.602	-200.000	0.032	0.227
-565.588	102.959	0.283	0.331
-564.573	259.765	-0.133	-0.230
-563.558	68.653	-0.174	0.178
-562.544	-200.000	-0.066	0.426
-561.529	-22.214	-0.115	0.070
-560.515	-200.000	0.039	0.315
-559.500	533.659	0.051	-0.120
-558.485	-200.000	-0.017	-0.115
-557.471	566.778	0.159	0.385
-556.456	325.199	-0.126	0.241
-555.442	19.817	0.199	-0.160
-554.427	4.826	-0.114	0.084
-553.412	-110.019	0.349	-0.073
-552.398	800.000	0.031	0.110
-551.383	146.323	-0.219	0.293
-550.369	608.948	-0.049	-0.123
-549.354	250.902	-0.026	0.043
-548.339	79.499	-0.059	-0.064
-547.325	-200.000	-0.016	-0.205
-546.310	-43.662	-0.175	-0.088
-545.296	125.637	-0.072	0.090
-544.281	-66.803	-0.515	0.203
-543.266	79.166	-0.032	-0.034
-542.252	-200.000	-0.013	0.112
-541.237	-200.000	-0.092	0.436
-540.223	-200.000	0.050	-0.279
-539.208	-81.626	-0.115	0.038
-538.193	-33.757	0.157	0.086
-537.179	12.823	0.135	0.104
-536.164	-34.209	-0.436	-0.238
-535.150	1.852	-0.104	-0.075
-534.135	-82.027	0.428	-0.139
-533.121	-183.298	0.063	-0.001
-532.106	-46.100	-0.171	0.084
-531.091	372.494	0.068	-0.138
-530.077	800.000	0.052	-0.188
-529.062	109.895	0.069	0.082
-528.048	-59.470	0.176	-0.075
-527.033	190.270	-0.202	-0.303
-526.018	23.929	0.187	0.154
-525.004	-59.835	0.116	0.050
-523.989	13.837	0.198	-0.153
-522.975	78.789	0.055	0.058
-521.960	-93.527	-0.373	0.103
-520.945	64.783	0.172	0.173
-519.931	2.113	-0.223	-0.160
-518.916	-200.000	0.006	0.053
-517.902	346.230	0.096	-0.188
-516.887	153.516	0.151	-0.206
-515.872	-25.599	-0.322	0.190
-514.858	-153.027	-0.209	0.015
-513.843	-53.689	0.443	0.201
-512.829	800.000	-0.039	0.117
-511.814	-76.613	-0.091	0.032
-510.799	3.468	-0.136	-0.098
-509.785	-52.684	-0.364	-0.167
-508.770	115.328	-0.125	-0.152
-507.756	-129.443	-0.186	0.026
-506.741	-162.668	0.323	-0.016
-505.726	-200.000	0.007	-0.117
-504.712	-103.116	-0.013	0.003
-503.697	-73.591	0.148	0.054
-502.683	-200.000	-0.030	-0.315
-501.668	800.000	-0.032	-0.118
-500.653	-200.000	0.009	-0.106
-499.639	150.370	0.095	-0.128
-498.624	-97.786	0.381	-0.098
-497.610	164.758	0.123	0.172
-496.595	23.900	-0.201	0.165
-495.581	36.642	-0.010	-0.009
-494.566	-56.140	0.187	0.083
-493.551	-46.809	-0.038	0.019
-492.537	-104.271	-0.203	-0.047
-491.522	-155.423	0.077	0.005
-490.508	-200.000	-0.011	0.088
-489.493	645.034	0.052	-0.132
-488.478	124.168	0.094	-0.118
-487.464	610.571	0.079	-0.196
-486.449	-200.000	-0.013	-0.134
-485.435	800.000	-0.062	0.224
-484.420	800.000	0.022	0.079
-483.405	116.376	0.135	0.164
-482.391	-55.191	0.201	-0.090
-481.376	286.501	-0.140	0.252
-480.362	-56.771	-0.046	0.020
-479.347	-47.186	-0.392	0.190
-478.332	-117.154	-0.403	-0.073
-477.318	24.993	0.087	0.071
-476.303	-64.177	0.174	0.070
-475.289	9.561	-0.231	-0.174
-474.274	547.281	0.092	-0.220
-473.259	800.000	-0.122	0.337
-472.245	800.000	-0.085	-0.241
-471.230	44.964	-0.080	0.073
-470.216	-200.000	-0.012	-0.294
-469.201	-200.000	-0.072	-0.470
-468.186	10.651	-0.237	-0.180
-467.172	263.622	0.029	0.050
-466.157	79.517	0.167	-0.178
-465.143	-115.423	0.305	0.057
-464.128	20.896	0.288	0.232
-463.113	-106.800	-0.299	-0.066
-462.099	-128.358	-0.139	0.020
-461.084	-200.000	-0.006	0.190
-460.070	-82.903	0.255	0.082
-459.055	-28.515	0.222	-0.127
-458.040	-28.621	0.178	0.102
-457.026	-200.000	0.002	0.359
-456.011	399.597	-0.074	0.155
-454.997	713.905	0.044	-0.115
-453.982	800.000	-0.068	0.234
-452.968	94.785	-0.107	0.121
-451.953	92.158	0.143	-0.160
-450.938	-174.853	-0.411	0.011
-449.924	-200.000	0.011	0.171
-448.909	36.431	0.191	-0.167
-447.895	-200.000	-0.003	0.106
-446.880	144.158	0.070	-0.093
-445.865	-18.298	0.372	0.231
-444.851	-126.110	0.098	0.015
-443.836	220.498	-0.124	0.197
-442.822	-200.000	0.003	-0.295
-441.807	-31.004	0.139	-0.078
-440.792	800.000	-0.078	-0.218
-439.778	19.955	-0.089	0.071
-438.763	64.791	-0.072	-0.072
-437.749	161.172	0.164	-0.227
-436.734	-39.563	-0.021	-0.011
-435.719	114.422	-0.106	0.129
-434.705	92.053	0.016	0.018
-433.690	-73.763	-0.305	0.110
-432.676	62.851	0.157	-0.156
-431.661	-52.001	-0.299	0.138
-430.646	-93.453	0.147	-0.040
-429.632	31.180	0.072	0.061
-428.617	150.892	-0.267	-0.360
-427.603	-110.468	-0.243	0.050
-426.588	-69.633	0.185	0.070
-425.573	-1.065	-0.131	0.092
-424.559	-126.163	-0.330	-0.049
-423.544	-127.684	0.068	0.010
-422.530	-47.452	0.122	0.059
-421.515	-200.000	-0.005	0.092
-420.500	379.172	-0.090	-0.183
-419.486	154.331	-0.137	0.187
-418.471	-85.146	-0.029	0.009
-417.457	-49.652	-0.018	-0.009
-416.442	-166.841	0.292	0.012
-415.428	-52.237	-0.176	-0.081
-414.413	303.524	0.118	0.218
-413.398	-32.397	-0.302	0.167
-412.384	-200.000	0.032	0.314
-411.369	-200.000	0.001	0.199
-410.355	-89.464	-0.275	0.080
-409.340	122.517	0.165	0.204
-408.325	-131.026	0.134	-0.018
-407.311	-55.983	-0.155	0.069
-406.296	-111.038	0.386	-0.079
-405.282	800.000	0.038	0.112
-404.267	-200.000	0.057	0.313
-403.252	-94.484	0.185	0.050
-402.238	304.259	0.076	0.139
-401.223	-156.888	0.306	-0.019
-400.209	35.105	-0.230	0.200
-399.194	228.493	-0.141	-0.228
-398.179	95.158	0.151	-0.170
-397.165	800.000	0.109	-0.326
-396.150	800.000	-0.093	0.337
-395.136	-81.821	-0.222	-0.072
-394.121	525.220	0.071	0.165
-393.106	-64.372	0.138	0.055
-392.092	65.173	0.229	-0.229
-391.077	16.984	-0.078	-0.062
-390.063	-24.936	0.133	0.078
-389.048	800.000	-0.100	0.314
-388.033	-29.898	-0.156	-0.088
-387.019	-200.000	-0.037	-0.212
-386.004	-130.491	-0.249	0.033
-384.990	-101.569	-0.179	0.043
-383.975	-66.906	-0.219	0.086
-382.960	-106.210	0.109	0.024
-381.946	8.790	-0.248	0.186
-380.931	-42.999	-0.305	-0.153
-379.917	336.035	-0.064	-0.124
-378.902	-110.781	-0.475	0.097
-377.888	-200.000	-0.021	0.275
-376.873	203.694	0.149	0.229
-375.858	-90.879	0.320	-0.091
-374.844	-103.073	-0.104	0.024
-373.829	-148.946	0.408	0.033
-372.815	-80.184	-0.257	-0.085
-371.800	-200.000	-0.022	0.415
-370.785	211.467	-0.134	-0.208
-369.771	588.528	-0.090	-0.219
-368.756	51.242	-0.087	0.081
-367.742	-97.292	0.234	-0.061
-366.727	276.240	-0.104	-0.184
-365.712	36.066	0.238	-0.207
-364.698	776.354	0.036	0.099
-363.683	-97.014	0.104	0.027
-362.669	-200.000	-0.051	0.313
-361.654	-119.302	0.457	-0.079
-360.639	27.643	0.266	-0.221
-359.625	718.918	-0.031	-0.081
-358.610	-16.907	0.288	-0.180
-357.596	-127.361	0.097	0.014
-356.581	160.612	-0.037	0.052
-355.566	88.291	-0.043	0.048
-354.552	-200.000	0.074	-0.322
-353.537	-2.409	0.113	-0.078
-352.523	-200.000	-0.031	0.280
-351.508	-145.084	-0.107	-0.010
-350.493	86.016	0.447	-0.487
-349.479	-200.000	0.014	-0.266
-348.464	-200.000	-0.021	-0.119
-347.450	41.920	-0.164	-0.147
-346.435	-132.130	0.140	-0.018
-345.420	272.975	0.091	0.159
-344.406	410.146	-0.056	0.117
-343.391	12.502	-0.310	-0.237
-342.377	800.000	0.092	0.312
-341.362	-200.000	-0.037	0.181
-340.348	800.000	0.041	0.135
-339.333	-22.715	-0.184	0.110
-338.318	67.500	0.192	-0.194
-337.304	777.333	-0.066	0.178
-336.289	3.816	-0.118	-0.085
-335.275	-54.815	0.099	-0.044
-334.260	-78.532	0.341	0.115
-333.245	-120.450	-0.274	0.046
-332.231	-137.412	0.139	0.016
-331.216	710.393	0.031	-0.080
-330.202	-115.248	-0.089	-0.017
-329.187	157.609	0.125	-0.171
-328.172	247.417	0.081	0.135
-327.158	800.000	-0.197	0.557
-326.143	-165.176	0.144	-0.006
-325.129	110.439	-0.092	-0.109
-324.114	800.000	-0.119	0.330
-323.099	-200.000	0.035	-0.248
-322.085	19.300	-0.047	-0.037
-321.070	197.943	-0.059	-0.090
-320.056	800.000	0.107	-0.324
-319.041	800.000	-0.080	-0.221
-318.026	409.527	-0.095	-0.200
-317.012	-120.834	-0.077	0.013
-315.997	66.626	0.090	0.091
-314.983	-164.534	0.401	0.018
-313.968	415.753	-0.103	-0.216
-312.953	587.302	-0.126	0.308
-311.939	48.852	0.045	-0.042
-310.924	-18.668	0.130	-0.080
-309.910	66.693	-0.186	-0.187
-308.895	142.871	-0.096	-0.126
-307.880	-121.088	0.160	0.027
-306.866	-200.000	0.018	0.116
-305.851	800.000	0.071	-0.248
-304.837	370.378	-0.092	0.183
-303.822	5.065	-0.281	0.204
-302.807	258.329	-0.027	-0.046
-301.793	37.438	-0.073	-0.064
-300.778	-15.375	-0.188	0.119
-299.764	-52.386	-0.116	-0.053
-298.749	6.798	0.224	0.165
-297.735	130.877	0.117	0.149
-296.720	-153.863	-0.140	-0.009
-295.705	37.037	-0.323	0.282
-294.691	146.218	0.221	0.293
-293.676	69.869	0.185	-0.188
-292.662	131.507	0.090	-0.114
-291.647	358.705	0.008	-0.016
-290.632	87.146	0.099	-0.108
-289.618	800.000	-0.078	0.239
-288.603	660.952	0.092	0.233
-287.589	-200.000	-0.013	0.097
-286.574	-25.298	0.104	0.061
-285.559	212.577	0.189	0.295
-284.545	-92.001	-0.150	-0.042
-283.530	119.759	0.037	0.045
-282.516	800.000	-0.086	-0.235
-281.501	252.870	-0.243	-0.409
-280.486	-200.000	0.030	0.300
-279.472	-51.640	-0.168	-0.077
-278.457	-200.000	0.034	-0.213
-277.443	189.061	0.151	0.224
-276.428	-36.638	0.268	0.142
-275.413	-200.000	-0.005	0.194
-274.399	105.646	-0.182	-0.212
-273.384	-35.424	0.223	0.120
-272.370	-200.000	-0.038	0.379
-271.355	-200.000	0.007	0.109
-270.340	-86.400	0.062	-0.019
-269.326	71.796	0.254	-0.260
-268.311	-7.340	-0.139	-0.093
-267.297	23.967	-0.063	0.051
-266.282	545.010	-0.097	-0.229
-265.267	-57.613	0.164	0.071
-264.253	-200.000	0.077	0.365
-263.238	59.413	0.258	0.251
-262.224	800.000	-0.035	0.128
-261.209	176.305	0.084	-0.121
-260.195	-200.000	-0.051	0.260
-259.180	256.396	0.154	0.261
-258.165	261.163	-0.046	0.078
-257.151	-200.000	0.045	0.295
-256.136	145.195	0.140	-0.185
-255.122	106.801	0.173	-0.203
-254.107	800.000	-0.088	-0.365
-253.092	-200.000	0.020	-0.089
-252.078	17.222	0.035	0.027
-251.063	-27.893	-0.421	-0.240
-250.049	-184.071	0.247	0.004
-249.034	800.000	-0.072	0.246
-248.019	-200.000	0.001	-0.064
-247.005	-200.000	0.008	-0.184
-245.990	-20.129	-0.242	0.147
-244.976	-116.445	0.215	0.039
-243.961	194.970	0.206	0.308
-242.946	-96.728	-0.343	-0.089
-241.932	-84.327	0.091	0.028
-240.917	-41.160	-0.162	0.082
-239.903	-200.000	-0.022	-0.104
-238.888	66.649	-0.126	0.126
-237.873	-200.000	-0.029	0.417
-236.859	290.194	-0.104	-0.186
-235.844	15.580	-0.037	0.029
-234.830	800.000	0.041	0.142
-233.815	-122.934	0.148	-0.024
-232.800	501.616	0.046	0.104
-231.786	270.470	0.090	-0.155
-230.771	-67.816	-0.239	0.092
-229.757	-152.992	0.277	-0.019
-228.742	29.821	0.377	0.316
-227.727	800.000	0.081	-0.267
-226.713	149.832	-0.173	-0.231
-225.698	53.707	-0.314	0.297
-224.684	-200.000	-0.020	0.211
-223.669	-11.050	0.146	0.095
-222.655	-81.003	0.409	-0.133
-221.640	-98.245	0.182	-0.046
-220.625	800.000	-0.060	0.256
-219.611	-92.011	0.220	0.061
-218.596	542.408	-0.132	0.310
-217.582	-71.517	0.214	0.079
-216.567	-200.000	0.004	-0.136
-215.552	-79.142	-0.200	0.067
-214.538	314.771	0.078	0.144
-213.523	-62.501	0.220	0.090
-212.509	59.771	-0.235	0.229
-211.494	132.607	-0.070	0.089
-210.479	-129.891	-0.304	0.041
-209.465	202.751	0.179	-0.272
-208.450	48.799	-0.095	0.088
-207.436	-86.433	-0.015	0.005
-206.421	-200.000	-0.065	-0.302
-205.406	20.066	-0.289	-0.229
-204.392	149.547	0.088	-0.118
-203.377	-95.059	-0.280	0.074
-202.363	81.344	0.113	0.120
-201.348	-132.709	0.274	0.035
-200.333	216.965	-0.084	0.132
-199.319	30.551	0.117	0.099
-198.304	-80.442	-0.349	-0.115
-197.290	160.923	0.140	-0.193
-196.275	-54.301	-0.181	0.081
-195.260	102.837	0.031	0.036
-194.246	597.059	0.055	-0.133
-193.231	-44.196	0.059	-0.029
-192.217	28.101	0.414	0.344
-191.202	51.369	0.212	0.198
-190.187	-35.829	-0.177	0.094
-189.173	35.436	0.207	0.179
-188.158	-75.863	-0.129	0.045
-187.144	-26.838	0.164	-0.094
-186.129	466.464	-0.069	0.152
-185.114	184.061	0.017	-0.025
-184.100	217.068	0.156	0.244
-183.085	123.073	0.063	0.078
-182.071	-55.211	-0.203	0.090
-181.056	-146.637	0.034	0.003
-180.042	800.000	-0.065	-0.213
-179.027	516.273	-0.113	-0.260
-178.012	122.518	-0.118	-0.145
-176.998	652.481	-0.192	-0.484
-175.983	-51.093	-0.230	-0.106
-174.969	110.763	0.163	0.193
-173.954	-84.929	-0.033	-0.010
-172.939	21.438	-0.359	-0.287
-171.925	-200.000	-0.039	0.207
-170.910	44.085	-0.056	0.050
-169.896	22.624	0.089	-0.071
-168.881	13.692	-0.093	-0.071
-167.866	767.309	-0.179	-0.478
-166.852	-91.802	0.146	-0.041
-165.837	-111.357	-0.105	0.021
-164.823	-99.241	-0.206	0.051
-163.808	800.000	0.023	-0.099
-162.793	-104.939	-0.199	-0.045
-161.779	800.000	0.120	-0.332
-160.764	34.600	-0.045	0.039
-159.750	-12.961	-0.226	-0.144
-158.735	-89.978	0.117	-0.034
-157.720	181.864	0.086	0.124
-156.706	-200.000	-0.037	0.210
-155.691	85.452	-0.191	0.206
-154.677	332.081	0.136	0.258
-153.662	-89.121	0.106	-0.031
-152.647	79.590	-0.107	0.113
-151.633	800.000	0.160	0.545
-150.618	-200.000	-0.024	0.265
-149.604	800.000	-0.052	-0.192
-148.589	-137.291	0.147	-0.016
-147.574	-200.000	0.027	-0.216
-146.560	-200.000	-0.018	-0.233
-145.545	-133.919	0.096	0.012
-144.531	18.891	-0.009	0.007
-143.516	-200.000	-0.012	0.273
-142.502	18.936	0.091	0.072
-141.487	135.254	0.175	-0.223
-140.472	459.380	-0.140	-0.305
-139.458	-12.867	-0.276	0.176
-138.443	83.851	-0.365	-0.391
-137.429	800.000	-0.028	0.109
-136.414	44.117	-0.069	0.062
-135.399	-200.000	-0.001	-0.203
-134.385	22.697	0.157	-0.126
-133.370	-112.176	-0.322	0.064
-132.356	408.667	-0.078	-0.163
-131.341	-117.626	0.313	-0.055
-130.326	-182.942	-0.257	0.005
-129.312	96.114	0.008	0.009
-128.297	28.031	0.196	0.162
-127.283	214.514	0.100	-0.155
-126.268	64.540	0.119	-0.118
-125.253	-72.081	-0.178	-0.065
-124.239	-80.056	-0.331	-0.109
-123.224	-111.670	0.074	-0.015
-122.210	-200.000	0.026	0.173
-121.195	56.741	0.112	-0.107
-120.180	-27.109	0.098	-0.056
-119.166	-29.023	-0.195	-0.110
-118.151	230.626	0.094	-0.151
-117.137	40.984	-0.215	0.190
-116.122	363.052	-0.126	0.249
-115.107	-200.000	-0.048	-0.221
-114.093	36.446	0.180	-0.156
-113.078	-0.235	0.258	-0.180
-112.064	28.196	-0.142	0.117
-111.049	5.179	-0.098	-0.070
-110.034	197.183	0.127	-0.190
-109.020	-200.000	0.011	-0.265
-108.005	105.353	0.137	-0.159
-106.991	-200.000	0.013	-0.095
-105.976	21.723	-0.401	0.320
-104.962	92.952	-0.232	0.257
-103.947	-136.834	0.264	-0.030
-102.932	-12.563	0.145	0.092
-101.918	-107.127	0.138	0.030
-100.903	67.203	-0.229	0.229
-99.889	-189.562	-0.283	-0.003
-98.874	139.735	-0.197	0.254
-97.859	-200.000	-0.013	-0.077
-96.845	-78.875	-0.220	0.074
-95.830	-18.383	0.115	0.071
-94.816	175.698	0.083	0.118
-93.801	86.677	0.123	-0.133
-92.786	190.216	0.103	0.152
-91.772	-8.589	0.271	0.178
-90.757	-200.000	-0.002	-0.012
-89.743	-82.154	-0.165	0.053
-88.728	45.917	-0.064	-0.058
-87.713	245.502	-0.016	-0.027
-86.699	-112.852	0.411	0.080
-85.684	123.656	0.203	0.249
-84.670	-103.402	0.379	0.087
-83.655	-200.000	0.002	0.016
-82.640	-86.589	0.336	0.101
-81.626	122.076	0.051	0.063
-80.611	564.222	-0.031	0.074
-79.597	-66.209	-0.051	0.020
-78.582	364.319	0.031	0.060
-77.567	-92.845	0.165	0.045
-76.553	223.200	-0.162	0.255
-75.538	75.657	-0.182	-0.188
-74.524	56.652	-0.233	0.222
-73.509	-153.125	0.256	0.018
-72.494	800.000	-0.054	-0.163
-71.480	-68.699	-0.239	-0.091
-70.465	800.000	-0.124	0.371
-69.451	-70.322	-0.184	0.068
-68.436	-130.968	0.382	0.050
-67.422	310.775	0.037	0.068
-66.407	-15.397	0.139	-0.087
-65.392	4.667	0.242	0.174
-64.378	-200.000	0.029	-0.399
-63.363	62.543	-0.196	0.192
-62.349	48.783	-0.098	-0.090
-61.334	31.348	-1.078	-0.906
-60.319	140.424	0.529	0.684
-59.305	800.000	-0.340	-1.049
-58.290	487.237	0.688	1.536
-57.276	800.000	0.497	1.378
-56.261	-200.000	116.541	656.597
-55.246	520.157	1537.625	3526.415
-54.232	175.456	2709.457	3842.495
-53.217	107.775	2160.060	2516.673
-52.203	38.534	1594.942	1391.257
-51.188	30.012	1337.898	1115.922
-50.173	27.170	1299.818	1067.452
-49.159	54.655	1358.059	1280.954
-48.144	52.829	1370.988	1282.176
-47.130	30.320	1325.984	1107.643
-46.115	26.918	1307.912	1072.436
-45.100	26.596	1302.976	1066.453
-44.086	26.653	1299.751	1064.108
-43.071	26.519	1298.169	1061.982
-42.057	26.602	1295.799	1060.490
-41.042	26.648	1293.918	1059.172
-40.027	26.606	1292.648	1057.846
-39.013	26.694	1290.407	1056.484
-37.998	26.597	1289.190	1054.882
-36.984	26.680	1287.299	1053.773
-35.969	26.798	1284.895	1052.450
-34.954	26.751	1283.776	1051.217
-33.940	26.822	1282.454	1050.507
-32.925	26.783	1280.807	1048.889
-31.911	26.859	1279.714	1048.391
-30.896	26.849	1277.823	1046.742
-29.881	26.891	1276.748	1046.064
-28.867	26.756	1275.698	1044.384
-27.852	26.911	1273.888	1043.755
-26.838	26.931	1272.536	1042.721
-25.823	26.787	1271.497	1041.002
-24.809	26.743	1270.049	1039.523
-23.794	26.871	1268.090	1038.612
-22.779	26.856	1266.987	1037.578
-21.765	26.811	1265.784	1036.295
-20.750	26.970	1264.382	1036.012
-19.736	26.743	1263.594	1034.033
-18.721	26.686	1262.364	1032.660
-17.706	26.739	1261.388	1032.122
-16.692	26.816	1260.124	1031.486
-15.677	26.700	1259.391	1030.182
-14.663	26.668	1257.843	1028.695
-13.648	26.668	1256.722	1027.735
-12.633	26.590	1256.011	1026.675
-11.619	26.692	1254.932	1026.329
-10.604	26.681	1254.109	1025.552
-9.590	26.703	1253.491	1025.134
-8.575	26.727	1252.322	1024.270
-7.560	26.612	1251.816	1023.164
-6.546	26.619	1250.888	1022.408
-5.531	26.728	1249.379	1021.746
-4.517	26.767	1248.491	1021.198
-3.502	26.774	1247.541	1020.420
-2.487	26.709	1246.895	1019.487
-1.473	26.680	1242.315	1015.537
-0.458	25.246	1227.825	995.702
0.556	22.119	1211.526	959.725
1.571	18.475	1218.251	944.911
2.586	17.762	1232.846	952.170
3.600	17.332	1221.149	940.672
4.615	12.908	1149.659	862.439
5.629	6.174	1078.321	775.721
6.644	3.461	1060.709	749.805
7.659	3.265	1058.414	747.166
8.673	3.212	1057.287	746.047
9.688	3.372	1055.830	745.727
10.702	3.563	1053.797	745.149
11.717	7.242	1058.998	766.586
12.731	14.464	1069.429	809.242
13.746	18.920	1075.197	835.232
14.761	19.546	1074.865	837.939
15.775	18.716	1073.438	832.727
16.790	17.618	1071.626	825.928
17.804	16.938	1070.055	821.353
18.819	16.764	1068.962	819.601
19.834	16.523	1068.561	818.054
20.848	16.385	1067.290	816.340
21.863	16.194	1066.551	814.780
22.877	16.042	1065.802	813.404
23.892	16.033	1065.138	812.785
24.907	16.068	1064.240	812.196
25.921	16.096	1062.890	811.227
26.936	16.080	1061.676	810.152
27.950	16.047	1060.887	809.319
28.965	16.204	1059.027	808.581
29.980	16.264	1057.435	807.582
30.994	16.297	1056.722	807.122
32.009	16.225	1055.513	805.786
33.023	16.310	1054.507	805.352
34.038	16.253	1053.325	804.107
35.053	16.284	1052.229	803.345
36.067	16.012	1051.625	801.518
37.082	16.115	1050.860	801.352
38.096	16.273	1050.440	801.715
39.111	16.196	1049.753	800.755
40.126	16.155	1047.643	798.878
41.140	15.951	1046.539	797.003
42.155	15.793	1045.534	795.417
43.169	15.816	1044.632	794.770
44.184	15.887	1042.788	793.634
45.199	15.865	1042.051	792.895
46.213	15.886	1041.679	792.644
47.228	16.071	1040.681	792.683
48.242	16.069	1039.449	791.666
49.257	16.095	1038.519	791.007
50.271	16.171	1037.866	790.798
51.286	16.121	1037.040	789.865
52.301	16.180	1035.966	789.251
53.315	15.948	1034.937	787.315
54.330	16.027	1033.477	786.505
55.344	16.017	1032.357	785.535
56.359	16.023	1032.160	785.342
57.374	15.948	1031.288	784.263
58.388	15.887	1030.058	782.973
59.403	15.811	1029.106	781.824
60.417	15.868	1028.699	781.715
61.432	15.643	1028.065	780.117
62.447	15.825	1026.709	779.862
63.461	15.622	1026.302	778.546
64.476	15.701	1024.606	777.556
65.490	15.729	1024.377	777.443
66.505	15.638	1023.608	776.366
67.520	15.772	1022.568	776.129
68.534	15.704	1022.195	775.465
69.549	15.687	1021.421	774.729
70.563	15.711	1019.891	773.610
71.578	15.580	1019.443	772.602
72.593	15.449	1019.059	771.639
73.607	15.475	1018.477	771.248
74.622	15.559	1017.563	770.873
75.636	15.508	1016.783	769.979
76.651	15.571	1016.362	769.885
77.666	15.519	1015.524	768.944
78.680	15.514	1015.057	768.498
79.695	15.686	1014.188	768.558
80.709	15.774	1013.444	768.330
81.724	15.822	1013.267	768.345
82.739	15.936	1012.159	767.958
83.753	16.049	1011.438	767.857
84.768	16.145	1011.028	767.914
85.782	16.240	1010.294	767.720
86.797	16.236	1008.812	766.510
87.812	16.171	1007.681	765.287
88.826	16.201	1006.968	764.814
89.841	16.323	1006.070	764.615
90.855	16.353	1005.115	763.961
91.870	16.161	1004.812	762.792
92.884	16.312	1003.656	762.528
93.899	16.335	1002.552	761.727
94.914	16.433	1002.122	761.775
95.928	16.377	1001.267	760.805
96.943	16.260	1000.435	759.577
97.957	16.193	999.429	758.449
98.972	16.218	998.572	757.844
99.987	16.243	997.645	757.182
101.001	16.278	997.047	756.820
102.016	16.163	995.925	755.388
103.030	16.269	995.176	755.227
104.045	16.236	994.707	754.654
105.060	16.180	993.857	753.692
106.074	15.986	992.625	751.828
107.089	15.842	991.451	750.229
108.103	15.711	990.985	749.225
109.118	15.817	989.252	748.320
110.133	15.755	989.061	747.837
111.147	15.593	988.381	746.535
112.162	15.824	987.053	746.492
113.176	16.001	986.679	746.927
114.191	16.034	986.073	746.549
115.206	16.067	984.840	745.696
116.220	15.890	984.210	744.371
117.235	15.916	982.806	743.358
118.249	15.821	982.119	742.350
119.264	15.765	981.825	741.816
120.279	15.817	980.727	741.153
121.293	15.712	979.707	739.853
122.308	15.753	978.726	739.224
123.322	15.682	977.685	738.063
124.337	15.776	976.450	737.480
125.352	15.683	975.918	736.605
126.366	15.736	974.641	735.807
127.381	15.634	973.330	734.307
128.395	15.666	972.696	733.902
129.410	15.567	972.247	733.064
130.424	15.869	971.237	733.557
131.439	16.011	970.281	733.386
132.454	15.938	969.521	732.431
133.468	15.880	968.883	731.633
134.483	15.945	967.778	731.013
135.497	16.018	967.092	730.750
136.512	15.882	966.292	729.491
137.527	15.869	965.863	729.045
138.541	15.919	964.734	728.345
139.556	15.926	964.625	728.229
140.570	16.042	963.860	728.086
141.585	16.349	962.615	728.406
142.600	16.369	961.824	727.829
143.614	16.473	961.233	727.767
144.629	16.370	960.707	726.861
145.643	16.304	959.594	725.672
146.658	16.205	958.266	724.177
147.673	16.121	957.327	723.042
148.687	16.013	956.804	722.121
149.702	16.156	955.601	721.760
150.716	16.041	954.617	720.462
151.731	15.959	954.398	719.883
152.746	16.087	953.404	719.617
153.760	16.067	953.018	719.175
154.775	16.378	952.028	719.692
155.789	16.339	951.658	719.181
156.804	16.259	950.979	718.266
157.819	16.312	950.176	717.818
158.833	16.313	949.937	717.581
159.848	16.426	948.892	717.206
160.862	16.295	947.925	715.857
161.877	16.202	946.670	714.451
162.892	15.974	946.030	712.943
163.906	16.046	944.727	712.202
164.921	16.094	943.892	711.710
165.935	16.103	942.968	710.987
166.950	16.113	942.389	710.529
167.964	16.205	941.539	710.213
168.979	16.200	940.326	709.215
169.994	16.267	939.566	708.861
171.008	16.306	939.079	708.593
172.023	16.568	938.205	708.972
173.037	16.546	937.640	708.388
174.052	16.358	936.889	706.973
175.067	16.171	936.391	705.749
176.081	16.043	935.938	704.813
177.096	16.090	935.073	704.293
178.110	16.225	934.320	704.228
179.125	16.287	933.714	703.969
180.140	16.267	933.642	703.770
181.154	16.427	933.016	703.900
182.169	16.501	932.601	703.835
183.183	16.487	932.257	703.452
184.198	16.510	931.094	702.611
185.213	16.572	930.596	702.428
186.227	16.528	929.819	701.597
187.242	16.518	929.665	701.376
188.256	16.678	928.780	701.312
189.271	16.649	927.980	700.523
190.286	16.361	926.870	698.433
191.300	16.080	925.774	696.387
192.315	16.026	925.288	695.735
193.329	16.139	925.102	696.002
194.344	16.293	924.397	696.043
195.359	16.236	923.513	695.080
196.373	16.442	923.108	695.563
197.388	16.590	922.795	695.875
198.402	16.775	922.461	696.321
199.417	16.717	921.902	695.601
200.432	16.841	921.338	695.623
201.446	16.885	920.126	694.827
202.461	16.917	920.100	694.875
203.475	16.839	919.820	694.284
204.490	16.798	918.562	693.104
205.504	16.808	917.595	692.353
206.519	16.620	917.053	691.118
207.534	16.680	916.344	690.765
208.548	16.732	915.818	690.522
209.563	16.723	915.138	689.910
210.577	16.663	914.633	689.225
211.592	17.004	913.671	689.824
212.607	16.946	913.303	689.249
213.621	16.929	912.225	688.305
214.636	16.868	911.390	687.369
215.650	16.924	911.049	687.276
216.665	17.053	910.440	687.280
217.680	17.103	909.999	687.090
218.694	16.955	909.598	686.125
219.709	17.091	908.401	685.713
220.723	17.036	907.725	684.918
221.738	16.980	907.274	684.291
222.753	17.058	906.590	684.028
223.767	16.957	906.227	683.290
224.782	17.230	905.432	683.726
225.796	17.136	904.995	682.957
226.811	17.170	904.003	682.285
227.826	17.056	903.632	681.490
228.840	17.036	902.602	680.572
229.855	17.054	901.922	680.072
230.869	17.044	900.927	679.219
231.884	16.928	900.429	678.318
232.899	16.937	899.902	677.901
233.913	16.780	899.054	676.572
234.928	16.863	898.051	676.089
235.942	16.985	897.761	676.298
236.957	16.900	897.151	675.439
237.972	16.943	896.629	675.159
238.986	16.918	895.733	674.323
240.001	17.006	895.478	674.423
241.015	16.972	894.627	673.587
242.030	17.081	894.337	673.743
243.045	17.086	893.730	673.246
244.059	17.170	893.058	673.011
245.074	17.130	892.248	672.184
246.088	17.169	892.121	672.184
247.103	17.300	891.158	671.917
248.117	17.449	890.723	672.117
249.132	17.672	890.116	672.479
250.147	17.732	889.687	672.333
251.161	17.707	889.259	671.849
252.176	17.675	888.820	671.331
253.190	17.725	887.763	670.670
254.205	17.801	887.089	670.402
255.220	17.780	886.480	669.800
256.234	17.748	885.702	669.026
257.249	17.792	885.297	668.834
258.263	17.802	884.328	668.081
259.278	17.743	883.277	667.000
260.293	17.947	882.894	667.449
261.307	17.905	882.845	667.187
262.322	17.870	882.543	666.763
263.336	18.026	881.532	666.548
264.351	18.014	880.308	665.520
265.366	18.117	879.809	665.483
266.380	17.924	879.571	664.495
267.395	17.869	878.640	663.515
268.409	17.800	878.095	662.779
269.424	17.841	876.929	661.998
270.439	17.827	876.692	661.706
271.453	17.733	876.041	660.793
272.468	17.876	874.817	660.364
273.482	17.703	874.887	659.691
274.497	17.815	874.397	659.696
275.512	18.013	873.613	659.812
276.526	17.792	873.246	658.624
277.541	17.986	872.686	658.891
278.555	18.163	872.021	659.010
279.570	18.059	871.731	658.334
280.585	18.042	870.938	657.609
281.599	17.951	869.972	656.473
282.614	18.009	868.996	655.901
283.628	18.031	868.861	655.824
284.643	17.935	868.081	654.813
285.657	17.918	867.591	654.317
286.672	18.059	867.026	654.372
287.687	18.035	866.267	653.651
288.701	17.922	865.925	652.905
289.716	17.982	865.212	652.537
290.730	17.960	864.787	652.073
291.745	18.147	864.010	652.146
292.760	18.204	863.329	651.792
293.774	18.282	863.000	651.781
294.789	18.262	862.283	651.107
295.803	18.141	861.220	649.787
296.818	18.095	860.846	649.272
297.833	17.881	860.218	647.928
298.847	18.126	859.763	648.456
299.862	18.133	858.940	647.806
300.876	18.378	858.621	648.437
301.891	18.313	857.844	647.545
302.906	18.355	857.439	647.341
303.920	18.581	857.026	647.828
304.935	18.549	856.387	647.164
305.949	18.531	855.865	646.644
306.964	18.460	855.326	645.913
307.979	18.500	854.747	645.569
308.993	18.476	853.973	644.839
310.008	18.397	853.715	644.289
311.022	18.503	853.026	644.112
312.037	18.367	852.148	642.879
313.052	18.292	851.713	642.214
314.066	18.114	851.366	641.226
315.081	18.262	850.831	641.320
316.095	18.334	849.637	640.636
317.110	18.125	849.490	639.687
318.125	18.193	848.926	639.459
319.139	18.268	848.671	639.489
320.154	18.336	847.994	639.177
321.168	18.417	847.251	638.862
322.183	18.427	846.623	638.371
323.197	18.374	846.374	637.927
324.212	18.430	845.826	637.665
325.227	18.388	845.321	637.071
326.241	18.371	844.568	636.386
327.256	18.266	844.011	635.521
328.270	18.269	843.527	635.113
329.285	18.311	842.782	634.651
330.300	18.307	841.967	633.964
331.314	18.425	841.802	634.219
332.329	18.463	841.572	634.132
333.343	18.566	841.162	634.148
334.358	18.481	840.766	633.479
335.373	18.614	840.549	633.753
336.387	18.661	840.110	633.537
337.402	18.583	839.920	633.049
338.416	18.685	839.487	633.045
339.431	18.825	838.998	633.137
340.446	18.837	838.730	632.921
341.460	19.065	837.664	632.898
342.475	19.044	837.567	632.694
343.489	18.916	837.219	631.905
344.504	19.159	836.588	632.265
345.519	19.184	836.383	632.144
346.533	19.067	835.553	631.033
347.548	18.862	835.336	630.063
348.562	18.872	834.300	629.262
349.577	18.821	833.830	628.663
350.592	18.726	833.056	627.677
351.606	18.852	832.109	627.368
352.621	18.724	831.633	626.487
353.635	18.716	831.380	626.213
354.650	18.871	830.765	626.257
355.665	18.958	829.893	625.863
356.679	19.100	829.746	626.214
357.694	18.962	828.813	624.950
358.708	18.963	828.526	624.685
359.723	18.964	827.483	623.846
360.738	18.981	827.297	623.710
361.752	19.010	826.459	623.130
362.767	19.008	826.533	623.123
363.781	19.176	825.908	623.207
364.796	19.359	825.073	623.180
365.810	19.364	824.878	622.997
366.825	19.474	824.186	622.815
367.840	19.368	823.839	622.114
368.854	19.394	823.334	621.773
369.869	19.324	823.267	621.416
370.883	19.324	822.732	620.959
371.898	19.364	822.755	621.062
372.913	19.494	822.067	620.956
373.927	19.334	821.013	619.530
374.942	19.361	820.967	619.538
375.956	19.459	820.542	619.515
376.971	19.677	820.167	619.959
377.986	19.586	819.983	619.439
379.000	19.850	819.141	619.693
380.015	19.687	818.708	618.727
381.029	19.614	817.974	617.855
382.044	19.683	817.282	617.526
383.059	19.637	817.054	617.134
384.073	19.608	816.301	616.407
385.088	19.528	815.581	615.526
386.102	19.360	814.645	614.165
387.117	19.416	814.121	613.917
388.132	19.403	813.905	613.654
389.146	19.507	813.480	613.645
390.161	19.682	813.132	613.950
391.175	19.578	812.291	612.893
392.190	19.458	812.411	612.505
393.205	19.508	811.575	611.996
394.219	19.409	811.205	611.312
395.234	19.454	810.882	611.176
396.248	19.308	810.255	610.132
397.263	19.234	809.826	609.493
398.278	19.359	809.012	609.268
399.292	19.391	808.740	609.123
400.307	19.387	808.466	608.846
401.321	19.399	808.049	608.521
402.336	19.398	807.797	608.275
403.350	19.497	807.100	608.043
404.365	19.586	806.818	608.092
405.380	19.631	806.250	607.770
406.394	19.863	805.345	607.849
407.409	19.805	805.074	607.385
408.423	19.860	805.123	607.562
409.438	19.857	804.964	607.379
410.453	19.952	804.337	607.185
411.467	20.149	803.954	607.530
412.482	19.977	803.758	606.727
413.496	20.265	802.916	607.044
414.511	20.206	802.989	606.840
415.526	20.140	802.272	606.013
416.540	20.143	801.668	605.516
417.555	19.950	801.486	604.651
418.569	20.073	800.888	604.572
419.584	20.206	800.705	604.845
420.599	20.134	799.939	603.965
421.613	161.901	1371.333	1796.811
422.628	140.573	1454.579	1796.891
