DTS Sentinel unit serial number:	SN413079Multiplexer serial number:	ORYXHardware model number:	OX4-SRSoftware version number:	ORYX F/W v4.00 Oryx Data Collector v3.7.2.0data status	okinstallation	princeton_trtdifferential loss correction	single-endedforward channel	channel 1reverse channel	N/Adate	2019/09/11time	21:56:11forward acquisition time	60.00reverse acquisition time	0.00gamma	496.2192k internal	0.2312k external	0.2312temperature offset calibration	1.0056default loss term (dB/km)	0.3790temperature slope calibration	1.0000multiplexer offset coefficient	1.0000multiplexer slope coefficient	1.0000fibre end	0.00T internal ref (°C)	35.59T ext. ref 1 (°C)	1.79T ext. ref 2 (°C)	29.61length (m)	temperature (°C)	Stokes	anti-Stokes-747.200	128.119	-0.099	0.128
-746.185	327.615	-0.194	0.377
-745.171	-69.082	-0.260	0.102
-744.156	510.527	0.092	0.217
-743.142	5.099	-0.139	-0.104
-742.127	118.304	-0.261	0.326
-741.112	-200.000	-0.026	0.258
-740.098	800.000	0.099	0.310
-739.083	800.000	0.037	-0.106
-738.069	-200.000	-0.080	0.000
-737.054	800.000	0.020	-0.086
-736.039	206.098	-0.205	0.323
-735.025	-200.000	-0.033	0.443
-734.010	-190.315	-0.203	-0.002
-732.996	-200.000	0.054	-0.404
-731.981	-200.000	0.030	-0.251
-730.966	-200.000	0.016	0.221
-729.952	216.201	-0.255	0.410
-728.937	183.516	0.136	0.204
-727.923	-95.560	-0.287	-0.078
-726.908	-130.736	-0.169	-0.023
-725.894	-104.369	-0.229	0.054
-724.879	800.000	0.073	-0.293
-723.864	-59.757	-0.219	-0.095
-722.850	-200.000	0.006	-0.586
-721.835	-102.319	-0.274	-0.067
-720.821	-64.875	-0.259	-0.106
-719.806	-110.038	-0.489	0.104
-718.791	-102.496	-0.312	-0.076
-717.777	37.739	-0.410	-0.369
-716.762	-200.000	-0.012	0.419
-715.748	-135.092	-0.247	0.030
-714.733	800.000	0.070	0.225
-713.718	-200.000	0.028	0.246
-712.704	751.095	0.027	-0.073
-711.689	-96.219	0.156	-0.042
-710.675	-131.606	0.243	0.032
-709.660	37.632	0.164	-0.147
-708.645	340.060	0.136	-0.268
-707.631	-26.865	-0.208	0.123
-706.616	-59.902	0.243	0.105
-705.602	-15.072	0.134	0.087
-704.587	-69.473	-0.253	-0.098
-703.572	-88.861	-0.472	-0.142
-702.558	-143.840	-0.335	-0.032
-701.543	380.571	0.125	-0.259
-700.529	800.000	-0.060	-0.195
-699.514	-73.810	-0.254	0.093
-698.499	112.379	-0.119	-0.146
-697.485	-37.053	-0.229	0.124
-696.470	616.539	-0.040	-0.102
-695.456	321.593	-0.035	-0.068
-694.441	-64.923	-0.196	0.080
-693.426	-200.000	0.050	-0.555
-692.412	-200.000	-0.000	-0.144
-691.397	-80.266	0.058	0.020
-690.383	188.287	0.258	-0.390
-689.368	158.892	0.190	-0.267
-688.354	210.273	0.101	0.161
-687.339	-93.433	-0.265	0.074
-686.324	40.125	-0.165	-0.150
-685.310	800.000	-0.029	0.085
-684.295	-56.474	-0.041	0.018
-683.281	-135.256	0.050	0.006
-682.266	800.000	-0.071	-0.285
-681.251	-154.139	0.026	-0.002
-680.237	-169.007	0.102	0.004
-679.222	-157.269	0.033	0.002
-678.208	302.815	0.112	-0.210
-677.193	-56.066	-0.259	0.117
-676.178	348.233	0.162	0.324
-675.164	-45.605	-0.449	0.225
-674.149	396.627	-0.147	-0.312
-673.135	287.505	0.020	-0.037
-672.120	-195.302	0.060	0.000
-671.105	65.485	-0.229	0.235
-670.091	800.000	-0.025	-0.075
-669.076	-52.564	0.083	0.039
-668.062	-143.701	0.237	0.023
-667.047	-37.869	-0.160	0.086
-666.032	-200.000	0.015	0.451
-665.018	-147.826	-0.381	0.032
-664.003	229.120	-0.048	-0.079
-662.989	800.000	-0.032	0.133
-661.974	739.313	0.091	-0.247
-660.959	134.705	-0.083	-0.109
-659.945	-3.852	-0.082	-0.058
-658.930	-136.130	-0.260	-0.031
-657.916	-57.779	-0.295	0.131
-656.901	-42.032	-0.154	-0.080
-655.886	15.769	-0.429	0.342
-654.872	-137.368	0.357	-0.041
-653.857	123.082	0.231	0.292
-652.843	-55.416	-0.170	-0.077
-651.828	327.088	-0.051	-0.099
-650.814	-200.000	0.008	0.301
-649.799	-1.642	-0.311	-0.221
-648.784	-39.407	-0.080	-0.043
-647.770	-200.000	-0.007	0.081
-646.755	-200.000	-0.009	-0.041
-645.741	-16.125	0.156	0.100
-644.726	-134.562	0.130	-0.016
-643.711	-190.192	-0.266	0.003
-642.697	-39.757	-0.312	-0.165
-641.682	-74.266	0.211	0.077
-640.668	-200.000	-0.017	-0.107
-639.653	800.000	0.067	-0.235
-638.638	244.020	0.136	0.231
-637.624	70.379	-0.299	0.312
-636.609	667.304	-0.080	-0.210
-635.595	65.828	-0.332	-0.340
-634.580	800.000	-0.044	0.158
-633.565	-121.581	0.247	-0.041
-632.551	-9.756	-0.057	-0.038
-631.536	800.000	0.032	0.141
-630.522	-103.094	-0.165	-0.039
-629.507	-89.469	0.214	-0.063
-628.492	800.000	0.053	0.148
-627.478	-5.562	-0.455	-0.315
-626.463	384.943	0.125	-0.261
-625.449	274.901	-0.124	0.221
-624.434	-57.362	0.112	0.050
-623.419	85.074	-0.115	-0.127
-622.405	683.419	0.084	-0.222
-621.390	-115.208	-0.152	-0.029
-620.376	-182.007	-0.359	-0.007
-619.361	-167.630	-0.078	0.003
-618.346	-91.388	-0.136	-0.039
-617.332	301.626	-0.115	-0.215
-616.317	213.102	0.250	0.399
-615.303	-98.116	-0.114	0.030
-614.288	-21.968	-0.198	0.122
-613.273	-200.000	0.006	0.071
-612.259	-200.000	-0.003	0.033
-611.244	-20.513	-0.344	-0.213
-610.230	-60.433	0.307	-0.132
-609.215	800.000	-0.085	-0.242
-608.201	288.004	-0.203	-0.371
-607.186	207.728	-0.115	-0.182
-606.171	6.370	-0.020	0.015
-605.157	142.887	0.191	0.256
-604.142	-58.206	0.121	-0.053
-603.128	-47.963	-0.088	0.043
-602.113	63.369	-0.055	-0.055
-601.098	-92.028	-0.078	-0.022
-600.084	-200.000	0.009	0.407
-599.069	-113.314	0.116	-0.023
-598.055	-108.651	0.263	0.057
-597.040	759.584	0.155	-0.424
-596.025	-11.018	0.231	-0.154
-595.011	28.103	0.352	0.300
-593.996	4.123	0.242	-0.179
-592.982	-88.756	0.210	0.063
-591.967	-65.251	-0.164	0.067
-590.952	-73.540	0.283	0.104
-589.938	249.695	0.138	0.235
-588.923	116.914	0.210	-0.260
-587.909	800.000	-0.099	0.328
-586.894	538.870	-0.070	-0.168
-585.879	-123.229	-0.266	0.043
-584.865	116.458	0.284	-0.351
-583.850	-200.000	-0.028	-0.264
-582.836	36.894	0.190	0.169
-581.821	432.288	0.037	0.081
-580.806	-12.784	-0.053	-0.035
-579.792	-100.701	-0.484	0.120
-578.777	313.324	0.113	-0.214
-577.763	-200.000	-0.019	-0.102
-576.748	68.573	-0.312	0.322
-575.733	-200.000	-0.003	0.203
-574.719	549.942	-0.124	-0.299
-573.704	125.315	-0.161	-0.205
-572.690	56.237	-0.051	0.049
-571.675	800.000	-0.097	0.331
-570.661	800.000	0.083	0.316
-569.646	66.621	-0.125	0.128
-568.631	-113.323	-0.146	0.029
-567.617	167.510	0.083	-0.118
-566.602	-56.434	0.255	0.114
-565.588	506.049	-0.037	0.086
-564.573	-123.940	0.082	0.013
-563.558	-200.000	-0.004	-0.285
-562.544	-116.593	-0.111	0.020
-561.529	75.667	0.217	0.231
-560.515	-115.051	0.172	0.033
-559.500	-90.797	0.115	0.033
-558.485	-74.719	-0.134	-0.049
-557.471	-119.932	0.033	0.006
-556.456	-54.927	0.199	-0.090
-555.442	-200.000	-0.021	0.213
-554.427	26.399	0.072	-0.061
-553.412	-109.497	-0.617	-0.131
-552.398	-16.855	-0.204	-0.130
-551.383	-69.978	-0.288	-0.111
-550.369	-200.000	0.008	0.049
-549.354	781.644	-0.047	0.129
-548.339	28.541	-0.102	-0.087
-547.325	-106.904	-0.074	0.016
-546.310	611.148	0.049	-0.123
-545.296	271.123	-0.086	0.153
-544.281	-86.431	0.162	-0.050
-543.266	-134.106	0.345	-0.043
-542.252	349.637	-0.167	0.333
-541.237	-143.763	-0.469	0.045
-540.223	-45.190	-0.430	-0.215
-539.208	-200.000	0.008	-0.162
-538.193	-71.376	-0.348	0.131
-537.179	-125.166	0.094	0.015
-536.164	186.507	0.048	0.072
-535.150	90.115	-0.174	-0.196
-534.135	-153.059	-0.124	-0.009
-533.121	37.233	0.274	0.244
-532.106	-179.343	-0.141	0.003
-531.091	-200.000	-0.022	0.368
-530.077	-200.000	0.007	0.177
-529.062	800.000	0.042	0.161
-528.048	800.000	-0.125	0.359
-527.033	-85.426	-0.133	0.042
-526.018	-78.695	0.190	-0.065
-525.004	-23.226	-0.242	0.146
-523.989	18.579	-0.054	-0.044
-522.975	-200.000	-0.015	-0.248
-521.960	-35.372	0.297	0.163
-520.945	-118.807	0.077	-0.014
-519.931	800.000	-0.151	-0.454
-518.916	-200.000	0.002	0.035
-517.902	-67.549	-0.285	0.113
-516.887	11.737	0.141	-0.109
-515.872	-26.861	-0.119	-0.070
-514.858	-88.751	-0.128	0.038
-513.843	-200.000	0.001	-0.393
-512.829	800.000	0.128	0.451
-511.814	351.252	-0.123	0.244
-510.799	800.000	0.057	-0.217
-509.785	-200.000	0.043	0.215
-508.770	800.000	0.038	0.106
-507.756	-98.251	-0.405	0.105
-506.741	-200.000	-0.048	0.219
-505.726	112.001	-0.247	0.300
-504.712	-142.488	0.142	-0.014
-503.697	96.499	0.198	-0.227
-502.683	690.769	0.055	0.144
-501.668	133.301	-0.083	-0.108
-500.653	-116.321	0.185	-0.034
-499.639	-72.058	0.161	-0.060
-498.624	800.000	-0.041	0.128
-497.610	800.000	0.115	-0.467
-496.595	422.193	0.195	-0.421
-495.581	-66.822	0.155	-0.062
-494.566	-66.607	0.024	0.009
-493.551	71.854	0.074	0.077
-492.537	800.000	-0.034	0.120
-491.522	44.996	0.266	-0.246
-490.508	383.646	0.109	0.225
-489.493	-38.123	0.105	0.056
-488.478	-108.218	-0.214	0.046
-487.464	116.847	-0.206	-0.254
-486.449	46.401	0.205	-0.191
-485.435	-1.677	0.081	-0.057
-484.420	305.358	-0.028	-0.053
-483.405	81.936	0.210	0.229
-482.391	-165.823	0.023	0.001
-481.376	800.000	-0.051	0.171
-480.362	476.424	0.139	-0.315
-479.347	219.721	-0.096	0.155
-478.332	-125.639	-0.328	-0.050
-477.318	800.000	0.077	0.328
-476.303	130.108	0.234	0.301
-475.289	-200.000	0.019	0.151
-474.274	12.626	0.196	-0.152
-473.259	-200.000	-0.345	0.000
-472.245	-188.795	-0.022	0.000
-471.230	-90.663	-0.089	0.026
-470.216	35.908	0.106	-0.094
-469.201	-39.676	-0.275	-0.144
-468.186	-200.000	0.017	0.099
-467.172	-107.900	0.240	-0.052
-466.157	-200.000	-0.019	-0.296
-465.143	-73.145	0.023	0.009
-464.128	39.521	0.070	0.063
-463.113	28.439	-0.253	0.214
-462.099	-33.478	-0.201	0.111
-461.084	-61.198	0.230	-0.097
-460.070	-76.130	-0.355	0.126
-459.055	426.969	0.085	-0.183
-458.040	-51.189	-0.149	0.070
-457.026	-108.527	-0.123	0.026
-456.011	-88.684	0.111	-0.033
-454.997	-40.136	0.139	0.073
-453.982	-84.980	-0.122	-0.038
-452.968	-53.300	0.074	0.034
-451.953	-200.000	0.026	0.120
-450.938	-91.812	0.403	-0.115
-449.924	112.469	-0.039	-0.048
-448.909	800.000	0.044	0.147
-447.895	-65.340	-0.164	-0.066
-446.880	800.000	0.043	0.179
-445.865	-200.000	-0.022	-0.174
-444.851	195.448	-0.104	0.159
-443.836	800.000	-0.089	0.385
-442.822	53.269	0.022	-0.021
-441.807	-200.000	-0.003	-0.066
-440.792	800.000	-0.120	-0.359
-439.778	-111.649	-0.053	0.011
-438.763	-138.074	-0.301	0.034
-437.749	520.097	0.114	-0.267
-436.734	800.000	0.069	0.267
-435.719	-114.880	0.271	0.052
-434.705	59.581	-0.388	0.384
-433.690	800.000	-0.047	0.159
-432.676	-177.604	0.146	0.004
-431.661	-9.769	0.097	-0.065
-430.646	-24.423	-0.213	-0.127
-429.632	461.093	-0.129	-0.287
-428.617	145.077	0.056	0.074
-427.603	-200.000	0.018	0.158
-426.588	220.388	-0.121	-0.194
-425.573	-200.000	0.020	0.240
-424.559	-154.570	-0.231	-0.015
-423.544	800.000	-0.073	0.261
-422.530	717.459	0.173	0.459
-421.515	-43.508	0.159	0.081
-420.500	-67.758	0.135	-0.053
-419.486	-15.272	0.320	-0.205
-418.471	-200.000	0.047	0.324
-417.457	14.540	-0.095	0.075
-416.442	-61.110	-0.129	-0.054
-415.428	-200.000	0.002	-0.242
-414.413	166.335	-0.066	0.093
-413.398	37.126	0.114	0.101
-412.384	-46.482	-0.228	0.112
-411.369	-139.720	-0.187	0.020
-410.355	-69.386	0.261	0.100
-409.340	8.877	-0.302	0.228
-408.325	-130.781	0.190	0.026
-407.311	11.426	-0.330	0.253
-406.296	-88.971	0.157	-0.047
-405.282	-200.000	0.042	-0.305
-404.267	-109.082	0.180	0.038
-403.252	242.428	0.151	0.253
-402.238	88.018	0.208	0.231
-401.223	-78.622	0.265	0.091
-400.209	-31.799	-0.379	-0.213
-399.194	800.000	0.123	-0.406
-398.179	-61.812	-0.175	0.074
-397.165	-200.000	0.033	0.189
-396.150	-146.654	0.158	0.014
-395.136	800.000	-0.065	0.242
-394.121	-36.313	-0.422	0.228
-393.106	734.974	-0.057	-0.154
-392.092	319.586	0.020	0.037
-391.077	-116.096	0.222	0.041
-390.063	-122.543	0.333	0.054
-389.048	800.000	0.029	-0.109
-388.033	-101.623	0.251	-0.061
-387.019	366.956	-0.086	0.173
-386.004	-121.339	0.231	0.038
-384.990	-5.036	-0.069	-0.048
-383.975	-106.988	0.366	0.081
-382.960	8.824	0.245	0.185
-381.946	-200.000	0.047	-0.315
-380.931	-200.000	-0.072	-0.411
-379.917	513.901	0.039	0.090
-378.902	79.521	-0.289	-0.310
-377.888	301.001	0.118	0.219
-376.873	106.027	-0.111	-0.131
-375.858	4.254	-0.223	0.163
-374.844	58.083	0.024	0.024
-373.829	-180.795	0.197	0.004
-372.815	-38.455	-0.187	0.099
-371.800	800.000	0.062	0.250
-370.785	-128.979	0.413	0.058
-369.771	214.165	-0.036	0.058
-368.756	528.837	0.068	-0.160
-367.742	-73.133	0.218	0.080
-366.727	-200.000	-0.006	-0.242
-365.712	-45.118	-0.159	-0.079
-364.698	71.746	0.225	-0.234
-363.683	-87.565	-0.104	-0.031
-362.669	370.585	0.014	0.029
-361.654	278.314	0.278	0.495
-360.639	800.000	-0.048	0.138
-359.625	335.462	-0.041	0.080
-358.610	15.250	-0.099	0.077
-357.596	-119.115	-0.144	-0.025
-356.581	-200.000	-0.036	0.165
-355.566	-39.994	-0.125	-0.065
-354.552	800.000	0.021	0.063
-353.537	56.894	-0.152	0.148
-352.523	327.961	0.097	-0.187
-351.508	-47.585	0.189	-0.091
-350.493	-200.000	-0.026	0.273
-349.479	291.748	-0.248	0.451
-348.464	386.717	0.131	-0.270
-347.450	-54.852	-0.341	-0.154
-346.435	-173.748	-0.069	0.002
-345.420	-60.071	-0.221	0.094
-344.406	-16.499	0.185	-0.117
-343.391	373.568	0.124	-0.251
-342.377	-57.730	-0.263	0.115
-341.362	125.206	-0.069	0.087
-340.348	75.350	0.423	0.446
-339.333	-131.607	-0.362	0.048
-338.318	268.389	0.125	0.219
-337.304	48.056	0.104	-0.097
-336.289	-148.761	-0.484	0.039
-335.275	800.000	0.080	0.265
-334.260	17.120	0.052	0.041
-333.245	-97.595	0.276	-0.071
-332.231	-123.614	-0.333	0.053
-331.216	640.295	0.050	0.126
-330.202	-157.930	0.088	0.005
-329.187	-182.794	-0.206	-0.004
-328.172	136.963	0.099	0.129
-327.158	-200.000	0.006	-0.032
-326.143	-10.702	0.135	-0.089
-325.129	-114.230	0.451	-0.087
-324.114	-114.868	-0.185	0.035
-323.099	142.574	-0.206	0.273
-322.085	37.354	0.056	-0.050
-321.070	-200.000	0.011	-0.257
-320.056	-200.000	0.074	-0.334
-319.041	38.014	0.160	0.142
-318.026	531.590	-0.038	0.090
-317.012	-1.069	-0.398	-0.281
-315.997	800.000	0.113	0.318
-314.983	-147.072	-0.238	0.020
-313.968	38.980	-0.301	-0.268
-312.953	-83.123	-0.049	0.016
-311.939	-174.226	0.191	-0.006
-310.924	162.447	0.149	0.209
-309.910	-86.086	0.231	-0.071
-308.895	-67.814	0.158	-0.062
-307.880	-162.504	0.314	-0.015
-306.866	-27.573	-0.272	0.158
-305.851	172.291	-0.183	0.263
-304.837	-79.730	0.444	0.149
-303.822	25.175	-0.193	0.160
-302.807	-200.000	-0.064	-0.294
-301.793	-80.374	-0.200	-0.067
-300.778	-118.155	0.307	0.055
-299.764	122.214	-0.206	0.257
-298.749	-116.404	-0.193	-0.036
-297.735	430.425	0.138	-0.298
-296.720	-69.657	-0.223	0.085
-295.705	-97.120	0.374	0.097
-294.691	-200.000	0.012	0.214
-293.676	19.460	0.253	0.203
-292.662	139.751	0.032	-0.042
-291.647	-101.091	-0.272	0.066
-290.632	230.557	0.147	-0.240
-289.618	-176.013	0.181	-0.005
-288.603	262.640	-0.072	-0.125
-287.589	50.443	0.069	-0.065
-286.574	-26.847	0.282	-0.164
-285.559	-200.000	0.009	0.211
-284.545	-61.172	-0.068	-0.029
-283.530	-83.393	-0.319	0.102
-282.516	-200.000	-0.018	0.133
-281.501	-200.000	0.025	-0.122
-280.486	800.000	0.105	0.307
-279.472	800.000	0.025	-0.105
-278.457	-106.341	-0.225	0.050
-277.443	375.813	0.021	0.043
-276.428	105.359	-0.151	-0.178
-275.413	260.358	-0.107	0.184
-274.399	32.278	-0.108	0.093
-273.384	13.411	-0.143	-0.110
-272.370	800.000	0.022	-0.089
-271.355	206.150	-0.110	-0.171
-270.340	350.207	0.031	0.060
-269.326	-200.000	-0.002	0.101
-268.311	-62.591	0.226	0.093
-267.297	225.558	-0.102	0.164
-266.282	284.540	0.072	-0.129
-265.267	-200.000	0.033	0.218
-264.253	707.664	0.075	0.198
-263.238	584.144	-0.047	-0.116
-262.224	-3.786	-0.096	0.066
-261.209	327.558	0.174	-0.333
-260.195	800.000	0.045	-0.129
-259.180	119.030	0.149	0.184
-258.165	96.126	0.148	-0.168
-257.151	-176.591	0.411	0.011
-256.136	-15.042	-0.316	-0.202
-255.122	-200.000	0.049	-0.262
-254.107	-14.262	-0.323	-0.207
-253.092	-66.111	0.251	0.100
-252.078	-43.320	-0.171	-0.086
-251.063	564.073	-0.044	-0.106
-250.049	168.039	0.111	-0.157
-249.034	-16.856	-0.398	-0.250
-248.019	-118.224	0.173	0.031
-247.005	75.285	0.126	-0.133
-245.990	-114.825	-0.198	0.038
-244.976	97.391	-0.116	0.132
-243.961	-200.000	-0.004	0.154
-242.946	-82.933	-0.198	0.064
-241.932	-60.377	0.195	-0.083
-240.917	-199.475	0.338	0.002
-239.903	268.415	0.139	-0.242
-238.888	-136.726	0.283	0.032
-237.873	-121.864	-0.216	-0.035
-236.859	-200.000	-0.012	-0.328
-235.844	-63.548	0.369	0.151
-234.830	115.340	-0.137	0.167
-233.815	155.435	0.250	-0.342
-232.800	-44.656	-0.299	-0.148
-231.786	-152.264	0.240	-0.017
-230.771	66.772	-0.061	0.061
-229.757	-122.878	0.325	-0.052
-228.742	449.634	-0.027	-0.058
-227.727	-95.582	-0.374	0.100
-226.713	445.623	0.059	-0.128
-225.698	330.544	0.106	-0.202
-224.684	61.960	-0.211	0.209
-223.669	-78.384	0.422	-0.144
-222.655	-31.471	-0.195	-0.109
-221.640	12.557	-0.175	0.134
-220.625	-200.000	-0.064	-0.296
-219.611	183.387	0.126	0.186
-218.596	-113.278	-0.044	-0.009
-217.582	-200.000	-0.034	-0.166
-216.567	-139.517	-0.114	0.012
-215.552	-200.000	-0.007	-0.099
-214.538	-200.000	-0.050	-0.301
-213.523	-108.832	0.297	-0.063
-212.509	539.349	-0.054	0.127
-211.494	-94.157	0.241	-0.066
-210.479	-69.581	0.368	-0.140
-209.465	-73.357	-0.271	-0.098
-208.450	-200.000	-0.090	-0.414
-207.436	-27.522	0.193	-0.112
-206.421	-118.371	0.252	0.044
-205.406	-112.192	0.163	-0.033
-204.392	-19.798	0.362	-0.222
-203.377	-45.541	-0.341	0.168
-202.363	-200.000	-0.004	0.245
-201.348	595.354	0.156	0.384
-200.333	800.000	0.139	0.382
-199.319	195.155	0.069	-0.104
-198.304	-200.000	0.032	-0.207
-197.290	-52.953	-0.460	-0.210
-196.275	164.319	0.168	-0.236
-195.260	-104.337	0.267	-0.061
-194.246	-17.963	0.222	0.138
-193.231	-200.000	-0.082	-0.492
-192.217	-200.000	0.066	-0.536
-191.202	-24.416	0.199	-0.117
-190.187	146.795	-0.093	-0.124
-189.173	79.002	0.095	0.101
-188.158	-65.922	0.057	-0.022
-187.144	-53.894	0.073	0.033
-186.129	-200.000	-0.011	-0.208
-185.114	-200.000	-0.042	-0.237
-184.100	-35.473	-0.092	0.050
-183.085	704.618	-0.142	-0.372
-182.071	35.168	-0.242	0.210
-181.056	-200.000	-0.015	-0.070
-180.042	24.501	-0.235	-0.193
-179.027	329.280	-0.064	0.121
-178.012	255.581	0.218	-0.371
-176.998	111.722	0.269	0.322
-175.983	-122.612	-0.080	-0.013
-174.969	11.857	0.072	0.055
-173.954	23.709	0.176	0.144
-172.939	-91.791	-0.184	0.052
-171.925	-200.000	0.003	0.171
-170.910	-180.367	0.208	-0.004
-169.896	-200.000	0.072	0.528
-168.881	800.000	-0.014	0.043
-167.866	-124.692	-0.186	0.029
-166.852	9.539	0.079	-0.059
-165.837	63.999	-0.324	-0.324
-164.823	-82.663	0.117	0.037
-163.808	-7.075	-0.030	-0.020
-162.793	-200.000	0.017	-0.117
-161.779	-165.258	0.251	0.011
-160.764	396.167	-0.171	0.353
-159.750	-154.333	0.146	0.010
-158.735	-200.000	-0.018	-0.263
-157.720	23.858	0.197	-0.161
-156.706	-50.841	-0.154	-0.072
-155.691	92.904	-0.113	-0.127
-154.677	401.593	0.039	0.081
-153.662	-200.000	0.037	0.290
-152.647	-200.000	-0.033	-0.178
-151.633	800.000	0.091	-0.292
-150.618	-57.652	-0.145	-0.063
-149.604	-200.000	-0.032	-0.531
-148.589	21.721	-0.046	-0.037
-147.574	-200.000	0.024	0.129
-146.560	-200.000	0.013	-0.124
-145.545	159.158	-0.156	0.215
-144.531	-119.412	-0.266	0.046
-143.516	-124.021	-0.288	0.045
-142.502	-200.000	-0.034	-0.439
-141.487	-114.883	-0.127	-0.024
-140.472	-200.000	0.015	-0.261
-139.458	-200.000	-0.049	0.470
-138.443	-93.283	0.246	0.068
-137.429	-200.000	0.008	-0.084
-136.414	-200.000	-0.040	-0.210
-135.399	800.000	-0.084	-0.230
-134.385	-74.581	-0.122	-0.044
-133.370	-43.626	0.096	0.048
-132.356	27.213	-0.103	-0.085
-131.341	163.880	0.183	-0.256
-130.326	-200.000	-0.018	-0.411
-129.312	-175.844	0.074	-0.002
-128.297	-34.896	0.293	0.158
-127.283	45.052	-0.115	-0.105
-126.268	-52.412	0.053	0.024
-125.253	83.081	-0.059	0.064
-124.239	190.788	-0.065	-0.097
-123.224	-1.714	-0.339	0.236
-122.210	325.999	0.124	0.235
-121.195	104.310	0.108	-0.126
-120.180	-46.792	0.080	0.039
-119.166	-200.000	-0.090	0.394
-118.151	1.411	-0.088	-0.063
-117.137	-47.891	-0.090	0.043
-116.122	-95.350	0.132	0.035
-115.107	-200.000	-0.083	0.435
-114.093	-64.840	0.197	0.079
-113.078	-56.418	-0.174	-0.077
-112.064	-86.579	-0.262	0.079
-111.049	158.247	0.149	0.205
-110.034	-80.399	-0.091	-0.030
-109.020	-200.000	0.047	-0.390
-108.005	-137.278	-0.185	0.021
-106.991	-101.774	0.237	0.057
-105.976	-200.000	-0.044	-0.303
-104.962	443.398	-0.040	-0.087
-103.947	-30.599	-0.065	0.036
-102.932	-54.908	0.153	-0.068
-101.918	-200.000	-0.041	-0.302
-100.903	-22.252	0.448	0.269
-99.889	-36.550	-0.156	0.083
-98.874	800.000	-0.062	-0.177
-97.859	201.451	-0.134	-0.203
-96.845	43.341	-0.153	0.138
-95.830	452.805	0.057	0.125
-94.816	-91.873	0.395	-0.111
-93.801	-170.096	-0.093	-0.003
-92.786	309.528	0.118	0.218
-91.772	-107.635	0.537	0.116
-90.757	-63.979	-0.355	-0.143
-89.743	800.000	0.158	-0.484
-88.728	-87.688	0.424	-0.127
-87.713	60.164	0.085	-0.083
-86.699	137.311	0.130	-0.168
-85.684	-187.954	-0.278	-0.004
-84.670	222.709	0.063	-0.101
-83.655	352.998	0.060	-0.117
-82.640	-200.000	-0.087	-0.505
-81.626	-62.077	0.323	-0.133
-80.611	-7.818	0.262	0.175
-79.597	800.000	-0.035	-0.118
-78.582	279.316	0.194	0.341
-77.567	-179.415	0.253	0.005
-76.553	54.297	-0.221	0.210
-75.538	56.190	-0.160	-0.153
-74.524	441.513	0.103	0.222
-73.509	-17.125	0.200	-0.125
-72.494	-153.085	-0.132	0.009
-71.480	37.411	0.237	0.208
-70.465	-93.159	-0.032	0.009
-69.451	-56.299	-0.083	0.037
-68.436	800.000	0.081	-0.260
-67.422	800.000	0.126	-0.422
-66.407	31.981	0.203	-0.173
-65.392	-200.000	-0.014	0.176
-64.378	153.361	0.172	0.232
-63.363	-83.006	0.125	-0.040
-62.349	-156.204	0.372	0.023
-61.334	82.581	-0.839	-0.900
-60.319	95.485	0.412	0.464
-59.305	-200.000	-0.063	-1.073
-58.290	158.333	0.677	0.928
-57.276	800.000	0.556	1.838
-56.261	-200.000	94.891	577.942
-55.246	571.560	1365.413	3283.477
-54.232	153.981	2574.746	3486.340
-53.217	117.562	2163.715	2628.983
-52.203	47.481	1623.321	1494.230
-51.188	39.080	1359.570	1200.364
-50.173	35.850	1316.952	1143.533
-49.159	57.918	1366.068	1320.149
-48.144	62.593	1384.141	1365.770
-47.130	39.524	1338.502	1184.245
-46.115	35.766	1320.822	1146.211
-45.100	35.584	1315.930	1140.839
-44.086	35.453	1313.215	1137.666
-43.071	35.388	1311.293	1135.570
-42.057	35.427	1309.175	1133.921
-41.042	35.487	1307.446	1132.734
-40.027	35.546	1305.590	1131.427
-39.013	35.513	1303.634	1129.495
-37.998	35.482	1302.118	1127.956
-36.984	35.522	1300.330	1126.595
-35.969	35.667	1298.540	1125.850
-34.954	35.582	1296.706	1123.715
-33.940	35.613	1295.615	1122.909
-32.925	35.711	1294.606	1122.558
-31.911	35.715	1292.904	1121.061
-30.896	35.749	1291.370	1119.887
-29.881	35.739	1289.914	1118.521
-28.867	35.789	1288.241	1117.317
-27.852	35.766	1287.121	1116.170
-26.838	35.740	1285.771	1114.802
-25.823	35.722	1284.709	1113.730
-24.809	35.663	1283.039	1111.899
-23.794	35.683	1281.479	1110.620
-22.779	35.678	1280.306	1109.530
-21.765	35.759	1278.902	1108.734
-20.750	35.651	1278.212	1107.470
-19.736	35.537	1276.451	1105.246
-18.721	35.598	1275.124	1104.403
-17.706	35.526	1274.055	1103.020
-16.692	35.588	1273.047	1102.460
-15.677	35.569	1271.783	1101.211
-14.663	35.468	1270.854	1099.784
-13.648	35.502	1269.453	1098.721
-12.633	35.614	1267.999	1098.061
-11.619	35.544	1267.489	1097.173
-10.604	35.553	1266.711	1096.513
-9.590	35.441	1265.912	1095.137
-8.575	35.450	1264.822	1094.201
-7.560	35.411	1264.260	1093.448
-6.546	35.441	1263.026	1092.509
-5.531	35.433	1262.189	1091.696
-4.517	35.581	1261.405	1091.819
-3.502	35.451	1260.817	1090.525
-2.487	35.503	1259.526	1089.661
-1.473	35.491	1255.889	1086.401
-0.458	34.189	1240.209	1065.514
0.556	30.794	1222.412	1027.258
1.571	27.149	1228.155	1011.745
2.586	26.206	1243.392	1018.891
3.600	25.681	1232.274	1006.751
4.615	18.768	1158.107	909.594
5.629	7.362	1077.794	789.914
6.644	2.260	1055.114	748.293
7.659	1.701	1052.959	743.966
8.673	1.573	1051.305	742.107
9.688	1.619	1049.953	741.311
10.702	2.076	1049.408	743.086
11.717	9.095	1059.457	784.537
12.731	19.383	1074.240	846.143
13.746	24.025	1079.105	872.724
14.761	24.665	1080.027	876.529
15.775	24.507	1079.892	875.566
16.790	24.518	1078.361	874.306
17.804	24.310	1078.113	873.008
18.819	24.459	1077.849	873.444
19.834	24.618	1076.987	873.447
20.848	24.716	1076.284	873.278
21.863	24.519	1075.922	871.943
22.877	24.550	1075.485	871.662
23.892	24.587	1074.648	871.087
24.907	24.506	1074.195	870.252
25.921	24.569	1072.892	869.425
26.936	24.506	1071.467	867.887
27.950	24.608	1069.539	866.742
28.965	24.276	1068.435	864.163
29.980	24.526	1066.659	863.862
30.994	24.665	1065.558	863.562
32.009	24.641	1065.077	862.982
33.023	24.328	1063.832	860.387
34.038	24.512	1063.013	860.536
35.053	24.583	1063.009	860.798
36.067	24.614	1061.488	859.639
37.082	24.715	1060.855	859.536
38.096	24.865	1060.681	860.040
39.111	24.895	1059.503	859.152
40.126	24.764	1057.796	857.061
41.140	24.307	1056.516	853.765
42.155	24.227	1054.862	851.971
43.169	24.292	1053.628	851.206
44.184	24.191	1052.917	850.078
45.199	24.233	1052.000	849.462
46.213	24.263	1051.662	849.256
47.228	24.452	1050.328	849.004
48.242	24.428	1049.594	848.219
49.257	24.531	1049.121	848.250
50.271	24.642	1048.514	848.214
51.286	24.772	1046.920	847.465
52.301	24.695	1046.619	846.780
53.315	24.641	1045.231	845.330
54.330	24.650	1044.360	844.591
55.344	24.594	1043.637	843.668
56.359	24.485	1042.958	842.531
57.374	24.409	1041.802	841.163
58.388	24.322	1040.946	839.990
59.403	24.380	1039.917	839.356
60.417	24.251	1039.401	838.257
61.432	24.368	1038.757	838.216
62.447	24.403	1038.314	837.947
63.461	24.366	1037.411	836.970
64.476	24.345	1036.391	835.976
65.490	24.205	1035.138	834.233
66.505	24.356	1034.472	834.331
67.520	24.331	1034.542	834.197
68.534	24.211	1032.980	832.303
69.549	23.965	1031.451	829.848
70.563	23.930	1031.004	829.253
71.578	23.855	1030.402	828.349
72.593	23.647	1029.544	826.613
73.607	23.739	1029.197	826.693
74.622	23.978	1028.961	827.540
75.636	24.235	1027.457	827.450
76.651	24.025	1026.467	825.606
77.666	23.971	1026.079	824.972
78.680	24.006	1025.629	824.701
79.695	24.143	1025.030	824.781
80.709	24.170	1024.026	824.022
81.724	24.198	1023.353	823.539
82.739	24.320	1022.244	823.135
83.753	24.611	1022.188	824.359
84.768	24.885	1020.953	824.551
85.782	25.049	1020.171	824.604
86.797	24.878	1018.904	822.719
87.812	24.586	1018.421	820.914
88.826	24.773	1017.463	820.930
89.841	24.772	1017.048	820.520
90.855	24.825	1016.024	819.861
91.870	24.717	1015.185	818.619
92.884	24.711	1013.466	817.134
93.899	24.602	1012.636	815.894
94.914	24.845	1011.974	816.396
95.928	24.578	1010.922	814.257
96.943	24.459	1009.657	812.627
97.957	24.196	1008.457	810.394
98.972	24.056	1007.159	808.642
99.987	24.354	1006.980	809.780
101.001	24.407	1006.090	809.232
102.016	24.554	1005.241	809.145
103.030	24.426	1004.678	808.038
104.045	24.356	1003.196	806.458
105.060	24.207	1002.211	804.922
106.074	24.374	1001.670	805.174
107.089	24.673	1001.255	806.113
108.103	24.597	999.940	804.644
109.118	24.368	998.839	802.657
110.133	24.271	998.213	801.647
111.147	24.201	996.362	799.772
112.162	23.917	995.787	797.967
113.176	24.262	995.035	798.841
114.191	24.184	994.458	797.958
115.206	23.920	993.114	795.628
116.220	23.922	992.178	794.818
117.235	23.979	991.361	794.347
118.249	23.973	990.746	793.755
119.264	23.830	990.018	792.465
120.279	24.002	989.424	792.687
121.293	24.057	988.584	792.189
122.308	24.062	987.704	791.436
123.322	23.965	986.211	789.739
124.337	23.761	985.480	788.178
125.352	23.397	983.339	784.786
126.366	23.300	982.785	783.845
127.381	24.056	982.887	787.198
128.395	24.630	982.180	789.099
129.410	24.721	981.388	788.793
130.424	24.707	979.884	787.456
131.439	24.645	979.387	786.711
132.454	24.469	978.544	785.190
133.468	24.552	977.462	784.620
134.483	24.633	976.768	784.347
135.497	24.674	976.549	784.281
136.512	24.804	975.717	784.113
137.527	24.712	974.424	782.602
138.541	24.894	973.365	782.479
139.556	24.788	972.910	781.580
140.570	24.834	972.623	781.480
141.585	24.820	971.158	780.176
142.600	24.901	970.188	779.678
143.614	24.921	969.958	779.511
144.629	25.056	968.949	779.218
145.643	24.998	967.265	777.543
146.658	24.715	966.056	775.279
147.673	24.548	965.467	774.012
148.687	24.596	963.871	772.871
149.702	24.560	963.285	772.177
150.716	24.418	962.679	771.011
151.731	24.724	961.651	771.440
152.746	24.808	961.586	771.679
153.760	24.913	960.853	771.477
154.775	25.011	960.354	771.431
155.789	24.860	959.608	770.113
156.804	24.934	958.397	769.390
157.819	24.850	957.609	768.331
158.833	25.047	956.722	768.395
159.848	25.024	956.001	767.648
160.862	24.847	954.657	765.746
161.877	24.738	954.027	764.706
162.892	24.927	952.798	764.459
163.906	24.895	951.350	763.097
164.921	24.884	950.781	762.526
165.935	24.919	950.044	762.014
166.950	24.905	948.869	760.943
167.964	24.956	947.906	760.323
168.979	24.724	947.038	758.573
169.994	24.724	946.095	757.753
171.008	25.054	945.251	758.404
172.023	24.989	944.545	757.499
173.037	24.762	943.572	755.689
174.052	24.610	942.419	754.061
175.067	24.667	941.872	753.797
176.081	24.835	941.380	754.043
177.096	24.644	940.826	752.729
178.110	24.424	939.839	750.947
179.125	24.279	939.009	749.608
180.140	24.324	939.019	749.738
181.154	24.474	938.587	749.955
182.169	24.668	938.742	750.829
183.183	24.946	937.890	751.249
184.198	24.944	936.794	750.297
185.213	24.794	936.303	749.208
186.227	24.920	935.653	749.148
187.242	24.979	934.965	748.777
188.256	24.885	934.421	747.884
189.271	24.939	933.542	747.340
190.286	24.660	932.371	745.174
191.300	24.134	930.747	741.618
192.315	23.229	929.514	736.805
193.329	23.296	928.811	736.461
194.344	24.213	929.557	740.804
195.359	24.812	929.182	742.924
196.373	24.826	929.091	742.846
197.388	24.710	928.260	741.633
198.402	24.770	927.574	741.270
199.417	24.859	926.463	740.683
200.432	24.626	925.664	739.015
201.446	24.377	925.296	737.628
202.461	24.397	924.366	736.903
203.475	23.662	922.367	732.215
204.490	22.963	921.482	728.565
205.504	23.751	921.960	732.130
206.519	24.467	921.739	734.838
207.534	24.518	921.165	734.525
208.548	24.801	921.065	735.545
209.563	24.543	920.049	733.606
210.577	24.583	919.297	733.109
211.592	24.955	919.477	734.711
212.607	25.062	918.115	733.998
213.621	24.996	917.850	733.451
214.636	24.964	917.218	732.750
215.650	24.793	916.790	731.642
216.665	24.864	916.135	731.346
217.680	24.945	914.878	730.606
218.694	24.439	913.820	727.634
219.709	24.438	912.952	726.876
220.723	24.855	912.263	727.958
221.738	24.806	912.230	727.671
222.753	24.782	911.712	727.095
223.767	24.881	911.095	726.940
224.782	25.041	910.870	727.346
225.796	25.049	910.346	726.897
226.811	24.579	908.330	723.318
227.826	23.818	907.151	719.239
228.840	23.899	906.712	719.154
229.855	24.021	906.305	719.261
230.869	23.698	905.413	717.184
231.884	24.039	905.575	718.627
232.899	24.753	905.643	721.498
233.913	24.640	904.785	720.296
234.928	24.674	904.184	719.890
235.942	24.679	903.614	719.392
236.957	24.309	902.526	716.977
237.972	24.318	902.594	717.005
238.986	24.596	901.660	717.313
240.001	24.490	901.065	716.352
241.015	24.534	900.632	716.121
242.030	24.632	900.077	716.010
243.045	24.733	899.741	716.081
244.059	24.906	899.230	716.305
245.074	24.728	897.846	714.429
246.088	24.444	896.853	712.439
247.103	24.817	896.973	713.961
248.117	25.163	897.123	715.400
249.132	25.408	896.695	715.971
250.147	25.457	896.201	715.709
251.161	25.624	895.923	716.087
252.176	25.644	894.978	715.346
253.190	25.790	894.103	715.167
254.205	25.867	894.005	715.328
255.220	25.833	893.190	714.480
256.234	25.544	892.395	712.633
257.249	25.546	891.548	711.902
258.263	25.477	891.200	711.288
259.278	25.820	890.095	711.700
260.293	25.549	890.386	710.799
261.307	25.596	889.642	710.328
262.322	25.451	888.051	708.423
263.336	24.669	886.503	704.048
264.351	23.618	884.767	698.470
265.366	23.707	884.294	698.385
266.380	25.017	884.515	703.650
267.395	25.372	884.619	705.064
268.409	25.158	884.359	703.953
269.424	25.505	883.165	704.298
270.439	25.581	882.627	704.106
271.453	25.440	882.557	703.437
272.468	25.778	882.181	704.398
273.482	25.690	881.790	703.678
274.497	25.381	880.475	701.361
275.512	24.985	879.698	699.133
276.526	25.250	879.621	700.045
277.541	25.601	879.200	701.017
278.555	25.461	878.361	699.739
279.570	25.181	877.407	697.830
280.585	25.401	876.699	698.058
281.599	25.352	875.730	697.037
282.614	24.754	874.563	693.728
283.628	24.737	874.223	693.331
284.643	25.209	874.062	694.969
285.657	24.733	872.780	692.046
286.672	24.416	872.221	690.316
287.687	25.022	872.379	692.724
288.701	24.993	871.661	691.979
289.716	24.636	871.230	690.199
290.730	24.546	870.420	689.150
291.745	24.570	868.894	687.969
292.760	24.665	869.191	688.513
293.774	25.722	869.505	692.770
294.789	26.222	868.929	694.172
295.803	26.114	868.345	693.230
296.818	26.039	867.945	692.559
297.833	25.653	866.806	690.110
298.847	25.404	866.242	688.648
299.862	25.867	865.636	689.876
300.876	26.001	865.530	690.243
301.891	25.891	864.705	689.105
302.906	25.613	863.870	687.316
303.920	25.735	864.009	687.833
304.935	26.094	863.079	688.399
305.949	25.987	862.611	687.557
306.964	25.785	861.677	685.981
307.979	25.851	861.281	685.857
308.993	26.251	861.132	687.201
310.008	26.215	860.330	686.364
311.022	26.027	859.673	685.065
312.037	25.857	858.947	683.779
313.052	25.537	858.151	681.873
314.066	24.621	856.759	677.237
315.081	24.276	856.190	675.420
316.095	25.226	856.243	679.000
317.110	25.527	856.520	680.299
318.125	24.809	854.889	676.228
319.139	23.790	852.964	670.802
320.154	23.795	852.708	670.560
321.168	24.725	853.392	674.548
322.183	25.381	853.241	676.843
323.197	25.664	853.064	677.708
324.212	25.811	852.598	677.831
325.227	25.733	852.116	677.094
326.241	25.776	851.339	676.581
327.256	25.637	850.492	675.326
328.270	25.464	850.157	674.352
329.285	25.378	848.799	672.891
330.300	25.104	848.223	671.348
331.314	25.276	848.471	672.130
332.329	25.624	848.212	673.168
333.343	25.753	847.877	673.325
334.358	25.835	847.089	672.948
335.373	26.033	846.954	673.518
336.387	26.285	846.777	674.258
337.402	26.341	846.994	674.579
338.416	26.261	846.060	673.478
339.431	26.330	845.834	673.498
340.446	26.605	845.120	673.892
341.460	26.481	845.167	673.408
342.475	26.141	844.394	671.467
343.489	26.314	844.087	671.808
344.504	26.436	843.818	671.988
345.519	26.714	843.613	672.797
346.533	26.666	842.720	671.847
347.548	26.735	842.348	671.747
348.562	26.707	841.677	671.048
349.577	26.650	841.319	670.493
350.592	26.622	840.340	669.551
351.606	26.582	839.838	668.944
352.621	26.521	838.836	667.861
353.635	26.464	837.851	666.808
354.650	25.502	836.655	662.256
355.665	24.867	835.266	658.761
356.679	25.254	835.100	659.993
357.694	25.844	834.606	661.714
358.708	25.633	834.156	660.524
359.723	25.891	834.174	661.427
360.738	26.341	833.629	662.586
361.752	26.425	833.348	662.610
362.767	26.738	833.005	663.425
363.781	26.947	832.681	663.872
364.796	27.092	832.050	663.840
365.810	27.054	831.739	663.398
366.825	27.100	831.330	663.178
367.840	26.780	830.324	661.153
368.854	26.441	829.741	659.392
369.869	26.559	829.399	659.493
370.883	26.543	828.787	658.889
371.898	26.187	828.502	657.310
372.913	26.513	828.143	658.153
373.927	26.548	827.834	657.976
374.942	26.594	827.333	657.687
375.956	26.685	826.946	657.652
376.971	26.879	826.668	658.075
377.986	26.871	826.308	657.700
379.000	27.045	825.411	657.560
380.015	26.998	824.766	656.815
381.029	27.057	824.144	656.478
382.044	27.028	823.589	655.871
383.059	27.102	823.359	655.900
384.073	27.095	822.646	655.248
385.088	27.112	821.918	654.671
386.102	26.739	821.423	652.874
387.117	26.822	820.558	652.426
388.132	26.439	819.581	650.215
389.146	25.927	818.868	647.756
390.161	26.476	818.187	649.130
391.175	26.744	818.337	650.151
392.190	26.503	817.306	648.412
393.205	25.101	815.229	641.692
394.219	23.598	813.400	634.823
395.234	23.397	813.765	634.332
396.248	25.179	814.580	641.292
397.263	26.698	815.461	647.358
398.278	26.562	815.075	646.509
399.292	26.405	814.618	645.530
400.307	26.320	813.734	644.469
401.321	26.425	813.458	644.568
402.336	26.953	813.425	646.365
403.350	27.115	813.542	646.979
404.365	27.415	813.407	647.880
405.380	27.716	812.803	648.412
406.394	27.799	812.618	648.503
407.409	27.778	811.961	647.846
408.423	27.707	811.207	646.937
409.438	27.922	810.986	647.464
410.453	27.744	810.954	646.749
411.467	27.603	810.177	645.574
412.482	27.720	810.117	645.885
413.496	27.857	809.541	645.851
414.511	27.802	809.056	645.215
415.526	27.704	808.673	644.505
416.540	27.648	807.924	643.653
417.555	27.352	807.404	642.137
418.569	27.403	807.233	642.122
419.584	27.369	806.557	641.409
420.599	27.304	805.793	640.517
421.613	107.077	1279.618	1438.248
422.628	92.410	1348.654	1438.384
