DTS Sentinel unit serial number:	SN413079Multiplexer serial number:	ORYXHardware model number:	OX4-SRSoftware version number:	ORYX F/W v4.00 Oryx Data Collector v3.7.2.0data status	okinstallation	princeton_trtdifferential loss correction	single-endedforward channel	channel 1reverse channel	N/Adate	2019/09/12time	22:10:35forward acquisition time	60.00reverse acquisition time	0.00gamma	496.2192k internal	0.2326k external	0.2326temperature offset calibration	1.0150default loss term (dB/km)	0.3790temperature slope calibration	1.0000multiplexer offset coefficient	1.0000multiplexer slope coefficient	1.0000fibre end	0.00T internal ref (°C)	29.94T ext. ref 1 (°C)	3.75T ext. ref 2 (°C)	24.43length (m)	temperature (°C)	Stokes	anti-Stokes-747.200	-199.393	0.162	-0.001
-746.185	175.019	-0.163	0.237
-745.171	692.476	0.022	0.058
-744.156	-200.000	-0.007	0.108
-743.142	-76.325	-0.105	-0.037
-742.127	800.000	0.083	-0.244
-741.112	800.000	0.096	0.359
-740.098	800.000	-0.053	-0.226
-739.083	-200.000	0.020	-0.194
-738.069	-92.474	0.332	-0.094
-737.054	-200.000	-0.016	-0.264
-736.039	-57.615	-0.199	0.088
-735.025	800.000	-0.110	0.379
-734.010	88.032	-0.242	0.271
-732.996	-95.477	-0.186	-0.050
-731.981	-132.606	0.060	-0.008
-730.966	99.434	-0.041	0.048
-729.952	-200.000	-0.019	0.243
-728.937	-139.379	-0.223	-0.024
-727.923	-73.288	-0.173	-0.064
-726.908	-64.299	0.068	-0.028
-725.894	800.000	0.065	-0.260
-724.879	-81.284	0.339	0.113
-723.864	-46.158	0.110	0.055
-722.850	-59.018	-0.356	-0.155
-721.835	419.601	-0.155	-0.335
-720.821	-88.079	0.243	0.074
-719.806	185.946	-0.043	-0.065
-718.791	-127.967	-0.210	-0.030
-717.777	800.000	-0.121	-0.405
-716.762	-200.000	-0.021	-0.394
-715.748	-146.892	-0.381	0.033
-714.733	800.000	0.029	0.101
-713.718	157.018	-0.155	-0.216
-712.704	87.587	0.187	-0.209
-711.689	-159.461	-0.270	-0.015
-710.675	-200.000	-0.013	-0.060
-709.660	-85.419	-0.234	0.073
-708.645	292.932	0.130	-0.238
-707.631	-200.000	0.009	0.060
-706.616	800.000	0.020	0.080
-705.602	108.827	-0.222	-0.268
-704.587	525.317	-0.125	-0.295
-703.572	265.856	0.107	-0.188
-702.558	200.055	-0.258	0.399
-701.543	800.000	-0.048	0.169
-700.529	105.167	-0.006	0.007
-699.514	-167.602	-0.265	0.011
-698.499	-200.000	-0.043	0.238
-697.485	-200.000	0.036	-0.416
-696.470	197.197	-0.103	-0.158
-695.456	4.264	-0.273	-0.201
-694.441	800.000	-0.041	0.145
-693.426	651.314	0.046	-0.119
-692.412	54.109	0.238	0.230
-691.397	114.025	-0.129	-0.157
-690.383	-200.000	0.007	-0.120
-689.368	-62.285	-0.414	0.173
-688.354	779.631	-0.151	0.415
-687.339	-122.939	-0.147	-0.024
-686.324	616.014	-0.053	0.135
-685.310	-66.084	0.152	0.061
-684.295	-112.987	0.293	0.058
-683.281	-175.097	0.068	0.002
-682.266	800.000	0.037	0.119
-681.251	-179.639	-0.426	0.009
-680.237	-200.000	0.074	-0.347
-679.222	6.964	0.228	0.171
-678.208	125.523	-0.176	-0.224
-677.193	-118.244	-0.225	-0.040
-676.178	-71.216	0.189	0.072
-675.164	79.046	-0.296	-0.319
-674.149	-200.000	0.000	-0.121
-673.135	-200.000	0.040	0.202
-672.120	506.471	0.042	0.099
-671.105	37.710	0.461	0.412
-670.091	-200.000	-0.003	0.502
-669.076	272.527	0.212	0.376
-668.062	-118.726	0.172	-0.031
-667.047	-120.890	0.267	-0.045
-666.032	-35.589	0.139	0.076
-665.018	-130.278	0.264	-0.036
-664.003	198.720	0.101	-0.155
-662.989	-18.076	-0.154	-0.097
-661.974	85.209	0.156	-0.172
-660.959	-105.396	-0.212	-0.049
-659.945	-58.401	0.170	-0.074
-658.930	-50.717	0.246	0.116
-657.916	-101.499	0.303	0.074
-656.901	18.783	0.080	-0.064
-655.886	-200.000	-0.056	0.394
-654.872	-67.918	-0.288	0.113
-653.857	-8.072	0.047	-0.032
-652.843	-200.000	0.028	-0.148
-651.828	-69.341	0.237	-0.092
-650.814	-63.118	-0.218	0.090
-649.799	-200.000	0.060	-0.385
-648.784	-200.000	0.020	-0.255
-647.770	316.058	0.098	-0.186
-646.755	-129.475	-0.205	-0.029
-645.741	-200.000	0.010	-0.196
-644.726	65.395	-0.192	-0.195
-643.711	800.000	0.080	0.275
-642.697	-162.237	0.169	-0.008
-641.682	111.805	-0.172	0.209
-640.668	-200.000	-0.015	-0.342
-639.653	146.009	-0.139	0.187
-638.638	-200.000	0.024	-0.204
-637.624	800.000	0.049	-0.137
-636.609	-136.232	0.272	-0.032
-635.595	18.109	0.288	-0.231
-634.580	328.656	-0.044	0.085
-633.565	350.692	0.065	0.129
-632.551	-38.890	-0.157	0.083
-631.536	-75.858	0.323	0.115
-630.522	17.891	-0.168	-0.134
-629.507	193.662	-0.097	-0.148
-628.492	210.023	0.138	0.217
-627.478	-91.769	-0.300	-0.086
-626.463	525.773	-0.056	-0.132
-625.449	351.962	0.040	0.080
-624.434	789.971	-0.059	0.164
-623.419	285.119	-0.116	-0.210
-622.405	-200.000	0.034	0.163
-621.390	-173.642	-0.448	-0.013
-620.376	-200.000	0.015	0.314
-619.361	-14.205	-0.081	0.053
-618.346	-200.000	-0.003	0.055
-617.332	73.014	0.145	-0.152
-616.317	67.308	-0.186	0.190
-615.303	-146.007	0.053	-0.005
-614.288	-80.998	-0.348	0.116
-613.273	108.913	0.093	-0.111
-612.259	-105.442	-0.369	0.084
-611.244	800.000	0.064	-0.226
-610.230	19.162	0.197	-0.159
-609.215	-27.696	-0.267	-0.155
-608.201	-55.566	0.224	-0.100
-607.186	-200.000	0.035	-0.372
-606.171	-117.624	-0.396	-0.072
-605.157	499.762	-0.061	-0.140
-604.142	-200.000	0.018	-0.153
-603.128	61.401	0.072	-0.072
-602.113	-24.703	0.064	0.038
-601.098	-26.255	0.015	-0.009
-600.084	48.733	-0.239	-0.225
-599.069	800.000	0.092	-0.277
-598.055	-200.000	-0.037	0.231
-597.040	317.950	0.169	0.320
-596.025	315.198	-0.121	0.228
-595.011	-13.631	0.102	-0.066
-593.996	167.005	0.215	-0.305
-592.982	-200.000	-0.007	-0.175
-591.967	-200.000	0.010	0.151
-590.952	-10.015	0.145	0.097
-589.938	4.626	0.174	0.128
-588.923	23.181	0.080	-0.066
-587.909	-136.517	0.145	0.017
-586.894	175.658	0.050	0.072
-585.879	321.832	0.102	0.194
-584.865	175.084	-0.169	-0.245
-583.850	-120.296	-0.202	-0.035
-582.836	800.000	0.072	0.218
-581.821	-200.000	-0.032	-0.325
-580.806	800.000	0.061	-0.181
-579.792	127.275	-0.045	0.058
-578.777	-200.000	-0.011	-0.371
-577.763	-111.499	-0.225	-0.046
-576.748	-56.002	0.279	-0.125
-575.733	-40.604	0.317	-0.165
-574.719	-116.170	0.194	0.036
-573.704	-19.150	0.352	-0.219
-572.690	344.714	-0.157	0.309
-571.675	-138.909	-0.175	0.019
-570.661	800.000	-0.106	-0.297
-569.646	440.920	0.015	0.033
-568.631	-29.306	0.069	0.039
-567.617	-200.000	0.004	0.149
-566.602	800.000	-0.129	-0.448
-565.588	-145.703	-0.332	-0.030
-564.573	-200.000	-0.023	0.357
-563.558	4.985	-0.082	-0.060
-562.544	800.000	0.077	-0.226
-561.529	432.433	0.126	0.275
-560.515	-158.601	-0.047	0.003
-559.500	75.766	-0.165	0.175
-558.485	-161.881	0.042	0.002
-557.471	-134.015	-0.289	0.036
-556.456	800.000	0.067	-0.188
-555.442	45.847	0.068	-0.063
-554.427	415.470	-0.129	0.275
-553.412	-28.724	-0.117	-0.067
-552.398	168.458	-0.150	-0.214
-551.383	81.459	0.155	-0.168
-550.369	234.017	0.033	0.054
-549.354	-113.767	0.162	0.032
-548.339	-144.862	-0.259	0.024
-547.325	-148.639	-0.076	0.006
-546.310	197.770	-0.013	-0.019
-545.296	110.449	-0.075	-0.090
-544.281	-31.485	-0.253	-0.142
-543.266	17.946	-0.110	0.088
-542.252	-129.643	-0.216	0.030
-541.237	-145.572	-0.219	-0.020
-540.223	-200.000	0.032	-0.283
-539.208	-200.000	0.048	-0.220
-538.193	-200.000	0.002	-0.062
-537.179	-200.000	0.001	0.186
-536.164	176.668	-0.103	-0.150
-535.150	-104.352	0.379	-0.088
-534.135	-116.303	0.254	0.047
-533.121	-94.449	-0.065	0.018
-532.106	-115.233	0.241	0.046
-531.091	-69.060	0.046	0.018
-530.077	48.399	0.061	0.057
-529.062	-107.134	0.365	-0.080
-528.048	-9.983	-0.150	0.100
-527.033	-37.542	0.177	-0.094
-526.018	13.352	-0.222	0.172
-525.004	258.410	0.184	0.317
-523.989	-192.074	-0.182	-0.002
-522.975	-191.382	0.048	-0.000
-521.960	800.000	-0.074	0.295
-520.945	14.000	0.309	-0.240
-519.931	-107.324	0.304	-0.067
-518.916	42.628	-0.350	0.319
-517.902	137.187	-0.187	0.244
-516.887	-187.247	-0.112	-0.002
-515.872	-29.234	-0.175	0.100
-514.858	161.271	0.031	-0.043
-513.843	-59.596	-0.202	-0.086
-512.829	-117.140	-0.091	-0.017
-511.814	-10.187	0.143	-0.095
-510.799	-66.422	-0.313	0.124
-509.785	798.255	0.074	0.204
-508.770	-177.821	-0.415	-0.010
-507.756	47.379	0.110	0.102
-506.741	800.000	-0.064	-0.262
-505.726	-91.453	-0.297	-0.085
-504.712	-142.251	0.416	-0.041
-503.697	800.000	-0.074	-0.313
-502.683	-52.431	-0.178	-0.082
-501.668	221.386	-0.100	-0.160
-500.653	-67.547	0.209	-0.082
-499.639	-89.725	-0.183	-0.054
-498.624	-82.276	0.407	0.132
-497.610	-126.224	0.395	-0.059
-496.595	800.000	0.073	0.245
-495.581	87.835	0.243	0.269
-494.566	-71.906	-0.180	-0.067
-493.551	-24.186	-0.470	-0.280
-492.537	-200.000	0.024	0.335
-491.522	-127.606	-0.287	-0.041
-490.508	332.160	-0.024	-0.045
-489.493	-98.740	0.205	-0.052
-488.478	605.653	-0.060	0.150
-487.464	34.120	-0.121	-0.106
-486.449	-200.000	-0.014	0.096
-485.435	22.253	-0.304	0.248
-484.420	800.000	0.046	-0.155
-483.405	188.479	0.097	0.144
-482.391	228.761	-0.108	0.176
-481.376	-63.513	0.128	0.053
-480.362	-200.000	-0.032	-0.199
-479.347	-200.000	-0.005	0.029
-478.332	5.083	-0.195	-0.143
-477.318	7.661	-0.192	0.143
-476.303	250.007	0.078	-0.133
-475.289	308.884	-0.117	0.217
-474.274	297.567	-0.104	-0.191
-473.259	392.502	0.097	0.201
-472.245	190.212	0.196	0.293
-471.230	99.414	-0.170	-0.196
-470.216	-78.445	-0.348	0.119
-469.201	-132.857	0.371	0.047
-468.186	800.000	-0.052	-0.149
-467.172	244.449	-0.104	-0.174
-466.157	-200.000	0.076	0.339
-465.143	-200.000	-0.029	-0.182
-464.128	800.000	-0.078	0.224
-463.113	-200.000	-0.012	-0.105
-462.099	23.472	0.280	-0.230
-461.084	3.066	0.339	-0.246
-460.070	373.186	-0.068	0.138
-459.055	-200.000	0.027	0.180
-458.040	397.493	0.055	0.114
-457.026	-80.621	0.253	-0.084
-456.011	-43.102	-0.090	-0.046
-454.997	602.140	-0.049	0.122
-453.982	780.465	0.104	0.283
-452.968	-133.009	-0.261	-0.033
-451.953	-200.000	0.027	-0.218
-450.938	-121.327	-0.327	0.054
-449.924	-200.000	0.017	-0.257
-448.909	-15.087	-0.101	0.064
-447.895	-22.756	-0.042	0.025
-446.880	800.000	0.056	0.231
-445.865	235.908	-0.163	-0.269
-444.851	-200.000	0.017	-0.162
-443.836	19.834	-0.364	-0.292
-442.822	-170.159	-0.268	-0.009
-441.807	-196.267	0.092	-0.001
-440.792	-200.000	0.019	0.305
-439.778	218.508	-0.128	-0.204
-438.763	-121.178	-0.195	-0.032
-437.749	-119.021	-0.256	-0.045
-436.734	-67.821	0.313	0.122
-435.719	28.267	0.186	-0.157
-434.705	-95.777	0.236	0.063
-433.690	-168.876	0.207	-0.008
-432.676	-97.435	0.088	0.023
-431.661	-200.000	-0.017	-0.111
-430.646	81.332	0.077	-0.083
-429.632	373.526	-0.114	-0.231
-428.617	0.791	0.167	-0.119
-427.603	435.223	0.040	0.086
-426.588	800.000	0.035	0.119
-425.573	319.912	-0.056	0.105
-424.559	119.177	0.185	-0.228
-423.544	-106.097	0.334	-0.075
-422.530	-150.833	0.129	-0.010
-421.515	129.431	0.137	-0.175
-420.500	401.276	-0.035	0.073
-419.486	-88.357	0.169	0.050
-418.471	-80.935	0.058	-0.019
-417.457	126.731	-0.098	0.124
-416.442	124.074	-0.050	0.063
-415.428	800.000	0.039	-0.171
-414.413	62.478	0.275	0.273
-413.398	-24.573	0.366	0.217
-412.384	112.763	-0.130	0.157
-411.369	121.842	0.193	0.240
-410.355	-93.179	-0.104	0.029
-409.340	-0.933	0.088	-0.062
-408.325	-119.266	0.110	0.019
-407.311	800.000	-0.055	0.201
-406.296	-26.007	0.212	0.124
-405.282	-97.629	-0.507	0.131
-404.267	-35.619	0.188	0.102
-403.252	-10.338	0.262	0.173
-402.238	800.000	-0.058	-0.162
-401.223	-200.000	0.026	0.356
-400.209	-200.000	0.053	0.317
-399.194	800.000	-0.102	-0.391
-398.179	297.477	0.120	0.220
-397.165	21.113	-0.116	0.093
-396.150	-200.000	0.004	0.134
-395.136	-200.000	0.014	0.289
-394.121	-181.047	0.106	0.002
-393.106	-40.190	0.323	-0.167
-392.092	800.000	-0.043	-0.179
-391.077	800.000	-0.068	-0.191
-390.063	502.109	0.030	-0.069
-389.048	409.003	0.086	0.182
-388.033	213.443	0.094	0.148
-387.019	-83.789	0.384	0.122
-386.004	800.000	0.023	0.092
-384.990	227.876	-0.141	0.229
-383.975	-12.061	-0.150	-0.098
-382.960	-200.000	-0.004	-0.316
-381.946	-10.217	-0.183	-0.121
-380.931	-65.506	0.118	0.047
-379.917	-200.000	0.011	-0.142
-378.902	-53.095	0.099	-0.045
-377.888	800.000	0.121	-0.364
-376.873	220.370	-0.158	0.252
-375.858	402.201	-0.087	0.182
-374.844	-64.868	0.305	0.123
-373.829	225.508	0.135	-0.218
-372.815	-102.327	0.229	-0.055
-371.800	209.292	-0.155	-0.242
-370.785	136.272	0.030	-0.039
-369.771	145.386	0.093	0.124
-368.756	-38.135	0.224	0.118
-367.742	-30.009	-0.251	0.142
-366.727	192.911	-0.128	0.192
-365.712	800.000	-0.061	0.239
-364.698	-20.091	0.290	0.178
-363.683	-175.293	0.091	-0.002
-362.669	-200.000	0.041	-0.270
-361.654	-200.000	0.064	-0.292
-360.639	-200.000	0.007	0.058
-359.625	-73.079	0.218	0.080
-358.610	800.000	-0.078	0.270
-357.596	-83.933	-0.265	0.084
-356.581	-45.538	0.387	0.190
-355.566	121.597	-0.224	0.278
-354.552	401.859	-0.150	0.314
-353.537	-161.401	0.257	-0.013
-352.523	3.952	0.058	0.042
-351.508	27.864	-0.381	0.319
-350.493	82.325	-0.077	-0.083
-349.479	61.040	-0.049	0.048
-348.464	800.000	-0.026	-0.103
-347.450	203.670	-0.234	-0.360
-346.435	420.244	-0.159	-0.339
-345.420	413.081	-0.095	-0.200
-344.406	-38.778	-0.218	0.114
-343.391	-29.643	0.256	0.145
-342.377	-200.000	-0.034	0.162
-341.362	334.541	0.105	0.203
-340.348	-46.644	0.328	0.159
-339.333	-63.025	-0.259	0.106
-338.318	800.000	-0.028	0.107
-337.304	664.677	-0.065	0.167
-336.289	27.396	0.336	-0.280
-335.275	-48.520	0.363	0.173
-334.260	-200.000	0.044	0.288
-333.245	-23.990	-0.303	-0.180
-332.231	-54.260	-0.133	-0.060
-331.216	800.000	-0.104	0.344
-330.202	-200.000	-0.004	-0.031
-329.187	-185.133	-0.142	-0.002
-328.172	-200.000	-0.012	-0.136
-327.158	-77.318	-0.270	0.093
-326.143	-89.990	0.115	-0.033
-325.129	7.498	0.099	0.073
-324.114	-200.000	-0.020	-0.163
-323.099	800.000	0.071	-0.236
-322.085	220.178	-0.110	0.174
-321.070	204.241	0.040	-0.062
-320.056	-200.000	-0.011	-0.168
-319.041	90.462	-0.088	0.097
-318.026	-2.469	0.386	0.268
-317.012	-200.000	0.018	-0.205
-315.997	285.870	-0.095	-0.170
-314.983	67.436	0.080	-0.081
-313.968	800.000	-0.076	-0.236
-312.953	-200.000	-0.093	-0.552
-311.939	-146.548	-0.281	-0.024
-310.924	-200.000	-0.035	-0.160
-309.910	-65.973	-0.018	-0.007
-308.895	-149.283	-0.238	-0.019
-307.880	537.447	-0.007	0.016
-306.866	-170.466	0.284	0.010
-305.851	-43.743	-0.207	0.103
-304.837	-5.753	-0.137	-0.093
-303.822	-95.442	-0.133	-0.035
-302.807	232.835	0.104	0.169
-301.793	-72.768	0.080	0.029
-300.778	-168.757	0.292	-0.011
-299.764	235.170	0.038	0.062
-298.749	467.016	0.076	0.168
-297.735	800.000	-0.015	-0.043
-296.720	-25.989	0.310	-0.181
-295.705	-70.163	0.182	0.069
-294.691	-200.000	0.019	-0.139
-293.676	541.907	-0.027	0.065
-292.662	-78.246	-0.227	-0.077
-291.647	27.451	0.236	-0.197
-290.632	-112.051	-0.236	-0.047
-289.618	-76.576	-0.256	-0.089
-288.603	14.690	0.051	-0.040
-287.589	40.518	0.138	0.124
-286.574	34.113	-0.132	0.114
-285.559	-128.200	0.223	0.032
-284.545	46.826	0.187	-0.172
-283.530	594.729	-0.106	-0.259
-282.516	381.733	-0.041	0.083
-281.501	-96.563	-0.036	0.009
-280.486	-137.244	-0.181	0.020
-279.472	413.747	0.069	-0.146
-278.457	-200.000	-0.340	0.001
-277.443	-38.173	-0.131	0.069
-276.428	-13.747	0.221	-0.141
-275.413	145.902	-0.168	-0.223
-274.399	-200.000	0.018	0.133
-273.384	-167.855	-0.372	0.014
-272.370	-130.917	0.177	0.023
-271.355	39.274	-0.072	0.064
-270.340	-54.235	0.241	0.108
-269.326	-200.000	-0.021	-0.129
-268.311	9.501	0.315	-0.236
-267.297	35.851	-0.036	0.031
-266.282	800.000	0.070	0.224
-265.267	-200.000	-0.022	0.333
-264.253	-93.584	-0.299	0.082
-263.238	312.795	0.047	-0.088
-262.224	57.708	-0.188	0.182
-261.209	80.800	-0.131	-0.140
-260.195	800.000	-0.118	0.380
-259.180	800.000	0.021	-0.080
-258.165	244.255	0.175	0.291
-257.151	596.344	-0.121	0.297
-256.136	225.059	-0.077	-0.124
-255.122	-12.939	0.229	0.147
-254.107	37.140	0.280	-0.246
-253.092	585.481	-0.164	-0.400
-252.078	-200.000	-0.037	0.255
-251.063	178.367	-0.211	-0.305
-250.049	331.287	-0.078	-0.150
-249.034	-60.228	-0.077	0.032
-248.019	-86.042	0.179	0.055
-247.005	-200.000	-0.077	-0.443
-245.990	-107.296	0.321	-0.070
-244.976	99.655	-0.039	0.044
-243.961	230.273	-0.120	0.194
-242.946	-200.000	-0.012	-0.131
-241.932	-200.000	-0.029	0.297
-240.917	-0.707	0.116	-0.081
-239.903	800.000	0.086	-0.250
-238.888	49.737	0.098	-0.091
-237.873	522.480	-0.035	-0.081
-236.859	717.761	0.029	0.076
-235.844	657.652	0.086	0.218
-234.830	335.955	-0.142	0.272
-233.815	40.720	0.033	-0.030
-232.800	411.041	-0.106	-0.222
-231.786	-57.523	-0.061	-0.026
-230.771	-200.000	0.011	-0.205
-229.757	-24.411	-0.026	0.015
-228.742	67.442	-0.130	0.131
-227.727	800.000	0.047	-0.166
-226.713	800.000	0.035	-0.111
-225.698	-30.264	-0.117	0.065
-224.684	800.000	0.090	0.371
-223.669	258.112	-0.062	0.106
-222.655	-19.166	0.181	0.111
-221.640	-7.152	-0.252	0.169
-220.625	-85.892	0.215	0.066
-219.611	81.803	0.232	0.248
-218.596	263.614	-0.070	-0.120
-217.582	-76.361	0.156	0.054
-216.567	560.148	0.045	-0.106
-215.552	-188.145	0.444	-0.006
-214.538	-110.437	0.377	0.077
-213.523	56.021	-0.334	-0.320
-212.509	75.367	-0.194	-0.203
-211.494	197.760	0.191	0.288
-210.479	-59.076	-0.105	-0.045
-209.465	94.860	-0.366	-0.412
-208.450	-56.043	-0.097	-0.043
-207.436	-0.973	-0.220	0.154
-206.421	800.000	-0.050	0.203
-205.406	800.000	-0.050	-0.146
-204.392	800.000	0.088	-0.295
-203.377	181.255	0.101	-0.147
-202.363	83.361	0.121	0.130
-201.348	-200.000	-0.000	0.206
-200.333	-169.262	-0.013	-0.000
-199.319	159.628	0.198	-0.272
-198.304	10.873	0.177	-0.133
-197.290	-96.874	0.073	-0.019
-196.275	800.000	0.065	0.218
-195.260	-106.573	-0.143	-0.031
-194.246	284.136	-0.186	0.330
-193.231	386.394	0.128	0.261
-192.217	24.942	0.071	0.058
-191.202	70.516	0.134	-0.137
-190.187	-99.644	-0.349	-0.086
-189.173	800.000	0.010	0.038
-188.158	132.954	0.100	-0.128
-187.144	-65.499	-0.218	-0.087
-186.129	-124.329	0.328	-0.050
-185.114	735.740	-0.029	0.078
-184.100	-21.527	-0.155	0.093
-183.085	19.719	0.165	-0.131
-182.071	25.259	0.208	-0.170
-181.056	534.533	-0.178	0.415
-180.042	-200.000	-0.094	0.446
-179.027	-177.253	0.302	-0.007
-178.012	-188.502	0.220	-0.003
-176.998	5.496	-0.172	-0.125
-175.983	43.518	0.159	-0.143
-174.969	212.635	0.132	-0.206
-173.954	-200.000	-0.018	-0.088
-172.939	800.000	-0.058	0.179
-171.925	344.372	0.098	-0.189
-170.910	370.637	-0.218	-0.436
-169.896	282.723	-0.026	-0.046
-168.881	53.056	0.256	0.242
-167.866	-200.000	0.003	0.204
-166.852	125.450	0.132	-0.164
-165.837	-16.646	-0.185	-0.116
-164.823	198.485	-0.229	0.345
-163.808	16.232	-0.116	-0.090
-162.793	-200.000	-0.068	0.370
-161.779	102.785	-0.294	0.339
-160.764	343.864	0.075	0.145
-159.750	-61.060	-0.248	0.103
-158.735	-200.000	-0.036	0.227
-157.720	15.797	0.125	-0.097
-156.706	-0.308	0.106	-0.074
-155.691	66.806	-0.017	-0.018
-154.677	122.114	0.291	0.358
-153.662	800.000	0.088	0.252
-152.647	8.775	-0.133	-0.099
-151.633	433.034	-0.106	-0.228
-150.618	87.703	-0.221	0.241
-149.604	-200.000	-0.016	-0.152
-148.589	-200.000	-0.027	-0.304
-147.574	176.689	0.204	0.292
-146.560	695.163	-0.040	0.102
-145.545	49.594	0.278	0.258
-144.531	-171.527	-0.074	0.002
-143.516	206.986	0.088	-0.134
-142.502	-7.771	-0.200	0.133
-141.487	-20.638	0.207	0.125
-140.472	209.681	-0.060	-0.093
-139.458	300.506	-0.178	0.323
-138.443	-142.893	-0.067	0.006
-137.429	-200.000	0.019	-0.308
-136.414	-68.635	-0.287	0.109
-135.399	44.395	-0.152	0.138
-134.385	100.421	0.268	0.307
-133.370	-17.356	-0.245	-0.152
-132.356	-148.169	-0.040	0.003
-131.341	362.057	0.151	-0.299
-130.326	-106.465	-0.326	-0.072
-129.312	-99.125	-0.131	-0.033
-128.297	-2.933	0.344	-0.237
-127.283	-87.879	-0.420	0.124
-126.268	-114.760	-0.148	0.028
-125.253	40.103	-0.097	-0.086
-124.239	108.391	-0.186	0.219
-123.224	-200.000	0.020	0.180
-122.210	-158.424	-0.127	-0.007
-121.195	401.824	0.170	0.351
-120.180	-200.000	0.008	0.234
-119.166	-200.000	0.002	-0.153
-118.151	-35.363	-0.306	-0.164
-117.137	177.637	-0.228	-0.327
-116.122	214.462	0.056	0.087
-115.107	438.901	0.071	-0.153
-114.093	629.406	0.088	-0.220
-113.078	241.714	0.084	0.138
-112.064	-116.730	-0.347	0.063
-111.049	48.717	0.272	-0.251
-110.034	-169.508	0.181	-0.006
-109.020	-105.043	0.467	-0.105
-108.005	-200.000	0.020	0.280
-106.991	170.484	-0.164	-0.231
-105.976	646.352	0.052	-0.131
-104.962	-39.358	-0.068	-0.035
-103.947	18.810	-0.098	0.077
-102.932	46.589	0.265	0.242
-101.918	-6.540	0.117	-0.078
-100.903	545.946	-0.142	0.333
-99.889	-84.525	0.265	-0.082
-98.874	-59.037	0.179	0.076
-97.859	-23.120	-0.132	0.078
-96.845	103.259	0.075	0.087
-95.830	77.084	0.045	-0.047
-94.816	10.850	-0.201	0.151
-93.801	32.368	0.329	-0.279
-92.786	-14.858	0.212	0.133
-91.772	199.415	0.110	0.166
-90.757	-89.801	-0.145	0.042
-89.743	-56.371	0.187	-0.082
-88.728	153.064	0.098	-0.131
-87.713	-89.444	0.267	-0.077
-86.699	-47.147	-0.206	-0.099
-85.684	-116.212	0.223	-0.041
-84.670	-14.838	-0.249	-0.157
-83.655	-200.000	-0.055	-0.278
-82.640	76.198	0.066	-0.069
-81.626	-122.816	-0.139	0.022
-80.611	-121.696	0.035	0.006
-79.597	13.490	-0.167	-0.128
-78.582	-79.874	0.072	-0.024
-77.567	-116.783	0.090	-0.016
-76.553	73.399	0.142	-0.146
-75.538	175.233	0.071	-0.101
-74.524	-160.409	0.137	0.007
-73.509	800.000	0.089	-0.266
-72.494	237.652	0.140	0.229
-71.480	-94.491	0.035	0.009
-70.465	-200.000	0.000	0.290
-69.451	63.135	0.214	0.211
-68.436	-89.606	-0.203	-0.058
-67.422	-200.000	0.011	0.221
-66.407	-44.934	0.025	-0.012
-65.392	38.043	-0.074	0.064
-64.378	-89.181	-0.110	-0.032
-63.363	54.564	-0.077	0.073
-62.349	-71.334	0.132	-0.049
-61.334	297.643	-0.858	-1.549
-60.319	490.049	0.278	0.624
-59.305	-200.000	-0.253	-1.233
-58.290	204.099	0.661	1.006
-57.276	-200.000	0.226	1.336
-56.261	-200.000	106.199	586.312
-55.246	520.948	1466.768	3377.857
-54.232	183.277	2649.410	3842.719
-53.217	112.292	2143.471	2544.688
-52.203	41.342	1594.226	1415.513
-51.188	33.345	1333.308	1136.051
-50.173	30.377	1292.088	1083.594
-49.159	53.446	1345.624	1266.575
-48.144	54.282	1361.358	1286.315
-47.130	33.510	1316.378	1122.425
-46.115	30.081	1298.681	1087.214
-45.100	29.854	1293.706	1081.677
-44.086	29.824	1291.521	1079.630
-43.071	29.716	1289.791	1077.512
-42.057	29.784	1287.522	1075.968
-41.042	29.824	1285.729	1074.662
-40.027	29.865	1284.127	1073.519
-39.013	29.851	1282.237	1071.817
-37.998	29.843	1280.075	1069.916
-36.984	29.866	1278.350	1068.570
-35.969	29.986	1276.945	1068.040
-34.954	30.026	1274.868	1066.496
-33.940	29.973	1273.990	1065.412
-32.925	29.990	1272.529	1064.247
-31.911	30.020	1271.104	1063.186
-30.896	30.034	1269.600	1061.962
-29.881	29.981	1268.348	1060.570
-28.867	30.103	1266.245	1059.468
-27.852	30.059	1265.164	1058.271
-26.838	30.087	1264.417	1057.762
-25.823	30.199	1262.813	1057.019
-24.809	29.952	1261.760	1054.686
-23.794	30.120	1260.455	1054.513
-22.779	30.061	1258.909	1052.838
-21.765	29.901	1258.243	1051.334
-20.750	30.034	1256.494	1050.585
-19.736	29.885	1255.744	1049.069
-18.721	29.839	1254.561	1047.782
-17.706	30.018	1252.906	1047.369
-16.692	29.843	1252.105	1045.668
-15.677	29.950	1250.754	1045.105
-14.663	29.818	1249.954	1043.651
-13.648	29.881	1248.585	1042.818
-12.633	29.745	1247.680	1041.256
-11.619	29.762	1247.427	1041.097
-10.604	29.968	1245.502	1040.610
-9.590	29.886	1245.259	1039.905
-8.575	29.908	1243.861	1038.821
-7.560	29.925	1243.163	1038.292
-6.546	29.756	1242.239	1036.528
-5.531	29.820	1241.602	1036.316
-4.517	29.912	1240.096	1035.530
-3.502	30.049	1239.359	1035.641
-2.487	29.904	1238.717	1034.252
-1.473	29.778	1234.350	1029.868
-0.458	28.207	1219.708	1008.956
0.556	26.235	1201.742	970.253
1.571	22.253	1206.150	952.212
2.586	21.345	1219.796	957.925
3.600	20.920	1208.158	946.395
4.615	15.950	1138.204	866.027
5.629	7.789	1065.337	771.091
6.644	4.150	1046.412	739.974
7.659	3.728	1043.495	735.840
8.673	3.537	1042.181	733.938
9.688	3.577	1040.777	733.073
10.702	3.980	1039.129	733.758
11.717	9.270	1046.050	763.774
12.731	17.753	1058.357	813.313
13.746	22.798	1064.209	841.862
14.761	23.602	1064.987	846.241
15.775	22.917	1063.959	842.086
16.790	22.404	1061.868	837.914
17.804	21.934	1060.788	834.753
18.819	21.590	1060.364	832.710
19.834	21.767	1059.685	832.945
20.848	21.840	1059.000	832.676
21.863	21.713	1058.517	831.623
22.877	21.472	1057.802	829.842
23.892	21.458	1056.761	828.888
24.907	21.440	1055.954	828.096
25.921	21.290	1055.150	826.682
26.936	21.218	1053.465	824.947
27.950	21.269	1052.346	824.242
28.965	21.360	1050.503	823.154
29.980	21.512	1049.501	823.011
30.994	21.687	1048.512	822.981
32.009	21.664	1047.491	822.000
33.023	21.534	1046.956	820.898
34.038	21.481	1045.800	819.671
35.053	21.341	1045.162	818.444
36.067	21.281	1043.609	816.872
37.082	21.385	1043.191	816.960
38.096	21.460	1042.491	816.688
39.111	21.538	1041.954	816.562
40.126	21.376	1040.321	814.454
41.140	20.997	1039.041	811.618
42.155	20.693	1037.498	808.925
43.169	20.844	1036.340	808.653
44.184	20.659	1035.305	806.918
45.199	20.672	1034.956	806.635
46.213	21.064	1034.024	807.649
47.228	21.395	1033.824	808.957
48.242	21.426	1033.609	808.856
49.257	21.452	1032.076	807.707
50.271	21.572	1031.357	807.626
51.286	21.792	1030.764	808.104
52.301	21.630	1029.583	806.363
53.315	21.384	1028.879	804.606
54.330	21.327	1027.533	803.220
55.344	21.213	1026.430	801.765
56.359	21.220	1025.794	801.229
57.374	20.979	1024.733	799.223
58.388	20.844	1023.917	797.900
59.403	20.807	1022.991	796.937
60.417	20.843	1022.191	796.411
61.432	20.745	1021.594	795.426
62.447	20.845	1020.592	795.030
63.461	20.800	1019.361	793.798
64.476	20.524	1019.018	792.203
65.490	20.457	1017.986	791.025
66.505	20.557	1017.632	791.133
67.520	20.546	1017.257	790.723
68.534	20.567	1015.938	789.722
69.549	20.478	1015.010	788.529
70.563	20.401	1014.145	787.435
71.578	20.203	1013.299	785.813
72.593	20.037	1012.741	784.558
73.607	19.971	1011.799	783.462
74.622	20.146	1011.359	783.844
75.636	20.199	1010.980	783.721
76.651	20.381	1010.338	783.975
77.666	20.438	1009.743	783.698
78.680	20.267	1008.967	782.259
79.695	20.377	1008.180	782.072
80.709	20.666	1007.674	782.914
81.724	20.632	1007.393	782.471
82.739	20.873	1006.573	782.847
83.753	21.471	1005.888	784.933
84.768	21.653	1006.250	785.959
85.782	22.029	1005.407	786.919
86.797	21.881	1004.320	785.335
87.812	21.620	1003.571	783.512
88.826	21.687	1002.274	782.729
89.841	21.858	1001.664	782.949
90.855	22.072	1000.556	782.968
91.870	21.793	1000.274	781.435
92.884	21.911	998.821	780.753
93.899	21.791	997.907	779.435
94.914	21.849	997.299	779.149
95.928	21.745	996.421	777.934
96.943	21.581	995.192	776.181
97.957	21.527	994.321	775.193
98.972	21.576	993.732	774.880
99.987	21.775	992.916	775.058
101.001	21.565	992.134	773.450
102.016	21.640	990.765	772.645
103.030	21.624	990.758	772.502
104.045	21.819	989.369	772.206
105.060	21.452	988.519	769.860
106.074	21.290	987.532	768.310
107.089	20.965	986.401	765.937
108.103	20.883	985.021	764.435
109.118	20.702	983.878	762.688
110.133	20.467	983.060	760.960
111.147	20.412	982.060	759.876
112.162	20.582	981.706	760.278
113.176	20.810	981.024	760.680
114.191	20.689	980.520	759.695
115.206	20.777	979.506	759.226
116.220	20.676	978.658	758.057
117.235	20.705	977.662	757.347
118.249	20.632	977.233	756.630
119.264	20.476	976.153	755.050
120.279	20.324	975.365	753.711
121.293	20.267	974.459	752.698
122.308	20.260	973.166	751.605
123.322	20.125	972.487	750.427
124.337	19.955	971.869	749.149
125.352	20.097	970.589	748.710
126.366	20.215	969.340	748.188
127.381	20.216	968.743	747.665
128.395	20.262	968.565	747.660
129.410	20.248	967.662	746.839
130.424	20.482	966.714	747.047
131.439	20.802	966.088	747.870
132.454	20.755	965.315	747.006
133.468	20.910	964.209	746.745
134.483	20.901	963.658	746.215
135.497	20.805	962.930	745.175
136.512	20.914	961.956	744.821
137.527	20.809	961.411	743.885
138.541	20.872	960.659	743.507
139.556	21.036	959.725	743.416
140.570	21.224	959.449	743.936
141.585	21.500	958.648	744.425
142.600	21.575	957.853	744.063
143.614	21.663	957.457	744.060
144.629	21.816	956.560	743.949
145.643	21.591	955.693	742.255
146.658	21.468	953.937	740.306
147.673	21.121	953.202	738.201
148.687	21.020	952.060	736.823
149.702	20.870	950.735	735.100
150.716	20.882	950.294	734.746
151.731	20.963	949.831	734.664
152.746	21.064	948.690	734.141
153.760	21.168	947.976	733.959
154.775	21.291	947.988	734.423
155.789	21.244	947.343	733.661
156.804	21.216	946.432	732.772
157.819	21.403	946.075	733.216
158.833	21.605	945.589	733.620
159.848	21.641	944.995	733.246
160.862	21.486	943.431	731.321
161.877	21.089	942.254	728.684
162.892	20.810	940.921	726.424
163.906	20.729	939.982	725.296
164.921	20.706	938.876	724.284
165.935	20.897	937.923	724.279
166.950	21.121	937.280	724.648
167.964	20.986	936.488	723.415
168.979	21.016	935.229	722.500
169.994	20.903	934.563	721.456
171.008	21.125	934.301	722.108
172.023	21.517	933.501	723.047
173.037	21.534	933.168	722.795
174.052	21.214	932.197	720.656
175.067	20.849	931.384	718.459
176.081	20.734	930.164	716.980
177.096	20.675	929.726	716.337
178.110	20.733	929.389	716.255
179.125	20.666	928.921	715.551
180.140	20.993	928.282	716.343
181.154	21.207	928.257	717.138
182.169	21.399	928.064	717.713
183.183	21.448	927.570	717.469
184.198	21.333	926.395	716.027
185.213	21.323	925.961	715.588
186.227	21.562	924.808	715.607
187.242	21.565	924.769	715.528
188.256	21.654	924.260	715.435
189.271	21.782	923.440	715.257
190.286	21.276	922.626	712.501
191.300	20.710	920.935	708.829
192.315	20.287	920.283	706.542
193.329	20.559	919.693	707.134
194.344	20.868	919.517	708.191
195.359	21.085	918.819	708.471
196.373	21.111	918.168	708.013
197.388	21.338	918.637	709.231
198.402	21.674	918.477	710.410
199.417	21.894	917.736	710.664
200.432	22.109	917.132	711.002
201.446	22.088	917.028	710.776
202.461	22.060	916.439	710.145
203.475	21.946	915.432	708.841
204.490	21.483	914.629	706.287
205.504	21.386	913.679	705.098
206.519	21.293	912.807	703.989
207.534	21.292	912.168	703.430
208.548	21.422	911.668	703.507
209.563	21.417	910.927	702.851
210.577	21.528	910.283	702.737
211.592	21.949	909.613	703.847
212.607	22.054	909.448	704.079
213.621	21.680	908.661	701.910
214.636	21.797	907.563	701.465
215.650	21.840	906.974	701.120
216.665	21.917	906.577	701.058
217.680	22.071	905.781	700.998
218.694	21.889	905.434	699.939
219.709	21.912	904.579	699.307
220.723	21.719	904.227	698.206
221.738	21.825	903.094	697.692
222.753	21.746	902.525	696.876
223.767	21.849	902.165	696.946
224.782	22.175	901.890	697.964
225.796	22.109	901.244	697.142
226.811	21.807	900.809	695.545
227.826	21.492	899.846	693.494
228.840	21.539	899.140	693.073
229.855	21.470	898.056	691.902
230.869	21.494	897.382	691.417
231.884	21.383	896.878	690.529
232.899	21.275	895.874	689.271
233.913	21.210	895.306	688.517
234.928	21.096	894.348	687.267
235.942	21.083	893.472	686.482
236.957	21.120	892.859	686.098
237.972	21.076	893.013	685.982
238.986	21.068	892.164	685.238
240.001	21.048	891.839	684.850
241.015	21.196	890.872	684.626
242.030	21.346	890.884	685.162
243.045	21.588	890.084	685.435
244.059	21.438	889.610	684.420
245.074	21.635	889.246	684.851
246.088	21.753	888.821	684.925
247.103	21.906	888.416	685.152
248.117	22.247	888.465	686.459
249.132	22.604	888.413	687.751
250.147	22.772	888.036	688.054
251.161	22.923	887.121	687.871
252.176	23.010	886.120	687.371
253.190	22.971	885.896	686.986
254.205	22.935	885.520	686.494
255.220	22.834	884.762	685.454
256.234	22.687	883.908	684.162
257.249	22.772	883.301	683.961
258.263	22.611	882.536	682.684
259.278	22.733	881.721	682.467
260.293	22.918	881.155	682.683
261.307	22.888	880.981	682.369
262.322	23.041	880.185	682.285
263.336	22.867	879.394	680.940
264.351	22.850	878.283	679.954
265.366	22.977	877.932	680.112
266.380	22.939	877.233	679.364
267.395	22.851	876.779	678.612
268.409	22.613	876.051	677.077
269.424	22.668	875.019	676.429
270.439	22.572	874.463	675.572
271.453	22.470	873.793	674.603
272.468	22.494	872.858	673.913
273.482	22.645	872.459	674.125
274.497	22.398	872.212	672.928
275.512	22.304	871.664	672.086
276.526	22.517	871.313	672.569
277.541	22.524	870.854	672.184
278.555	22.832	870.402	672.950
279.570	23.047	869.879	673.306
280.585	22.877	869.065	671.967
281.599	22.643	868.239	670.381
282.614	22.477	867.478	669.101
283.628	22.436	866.383	668.043
284.643	22.488	866.066	667.937
285.657	22.518	865.244	667.357
286.672	22.632	864.669	667.286
287.687	22.587	864.656	667.048
288.701	22.575	864.079	666.496
289.716	22.578	863.142	665.727
290.730	22.667	862.824	665.760
291.745	22.572	862.535	665.119
292.760	22.932	861.758	665.818
293.774	23.157	861.477	666.388
294.789	23.047	860.627	665.260
295.803	22.616	859.609	662.792
296.818	22.461	859.016	661.693
297.833	22.541	858.284	661.371
298.847	22.516	857.896	660.923
299.862	22.578	857.562	660.837
300.876	22.862	857.205	661.568
301.891	23.048	856.961	662.018
302.906	23.156	856.531	662.030
303.920	23.395	855.987	662.445
304.935	23.397	855.663	662.143
305.949	23.337	854.530	660.983
306.964	23.023	853.526	658.980
307.979	22.984	853.525	658.774
308.993	23.129	852.872	658.755
310.008	23.067	852.270	657.998
311.022	23.092	851.686	657.584
312.037	22.754	850.897	655.662
313.052	22.604	849.579	654.031
314.066	22.334	848.863	652.421
315.081	22.518	848.488	652.755
316.095	22.532	848.002	652.377
317.110	22.530	847.506	651.929
318.125	22.369	847.071	650.940
319.139	22.178	846.582	649.802
320.154	22.361	845.964	649.945
321.168	22.457	845.553	649.927
322.183	22.672	844.959	650.206
323.197	22.723	844.631	650.083
324.212	22.541	844.199	649.024
325.227	22.477	843.405	648.120
326.241	22.447	842.794	647.481
327.256	22.493	842.036	647.010
328.270	22.438	841.440	646.296
329.285	22.461	840.977	645.968
330.300	22.384	839.941	644.833
331.314	22.466	839.823	644.983
332.329	22.726	839.781	645.848
333.343	22.837	839.480	645.963
334.358	22.732	839.529	645.562
335.373	22.830	838.951	645.418
336.387	23.052	838.150	645.557
337.402	23.129	838.439	646.003
338.416	23.443	837.724	646.537
339.431	23.617	837.957	647.294
340.446	23.702	837.714	647.360
341.460	23.693	837.610	647.189
342.475	23.745	836.916	646.786
343.489	23.812	836.807	646.888
344.504	23.914	836.390	646.879
345.519	24.086	835.541	646.789
346.533	23.799	834.989	645.267
347.548	23.517	834.082	643.483
348.562	23.271	833.280	641.915
349.577	23.087	832.585	640.658
350.592	23.050	831.806	639.868
351.606	22.903	830.994	638.654
352.621	22.942	830.631	638.459
353.635	23.138	829.671	638.373
354.650	23.085	829.080	637.670
355.665	23.168	828.791	637.692
356.679	23.212	828.660	637.692
357.694	23.347	827.776	637.443
358.708	23.286	826.778	636.399
359.723	23.199	826.406	635.742
360.738	23.252	825.630	635.279
361.752	23.302	825.405	635.230
362.767	23.530	825.169	635.810
363.781	23.838	824.604	636.420
364.796	24.034	824.579	637.047
365.810	24.168	824.097	637.097
366.825	24.040	823.879	636.416
367.840	24.035	823.057	635.704
368.854	23.671	822.306	633.770
369.869	23.527	822.354	633.236
370.883	23.578	821.891	633.006
371.898	23.900	821.540	633.828
372.913	24.132	820.911	634.111
373.927	23.732	820.426	632.258
374.942	23.748	820.014	631.942
375.956	23.868	819.543	631.951
376.971	24.174	819.055	632.605
377.986	24.258	819.288	633.026
379.000	24.218	818.442	632.176
380.015	24.208	817.528	631.376
381.029	24.218	816.936	630.901
382.044	24.181	816.255	630.187
383.059	24.253	815.744	629.991
384.073	24.035	815.227	628.767
385.088	23.767	814.116	626.908
386.102	23.498	813.515	625.442
387.117	23.473	812.963	624.873
388.132	23.436	812.536	624.360
389.146	23.678	811.762	624.562
390.161	23.848	812.047	625.324
391.175	24.125	811.134	625.538
392.190	23.961	809.995	624.029
393.205	23.658	809.593	622.601
394.219	23.412	809.479	621.596
395.234	23.339	808.807	620.769
396.248	23.354	808.229	620.322
397.263	23.303	807.708	619.690
398.278	23.200	807.442	619.071
399.292	23.110	806.739	618.164
400.307	23.081	806.220	617.609
401.321	23.219	805.819	617.728
402.336	23.453	805.700	618.400
403.350	23.734	805.438	619.124
404.365	24.050	805.446	620.176
405.380	24.330	805.202	620.909
406.394	24.359	804.747	620.604
407.409	24.468	804.481	620.721
408.423	24.522	804.241	620.671
409.438	24.397	804.052	620.036
410.453	24.652	803.198	620.204
411.467	24.614	802.745	619.670
412.482	24.676	802.790	619.863
413.496	24.700	802.228	619.460
414.511	24.752	801.592	619.093
415.526	24.532	801.223	617.993
416.540	24.553	800.342	617.329
417.555	24.487	800.354	617.058
418.569	24.481	799.636	616.427
419.584	24.547	799.218	616.279
420.599	24.450	798.734	615.516
421.613	163.648	1370.477	1796.553
422.628	142.136	1453.751	1796.649
