DTS Sentinel unit serial number:	SN413079Multiplexer serial number:	ORYXHardware model number:	OX4-SRSoftware version number:	ORYX F/W v4.00 Oryx Data Collector v3.7.2.0data status	okinstallation	princeton_trtdifferential loss correction	single-endedforward channel	channel 1reverse channel	N/Adate	2019/09/11time	07:28:11forward acquisition time	60.00reverse acquisition time	0.00gamma	496.2192k internal	0.2327k external	0.2327temperature offset calibration	0.9913default loss term (dB/km)	0.3790temperature slope calibration	1.0000multiplexer offset coefficient	1.0000multiplexer slope coefficient	1.0000fibre end	0.00T internal ref (°C)	31.00T ext. ref 1 (°C)	-0.07T ext. ref 2 (°C)	27.51length (m)	temperature (°C)	Stokes	anti-Stokes-747.200	-94.416	-0.253	0.070
-746.185	800.000	0.059	0.194
-745.171	-2.905	-0.081	-0.057
-744.156	357.014	-0.113	0.227
-743.142	-63.496	-0.261	0.108
-742.127	94.903	-0.130	0.149
-741.112	-200.000	0.055	-0.437
-740.098	-18.198	0.087	-0.055
-739.083	30.951	-0.155	-0.134
-738.069	608.643	-0.126	0.317
-737.054	119.851	0.058	-0.072
-736.039	34.492	-0.225	-0.198
-735.025	535.834	-0.076	0.181
-734.010	-91.379	-0.186	-0.054
-732.996	12.414	0.464	-0.360
-731.981	7.895	0.134	-0.101
-730.966	-45.977	-0.128	0.064
-729.952	-154.709	-0.171	0.011
-728.937	-31.222	0.072	-0.041
-727.923	338.151	0.052	-0.101
-726.908	-200.000	0.043	-0.365
-725.894	-200.000	0.031	-0.239
-724.879	69.336	0.048	-0.050
-723.864	-200.000	-0.008	-0.337
-722.850	95.758	-0.147	-0.169
-721.835	-200.000	-0.020	0.375
-720.821	-200.000	-0.047	-0.372
-719.806	-200.000	0.045	-0.444
-718.791	190.899	-0.109	-0.164
-717.777	331.155	0.033	0.065
-716.762	800.000	-0.079	0.327
-715.748	393.058	0.073	0.153
-714.733	782.104	0.151	-0.416
-713.718	14.831	0.151	0.119
-712.704	742.034	0.047	-0.127
-711.689	-96.699	-0.145	0.038
-710.675	318.886	0.129	-0.245
-709.660	800.000	0.085	-0.368
-708.645	140.274	0.017	-0.023
-707.631	174.785	0.015	0.022
-706.616	800.000	0.132	0.460
-705.602	-44.041	0.153	0.077
-704.587	-200.000	-0.011	-0.180
-703.572	-73.611	0.248	0.091
-702.558	169.794	0.293	0.421
-701.543	106.493	-0.175	-0.209
-700.529	133.119	-0.145	0.189
-699.514	-79.896	-0.167	-0.057
-698.499	-200.000	0.021	-0.439
-697.485	-68.423	-0.387	-0.151
-696.470	-200.000	-0.004	-0.100
-695.456	-43.715	0.394	-0.200
-694.441	-42.992	0.248	-0.126
-693.426	-21.342	-0.198	0.122
-692.412	121.065	-0.071	-0.089
-691.397	-46.860	-0.220	0.108
-690.383	53.709	-0.135	0.130
-689.368	-40.679	-0.380	0.198
-688.354	800.000	-0.074	-0.323
-687.339	118.560	0.121	0.150
-686.324	263.448	0.129	0.225
-685.310	-97.155	-0.332	0.087
-684.295	3.843	-0.154	0.113
-683.281	800.000	-0.056	0.171
-682.266	-8.776	-0.025	0.017
-681.251	43.288	-0.199	0.182
-680.237	-23.872	-0.113	-0.068
-679.222	-7.026	0.039	-0.027
-678.208	-96.254	-0.323	0.086
-677.193	81.793	-0.103	-0.112
-676.178	-89.695	0.109	0.032
-675.164	-200.000	0.021	0.243
-674.149	-200.000	-0.025	-0.119
-673.135	96.633	-0.067	0.077
-672.120	383.597	-0.060	-0.124
-671.105	-59.900	-0.097	0.042
-670.091	-115.803	-0.137	0.026
-669.076	-111.712	-0.177	0.036
-668.062	-17.955	0.291	0.183
-667.047	-15.394	0.013	-0.008
-666.032	62.597	-0.150	-0.150
-665.018	-53.556	-0.084	-0.039
-664.003	-99.144	-0.140	0.036
-662.989	800.000	0.065	0.231
-661.974	-2.449	0.088	-0.062
-660.959	800.000	0.034	-0.115
-659.945	800.000	0.011	0.049
-658.930	-181.753	0.432	0.008
-657.916	55.027	-0.222	0.216
-656.901	98.306	0.061	0.070
-655.886	-200.000	-0.033	0.434
-654.872	-0.057	-0.105	0.075
-653.857	-107.315	-0.318	0.070
-652.843	-150.375	-0.515	0.040
-651.828	-114.226	0.048	-0.009
-650.814	800.000	-0.096	0.277
-649.799	-74.771	0.226	-0.081
-648.784	-137.943	-0.489	-0.055
-647.770	169.237	-0.185	0.265
-646.755	46.803	0.189	-0.176
-645.741	-200.000	0.000	0.282
-644.726	15.662	-0.140	-0.110
-643.711	26.696	-0.077	-0.065
-642.697	794.895	0.030	0.084
-641.682	-200.000	-0.030	-0.379
-640.668	800.000	0.043	0.150
-639.653	-200.000	-0.019	0.348
-638.638	-200.000	-0.021	-0.128
-637.624	-49.305	0.065	0.031
-636.609	-129.032	-0.098	-0.014
-635.595	221.074	0.277	-0.446
-634.580	-200.000	-0.046	-0.338
-633.565	-25.434	-0.268	-0.159
-632.551	-15.039	-0.170	-0.109
-631.536	95.388	-0.399	0.457
-630.522	281.330	-0.176	0.316
-629.507	32.736	-0.149	-0.130
-628.492	172.663	0.114	0.165
-627.478	-200.000	0.066	0.339
-626.463	-200.000	0.030	0.289
-625.449	-36.019	0.180	0.098
-624.434	800.000	-0.107	0.362
-623.419	-116.435	-0.002	0.000
-622.405	-10.655	-0.155	-0.103
-621.390	167.519	-0.102	-0.146
-620.376	-184.259	0.334	0.006
-619.361	58.501	0.146	-0.144
-618.346	-200.000	0.032	-0.200
-617.332	-2.835	-0.111	-0.078
-616.317	-108.864	-0.083	-0.018
-615.303	-200.000	0.054	0.268
-614.288	467.533	-0.127	0.286
-613.273	-200.000	0.078	-0.612
-612.259	-200.000	-0.055	-0.342
-611.244	-0.868	-0.162	-0.115
-610.230	28.256	0.228	0.194
-609.215	-200.000	-0.006	-0.201
-608.201	0.543	-0.289	-0.207
-607.186	312.598	0.086	-0.162
-606.171	288.880	-0.173	0.315
-605.157	-62.108	0.057	0.024
-604.142	-57.466	0.220	-0.097
-603.128	-85.722	-0.332	-0.103
-602.113	-200.000	0.008	-0.074
-601.098	327.487	-0.067	-0.129
-600.084	-6.199	0.296	-0.203
-599.069	-73.637	-0.090	-0.033
-598.055	104.985	-0.048	0.057
-597.040	-121.089	-0.099	0.017
-596.025	-77.421	-0.207	0.072
-595.011	70.318	-0.219	-0.227
-593.996	213.229	-0.069	-0.109
-592.982	-36.150	-0.198	0.107
-591.967	-50.982	0.207	0.097
-590.952	-166.429	0.012	-0.000
-589.938	-108.006	-0.125	-0.027
-588.923	-200.000	-0.013	-0.097
-587.909	535.170	0.009	0.021
-586.894	665.851	0.032	-0.084
-585.879	-121.584	0.135	-0.022
-584.865	294.339	0.061	0.111
-583.850	207.077	-0.190	-0.297
-582.836	-200.000	-0.041	-0.220
-581.821	-200.000	0.002	-0.167
-580.806	-43.117	-0.299	-0.152
-579.792	-168.663	0.143	-0.005
-578.777	-139.843	-0.093	0.010
-577.763	-96.256	0.264	0.070
-576.748	19.819	0.291	-0.235
-575.733	-14.388	0.110	0.071
-574.719	-200.000	0.029	-0.255
-573.704	-200.000	0.026	-0.359
-572.690	48.130	0.025	0.023
-571.675	-200.000	0.020	-0.228
-570.661	155.321	0.196	0.270
-569.646	-93.312	0.249	-0.069
-568.631	589.145	0.107	0.265
-567.617	-44.972	-0.152	-0.076
-566.602	800.000	0.196	0.556
-565.588	-78.107	0.146	0.050
-564.573	146.569	0.172	-0.231
-563.558	800.000	0.039	0.113
-562.544	-109.774	-0.242	-0.051
-561.529	-21.766	-0.200	0.122
-560.515	229.353	0.180	-0.294
-559.500	-137.074	0.084	-0.010
-558.485	-149.828	0.086	-0.007
-557.471	181.944	0.187	0.276
-556.456	31.474	-0.186	0.160
-555.442	27.282	-0.237	0.199
-554.427	-103.449	0.224	-0.053
-553.412	-200.000	0.011	0.204
-552.398	125.944	-0.058	0.073
-551.383	800.000	-0.048	-0.186
-550.369	421.666	0.254	0.545
-549.354	-85.520	0.246	0.076
-548.339	-72.729	0.128	-0.047
-547.325	-90.501	-0.156	-0.045
-546.310	96.956	-0.052	0.059
-545.296	275.099	0.039	0.069
-544.281	14.476	-0.028	0.022
-543.266	-175.033	0.371	-0.010
-542.252	800.000	-0.008	0.021
-541.237	-200.000	-0.025	-0.140
-540.223	-67.895	-0.218	-0.085
-539.208	-56.893	0.090	-0.040
-538.193	-200.000	-0.013	-0.298
-537.179	16.509	-0.146	-0.115
-536.164	-200.000	0.000	0.041
-535.150	394.525	-0.127	-0.266
-534.135	-154.369	-0.225	0.015
-533.121	223.315	0.096	-0.154
-532.106	-15.170	-0.213	-0.136
-531.091	-200.000	-0.008	0.129
-530.077	-81.214	-0.260	0.086
-529.062	-109.888	-0.273	0.057
-528.048	-40.959	-0.097	-0.050
-527.033	225.032	0.061	-0.099
-526.018	-83.378	-0.177	-0.057
-525.004	167.699	0.232	0.330
-523.989	289.495	0.038	0.069
-522.975	-75.631	0.166	0.059
-521.960	121.942	0.251	0.313
-520.945	15.097	0.169	0.132
-519.931	204.361	0.123	-0.190
-518.916	-200.000	0.010	-0.054
-517.902	433.623	0.144	0.312
-516.887	-115.163	0.076	-0.014
-515.872	-36.311	0.235	0.127
-514.858	-164.323	-0.095	0.004
-513.843	-23.491	-0.108	0.065
-512.829	44.445	-0.118	-0.109
-511.814	-200.000	0.009	0.239
-510.799	387.649	-0.193	0.399
-509.785	-95.001	-0.178	-0.048
-508.770	210.520	0.063	-0.098
-507.756	-32.446	0.206	0.114
-506.741	129.396	0.126	-0.161
-505.726	4.607	0.249	-0.182
-504.712	-60.845	-0.308	0.130
-503.697	202.832	-0.129	0.199
-502.683	362.168	0.032	0.064
-501.668	-200.000	-0.056	0.259
-500.653	47.357	-0.018	-0.017
-499.639	39.360	0.066	-0.059
-498.624	-52.749	0.091	-0.042
-497.610	-200.000	0.018	-0.107
-496.595	20.125	0.128	0.103
-495.581	-10.759	-0.117	-0.077
-494.566	107.891	0.176	-0.209
-493.551	-129.550	0.260	-0.036
-492.537	218.829	0.232	-0.370
-491.522	-26.884	0.226	0.132
-490.508	92.581	0.213	0.240
-489.493	-41.006	0.248	0.128
-488.478	-145.490	0.177	-0.016
-487.464	-118.447	-0.247	0.044
-486.449	800.000	0.079	0.328
-485.435	-158.304	-0.020	0.001
-484.420	-200.000	-0.014	-0.176
-483.405	-22.222	-0.280	-0.169
-482.391	-104.615	0.239	0.055
-481.376	-92.412	0.301	0.084
-480.362	-148.899	-0.342	-0.028
-479.347	-134.293	-0.264	-0.032
-478.332	51.243	-0.213	0.202
-477.318	3.840	0.398	-0.290
-476.303	800.000	-0.115	0.434
-475.289	-60.434	0.217	0.092
-474.274	-7.397	0.175	-0.118
-473.259	-161.484	-0.236	0.012
-472.245	535.857	0.072	-0.171
-471.230	250.108	0.125	-0.211
-470.216	-162.222	-0.228	-0.011
-469.201	800.000	-0.017	0.048
-468.186	-45.872	-0.096	-0.047
-467.172	-42.826	-0.262	-0.133
-466.157	-112.993	0.638	0.126
-465.143	388.450	-0.056	-0.115
-464.128	-98.593	0.189	0.048
-463.113	800.000	0.018	-0.052
-462.099	216.044	-0.099	-0.157
-461.084	800.000	-0.045	0.173
-460.070	286.614	-0.184	-0.332
-459.055	371.333	-0.104	-0.211
-458.040	-107.305	0.044	-0.010
-457.026	-200.000	-0.031	-0.276
-456.011	-200.000	0.014	0.167
-454.997	800.000	0.076	0.259
-453.982	130.832	-0.191	-0.244
-452.968	800.000	-0.085	0.239
-451.953	-34.963	-0.237	0.129
-450.938	800.000	-0.103	-0.408
-449.924	51.403	-0.155	-0.146
-448.909	-72.730	0.228	-0.084
-447.895	130.612	-0.092	-0.117
-446.880	170.031	0.153	0.217
-445.865	-176.914	-0.293	-0.007
-444.851	286.241	0.198	-0.357
-443.836	749.103	0.168	-0.450
-442.822	800.000	-0.039	-0.138
-441.807	129.903	0.142	0.181
-440.792	800.000	-0.021	0.064
-439.778	-200.000	0.016	-0.079
-438.763	558.714	-0.153	-0.367
-437.749	112.462	-0.136	-0.164
-436.734	23.235	-0.113	0.092
-435.719	-99.034	0.195	-0.049
-434.705	369.070	0.196	-0.395
-433.690	45.244	-0.144	0.132
-432.676	622.404	-0.063	-0.158
-431.661	592.907	0.108	-0.266
-430.646	218.446	0.054	0.086
-429.632	25.413	-0.129	0.107
-428.617	-10.312	0.103	0.068
-427.603	-200.000	-0.047	0.230
-426.588	-119.269	0.063	-0.011
-425.573	-74.613	0.324	0.116
-424.559	287.327	-0.073	-0.131
-423.544	78.682	0.127	0.136
-422.530	7.022	-0.166	-0.123
-421.515	-81.387	-0.141	-0.046
-420.500	-200.000	0.059	-0.269
-419.486	184.777	-0.189	0.279
-418.471	162.446	-0.060	-0.084
-417.457	-58.741	-0.240	0.103
-416.442	-84.965	0.155	0.048
-415.428	789.212	-0.083	-0.227
-414.413	666.008	0.005	-0.012
-413.398	-164.478	-0.534	0.024
-412.384	80.254	0.242	-0.260
-411.369	-46.703	0.089	0.043
-410.355	-48.487	-0.250	-0.120
-409.340	800.000	-0.089	-0.287
-408.325	-200.000	0.017	-0.281
-407.311	73.243	0.200	-0.208
-406.296	-200.000	0.001	-0.268
-405.282	-125.556	-0.238	0.036
-404.267	94.589	-0.187	-0.211
-403.252	-200.000	-0.015	-0.145
-402.238	-91.738	0.151	0.043
-401.223	-158.091	0.279	-0.016
-400.209	-200.000	-0.020	0.211
-399.194	-200.000	0.006	-0.038
-398.179	-107.026	-0.239	0.053
-397.165	-56.312	0.138	0.061
-396.150	-122.577	-0.227	-0.037
-395.136	800.000	0.071	0.289
-394.121	800.000	0.129	0.387
-393.106	442.283	-0.036	0.078
-392.092	61.602	0.138	0.136
-391.077	-111.895	-0.190	0.038
-390.063	37.398	-0.225	-0.198
-389.048	182.384	-0.105	-0.154
-388.033	241.665	0.130	-0.216
-387.019	-78.258	0.177	0.060
-386.004	-145.255	0.118	-0.011
-384.990	800.000	0.017	-0.060
-383.975	42.067	-0.223	0.202
-382.960	-100.600	0.382	-0.094
-381.946	-200.000	-0.015	0.143
-380.931	19.691	-0.157	0.125
-379.917	213.901	0.083	0.131
-378.902	-200.000	0.014	-0.151
-377.888	117.566	-0.015	0.019
-376.873	192.202	0.070	-0.104
-375.858	29.929	0.137	-0.116
-374.844	-165.500	0.155	0.007
-373.829	69.651	0.099	-0.101
-372.815	-58.750	0.211	0.091
-371.800	-200.000	-0.025	-0.153
-370.785	61.354	-0.103	-0.102
-369.771	-3.476	-0.081	-0.056
-368.756	-27.611	-0.049	0.029
-367.742	73.728	-0.179	-0.186
-366.727	3.779	0.128	0.093
-365.712	800.000	0.028	-0.118
-364.698	-145.901	0.290	0.026
-363.683	-114.144	-0.295	-0.057
-362.669	-148.283	0.222	0.018
-361.654	88.504	0.146	0.162
-360.639	-200.000	-0.060	0.269
-359.625	-74.921	-0.060	0.021
-358.610	125.692	-0.212	-0.266
-357.596	-64.899	-0.135	0.054
-356.581	-200.000	-0.007	0.218
-355.566	800.000	-0.077	0.259
-354.552	506.895	0.017	0.038
-353.537	-0.090	0.028	-0.020
-352.523	-200.000	-0.017	-0.209
-351.508	56.675	-0.286	0.277
-350.493	382.182	0.104	-0.213
-349.479	-47.473	-0.116	0.056
-348.464	-14.241	0.156	0.100
-347.450	-200.000	-0.017	0.294
-346.435	28.550	-0.198	0.166
-345.420	492.167	0.069	0.157
-344.406	-115.170	0.142	0.027
-343.391	-200.000	0.004	0.144
-342.377	-10.147	0.232	-0.153
-341.362	-200.000	-0.002	-0.012
-340.348	133.854	0.184	-0.237
-339.333	800.000	-0.044	-0.127
-338.318	-192.082	0.415	-0.004
-337.304	76.647	0.303	0.319
-336.289	-63.024	-0.299	0.123
-335.275	43.573	0.274	-0.249
-334.260	-200.000	-0.005	-0.031
-333.245	-54.269	-0.175	0.079
-332.231	-110.705	0.077	0.016
-331.216	156.604	-0.072	-0.099
-330.202	800.000	0.088	-0.254
-329.187	248.508	0.045	0.075
-328.172	212.161	-0.133	0.208
-327.158	-200.000	0.046	0.228
-326.143	156.559	0.066	-0.090
-325.129	225.477	0.052	0.083
-324.114	-200.000	-0.014	-0.126
-323.099	-200.000	0.007	-0.214
-322.085	552.794	-0.073	-0.174
-321.070	776.090	0.022	0.058
-320.056	-149.315	-0.389	0.031
-319.041	-124.557	-0.196	-0.030
-318.026	-102.288	0.143	-0.034
-317.012	125.289	0.094	-0.117
-315.997	-200.000	0.015	0.080
-314.983	-123.893	0.284	-0.044
-313.968	-200.000	-0.047	0.285
-312.953	-3.842	-0.015	-0.011
-311.939	153.284	0.066	0.089
-310.924	-171.897	-0.272	-0.009
-309.910	455.132	0.248	-0.545
-308.895	-81.671	0.183	-0.059
-307.880	-97.653	0.409	0.105
-306.866	-41.328	-0.298	-0.152
-305.851	-200.000	0.022	-0.136
-304.837	800.000	0.003	0.009
-303.822	78.323	0.086	0.091
-302.807	155.916	0.028	0.038
-301.793	-96.736	0.136	-0.035
-300.778	-55.196	0.075	-0.033
-299.764	201.247	-0.092	-0.141
-298.749	98.412	0.096	0.110
-297.735	549.513	-0.072	0.172
-296.720	-200.000	0.060	0.299
-295.705	-200.000	-0.004	0.126
-294.691	-107.192	-0.216	-0.047
-293.676	-200.000	-0.005	-0.042
-292.662	-200.000	-0.001	-0.234
-291.647	-63.559	-0.154	0.063
-290.632	-200.000	-0.001	0.261
-289.618	-146.693	0.177	0.015
-288.603	800.000	-0.085	-0.350
-287.589	-1.564	-0.199	-0.139
-286.574	581.808	0.062	0.150
-285.559	-139.041	-0.381	-0.041
-284.545	-200.000	0.013	0.068
-283.530	116.290	0.073	0.089
-282.516	76.863	-0.185	-0.194
-281.501	782.467	-0.092	-0.248
-280.486	147.970	-0.161	-0.215
-279.472	-11.854	-0.108	0.070
-278.457	800.000	-0.049	0.159
-277.443	-64.554	0.385	-0.155
-276.428	515.839	0.131	0.303
-275.413	-200.000	-0.010	0.539
-274.399	-18.759	0.267	0.165
-273.384	-35.857	-0.092	0.049
-272.370	-131.186	0.063	0.008
-271.355	-54.589	-0.382	0.171
-270.340	-125.167	-0.350	0.053
-269.326	800.000	-0.052	-0.144
-268.311	-94.008	-0.184	-0.050
-267.297	78.549	0.165	-0.174
-266.282	505.256	0.092	-0.211
-265.267	67.392	0.227	-0.229
-264.253	7.522	0.141	-0.104
-263.238	-88.628	0.266	-0.078
-262.224	330.934	-0.063	-0.121
-261.209	-37.625	-0.390	0.206
-260.195	202.538	0.022	0.034
-259.180	207.659	-0.088	-0.136
-258.165	-30.764	0.174	0.098
-257.151	-200.000	0.019	-0.178
-256.136	-200.000	0.038	0.214
-255.122	21.985	0.207	0.167
-254.107	480.621	0.135	0.303
-253.092	149.469	0.099	-0.132
-252.078	-3.410	0.406	0.280
-251.063	-15.527	0.239	0.151
-250.049	-16.836	0.062	0.039
-249.034	-200.000	0.003	-0.036
-248.019	-36.128	-0.329	0.176
-247.005	-107.042	0.139	0.030
-245.990	-175.053	0.219	0.006
-244.976	-162.600	0.263	0.013
-243.961	-15.297	0.060	0.038
-242.946	112.961	-0.206	-0.247
-241.932	-47.670	-0.113	-0.054
-240.917	-200.000	-0.256	-0.001
-239.903	116.590	0.150	0.181
-238.888	556.854	-0.055	-0.131
-237.873	48.002	0.204	0.188
-236.859	-200.000	0.000	0.177
-235.844	423.120	-0.049	-0.105
-234.830	-200.000	0.036	-0.270
-233.815	-34.149	0.124	-0.068
-232.800	800.000	-0.032	0.110
-231.786	58.128	-0.149	0.144
-230.771	-44.232	-0.028	0.014
-229.757	149.911	0.057	0.076
-228.742	391.185	-0.153	-0.315
-227.727	20.371	0.335	0.268
-226.713	-200.000	-0.001	-0.111
-225.698	17.745	-0.166	-0.131
-224.684	-68.397	0.108	0.042
-223.669	-124.595	0.046	-0.007
-222.655	475.516	0.121	0.271
-221.640	-200.000	0.019	-0.162
-220.625	-38.207	-0.192	-0.100
-219.611	-118.643	-0.108	0.019
-218.596	-125.114	0.184	-0.028
-217.582	-33.381	-0.064	0.035
-216.567	75.175	-0.234	0.244
-215.552	-192.387	0.203	0.002
-214.538	-104.810	-0.173	0.039
-213.523	42.092	-0.139	0.125
-212.509	800.000	0.078	0.245
-211.494	-173.314	0.342	-0.010
-210.479	-200.000	-0.008	0.141
-209.465	-38.009	-0.213	-0.112
-208.450	-61.721	-0.270	-0.112
-207.436	19.878	-0.112	-0.089
-206.421	-200.000	0.088	0.536
-205.406	24.367	0.400	0.326
-204.392	800.000	0.143	0.421
-203.377	-200.000	0.048	0.228
-202.363	-200.000	0.007	0.287
-201.348	480.875	0.044	-0.099
-200.333	338.576	-0.216	-0.414
-199.319	-143.441	-0.225	-0.021
-198.304	-200.000	-0.003	-0.267
-197.290	-161.500	-0.356	0.018
-196.275	37.198	0.175	0.153
-195.260	-200.000	-0.030	-0.351
-194.246	-200.000	0.008	-0.048
-193.231	59.395	0.043	-0.042
-192.217	800.000	0.025	-0.109
-191.202	-22.149	0.201	0.121
-190.187	59.532	-0.281	-0.273
-189.173	-200.000	-0.015	0.099
-188.158	150.979	-0.041	-0.056
-187.144	-75.785	-0.091	-0.032
-186.129	-64.125	0.122	-0.049
-185.114	39.616	0.162	-0.143
-184.100	-124.538	-0.251	0.038
-183.085	73.200	-0.159	-0.164
-182.071	-200.000	-0.422	0.002
-181.056	-78.154	-0.324	0.110
-180.042	460.752	0.097	0.214
-179.027	434.336	0.056	0.120
-178.012	-200.000	-0.017	0.281
-176.998	-82.651	0.157	0.050
-175.983	-135.761	0.156	-0.018
-174.969	800.000	0.065	-0.196
-173.954	-151.174	-0.195	0.014
-172.939	800.000	-0.043	-0.178
-171.925	384.169	-0.067	0.135
-170.910	-41.899	0.322	0.163
-169.896	88.012	0.124	-0.136
-168.881	80.126	0.213	0.225
-167.866	-200.000	-0.015	0.202
-166.852	-153.942	0.160	0.011
-165.837	-200.000	0.035	-0.252
-164.823	-171.745	-0.182	0.006
-163.808	-127.723	-0.369	0.053
-162.793	54.958	0.117	-0.111
-161.779	618.765	-0.243	0.602
-160.764	800.000	0.104	0.358
-159.750	43.346	0.095	-0.086
-158.735	-103.109	-0.241	-0.056
-157.720	-92.917	-0.103	0.028
-156.706	2.953	-0.232	0.166
-155.691	-8.866	-0.264	0.174
-154.677	-200.000	-0.013	0.059
-153.662	163.673	0.031	-0.043
-152.647	11.313	-0.043	0.032
-151.633	-200.000	0.001	0.114
-150.618	-200.000	0.019	0.416
-149.604	800.000	-0.038	0.126
-148.589	581.801	0.167	0.404
-147.574	-105.880	-0.343	0.076
-146.560	-62.823	0.258	0.105
-145.545	-200.000	-0.015	-0.251
-144.531	-109.163	0.184	-0.039
-143.516	800.000	0.092	-0.292
-142.502	-112.384	0.456	-0.090
-141.487	-200.000	-0.035	0.207
-140.472	-65.346	0.157	0.062
-139.458	-29.287	0.191	0.108
-138.443	-151.079	-0.249	-0.018
-137.429	-58.687	-0.357	-0.152
-136.414	110.480	0.027	-0.031
-135.399	-200.000	0.039	0.176
-134.385	127.382	0.205	-0.256
-133.370	-175.038	0.315	0.009
-132.356	800.000	0.094	0.373
-131.341	465.988	0.026	0.057
-130.326	-149.656	0.060	-0.005
-129.312	421.256	0.241	0.509
-128.297	-84.354	-0.030	0.009
-127.283	84.597	0.263	-0.283
-126.268	800.000	0.121	-0.426
-125.253	71.514	-0.382	-0.390
-124.239	-200.000	0.063	-0.388
-123.224	-114.329	0.271	-0.051
-122.210	800.000	0.025	0.095
-121.195	-9.111	0.168	-0.110
-120.180	781.910	-0.134	0.362
-119.166	534.485	-0.127	0.296
-118.151	-65.313	-0.242	-0.096
-117.137	800.000	0.029	0.082
-116.122	472.244	-0.117	-0.258
-115.107	-200.000	-0.038	-0.199
-114.093	-200.000	-0.055	-0.424
-113.078	38.784	-0.221	-0.194
-112.064	-6.816	-0.136	0.091
-111.049	-57.052	0.363	-0.157
-110.034	35.442	-0.217	-0.187
-109.020	-16.596	0.187	0.117
-108.005	-172.619	-0.145	-0.004
-106.991	39.114	0.134	-0.118
-105.976	138.143	0.072	-0.092
-104.962	-74.047	0.125	0.044
-103.947	-71.884	-0.173	0.063
-102.932	330.713	0.125	0.237
-101.918	-84.477	-0.155	-0.048
-100.903	800.000	-0.032	0.107
-99.889	99.557	0.170	-0.194
-98.874	-200.000	-0.011	0.114
-97.859	-90.110	0.215	0.062
-96.845	-8.844	0.279	0.184
-95.830	55.486	0.117	-0.111
-94.816	-92.845	-0.249	0.068
-93.801	-20.303	0.373	0.226
-92.786	72.578	0.206	-0.211
-91.772	619.841	0.087	-0.214
-90.757	17.662	0.199	0.155
-89.743	-11.939	-0.102	0.066
-88.728	72.816	0.108	-0.111
-87.713	-14.643	-0.131	-0.083
-86.699	800.000	-0.022	0.064
-85.684	-117.054	0.063	0.011
-84.670	130.308	0.177	0.223
-83.655	-141.741	0.255	-0.025
-82.640	136.680	0.263	-0.338
-81.626	386.346	0.072	0.147
-80.611	231.363	-0.146	0.235
-79.597	36.589	0.242	0.210
-78.582	735.257	0.097	0.254
-77.567	48.214	-0.168	0.155
-76.553	-46.106	-0.219	-0.106
-75.538	-89.950	0.229	0.066
-74.524	251.246	0.095	-0.159
-73.509	-28.697	0.064	0.036
-72.494	-91.873	-0.290	0.081
-71.480	229.956	0.113	-0.181
-70.465	-18.797	-0.144	0.088
-69.451	-64.045	0.202	0.081
-68.436	-200.000	0.016	0.149
-67.422	-151.893	0.193	-0.014
-66.407	68.584	-0.176	-0.178
-65.392	-2.781	-0.210	0.144
-64.378	-200.000	-0.027	-0.265
-63.363	-200.000	0.049	-0.346
-62.349	-100.961	0.264	-0.064
-61.334	93.331	-0.940	-1.044
-60.319	129.762	0.631	0.792
-59.305	698.618	-0.270	-0.698
-58.290	800.000	0.404	1.387
-57.276	269.234	0.900	1.550
-56.261	-200.000	98.422	609.080
-55.246	600.984	1423.837	3470.751
-54.232	187.970	2622.023	3843.848
-53.217	116.801	2164.239	2606.892
-52.203	43.316	1610.165	1443.257
-51.188	34.495	1346.716	1153.999
-50.173	31.333	1305.006	1099.639
-49.159	54.131	1354.550	1278.551
-48.144	55.640	1370.474	1302.566
-47.130	34.655	1328.461	1139.130
-46.115	31.180	1310.939	1103.562
-45.100	30.961	1306.005	1098.074
-44.086	30.969	1303.246	1095.756
-43.071	30.899	1301.195	1093.577
-42.057	30.954	1298.772	1091.818
-41.042	30.841	1297.500	1090.047
-40.027	30.896	1295.945	1089.018
-39.013	30.958	1293.775	1087.513
-37.998	30.937	1291.923	1085.791
-36.984	30.960	1290.256	1084.478
-35.969	30.944	1288.548	1082.907
-34.954	31.027	1286.664	1081.764
-33.940	30.993	1285.698	1080.711
-32.925	31.009	1284.406	1079.679
-31.911	31.028	1283.028	1078.582
-30.896	31.043	1281.822	1077.615
-29.881	31.103	1280.312	1076.651
-28.867	31.126	1278.459	1075.178
-27.852	31.163	1276.764	1073.923
-26.838	31.157	1275.323	1072.636
-25.823	31.200	1273.727	1071.496
-24.809	31.108	1273.502	1070.738
-23.794	31.077	1271.572	1068.894
-22.779	31.029	1270.110	1067.349
-21.765	31.087	1269.234	1066.900
-20.750	31.098	1267.779	1065.699
-19.736	30.983	1266.216	1063.688
-18.721	30.910	1265.348	1062.498
-17.706	31.018	1263.845	1061.813
-16.692	30.981	1262.809	1060.685
-15.677	30.894	1261.476	1059.033
-14.663	30.969	1260.304	1058.434
-13.648	30.984	1259.131	1057.489
-12.633	30.999	1257.996	1056.580
-11.619	30.935	1257.762	1055.978
-10.604	30.910	1256.676	1054.886
-9.590	30.941	1255.582	1054.097
-8.575	30.851	1254.464	1052.609
-7.560	31.006	1253.534	1052.665
-6.546	30.928	1252.857	1051.612
-5.531	30.883	1252.249	1050.807
-4.517	30.924	1251.253	1050.158
-3.502	30.994	1249.798	1049.291
-2.487	30.926	1249.472	1048.594
-1.473	30.886	1245.455	1044.954
-0.458	29.875	1231.140	1027.292
0.556	24.503	1213.836	993.499
1.571	21.216	1219.948	979.998
2.586	20.330	1235.080	987.031
3.600	19.954	1224.140	976.084
4.615	15.049	1152.049	892.431
5.629	5.416	1075.761	785.093
6.644	0.280	1054.907	744.474
7.659	-0.052	1051.707	740.517
8.673	-0.231	1050.241	738.537
9.688	-0.265	1048.348	736.972
10.702	0.372	1047.637	739.536
11.717	6.582	1056.823	776.607
12.731	15.700	1069.850	831.386
13.746	19.981	1074.906	856.464
14.761	20.879	1075.922	861.641
15.775	20.960	1075.227	861.408
16.790	20.750	1074.608	859.799
17.804	20.576	1074.140	858.487
18.819	20.895	1073.105	859.161
19.834	20.834	1073.203	858.860
20.848	20.967	1073.025	859.297
21.863	20.924	1072.369	858.485
22.877	20.834	1071.543	857.303
23.892	20.814	1070.338	856.166
24.907	20.893	1069.379	855.713
25.921	20.914	1068.698	855.194
26.936	20.837	1067.030	853.408
27.950	20.700	1066.000	851.834
28.965	20.669	1063.913	849.940
29.980	20.656	1062.350	848.554
30.994	20.890	1061.355	848.823
32.009	20.997	1060.126	848.285
33.023	20.626	1058.996	845.502
34.038	20.927	1058.015	846.108
35.053	21.018	1057.554	846.105
36.067	20.877	1056.703	844.665
37.082	20.920	1055.775	844.058
38.096	21.193	1055.281	844.911
39.111	21.215	1054.521	844.332
40.126	20.895	1053.223	841.673
41.140	20.748	1050.910	839.043
42.155	20.449	1049.643	836.517
43.169	20.476	1048.973	836.039
44.184	20.556	1048.046	835.610
45.199	20.532	1046.676	834.328
46.213	20.469	1045.777	833.236
47.228	20.692	1045.129	833.718
48.242	20.753	1044.022	833.049
49.257	20.780	1043.515	832.699
50.271	20.994	1042.729	833.022
51.286	21.070	1041.787	832.560
52.301	20.977	1040.918	831.347
53.315	20.819	1040.093	829.865
54.330	20.819	1038.857	828.804
55.344	20.913	1038.054	828.537
56.359	20.778	1037.122	827.079
57.374	20.514	1036.384	825.165
58.388	20.570	1035.807	824.897
59.403	20.623	1034.611	824.122
60.417	20.440	1034.010	822.704
61.432	20.506	1033.439	822.491
62.447	20.667	1032.398	822.350
63.461	20.636	1031.423	821.352
64.476	20.647	1030.613	820.688
65.490	20.657	1029.688	819.926
66.505	20.661	1029.306	819.569
67.520	20.591	1028.519	818.537
68.534	20.390	1027.713	816.881
69.549	20.124	1026.484	814.579
70.563	20.211	1025.512	814.143
71.578	20.180	1024.752	813.322
72.593	20.115	1023.544	811.988
73.607	20.223	1023.151	812.110
74.622	20.535	1022.844	813.255
75.636	20.521	1022.022	812.465
76.651	20.411	1020.803	810.908
77.666	20.309	1020.564	810.170
78.680	20.532	1019.364	810.187
79.695	20.508	1018.709	809.484
80.709	20.396	1018.745	808.918
81.724	20.460	1017.053	807.803
82.739	20.517	1016.603	807.639
83.753	20.925	1015.868	808.874
84.768	21.108	1015.719	809.533
85.782	21.236	1014.378	808.988
86.797	21.131	1013.293	807.566
87.812	21.110	1012.342	806.638
88.826	20.982	1011.602	805.386
89.841	21.060	1010.449	804.757
90.855	21.164	1009.557	804.454
91.870	21.052	1008.806	803.268
92.884	21.071	1007.399	802.168
93.899	21.065	1006.169	801.087
94.914	21.216	1005.986	801.564
95.928	20.854	1004.739	798.842
96.943	20.655	1003.611	796.960
97.957	20.488	1002.664	795.376
98.972	20.321	1001.054	793.262
99.987	20.615	1000.662	794.226
101.001	20.775	1000.015	794.373
102.016	20.789	999.168	793.693
103.030	20.889	997.932	793.094
104.045	20.616	997.242	791.235
105.060	20.455	996.051	789.490
106.074	20.656	995.330	789.760
107.089	20.995	994.825	790.827
108.103	20.750	994.016	789.002
109.118	20.613	992.779	787.332
110.133	20.765	991.602	787.018
111.147	20.562	989.959	784.726
112.162	20.225	989.069	782.431
113.176	20.387	989.277	783.259
114.191	20.473	987.568	782.221
115.206	20.224	986.364	780.080
116.220	20.144	985.903	779.287
117.235	20.412	984.998	779.703
118.249	20.321	984.077	778.498
119.264	20.341	982.966	777.642
120.279	20.314	982.537	777.112
121.293	20.417	981.689	776.834
122.308	20.422	980.890	776.156
123.322	20.324	979.618	774.644
124.337	20.237	978.415	773.236
125.352	19.704	976.685	769.428
126.366	19.648	975.540	768.206
127.381	20.495	975.692	772.025
128.395	20.803	975.328	773.034
129.410	20.841	974.226	772.264
130.424	20.891	973.400	771.760
131.439	20.837	972.345	770.615
132.454	20.720	971.488	769.352
133.468	20.769	970.490	768.711
134.483	21.000	969.445	768.832
135.497	21.158	968.593	768.785
136.512	21.097	968.341	768.247
137.527	21.081	967.568	767.498
138.541	21.205	966.298	766.968
139.556	20.979	965.900	765.588
140.570	21.159	964.969	765.572
141.585	21.134	963.917	764.561
142.600	21.058	963.006	763.441
143.614	21.322	962.287	763.957
144.629	21.338	961.595	763.410
145.643	21.218	960.208	761.716
146.658	21.059	959.082	760.062
147.673	21.035	957.602	758.720
148.687	21.074	956.949	758.306
149.702	20.780	956.311	756.453
150.716	20.872	955.265	755.961
151.731	21.045	954.711	756.203
152.746	21.229	954.364	756.662
153.760	21.238	953.615	756.037
154.775	21.239	952.825	755.347
155.789	21.195	952.031	754.463
156.804	21.141	951.072	753.402
157.819	21.212	950.377	753.092
158.833	21.579	949.071	753.573
159.848	21.363	948.467	752.094
160.862	21.272	947.244	750.669
161.877	21.294	945.778	749.536
162.892	21.301	945.196	749.036
163.906	21.109	944.391	747.510
164.921	21.153	943.569	746.981
165.935	21.298	942.554	746.731
166.950	21.322	941.660	746.059
167.964	21.240	940.861	745.011
168.979	21.037	939.760	743.209
169.994	21.081	938.971	742.704
171.008	21.352	938.425	743.361
172.023	21.292	937.485	742.296
173.037	21.047	936.190	740.165
174.052	20.893	935.748	739.097
175.067	20.978	934.807	738.649
176.081	21.006	934.601	738.541
177.096	21.090	933.528	737.982
178.110	20.712	932.827	735.762
179.125	20.581	931.916	734.427
180.140	20.824	931.174	734.804
181.154	20.830	931.041	734.659
182.169	21.020	931.463	735.727
183.183	21.251	930.545	735.912
184.198	21.132	929.721	734.695
185.213	21.135	929.021	734.090
186.227	21.143	928.239	733.439
187.242	21.233	927.680	733.310
188.256	21.292	926.778	732.778
189.271	21.268	926.174	732.137
190.286	20.957	925.001	729.842
191.300	20.326	924.015	726.361
192.315	19.566	922.553	721.969
193.329	19.803	921.699	722.229
194.344	20.763	922.050	726.447
195.359	21.138	922.111	727.996
196.373	21.187	921.536	727.681
197.388	21.096	920.758	726.622
198.402	21.054	920.458	726.148
199.417	21.252	919.251	725.954
200.432	20.814	918.376	723.378
201.446	20.605	917.987	722.143
202.461	20.658	917.256	721.723
203.475	19.820	915.594	716.878
204.490	19.070	914.185	712.607
205.504	20.197	914.260	717.269
206.519	20.728	914.532	719.613
207.534	20.825	914.014	719.542
208.548	21.125	914.107	720.794
209.563	20.830	912.908	718.564
210.577	20.845	912.257	718.051
211.592	21.258	912.111	719.577
212.607	21.226	910.773	718.326
213.621	21.379	910.050	718.320
214.636	21.414	909.655	718.088
215.650	21.102	908.973	716.205
216.665	21.326	908.333	716.556
217.680	21.342	906.980	715.493
218.694	20.866	905.575	712.375
219.709	20.709	905.475	711.590
220.723	21.074	904.999	712.645
221.738	21.102	904.415	712.238
222.753	21.057	903.670	711.404
223.767	21.173	903.769	711.890
224.782	21.356	903.215	712.138
225.796	21.407	902.507	711.722
226.811	20.681	900.782	707.352
227.826	20.234	899.550	704.504
228.840	20.417	899.008	704.758
229.855	20.322	898.488	703.905
230.869	20.088	897.500	702.120
231.884	20.393	897.517	703.309
232.899	21.172	897.647	706.503
233.913	21.082	896.890	705.477
234.928	21.132	895.973	704.897
235.942	21.019	895.818	704.256
236.957	20.710	894.777	702.130
237.972	20.788	893.813	701.624
238.986	20.804	893.875	701.675
240.001	20.923	893.015	701.416
241.015	20.879	892.704	700.933
242.030	21.059	891.851	700.925
243.045	21.169	891.363	700.924
244.059	21.280	890.950	700.980
245.074	21.055	889.794	699.107
246.088	20.798	888.845	697.270
247.103	21.020	888.745	698.020
248.117	21.557	888.653	700.035
249.132	21.708	888.330	700.321
250.147	21.755	887.780	700.012
251.161	21.897	887.254	700.104
252.176	21.877	886.824	699.621
253.190	21.946	886.095	699.261
254.205	22.082	885.882	699.570
255.220	22.084	884.830	698.689
256.234	21.837	884.326	697.246
257.249	21.735	883.730	696.309
258.263	21.909	882.792	696.197
259.278	21.995	882.004	695.857
260.293	21.853	881.484	694.820
261.307	21.950	880.677	694.507
262.322	21.724	880.002	693.022
263.336	20.963	877.782	688.207
264.351	20.062	875.794	683.038
265.366	20.187	875.615	683.333
266.380	21.331	876.075	688.137
267.395	21.612	876.160	689.248
268.409	21.457	875.611	688.146
269.424	21.750	874.622	688.458
270.439	21.710	874.307	687.993
271.453	22.000	873.269	688.253
272.468	22.137	873.193	688.668
273.482	22.051	873.021	688.134
274.497	21.742	871.713	685.834
275.512	21.282	870.563	683.072
276.526	21.660	870.767	684.649
277.541	21.830	870.263	684.855
278.555	21.617	869.723	683.539
279.570	21.365	868.764	681.742
280.585	21.654	867.907	682.136
281.599	21.709	866.875	681.477
282.614	21.012	865.885	677.930
283.628	21.148	865.224	677.881
284.643	21.346	865.261	678.619
285.657	21.152	863.547	676.464
286.672	20.899	863.140	675.105
287.687	21.479	862.886	677.093
288.701	21.318	862.398	676.027
289.716	21.141	861.401	674.501
290.730	21.017	860.985	673.636
291.745	20.823	859.538	671.697
292.760	21.076	860.038	673.003
293.774	21.993	860.561	676.890
294.789	22.373	859.884	677.763
295.803	22.256	859.523	676.966
296.818	22.431	858.622	676.872
297.833	21.951	857.549	674.122
298.847	21.831	856.675	672.913
299.862	22.148	856.843	674.202
300.876	22.245	856.665	674.374
301.891	22.286	855.461	673.526
302.906	21.672	854.809	670.604
303.920	21.818	854.420	670.796
304.935	22.184	854.096	671.880
305.949	22.356	853.091	671.689
306.964	22.029	852.718	670.086
307.979	22.136	852.181	670.015
308.993	22.449	852.382	671.306
310.008	22.426	851.291	670.301
311.022	22.221	850.558	668.882
312.037	22.139	849.776	667.899
313.052	21.844	849.039	666.137
314.066	20.928	847.715	661.568
315.081	20.670	847.075	660.029
316.095	21.581	847.295	663.598
317.110	22.026	847.127	665.093
318.125	21.290	845.471	660.951
319.139	20.223	844.363	655.995
320.154	20.099	844.007	655.189
321.168	21.115	844.555	659.399
322.183	21.790	844.204	661.615
323.197	22.058	843.903	662.329
324.212	21.976	843.767	661.857
325.227	22.056	843.223	661.674
326.241	22.123	842.154	661.027
327.256	21.919	841.569	659.742
328.270	21.738	840.787	658.392
329.285	21.755	839.906	657.708
330.300	21.464	839.166	655.977
331.314	21.679	838.930	656.541
332.329	22.178	838.845	658.285
333.343	22.250	838.456	658.194
334.358	22.189	838.108	657.634
335.373	22.135	838.121	657.382
336.387	22.511	837.901	658.558
337.402	22.605	837.340	658.408
338.416	22.564	836.763	657.746
339.431	22.698	836.422	657.917
340.446	22.823	836.027	658.014
341.460	22.702	835.932	657.433
342.475	22.445	835.223	655.857
343.489	22.722	834.832	656.526
344.504	22.854	834.916	657.025
345.519	22.965	834.196	656.811
346.533	22.953	834.025	656.575
347.548	23.022	833.245	656.158
348.562	22.984	832.950	655.725
349.577	22.946	832.117	654.872
350.592	22.989	831.263	654.302
351.606	22.846	830.562	653.162
352.621	22.951	829.661	652.783
353.635	22.772	828.971	651.522
354.650	22.094	827.549	647.849
355.665	21.050	826.169	642.864
356.679	21.584	825.820	644.502
357.694	21.928	825.828	645.717
358.708	21.832	825.126	644.760
359.723	22.349	824.970	646.479
360.738	22.533	824.648	646.846
361.752	22.630	824.424	646.967
362.767	23.052	823.738	647.921
363.781	23.241	823.160	648.100
364.796	23.261	822.988	647.982
365.810	23.305	822.620	647.793
366.825	23.297	822.493	647.609
367.840	23.044	821.499	645.843
368.854	22.671	820.403	643.563
369.869	22.666	819.970	643.149
370.883	22.623	819.706	642.730
371.898	22.525	819.420	642.090
372.913	22.785	818.740	642.449
373.927	22.635	819.021	642.064
374.942	22.924	818.692	642.801
375.956	23.013	817.859	642.414
376.971	23.147	817.311	642.415
377.986	23.329	817.132	642.876
379.000	23.360	816.429	642.380
380.015	22.915	816.206	640.532
381.029	23.103	815.430	640.548
382.044	23.174	815.063	640.460
383.059	23.236	814.184	639.938
384.073	23.366	813.569	639.866
385.088	23.283	813.163	639.192
386.102	23.019	812.542	637.694
387.117	23.040	811.723	637.072
388.132	22.754	810.660	635.152
389.146	22.208	809.967	632.587
390.161	22.627	809.989	634.057
391.175	22.965	809.762	635.038
392.190	22.625	808.469	632.748
393.205	21.429	806.448	626.826
394.219	20.128	804.751	620.796
395.234	19.905	804.911	620.065
396.248	21.441	806.340	626.618
397.263	22.918	806.946	632.324
398.278	22.883	806.251	631.600
399.292	22.699	805.754	630.496
400.307	22.847	805.057	630.424
401.321	22.712	804.859	629.730
402.336	23.047	805.183	631.126
403.350	23.322	804.860	631.796
404.365	23.738	804.773	633.154
405.380	24.004	804.097	633.517
406.394	23.948	803.577	632.849
407.409	23.778	803.621	632.225
408.423	23.780	803.007	631.690
409.438	23.906	802.600	631.763
410.453	23.967	802.069	631.508
411.467	23.718	801.802	630.357
412.482	23.964	801.015	630.553
413.496	24.002	800.440	630.181
414.511	24.050	800.272	630.164
415.526	24.035	799.770	629.657
416.540	23.891	799.071	628.543
417.555	23.432	798.408	626.344
418.569	23.707	798.221	627.115
419.584	23.719	797.369	626.431
420.599	23.418	796.947	624.985
421.613	156.119	1366.209	1797.020
422.628	135.349	1449.127	1797.127
