DTS Sentinel unit serial number:	SN413079Multiplexer serial number:	ORYXHardware model number:	OX4-SRSoftware version number:	ORYX F/W v4.00 Oryx Data Collector v3.7.2.0data status	okinstallation	princeton_trtdifferential loss correction	single-endedforward channel	channel 1reverse channel	N/Adate	2019/09/14time	05:10:35forward acquisition time	60.00reverse acquisition time	0.00gamma	496.2192k internal	0.2334k external	0.2334temperature offset calibration	1.0079default loss term (dB/km)	0.3790temperature slope calibration	1.0000multiplexer offset coefficient	1.0000multiplexer slope coefficient	1.0000fibre end	0.00T internal ref (°C)	26.89T ext. ref 1 (°C)	3.38T ext. ref 2 (°C)	21.95length (m)	temperature (°C)	Stokes	anti-Stokes-747.200	94.365	-0.112	-0.128
-746.185	760.590	-0.042	0.114
-745.171	219.654	0.269	0.434
-744.156	-200.000	-0.003	-0.201
-743.142	-69.165	-0.123	0.047
-742.127	-86.102	-0.334	0.104
-741.112	11.921	-0.053	0.041
-740.098	-39.211	0.118	0.062
-739.083	-90.015	0.137	0.040
-738.069	-94.337	-0.239	0.066
-737.054	191.981	0.075	-0.114
-736.039	-43.229	-0.157	0.080
-735.025	688.114	-0.031	-0.080
-734.010	-117.546	-0.217	0.039
-732.996	-200.000	-0.028	-0.314
-731.981	99.970	-0.172	-0.200
-730.966	600.763	0.032	-0.079
-729.952	19.021	-0.316	-0.254
-728.937	-87.880	0.106	-0.032
-727.923	-115.434	-0.193	0.036
-726.908	-164.734	0.201	0.009
-725.894	319.110	-0.063	-0.121
-724.879	-200.000	0.032	-0.461
-723.864	-200.000	-0.023	0.122
-722.850	-41.633	-0.298	-0.154
-721.835	-49.276	-0.152	-0.073
-720.821	173.514	-0.070	-0.101
-719.806	274.504	-0.136	-0.242
-718.791	-172.343	-0.210	0.007
-717.777	103.577	-0.200	-0.236
-716.762	-131.431	-0.198	0.026
-715.748	106.695	0.223	-0.265
-714.733	284.955	-0.087	-0.157
-713.718	-200.000	0.079	0.364
-712.704	688.472	0.102	0.268
-711.689	377.573	-0.075	-0.153
-710.675	-88.379	0.268	0.081
-709.660	-61.193	-0.115	0.049
-708.645	-138.073	0.313	-0.035
-707.631	76.828	0.174	0.186
-706.616	800.000	-0.171	-0.477
-705.602	800.000	-0.077	-0.255
-704.587	-200.000	-0.017	0.000
-703.572	193.032	-0.234	0.355
-702.558	-63.623	0.208	-0.086
-701.543	91.103	0.093	0.104
-700.529	132.168	-0.230	-0.298
-699.514	-1.412	0.387	0.274
-698.499	-66.993	-0.254	-0.101
-697.485	800.000	-0.064	-0.261
-696.470	-53.848	-0.352	-0.161
-695.456	40.885	0.245	-0.221
-694.441	-110.259	-0.146	0.030
-693.426	170.978	0.212	-0.305
-692.412	-200.000	-0.002	-0.125
-691.397	-200.000	0.063	-0.287
-690.383	40.281	-0.206	-0.186
-689.368	-58.350	0.245	0.107
-688.354	-200.000	0.001	-0.306
-687.339	299.250	-0.186	-0.344
-686.324	332.872	0.137	0.265
-685.310	-19.929	-0.308	-0.191
-684.295	-200.000	-0.061	-0.356
-683.281	-134.182	0.311	0.038
-682.266	-146.263	-0.389	0.034
-681.251	-80.695	0.220	-0.073
-680.237	119.904	0.142	-0.176
-679.222	35.129	-0.167	0.146
-678.208	-200.000	-0.006	0.125
-677.193	-173.372	0.150	0.005
-676.178	-23.286	-0.371	-0.224
-675.164	800.000	-0.048	-0.206
-674.149	110.419	-0.123	-0.148
-673.135	800.000	-0.101	-0.291
-672.120	232.239	-0.149	-0.245
-671.105	201.245	-0.083	-0.128
-670.091	-118.827	0.091	-0.016
-669.076	57.705	-0.036	-0.035
-668.062	-200.000	0.037	-0.289
-667.047	-103.924	-0.178	-0.042
-666.032	-200.000	-0.068	0.350
-665.018	52.414	0.035	0.033
-664.003	-47.415	-0.153	0.075
-662.989	-200.000	-0.051	0.252
-661.974	149.418	-0.176	-0.239
-660.959	-200.000	-0.008	-0.081
-659.945	12.695	0.114	-0.088
-658.930	287.137	0.054	-0.098
-657.916	193.443	-0.045	0.068
-656.901	10.137	0.052	0.039
-655.886	-200.000	0.010	0.348
-654.872	-159.497	0.292	0.016
-653.857	-200.000	-0.037	0.221
-652.843	80.240	-0.204	-0.220
-651.828	-23.184	0.170	-0.102
-650.814	60.401	-0.238	-0.236
-649.799	-31.045	0.267	0.151
-648.784	-121.780	0.207	0.034
-647.770	608.008	-0.058	0.146
-646.755	-136.516	0.134	-0.016
-645.741	-200.000	-0.055	-0.245
-644.726	311.211	-0.193	-0.362
-643.711	-119.929	-0.353	-0.061
-642.697	-117.567	-0.108	0.020
-641.682	108.510	0.136	0.163
-640.668	421.000	-0.077	0.165
-639.653	800.000	0.052	0.155
-638.638	110.551	0.150	-0.181
-637.624	-21.685	-0.263	-0.160
-636.609	-200.000	-0.004	-0.049
-635.595	469.077	0.047	0.105
-634.580	-200.000	-0.014	0.568
-633.565	-200.000	0.062	-0.314
-632.551	102.797	0.008	-0.009
-631.536	365.768	-0.054	-0.108
-630.522	89.808	-0.038	0.042
-629.507	199.932	-0.036	0.055
-628.492	-57.953	0.354	-0.155
-627.478	222.591	-0.101	-0.163
-626.463	757.300	-0.047	-0.128
-625.449	-200.000	0.019	0.109
-624.434	-200.000	-0.028	0.217
-623.419	-113.661	0.390	-0.076
-622.405	-80.275	0.208	0.069
-621.390	276.883	-0.194	-0.344
-620.376	800.000	0.054	0.213
-619.361	-38.002	-0.148	-0.079
-618.346	74.599	-0.164	0.173
-617.332	800.000	0.097	0.300
-616.317	-183.467	0.302	-0.005
-615.303	-154.232	-0.500	-0.034
-614.288	0.397	0.199	0.142
-613.273	38.776	-0.024	-0.021
-612.259	-118.019	-0.098	-0.018
-611.244	21.309	-0.110	-0.089
-610.230	-102.205	0.431	-0.104
-609.215	-93.119	-0.242	-0.067
-608.201	-101.363	0.162	0.040
-607.186	330.623	-0.209	-0.402
-606.171	138.884	-0.294	-0.386
-605.157	-154.798	0.255	-0.017
-604.142	144.756	0.128	0.171
-603.128	800.000	0.038	-0.108
-602.113	800.000	-0.010	-0.037
-601.098	-32.100	-0.293	0.164
-600.084	800.000	0.105	0.331
-599.069	471.224	-0.161	-0.361
-598.055	-50.357	0.055	0.026
-597.040	-47.724	0.368	-0.178
-596.025	83.105	-0.095	-0.104
-595.011	100.477	-0.053	-0.061
-593.996	26.586	-0.140	-0.117
-592.982	102.469	0.355	0.415
-591.967	18.518	0.158	0.126
-590.952	-149.539	-0.322	0.025
-589.938	8.151	-0.141	0.106
-588.923	800.000	-0.074	0.210
-587.909	273.436	-0.125	0.220
-586.894	-200.000	-0.032	0.366
-585.879	259.078	-0.248	0.427
-584.865	34.477	-0.237	-0.207
-583.850	96.456	0.157	-0.179
-582.836	800.000	-0.073	-0.233
-581.821	-76.532	0.166	-0.058
-580.806	62.426	0.039	-0.039
-579.792	243.462	0.125	-0.210
-578.777	800.000	0.019	0.054
-577.763	676.042	0.035	-0.091
-576.748	-20.493	0.292	-0.180
-575.733	-132.553	-0.368	-0.047
-574.719	-200.000	-0.030	0.162
-573.704	-200.000	-0.039	0.180
-572.690	-200.000	0.001	-0.095
-571.675	-76.451	-0.169	-0.059
-570.661	800.000	0.029	0.079
-569.646	-2.861	0.188	-0.131
-568.631	135.482	-0.145	0.188
-567.617	519.797	0.106	0.247
-566.602	210.666	0.082	0.129
-565.588	43.267	0.255	-0.232
-564.573	-5.280	-0.116	-0.080
-563.558	57.059	0.093	-0.090
-562.544	-62.801	-0.147	0.061
-561.529	98.344	0.150	-0.172
-560.515	800.000	0.047	-0.168
-559.500	-162.896	-0.212	-0.010
-558.485	-102.362	0.287	-0.069
-557.471	296.489	-0.058	-0.107
-556.456	-42.388	0.105	-0.054
-555.442	69.891	-0.110	0.114
-554.427	-67.073	-0.111	-0.044
-553.412	-200.000	0.083	0.377
-552.398	800.000	-0.059	0.250
-551.383	510.897	0.068	-0.158
-550.369	800.000	-0.071	-0.214
-549.354	-57.157	0.230	0.101
-548.339	-126.806	0.074	0.011
-547.325	-175.963	-0.200	0.005
-546.310	-87.680	0.126	0.038
-545.296	-125.743	-0.322	0.049
-544.281	96.416	-0.212	-0.242
-543.266	-81.160	0.236	0.078
-542.252	800.000	-0.034	0.100
-541.237	-93.930	-0.106	0.029
-540.223	204.703	-0.209	0.324
-539.208	-200.000	-0.010	0.054
-538.193	266.207	-0.143	-0.250
-537.179	221.316	-0.191	-0.306
-536.164	-31.423	-0.085	0.048
-535.150	-16.085	0.102	-0.064
-534.135	287.163	-0.129	-0.232
-533.121	8.248	0.154	-0.116
-532.106	124.227	-0.127	-0.159
-531.091	-100.334	-0.531	-0.131
-530.077	-200.000	-0.025	-0.197
-529.062	-48.003	-0.155	0.075
-528.048	-79.863	0.335	-0.112
-527.033	-89.312	-0.362	0.106
-526.018	-200.000	-0.008	-0.139
-525.004	100.287	-0.060	0.069
-523.989	800.000	-0.047	0.149
-522.975	-200.000	-0.007	0.133
-521.960	-30.998	-0.150	-0.084
-520.945	-144.406	-0.138	-0.013
-519.931	-108.671	0.621	0.133
-518.916	-8.463	-0.347	-0.232
-517.902	800.000	-0.088	0.310
-516.887	-68.720	-0.220	0.085
-515.872	245.001	0.116	-0.194
-514.858	295.816	-0.146	-0.266
-513.843	191.674	0.180	-0.270
-512.829	108.530	-0.058	0.069
-511.814	-200.000	-0.017	-0.133
-510.799	-127.163	-0.349	-0.051
-509.785	412.919	0.019	0.040
-508.770	-200.000	-0.042	-0.283
-507.756	-74.080	-0.166	0.060
-506.741	-55.368	-0.203	-0.091
-505.726	135.068	-0.033	0.042
-504.712	-98.241	0.246	-0.063
-503.697	389.846	-0.125	-0.258
-502.683	-200.000	-0.025	-0.161
-501.668	81.054	0.135	-0.146
-500.653	-0.091	0.162	-0.114
-499.639	31.965	0.101	-0.087
-498.624	67.593	0.121	0.123
-497.610	171.420	0.211	0.301
-496.595	562.140	0.079	0.190
-495.581	46.406	-0.123	0.113
-494.566	-16.787	-0.059	-0.037
-493.551	-200.000	0.000	0.211
-492.537	-131.719	-0.273	0.036
-491.522	-200.000	-0.024	-0.129
-490.508	-200.000	-0.016	0.429
-489.493	78.347	-0.027	0.029
-488.478	220.685	-0.239	0.382
-487.464	191.249	0.169	-0.253
-486.449	-103.563	-0.361	0.084
-485.435	19.043	-0.143	-0.114
-484.420	22.413	0.187	-0.152
-483.405	236.301	-0.171	0.281
-482.391	-89.573	-0.057	0.017
-481.376	118.095	0.097	-0.119
-480.362	-200.000	0.004	-0.230
-479.347	272.944	0.197	-0.346
-478.332	17.439	-0.055	-0.044
-477.318	694.708	-0.034	0.089
-476.303	800.000	-0.095	0.274
-475.289	-200.000	-0.004	-0.273
-474.274	107.248	0.182	0.215
-473.259	-32.624	-0.155	0.086
-472.245	800.000	0.057	-0.183
-471.230	18.420	0.218	0.173
-470.216	-108.541	-0.339	0.072
-469.201	-29.830	-0.179	-0.101
-468.186	64.051	-0.090	-0.090
-467.172	127.865	-0.047	-0.059
-466.157	-200.000	0.006	0.095
-465.143	-51.468	0.233	-0.108
-464.128	-200.000	0.001	-0.157
-463.113	59.333	0.207	-0.203
-462.099	-53.440	-0.061	0.028
-461.084	64.274	0.161	0.161
-460.070	104.763	-0.098	0.115
-459.055	800.000	0.116	0.374
-458.040	-200.000	0.021	0.159
-457.026	-200.000	-0.004	0.271
-456.011	-145.480	-0.237	0.021
-454.997	-84.754	-0.148	0.046
-453.982	-139.836	-0.219	-0.023
-452.968	-173.307	0.090	0.003
-451.953	66.569	-0.359	0.362
-450.938	-200.000	0.016	0.153
-449.924	-41.359	-0.190	0.097
-448.909	16.716	0.161	-0.127
-447.895	-200.000	-0.051	-0.237
-446.880	13.212	0.116	-0.090
-445.865	-121.822	-0.318	-0.052
-444.851	220.094	-0.052	0.083
-443.836	-147.990	-0.376	-0.031
-442.822	38.675	-0.227	-0.201
-441.807	117.524	0.140	-0.172
-440.792	-200.000	-0.140	-0.000
-439.778	-190.179	-0.132	0.001
-438.763	-200.000	0.022	-0.169
-437.749	-3.281	0.204	-0.141
-436.734	800.000	0.089	0.334
-435.719	-188.397	-0.372	-0.005
-434.705	-141.621	-0.262	0.026
-433.690	15.518	0.303	0.236
-432.676	-200.000	-0.083	-0.000
-431.661	-175.701	-0.204	0.005
-430.646	507.973	-0.090	0.207
-429.632	568.639	-0.049	-0.119
-428.617	392.803	0.228	-0.471
-427.603	-200.000	-0.003	-0.017
-426.588	800.000	-0.047	-0.136
-425.573	-42.537	-0.322	-0.163
-424.559	-200.000	0.002	0.218
-423.544	276.625	0.170	-0.300
-422.530	148.191	0.038	-0.051
-421.515	-200.000	-0.036	0.206
-420.500	9.858	0.100	-0.075
-419.486	206.802	0.088	0.137
-418.471	155.512	0.144	-0.197
-417.457	-150.458	-0.344	0.026
-416.442	-24.134	-0.180	0.107
-415.428	-9.454	0.065	0.043
-414.413	332.859	-0.106	0.204
-413.398	-31.793	0.228	-0.127
-412.384	3.088	0.085	-0.061
-411.369	-73.998	0.149	-0.053
-410.355	-80.997	0.437	-0.144
-409.340	540.390	0.112	0.264
-408.325	39.704	-0.140	0.124
-407.311	-87.076	-0.494	-0.149
-406.296	-41.069	0.110	0.057
-405.282	-93.735	0.109	0.030
-404.267	56.079	-0.206	0.198
-403.252	-106.942	-0.105	-0.023
-402.238	173.170	0.208	0.298
-401.223	-200.000	-0.021	0.217
-400.209	-61.149	-0.201	0.084
-399.194	-200.000	0.001	0.049
-398.179	135.817	0.074	-0.095
-397.165	130.947	0.203	0.258
-396.150	345.877	-0.115	0.223
-395.136	-23.013	-0.316	-0.189
-394.121	243.280	0.060	-0.099
-393.106	36.355	-0.287	-0.251
-392.092	-159.789	0.380	-0.021
-391.077	800.000	0.037	0.117
-390.063	-161.719	0.142	0.007
-389.048	-200.000	0.002	-0.048
-388.033	800.000	-0.067	-0.205
-387.019	-80.981	0.158	0.052
-386.004	-14.043	-0.402	-0.258
-384.990	-47.051	0.149	0.072
-383.975	46.678	-0.109	0.100
-382.960	19.966	0.302	-0.241
-381.946	800.000	-0.051	0.161
-380.931	297.816	0.133	-0.243
-379.917	324.084	-0.132	-0.249
-378.902	800.000	0.030	0.121
-377.888	-43.764	-0.212	-0.106
-376.873	10.069	0.102	0.077
-375.858	-141.265	-0.082	-0.008
-374.844	-200.000	0.000	-0.206
-373.829	800.000	0.073	0.286
-372.815	-200.000	-0.036	0.180
-371.800	361.383	0.161	0.319
-370.785	299.279	0.127	0.232
-369.771	-200.000	-0.007	-0.263
-368.756	800.000	0.092	-0.272
-367.742	-45.241	0.297	-0.146
-366.727	108.369	-0.194	-0.230
-365.712	-50.825	-0.119	0.056
-364.698	793.010	-0.082	-0.223
-363.683	-57.127	-0.313	-0.137
-362.669	-163.456	0.067	-0.003
-361.654	-200.000	-0.002	-0.205
-360.639	357.121	0.168	-0.332
-359.625	-95.757	0.069	0.018
-358.610	282.005	0.143	-0.254
-357.596	-118.912	0.192	-0.033
-356.581	800.000	0.016	-0.068
-355.566	-141.566	0.091	0.009
-354.552	-58.876	-0.220	0.094
-353.537	-2.882	-0.074	0.051
-352.523	-163.741	-0.069	0.003
-351.508	-200.000	-0.014	0.193
-350.493	156.385	0.177	-0.242
-349.479	298.106	-0.174	-0.316
-348.464	54.578	-0.127	0.121
-347.450	-154.568	-0.098	-0.006
-346.435	-200.000	-0.000	-0.008
-345.420	439.429	-0.101	-0.219
-344.406	-200.000	0.075	0.476
-343.391	360.618	-0.015	-0.030
-342.377	-82.700	-0.134	-0.043
-341.362	58.300	0.144	0.140
-340.348	-200.000	-0.012	0.155
-339.333	-60.465	0.254	0.107
-338.318	214.826	0.066	-0.103
-337.304	-200.000	0.004	0.020
-336.289	-15.955	0.145	0.091
-335.275	-200.000	-0.029	-0.148
-334.260	-200.000	0.016	-0.087
-333.245	92.575	0.015	0.017
-332.231	-200.000	-0.020	-0.180
-331.216	-34.857	-0.242	0.131
-330.202	143.788	0.152	-0.201
-329.187	-68.196	-0.476	-0.183
-328.172	800.000	0.060	-0.192
-327.158	338.780	-0.030	-0.057
-326.143	111.659	0.102	-0.122
-325.129	-116.075	0.133	0.024
-324.114	-200.000	-0.033	0.156
-323.099	51.336	0.272	0.255
-322.085	-23.098	-0.348	0.208
-321.070	116.137	-0.129	-0.156
-320.056	-200.000	-0.016	0.094
-319.041	-200.000	0.033	0.190
-318.026	57.328	0.058	-0.056
-317.012	546.011	0.051	0.120
-315.997	-125.933	0.394	-0.059
-314.983	-1.899	0.098	0.068
-313.968	42.685	0.276	-0.248
-312.953	54.717	0.241	-0.230
-311.939	-160.518	0.345	0.018
-310.924	-200.000	0.040	-0.255
-309.910	0.264	-0.161	-0.114
-308.895	154.228	-0.150	-0.203
-307.880	-141.533	-0.178	0.018
-306.866	-200.000	0.038	0.402
-305.851	-14.310	0.172	0.110
-304.837	800.000	0.005	0.019
-303.822	162.401	-0.167	0.231
-302.807	-78.088	0.042	0.014
-301.793	-200.000	-0.307	0.001
-300.778	21.829	0.140	0.113
-299.764	632.735	-0.078	-0.196
-298.749	-155.434	-0.303	-0.019
-297.735	-110.187	0.576	0.119
-296.720	56.629	-0.189	0.182
-295.705	-200.000	0.025	-0.192
-294.691	237.925	0.055	-0.090
-293.676	800.000	-0.043	-0.125
-292.662	-79.424	-0.225	0.075
-291.647	80.162	0.227	-0.241
-290.632	-125.055	-0.246	0.037
-289.618	-115.997	0.168	0.031
-288.603	-200.000	-0.054	0.361
-287.589	800.000	0.077	0.255
-286.574	-200.000	-0.013	-0.152
-285.559	-93.930	0.140	-0.038
-284.545	-34.423	-0.175	0.094
-283.530	172.850	-0.044	-0.063
-282.516	-150.179	-0.275	-0.021
-281.501	-59.999	0.289	-0.122
-280.486	189.347	-0.187	-0.277
-279.472	-147.756	0.079	-0.007
-278.457	109.726	0.177	-0.209
-277.443	791.947	0.085	-0.231
-276.428	18.754	0.302	0.239
-275.413	-50.841	-0.090	0.042
-274.399	200.955	-0.133	-0.202
-273.384	583.428	0.037	-0.090
-272.370	800.000	0.108	0.398
-271.355	-200.000	-0.020	0.160
-270.340	-58.955	-0.102	0.043
-269.326	76.578	0.102	0.107
-268.311	40.994	-0.340	-0.303
-267.297	800.000	0.067	0.189
-266.282	-56.028	0.324	-0.143
-265.267	-200.000	-0.047	0.312
-264.253	800.000	0.063	0.238
-263.238	-200.000	-0.034	0.332
-262.224	-74.098	0.414	0.148
-261.209	-72.702	0.330	-0.120
-260.195	-109.343	0.061	0.013
-259.180	-127.774	-0.147	0.021
-258.165	-194.731	0.334	0.003
-257.151	170.821	0.197	-0.278
-256.136	-136.987	0.423	-0.048
-255.122	-64.216	0.217	-0.087
-254.107	-38.012	-0.119	0.062
-253.092	396.197	0.143	0.295
-252.078	-40.253	0.392	0.201
-251.063	81.295	0.124	0.132
-250.049	800.000	-0.152	0.447
-249.034	-200.000	-0.067	-0.521
-248.019	-6.681	-0.389	-0.261
-247.005	-200.000	-0.043	0.234
-245.990	94.096	-0.197	0.221
-244.976	1.937	0.185	-0.132
-243.961	-168.713	0.213	-0.008
-242.946	-138.103	0.223	0.024
-241.932	283.896	-0.040	0.072
-240.917	16.019	0.310	-0.241
-239.903	525.016	0.105	0.244
-238.888	442.057	0.020	0.042
-237.873	-200.000	-0.005	-0.089
-236.859	-173.081	0.172	-0.005
-235.844	-37.262	0.307	-0.162
-234.830	2.631	0.178	0.127
-233.815	800.000	-0.074	0.242
-232.800	800.000	0.060	-0.222
-231.786	40.216	0.117	-0.104
-230.771	-106.696	0.415	0.091
-229.757	56.548	0.174	0.167
-228.742	57.637	0.057	0.055
-227.727	800.000	0.163	0.473
-226.713	-200.000	-0.035	-0.230
-225.698	329.901	-0.145	0.275
-224.684	-50.167	0.056	0.026
-223.669	-48.061	-0.264	0.125
-222.655	800.000	0.013	-0.037
-221.640	792.807	0.094	0.254
-220.625	800.000	0.094	0.288
-219.611	-96.170	-0.308	-0.081
-218.596	-94.744	-0.124	-0.033
-217.582	45.751	-0.319	0.290
-216.567	-61.204	-0.067	-0.028
-215.552	-66.168	0.288	-0.113
-214.538	-200.000	0.022	0.142
-213.523	-86.975	0.333	0.100
-212.509	304.258	0.075	0.136
-211.494	-200.000	-0.055	0.263
-210.479	-165.017	-0.129	-0.006
-209.465	-200.000	0.008	-0.193
-208.450	-115.304	-0.211	0.039
-207.436	-73.608	0.501	-0.180
-206.421	800.000	-0.010	-0.040
-205.406	800.000	0.090	0.259
-204.392	-153.349	-0.241	-0.017
-203.377	394.650	-0.270	-0.553
-202.363	177.555	-0.158	0.227
-201.348	-118.081	0.184	0.032
-200.333	285.716	0.093	-0.164
-199.319	-2.585	-0.128	0.088
-198.304	514.202	0.096	-0.222
-197.290	13.915	-0.296	-0.227
-196.275	-44.513	0.352	-0.173
-195.260	69.415	-0.127	-0.128
-194.246	209.173	0.175	0.270
-193.231	13.521	0.222	0.169
-192.217	57.443	-0.096	0.092
-191.202	-115.306	-0.214	0.040
-190.187	42.103	0.043	0.039
-189.173	-111.551	0.257	0.051
-188.158	-141.932	-0.362	-0.036
-187.144	-85.953	0.463	0.141
-186.129	651.449	0.066	-0.166
-185.114	-119.623	0.097	-0.017
-184.100	-65.631	0.128	0.050
-183.085	557.782	-0.147	-0.349
-182.071	-46.927	0.212	-0.102
-181.056	-194.600	-0.165	-0.001
-180.042	-72.832	-0.050	-0.018
-179.027	-104.517	0.094	-0.021
-178.012	-200.000	-0.008	0.159
-176.998	800.000	0.080	-0.255
-175.983	137.988	0.169	0.217
-174.969	-89.649	0.074	0.021
-173.954	-200.000	-0.019	0.106
-172.939	-145.465	-0.219	0.019
-171.925	-119.074	-0.262	-0.045
-170.910	-165.672	-0.320	-0.014
-169.896	800.000	-0.120	-0.364
-168.881	-130.479	0.203	0.027
-167.866	-118.039	0.100	0.018
-166.852	-200.000	0.037	0.242
-165.837	800.000	0.105	0.403
-164.823	-159.925	0.219	0.012
-163.808	72.658	0.169	0.173
-162.793	800.000	-0.102	0.279
-161.779	161.966	-0.154	0.212
-160.764	-128.001	-0.165	0.023
-159.750	148.880	-0.111	0.147
-158.735	-18.222	0.074	-0.045
-157.720	44.143	0.214	-0.193
-156.706	-152.781	-0.214	-0.015
-155.691	-200.000	-0.006	-0.029
-154.677	800.000	0.007	-0.025
-153.662	126.369	-0.230	-0.286
-152.647	221.753	0.226	-0.358
-151.633	-131.707	-0.347	-0.045
-150.618	-200.000	-0.058	-0.282
-149.604	-51.981	0.393	-0.180
-148.589	-67.555	0.067	-0.026
-147.574	36.268	0.354	-0.307
-146.560	476.544	-0.083	-0.183
-145.545	-200.000	0.007	-0.263
-144.531	-15.966	-0.246	-0.154
-143.516	-112.762	-0.232	-0.045
-142.502	89.177	0.132	0.144
-141.487	-165.294	-0.154	0.007
-140.472	794.191	-0.064	0.172
-139.458	-200.000	0.037	-0.217
-138.443	-188.660	0.302	-0.004
-137.429	614.948	0.073	0.180
-136.414	800.000	-0.152	-0.415
-135.399	201.677	-0.049	-0.075
-134.385	-106.694	-0.217	-0.047
-133.370	800.000	0.058	-0.185
-132.356	-40.592	-0.397	0.202
-131.341	-200.000	-0.004	-0.136
-130.326	110.975	0.144	-0.170
-129.312	-101.540	-0.255	-0.061
-128.297	120.824	0.320	0.390
-127.283	800.000	0.080	0.332
-126.268	-48.690	-0.085	0.040
-125.253	-200.000	-0.022	-0.096
-124.239	13.332	-0.162	0.123
-123.224	-200.000	0.002	-0.038
-122.210	-200.000	-0.252	-0.001
-121.195	-126.715	0.167	-0.024
-120.180	-26.113	0.206	-0.119
-119.166	198.844	-0.151	0.226
-118.151	716.131	0.071	-0.184
-117.137	-86.704	0.203	0.061
-116.122	800.000	-0.107	-0.313
-115.107	-42.354	-0.432	0.216
-114.093	44.614	-0.245	0.221
-113.078	-81.408	0.114	0.037
-112.064	351.875	0.246	-0.477
-111.049	254.394	0.084	0.141
-110.034	-120.597	-0.234	-0.039
-109.020	276.689	-0.122	-0.212
-108.005	-24.475	0.150	0.087
-106.991	-88.123	0.159	0.047
-105.976	2.537	0.087	0.062
-104.962	187.028	-0.041	0.061
-103.947	64.665	-0.280	-0.277
-102.932	215.229	-0.098	0.152
-101.918	-77.396	-0.182	0.062
-100.903	-200.000	0.005	0.110
-99.889	800.000	0.033	0.120
-98.874	-121.472	-0.065	-0.011
-97.859	-200.000	0.008	0.071
-96.845	30.450	-0.080	-0.067
-95.830	136.029	-0.159	-0.202
-94.816	-200.000	0.019	-0.267
-93.801	50.738	-0.203	0.188
-92.786	150.174	0.058	-0.077
-91.772	-127.515	-0.185	0.026
-90.757	354.282	-0.177	0.345
-89.743	-200.000	0.032	-0.177
-88.728	-75.220	0.183	0.064
-87.713	-200.000	0.094	0.495
-86.699	-131.408	-0.279	0.036
-85.684	-102.497	0.116	-0.027
-84.670	366.802	-0.127	-0.251
-83.655	-156.043	0.085	0.005
-82.640	169.811	-0.303	0.424
-81.626	-200.000	0.008	0.078
-80.611	73.739	0.088	0.091
-79.597	-76.746	0.172	0.059
-78.582	-71.822	-0.109	0.040
-77.567	5.393	0.206	-0.149
-76.553	-59.253	-0.391	0.165
-75.538	-81.222	-0.074	-0.024
-74.524	-13.272	0.095	-0.060
-73.509	-94.478	-0.298	-0.080
-72.494	-127.390	-0.193	0.028
-71.480	-105.562	0.191	0.043
-70.465	23.388	-0.067	-0.054
-69.451	-200.000	0.010	0.060
-68.436	3.831	0.087	0.062
-67.422	189.122	0.238	0.350
-66.407	800.000	-0.136	0.503
-65.392	-194.467	-0.088	-0.001
-64.378	800.000	-0.061	0.174
-63.363	-200.000	-0.005	0.056
-62.349	-97.133	-0.278	-0.071
-61.334	48.573	-0.911	-0.836
-60.319	38.045	0.554	0.482
-59.305	485.022	-0.503	-1.122
-58.290	357.694	0.671	1.309
-57.276	307.995	0.796	1.453
-56.261	-200.000	116.102	662.458
-55.246	531.728	1531.776	3545.423
-54.232	175.977	2706.166	3843.508
-53.217	109.117	2162.607	2531.679
-52.203	39.003	1598.308	1397.809
-51.188	30.109	1342.520	1120.578
-50.173	27.345	1304.378	1072.439
-49.159	55.641	1362.121	1290.882
-48.144	53.361	1375.882	1290.199
-47.130	30.448	1330.628	1112.509
-46.115	27.044	1312.192	1076.905
-45.100	26.751	1307.479	1071.261
-44.086	26.687	1304.822	1068.666
-43.071	26.694	1302.380	1066.663
-42.057	26.709	1300.184	1064.909
-41.042	26.739	1299.186	1064.229
-40.027	26.816	1296.914	1062.778
-39.013	26.876	1294.912	1061.448
-37.998	26.763	1293.743	1059.785
-36.984	26.862	1291.927	1058.834
-35.969	26.998	1289.797	1057.839
-34.954	26.863	1288.502	1055.946
-33.940	26.902	1287.074	1054.961
-32.925	26.947	1285.705	1054.057
-31.911	26.952	1284.230	1052.836
-30.896	26.942	1282.944	1051.685
-29.881	26.977	1281.631	1050.768
-28.867	27.038	1279.876	1049.638
-27.852	26.922	1278.464	1047.770
-26.838	27.021	1277.009	1047.107
-25.823	26.890	1275.769	1045.294
-24.809	26.971	1273.971	1044.245
-23.794	26.959	1273.280	1043.568
-22.779	27.047	1271.511	1042.581
-21.765	27.042	1270.377	1041.580
-20.750	26.941	1269.407	1040.167
-19.736	26.949	1268.199	1039.179
-18.721	26.836	1267.165	1037.647
-17.706	26.887	1265.685	1036.684
-16.692	26.887	1264.943	1036.033
-15.677	26.890	1263.543	1034.864
-14.663	26.804	1262.752	1033.686
-13.648	26.785	1261.436	1032.458
-12.633	26.785	1260.528	1031.676
-11.619	26.876	1259.239	1031.098
-10.604	26.856	1258.637	1030.453
-9.590	26.860	1257.769	1029.723
-8.575	26.838	1256.656	1028.645
-7.560	26.735	1256.108	1027.572
-6.546	26.765	1255.346	1027.077
-5.531	26.842	1253.983	1026.358
-4.517	26.860	1253.392	1025.932
-3.502	26.817	1252.448	1024.876
-2.487	26.885	1251.574	1024.507
-1.473	26.862	1247.168	1020.726
-0.458	25.441	1232.111	1000.459
0.556	22.347	1215.554	963.829
1.571	18.749	1221.330	948.486
2.586	17.951	1236.298	955.559
3.600	17.534	1224.620	944.140
4.615	13.101	1152.891	865.572
5.629	6.271	1081.129	777.950
6.644	3.437	1063.392	751.324
7.659	3.289	1060.847	748.742
8.673	3.333	1059.903	748.220
9.688	3.451	1058.552	747.773
10.702	3.492	1056.593	746.524
11.717	7.430	1061.272	768.874
12.731	14.658	1071.587	811.539
13.746	18.944	1077.247	836.654
14.761	19.589	1077.475	839.894
15.775	18.732	1075.859	834.395
16.790	17.805	1073.873	828.283
17.804	17.006	1072.130	822.991
18.819	16.722	1071.307	820.910
19.834	16.603	1070.647	819.756
20.848	16.364	1069.669	817.775
21.863	16.213	1068.830	816.335
22.877	16.036	1068.090	814.838
23.892	16.050	1067.112	814.091
24.907	16.031	1066.676	813.591
25.921	16.158	1065.454	813.202
26.936	16.045	1064.372	811.760
27.950	16.031	1063.364	810.850
28.965	16.252	1060.889	809.951
29.980	16.409	1059.643	809.683
30.994	16.340	1058.943	808.746
32.009	16.338	1058.063	807.990
33.023	16.310	1057.155	807.093
34.038	16.178	1056.019	805.525
35.053	16.107	1055.251	804.527
36.067	16.050	1054.067	803.284
37.082	16.210	1052.848	803.046
38.096	16.171	1052.425	802.464
39.111	16.308	1051.788	802.558
40.126	16.218	1049.887	800.612
41.140	15.977	1048.992	798.717
42.155	15.878	1047.676	797.176
43.169	15.856	1046.746	796.294
44.184	15.888	1045.367	795.324
45.199	15.953	1044.354	794.787
46.213	15.986	1043.625	794.318
47.228	16.164	1042.428	794.176
48.242	16.251	1041.422	793.751
49.257	16.136	1040.547	792.472
50.271	16.189	1040.033	792.260
51.286	16.238	1039.160	791.753
52.301	16.174	1038.185	790.639
53.315	16.097	1037.204	789.464
54.330	16.001	1035.754	787.841
55.344	16.023	1035.134	787.404
56.359	15.941	1034.395	786.388
57.374	15.997	1033.558	785.942
58.388	15.787	1032.356	783.979
59.403	15.915	1031.613	783.943
60.417	15.972	1030.604	783.370
61.432	15.735	1030.390	782.037
62.447	15.726	1029.050	780.908
63.461	15.719	1028.327	780.262
64.476	15.704	1027.430	779.440
65.490	15.688	1026.933	778.920
66.505	15.831	1025.442	778.384
67.520	15.704	1025.194	777.540
68.534	15.769	1024.461	777.215
69.549	15.676	1023.479	775.970
70.563	15.666	1022.833	775.366
71.578	15.667	1021.857	774.564
72.593	15.613	1021.115	773.685
73.607	15.621	1020.593	773.256
74.622	15.514	1020.345	772.506
75.636	15.708	1019.329	772.562
76.651	15.725	1018.668	772.068
77.666	15.600	1018.119	771.013
78.680	15.596	1017.201	770.231
79.695	15.706	1016.832	770.384
80.709	15.951	1015.986	770.798
81.724	15.835	1015.470	769.809
82.739	15.836	1014.988	769.379
83.753	16.131	1013.583	769.591
84.768	16.268	1013.273	769.913
85.782	16.278	1012.177	769.058
86.797	16.404	1010.924	768.613
87.812	16.126	1009.944	766.537
88.826	16.172	1009.309	766.194
89.841	16.255	1008.343	765.772
90.855	16.240	1007.742	765.178
91.870	16.392	1006.683	764.992
92.884	16.485	1005.416	764.384
93.899	16.447	1004.646	763.560
94.914	16.496	1004.064	763.273
95.928	16.457	1003.089	762.285
96.943	16.342	1002.315	761.111
97.957	16.291	1001.649	760.309
98.972	16.309	1000.815	759.691
99.987	16.335	999.446	758.701
101.001	16.301	998.922	758.086
102.016	16.392	997.813	757.583
103.030	16.429	997.019	757.079
104.045	16.309	996.174	755.832
105.060	16.275	995.734	755.281
106.074	16.010	994.752	753.282
107.089	15.882	993.327	751.568
108.103	15.900	992.215	750.740
109.118	15.908	991.350	750.054
110.133	15.785	990.802	749.024
111.147	15.870	989.836	748.608
112.162	15.916	989.227	748.283
113.176	16.065	988.625	748.423
114.191	16.105	987.429	747.630
115.206	15.987	987.151	746.829
116.220	15.949	985.997	745.723
117.235	15.861	985.437	744.846
118.249	15.853	984.315	743.896
119.264	15.813	983.700	743.187
120.279	15.823	982.808	742.490
121.293	15.751	981.679	741.254
122.308	15.777	980.579	740.474
123.322	15.813	979.613	739.840
124.337	15.774	978.762	738.958
125.352	15.710	977.864	737.933
126.366	15.619	976.993	736.814
127.381	15.756	975.539	736.253
128.395	15.766	975.145	735.932
129.410	15.713	974.045	734.806
130.424	15.830	973.479	734.825
131.439	16.001	972.638	734.868
132.454	16.108	971.619	734.503
133.468	16.012	971.181	733.688
134.483	15.965	969.880	732.436
135.497	15.923	969.269	731.728
136.512	16.011	968.105	731.166
137.527	15.994	967.678	730.706
138.541	16.020	966.650	729.975
139.556	16.082	965.905	729.617
140.570	16.154	965.513	729.569
141.585	16.179	965.036	729.251
142.600	16.343	963.888	729.027
143.614	16.267	963.180	728.098
144.629	16.468	962.382	728.299
145.643	16.389	961.903	727.530
146.658	16.205	960.633	725.715
147.673	16.162	959.190	724.375
148.687	16.025	958.578	723.263
149.702	15.927	957.692	722.107
150.716	16.095	956.844	722.126
151.731	16.011	956.275	721.271
152.746	16.018	955.614	720.739
153.760	16.187	954.714	720.718
154.775	16.222	954.306	720.495
155.789	16.162	953.733	719.743
156.804	16.218	952.869	719.267
157.819	16.315	952.237	719.140
158.833	16.371	951.532	718.783
159.848	16.431	950.719	718.361
160.862	16.342	950.231	717.547
161.877	16.341	948.449	716.135
162.892	16.004	947.880	714.215
163.906	16.132	946.820	713.895
164.921	16.235	945.639	713.377
165.935	16.225	945.080	712.847
166.950	16.215	944.192	712.073
167.964	16.296	943.152	711.568
168.979	16.248	942.063	710.481
169.994	16.168	941.656	709.776
171.008	16.190	941.043	709.341
172.023	16.323	940.434	709.381
173.037	16.447	939.913	709.446
174.052	16.395	938.836	708.353
175.067	16.216	937.710	706.689
176.081	16.076	937.891	706.175
177.096	16.250	936.975	706.151
178.110	16.178	936.320	705.296
179.125	16.185	936.136	705.124
180.140	16.191	935.785	704.822
181.154	16.272	935.230	704.680
182.169	16.520	934.529	705.125
183.183	16.489	933.935	704.485
184.198	16.532	932.783	703.732
185.213	16.463	932.498	703.167
186.227	16.554	931.915	703.043
187.242	16.592	931.133	702.550
188.256	16.780	930.635	702.892
189.271	16.624	929.874	701.609
190.286	16.472	928.283	699.716
191.300	16.171	927.376	697.724
192.315	16.024	927.023	696.792
193.329	16.092	926.726	696.784
194.344	16.264	925.978	696.873
195.359	16.470	925.642	697.410
196.373	16.599	924.951	697.358
197.388	16.622	925.110	697.510
198.402	16.735	924.050	697.116
199.417	16.956	923.550	697.586
200.432	16.884	923.008	696.818
201.446	16.888	922.649	696.501
202.461	17.040	922.266	696.774
203.475	17.092	921.457	696.315
204.490	16.855	920.378	694.466
205.504	16.655	919.940	693.256
206.519	16.629	919.420	692.697
207.534	16.565	918.531	691.704
208.548	16.695	917.941	691.729
209.563	16.653	917.475	691.147
210.577	16.802	916.584	691.020
211.592	17.009	915.744	691.168
212.607	17.019	915.280	690.801
213.621	16.984	914.019	689.644
214.636	16.929	913.437	688.921
215.650	16.971	913.047	688.735
216.665	16.987	912.307	688.182
217.680	17.057	911.900	688.098
218.694	17.184	910.931	687.820
219.709	17.086	910.373	686.943
220.723	17.012	910.451	686.640
221.738	16.992	909.036	685.430
222.753	16.919	908.860	684.942
223.767	16.973	908.568	684.880
224.782	17.134	907.349	684.551
225.796	17.196	907.113	684.560
226.811	17.155	906.387	683.788
227.826	17.045	905.383	682.528
228.840	17.187	904.523	682.389
229.855	17.179	903.727	681.695
230.869	17.158	902.791	680.846
231.884	16.962	902.531	679.805
232.899	16.869	901.839	678.851
233.913	16.948	901.216	678.638
234.928	16.968	900.125	677.836
235.942	16.839	900.094	677.238
236.957	16.944	899.340	677.031
237.972	16.939	898.763	676.515
238.986	16.966	898.098	676.062
240.001	16.953	897.270	675.327
241.015	16.983	896.759	675.000
242.030	17.080	896.270	674.961
243.045	17.151	895.847	674.861
244.059	17.096	895.306	674.177
245.074	17.169	894.564	673.850
246.088	17.251	893.940	673.643
247.103	17.315	892.993	673.124
248.117	17.484	892.606	673.441
249.132	17.526	892.790	673.689
250.147	17.730	891.756	673.653
251.161	17.671	891.394	673.086
252.176	17.539	890.891	672.129
253.190	17.813	889.909	672.407
254.205	17.800	889.318	671.851
255.220	17.685	888.878	671.003
256.234	17.868	888.171	671.130
257.249	17.766	887.321	670.028
258.263	17.651	886.500	668.897
259.278	17.762	885.827	668.768
260.293	17.804	885.553	668.666
261.307	17.879	884.915	668.418
262.322	17.955	884.138	668.070
263.336	17.949	883.408	667.436
264.351	17.980	882.574	666.866
265.366	18.038	882.181	666.739
266.380	17.938	881.553	665.814
267.395	17.777	881.171	664.841
268.409	17.887	880.092	664.395
269.424	17.940	879.208	663.875
270.439	17.939	878.461	663.249
271.453	17.836	877.945	662.400
272.468	17.879	877.535	662.197
273.482	17.674	877.321	661.183
274.497	17.835	876.501	661.131
275.512	17.754	875.766	660.207
276.526	17.806	875.725	660.316
277.541	17.799	874.942	659.639
278.555	18.011	874.357	659.959
279.570	18.181	873.552	659.952
280.585	18.177	872.832	659.332
281.599	17.964	871.833	657.698
282.614	17.898	871.642	657.245
283.628	17.861	870.912	656.492
284.643	17.873	870.445	656.127
285.657	17.888	870.184	655.929
286.672	17.907	869.397	655.350
287.687	18.009	868.535	655.034
288.701	18.121	867.761	654.825
289.716	18.078	867.195	654.175
290.730	18.038	866.896	653.737
291.745	18.046	866.560	653.456
292.760	18.195	865.540	653.199
293.774	18.346	864.667	653.057
294.789	18.269	863.915	652.137
295.803	18.018	863.388	650.728
296.818	17.973	863.240	650.386
297.833	18.138	862.068	650.075
298.847	18.182	861.554	649.795
299.862	18.177	861.365	649.576
300.876	18.253	860.803	649.383
301.891	18.359	859.950	649.084
302.906	18.411	859.652	649.000
303.920	18.565	859.025	649.050
304.935	18.466	859.100	648.674
305.949	18.443	857.517	647.336
306.964	18.399	857.422	647.042
307.979	18.500	856.822	646.913
308.993	18.563	855.716	646.256
310.008	18.473	855.985	646.064
311.022	18.383	855.040	644.955
312.037	18.306	854.223	643.992
313.052	18.176	853.943	643.236
314.066	18.265	853.074	642.858
315.081	18.249	852.407	642.239
316.095	18.161	851.827	641.413
317.110	18.300	851.317	641.493
318.125	18.375	850.665	641.228
319.139	18.225	850.358	640.378
320.154	18.339	850.254	640.669
321.168	18.374	849.681	640.312
322.183	18.476	848.728	639.918
323.197	18.390	848.731	639.542
324.212	18.321	847.942	638.635
325.227	18.427	847.395	638.560
326.241	18.366	846.527	637.623
327.256	18.394	845.795	637.120
328.270	18.466	845.158	636.852
329.285	18.397	844.778	636.249
330.300	18.476	844.224	636.070
331.314	18.474	843.576	635.519
332.329	18.674	843.868	636.424
333.343	18.572	843.299	635.563
334.358	18.579	842.628	635.026
335.373	18.616	842.349	634.897
336.387	18.715	841.734	634.743
337.402	18.707	841.788	634.698
338.416	18.813	841.523	634.834
339.431	18.922	840.970	634.761
340.446	18.907	840.364	634.194
341.460	18.866	840.037	633.739
342.475	18.903	840.057	633.834
343.489	19.049	839.401	633.822
344.504	19.129	838.694	633.524
345.519	19.039	838.926	633.312
346.533	19.082	837.574	632.394
347.548	18.912	836.892	631.200
348.562	18.846	836.413	630.540
349.577	18.840	835.862	630.049
350.592	18.761	835.089	629.120
351.606	18.699	834.619	628.484
352.621	18.863	833.849	628.445
353.635	18.847	833.354	627.961
354.650	18.750	832.833	627.157
355.665	18.884	832.143	627.071
356.679	19.041	831.326	626.971
357.694	18.988	830.660	626.222
358.708	18.954	830.286	625.760
359.723	19.066	829.773	625.726
360.738	18.924	829.606	625.030
361.752	19.055	828.574	624.671
362.767	19.034	828.337	624.362
363.781	19.209	827.778	624.518
364.796	19.428	827.058	624.713
365.810	19.332	827.039	624.297
366.825	19.307	826.742	623.927
367.840	19.364	826.191	623.663
368.854	19.413	825.500	623.261
369.869	19.387	824.794	622.578
370.883	19.470	824.389	622.518
371.898	19.396	824.343	622.161
372.913	19.406	823.605	621.585
373.927	19.359	823.507	621.286
374.942	19.427	823.184	621.234
375.956	19.494	822.670	621.033
376.971	19.603	822.001	620.864
377.986	19.659	821.647	620.742
379.000	19.628	821.150	620.202
380.015	19.508	820.863	619.500
381.029	19.719	819.887	619.463
382.044	19.738	819.414	619.118
383.059	19.690	818.925	618.523
384.073	19.385	818.306	616.909
385.088	19.527	817.432	616.704
386.102	19.427	816.910	615.900
387.117	19.421	816.241	615.319
388.132	19.459	815.720	615.005
389.146	19.689	815.065	615.278
390.161	19.631	814.851	614.854
391.175	19.713	814.254	614.641
392.190	19.575	814.115	613.991
393.205	19.554	813.482	613.386
394.219	19.577	813.001	613.048
395.234	19.394	812.593	612.040
396.248	19.352	812.366	611.666
397.263	19.276	811.885	610.980
398.278	19.251	811.526	610.565
399.292	19.450	810.868	610.722
400.307	19.400	810.149	609.948
401.321	19.397	810.039	609.802
402.336	19.445	809.606	609.593
403.350	19.683	808.838	609.800
404.365	19.747	808.338	609.595
405.380	19.707	808.079	609.205
406.394	19.770	807.745	609.118
407.409	19.888	807.542	609.329
408.423	20.077	807.018	609.543
409.438	20.015	806.555	608.922
410.453	20.010	806.262	608.631
411.467	20.162	805.755	608.725
412.482	20.098	805.684	608.394
413.496	20.011	805.429	607.845
414.511	20.155	804.505	607.597
415.526	20.031	804.208	606.885
416.540	19.994	803.665	606.292
417.555	20.246	803.139	606.723
418.569	20.154	802.962	606.213
419.584	20.016	802.524	605.346
420.599	20.026	801.951	604.896
421.613	161.712	1372.918	1797.373
422.628	140.435	1456.123	1797.458
