DTS Sentinel unit serial number:	SN413079Multiplexer serial number:	ORYXHardware model number:	OX4-SRSoftware version number:	ORYX F/W v4.00 Oryx Data Collector v3.7.2.0data status	okinstallation	princeton_trtdifferential loss correction	single-endedforward channel	channel 1reverse channel	N/Adate	2019/09/18time	21:50:36forward acquisition time	60.00reverse acquisition time	0.00gamma	496.2192k internal	0.2341k external	0.2341temperature offset calibration	1.0017default loss term (dB/km)	0.3790temperature slope calibration	1.0000multiplexer offset coefficient	1.0000multiplexer slope coefficient	1.0000fibre end	0.00T internal ref (°C)	24.75T ext. ref 1 (°C)	0.81T ext. ref 2 (°C)	18.32length (m)	temperature (°C)	Stokes	anti-Stokes-747.200	387.003	0.186	0.386
-746.185	-82.817	-0.312	-0.101
-745.171	-13.072	0.173	0.113
-744.156	-37.092	0.203	0.109
-743.142	-200.000	-0.014	0.246
-742.127	312.064	-0.046	0.087
-741.112	175.503	-0.166	-0.241
-740.098	800.000	-0.059	0.174
-739.083	-144.620	0.336	-0.031
-738.069	-3.296	-0.371	0.259
-737.054	76.072	0.224	-0.238
-736.039	-148.693	-0.358	-0.029
-735.025	156.022	-0.074	0.102
-734.010	-72.970	-0.202	-0.074
-732.996	-143.470	-0.334	0.032
-731.981	-44.821	-0.177	0.088
-730.966	-19.725	0.325	0.201
-729.952	-38.764	-0.337	-0.178
-728.937	-22.639	-0.105	0.063
-727.923	659.673	0.182	-0.468
-726.908	-143.075	0.097	-0.009
-725.894	-11.744	-0.493	-0.324
-724.879	-151.983	-0.283	-0.021
-723.864	0.752	-0.368	0.264
-722.850	-200.000	0.027	-0.129
-721.835	-39.048	0.164	-0.086
-720.821	165.921	-0.027	0.038
-719.806	-68.902	0.125	0.048
-718.791	-28.035	-0.031	0.018
-717.777	96.510	0.144	0.166
-716.762	58.619	-0.192	0.189
-715.748	38.801	-0.260	-0.233
-714.733	800.000	-0.092	0.339
-713.718	88.249	-0.092	0.102
-712.704	-30.018	0.125	-0.071
-711.689	307.543	-0.077	0.143
-710.675	-182.635	-0.151	-0.003
-709.660	800.000	0.066	-0.186
-708.645	555.840	0.083	0.201
-707.631	4.415	-0.132	-0.097
-706.616	69.296	-0.106	-0.109
-705.602	-105.368	-0.444	-0.101
-704.587	-200.000	0.006	-0.123
-703.572	349.525	0.113	0.224
-702.558	-7.650	0.276	0.187
-701.543	-38.011	-0.201	0.107
-700.529	244.110	0.162	-0.271
-699.514	34.241	0.262	0.228
-698.499	162.823	-0.090	0.126
-697.485	101.448	-0.216	-0.252
-696.470	-27.085	-0.155	-0.091
-695.456	-14.325	0.292	0.188
-694.441	278.780	-0.087	-0.156
-693.426	57.365	-0.159	-0.155
-692.412	-110.491	0.316	0.066
-691.397	446.721	-0.195	0.430
-690.383	453.969	-0.091	-0.202
-689.368	-200.000	0.079	0.465
-688.354	16.837	-0.219	-0.174
-687.339	692.111	-0.095	-0.250
-686.324	-200.000	-0.081	-0.409
-685.310	-171.122	0.121	-0.004
-684.295	-55.854	0.098	-0.044
-683.281	-134.716	0.042	0.005
-682.266	-86.602	-0.039	0.012
-681.251	-117.076	-0.201	0.037
-680.237	-161.639	0.260	-0.013
-679.222	-200.000	0.028	0.205
-678.208	122.721	0.341	0.426
-677.193	-78.152	-0.374	0.129
-676.178	228.150	0.229	-0.372
-675.164	53.363	0.059	-0.056
-674.149	299.324	0.124	0.227
-673.135	-200.000	-0.009	-0.484
-672.120	188.273	0.144	-0.215
-671.105	-103.637	-0.086	-0.020
-670.091	271.228	-0.019	-0.034
-669.076	684.404	0.085	-0.221
-668.062	-14.862	-0.165	0.106
-667.047	444.095	0.053	-0.116
-666.032	-200.000	-0.042	-0.370
-665.018	-134.690	-0.261	-0.032
-664.003	-200.000	0.000	-0.096
-662.989	188.041	0.074	-0.110
-661.974	-45.490	0.171	-0.085
-660.959	-200.000	0.000	-0.079
-659.945	-135.226	-0.381	0.046
-658.930	-119.524	0.121	0.021
-657.916	109.315	-0.193	-0.230
-656.901	-17.332	0.147	0.092
-655.886	360.730	0.107	0.215
-654.872	36.457	0.094	0.082
-653.857	96.432	0.071	0.081
-652.843	-103.641	0.200	0.047
-651.828	91.003	0.114	0.127
-650.814	-10.264	-0.153	0.101
-649.799	800.000	-0.006	-0.020
-648.784	-200.000	-0.028	-0.272
-647.770	221.546	0.025	0.040
-646.755	217.365	0.213	0.339
-645.741	136.925	-0.151	0.197
-644.726	-72.130	0.264	-0.098
-643.711	-116.368	0.145	-0.027
-642.697	-55.287	-0.074	0.033
-641.682	-200.000	0.006	0.099
-640.668	-102.010	-0.274	-0.066
-639.653	-200.000	0.022	-0.242
-638.638	141.202	0.372	0.491
-637.624	-172.781	0.155	0.005
-636.609	308.915	-0.103	-0.191
-635.595	-57.166	-0.084	-0.037
-634.580	-178.803	-0.100	0.002
-633.565	-123.138	-0.455	0.073
-632.551	-200.000	0.012	-0.311
-631.536	-78.434	-0.098	0.034
-630.522	-126.750	-0.311	0.046
-629.507	27.174	0.035	-0.029
-628.492	-200.000	-0.004	0.029
-627.478	532.659	-0.082	-0.194
-626.463	-125.565	0.366	0.055
-625.449	-36.154	-0.124	0.067
-624.434	-115.532	0.297	-0.056
-623.419	151.795	0.064	-0.088
-622.405	-138.085	0.279	0.031
-621.390	21.504	-0.275	-0.223
-620.376	-84.966	-0.226	0.071
-619.361	-146.689	0.229	0.020
-618.346	27.087	-0.030	-0.025
-617.332	-200.000	-0.034	-0.202
-616.317	126.294	0.014	-0.018
-615.303	692.734	0.036	0.094
-614.288	150.453	0.057	0.077
-613.273	401.258	-0.084	0.175
-612.259	-110.053	0.527	-0.110
-611.244	103.162	-0.027	-0.032
-610.230	-200.000	0.041	-0.206
-609.215	-200.000	-0.011	0.137
-608.201	62.608	0.231	-0.230
-607.186	-200.000	-0.030	-0.400
-606.171	-100.978	-0.205	0.050
-605.157	-6.703	0.048	0.033
-604.142	119.729	-0.129	-0.160
-603.128	466.190	-0.168	0.375
-602.113	62.057	0.213	0.212
-601.098	51.875	0.139	0.132
-600.084	158.395	0.255	0.352
-599.069	127.712	-0.171	0.216
-598.055	64.370	-0.116	-0.117
-597.040	360.916	-0.094	0.187
-596.025	651.719	0.068	0.173
-595.011	20.981	0.154	-0.124
-593.996	-200.000	-0.008	-0.264
-592.982	-130.035	0.042	0.006
-591.967	34.480	0.122	-0.106
-590.952	800.000	0.092	0.287
-589.938	-31.378	-0.171	0.096
-588.923	-35.023	-0.150	0.082
-587.909	214.434	-0.114	-0.180
-586.894	-59.827	0.521	-0.222
-585.879	194.422	-0.230	0.347
-584.865	800.000	-0.044	-0.184
-583.850	157.386	-0.030	-0.041
-582.836	-200.000	-0.008	0.369
-581.821	22.170	0.117	-0.095
-580.806	-200.000	-0.062	-0.382
-579.792	-200.000	-0.051	0.247
-578.777	-5.741	-0.309	-0.211
-577.763	-110.206	0.247	-0.051
-576.748	50.721	0.153	0.144
-575.733	-200.000	-0.008	-0.179
-574.719	800.000	-0.092	-0.317
-573.704	84.299	0.272	0.296
-572.690	-200.000	-0.032	0.185
-571.675	-162.454	-0.074	-0.004
-570.661	-98.204	0.087	-0.022
-569.646	-128.720	0.098	0.014
-568.631	432.483	0.012	0.025
-567.617	551.326	-0.131	-0.314
-566.602	-11.237	-0.302	0.198
-565.588	-25.234	-0.198	-0.117
-564.573	31.367	0.108	0.093
-563.558	-200.000	-0.027	-0.171
-562.544	427.671	-0.073	-0.157
-561.529	486.277	0.078	-0.176
-560.515	-142.250	-0.185	0.018
-559.500	-20.779	-0.027	0.016
-558.485	-21.276	0.123	0.075
-557.471	-200.000	-0.005	-0.084
-556.456	-25.691	-0.067	-0.039
-555.442	-200.000	-0.001	-0.158
-554.427	-200.000	0.040	-0.253
-553.412	0.130	-0.033	-0.024
-552.398	279.227	0.148	-0.263
-551.383	-129.494	-0.132	0.018
-550.369	-40.045	0.305	0.158
-549.354	48.082	-0.186	-0.173
-548.339	800.000	-0.065	-0.259
-547.325	246.030	0.160	-0.267
-546.310	128.138	-0.181	-0.229
-545.296	800.000	-0.023	-0.069
-544.281	110.898	-0.202	-0.242
-543.266	-200.000	-0.027	-0.269
-542.252	-200.000	-0.074	0.431
-541.237	501.573	0.070	0.161
-540.223	-72.820	-0.052	0.019
-539.208	-200.000	-0.043	0.189
-538.193	74.383	-0.133	-0.139
-537.179	2.834	0.074	0.053
-536.164	787.691	-0.046	-0.125
-535.150	345.851	-0.096	-0.188
-534.135	74.741	-0.213	0.223
-533.121	-63.741	0.106	0.043
-532.106	-103.876	0.258	0.060
-531.091	-135.065	-0.373	-0.045
-530.077	22.346	-0.206	0.168
-529.062	335.521	0.057	0.110
-528.048	-85.257	0.251	-0.078
-527.033	-33.237	0.319	0.175
-526.018	-200.000	-0.004	-0.283
-525.004	-94.625	0.202	0.055
-523.989	-134.457	0.135	-0.016
-522.975	-200.000	0.014	-0.077
-521.960	58.881	0.217	-0.212
-520.945	305.469	-0.057	0.106
-519.931	-113.339	0.383	-0.075
-518.916	156.400	-0.181	0.248
-517.902	-37.877	-0.307	0.162
-516.887	-200.000	0.016	0.125
-515.872	167.382	-0.201	-0.284
-514.858	627.560	0.046	0.116
-513.843	800.000	-0.037	-0.111
-512.829	6.570	0.200	-0.148
-511.814	114.332	-0.139	0.168
-510.799	800.000	-0.064	-0.259
-509.785	-200.000	-0.011	0.173
-508.770	800.000	0.041	0.157
-507.756	-39.449	0.041	0.021
-506.741	-42.248	0.175	-0.089
-505.726	-89.644	0.249	0.073
-504.712	-76.162	-0.108	-0.038
-503.697	-200.000	0.241	0.001
-502.683	108.108	-0.168	-0.199
-501.668	279.702	-0.098	-0.173
-500.653	-200.000	0.024	0.611
-499.639	-52.115	-0.114	-0.053
-498.624	96.238	0.157	0.178
-497.610	-200.000	0.015	-0.190
-496.595	-200.000	0.077	-0.355
-495.581	-117.329	0.127	0.023
-494.566	407.652	-0.134	0.282
-493.551	15.239	0.143	0.111
-492.537	-19.368	0.142	0.088
-491.522	-100.537	0.270	0.066
-490.508	-200.000	-0.000	0.099
-489.493	-89.958	-0.191	0.055
-488.478	28.493	-0.240	0.202
-487.464	-48.224	0.156	-0.075
-486.449	-200.000	-0.019	0.388
-485.435	80.851	-0.125	0.134
-484.420	674.101	-0.093	-0.240
-483.405	-140.253	-0.086	-0.009
-482.391	81.179	0.092	0.098
-481.376	-36.513	0.470	0.251
-480.362	467.891	-0.104	0.232
-479.347	-153.826	-0.025	-0.002
-478.332	-39.885	-0.364	-0.188
-477.318	-86.263	0.218	0.067
-476.303	119.123	-0.065	-0.080
-475.289	-200.000	0.023	-0.181
-474.274	-200.000	-0.016	-0.144
-473.259	-200.000	0.028	-0.262
-472.245	-145.072	-0.306	0.028
-471.230	-200.000	0.048	0.243
-470.216	454.743	-0.083	0.183
-469.201	800.000	-0.087	-0.316
-468.186	-200.000	0.085	-0.388
-467.172	-200.000	0.009	0.278
-466.157	148.864	-0.211	0.283
-465.143	-107.635	-0.135	0.029
-464.128	91.095	-0.172	-0.191
-463.113	72.816	0.174	0.180
-462.099	101.940	-0.179	0.208
-461.084	-94.748	-0.021	-0.006
-460.070	-153.218	-0.410	0.028
-459.055	-200.000	-0.002	0.086
-458.040	258.558	0.076	-0.129
-457.026	-140.091	-0.089	0.009
-456.011	800.000	0.066	0.246
-454.997	-22.979	-0.122	-0.073
-453.982	32.725	-0.210	-0.180
-452.968	-87.121	0.034	-0.010
-451.953	352.850	0.037	-0.074
-450.938	-66.943	0.023	0.009
-449.924	734.725	0.181	-0.479
-448.909	45.985	-0.278	-0.255
-447.895	138.072	-0.158	-0.206
-446.880	-200.000	-0.010	-0.129
-445.865	-200.000	-0.025	0.452
-444.851	-141.761	0.328	0.033
-443.836	-87.293	-0.349	0.105
-442.822	-12.207	-0.211	-0.137
-441.807	7.725	0.209	-0.155
-440.792	81.930	0.124	-0.133
-439.778	121.567	0.224	0.276
-438.763	15.908	-0.124	-0.097
-437.749	-69.509	-0.616	-0.234
-436.734	-136.750	0.288	0.033
-435.719	-27.803	0.537	-0.308
-434.705	84.700	0.114	0.124
-433.690	-30.147	-0.201	-0.113
-432.676	-110.708	0.138	0.028
-431.661	-200.000	-0.018	-0.115
-430.646	-102.782	-0.201	-0.047
-429.632	800.000	0.044	-0.161
-428.617	-200.000	0.027	0.163
-427.603	-200.000	-0.036	-0.291
-426.588	-48.391	-0.207	0.098
-425.573	306.174	-0.083	0.152
-424.559	-200.000	0.005	0.110
-423.544	-83.264	-0.258	0.082
-422.530	800.000	0.101	-0.291
-421.515	-48.227	0.326	0.155
-420.500	201.502	0.083	-0.127
-419.486	-23.182	-0.147	-0.088
-418.471	800.000	0.020	0.082
-417.457	81.970	-0.275	0.295
-416.442	151.855	-0.270	0.364
-415.428	112.206	0.145	0.174
-414.413	-200.000	0.052	0.263
-413.398	212.792	-0.063	0.099
-412.384	180.755	-0.082	-0.119
-411.369	-81.815	-0.206	-0.067
-410.355	800.000	-0.124	-0.525
-409.340	-85.637	-0.268	-0.082
-408.325	228.650	-0.190	-0.306
-407.311	8.339	-0.080	0.060
-406.296	-109.592	0.180	0.037
-405.282	184.869	0.137	-0.200
-404.267	-40.908	0.048	-0.024
-403.252	-200.000	-0.021	0.222
-402.238	133.818	0.136	-0.174
-401.223	37.924	-0.153	-0.135
-400.209	-200.000	0.055	-0.295
-399.194	-51.923	-0.017	-0.008
-398.179	800.000	-0.052	0.213
-397.165	149.579	0.089	0.120
-396.150	-24.056	0.259	-0.153
-395.136	-200.000	-0.013	0.082
-394.121	121.876	0.105	-0.129
-393.106	-81.825	0.084	0.027
-392.092	315.546	-0.116	0.217
-391.077	-150.806	0.216	0.016
-390.063	133.642	-0.167	-0.214
-389.048	-200.000	0.037	-0.249
-388.033	-104.722	0.414	0.094
-387.019	-200.000	-0.020	-0.162
-386.004	-200.000	-0.072	-0.498
-384.990	800.000	-0.033	-0.109
-383.975	-129.429	0.324	0.044
-382.960	-200.000	0.027	-0.254
-381.946	-34.540	-0.090	-0.048
-380.931	-141.493	0.205	-0.020
-379.917	133.188	0.234	0.299
-378.902	139.874	-0.090	0.117
-377.888	368.800	0.060	-0.120
-376.873	341.282	-0.070	-0.135
-375.858	-132.407	-0.408	-0.052
-374.844	-9.543	0.092	-0.060
-373.829	-184.518	-0.208	-0.003
-372.815	-79.374	-0.319	-0.107
-371.800	-39.789	0.300	-0.155
-370.785	800.000	-0.042	0.124
-369.771	683.456	0.196	-0.505
-368.756	571.245	0.078	-0.186
-367.742	-154.262	-0.177	0.012
-366.727	430.971	-0.129	0.277
-365.712	-200.000	0.022	0.137
-364.698	-111.185	0.270	-0.055
-363.683	-96.913	0.278	-0.072
-362.669	45.058	0.217	0.197
-361.654	110.897	0.146	-0.173
-360.639	22.789	0.189	0.153
-359.625	97.035	0.056	0.063
-358.610	-19.870	-0.149	0.091
-357.596	-8.912	0.213	0.141
-356.581	201.682	-0.169	-0.257
-355.566	319.474	0.079	0.147
-354.552	-35.484	0.052	-0.028
-353.537	-200.000	0.016	-0.209
-352.523	121.746	0.088	-0.109
-351.508	-28.582	0.072	-0.041
-350.493	567.114	-0.081	-0.193
-349.479	-200.000	-0.044	0.381
-348.464	51.367	0.217	0.203
-347.450	-49.277	-0.231	0.109
-346.435	16.294	-0.179	0.140
-345.420	-123.748	0.135	-0.021
-344.406	-47.963	0.221	0.106
-343.391	-200.000	-0.021	-0.309
-342.377	69.243	-0.277	0.281
-341.362	99.006	-0.098	0.112
-340.348	-200.000	0.006	-0.050
-339.333	800.000	-0.082	-0.282
-338.318	-53.422	0.169	-0.076
-337.304	-200.000	0.005	-0.181
-336.289	800.000	0.018	-0.071
-335.275	-44.262	-0.380	-0.188
-334.260	-200.000	-0.007	0.170
-333.245	88.805	0.118	-0.129
-332.231	460.319	0.084	0.185
-331.216	800.000	0.051	-0.184
-330.202	132.391	0.178	0.226
-329.187	85.909	-0.123	-0.133
-328.172	-31.908	0.074	0.041
-327.158	30.031	0.199	-0.167
-326.143	732.818	0.045	-0.118
-325.129	-96.794	-0.121	-0.031
-324.114	614.230	0.158	-0.390
-323.099	-200.000	-0.037	0.230
-322.085	237.961	0.118	0.194
-321.070	-82.930	-0.181	-0.058
-320.056	-102.347	0.083	-0.020
-319.041	-4.175	0.395	0.270
-318.026	800.000	0.034	-0.136
-317.012	458.636	-0.086	0.189
-315.997	280.061	0.114	-0.201
-314.983	-102.867	0.285	0.067
-313.968	-57.723	-0.169	0.073
-312.953	-36.860	0.076	0.040
-311.939	-84.878	0.077	-0.024
-310.924	-90.293	0.139	0.040
-309.910	-14.798	0.277	-0.175
-308.895	548.888	0.059	-0.138
-307.880	800.000	0.059	0.225
-306.866	-80.064	-0.100	-0.033
-305.851	-17.853	-0.361	0.223
-304.837	32.765	-0.240	0.205
-303.822	-127.194	0.079	-0.011
-302.807	610.308	0.123	0.302
-301.793	-200.000	-0.008	0.262
-300.778	-82.149	0.184	-0.059
-299.764	675.213	0.061	0.156
-298.749	-149.552	0.176	0.014
-297.735	800.000	0.033	0.116
-296.720	-175.396	-0.124	-0.003
-295.705	68.113	-0.220	-0.221
-294.691	159.965	-0.178	0.245
-293.676	121.364	0.027	0.033
-292.662	125.444	0.078	-0.097
-291.647	-146.584	-0.433	-0.037
-290.632	-200.000	-0.092	0.400
-289.618	2.558	-0.222	-0.158
-288.603	-109.070	0.373	0.078
-287.589	-200.000	0.084	-0.433
-286.574	18.007	0.131	0.103
-285.559	75.225	0.215	0.223
-284.545	385.387	0.159	0.322
-283.530	800.000	0.055	-0.174
-282.516	-108.646	-0.371	0.078
-281.501	-14.686	0.104	-0.066
-280.486	-97.569	-0.173	0.044
-279.472	-86.328	-0.225	-0.068
-278.457	-155.351	-0.445	0.028
-277.443	-65.075	0.146	0.058
-276.428	10.062	-0.245	0.183
-275.413	-6.630	0.129	-0.086
-274.399	-13.603	-0.179	-0.114
-273.384	-115.896	-0.163	-0.030
-272.370	-101.690	-0.089	-0.021
-271.355	292.177	-0.031	0.055
-270.340	-200.000	-0.111	0.000
-269.326	800.000	0.072	-0.216
-268.311	122.834	-0.071	-0.087
-267.297	-155.537	0.109	-0.007
-266.282	-200.000	0.000	-0.237
-265.267	-177.912	0.103	0.002
-264.253	331.010	0.250	0.473
-263.238	506.398	-0.082	-0.187
-262.224	778.563	0.036	0.096
-261.209	-13.518	0.225	-0.143
-260.195	800.000	0.112	0.319
-259.180	-200.000	-0.008	-0.068
-258.165	12.124	-0.321	0.243
-257.151	195.545	0.139	0.208
-256.136	508.118	-0.081	-0.184
-255.122	-147.899	0.128	-0.010
-254.107	-200.000	-0.058	0.273
-253.092	800.000	0.046	0.147
-252.078	683.186	-0.185	-0.474
-251.063	-74.090	-0.161	0.057
-250.049	612.744	-0.045	0.110
-249.034	800.000	0.087	0.351
-248.019	-102.821	0.174	-0.041
-247.005	166.771	0.151	0.210
-245.990	252.053	0.128	0.215
-244.976	102.864	0.121	0.139
-243.961	105.020	0.174	-0.202
-242.946	84.370	-0.218	0.234
-241.932	-200.000	-0.021	0.180
-240.917	-200.000	0.021	0.171
-239.903	-200.000	-0.022	-0.098
-238.888	-69.202	-0.376	-0.142
-237.873	28.163	0.145	0.121
-236.859	-200.000	-0.006	0.050
-235.844	47.240	-0.143	-0.131
-234.830	-200.000	-0.025	0.192
-233.815	55.762	0.149	-0.142
-232.800	2.448	0.311	0.221
-231.786	-200.000	-0.004	-0.291
-230.771	-46.527	0.241	-0.116
-229.757	-200.000	-0.007	-0.153
-228.742	193.552	-0.145	-0.215
-227.727	-12.639	-0.130	-0.083
-226.713	21.489	-0.082	-0.065
-225.698	-200.000	0.048	0.218
-224.684	-83.935	0.171	-0.054
-223.669	-200.000	-0.005	0.105
-222.655	593.086	-0.048	-0.116
-221.640	288.295	0.055	0.097
-220.625	-1.626	0.160	-0.111
-219.611	529.528	-0.191	0.444
-218.596	163.572	0.088	-0.122
-217.582	-129.997	-0.436	-0.059
-216.567	307.151	-0.141	0.258
-215.552	-200.000	0.005	0.025
-214.538	-45.711	-0.528	0.256
-213.523	800.000	-0.033	0.135
-212.509	393.397	-0.152	0.310
-211.494	652.254	0.109	-0.273
-210.479	502.074	0.102	0.231
-209.465	-200.000	0.052	-0.374
-208.450	228.442	0.169	-0.270
-207.436	742.656	0.032	-0.084
-206.421	154.230	-0.150	0.202
-205.406	32.358	-0.049	-0.042
-204.392	-144.006	-0.165	0.015
-203.377	-200.000	0.076	0.389
-202.363	-32.246	0.296	0.162
-201.348	475.707	0.068	-0.151
-200.333	319.681	0.058	-0.107
-199.319	-200.000	0.003	-0.216
-198.304	-78.413	0.265	0.089
-197.290	-10.137	-0.227	-0.148
-196.275	-61.654	0.031	-0.013
-195.260	-45.002	-0.497	-0.243
-194.246	800.000	0.174	-0.491
-193.231	-200.000	-0.030	0.138
-192.217	94.697	-0.025	0.028
-191.202	-200.000	-0.040	0.189
-190.187	-75.114	0.213	-0.075
-189.173	-46.926	-0.212	-0.102
-188.158	-36.509	-0.213	0.113
-187.144	-86.969	0.272	0.081
-186.129	800.000	-0.124	-0.435
-185.114	-153.519	-0.347	-0.024
-184.100	-200.000	0.010	-0.130
-183.085	208.436	0.086	-0.131
-182.071	-18.022	0.172	0.106
-181.056	-64.482	-0.186	0.074
-180.042	-200.000	-0.020	-0.225
-179.027	-135.126	-0.177	-0.021
-178.012	-170.447	-0.588	-0.020
-176.998	800.000	-0.021	0.073
-175.983	-81.736	-0.049	0.016
-174.969	800.000	-0.025	-0.068
-173.954	-29.145	-0.135	-0.076
-172.939	800.000	-0.097	0.285
-171.925	800.000	-0.145	0.402
-170.910	-200.000	0.028	0.135
-169.896	-200.000	0.012	0.344
-168.881	98.846	0.260	0.294
-167.866	26.257	-0.182	0.149
-166.852	48.806	0.204	0.188
-165.837	-200.000	-0.005	-0.225
-164.823	-140.868	0.594	-0.060
-163.808	-138.481	0.252	-0.027
-162.793	224.240	0.061	0.097
-161.779	800.000	0.078	0.236
-160.764	800.000	-0.118	0.346
-159.750	57.015	0.375	0.358
-158.735	258.233	-0.050	-0.084
-157.720	-12.827	-0.154	-0.098
-156.706	-146.494	0.189	-0.016
-155.691	-200.000	-0.011	-0.160
-154.677	424.217	0.141	0.298
-153.662	217.508	0.188	-0.293
-152.647	434.028	-0.058	0.123
-151.633	229.483	-0.156	-0.249
-150.618	-23.846	-0.224	0.131
-149.604	118.522	0.104	0.126
-148.589	445.353	0.124	0.266
-147.574	-87.702	0.021	0.006
-146.560	-111.740	-0.191	0.038
-145.545	35.887	-0.123	-0.106
-144.531	-200.000	-0.049	-0.213
-143.516	199.302	0.217	-0.326
-142.502	-5.678	-0.136	0.091
-141.487	-20.031	-0.078	-0.047
-140.472	-47.459	-0.093	-0.044
-139.458	68.384	0.214	-0.215
-138.443	-88.655	-0.149	-0.043
-137.429	23.289	-0.214	0.172
-136.414	85.044	0.034	-0.037
-135.399	268.842	0.050	0.086
-134.385	-151.360	-0.097	0.007
-133.370	527.823	0.075	0.172
-132.356	79.241	0.064	-0.067
-131.341	141.844	-0.229	0.297
-130.326	-123.976	0.318	0.049
-129.312	-148.188	-0.126	-0.010
-128.297	-39.521	-0.069	-0.035
-127.283	150.382	0.255	0.339
-126.268	-144.383	0.104	0.009
-125.253	154.854	0.079	0.107
-124.239	-154.763	0.205	0.013
-123.224	800.000	-0.044	0.142
-122.210	-200.000	-0.073	0.511
-121.195	424.571	0.089	0.188
-120.180	-161.794	0.079	0.004
-119.166	-83.620	-0.368	-0.115
-118.151	-200.000	0.017	0.286
-117.137	-200.000	-0.030	0.173
-116.122	-177.988	-0.060	0.001
-115.107	363.858	-0.109	-0.214
-114.093	461.147	-0.069	0.151
-113.078	428.525	-0.123	0.259
-112.064	-128.928	0.267	0.037
-111.049	-155.824	-0.211	-0.013
-110.034	31.389	0.031	0.026
-109.020	-75.635	-0.305	-0.106
-108.005	-70.666	0.029	-0.011
-106.991	-71.471	0.350	-0.128
-105.976	-178.462	-0.239	0.005
-104.962	215.026	-0.146	0.227
-103.947	531.803	0.078	0.181
-102.932	-6.407	0.392	-0.261
-101.918	-137.703	-0.112	-0.012
-100.903	244.944	0.117	0.192
-99.889	-113.580	0.232	-0.044
-98.874	-200.000	0.056	0.242
-97.859	-166.506	0.187	0.008
-96.845	-150.798	-0.053	0.004
-95.830	374.970	0.061	0.121
-94.816	-164.610	0.155	0.007
-93.801	-41.013	0.052	0.026
-92.786	-48.597	-0.106	0.050
-91.772	800.000	0.034	-0.093
-90.757	-200.000	0.031	0.161
-89.743	-68.962	-0.274	-0.103
-88.728	-82.752	-0.187	0.059
-87.713	190.573	-0.230	0.338
-86.699	-200.000	0.012	-0.180
-85.684	800.000	0.036	0.153
-84.670	88.345	0.149	0.162
-83.655	61.560	-0.220	-0.213
-82.640	800.000	-0.025	0.095
-81.626	-92.271	-0.109	-0.030
-80.611	800.000	0.060	-0.232
-79.597	-109.718	-0.214	-0.044
-78.582	512.586	0.133	-0.303
-77.567	104.884	0.052	0.060
-76.553	-22.265	0.214	0.127
-75.538	-200.000	0.014	-0.175
-74.524	32.026	0.154	-0.130
-73.509	600.460	-0.158	0.383
-72.494	77.599	-0.130	0.135
-71.480	712.510	-0.169	-0.436
-70.465	71.152	0.152	-0.154
-69.451	800.000	0.123	0.351
-68.436	-128.539	0.173	0.024
-67.422	-200.000	0.010	-0.067
-66.407	-39.432	-0.158	0.081
-65.392	-14.497	0.181	-0.113
-64.378	-56.136	-0.113	-0.049
-63.363	-200.000	0.000	-0.295
-62.349	514.328	-0.041	0.093
-61.334	19.339	-1.110	-0.870
-60.319	-72.659	0.989	0.356
-59.305	800.000	-0.311	-1.281
-58.290	141.255	1.073	1.385
-57.276	800.000	0.432	1.646
-56.261	-200.000	120.502	626.360
-55.246	422.503	1530.512	3205.837
-54.232	149.400	2676.323	3535.117
-53.217	98.344	2128.019	2391.825
-52.203	36.064	1574.064	1351.821
-51.188	28.064	1321.797	1087.760
-50.173	25.459	1284.055	1041.584
-49.159	51.497	1351.185	1252.246
-48.144	49.080	1363.484	1249.194
-47.130	27.984	1312.711	1079.642
-46.115	24.896	1293.492	1045.781
-45.100	24.686	1288.477	1040.462
-44.086	24.586	1286.365	1038.136
-43.071	24.651	1283.983	1036.550
-42.057	24.652	1282.207	1035.082
-41.042	24.686	1280.236	1033.645
-40.027	24.688	1278.873	1032.516
-39.013	24.566	1277.091	1030.331
-37.998	24.693	1274.775	1029.157
-36.984	24.637	1273.599	1027.841
-35.969	24.659	1271.804	1026.477
-34.954	24.773	1269.822	1025.493
-33.940	24.669	1269.066	1024.245
-32.925	24.795	1267.158	1023.383
-31.911	24.793	1265.513	1022.002
-30.896	24.819	1264.222	1021.070
-29.881	24.818	1263.304	1020.280
-28.867	24.879	1261.915	1019.467
-27.852	24.912	1260.392	1018.382
-26.838	24.808	1259.449	1016.990
-25.823	24.808	1257.824	1015.640
-24.809	24.863	1256.565	1014.893
-23.794	24.857	1255.317	1013.810
-22.779	24.805	1254.559	1012.867
-21.765	24.890	1252.923	1011.985
-20.750	24.938	1251.626	1011.170
-19.736	24.830	1250.541	1009.643
-18.721	24.812	1249.599	1008.740
-17.706	24.691	1248.490	1007.122
-16.692	24.787	1247.077	1006.480
-15.677	24.759	1246.030	1005.438
-14.663	24.659	1245.086	1004.080
-13.648	24.767	1243.403	1003.286
-12.633	24.763	1242.652	1002.619
-11.619	24.591	1242.458	1001.460
-10.604	24.640	1241.514	1000.933
-9.590	24.657	1240.393	1000.083
-8.575	24.678	1239.471	999.417
-7.560	24.707	1238.607	998.840
-6.546	24.725	1237.775	998.234
-5.531	24.686	1237.032	997.379
-4.517	24.751	1235.696	996.621
-3.502	24.712	1235.526	996.226
-2.487	24.724	1234.617	995.520
-1.473	24.734	1229.686	991.560
-0.458	22.892	1215.503	969.983
0.556	18.326	1200.085	932.659
1.571	14.515	1207.389	917.328
2.586	13.707	1222.288	924.065
3.600	13.980	1210.291	916.417
4.615	10.544	1139.848	845.131
5.629	4.094	1069.135	761.023
6.644	0.992	1051.792	733.601
7.659	0.729	1050.143	731.116
8.673	0.713	1049.342	730.418
9.688	0.796	1048.173	729.939
10.702	0.990	1045.850	729.191
11.717	4.842	1050.515	750.980
12.731	12.037	1059.255	792.038
13.746	16.483	1065.159	817.942
14.761	17.295	1065.974	822.423
15.775	16.599	1064.276	817.677
16.790	15.597	1062.211	811.182
17.804	14.993	1060.447	806.852
18.819	14.707	1059.307	804.536
19.834	14.489	1058.503	802.804
20.848	14.172	1057.748	800.638
21.863	13.987	1056.354	798.619
22.877	13.775	1056.132	797.364
23.892	13.737	1055.603	796.711
24.907	13.826	1054.541	796.264
25.921	13.641	1054.393	795.195
26.936	13.737	1053.184	794.673
27.950	13.762	1052.188	793.972
28.965	13.865	1050.952	793.462
29.980	13.934	1049.983	792.987
30.994	14.034	1048.657	792.396
32.009	14.010	1047.887	791.626
33.023	13.944	1047.028	790.594
34.038	13.863	1045.747	789.172
35.053	13.887	1045.145	788.762
36.067	13.860	1043.826	787.569
37.082	13.810	1043.479	787.002
38.096	13.862	1042.486	786.429
39.111	13.978	1041.654	786.280
40.126	13.861	1040.803	785.016
41.140	13.855	1039.349	783.819
42.155	13.643	1038.513	782.123
43.169	13.664	1037.216	781.174
44.184	13.639	1036.319	780.312
45.199	13.626	1035.692	779.707
46.213	13.754	1034.073	779.023
47.228	13.797	1033.391	778.642
48.242	13.795	1032.091	777.584
49.257	13.712	1031.378	776.588
50.271	13.911	1030.154	776.527
51.286	13.800	1029.607	775.528
52.301	13.776	1028.397	774.437
53.315	13.844	1027.558	774.052
54.330	13.846	1026.404	773.126
55.344	13.737	1025.887	772.162
56.359	13.800	1024.834	771.594
57.374	13.688	1023.797	770.225
58.388	13.888	1022.548	770.145
59.403	13.673	1022.216	768.829
60.417	13.636	1021.770	768.252
61.432	13.616	1021.138	767.618
62.447	13.717	1019.981	767.148
63.461	13.701	1018.901	766.191
64.476	13.546	1018.328	764.977
65.490	13.595	1017.460	764.485
66.505	13.770	1016.538	764.529
67.520	13.764	1016.122	764.125
68.534	13.759	1014.903	763.114
69.549	13.794	1014.025	762.548
70.563	13.559	1014.027	761.402
71.578	13.638	1013.076	760.982
72.593	13.618	1012.127	760.111
73.607	13.406	1012.034	759.004
74.622	13.553	1011.136	758.936
75.636	13.564	1010.168	758.191
76.651	13.658	1009.450	758.014
77.666	13.698	1008.968	757.771
78.680	13.747	1007.875	757.103
79.695	13.673	1007.575	756.478
80.709	13.709	1006.878	756.050
81.724	13.636	1006.507	755.370
82.739	13.654	1005.863	754.902
83.753	13.834	1004.612	754.716
84.768	13.768	1003.475	753.496
85.782	13.771	1002.652	752.823
86.797	13.764	1002.378	752.521
87.812	13.684	1001.314	751.293
88.826	13.835	999.633	750.647
89.841	13.899	998.687	750.160
90.855	13.891	998.403	749.846
91.870	13.872	997.524	749.030
92.884	13.875	996.570	748.262
93.899	13.874	995.861	747.660
94.914	14.039	994.827	747.558
95.928	13.990	994.423	746.971
96.943	13.954	993.342	745.928
97.957	13.921	992.775	745.292
98.972	13.873	991.783	744.264
99.987	14.054	990.476	744.029
101.001	13.860	989.927	742.684
102.016	13.905	989.449	742.457
103.030	13.878	988.679	741.693
104.045	13.922	987.842	741.195
105.060	13.915	986.814	740.327
106.074	13.818	986.144	739.328
107.089	13.839	984.680	738.261
108.103	13.852	984.207	737.897
109.118	13.783	983.176	736.751
110.133	13.776	982.131	735.874
111.147	13.675	981.838	735.142
112.162	13.768	980.882	734.773
113.176	13.879	979.612	734.247
114.191	13.909	979.189	733.998
115.206	13.779	978.557	732.885
116.220	13.765	977.726	732.135
117.235	13.868	976.351	731.493
118.249	13.973	975.649	731.366
119.264	13.861	975.191	730.467
120.279	13.907	974.298	729.935
121.293	13.849	973.553	729.056
122.308	13.749	972.858	728.032
123.322	13.746	971.639	727.043
124.337	13.852	970.582	726.650
125.352	13.743	969.642	725.407
126.366	13.869	968.023	724.684
127.381	13.930	967.284	724.329
128.395	13.771	966.665	723.110
129.410	13.814	965.534	722.389
130.424	13.911	964.724	722.140
131.439	13.887	964.109	721.512
132.454	13.898	963.512	721.046
133.468	13.955	962.776	720.680
134.483	13.858	961.719	719.406
135.497	13.834	960.895	718.619
136.512	13.803	960.171	717.881
137.527	13.882	959.356	717.549
138.541	13.953	958.762	717.347
139.556	13.851	957.862	716.173
140.570	14.047	957.248	716.497
141.585	14.049	956.353	715.769
142.600	13.964	955.561	714.747
143.614	14.035	954.898	714.495
144.629	14.022	954.062	713.752
145.643	14.148	952.962	713.405
146.658	14.081	952.175	712.466
147.673	13.812	951.523	710.764
148.687	13.870	950.800	710.406
149.702	14.056	949.361	710.064
150.716	14.020	948.932	709.526
151.731	13.949	948.301	708.690
152.746	14.062	947.832	708.757
153.760	14.006	947.245	708.016
154.775	14.092	946.743	707.948
155.789	14.097	945.554	707.014
156.804	14.109	945.418	706.904
157.819	14.235	944.259	706.508
158.833	14.148	943.998	705.881
159.848	14.206	943.146	705.429
160.862	14.212	941.407	704.088
161.877	14.210	941.096	703.786
162.892	14.150	940.191	702.793
163.906	14.043	938.965	701.363
164.921	14.152	938.801	701.639
165.935	14.130	938.037	700.912
166.950	14.294	936.225	700.186
167.964	14.178	936.271	699.670
168.979	14.144	935.265	698.713
169.994	14.132	934.280	697.868
171.008	14.064	934.139	697.416
172.023	14.169	933.189	697.082
173.037	14.237	932.374	696.697
174.052	14.260	931.252	695.892
175.067	14.218	930.923	695.412
176.081	14.241	930.330	695.003
177.096	14.189	929.939	694.433
178.110	14.212	929.154	693.878
179.125	14.364	928.450	693.928
180.140	14.323	928.057	693.402
181.154	14.295	927.610	692.890
182.169	14.353	927.033	692.639
183.183	14.466	926.395	692.570
184.198	14.478	925.279	691.724
185.213	14.352	925.061	690.976
186.227	14.509	924.402	691.072
187.242	14.487	923.423	690.191
188.256	14.414	923.161	689.629
189.271	14.562	922.294	689.534
190.286	14.505	921.364	688.542
191.300	14.398	920.607	687.473
192.315	14.281	920.324	686.720
193.329	14.344	919.418	686.241
194.344	14.405	919.063	686.166
195.359	14.415	918.588	685.795
196.373	14.579	917.708	685.750
197.388	14.592	917.145	685.323
198.402	14.561	916.941	684.983
199.417	14.492	916.057	683.977
200.432	14.658	915.330	684.054
201.446	14.643	914.876	683.592
202.461	14.735	914.619	683.715
203.475	14.618	914.208	682.872
204.490	14.686	913.189	682.328
205.504	14.791	912.067	681.858
206.519	14.692	911.920	681.283
207.534	14.596	911.093	680.214
208.548	14.634	910.369	679.769
209.563	14.764	909.454	679.554
210.577	14.868	908.890	679.493
211.592	14.874	907.975	678.775
212.607	14.896	907.440	678.404
213.621	14.789	907.026	677.602
214.636	14.727	906.203	676.673
215.650	14.948	905.634	677.083
216.665	14.890	904.827	676.185
217.680	14.902	904.209	675.714
218.694	15.036	903.455	675.632
219.709	14.846	903.124	674.556
220.723	14.905	902.496	674.266
221.738	14.946	901.670	673.756
222.753	14.812	901.113	672.741
223.767	15.101	900.225	673.178
224.782	15.038	899.682	672.461
225.796	15.140	899.026	672.318
226.811	15.140	898.605	671.944
227.826	15.053	897.446	670.672
228.840	15.076	897.264	670.569
229.855	15.061	895.959	669.471
230.869	14.996	895.986	669.175
231.884	15.178	894.933	669.056
232.899	15.166	894.215	668.412
233.913	15.009	893.529	667.212
234.928	15.118	892.669	666.947
235.942	15.141	892.211	666.636
236.957	15.046	891.764	665.867
237.972	15.235	891.081	666.048
238.986	15.200	890.506	665.421
240.001	15.072	890.179	664.609
241.015	15.093	889.463	664.098
242.030	15.101	888.967	663.700
243.045	15.028	888.233	662.806
244.059	15.353	887.313	663.347
245.074	15.277	886.518	662.392
246.088	15.213	886.527	662.089
247.103	15.234	885.765	661.544
248.117	15.368	884.710	661.227
249.132	15.483	884.142	661.196
250.147	15.350	883.966	660.482
251.161	15.374	883.156	659.913
252.176	15.445	882.468	659.618
253.190	15.559	881.324	659.150
254.205	15.605	881.072	659.086
255.220	15.635	880.187	658.483
256.234	15.572	879.770	657.867
257.249	15.613	879.033	657.417
258.263	15.534	878.490	656.644
259.278	15.577	877.749	656.202
260.293	15.539	877.497	655.807
261.307	15.580	876.958	655.503
262.322	15.653	876.363	655.288
263.336	15.693	875.367	654.640
264.351	15.741	874.813	654.353
265.366	15.790	873.615	653.589
266.380	15.772	873.030	653.024
267.395	15.778	872.942	652.923
268.409	15.819	871.795	652.168
269.424	15.772	871.460	651.677
270.439	15.851	870.765	651.405
271.453	15.816	870.100	650.716
272.468	15.702	869.748	649.954
273.482	15.667	868.898	649.126
274.497	15.790	868.058	648.916
275.512	15.638	868.028	648.251
276.526	15.848	867.351	648.496
277.541	15.805	867.075	648.065
278.555	15.763	866.226	647.213
279.570	15.931	865.487	647.250
280.585	15.906	864.666	646.482
281.599	16.066	863.646	646.274
282.614	15.916	863.365	645.435
283.628	15.986	862.981	645.359
284.643	16.059	861.803	644.700
285.657	15.989	861.430	644.096
286.672	16.035	860.763	643.716
287.687	16.020	860.376	643.312
288.701	16.069	859.817	643.025
289.716	16.233	858.778	642.813
290.730	16.024	858.822	641.995
291.745	16.141	858.123	641.861
292.760	16.187	857.687	641.650
293.774	16.271	856.516	641.037
294.789	16.242	856.272	640.688
295.803	16.205	855.594	639.986
296.818	16.220	854.704	639.320
297.833	16.108	854.078	638.371
298.847	16.213	853.456	638.244
299.862	16.308	853.145	638.316
300.876	16.274	852.266	637.472
301.891	16.273	852.093	637.283
302.906	16.359	851.374	637.016
303.920	16.295	851.166	636.561
304.935	16.450	850.345	636.474
305.949	16.276	849.693	635.276
306.964	16.542	848.846	635.586
307.979	16.430	848.230	634.647
308.993	16.466	847.753	634.371
310.008	16.561	846.990	634.100
311.022	16.541	846.459	633.570
312.037	16.302	846.483	632.638
313.052	16.506	845.592	632.677
314.066	16.492	844.681	631.890
315.081	16.337	844.491	631.110
316.095	16.502	843.546	630.964
317.110	16.397	843.565	630.531
318.125	16.371	843.112	630.042
319.139	16.481	842.560	629.982
320.154	16.511	842.019	629.634
321.168	16.579	841.229	629.240
322.183	16.388	840.942	628.259
323.197	16.596	840.112	628.357
324.212	16.540	839.783	627.848
325.227	16.587	839.056	627.423
326.241	16.433	838.691	626.521
327.256	16.568	838.160	626.570
328.270	16.500	837.483	625.757
329.285	16.536	836.621	625.191
330.300	16.595	836.258	625.082
331.314	16.539	835.991	624.619
332.329	16.580	835.592	624.417
333.343	16.652	834.725	623.980
334.358	16.710	834.380	623.882
335.373	16.665	834.230	623.548
336.387	16.606	833.935	623.056
337.402	16.709	833.728	623.225
338.416	16.745	833.349	623.017
339.431	16.840	832.634	622.779
340.446	16.832	832.146	622.329
341.460	16.903	831.844	622.310
342.475	16.903	831.263	621.820
343.489	16.943	830.660	621.460
344.504	16.901	830.316	620.992
345.519	16.981	830.385	621.283
346.533	17.010	829.201	620.447
347.548	16.978	828.921	620.066
348.562	17.018	828.446	619.801
349.577	16.831	828.024	618.749
350.592	16.999	826.916	618.480
351.606	16.953	826.755	618.135
352.621	16.907	825.992	617.343
353.635	17.018	825.195	617.096
354.650	17.025	824.801	616.772
355.665	16.921	824.037	615.770
356.679	17.027	823.747	615.883
357.694	17.028	822.912	615.209
358.708	17.080	822.310	614.892
359.723	17.182	821.757	614.791
360.738	17.098	821.192	614.011
361.752	17.268	820.421	613.996
362.767	17.352	819.600	613.631
363.781	17.163	819.629	612.914
364.796	17.224	818.839	612.492
365.810	17.324	818.471	612.520
366.825	17.350	818.143	612.315
367.840	17.305	817.751	611.804
368.854	17.179	817.444	611.069
369.869	17.278	816.781	610.874
370.883	17.379	816.333	610.847
371.898	17.426	816.127	610.809
372.913	17.387	815.542	610.177
373.927	17.460	814.841	609.859
374.942	17.312	814.964	609.366
375.956	17.553	814.480	609.816
376.971	17.491	813.681	608.939
377.986	17.633	813.385	609.172
379.000	17.584	813.139	608.759
380.015	17.502	812.565	607.982
381.029	17.576	812.244	607.955
382.044	17.611	811.375	607.375
383.059	17.638	810.642	606.868
384.073	17.667	810.238	606.614
385.088	17.525	809.750	605.691
386.102	17.619	809.073	605.465
387.117	17.533	808.401	604.604
388.132	17.596	807.954	604.439
389.146	17.648	807.143	603.962
390.161	17.682	806.723	603.716
391.175	17.770	806.629	603.904
392.190	17.715	805.948	603.145
393.205	17.650	805.568	602.578
394.219	17.765	805.280	602.717
395.234	17.568	805.114	601.842
396.248	17.562	804.699	601.456
397.263	17.592	804.406	601.291
398.278	17.617	803.720	600.813
399.292	17.808	803.044	600.927
400.307	17.718	802.674	600.281
401.321	17.800	802.122	600.103
402.336	17.729	801.554	599.377
403.350	17.792	801.113	599.215
404.365	17.694	801.039	598.762
405.380	17.898	800.305	598.875
406.394	17.896	799.745	598.397
407.409	17.971	799.530	598.444
408.423	17.901	799.507	598.129
409.438	18.067	798.587	597.971
410.453	17.919	798.570	597.388
411.467	18.175	797.670	597.555
412.482	18.074	797.405	596.950
413.496	18.047	797.206	596.654
414.511	18.011	796.950	596.285
415.526	18.172	796.514	596.467
416.540	18.141	795.655	595.663
417.555	18.196	794.886	595.227
418.569	18.209	794.691	595.073
419.584	18.138	794.460	594.600
420.599	18.162	794.103	594.362
421.613	115.608	1297.372	1488.106
422.628	99.606	1370.655	1488.197
