DTS Sentinel unit serial number:	SN413079Multiplexer serial number:	ORYXHardware model number:	OX4-SRSoftware version number:	ORYX F/W v4.00 Oryx Data Collector v3.7.2.0data status	okinstallation	princeton_trtdifferential loss correction	single-endedforward channel	channel 1reverse channel	N/Adate	2019/09/13time	12:46:35forward acquisition time	60.00reverse acquisition time	0.00gamma	496.2192k internal	0.2305k external	0.2305temperature offset calibration	1.0173default loss term (dB/km)	0.3790temperature slope calibration	1.0000multiplexer offset coefficient	1.0000multiplexer slope coefficient	1.0000fibre end	0.00T internal ref (°C)	34.69T ext. ref 1 (°C)	4.59T ext. ref 2 (°C)	30.32length (m)	temperature (°C)	Stokes	anti-Stokes-747.200	93.186	0.200	-0.230
-746.185	305.425	0.136	0.258
-745.171	-200.000	0.002	-0.188
-744.156	-200.000	-0.003	0.035
-743.142	-11.054	0.024	-0.016
-742.127	86.280	-0.306	0.344
-741.112	-35.827	0.215	-0.119
-740.098	217.473	0.074	0.120
-739.083	-118.772	-0.105	-0.019
-738.069	329.834	-0.076	0.148
-737.054	12.989	-0.183	0.144
-736.039	-49.593	-0.202	-0.098
-735.025	-9.804	0.193	0.131
-734.010	-106.166	-0.226	-0.052
-732.996	-200.000	-0.163	-0.777
-731.981	-48.557	0.075	-0.036
-730.966	-138.458	-0.159	0.018
-729.952	-188.237	-0.095	0.001
-728.937	203.479	-0.099	0.155
-727.923	800.000	0.048	0.138
-726.908	-21.296	-0.109	0.068
-725.894	-12.234	0.163	-0.108
-724.879	403.631	0.051	-0.110
-723.864	9.103	-0.099	0.076
-722.850	324.432	0.099	0.192
-721.835	-75.259	-0.260	0.094
-720.821	800.000	-0.075	0.264
-719.806	-96.485	0.223	-0.060
-718.791	800.000	0.066	0.277
-717.777	-108.636	-0.233	0.051
-716.762	-191.556	-0.291	-0.003
-715.748	800.000	0.058	-0.231
-714.733	-135.385	0.155	-0.019
-713.718	93.557	0.123	0.141
-712.704	119.294	-0.140	-0.176
-711.689	-137.850	0.382	-0.043
-710.675	-32.982	0.133	0.075
-709.660	371.876	-0.097	0.200
-708.645	92.743	0.141	0.162
-707.631	-48.606	-0.427	-0.209
-706.616	-200.000	0.058	0.309
-705.602	-200.000	-0.002	-0.447
-704.587	384.935	-0.089	-0.187
-703.572	-200.000	0.013	-0.158
-702.558	-69.880	-0.125	-0.049
-701.543	74.175	-0.095	-0.102
-700.529	-13.193	0.242	0.160
-699.514	-61.138	-0.163	-0.070
-698.499	-133.364	-0.212	0.027
-697.485	21.192	0.089	-0.074
-696.470	-107.813	-0.172	0.038
-695.456	243.591	-0.090	-0.154
-694.441	800.000	-0.077	0.294
-693.426	170.058	-0.202	-0.293
-692.412	-124.182	0.307	0.049
-691.397	-134.397	-0.388	0.048
-690.383	93.165	-0.128	0.147
-689.368	-130.564	-0.449	0.062
-688.354	-140.303	0.034	0.004
-687.339	171.154	0.021	-0.030
-686.324	-87.078	0.491	-0.152
-685.310	19.545	0.060	-0.049
-684.295	632.777	-0.113	-0.291
-683.281	-1.023	-0.224	0.161
-682.266	-21.669	-0.253	-0.156
-681.251	78.009	-0.124	0.135
-680.237	47.266	-0.336	-0.318
-679.222	-22.872	0.222	-0.136
-678.208	-200.000	-0.004	0.058
-677.193	-135.157	0.334	-0.041
-676.178	-180.490	-0.198	0.004
-675.164	12.465	0.057	-0.045
-674.149	-190.383	0.323	0.004
-673.135	23.327	-0.162	0.135
-672.120	183.162	-0.100	-0.150
-671.105	-198.088	-0.230	0.001
-670.091	48.576	0.126	0.120
-669.076	-200.000	-0.098	-0.475
-668.062	-200.000	-0.040	-0.181
-667.047	-200.000	0.000	0.174
-666.032	800.000	0.122	-0.385
-665.018	800.000	-0.036	-0.125
-664.003	-153.648	-0.249	0.017
-662.989	-23.372	-0.419	-0.255
-661.974	187.817	0.205	-0.311
-660.959	-200.000	0.009	0.126
-659.945	800.000	-0.052	-0.194
-658.930	-138.885	-0.092	-0.010
-657.916	-200.000	-0.016	0.164
-656.901	702.584	-0.122	-0.326
-655.886	566.097	0.053	0.131
-654.872	-200.000	-0.083	-0.445
-653.857	-92.408	-0.154	-0.044
-652.843	-110.043	-0.242	0.051
-651.828	-193.313	0.336	0.003
-650.814	328.614	-0.043	-0.083
-649.799	-200.000	0.026	-0.281
-648.784	-13.851	0.181	0.119
-647.770	-200.000	-0.073	0.367
-646.755	-84.913	0.112	-0.036
-645.741	-43.419	0.217	-0.111
-644.726	-165.974	0.525	0.023
-643.711	207.212	-0.086	0.136
-642.697	-176.032	0.394	0.011
-641.682	-200.000	0.030	0.147
-640.668	28.539	-0.269	-0.231
-639.653	207.724	0.086	-0.136
-638.638	-2.300	-0.341	0.243
-637.624	-147.420	0.126	0.011
-636.609	57.436	-0.261	0.258
-635.595	53.401	0.167	-0.162
-634.580	-102.703	-0.181	-0.044
-633.565	-92.113	-0.081	0.023
-632.551	-16.335	0.135	-0.087
-631.536	800.000	-0.078	-0.241
-630.522	-97.730	0.306	0.080
-629.507	800.000	0.059	-0.245
-628.492	-200.000	0.010	-0.069
-627.478	-78.343	0.333	-0.116
-626.463	171.792	-0.275	-0.400
-625.449	-24.322	-0.046	-0.028
-624.434	234.429	-0.241	0.403
-623.419	800.000	0.092	-0.332
-622.405	-200.000	-0.052	-0.267
-621.390	-30.065	0.187	-0.108
-620.376	-200.000	-0.057	0.308
-619.361	105.507	0.223	-0.267
-618.346	53.066	0.290	-0.281
-617.332	-200.000	0.055	-0.349
-616.317	249.584	0.103	-0.178
-615.303	800.000	-0.133	-0.433
-614.288	356.766	0.055	0.112
-613.273	77.928	-0.152	0.165
-612.259	800.000	0.083	-0.295
-611.244	-181.854	-0.292	0.006
-610.230	370.093	0.112	0.231
-609.215	-200.000	-0.051	0.277
-608.201	557.321	0.029	-0.072
-607.186	-70.680	0.192	0.073
-606.171	-171.234	-0.380	0.013
-605.157	33.223	0.250	-0.219
-604.142	39.794	-0.119	-0.108
-603.128	-157.080	-0.140	0.009
-602.113	566.633	0.180	0.442
-601.098	-200.000	0.000	-0.098
-600.084	-153.923	-0.161	-0.011
-599.069	-25.238	-0.218	0.131
-598.055	-200.000	-0.036	-0.183
-597.040	27.976	-0.118	-0.101
-596.025	-22.430	-0.413	-0.253
-595.011	122.000	0.266	0.336
-593.996	320.224	-0.174	0.335
-592.982	119.833	-0.174	-0.218
-591.967	-200.000	0.012	0.231
-590.952	568.452	0.022	0.054
-589.938	800.000	0.089	0.249
-588.923	-200.000	-0.053	0.240
-587.909	800.000	0.138	0.440
-586.894	114.315	0.276	-0.340
-585.879	63.737	-0.073	-0.074
-584.865	-200.000	0.050	-0.421
-583.850	-152.047	-0.398	0.029
-582.836	71.365	0.183	0.192
-581.821	-85.060	0.223	0.071
-580.806	229.924	-0.024	-0.040
-579.792	313.828	0.037	0.070
-578.777	-135.725	-0.187	0.022
-577.763	-97.579	-0.316	-0.083
-576.748	228.090	-0.144	-0.238
-575.733	598.178	-0.068	0.171
-574.719	-104.597	0.063	0.015
-573.704	-75.689	0.077	-0.028
-572.690	-26.958	0.171	0.101
-571.675	-178.132	-0.123	-0.003
-570.661	-55.867	0.154	0.069
-569.646	427.478	0.035	-0.076
-568.631	-87.764	0.122	0.037
-567.617	-102.657	-0.214	-0.052
-566.602	86.676	-0.091	0.102
-565.588	62.389	0.120	-0.121
-564.573	166.001	-0.167	-0.239
-563.558	-86.884	-0.438	-0.135
-562.544	-96.717	0.257	0.068
-561.529	-5.255	-0.153	-0.106
-560.515	227.288	-0.338	-0.556
-559.500	-200.000	0.018	0.132
-558.485	94.567	-0.143	0.164
-557.471	-30.098	-0.186	0.107
-556.456	-159.422	-0.081	-0.005
-555.442	295.864	-0.037	0.069
-554.427	-37.845	-0.138	-0.074
-553.412	-200.000	-0.010	0.072
-552.398	-200.000	-0.013	0.165
-551.383	7.873	-0.075	-0.057
-550.369	-52.219	-0.135	-0.063
-549.354	-28.157	0.151	0.088
-548.339	14.833	-0.176	-0.139
-547.325	-147.356	-0.330	0.028
-546.310	136.495	0.134	0.176
-545.296	560.086	0.071	-0.172
-544.281	-155.967	-0.236	0.015
-543.266	-200.000	0.026	-0.235
-542.252	25.871	0.117	0.098
-541.237	-78.309	0.438	0.152
-540.223	-200.000	0.034	-0.240
-539.208	-16.497	0.199	-0.127
-538.193	-50.397	-0.196	0.094
-537.179	-200.000	0.006	0.084
-536.164	-131.782	0.360	-0.048
-535.150	-200.000	-0.018	0.189
-534.135	-54.440	0.278	-0.127
-533.121	-124.696	-0.108	0.017
-532.106	-200.000	0.016	-0.316
-531.091	585.718	-0.011	-0.027
-530.077	-62.220	-0.180	0.076
-529.062	-200.000	0.002	0.055
-528.048	249.584	0.077	0.132
-527.033	-200.000	0.003	0.032
-526.018	53.546	0.148	0.143
-525.004	-66.640	-0.165	-0.066
-523.989	67.336	-0.244	-0.251
-522.975	-108.773	-0.312	-0.068
-521.960	-200.000	0.014	-0.103
-520.945	171.581	-0.236	-0.342
-519.931	176.511	-0.067	-0.098
-518.916	63.645	0.160	0.162
-517.902	800.000	0.072	-0.248
-516.887	-88.505	0.344	-0.104
-515.872	122.636	0.060	0.075
-514.858	800.000	0.140	-0.473
-513.843	118.346	0.284	-0.354
-512.829	154.952	0.089	-0.124
-511.814	526.708	-0.102	-0.243
-510.799	181.985	-0.169	-0.252
-509.785	-111.946	0.126	0.026
-508.770	106.368	0.147	0.175
-507.756	-200.000	-0.025	-0.139
-506.741	800.000	0.154	-0.457
-505.726	-200.000	0.018	-0.159
-504.712	-200.000	-0.041	0.300
-503.697	78.266	-0.040	0.043
-502.683	142.473	0.180	0.241
-501.668	800.000	0.026	-0.077
-500.653	-11.917	0.351	0.232
-499.639	741.390	-0.052	0.142
-498.624	800.000	-0.077	0.334
-497.610	-73.901	0.228	0.083
-496.595	-200.000	-0.031	0.398
-495.581	32.976	-0.041	-0.036
-494.566	800.000	-0.150	-0.519
-493.551	-200.000	0.033	-0.317
-492.537	501.380	-0.149	-0.347
-491.522	422.323	-0.170	0.368
-490.508	289.310	-0.128	0.234
-489.493	-153.268	0.266	0.019
-488.478	-17.274	0.173	0.110
-487.464	-96.446	-0.202	0.054
-486.449	-200.000	-0.004	0.244
-485.435	241.741	0.156	-0.262
-484.420	-115.673	-0.052	-0.010
-483.405	-95.482	0.182	-0.049
-482.391	6.609	0.116	-0.087
-481.376	-16.855	-0.381	0.242
-480.362	148.108	0.152	-0.206
-479.347	-75.049	0.299	0.108
-478.332	270.550	-0.130	0.231
-477.318	264.499	0.145	-0.254
-476.303	-37.979	0.077	-0.041
-475.289	-200.000	-0.026	0.132
-474.274	800.000	0.023	-0.071
-473.259	137.178	-0.039	0.052
-472.245	-200.000	0.025	-0.119
-471.230	800.000	-0.050	-0.171
-470.216	-121.360	0.130	-0.022
-469.201	118.642	0.078	-0.096
-468.186	-35.469	-0.286	0.156
-467.172	-200.000	-0.067	-0.376
-466.157	-177.941	-0.224	0.005
-465.143	21.118	0.061	-0.050
-464.128	-25.768	-0.238	-0.141
-463.113	-138.158	0.081	0.009
-462.099	-152.216	0.394	0.029
-461.084	174.036	-0.129	0.188
-460.070	-3.123	-0.055	0.038
-459.055	16.617	0.085	-0.068
-458.040	97.032	0.020	-0.023
-457.026	238.032	0.153	-0.256
-456.011	-39.595	0.028	-0.015
-454.997	800.000	-0.035	0.149
-453.982	-11.487	0.023	-0.015
-452.968	571.360	0.163	0.400
-451.953	-200.000	-0.043	0.195
-450.938	-53.391	-0.043	-0.020
-449.924	-200.000	0.003	-0.332
-448.909	-200.000	0.013	0.608
-447.895	-122.492	-0.199	-0.033
-446.880	-121.901	-0.048	-0.008
-445.865	-1.318	-0.164	0.117
-444.851	748.649	0.050	-0.136
-443.836	-109.701	-0.162	-0.034
-442.822	3.825	-0.202	0.148
-441.807	-42.962	-0.118	-0.060
-440.792	475.660	-0.089	0.201
-439.778	569.318	-0.021	0.052
-438.763	-200.000	0.004	0.071
-437.749	80.148	-0.160	0.174
-436.734	149.927	0.144	0.196
-435.719	404.162	-0.096	-0.203
-434.705	66.776	-0.036	0.037
-433.690	47.808	0.095	0.089
-432.676	-200.000	-0.050	0.229
-431.661	800.000	0.087	-0.324
-430.646	-111.157	-0.318	-0.065
-429.632	-68.603	0.236	0.092
-428.617	-200.000	0.000	0.320
-427.603	13.665	-0.146	0.114
-426.588	608.923	-0.116	-0.290
-425.573	-3.540	-0.045	-0.031
-424.559	16.428	0.217	0.172
-423.544	-62.267	0.383	0.160
-422.530	71.690	-0.162	-0.169
-421.515	458.384	-0.124	0.278
-420.500	-81.603	-0.182	-0.060
-419.486	-200.000	-0.013	0.119
-418.471	-200.000	-0.006	0.191
-417.457	50.385	-0.037	0.035
-416.442	800.000	0.082	0.303
-415.428	-200.000	-0.004	0.114
-414.413	-73.152	0.295	0.109
-413.398	214.630	0.144	0.229
-412.384	169.255	0.121	-0.173
-411.369	3.135	0.192	0.140
-410.355	-105.895	0.130	0.030
-409.340	-95.992	0.147	0.039
-408.325	241.661	-0.136	0.228
-407.311	312.631	0.070	0.131
-406.296	217.438	-0.109	0.175
-405.282	154.096	-0.086	-0.118
-404.267	57.978	0.159	-0.157
-403.252	-200.000	0.017	0.117
-402.238	372.985	0.145	0.295
-401.223	-113.893	-0.119	0.023
-400.209	-3.922	-0.099	-0.069
-399.194	-147.918	0.200	-0.017
-398.179	54.423	-0.184	-0.178
-397.165	10.438	-0.283	0.216
-396.150	60.511	-0.139	0.138
-395.136	5.434	-0.155	-0.115
-394.121	672.319	-0.143	0.373
-393.106	42.361	0.234	-0.213
-392.092	239.629	0.060	0.101
-391.077	-200.000	0.080	0.433
-390.063	-107.179	-0.303	0.067
-389.048	800.000	-0.091	-0.275
-388.033	91.184	0.037	-0.041
-387.019	396.866	0.103	-0.216
-386.004	-22.280	-0.280	-0.170
-384.990	2.052	-0.118	-0.086
-383.975	-23.195	0.342	0.207
-382.960	-200.000	0.001	0.168
-381.946	-200.000	-0.001	-0.064
-380.931	-75.694	0.151	-0.054
-379.917	-15.352	-0.191	-0.122
-378.902	6.984	-0.133	-0.100
-377.888	-200.000	0.014	-0.114
-376.873	-20.579	0.045	0.028
-375.858	-44.601	-0.261	0.131
-374.844	-200.000	-0.022	-0.139
-373.829	-200.000	0.004	-0.166
-372.815	32.658	-0.293	0.254
-371.800	123.005	-0.150	0.188
-370.785	111.614	-0.200	-0.243
-369.771	-139.518	0.255	0.027
-368.756	-71.709	0.212	-0.079
-367.742	800.000	0.108	-0.336
-366.727	-193.769	-0.311	-0.003
-365.712	178.989	0.106	0.156
-364.698	73.100	-0.073	-0.077
-363.683	351.917	0.060	-0.120
-362.669	57.844	-0.036	0.035
-361.654	-184.457	-0.081	-0.001
-360.639	335.125	0.059	-0.115
-359.625	-200.000	-0.007	0.172
-358.610	60.291	0.220	0.218
-357.596	-200.000	0.062	-0.275
-356.581	-178.049	0.329	-0.008
-355.566	-71.888	-0.184	-0.069
-354.552	800.000	-0.046	0.150
-353.537	-50.223	-0.147	0.070
-352.523	12.456	-0.270	0.208
-351.508	-52.622	0.112	-0.052
-350.493	-147.584	0.449	0.038
-349.479	-200.000	0.024	-0.187
-348.464	-6.663	-0.177	-0.121
-347.450	-200.000	0.004	0.304
-346.435	153.840	0.085	-0.117
-345.420	20.590	0.139	0.113
-344.406	68.991	0.091	0.093
-343.391	-149.563	0.146	0.012
-342.377	800.000	-0.089	-0.281
-341.362	124.431	-0.044	-0.055
-340.348	20.168	0.170	0.137
-339.333	-200.000	0.050	0.449
-338.318	-7.438	-0.105	-0.071
-337.304	800.000	0.026	0.096
-336.289	-200.000	-0.032	-0.163
-335.275	-51.871	0.160	-0.074
-334.260	22.539	-0.137	0.112
-333.245	-14.157	-0.063	0.041
-332.231	-142.392	-0.106	-0.011
-331.216	-6.562	-0.167	0.114
-330.202	-153.556	0.118	0.008
-329.187	-39.966	-0.117	-0.061
-328.172	-68.287	-0.165	0.064
-327.158	281.040	0.021	-0.038
-326.143	-89.601	0.117	-0.034
-325.129	-81.453	-0.195	-0.064
-324.114	6.462	0.045	0.034
-323.099	800.000	0.046	-0.170
-322.085	20.459	-0.126	0.102
-321.070	-117.441	0.419	0.076
-320.056	800.000	0.069	-0.212
-319.041	151.781	0.090	0.122
-318.026	-9.930	0.157	0.104
-317.012	157.758	-0.057	-0.079
-315.997	126.084	-0.136	-0.172
-314.983	800.000	-0.062	-0.254
-313.968	305.610	-0.045	-0.083
-312.953	-103.379	-0.385	-0.091
-311.939	35.347	0.218	0.191
-310.924	49.464	0.099	-0.093
-309.910	249.389	0.092	-0.156
-308.895	800.000	-0.050	-0.201
-307.880	-120.753	0.227	-0.038
-306.866	-200.000	0.004	-0.084
-305.851	-61.672	0.330	-0.139
-304.837	-178.820	-0.365	-0.008
-303.822	270.919	-0.102	0.180
-302.807	-41.538	-0.173	0.089
-301.793	-48.939	0.366	0.175
-300.778	383.702	0.044	0.091
-299.764	-7.972	0.159	-0.107
-298.749	46.037	0.148	-0.137
-297.735	-60.105	0.362	-0.154
-296.720	-152.485	-0.331	0.024
-295.705	-82.967	0.330	-0.106
-294.691	722.330	-0.117	-0.312
-293.676	-159.693	-0.276	-0.015
-292.662	-200.000	0.029	0.153
-291.647	96.690	0.053	0.061
-290.632	-21.484	-0.133	-0.081
-289.618	113.442	-0.119	-0.145
-288.603	800.000	0.024	0.088
-287.589	800.000	-0.019	0.066
-286.574	210.833	0.160	0.252
-285.559	303.711	0.143	-0.266
-284.545	-79.546	-0.161	0.054
-283.530	-26.659	-0.330	-0.193
-282.516	10.816	-0.200	-0.153
-281.501	-69.747	-0.151	-0.058
-280.486	467.252	-0.045	-0.101
-279.472	26.861	-0.098	0.082
-278.457	-52.615	-0.025	0.012
-277.443	-70.490	0.200	-0.076
-276.428	-27.225	-0.238	-0.138
-275.413	187.471	0.177	-0.264
-274.399	120.396	-0.049	-0.061
-273.384	-200.000	-0.002	-0.221
-272.370	-154.126	-0.224	0.015
-271.355	652.684	0.122	0.313
-270.340	81.689	0.396	-0.429
-269.326	-61.884	0.126	-0.053
-268.311	-32.152	0.224	0.125
-267.297	-200.000	-0.021	0.118
-266.282	800.000	-0.066	0.196
-265.267	462.500	-0.212	-0.473
-264.253	228.604	-0.144	-0.234
-263.238	43.142	-0.121	-0.110
-262.224	-200.000	0.001	-0.166
-261.209	-200.000	-0.006	-0.178
-260.195	-200.000	0.041	-0.190
-259.180	-141.623	-0.192	0.019
-258.165	188.523	-0.094	0.140
-257.151	-200.000	0.043	-0.333
-256.136	4.531	0.220	-0.162
-255.122	-38.426	0.271	0.143
-254.107	83.386	0.093	-0.102
-253.092	-67.851	0.232	-0.091
-252.078	-200.000	0.000	-0.066
-251.063	800.000	-0.070	-0.237
-250.049	-55.959	-0.151	0.067
-249.034	-200.000	0.010	-0.140
-248.019	-167.881	-0.174	-0.007
-247.005	237.842	0.066	-0.109
-245.990	224.734	-0.088	0.141
-244.976	-50.231	0.234	-0.111
-243.961	237.709	-0.120	0.198
-242.946	378.317	-0.018	-0.037
-241.932	42.590	0.095	0.086
-240.917	446.618	0.132	-0.290
-239.903	117.938	0.109	0.134
-238.888	-200.000	-0.053	0.393
-237.873	351.511	-0.047	-0.094
-236.859	-200.000	0.025	0.115
-235.844	800.000	0.071	-0.206
-234.830	-106.404	-0.254	0.057
-233.815	-200.000	0.057	0.270
-232.800	-151.101	-0.301	0.023
-231.786	94.409	0.278	0.315
-230.771	157.390	-0.047	0.064
-229.757	-86.977	0.159	-0.048
-228.742	114.058	0.199	0.241
-227.727	-157.306	-0.202	0.012
-226.713	-200.000	0.001	0.213
-225.698	17.996	-0.198	-0.157
-224.684	169.575	0.067	0.096
-223.669	57.481	0.085	-0.083
-222.655	17.970	-0.056	0.045
-221.640	-200.000	-0.029	0.281
-220.625	-76.931	0.075	-0.026
-219.611	74.539	-0.076	0.079
-218.596	107.268	0.060	-0.072
-217.582	196.871	0.102	-0.155
-216.567	53.806	-0.382	0.365
-215.552	775.268	-0.051	0.139
-214.538	345.531	0.064	-0.125
-213.523	42.021	0.107	0.097
-212.509	-43.979	0.085	-0.043
-211.494	-200.000	0.019	0.208
-210.479	800.000	0.045	0.163
-209.465	-200.000	-0.017	0.265
-208.450	-200.000	-0.031	-0.188
-207.436	385.117	0.072	-0.147
-206.421	-51.004	-0.271	0.127
-205.406	81.196	-0.095	0.102
-204.392	-200.000	0.041	0.182
-203.377	171.181	0.307	-0.439
-202.363	12.835	-0.139	-0.107
-201.348	-131.728	-0.239	0.031
-200.333	91.609	0.303	0.339
-199.319	7.474	-0.256	0.190
-198.304	-20.621	0.190	-0.116
-197.290	800.000	-0.095	0.344
-196.275	-31.748	0.400	0.224
-195.260	-59.240	0.177	-0.076
-194.246	-127.933	-0.181	0.026
-193.231	-40.418	0.124	0.064
-192.217	61.780	-0.132	-0.131
-191.202	800.000	0.035	0.137
-190.187	154.761	0.169	-0.231
-189.173	89.060	-0.060	0.066
-188.158	11.114	0.220	-0.168
-187.144	800.000	-0.079	0.309
-186.129	-200.000	-0.019	0.222
-185.114	-200.000	0.001	0.062
-184.100	24.821	0.111	0.092
-183.085	27.231	-0.222	0.186
-182.071	331.045	0.044	0.085
-181.056	800.000	0.039	0.137
-180.042	800.000	0.062	0.237
-179.027	141.469	0.034	0.045
-178.012	6.204	-0.165	-0.122
-176.998	-13.685	-0.121	0.078
-175.983	163.472	-0.036	-0.050
-174.969	26.608	-0.012	-0.010
-173.954	-200.000	-0.008	0.336
-172.939	36.361	0.176	0.154
-171.925	-156.725	0.249	0.015
-170.910	-38.878	0.292	-0.153
-169.896	-127.583	-0.551	-0.080
-168.881	-200.000	-0.017	-0.305
-167.866	-90.132	-0.160	-0.046
-166.852	-36.054	0.129	0.069
-165.837	5.572	-0.165	-0.122
-164.823	-77.660	0.074	0.025
-163.808	-98.285	-0.106	-0.027
-162.793	121.669	-0.158	-0.196
-161.779	155.202	0.199	-0.272
-160.764	-200.000	0.009	0.413
-159.750	331.676	-0.087	0.167
-158.735	216.418	0.239	0.378
-157.720	-164.885	-0.266	-0.012
-156.706	800.000	-0.030	-0.087
-155.691	417.567	0.059	-0.125
-154.677	368.760	0.034	0.068
-153.662	-66.450	-0.135	0.053
-152.647	800.000	0.073	0.309
-151.633	-170.690	0.178	0.006
-150.618	16.758	-0.124	0.098
-149.604	-200.000	0.021	0.166
-148.589	-86.446	0.193	-0.059
-147.574	-0.459	0.067	-0.048
-146.560	168.820	-0.054	-0.077
-145.545	168.275	-0.244	-0.345
-144.531	800.000	0.049	-0.197
-143.516	-114.149	0.232	0.045
-142.502	-200.000	-0.013	-0.191
-141.487	-87.074	-0.274	-0.083
-140.472	3.970	0.157	-0.114
-139.458	-200.000	0.072	-0.315
-138.443	4.380	-0.129	-0.094
-137.429	390.592	-0.135	0.278
-136.414	-7.162	0.153	-0.103
-135.399	252.885	-0.120	-0.203
-134.385	-120.312	0.286	0.048
-133.370	152.137	-0.037	-0.050
-132.356	472.830	-0.160	-0.358
-131.341	-135.354	-0.159	0.019
-130.326	-200.000	-0.412	-0.001
-129.312	-86.637	0.192	0.059
-128.297	-0.386	-0.064	-0.045
-127.283	111.329	-0.107	-0.128
-126.268	16.560	-0.033	-0.026
-125.253	-76.220	-0.254	-0.089
-124.239	-86.458	-0.246	0.075
-123.224	-200.000	0.060	-0.361
-122.210	-53.874	0.206	0.093
-121.195	-139.350	0.174	-0.019
-120.180	-200.000	0.001	0.212
-119.166	-123.647	0.299	-0.047
-118.151	-4.016	0.182	0.126
-117.137	-49.577	-0.256	-0.121
-116.122	-106.138	-0.149	0.033
-115.107	800.000	-0.016	-0.059
-114.093	800.000	-0.037	0.161
-113.078	-200.000	-0.035	0.254
-112.064	-47.518	0.138	0.067
-111.049	222.646	0.169	0.270
-110.034	-127.615	0.086	0.012
-109.020	-174.191	0.027	0.001
-108.005	-200.000	0.096	0.421
-106.991	23.321	-0.194	-0.158
-105.976	647.010	-0.147	-0.374
-104.962	-95.773	0.171	0.045
-103.947	-200.000	0.043	-0.264
-102.932	800.000	-0.042	-0.148
-101.918	514.693	0.095	0.219
-100.903	74.952	-0.236	0.247
-99.889	-109.501	-0.215	0.045
-98.874	95.530	0.083	-0.094
-97.859	-93.925	0.293	0.080
-96.845	-200.000	-0.032	0.381
-95.830	-108.655	-0.180	-0.038
-94.816	800.000	0.018	-0.073
-93.801	-133.317	0.205	-0.026
-92.786	-119.714	0.333	-0.057
-91.772	116.155	-0.247	-0.300
-90.757	360.646	0.139	0.277
-89.743	-78.800	0.257	-0.087
-88.728	-149.940	-0.265	0.021
-87.713	282.771	-0.113	0.202
-86.699	-200.000	-0.031	0.193
-85.684	516.588	-0.029	-0.067
-84.670	109.520	-0.135	0.161
-83.655	-200.000	-0.002	0.152
-82.640	-26.990	-0.084	-0.049
-81.626	-111.337	0.073	-0.015
-80.611	-200.000	0.009	-0.224
-79.597	800.000	0.090	0.280
-78.582	-19.692	0.312	-0.191
-77.567	133.031	-0.311	0.399
-76.553	482.916	-0.235	0.529
-75.538	-72.993	0.263	-0.096
-74.524	-200.000	0.023	-0.231
-73.509	404.442	-0.043	0.089
-72.494	-8.057	0.042	0.028
-71.480	328.777	-0.223	0.424
-70.465	-104.944	0.251	0.057
-69.451	-200.000	-0.020	-0.125
-68.436	-51.596	0.352	0.163
-67.422	-105.491	0.417	-0.094
-66.407	-200.000	-0.019	0.155
-65.392	-61.404	-0.254	0.106
-64.378	-41.618	0.130	0.066
-63.363	270.608	0.105	-0.183
-62.349	-35.990	0.309	-0.165
-61.334	103.643	-0.704	-0.819
-60.319	-18.862	0.471	0.291
-59.305	800.000	-0.225	-0.894
-58.290	398.684	0.422	0.876
-57.276	260.737	0.907	1.554
-56.261	-200.000	95.866	559.466
-55.246	624.516	1390.759	3473.909
-54.232	184.298	2615.826	3838.204
-53.217	120.890	2201.180	2712.370
-52.203	46.586	1648.004	1515.434
-51.188	38.211	1381.200	1218.116
-50.173	34.884	1338.121	1159.932
-49.159	55.359	1386.612	1328.865
-48.144	59.585	1404.386	1371.915
-47.130	38.541	1359.187	1200.534
-46.115	34.850	1341.409	1162.395
-45.100	34.641	1336.693	1156.996
-44.086	34.602	1333.846	1154.249
-43.071	34.492	1331.657	1151.646
-42.057	34.486	1330.010	1150.134
-41.042	34.573	1328.074	1148.939
-40.027	34.607	1326.519	1147.757
-39.013	34.601	1324.574	1145.990
-37.998	34.603	1322.435	1144.106
-36.984	34.567	1321.227	1142.803
-35.969	34.739	1319.057	1141.906
-34.954	34.715	1317.290	1140.189
-33.940	34.759	1315.795	1139.113
-32.925	34.834	1314.275	1138.198
-31.911	34.825	1313.027	1137.016
-30.896	34.816	1311.612	1135.691
-29.881	34.864	1310.268	1134.767
-28.867	34.778	1309.162	1133.255
-27.852	34.839	1307.110	1131.799
-26.838	34.759	1305.966	1130.289
-25.823	34.873	1304.292	1129.469
-24.809	34.920	1302.998	1128.578
-23.794	34.677	1301.971	1126.215
-22.779	34.742	1300.716	1125.464
-21.765	34.752	1299.034	1124.023
-20.750	34.755	1298.029	1123.127
-19.736	34.587	1297.043	1121.244
-18.721	34.613	1295.810	1120.286
-17.706	34.670	1293.966	1118.982
-16.692	34.707	1292.676	1118.037
-15.677	34.583	1292.322	1116.958
-14.663	34.667	1290.191	1115.564
-13.648	34.662	1289.199	1114.635
-12.633	34.610	1288.157	1113.384
-11.619	34.631	1287.496	1112.892
-10.604	34.608	1286.756	1112.076
-9.590	34.507	1286.174	1110.937
-8.575	34.646	1284.792	1110.511
-7.560	34.551	1283.861	1109.111
-6.546	34.640	1282.996	1108.836
-5.531	34.498	1282.534	1107.567
-4.517	34.497	1281.608	1106.721
-3.502	34.665	1280.535	1106.721
-2.487	34.718	1279.438	1106.036
-1.473	34.680	1275.425	1102.306
-0.458	33.266	1260.595	1081.367
0.556	31.253	1240.420	1036.362
1.571	26.822	1243.179	1013.865
2.586	25.212	1257.473	1016.319
3.600	23.624	1245.132	997.343
4.615	17.807	1171.509	907.439
5.629	9.057	1094.523	804.070
6.644	5.072	1073.811	769.165
7.659	4.542	1070.951	764.446
8.673	4.351	1069.613	762.484
9.688	4.377	1068.612	761.828
10.702	5.106	1067.132	764.276
11.717	10.534	1075.099	796.641
12.731	18.808	1086.855	846.207
13.746	22.307	1090.112	865.922
14.761	21.934	1090.297	864.157
15.775	21.265	1087.951	858.930
16.790	20.258	1085.615	852.068
17.804	19.647	1084.189	847.876
18.819	19.291	1083.623	845.613
19.834	19.218	1082.272	844.124
20.848	18.980	1081.619	842.375
21.863	18.931	1080.945	841.534
22.877	18.678	1080.475	839.858
23.892	18.680	1079.550	839.075
24.907	18.701	1078.274	838.110
25.921	18.708	1077.600	837.548
26.936	18.715	1076.198	836.419
27.950	18.626	1075.027	835.001
28.965	18.719	1073.401	834.117
29.980	18.969	1072.060	834.212
30.994	19.069	1070.978	833.782
32.009	19.045	1069.877	832.735
33.023	19.025	1068.970	831.860
34.038	18.915	1067.874	830.401
35.053	18.775	1066.977	828.954
36.067	18.723	1066.052	827.911
37.082	18.852	1065.274	827.855
38.096	18.936	1064.923	827.913
39.111	18.949	1063.913	827.115
40.126	18.746	1062.249	824.776
41.140	18.445	1061.119	822.379
42.155	18.401	1059.814	821.083
43.169	18.333	1058.654	819.790
44.184	18.323	1057.596	818.847
45.199	18.257	1056.560	817.660
46.213	18.542	1055.663	818.254
47.228	18.710	1055.407	818.784
48.242	18.757	1054.048	817.879
49.257	18.695	1053.322	816.949
50.271	18.852	1052.298	816.831
51.286	18.797	1051.816	816.123
52.301	18.800	1050.445	814.998
53.315	18.645	1049.219	813.240
54.330	18.551	1048.180	811.920
55.344	18.517	1047.630	811.262
56.359	18.580	1046.428	810.557
57.374	18.465	1045.673	809.359
58.388	18.240	1044.897	807.623
59.403	18.399	1043.826	807.473
60.417	18.268	1043.493	806.526
61.432	18.198	1042.825	805.608
62.447	18.318	1041.089	804.763
63.461	18.170	1040.438	803.492
64.476	17.967	1039.921	802.069
65.490	18.069	1038.988	801.757
66.505	18.170	1038.540	801.814
67.520	18.237	1037.458	801.222
68.534	18.250	1036.688	800.613
69.549	18.179	1035.688	799.442
70.563	18.205	1034.547	798.612
71.578	17.959	1034.146	797.083
72.593	17.938	1033.345	796.294
73.607	17.968	1032.852	795.985
74.622	17.901	1032.563	795.379
75.636	18.058	1031.320	795.081
76.651	18.024	1030.978	794.591
77.666	18.037	1030.161	793.953
78.680	18.101	1029.345	793.549
79.695	18.189	1028.415	793.172
80.709	18.356	1028.104	793.636
81.724	18.409	1027.281	793.175
82.739	18.452	1026.812	792.939
83.753	18.719	1025.930	793.423
84.768	18.906	1025.919	794.211
85.782	19.121	1024.913	794.351
86.797	19.065	1023.689	793.075
87.812	18.890	1022.616	791.368
88.826	18.710	1022.106	790.073
89.841	18.908	1020.970	790.035
90.855	18.962	1020.124	789.558
91.870	18.988	1019.395	789.046
92.884	18.955	1017.915	787.680
93.899	18.953	1017.550	787.316
94.914	19.102	1016.954	787.468
95.928	19.046	1015.917	786.338
96.943	18.788	1015.254	784.581
97.957	18.822	1014.017	783.708
98.972	18.813	1013.622	783.291
99.987	18.918	1012.374	782.736
101.001	18.891	1011.117	781.572
102.016	18.875	1010.285	780.790
103.030	18.988	1009.701	780.783
104.045	18.945	1008.860	779.868
105.060	18.704	1007.870	777.942
106.074	18.500	1006.361	775.783
107.089	18.154	1005.410	773.419
108.103	18.266	1004.476	773.138
109.118	18.223	1003.867	772.403
110.133	18.170	1002.700	771.199
111.147	18.244	1001.807	770.779
112.162	18.401	1000.817	770.655
113.176	18.409	1000.481	770.362
114.191	18.495	999.947	770.270
115.206	18.434	999.183	769.340
116.220	18.342	998.315	768.191
117.235	18.417	997.618	767.921
118.249	18.245	996.696	766.374
119.264	18.213	995.860	765.522
120.279	18.249	994.813	764.812
121.293	18.119	993.932	763.486
122.308	18.144	993.179	762.949
123.322	18.097	991.850	761.654
124.337	17.981	990.751	760.226
125.352	18.016	989.999	759.736
126.366	18.132	988.289	758.873
127.381	18.163	987.409	758.268
128.395	18.072	987.057	757.523
129.410	18.166	986.064	757.112
130.424	18.258	985.372	756.919
131.439	18.437	984.599	757.051
132.454	18.629	983.603	757.066
133.468	18.425	982.878	755.541
134.483	18.367	982.754	755.125
135.497	18.434	981.800	754.618
136.512	18.574	980.033	753.811
137.527	18.422	979.930	752.997
138.541	18.535	979.324	752.958
139.556	18.697	978.194	752.733
140.570	18.738	977.808	752.551
141.585	18.873	977.341	752.715
142.600	19.016	975.951	752.203
143.614	19.144	975.629	752.451
144.629	19.037	974.755	751.240
145.643	19.001	973.687	750.195
146.658	18.711	972.737	748.133
147.673	18.600	971.655	746.749
148.687	18.578	970.653	745.818
149.702	18.387	969.809	744.276
150.716	18.506	968.776	743.930
151.731	18.558	968.054	743.539
152.746	18.539	967.578	743.023
153.760	18.652	966.618	742.708
154.775	18.718	966.378	742.747
155.789	18.703	965.770	742.149
156.804	18.834	964.652	741.790
157.819	18.888	964.259	741.653
158.833	19.080	963.755	742.027
159.848	19.161	962.529	741.366
160.862	18.934	961.669	739.663
161.877	18.697	959.974	737.277
162.892	18.565	959.161	736.020
163.906	18.553	957.812	734.868
164.921	18.407	957.342	733.817
165.935	18.595	956.134	733.632
166.950	18.602	955.929	733.440
167.964	18.706	954.985	733.093
168.979	18.458	954.352	731.484
169.994	18.498	953.188	730.699
171.008	18.659	952.583	730.857
172.023	18.962	951.700	731.402
173.037	19.087	951.032	731.356
174.052	18.979	950.312	730.279
175.067	18.653	949.225	727.995
176.081	18.486	948.593	726.740
177.096	18.495	948.397	726.560
178.110	18.560	947.547	726.120
179.125	18.686	946.991	726.166
180.140	18.689	946.667	725.865
181.154	18.774	946.542	726.062
182.169	18.979	945.707	726.226
183.183	19.079	945.071	726.092
184.198	18.956	944.350	724.956
185.213	18.959	943.600	724.332
186.227	19.191	942.648	724.510
187.242	19.201	942.047	724.027
188.256	19.146	941.754	723.508
189.271	19.255	941.045	723.357
190.286	18.946	939.708	720.968
191.300	18.446	938.752	718.076
192.315	18.396	937.908	717.161
193.329	18.466	937.830	717.330
194.344	18.567	937.282	717.267
195.359	18.791	936.565	717.592
196.373	18.889	936.563	717.937
197.388	19.033	935.888	717.956
198.402	19.203	935.746	718.495
199.417	19.350	934.769	718.293
200.432	19.467	933.971	718.102
201.446	19.500	934.145	718.309
202.461	19.582	933.534	718.117
203.475	19.479	932.511	716.839
204.490	19.127	931.874	714.822
205.504	19.152	930.708	713.969
206.519	19.070	929.859	712.918
207.534	19.203	929.384	713.039
208.548	19.214	928.860	712.621
209.563	19.080	927.962	711.315
210.577	19.165	927.790	711.469
211.592	19.455	926.781	711.831
212.607	19.642	926.127	712.035
213.621	19.405	925.373	710.417
214.636	19.406	924.844	709.955
215.650	19.421	924.454	709.650
216.665	19.663	923.318	709.709
217.680	19.601	923.129	709.250
218.694	19.553	922.303	708.354
219.709	19.530	921.583	707.645
220.723	19.579	920.841	707.214
221.738	19.603	919.896	706.521
222.753	19.484	919.511	705.678
223.767	19.568	919.288	705.786
224.782	19.710	918.907	706.012
225.796	19.764	918.160	705.596
226.811	19.722	917.172	704.604
227.826	19.456	916.578	703.002
228.840	19.452	915.741	702.282
229.855	19.615	914.660	702.052
230.869	19.495	913.872	700.898
231.884	19.465	913.242	700.233
232.899	19.312	912.681	699.118
233.913	19.184	912.047	698.051
234.928	19.126	911.676	697.472
235.942	19.163	910.663	696.784
236.957	19.192	910.415	696.651
237.972	19.297	909.674	696.447
238.986	19.271	909.123	695.856
240.001	19.244	908.534	695.237
241.015	19.381	907.884	695.232
242.030	19.494	907.350	695.217
243.045	19.564	906.776	694.995
244.059	19.498	905.963	694.047
245.074	19.501	905.645	693.754
246.088	19.532	905.417	693.640
247.103	19.767	904.506	693.825
248.117	19.934	904.669	694.559
249.132	20.065	904.507	694.897
250.147	20.279	903.728	695.095
251.161	20.392	902.953	694.891
252.176	20.455	902.492	694.727
253.190	20.445	901.650	693.975
254.205	20.510	900.815	693.533
255.220	20.424	900.006	692.505
256.234	20.400	899.313	691.816
257.249	20.451	898.847	691.598
258.263	20.409	897.959	690.686
259.278	20.406	897.395	690.180
260.293	20.404	897.275	690.017
261.307	20.461	896.101	689.279
262.322	20.634	895.451	689.404
263.336	20.519	895.121	688.634
264.351	20.540	894.274	688.006
265.366	20.535	893.872	687.616
266.380	20.505	893.167	686.895
267.395	20.495	892.332	686.151
268.409	20.395	891.340	684.934
269.424	20.398	890.753	684.433
270.439	20.305	890.291	683.652
271.453	20.264	889.330	682.693
272.468	20.359	888.612	682.455
273.482	20.336	888.339	682.091
274.497	20.283	887.345	681.061
275.512	20.263	886.930	680.603
276.526	20.266	886.647	680.337
277.541	20.223	886.456	679.961
278.555	20.627	885.239	680.551
279.570	20.770	884.969	680.842
280.585	20.527	884.449	679.431
281.599	20.442	883.362	678.205
282.614	20.466	882.568	677.629
283.628	20.454	882.112	677.173
284.643	20.480	881.368	676.643
285.657	20.454	880.700	675.966
286.672	20.517	879.917	675.554
287.687	20.461	879.442	674.913
288.701	20.466	878.882	674.441
289.716	20.477	878.599	674.208
290.730	20.512	878.269	674.029
291.745	20.738	877.154	673.988
292.760	20.659	876.814	673.363
293.774	20.817	876.237	673.470
294.789	20.641	875.529	672.187
295.803	20.601	874.600	671.260
296.818	20.552	873.731	670.344
297.833	20.557	873.073	669.800
298.847	20.540	872.526	669.256
299.862	20.689	871.766	669.188
300.876	20.683	871.983	669.271
301.891	20.909	871.160	669.449
302.906	20.977	870.608	669.227
303.920	21.025	870.010	668.892
304.935	21.169	869.937	669.328
305.949	20.986	869.311	668.087
306.964	20.802	868.275	666.527
307.979	20.928	867.672	666.487
308.993	20.958	867.157	666.145
310.008	20.970	866.784	665.846
311.022	20.838	866.006	664.686
312.037	20.845	865.475	664.246
313.052	20.846	864.471	663.421
314.066	20.513	864.256	661.929
315.081	20.492	863.362	661.107
316.095	20.546	862.826	660.842
317.110	20.499	862.664	660.481
318.125	20.685	861.737	660.417
319.139	20.490	861.391	659.355
320.154	20.714	860.583	659.528
321.168	20.776	860.369	659.539
322.183	20.705	859.726	658.721
323.197	20.685	859.326	658.279
324.212	20.708	858.788	657.896
325.227	20.893	857.892	657.850
326.241	20.788	857.258	656.910
327.256	20.636	856.661	655.821
328.270	20.718	855.972	655.546
329.285	20.713	855.631	655.205
330.300	20.538	855.279	654.222
331.314	20.781	854.476	654.463
332.329	20.996	853.656	654.584
333.343	20.914	853.924	654.423
334.358	20.929	853.444	654.052
335.373	21.082	852.976	654.209
336.387	21.023	852.893	653.867
337.402	21.230	852.565	654.336
338.416	21.166	852.226	653.778
339.431	21.301	852.173	654.182
340.446	21.532	851.043	654.120
341.460	21.473	851.326	654.060
342.475	21.625	850.817	654.178
343.489	21.540	850.529	653.585
344.504	21.624	849.804	653.280
345.519	21.806	849.228	653.461
346.533	21.670	848.279	652.164
347.548	21.390	847.864	650.745
348.562	21.108	847.576	649.419
349.577	21.172	846.606	648.856
350.592	21.046	845.945	647.824
351.606	20.961	845.538	647.140
352.621	21.124	844.660	647.012
353.635	21.114	844.220	646.583
354.650	21.216	843.762	646.552
355.665	21.330	842.987	646.322
356.679	21.324	842.179	645.624
357.694	21.511	841.254	645.546
358.708	21.370	840.780	644.609
359.723	21.454	840.311	644.500
360.738	21.386	839.941	643.910
361.752	21.545	839.119	643.807
362.767	21.688	838.410	643.730
363.781	21.679	838.381	643.618
364.796	21.782	838.157	643.767
365.810	22.063	837.585	644.301
366.825	21.952	837.550	643.811
367.840	21.875	836.707	642.823
368.854	21.815	836.167	642.133
369.869	21.665	835.845	641.278
370.883	21.687	835.191	640.802
371.898	21.787	835.162	641.089
372.913	22.042	834.132	641.174
373.927	21.916	833.743	640.358
374.942	21.847	833.501	639.862
375.956	21.962	832.814	639.697
376.971	22.054	832.628	639.832
377.986	22.085	832.356	639.679
379.000	22.222	831.810	639.702
380.015	22.109	831.053	638.653
381.029	22.128	830.479	638.223
382.044	22.176	830.089	638.043
383.059	22.164	829.658	637.610
384.073	21.973	828.741	636.159
385.088	21.806	827.883	634.837
386.102	21.903	827.197	634.608
387.117	21.713	826.998	633.711
388.132	21.747	826.285	633.232
389.146	21.930	825.752	633.429
390.161	22.017	825.763	633.693
391.175	22.288	825.012	634.037
392.190	22.031	824.278	632.494
393.205	21.802	824.095	631.471
394.219	21.834	823.506	631.081
395.234	21.699	823.069	630.205
396.248	21.702	822.417	629.660
397.263	21.513	821.848	628.490
398.278	21.454	821.416	627.891
399.292	21.759	821.036	628.641
400.307	21.571	820.668	627.629
401.321	21.658	820.053	627.416
402.336	21.952	819.623	628.081
403.350	21.874	819.586	627.718
404.365	22.147	818.901	628.114
405.380	22.050	818.682	627.546
406.394	22.330	817.888	627.881
407.409	22.309	817.654	627.570
408.423	22.440	817.525	627.884
409.438	22.492	817.094	627.680
410.453	22.473	816.983	627.473
411.467	22.579	816.130	627.138
412.482	22.693	815.374	626.908
413.496	22.750	815.370	627.053
414.511	22.521	815.187	626.042
415.526	22.588	814.416	625.630
416.540	22.571	813.878	625.104
417.555	22.529	813.691	624.754
418.569	22.550	813.319	624.488
419.584	22.518	812.618	623.782
420.599	22.492	812.367	623.441
421.613	159.856	1370.149	1790.679
422.628	139.176	1451.417	1790.775
