DTS Sentinel unit serial number:	SN413079Multiplexer serial number:	ORYXHardware model number:	OX4-SRSoftware version number:	ORYX F/W v4.00 Oryx Data Collector v3.7.2.0data status	okinstallation	princeton_trtdifferential loss correction	single-endedforward channel	channel 1reverse channel	N/Adate	2019/09/18time	23:38:35forward acquisition time	60.00reverse acquisition time	0.00gamma	496.2192k internal	0.2341k external	0.2341temperature offset calibration	1.0021default loss term (dB/km)	0.3790temperature slope calibration	1.0000multiplexer offset coefficient	1.0000multiplexer slope coefficient	1.0000fibre end	0.00T internal ref (°C)	23.52T ext. ref 1 (°C)	0.76T ext. ref 2 (°C)	16.38length (m)	temperature (°C)	Stokes	anti-Stokes-747.200	800.000	-0.046	0.154
-746.185	14.541	-0.163	-0.128
-745.171	96.575	0.194	-0.223
-744.156	-167.635	-0.144	-0.006
-743.142	-122.503	-0.086	-0.014
-742.127	-200.000	-0.074	0.624
-741.112	800.000	-0.070	0.269
-740.098	-96.308	0.071	-0.019
-739.083	-200.000	0.010	-0.078
-738.069	-54.951	-0.098	0.044
-737.054	-75.542	0.185	0.066
-736.039	800.000	0.055	-0.171
-735.025	305.514	-0.056	-0.104
-734.010	-200.000	-0.004	0.110
-732.996	13.942	0.145	0.113
-731.981	55.011	-0.351	-0.340
-730.966	-2.747	0.186	-0.130
-729.952	-6.588	-0.117	0.080
-728.937	800.000	0.043	0.180
-727.923	-34.321	-0.235	0.129
-726.908	97.583	-0.129	-0.149
-725.894	-93.711	-0.173	-0.048
-724.879	-200.000	-0.001	0.052
-723.864	113.493	-0.286	0.348
-722.850	-96.214	0.122	0.032
-721.835	-177.061	-0.244	0.006
-720.821	-71.468	-0.383	0.144
-719.806	6.201	0.159	0.118
-718.791	-200.000	0.036	0.372
-717.777	-95.734	-0.099	0.026
-716.762	-5.564	0.065	0.045
-715.748	-124.567	-0.155	-0.024
-714.733	97.546	-0.218	-0.251
-713.718	-200.000	-0.015	-0.112
-712.704	36.718	0.062	0.055
-711.689	-200.000	0.087	0.394
-710.675	144.814	0.094	-0.126
-709.660	-199.677	-0.441	0.002
-708.645	-23.356	-0.153	0.092
-707.631	800.000	0.123	0.348
-706.616	-15.878	-0.212	-0.135
-705.602	-71.129	-0.186	0.070
-704.587	-54.193	-0.346	-0.157
-703.572	-170.457	0.407	-0.014
-702.558	-91.062	0.191	0.055
-701.543	800.000	0.048	0.184
-700.529	175.728	0.182	0.263
-699.514	-68.714	-0.338	-0.131
-698.499	43.263	0.221	0.202
-697.485	-55.023	-0.404	0.182
-696.470	800.000	-0.037	-0.135
-695.456	-71.462	-0.127	-0.048
-694.441	90.545	-0.219	0.246
-693.426	-37.405	0.067	-0.036
-692.412	-122.138	-0.139	0.023
-691.397	-200.000	-0.006	-0.089
-690.383	-49.728	-0.446	-0.212
-689.368	-39.487	-0.277	0.145
-688.354	-114.658	0.097	0.019
-687.339	315.547	-0.145	0.274
-686.324	229.109	-0.083	-0.136
-685.310	57.351	-0.185	0.180
-684.295	-33.155	0.129	0.072
-683.281	370.705	-0.123	0.248
-682.266	-120.237	0.512	-0.087
-681.251	-51.824	-0.258	0.120
-680.237	-200.000	0.093	0.557
-679.222	508.207	-0.080	-0.185
-678.208	-200.000	-0.109	-0.494
-677.193	33.245	-0.332	-0.287
-676.178	202.986	-0.127	-0.197
-675.164	-200.000	-0.023	0.246
-674.149	105.237	0.256	-0.302
-673.135	-32.478	-0.093	0.052
-672.120	-200.000	0.044	-0.217
-671.105	-74.105	-0.245	-0.089
-670.091	-18.381	-0.230	-0.143
-669.076	-140.072	-0.236	0.025
-668.062	800.000	0.123	0.401
-667.047	800.000	-0.137	0.436
-666.032	-83.548	0.277	0.089
-665.018	-200.000	-0.041	-0.316
-664.003	-200.000	-0.019	-0.177
-662.989	-200.000	0.004	-0.023
-661.974	463.858	-0.108	0.241
-660.959	-48.844	-0.154	0.074
-659.945	800.000	-0.127	-0.409
-658.930	-77.593	-0.244	0.085
-657.916	-91.509	0.219	0.063
-656.901	-81.160	0.033	0.011
-655.886	27.319	0.072	0.060
-654.872	-96.328	0.134	0.035
-653.857	696.604	0.032	-0.084
-652.843	-39.694	-0.202	-0.105
-651.828	47.384	-0.146	-0.136
-650.814	-19.772	-0.069	0.042
-649.799	800.000	0.063	-0.175
-648.784	38.706	-0.203	-0.181
-647.770	87.446	-0.165	-0.182
-646.755	506.053	-0.111	-0.258
-645.741	78.666	0.059	0.063
-644.726	8.248	-0.070	-0.052
-643.711	620.525	-0.092	0.230
-642.697	45.293	-0.293	0.270
-641.682	-162.064	0.223	-0.011
-640.668	226.136	-0.210	-0.340
-639.653	-34.531	-0.440	-0.240
-638.638	372.631	0.092	-0.186
-637.624	538.577	-0.052	0.123
-636.609	-79.160	0.265	-0.090
-635.595	-179.249	0.399	-0.009
-634.580	173.868	0.034	-0.048
-633.565	100.994	-0.110	0.128
-632.551	92.995	0.190	0.215
-631.536	-200.000	0.012	-0.097
-630.522	655.127	-0.047	-0.121
-629.507	-200.000	-0.053	-0.247
-628.492	-56.338	0.160	0.071
-627.478	83.097	-0.157	-0.170
-626.463	41.828	-0.051	0.046
-625.449	-111.236	-0.222	-0.045
-624.434	-200.000	0.056	-0.284
-623.419	-91.221	-0.373	0.106
-622.405	317.689	-0.063	0.119
-621.390	-200.000	0.033	0.225
-620.376	-46.699	-0.182	-0.089
-619.361	800.000	0.107	0.327
-618.346	-66.607	-0.110	0.043
-617.332	-200.000	0.002	0.059
-616.317	-105.421	0.156	-0.035
-615.303	100.471	0.084	-0.097
-614.288	-200.000	-0.018	0.091
-613.273	-200.000	-0.028	0.126
-612.259	7.630	-0.200	0.149
-611.244	-200.000	-0.014	-0.117
-610.230	-200.000	0.104	-0.486
-609.215	62.005	-0.180	-0.179
-608.201	-200.000	0.028	-0.256
-607.186	142.539	-0.156	-0.206
-606.171	48.631	0.195	0.182
-605.157	-135.590	-0.017	-0.002
-604.142	-200.000	-0.037	-0.328
-603.128	-153.853	-0.064	-0.004
-602.113	-36.028	0.034	-0.018
-601.098	-110.340	0.132	-0.027
-600.084	-154.764	-0.337	0.022
-599.069	-108.771	0.101	-0.021
-598.055	606.869	0.096	0.237
-597.040	-98.985	0.207	0.052
-596.025	-146.982	-0.426	-0.036
-595.011	59.703	-0.146	-0.143
-593.996	49.552	-0.201	-0.189
-592.982	-151.973	-0.185	0.013
-591.967	-44.674	-0.077	0.038
-590.952	263.134	-0.115	-0.200
-589.938	317.201	0.070	-0.131
-588.923	705.256	-0.067	0.176
-587.909	-87.052	-0.399	0.121
-586.894	1.536	-0.280	0.201
-585.879	-44.359	-0.446	-0.223
-584.865	-115.883	0.248	0.046
-583.850	436.786	-0.067	-0.146
-582.836	-127.555	-0.198	-0.029
-581.821	123.481	-0.124	0.154
-580.806	800.000	-0.039	0.130
-579.792	-18.668	-0.180	0.112
-578.777	236.257	-0.053	-0.087
-577.763	384.947	-0.104	-0.213
-576.748	190.104	0.197	0.294
-575.733	-59.794	0.166	-0.071
-574.719	137.315	-0.284	0.369
-573.704	-109.040	0.394	-0.084
-572.690	49.696	-0.204	-0.192
-571.675	102.618	0.276	0.321
-570.661	-62.592	0.172	0.071
-569.646	-200.000	-0.057	-0.348
-568.631	349.657	0.159	0.312
-567.617	59.951	-0.125	-0.123
-566.602	-51.409	-0.107	-0.050
-565.588	-145.543	0.298	0.027
-564.573	517.299	-0.046	-0.107
-563.558	-200.000	-0.024	-0.292
-562.544	-95.623	-0.284	0.076
-561.529	-118.672	-0.194	-0.034
-560.515	72.193	0.103	-0.106
-559.500	64.397	-0.186	-0.187
-558.485	-200.000	0.017	-0.096
-557.471	-200.000	-0.000	-0.067
-556.456	-154.780	-0.251	-0.017
-555.442	-33.238	-0.072	-0.040
-554.427	38.285	0.183	-0.162
-553.412	-106.168	0.192	0.043
-552.398	800.000	-0.087	0.352
-551.383	-110.708	0.105	-0.022
-550.369	317.784	0.144	-0.270
-549.354	44.088	-0.188	0.172
-548.339	-61.841	0.101	0.042
-547.325	-78.265	0.157	0.054
-546.310	145.939	0.107	0.142
-545.296	-67.422	-0.110	-0.043
-544.281	-121.140	0.196	-0.033
-543.266	-41.372	-0.403	0.206
-542.252	-66.690	0.231	-0.091
-541.237	54.096	-0.096	-0.092
-540.223	200.717	-0.086	0.131
-539.208	528.838	0.090	0.211
-538.193	-4.856	-0.238	0.163
-537.179	68.961	0.232	-0.237
-536.164	11.729	-0.109	-0.083
-535.150	-90.611	-0.189	0.054
-534.135	369.192	0.043	0.086
-533.121	132.177	0.165	0.211
-532.106	187.168	-0.141	-0.209
-531.091	-17.858	0.273	0.170
-530.077	-40.694	0.166	-0.085
-529.062	-190.812	0.590	-0.006
-528.048	800.000	0.068	0.267
-527.033	478.225	-0.020	0.045
-526.018	68.869	0.205	-0.209
-525.004	-198.583	-0.127	-0.001
-523.989	105.448	0.134	-0.157
-522.975	-98.762	-0.243	-0.061
-521.960	129.891	0.167	-0.212
-520.945	443.224	-0.068	-0.149
-519.931	-71.056	-0.346	0.129
-518.916	-200.000	-0.013	0.074
-517.902	-141.523	0.317	0.032
-516.887	92.757	-0.155	-0.174
-515.872	76.461	0.104	-0.110
-514.858	36.894	-0.245	-0.215
-513.843	800.000	-0.010	-0.038
-512.829	-52.025	-0.453	-0.209
-511.814	321.301	-0.120	0.226
-510.799	-4.316	0.104	-0.072
-509.785	-93.558	-0.441	0.121
-508.770	280.101	-0.034	0.060
-507.756	-24.609	0.169	0.100
-506.741	66.731	-0.088	0.089
-505.726	609.675	0.054	-0.134
-504.712	19.815	-0.284	-0.227
-503.697	-200.000	0.002	0.295
-502.683	-200.000	0.012	0.260
-501.668	-83.201	-0.131	0.042
-500.653	7.156	0.185	-0.137
-499.639	-68.042	0.298	0.115
-498.624	-197.543	-0.102	0.001
-497.610	800.000	0.110	-0.322
-496.595	-124.415	0.396	0.061
-495.581	100.943	0.041	-0.048
-494.566	-200.000	0.023	0.246
-493.551	173.556	0.077	0.110
-492.537	-75.941	0.236	0.083
-491.522	-130.198	-0.118	0.016
-490.508	182.946	-0.209	0.306
-489.493	255.552	0.204	0.347
-488.478	2.052	0.369	0.264
-487.464	-62.057	-0.234	-0.097
-486.449	-39.449	-0.112	0.058
-485.435	3.691	0.305	-0.221
-484.420	122.102	-0.149	0.185
-483.405	102.106	-0.078	0.090
-482.391	800.000	-0.056	0.187
-481.376	-200.000	-0.003	0.094
-480.362	96.613	0.035	0.040
-479.347	77.618	-0.104	-0.110
-478.332	-127.893	0.163	0.023
-477.318	-139.623	-0.159	-0.017
-476.303	-113.942	0.164	0.032
-475.289	-80.664	-0.324	-0.107
-474.274	-19.188	-0.130	-0.080
-473.259	110.895	0.252	-0.301
-472.245	-52.067	0.163	-0.075
-471.230	-59.539	-0.255	0.108
-470.216	162.659	0.132	0.184
-469.201	-200.000	0.054	0.323
-468.186	375.794	-0.181	-0.366
-467.172	214.448	0.210	-0.329
-466.157	800.000	-0.027	0.117
-465.143	-87.775	0.219	0.065
-464.128	158.707	-0.043	0.059
-463.113	39.026	0.349	-0.309
-462.099	800.000	0.023	0.063
-461.084	-200.000	0.020	0.264
-460.070	-200.000	0.038	0.174
-459.055	-200.000	0.074	0.514
-458.040	-200.000	0.006	0.357
-457.026	-26.660	0.227	-0.132
-456.011	758.386	-0.036	-0.096
-454.997	-5.305	-0.281	-0.191
-453.982	-92.465	-0.191	0.053
-452.968	-69.473	-0.452	-0.172
-451.953	-61.760	-0.367	0.152
-450.938	-140.545	-0.207	0.021
-449.924	-200.000	0.000	0.457
-448.909	-121.825	-0.261	-0.043
-447.895	-23.085	-0.186	-0.111
-446.880	-116.036	-0.157	-0.029
-445.865	-200.000	0.012	-0.202
-444.851	-123.324	0.281	0.044
-443.836	-120.856	0.119	-0.020
-442.822	-132.236	0.469	0.060
-441.807	-200.000	0.029	0.147
-440.792	427.408	0.121	-0.258
-439.778	-200.000	0.016	0.072
-438.763	158.234	0.225	-0.308
-437.749	-117.148	-0.280	-0.050
-436.734	-24.313	0.385	-0.227
-435.719	-94.386	0.188	-0.051
-434.705	-109.984	-0.016	0.003
-433.690	-131.357	0.221	0.029
-432.676	-75.698	0.306	0.108
-431.661	-89.130	-0.107	0.031
-430.646	429.907	-0.152	-0.326
-429.632	-200.000	0.028	0.260
-428.617	-90.325	-0.138	0.040
-427.603	35.194	0.210	-0.182
-426.588	800.000	0.101	-0.280
-425.573	75.168	0.230	-0.240
-424.559	-114.168	0.142	-0.027
-423.544	800.000	0.072	-0.268
-422.530	37.696	0.616	0.541
-421.515	-103.098	-0.333	0.078
-420.500	800.000	-0.105	0.322
-419.486	800.000	0.063	-0.250
-418.471	-52.212	0.125	0.057
-417.457	-200.000	-0.057	-0.317
-416.442	417.646	-0.031	-0.066
-415.428	-31.086	-0.219	-0.122
-414.413	507.365	0.111	-0.254
-413.398	10.300	-0.203	0.153
-412.384	-55.903	-0.102	-0.045
-411.369	11.033	-0.215	-0.163
-410.355	91.985	0.086	-0.096
-409.340	478.744	-0.157	0.351
-408.325	582.125	0.114	-0.276
-407.311	-122.036	0.178	0.029
-406.296	451.436	-0.122	-0.267
-405.282	800.000	-0.034	0.126
-404.267	-74.482	0.145	0.052
-403.252	308.271	-0.127	-0.234
-402.238	-20.854	0.237	0.144
-401.223	800.000	-0.103	0.320
-400.209	-200.000	-0.013	-0.081
-399.194	800.000	-0.039	-0.132
-398.179	-168.705	-0.157	-0.006
-397.165	-56.157	-0.061	-0.027
-396.150	129.054	0.043	-0.054
-395.136	-47.867	-0.335	0.160
-394.121	-200.000	0.023	0.143
-393.106	290.608	0.146	0.262
-392.092	-106.369	-0.157	-0.035
-391.077	-157.335	0.285	-0.017
-390.063	640.848	0.101	0.255
-389.048	-112.325	-0.086	0.017
-388.033	-73.044	-0.142	-0.052
-387.019	305.029	-0.065	-0.120
-386.004	-200.000	-0.017	0.245
-384.990	-200.000	-0.330	0.001
-383.975	81.928	-0.131	-0.141
-382.960	-200.000	0.028	-0.146
-381.946	800.000	-0.025	-0.074
-380.931	800.000	-0.080	0.288
-379.917	800.000	-0.033	0.136
-378.902	106.806	0.036	0.042
-377.888	105.882	-0.216	-0.253
-376.873	-200.000	0.053	-0.325
-375.858	-91.711	0.168	-0.047
-374.844	-200.000	0.010	0.093
-373.829	-155.322	0.200	0.013
-372.815	213.767	0.073	-0.115
-371.800	-122.167	0.010	0.002
-370.785	-60.357	-0.088	0.037
-369.771	800.000	-0.073	-0.227
-368.756	-151.992	0.274	0.020
-367.742	-146.478	-0.232	-0.020
-366.727	800.000	-0.070	0.252
-365.712	-200.000	0.002	-0.132
-364.698	-200.000	0.050	0.296
-363.683	-53.222	-0.150	-0.068
-362.669	-40.127	-0.215	-0.111
-361.654	-126.964	0.177	-0.026
-360.639	-120.789	-0.392	0.065
-359.625	-73.726	0.147	-0.053
-358.610	-13.961	-0.169	0.108
-357.596	70.602	0.310	0.317
-356.581	800.000	-0.118	0.378
-355.566	800.000	-0.024	0.071
-354.552	-56.292	0.339	-0.149
-353.537	147.507	-0.241	-0.321
-352.523	-200.000	0.055	-0.252
-351.508	-11.807	-0.204	-0.132
-350.493	130.135	0.115	0.146
-349.479	800.000	0.075	-0.211
-348.464	76.749	-0.051	0.053
-347.450	477.489	0.114	0.254
-346.435	-46.000	-0.195	0.095
-345.420	-24.556	0.187	-0.110
-344.406	162.170	0.245	0.339
-343.391	-44.666	0.057	0.028
-342.377	-22.335	-0.081	0.048
-341.362	-142.827	0.162	-0.016
-340.348	-200.000	-0.020	-0.128
-339.333	442.050	0.134	0.290
-338.318	216.145	0.066	0.103
-337.304	-60.024	-0.293	0.123
-336.289	-200.000	0.012	-0.118
-335.275	-102.258	0.146	0.035
-334.260	-56.781	0.324	-0.141
-333.245	800.000	0.059	0.243
-332.231	-200.000	0.002	-0.327
-331.216	100.527	-0.115	-0.132
-330.202	-58.164	0.252	-0.108
-329.187	-49.276	-0.171	0.081
-328.172	296.355	-0.060	-0.108
-327.158	13.697	-0.188	-0.144
-326.143	-200.000	0.005	0.263
-325.129	-159.930	-0.287	0.015
-324.114	-73.851	0.095	-0.034
-323.099	485.933	-0.147	0.331
-322.085	-118.175	0.122	0.021
-321.070	484.584	-0.061	-0.138
-320.056	-60.343	0.101	-0.043
-319.041	-110.866	-0.350	-0.071
-318.026	800.000	0.082	0.254
-317.012	719.065	-0.090	0.235
-315.997	226.885	-0.196	0.313
-314.983	-125.944	-0.432	-0.064
-313.968	-122.192	-0.183	0.030
-312.953	-130.825	0.094	0.012
-311.939	195.521	-0.081	-0.121
-310.924	-110.532	-0.244	0.050
-309.910	-45.947	0.250	-0.121
-308.895	-200.000	0.005	-0.218
-307.880	34.945	0.128	0.110
-306.866	-84.803	0.330	-0.102
-305.851	-200.000	-0.165	-0.000
-304.837	-49.066	-0.311	0.147
-303.822	32.337	0.104	0.088
-302.807	-24.763	-0.366	-0.214
-301.793	-91.726	0.145	0.041
-300.778	25.191	-0.187	0.153
-299.764	2.652	0.324	0.231
-298.749	800.000	0.066	0.235
-297.735	-200.000	0.035	0.210
-296.720	-48.383	-0.218	0.103
-295.705	-2.427	0.210	0.145
-294.691	800.000	0.040	0.144
-293.676	800.000	0.053	-0.183
-292.662	-200.000	0.037	0.165
-291.647	-114.118	-0.341	-0.065
-290.632	-35.117	0.311	-0.167
-289.618	43.514	0.465	0.418
-288.603	35.230	0.233	0.201
-287.589	42.737	0.082	-0.073
-286.574	-134.420	-0.248	-0.030
-285.559	-85.011	-0.252	-0.078
-284.545	79.804	-0.250	-0.264
-283.530	-200.000	-0.002	-0.061
-282.516	-70.829	-0.184	-0.068
-281.501	-57.908	0.216	0.093
-280.486	235.342	-0.027	-0.044
-279.472	-19.874	0.182	-0.110
-278.457	-87.821	0.171	-0.051
-277.443	99.559	-0.259	-0.295
-276.428	-84.892	0.136	0.042
-275.413	-168.441	0.221	0.008
-274.399	-53.019	0.115	-0.052
-273.384	20.618	-0.079	-0.063
-272.370	-200.000	-0.022	0.159
-271.355	187.475	-0.181	0.265
-270.340	-14.078	0.197	0.125
-269.326	800.000	-0.061	0.182
-268.311	-9.919	-0.140	0.092
-267.297	220.038	-0.097	0.153
-266.282	99.143	0.030	-0.034
-265.267	170.523	-0.128	-0.180
-264.253	-5.750	0.264	0.178
-263.238	402.821	-0.116	0.239
-262.224	800.000	0.041	-0.154
-261.209	29.494	-0.162	0.135
-260.195	370.594	-0.111	0.221
-259.180	51.179	0.396	0.370
-258.165	90.278	-0.058	0.064
-257.151	-30.896	-0.249	0.138
-256.136	489.375	0.165	0.371
-255.122	-200.000	0.018	-0.129
-254.107	-41.787	-0.167	-0.084
-253.092	698.026	0.104	-0.269
-252.078	-16.309	0.200	0.125
-251.063	-200.000	0.028	-0.237
-250.049	-48.416	-0.170	-0.081
-249.034	800.000	0.129	0.366
-248.019	-27.915	-0.224	0.128
-247.005	-165.407	0.113	-0.005
-245.990	-18.525	-0.026	-0.016
-244.976	-58.954	0.084	0.036
-243.961	-5.637	-0.135	-0.091
-242.946	-102.624	-0.175	-0.041
-241.932	484.233	-0.105	0.235
-240.917	-200.000	0.063	-0.373
-239.903	-11.969	0.123	-0.079
-238.888	174.314	0.171	-0.242
-237.873	-112.664	0.163	-0.032
-236.859	256.421	-0.170	-0.287
-235.844	-54.309	-0.096	0.043
-234.830	-15.632	0.269	-0.169
-233.815	-122.278	-0.460	-0.074
-232.800	-200.000	-0.015	0.223
-231.786	23.309	-0.161	0.130
-230.771	7.053	-0.390	0.286
-229.757	-200.000	-0.009	-0.254
-228.742	-1.244	0.312	-0.217
-227.727	317.017	0.088	0.164
-226.713	63.109	-0.198	0.195
-225.698	497.822	0.020	-0.044
-224.684	-200.000	0.044	-0.206
-223.669	-200.000	-0.030	-0.212
-222.655	79.825	0.060	-0.063
-221.640	96.766	-0.215	0.242
-220.625	133.108	-0.246	-0.311
-219.611	483.924	0.225	0.502
-218.596	-39.529	0.271	-0.139
-217.582	-126.599	0.182	-0.026
-216.567	104.037	-0.064	0.073
-215.552	47.872	0.235	-0.215
-214.538	-137.966	-0.124	0.014
-213.523	-200.000	-0.005	0.256
-212.509	-19.454	0.337	-0.205
-211.494	-78.854	-0.242	-0.081
-210.479	494.219	0.057	0.129
-209.465	-162.094	0.347	0.017
-208.450	800.000	-0.031	-0.118
-207.436	-13.450	-0.204	-0.130
-206.421	2.907	0.393	0.280
-205.406	46.353	-0.069	0.063
-204.392	708.064	0.097	-0.251
-203.377	-34.225	0.141	-0.076
-202.363	240.396	-0.153	-0.250
-201.348	29.970	0.026	-0.022
-200.333	162.636	0.088	0.121
-199.319	63.149	0.078	-0.077
-198.304	800.000	0.116	0.345
-197.290	-121.799	0.148	-0.024
-196.275	-56.653	0.134	0.058
-195.260	19.740	0.228	0.180
-194.246	-50.278	0.213	0.099
-193.231	-175.442	-0.169	-0.005
-192.217	-200.000	-0.023	-0.288
-191.202	132.237	0.159	-0.201
-190.187	-200.000	0.015	0.101
-189.173	-35.451	0.160	0.085
-188.158	-90.959	0.086	0.024
-187.144	-200.000	0.012	-0.207
-186.129	115.969	0.106	0.128
-185.114	241.103	0.188	-0.308
-184.100	112.391	0.144	0.171
-183.085	-200.000	-0.042	-0.379
-182.071	-93.882	0.293	-0.079
-181.056	-80.493	0.205	-0.067
-180.042	-42.342	0.199	-0.100
-179.027	55.926	0.178	0.169
-178.012	88.469	-0.070	-0.076
-176.998	-57.951	-0.213	0.091
-175.983	14.721	0.194	-0.149
-174.969	-200.000	0.002	0.028
-173.954	-83.013	0.049	-0.016
-172.939	-20.803	0.164	-0.098
-171.925	29.613	-0.165	-0.138
-170.910	-50.788	-0.073	0.034
-169.896	-74.542	0.106	0.037
-168.881	800.000	0.052	-0.172
-167.866	-200.000	0.006	-0.178
-166.852	-52.772	-0.194	0.088
-165.837	-200.000	0.036	-0.352
-164.823	800.000	0.052	0.212
-163.808	3.361	0.330	0.235
-162.793	-53.811	0.299	-0.134
-161.779	169.081	-0.143	-0.200
-160.764	-61.249	0.192	0.079
-159.750	-99.354	-0.097	-0.024
-158.735	-63.969	-0.073	0.029
-157.720	75.884	-0.113	0.118
-156.706	606.229	0.049	-0.119
-155.691	-41.289	-0.054	-0.027
-154.677	92.693	-0.062	-0.069
-153.662	-115.625	0.308	0.057
-152.647	25.044	-0.021	0.017
-151.633	11.119	-0.191	0.143
-150.618	-136.668	-0.305	-0.034
-149.604	77.730	-0.219	0.228
-148.589	151.519	0.092	0.123
-147.574	-200.000	0.033	0.202
-146.560	-87.516	-0.173	0.051
-145.545	-95.468	-0.265	0.070
-144.531	113.838	0.187	-0.222
-143.516	633.979	-0.078	0.193
-142.502	-123.528	0.204	-0.032
-141.487	156.207	-0.097	-0.131
-140.472	-100.986	-0.212	-0.051
-139.458	65.471	0.148	0.147
-138.443	-122.845	-0.284	0.045
-137.429	-200.000	-0.004	0.018
-136.414	-64.939	0.243	0.096
-135.399	755.883	-0.052	-0.137
-134.385	3.814	0.049	-0.035
-133.370	-166.560	0.301	-0.012
-132.356	-200.000	-0.025	-0.108
-131.341	-23.609	0.167	-0.098
-130.326	745.370	-0.073	-0.191
-129.312	628.857	0.142	0.351
-128.297	800.000	-0.032	-0.136
-127.283	-137.112	0.339	0.038
-126.268	-109.415	0.071	0.015
-125.253	-92.349	-0.394	-0.108
-124.239	735.136	0.061	-0.161
-123.224	-119.952	-0.106	-0.018
-122.210	-200.000	0.012	0.138
-121.195	458.465	0.097	0.210
-120.180	-200.000	0.020	0.139
-119.166	0.390	-0.131	-0.092
-118.151	-87.696	0.075	0.022
-117.137	-82.678	0.042	0.013
-116.122	-175.970	0.140	-0.004
-115.107	-200.000	-0.038	0.165
-114.093	-200.000	-0.018	-0.119
-113.078	241.772	0.094	-0.153
-112.064	800.000	0.031	-0.122
-111.049	-13.392	-0.245	0.155
-110.034	-200.000	0.002	-0.297
-109.020	-200.000	0.071	0.305
-108.005	-67.634	-0.145	0.055
-106.991	51.610	0.242	0.225
-105.976	114.992	0.137	-0.164
-104.962	-16.570	0.183	-0.113
-103.947	4.780	-0.238	0.171
-102.932	338.908	-0.115	0.219
-101.918	-125.739	-0.118	-0.017
-100.903	119.947	0.183	0.221
-99.889	168.829	0.026	0.037
-98.874	-200.000	-0.029	0.344
-97.859	-200.000	0.005	-0.270
-96.845	50.125	-0.108	-0.099
-95.830	800.000	0.047	-0.197
-94.816	-129.852	0.422	0.057
-93.801	-200.000	-0.040	-0.278
-92.786	83.128	0.321	0.341
-91.772	23.832	-0.128	-0.103
-90.757	738.822	0.033	-0.086
-89.743	-145.418	-0.038	-0.003
-88.728	288.906	0.073	-0.130
-87.713	341.154	-0.177	-0.338
-86.699	-200.000	0.001	-0.177
-85.684	-3.210	0.082	-0.056
-84.670	4.333	0.457	0.327
-83.655	-200.000	0.028	0.227
-82.640	6.810	-0.240	-0.174
-81.626	-71.733	0.324	-0.118
-80.611	-200.000	0.002	-0.076
-79.597	301.121	-0.049	-0.088
-78.582	800.000	-0.091	0.255
-77.567	84.852	-0.060	-0.064
-76.553	0.277	0.296	0.206
-75.538	9.894	-0.231	-0.171
-74.524	800.000	-0.048	-0.156
-73.509	800.000	0.020	-0.079
-72.494	-151.688	0.374	0.027
-71.480	-16.574	-0.102	-0.063
-70.465	-29.129	0.210	-0.117
-69.451	335.721	0.164	-0.311
-68.436	762.296	-0.104	-0.276
-67.422	-65.385	0.039	0.015
-66.407	-14.080	0.162	-0.102
-65.392	51.826	-0.060	-0.056
-64.378	-186.578	-0.148	-0.002
-63.363	469.449	0.164	0.360
-62.349	-90.607	-0.074	-0.021
-61.334	35.955	-1.129	-0.969
-60.319	-1.352	0.851	0.586
-59.305	800.000	-0.526	-1.511
-58.290	452.879	0.815	1.758
-57.276	-200.000	0.307	1.568
-56.261	-200.000	126.189	677.396
-55.246	428.536	1577.716	3324.200
-54.232	142.720	2729.721	3537.378
-53.217	97.243	2149.556	2405.857
-52.203	35.263	1583.710	1354.102
-51.188	26.761	1328.374	1085.105
-50.173	24.239	1291.253	1040.044
-49.159	52.825	1360.766	1268.685
-48.144	49.234	1372.003	1257.604
-47.130	26.884	1319.936	1078.768
-46.115	23.713	1300.469	1044.206
-45.100	23.578	1295.203	1039.147
-44.086	23.405	1293.323	1036.587
-43.071	23.372	1290.734	1034.275
-42.057	23.424	1288.511	1032.754
-41.042	23.489	1286.541	1031.516
-40.027	23.449	1285.866	1030.701
-39.013	23.376	1283.802	1028.579
-37.998	23.331	1282.168	1026.971
-36.984	23.406	1280.686	1026.175
-35.969	23.549	1278.459	1025.181
-34.954	23.472	1277.124	1023.622
-33.940	23.560	1275.770	1023.006
-32.925	23.693	1274.262	1022.523
-31.911	23.502	1273.183	1020.518
-30.896	23.616	1271.893	1020.098
-29.881	23.619	1270.829	1019.218
-28.867	23.725	1268.899	1018.237
-27.852	23.664	1267.467	1016.700
-26.838	23.642	1266.324	1015.615
-25.823	23.741	1264.921	1015.018
-24.809	23.560	1263.513	1012.815
-23.794	23.608	1262.656	1012.358
-22.779	23.592	1261.251	1011.100
-21.765	23.612	1259.654	1009.898
-20.750	23.571	1258.607	1008.781
-19.736	23.528	1257.449	1007.572
-18.721	23.408	1256.325	1005.950
-17.706	23.529	1254.666	1005.265
-16.692	23.441	1253.954	1004.160
-15.677	23.346	1253.049	1002.857
-14.663	23.567	1251.381	1002.730
-13.648	23.340	1250.725	1000.884
-12.633	23.552	1249.477	1001.041
-11.619	23.528	1248.267	999.898
-10.604	23.431	1247.654	998.818
-9.590	23.422	1247.206	998.368
-8.575	23.333	1246.087	996.931
-7.560	23.520	1245.299	997.315
-6.546	23.471	1244.643	996.473
-5.531	23.499	1243.624	995.776
-4.517	23.385	1242.763	994.406
-3.502	23.433	1242.204	994.188
-2.487	23.491	1240.952	993.475
-1.473	23.365	1236.688	989.315
-0.458	21.616	1221.680	967.615
0.556	17.022	1205.467	929.115
1.571	13.118	1212.617	913.002
2.586	12.455	1227.497	920.413
3.600	12.293	1216.128	910.906
4.615	9.205	1145.878	842.047
5.629	3.483	1076.265	762.593
6.644	0.974	1059.191	738.208
7.659	0.680	1057.461	735.506
8.673	0.624	1056.621	734.584
9.688	0.783	1055.619	734.595
10.702	0.769	1053.370	732.895
11.717	4.462	1056.543	752.969
12.731	11.152	1065.340	791.782
13.746	15.897	1071.925	819.764
14.761	17.195	1073.486	827.206
15.775	16.562	1071.472	822.504
16.790	15.721	1068.955	816.420
17.804	14.969	1067.808	811.825
18.819	14.738	1066.407	809.566
19.834	14.348	1066.062	807.342
20.848	14.123	1064.935	805.328
21.863	13.899	1063.788	803.304
22.877	13.630	1063.508	801.721
23.892	13.715	1062.365	801.200
24.907	13.709	1061.723	800.617
25.921	13.760	1061.062	800.296
26.936	13.763	1060.621	799.904
27.950	13.804	1059.378	799.096
28.965	13.856	1058.208	798.389
29.980	13.923	1056.539	797.385
30.994	13.920	1056.114	796.979
32.009	13.975	1054.687	796.091
33.023	13.901	1054.192	795.293
34.038	13.950	1052.781	794.392
35.053	13.918	1052.347	793.843
36.067	13.895	1050.643	792.379
37.082	13.893	1050.417	792.127
38.096	13.841	1049.764	791.317
39.111	13.777	1049.330	790.614
40.126	13.732	1047.911	789.265
41.140	13.768	1046.407	788.231
42.155	13.693	1045.908	787.429
43.169	13.660	1044.555	786.184
44.184	13.622	1044.056	785.558
45.199	13.720	1042.475	784.763
46.213	13.764	1041.477	784.152
47.228	13.901	1040.184	783.754
48.242	13.687	1039.839	782.416
49.257	14.002	1038.033	782.470
50.271	13.898	1037.418	781.449
51.286	13.788	1036.883	780.461
52.301	13.763	1036.022	779.624
53.315	13.791	1034.695	778.689
54.330	13.556	1034.240	777.174
55.344	13.752	1032.689	776.860
56.359	13.772	1031.888	776.280
57.374	13.827	1030.692	775.568
58.388	13.741	1030.270	774.780
59.403	13.693	1029.483	773.898
60.417	13.586	1028.861	772.861
61.432	13.791	1027.650	772.841
62.447	13.563	1027.038	771.251
63.461	13.594	1026.172	770.675
64.476	13.727	1025.554	770.763
65.490	13.722	1024.354	769.767
66.505	13.658	1023.761	768.955
67.520	13.684	1023.401	768.738
68.534	13.651	1022.325	767.708
69.549	13.682	1021.986	767.529
70.563	13.643	1020.768	766.366
71.578	13.494	1020.609	765.492
72.593	13.623	1019.544	765.223
73.607	13.637	1018.800	764.662
74.622	13.545	1018.075	763.622
75.636	13.514	1017.382	762.894
76.651	13.540	1016.674	762.416
77.666	13.661	1015.762	762.219
78.680	13.707	1015.473	762.147
79.695	13.587	1014.879	761.084
80.709	13.620	1014.383	760.794
81.724	13.704	1013.653	760.565
82.739	13.667	1012.869	759.742
83.753	13.808	1012.003	759.670
84.768	13.866	1010.782	758.952
85.782	13.839	1009.651	757.912
86.797	13.816	1009.240	757.429
87.812	13.741	1008.154	756.207
88.826	13.688	1007.473	755.385
89.841	13.899	1006.062	755.221
90.855	13.834	1005.400	754.363
91.870	13.886	1004.785	754.071
92.884	13.852	1003.535	752.911
93.899	13.818	1003.071	752.344
94.914	13.928	1002.491	752.338
95.928	13.915	1001.707	751.626
96.943	13.760	1000.925	750.271
97.957	13.974	999.712	750.260
98.972	13.828	998.980	748.986
99.987	13.799	998.171	748.185
101.001	13.914	997.009	747.764
102.016	13.853	996.380	746.955
103.030	13.940	995.377	746.525
104.045	13.896	994.672	745.733
105.060	13.835	994.054	744.930
106.074	13.938	992.556	744.204
107.089	13.720	992.281	742.956
108.103	13.733	991.260	742.185
109.118	13.670	990.174	741.024
110.133	13.747	989.361	740.691
111.147	13.920	988.053	740.420
112.162	13.864	987.225	739.482
113.176	13.733	986.849	738.553
114.191	13.823	986.376	738.537
115.206	13.917	985.410	738.164
116.220	13.923	984.393	737.361
117.235	13.836	983.574	736.300
118.249	13.877	982.504	735.615
119.264	13.763	982.214	734.828
120.279	13.836	981.169	734.305
121.293	13.865	980.320	733.733
122.308	13.794	979.571	732.790
123.322	13.846	978.118	731.870
124.337	13.824	977.433	731.194
125.352	13.560	976.694	729.413
126.366	13.840	975.340	729.571
127.381	13.748	974.465	728.447
128.395	13.934	973.336	728.353
129.410	13.742	972.957	727.164
130.424	13.792	972.031	726.628
131.439	13.914	970.683	726.088
132.454	13.933	970.101	725.675
133.468	13.821	969.799	724.893
134.483	13.763	968.735	723.781
135.497	13.851	967.718	723.340
136.512	13.854	967.086	722.815
137.527	13.884	966.197	722.219
138.541	13.927	965.481	721.807
139.556	13.821	965.041	720.953
140.570	13.917	964.207	720.685
141.585	14.067	963.033	720.390
142.600	14.043	962.175	719.583
143.614	13.952	961.534	718.646
144.629	14.021	961.103	718.559
145.643	13.916	959.868	717.118
146.658	13.985	958.741	716.511
147.673	14.026	957.768	715.897
148.687	13.956	957.207	715.113
149.702	13.893	956.218	714.038
150.716	13.868	955.740	713.510
151.731	14.040	954.636	713.365
152.746	14.055	954.177	713.019
153.760	14.058	953.484	712.454
154.775	13.995	952.913	711.693
155.789	14.063	952.508	711.620
156.804	14.149	951.490	711.164
157.819	14.037	951.369	710.533
158.833	14.209	950.230	710.353
159.848	14.176	949.395	709.525
160.862	14.146	948.605	708.742
161.877	14.269	946.975	707.987
162.892	14.183	946.376	707.112
163.906	14.132	945.907	706.480
164.921	14.155	944.914	705.774
165.935	14.141	944.419	705.282
166.950	14.271	943.110	704.795
167.964	14.138	942.642	703.819
168.979	14.113	941.663	702.920
169.994	14.156	940.700	702.321
171.008	14.197	940.105	701.986
172.023	14.258	939.582	701.790
173.037	14.261	938.890	701.225
174.052	14.252	937.826	700.330
175.067	14.129	937.390	699.425
176.081	14.091	937.344	699.168
177.096	14.177	936.204	698.617
178.110	14.104	935.661	697.846
179.125	14.267	935.134	698.072
180.140	14.296	934.744	697.843
181.154	14.261	934.347	697.338
182.169	14.209	933.997	696.798
183.183	14.436	932.974	696.920
184.198	14.310	932.205	695.759
185.213	14.419	931.290	695.467
186.227	14.463	930.727	695.171
187.242	14.501	930.341	694.981
188.256	14.348	929.840	693.906
189.271	14.440	928.748	693.411
190.286	14.434	927.965	692.743
191.300	14.346	927.093	691.662
192.315	14.305	927.159	691.482
193.329	14.369	926.445	691.155
194.344	14.344	925.655	690.401
195.359	14.424	924.786	690.024
196.373	14.489	924.019	689.655
197.388	14.638	923.573	689.881
198.402	14.497	923.790	689.397
199.417	14.644	922.541	689.009
200.432	14.652	921.874	688.485
201.446	14.684	921.760	688.470
202.461	14.789	920.960	688.245
203.475	14.689	920.676	687.560
204.490	14.708	919.519	686.711
205.504	14.791	918.855	686.498
206.519	14.706	918.460	685.794
207.534	14.744	917.192	684.942
208.548	14.703	916.880	684.479
209.563	14.701	916.601	684.204
210.577	14.727	915.489	683.418
211.592	14.728	914.710	682.779
212.607	14.737	914.309	682.459
213.621	14.775	913.378	681.855
214.636	14.861	912.370	681.394
215.650	14.766	911.898	680.594
216.665	14.911	911.054	680.493
217.680	14.881	910.525	679.918
218.694	14.899	909.889	679.455
219.709	14.840	909.693	679.009
220.723	14.963	908.503	678.559
221.738	14.916	907.896	677.858
222.753	14.955	907.293	677.506
223.767	14.998	906.829	677.271
224.782	15.039	906.310	676.991
225.796	15.051	905.775	676.581
226.811	15.049	904.830	675.805
227.826	15.108	904.220	675.529
228.840	15.073	903.458	674.756
229.855	15.027	902.922	674.114
230.869	15.025	901.613	673.067
231.884	14.970	901.477	672.685
232.899	15.006	900.554	672.080
233.913	15.020	899.755	671.481
234.928	15.073	899.220	671.235
235.942	14.906	898.674	670.099
236.957	14.933	898.363	669.916
237.972	15.154	897.444	670.057
238.986	15.008	896.924	669.026
240.001	15.130	896.226	668.934
241.015	15.104	895.486	668.216
242.030	15.099	894.905	667.706
243.045	15.191	893.928	667.285
244.059	15.076	893.368	666.349
245.074	15.317	892.698	666.746
246.088	15.281	892.022	666.041
247.103	15.258	891.451	665.463
248.117	15.297	891.238	665.400
249.132	15.305	890.587	664.888
250.147	15.349	890.166	664.689
251.161	15.428	889.284	664.286
252.176	15.363	888.460	663.352
253.190	15.448	887.782	663.125
254.205	15.480	887.345	662.866
255.220	15.317	887.060	661.951
256.234	15.512	886.144	661.979
257.249	15.525	885.444	661.447
258.263	15.541	884.745	660.928
259.278	15.643	884.134	660.816
260.293	15.564	883.312	659.831
261.307	15.637	883.092	659.896
262.322	15.531	882.265	658.805
263.336	15.744	881.104	658.712
264.351	15.689	880.698	658.136
265.366	15.649	880.281	657.609
266.380	15.642	879.821	657.181
267.395	15.740	879.064	656.938
268.409	15.859	877.915	656.486
269.424	15.707	877.487	655.516
270.439	15.683	876.778	654.835
271.453	15.748	876.411	654.757
272.468	15.807	875.589	654.314
273.482	15.819	874.982	653.850
274.497	15.830	874.373	653.377
275.512	15.751	873.911	652.669
276.526	15.878	873.531	652.819
277.541	15.788	872.781	651.855
278.555	15.942	872.312	652.042
279.570	15.968	871.687	651.617
280.585	15.994	870.872	651.049
281.599	15.855	870.331	650.052
282.614	16.000	869.456	649.901
283.628	15.893	868.758	648.909
284.643	15.870	868.382	648.483
285.657	16.053	867.421	648.409
286.672	16.063	866.697	647.850
287.687	16.025	866.402	647.425
288.701	15.952	866.033	646.813
289.716	16.060	865.241	646.581
290.730	16.024	864.827	646.074
291.745	16.197	863.909	645.992
292.760	16.146	863.558	645.480
293.774	16.072	862.656	644.465
294.789	16.157	862.169	644.368
295.803	16.130	861.128	643.430
296.818	15.982	860.916	642.652
297.833	16.136	860.006	642.499
298.847	16.134	859.839	642.311
299.862	16.227	858.952	641.945
300.876	16.195	858.493	641.427
301.891	16.353	857.487	641.215
302.906	16.459	856.959	641.168
303.920	16.364	856.515	640.418
304.935	16.479	855.968	640.387
305.949	16.449	855.238	639.673
306.964	16.422	855.017	639.349
307.979	16.319	854.405	638.445
308.993	16.487	853.678	638.479
310.008	16.308	853.434	637.563
311.022	16.521	852.465	637.588
312.037	16.440	852.155	636.992
313.052	16.499	851.703	636.821
314.066	16.396	850.998	635.849
315.081	16.438	850.414	635.517
316.095	16.302	850.274	634.845
317.110	16.497	849.136	634.668
318.125	16.574	848.616	634.516
319.139	16.560	848.280	634.155
320.154	16.429	848.104	633.476
321.168	16.477	847.594	633.219
322.183	16.591	846.689	632.912
323.197	16.563	846.327	632.482
324.212	16.438	845.939	631.666
325.227	16.523	844.943	631.185
326.241	16.453	844.658	630.655
327.256	16.553	843.922	630.425
328.270	16.529	843.593	630.032
329.285	16.570	842.691	629.457
330.300	16.562	842.386	629.143
331.314	16.521	841.569	628.323
332.329	16.605	841.245	628.339
333.343	16.615	840.707	627.918
334.358	16.565	840.448	627.482
335.373	16.685	839.895	627.458
336.387	16.724	839.725	627.422
337.402	16.795	839.396	627.383
338.416	16.900	838.648	627.156
339.431	16.808	838.361	626.547
340.446	16.925	837.707	626.436
341.460	16.943	837.283	626.128
342.475	16.879	837.378	625.908
343.489	16.897	836.842	625.520
344.504	17.000	836.485	625.575
345.519	16.849	836.121	624.692
346.533	16.984	835.013	624.305
347.548	17.049	834.601	624.183
348.562	17.059	833.944	623.672
349.577	16.958	833.432	622.864
350.592	16.897	833.016	622.273
351.606	17.009	832.494	622.241
352.621	16.949	831.415	621.156
353.635	17.006	831.180	621.135
354.650	16.927	830.485	620.273
355.665	16.942	829.955	619.877
356.679	17.121	829.252	619.949
357.694	16.962	828.739	618.932
358.708	17.035	827.975	618.572
359.723	17.029	827.716	618.303
360.738	16.949	826.860	617.317
361.752	17.107	825.939	617.150
362.767	17.124	825.658	616.947
363.781	17.072	825.196	616.356
364.796	17.302	824.418	616.557
365.810	17.320	824.222	616.422
366.825	17.207	823.886	615.705
367.840	17.232	823.530	615.476
368.854	17.231	822.752	614.836
369.869	17.283	822.544	614.814
370.883	17.358	821.934	614.573
371.898	17.330	821.919	614.409
372.913	17.407	821.388	614.232
373.927	17.516	820.757	614.100
374.942	17.458	820.245	613.455
375.956	17.476	819.884	613.197
376.971	17.490	819.430	612.851
377.986	17.570	818.847	612.651
379.000	17.534	818.405	612.136
380.015	17.632	817.903	612.057
381.029	17.458	817.615	611.162
382.044	17.762	816.581	611.425
383.059	17.585	816.317	610.540
384.073	17.619	816.004	610.373
385.088	17.618	815.252	609.754
386.102	17.555	814.645	609.022
387.117	17.554	814.297	608.703
388.132	17.616	813.546	608.307
389.146	17.577	813.077	607.765
390.161	17.758	812.409	607.857
391.175	17.730	811.807	607.252
392.190	17.780	811.526	607.168
393.205	17.707	810.883	606.374
394.219	17.415	811.121	605.457
395.234	17.636	810.625	605.820
396.248	17.679	810.366	605.725
397.263	17.648	809.503	604.918
398.278	17.679	808.948	604.558
399.292	17.678	808.744	604.350
400.307	17.798	807.940	604.120
401.321	17.731	807.766	603.698
402.336	17.693	807.651	603.426
403.350	17.690	807.178	603.009
404.365	17.844	806.336	602.870
405.380	17.917	805.905	602.753
406.394	17.807	805.446	601.965
407.409	17.912	805.157	602.067
408.423	18.013	804.760	602.075
409.438	17.994	804.394	601.679
410.453	17.997	803.691	601.110
411.467	18.033	803.508	601.047
412.482	17.993	803.355	600.740
413.496	18.242	802.685	601.061
414.511	18.036	802.331	600.017
415.526	18.071	802.125	599.933
416.540	18.205	801.440	599.840
417.555	18.163	800.776	599.141
418.569	18.105	800.793	598.900
419.584	18.143	799.889	598.304
420.599	18.341	799.336	598.529
421.613	116.088	1297.843	1490.046
422.628	100.200	1370.425	1490.160
