DTS Sentinel unit serial number:	SN413079Multiplexer serial number:	ORYXHardware model number:	OX4-SRSoftware version number:	ORYX F/W v4.00 Oryx Data Collector v3.7.2.0data status	okinstallation	princeton_trtdifferential loss correction	single-endedforward channel	channel 1reverse channel	N/Adate	2019/09/19time	00:38:35forward acquisition time	60.00reverse acquisition time	0.00gamma	496.2192k internal	0.2343k external	0.2343temperature offset calibration	1.0022default loss term (dB/km)	0.3790temperature slope calibration	1.0000multiplexer offset coefficient	1.0000multiplexer slope coefficient	1.0000fibre end	0.00T internal ref (°C)	22.31T ext. ref 1 (°C)	0.74T ext. ref 2 (°C)	15.39length (m)	temperature (°C)	Stokes	anti-Stokes-747.200	-200.000	0.014	0.134
-746.185	-200.000	0.040	0.301
-745.171	-200.000	0.063	0.650
-744.156	-96.953	-0.372	-0.098
-743.142	-62.046	-0.076	-0.032
-742.127	-19.925	-0.161	0.100
-741.112	-200.000	-0.026	0.277
-740.098	-154.781	-0.283	0.019
-739.083	85.842	-0.096	-0.106
-738.069	49.748	-0.063	0.059
-737.054	-149.901	-0.158	-0.012
-736.039	30.505	-0.097	0.083
-735.025	19.954	0.430	0.347
-734.010	-116.101	-0.476	-0.089
-732.996	436.367	-0.112	0.244
-731.981	-62.262	-0.184	-0.077
-730.966	-83.494	0.252	0.081
-729.952	776.665	0.085	-0.231
-728.937	-200.000	0.022	0.156
-727.923	-200.000	0.046	0.306
-726.908	-200.000	0.009	-0.126
-725.894	-59.185	-0.144	0.062
-724.879	591.317	0.047	0.116
-723.864	216.700	-0.150	0.238
-722.850	151.811	-0.266	0.363
-721.835	-200.000	0.002	0.071
-720.821	-200.000	-0.034	-0.208
-719.806	642.128	-0.152	0.388
-718.791	-125.672	0.280	0.042
-717.777	70.759	-0.097	0.100
-716.762	26.642	0.044	-0.037
-715.748	-200.000	0.015	0.140
-714.733	-73.500	0.101	-0.037
-713.718	-138.677	0.228	0.025
-712.704	39.420	0.103	-0.092
-711.689	23.434	-0.063	0.052
-710.675	-159.234	-0.150	0.008
-709.660	-93.432	-0.252	-0.070
-708.645	-98.648	-0.279	-0.071
-707.631	-200.000	0.021	0.163
-706.616	-200.000	-0.022	0.148
-705.602	496.148	0.054	0.124
-704.587	-200.000	-0.012	-0.142
-703.572	-91.891	-0.294	-0.083
-702.558	746.651	-0.073	-0.196
-701.543	-39.285	0.196	0.103
-700.529	115.434	0.034	-0.042
-699.514	174.225	0.166	0.239
-698.499	-93.188	-0.402	-0.112
-697.485	50.923	-0.212	-0.200
-696.470	440.274	0.075	-0.163
-695.456	-105.101	0.090	0.021
-694.441	-71.375	-0.296	0.111
-693.426	-44.763	-0.144	0.072
-692.412	160.192	-0.112	0.156
-691.397	-131.610	-0.229	-0.030
-690.383	54.876	0.076	-0.073
-689.368	73.513	-0.051	-0.053
-688.354	800.000	0.016	-0.047
-687.339	-117.827	0.304	-0.055
-686.324	-200.000	-0.017	-0.203
-685.310	2.030	-0.055	0.040
-684.295	87.527	0.237	0.262
-683.281	-53.954	0.129	-0.059
-682.266	-116.462	0.306	-0.056
-681.251	-120.907	0.053	0.009
-680.237	-50.076	0.318	-0.151
-679.222	172.374	-0.148	-0.212
-678.208	120.471	-0.128	0.159
-677.193	-100.371	-0.162	0.040
-676.178	-191.437	-0.106	-0.001
-675.164	-43.616	-0.416	-0.209
-674.149	130.713	0.182	0.234
-673.135	300.779	0.063	-0.117
-672.120	26.149	0.185	0.154
-671.105	-92.998	0.168	0.047
-670.091	-200.000	0.052	-0.287
-669.076	380.918	0.052	-0.106
-668.062	333.791	0.090	0.174
-667.047	-98.157	-0.163	-0.042
-666.032	-106.371	-0.080	0.018
-665.018	655.751	-0.205	0.526
-664.003	-103.339	-0.522	0.123
-662.989	-200.000	-0.001	0.096
-661.974	48.192	-0.105	0.098
-660.959	691.345	-0.111	-0.289
-659.945	-73.026	-0.108	-0.039
-658.930	7.576	-0.141	-0.105
-657.916	-119.793	-0.034	-0.006
-656.901	112.722	0.152	-0.184
-655.886	-86.863	0.046	0.014
-654.872	-11.604	0.120	-0.078
-653.857	690.988	-0.169	-0.442
-652.843	-200.000	0.004	0.082
-651.828	134.447	-0.085	-0.110
-650.814	-23.102	-0.198	0.119
-649.799	40.151	0.333	-0.299
-648.784	-63.533	-0.354	-0.145
-647.770	-57.808	-0.154	0.067
-646.755	-35.296	-0.381	-0.207
-645.741	-102.939	-0.336	-0.080
-644.726	45.132	-0.140	-0.129
-643.711	102.752	-0.342	-0.399
-642.697	-200.000	-0.013	-0.362
-641.682	37.727	0.096	-0.085
-640.668	50.314	-0.142	-0.134
-639.653	-200.000	-0.038	0.227
-638.638	800.000	0.122	0.356
-637.624	30.558	-0.232	0.198
-636.609	800.000	-0.085	0.238
-635.595	627.414	-0.162	-0.408
-634.580	31.547	-0.251	-0.215
-633.565	-53.494	0.328	-0.150
-632.551	-25.475	0.245	-0.144
-631.536	-77.911	0.319	-0.110
-630.522	134.219	0.143	-0.185
-629.507	-120.442	0.026	-0.004
-628.492	-200.000	-0.055	-0.360
-627.478	483.153	-0.016	0.037
-626.463	591.801	-0.111	-0.273
-625.449	-63.774	-0.250	-0.102
-624.434	34.145	0.151	-0.131
-623.419	-34.645	-0.183	-0.100
-622.405	-135.127	0.324	-0.039
-621.390	332.111	-0.045	-0.087
-620.376	-200.000	0.097	-0.461
-619.361	-144.139	0.403	0.038
-618.346	593.579	-0.097	-0.239
-617.332	-81.786	-0.111	0.036
-616.317	183.324	-0.138	0.203
-615.303	-147.331	-0.191	0.016
-614.288	-114.411	0.283	0.054
-613.273	104.236	0.128	-0.150
-612.259	16.870	0.262	0.207
-611.244	-200.000	-0.013	-0.245
-610.230	28.325	-0.155	-0.130
-609.215	-71.354	-0.177	0.066
-608.201	183.649	0.266	0.391
-607.186	-103.235	-0.498	0.117
-606.171	-57.966	0.168	-0.073
-605.157	180.693	0.051	0.075
-604.142	289.155	0.200	0.361
-603.128	140.158	0.192	-0.252
-602.113	-200.000	-0.028	-0.235
-601.098	800.000	0.048	-0.137
-600.084	-76.213	-0.379	-0.133
-599.069	276.966	-0.186	0.329
-598.055	-65.468	-0.455	-0.182
-597.040	-100.440	0.452	0.112
-596.025	0.883	-0.076	-0.054
-595.011	142.953	0.048	0.063
-593.996	800.000	-0.028	-0.102
-592.982	800.000	0.055	-0.187
-591.967	-146.485	0.302	0.026
-590.952	800.000	0.044	-0.157
-589.938	-108.024	-0.204	-0.044
-588.923	-200.000	0.055	0.322
-587.909	-55.400	0.202	-0.090
-586.894	-200.000	0.010	-0.228
-585.879	786.701	-0.062	-0.170
-584.865	-97.898	-0.190	0.049
-583.850	297.779	0.204	-0.373
-582.836	-161.780	-0.397	-0.020
-581.821	-200.000	0.186	0.000
-580.806	800.000	-0.024	-0.096
-579.792	178.299	0.179	-0.260
-578.777	-117.197	-0.195	-0.035
-577.763	684.671	-0.082	-0.213
-576.748	-4.029	-0.147	-0.101
-575.733	503.486	-0.070	0.160
-574.719	79.760	0.193	0.206
-573.704	-200.000	-0.001	-0.092
-572.690	235.198	-0.177	-0.291
-571.675	-55.361	0.073	0.033
-570.661	-200.000	-0.024	0.111
-569.646	-87.069	-0.244	0.074
-568.631	394.316	0.173	-0.359
-567.617	187.255	-0.305	0.452
-566.602	-200.000	-0.005	0.348
-565.588	-125.192	-0.346	-0.053
-564.573	-172.259	0.374	-0.012
-563.558	-113.344	-0.150	-0.029
-562.544	800.000	0.060	0.259
-561.529	5.528	-0.187	-0.138
-560.515	463.920	-0.107	0.237
-559.500	800.000	-0.059	-0.177
-558.485	118.290	-0.175	0.214
-557.471	9.959	0.177	0.134
-556.456	363.221	-0.087	0.175
-555.442	12.730	0.286	0.219
-554.427	9.901	0.014	0.011
-553.412	-114.251	-0.192	0.037
-552.398	-83.245	0.330	0.105
-551.383	-77.113	-0.384	0.133
-550.369	-39.448	0.076	0.040
-549.354	15.380	-0.074	0.058
-548.339	-200.000	-0.033	-0.296
-547.325	-50.415	0.230	-0.108
-546.310	-10.440	-0.157	-0.104
-545.296	-4.335	-0.176	0.121
-544.281	215.595	0.028	0.044
-543.266	172.657	0.051	0.072
-542.252	-200.000	0.020	0.097
-541.237	-74.782	-0.320	-0.114
-540.223	-200.000	-0.002	-0.079
-539.208	617.735	-0.100	-0.250
-538.193	209.319	-0.163	-0.253
-537.179	-7.825	-0.496	-0.333
-536.164	-200.000	-0.015	0.128
-535.150	-200.000	-0.008	0.048
-534.135	-200.000	-0.024	0.104
-533.121	339.159	0.149	-0.287
-532.106	0.874	0.142	-0.101
-531.091	800.000	-0.011	-0.039
-530.077	-71.869	-0.183	0.068
-529.062	-68.150	-0.310	0.120
-528.048	-145.942	0.260	0.023
-527.033	-37.571	-0.064	0.034
-526.018	800.000	-0.091	-0.310
-525.004	324.072	-0.102	0.193
-523.989	800.000	-0.101	0.351
-522.975	164.122	-0.170	0.238
-521.960	-200.000	0.023	0.293
-520.945	-60.155	-0.214	-0.091
-519.931	-89.430	-0.480	0.140
-518.916	-200.000	-0.045	-0.468
-517.902	44.778	0.172	0.157
-516.887	-153.758	-0.031	0.002
-515.872	-111.077	0.217	0.044
-514.858	33.897	-0.135	0.117
-513.843	-134.202	-0.383	0.047
-512.829	491.164	-0.062	-0.140
-511.814	145.651	0.274	-0.364
-510.799	7.856	-0.020	0.015
-509.785	-62.943	-0.225	0.092
-508.770	-25.215	-0.186	0.109
-507.756	231.062	0.081	-0.131
-506.741	-200.000	-0.018	0.316
-505.726	19.587	-0.118	0.094
-504.712	-44.188	0.176	0.087
-503.697	800.000	0.080	-0.264
-502.683	88.754	-0.083	-0.092
-501.668	-200.000	0.028	-0.322
-500.653	-200.000	-0.010	-0.194
-499.639	-200.000	0.083	-0.386
-498.624	25.180	0.037	-0.031
-497.610	-200.000	-0.029	0.272
-496.595	19.558	0.313	0.250
-495.581	800.000	0.048	-0.149
-494.566	14.530	-0.120	-0.093
-493.551	800.000	-0.053	-0.184
-492.537	-98.766	0.312	-0.079
-491.522	-116.181	0.165	-0.030
-490.508	88.499	0.057	-0.063
-489.493	75.944	-0.210	-0.220
-488.478	64.244	-0.140	0.140
-487.464	290.657	0.132	0.238
-486.449	-79.184	-0.237	-0.080
-485.435	212.671	-0.071	0.111
-484.420	-37.604	0.270	-0.142
-483.405	65.270	0.196	-0.196
-482.391	800.000	-0.117	-0.381
-481.376	-56.666	0.127	0.056
-480.362	-99.884	-0.136	0.034
-479.347	634.999	0.082	0.205
-478.332	238.842	-0.148	-0.244
-477.318	30.979	-0.179	0.152
-476.303	-200.000	-0.039	-0.202
-475.289	383.085	-0.037	-0.076
-474.274	-92.068	0.101	-0.028
-473.259	-148.608	0.079	0.006
-472.245	800.000	-0.133	-0.372
-471.230	-79.546	-0.277	-0.093
-470.216	293.894	-0.187	0.338
-469.201	-147.050	-0.235	-0.020
-468.186	-200.000	-0.048	-0.424
-467.172	-200.000	-0.001	-0.179
-466.157	103.586	0.090	-0.105
-465.143	-174.864	0.415	0.012
-464.128	-62.175	0.350	-0.144
-463.113	-200.000	0.007	-0.381
-462.099	-200.000	0.036	0.222
-461.084	38.423	0.101	-0.089
-460.070	-168.213	0.321	-0.012
-459.055	236.686	-0.093	-0.153
-458.040	15.280	-0.109	-0.085
-457.026	109.459	0.134	-0.159
-456.011	200.155	-0.149	0.227
-454.997	-200.000	0.022	0.262
-453.982	234.691	0.123	-0.201
-452.968	800.000	0.064	0.188
-451.953	-132.916	-0.315	-0.040
-450.938	800.000	0.035	0.136
-449.924	114.790	0.146	0.176
-448.909	-200.000	-0.020	0.253
-447.895	800.000	0.029	0.126
-446.880	-106.976	0.400	0.088
-445.865	46.867	0.084	-0.077
-444.851	156.177	-0.064	-0.088
-443.836	196.847	0.119	-0.180
-442.822	800.000	0.065	-0.185
-441.807	187.931	0.132	-0.196
-440.792	-92.510	-0.045	-0.013
-439.778	168.982	0.082	0.116
-438.763	-140.321	0.411	-0.043
-437.749	-115.041	0.226	-0.042
-436.734	176.079	-0.035	0.050
-435.719	401.334	-0.108	0.224
-434.705	135.091	-0.261	-0.336
-433.690	-131.065	0.063	0.008
-432.676	-200.000	0.059	-0.359
-431.661	-99.285	0.076	-0.019
-430.646	517.338	0.035	-0.080
-429.632	189.344	-0.219	-0.325
-428.617	-127.156	0.259	0.038
-427.603	113.474	0.054	0.065
-426.588	109.801	-0.139	-0.165
-425.573	-155.020	-0.197	0.013
-424.559	161.522	-0.145	0.201
-423.544	800.000	-0.045	-0.133
-422.530	33.812	0.099	-0.085
-421.515	47.883	0.188	0.174
-420.500	-110.188	-0.327	-0.067
-419.486	239.259	0.091	0.150
-418.471	77.657	-0.211	0.222
-417.457	587.017	-0.055	0.134
-416.442	26.801	0.128	0.106
-415.428	7.781	-0.053	0.039
-414.413	32.978	-0.079	0.067
-413.398	96.092	-0.203	0.229
-412.384	-172.087	-0.297	0.009
-411.369	0.718	0.335	-0.237
-410.355	96.353	0.241	-0.273
-409.340	23.793	-0.089	0.072
-408.325	-53.342	0.388	-0.176
-407.311	106.166	-0.188	-0.220
-406.296	386.760	-0.055	0.112
-405.282	18.054	0.218	-0.172
-404.267	406.872	0.071	-0.149
-403.252	402.630	-0.188	0.391
-402.238	-200.000	-0.006	-0.063
-401.223	267.193	-0.121	0.210
-400.209	800.000	0.093	-0.371
-399.194	187.895	0.100	-0.148
-398.179	-2.315	0.167	-0.116
-397.165	218.679	0.128	-0.202
-396.150	0.628	0.152	0.107
-395.136	-41.154	0.194	0.099
-394.121	109.829	0.131	0.155
-393.106	660.439	0.106	0.269
-392.092	-107.525	-0.363	0.079
-391.077	228.746	0.239	0.384
-390.063	177.946	-0.227	0.328
-389.048	55.764	-0.060	-0.057
-388.033	34.170	0.228	0.196
-387.019	-200.000	0.028	0.136
-386.004	-126.919	-0.038	-0.006
-384.990	800.000	-0.012	-0.047
-383.975	-10.889	0.102	-0.067
-382.960	32.075	-0.143	0.121
-381.946	-75.781	0.202	0.071
-380.931	-200.000	-0.003	0.255
-379.917	800.000	0.076	0.227
-378.902	-200.000	-0.053	-0.247
-377.888	-188.742	-0.145	0.002
-376.873	39.928	-0.278	-0.246
-375.858	458.921	0.154	-0.338
-374.844	33.174	-0.044	-0.037
-373.829	-45.421	0.386	0.189
-372.815	-47.220	0.189	0.091
-371.800	-97.551	0.021	-0.005
-370.785	-146.687	-0.454	0.039
-369.771	-149.334	0.368	0.029
-368.756	-180.838	0.325	-0.007
-367.742	557.411	0.108	-0.257
-366.727	22.026	-0.092	-0.074
-365.712	104.608	0.175	-0.203
-364.698	-99.446	0.198	-0.049
-363.683	81.164	0.108	0.115
-362.669	345.850	-0.168	0.326
-361.654	67.761	0.378	-0.382
-360.639	32.106	-0.163	-0.139
-359.625	14.385	-0.119	-0.092
-358.610	448.189	-0.045	-0.099
-357.596	-200.000	-0.019	-0.094
-356.581	-139.865	0.363	0.038
-355.566	-200.000	0.030	0.145
-354.552	238.025	0.065	-0.107
-353.537	20.400	0.116	-0.093
-352.523	227.512	-0.159	-0.256
-351.508	440.427	0.074	0.160
-350.493	800.000	0.021	0.062
-349.479	64.347	-0.098	-0.098
-348.464	-40.176	0.252	0.129
-347.450	-200.000	-0.008	0.153
-346.435	-200.000	-0.005	-0.318
-345.420	69.878	-0.092	-0.094
-344.406	247.052	0.168	0.279
-343.391	-108.072	0.203	0.043
-342.377	-200.000	0.040	-0.345
-341.362	-35.457	0.057	-0.030
-340.348	-23.656	0.329	0.195
-339.333	-200.000	-0.037	0.212
-338.318	-142.540	-0.178	-0.017
-337.304	517.093	-0.045	0.104
-336.289	800.000	0.019	-0.065
-335.275	-200.000	-0.007	0.305
-334.260	146.280	0.112	-0.149
-333.245	127.448	0.010	0.013
-332.231	-200.000	0.012	0.142
-331.216	800.000	0.030	0.129
-330.202	45.246	0.262	-0.238
-329.187	791.789	-0.128	0.346
-328.172	-200.000	-0.006	-0.203
-327.158	22.204	-0.195	0.157
-326.143	-83.962	-0.264	0.083
-325.129	-101.690	-0.254	-0.061
-324.114	-200.000	0.181	0.001
-323.099	800.000	0.046	-0.147
-322.085	160.092	-0.009	-0.012
-321.070	800.000	0.048	-0.133
-320.056	-164.582	-0.553	0.025
-319.041	762.179	0.009	-0.024
-318.026	-96.714	-0.214	0.055
-317.012	223.330	0.106	0.169
-315.997	101.669	0.241	-0.276
-314.983	-200.000	-0.044	0.191
-313.968	-200.000	0.011	-0.366
-312.953	-91.179	0.302	0.085
-311.939	-153.698	0.474	0.032
-310.924	-194.224	0.059	-0.000
-309.910	560.144	-0.175	0.417
-308.895	-200.000	0.050	-0.220
-307.880	800.000	0.006	0.026
-306.866	-200.000	0.004	0.324
-305.851	-55.881	-0.062	-0.027
-304.837	29.201	0.301	-0.251
-303.822	-55.510	0.440	0.194
-302.807	138.723	-0.057	0.074
-301.793	400.759	0.140	0.290
-300.778	51.155	0.095	0.089
-299.764	-27.412	0.233	0.134
-298.749	-6.484	-0.185	0.124
-297.735	366.615	0.140	-0.277
-296.720	15.007	0.083	0.064
-295.705	-66.312	0.153	0.060
-294.691	220.865	0.027	0.043
-293.676	-75.473	0.122	0.043
-292.662	88.253	-0.126	0.138
-291.647	800.000	0.107	0.362
-290.632	767.367	0.118	0.317
-289.618	13.560	0.031	-0.024
-288.603	76.173	-0.130	0.135
-287.589	153.352	0.257	0.347
-286.574	-127.969	-0.315	-0.044
-285.559	-63.108	0.313	0.127
-284.545	-200.000	-0.188	-0.000
-283.530	-126.180	0.166	0.024
-282.516	18.050	-0.106	0.083
-281.501	-91.037	-0.192	-0.054
-280.486	-85.760	-0.224	-0.068
-279.472	-200.000	-0.061	0.573
-278.457	143.419	0.225	-0.295
-277.443	-141.540	0.228	0.023
-276.428	39.909	0.150	-0.132
-275.413	-106.309	-0.250	0.055
-274.399	-200.000	-0.010	0.044
-273.384	548.712	-0.142	0.334
-272.370	-120.764	-0.199	-0.033
-271.355	800.000	-0.043	0.174
-270.340	-200.000	-0.008	-0.202
-269.326	-200.000	-0.024	0.160
-268.311	-200.000	0.011	0.260
-267.297	800.000	-0.069	-0.271
-266.282	27.057	0.235	0.194
-265.267	-200.000	0.024	0.144
-264.253	116.908	0.117	0.141
-263.238	124.411	0.113	0.140
-262.224	-147.953	-0.109	-0.009
-261.209	560.937	-0.073	0.173
-260.195	-200.000	0.009	0.202
-259.180	800.000	0.024	-0.091
-258.165	-9.822	0.089	0.059
-257.151	129.905	-0.140	0.175
-256.136	-45.879	0.096	0.047
-255.122	781.530	-0.105	0.282
-254.107	235.331	-0.043	0.069
-253.092	175.946	-0.182	0.259
-252.078	800.000	-0.028	-0.088
-251.063	-92.012	-0.124	0.034
-250.049	-177.152	0.169	0.004
-249.034	-89.066	0.165	-0.048
-248.019	-118.968	0.151	0.026
-247.005	-122.777	-0.106	0.017
-245.990	-200.000	0.030	0.199
-244.976	-200.000	0.043	0.206
-243.961	3.968	0.254	0.182
-242.946	104.693	0.073	0.085
-241.932	99.573	0.215	0.245
-240.917	13.122	0.353	0.269
-239.903	-96.399	-0.362	-0.094
-238.888	-125.984	0.185	-0.027
-237.873	-197.305	0.364	-0.002
-236.859	-18.812	-0.165	-0.101
-235.844	51.828	-0.106	0.099
-234.830	45.764	0.213	0.193
-233.815	178.086	-0.029	0.042
-232.800	755.671	0.063	0.168
-231.786	-145.666	-0.062	0.005
-230.771	111.462	0.216	0.255
-229.757	800.000	-0.034	-0.137
-228.742	-91.522	-0.114	-0.032
-227.727	-29.147	0.214	-0.120
-226.713	87.101	-0.068	-0.074
-225.698	-150.915	-0.398	0.030
-224.684	-70.125	-0.047	-0.017
-223.669	175.085	0.195	0.278
-222.655	-35.272	0.160	-0.085
-221.640	167.882	-0.094	-0.132
-220.625	-114.513	0.309	-0.058
-219.611	-53.962	-0.157	0.070
-218.596	-74.574	0.213	0.075
-217.582	338.973	-0.109	0.209
-216.567	-14.873	0.091	-0.057
-215.552	44.453	0.177	-0.159
-214.538	-192.007	-0.206	0.002
-213.523	81.147	0.251	0.265
-212.509	-101.571	0.220	0.052
-211.494	30.502	0.054	-0.045
-210.479	114.645	-0.223	0.267
-209.465	-70.689	-0.097	-0.036
-208.450	50.546	0.123	0.114
-207.436	-105.535	0.165	0.037
-206.421	105.134	0.212	-0.245
-205.406	220.808	0.032	0.050
-204.392	-130.862	-0.173	0.023
-203.377	166.895	-0.112	0.156
-202.363	-88.640	-0.057	0.017
-201.348	309.312	-0.139	0.254
-200.333	-4.825	-0.463	-0.313
-199.319	-64.065	-0.227	-0.091
-198.304	301.337	-0.221	0.400
-197.290	-15.282	-0.102	-0.064
-196.275	-200.000	-0.018	-0.148
-195.260	-185.484	-0.475	0.007
-194.246	-200.000	-0.021	0.258
-193.231	-20.836	-0.472	0.284
-192.217	-200.000	0.001	-0.018
-191.202	167.393	-0.139	0.193
-190.187	83.174	0.185	-0.197
-189.173	55.298	0.369	-0.350
-188.158	343.365	0.066	0.127
-187.144	-93.895	0.077	-0.021
-186.129	86.444	-0.037	-0.040
-185.114	800.000	-0.063	0.246
-184.100	-131.693	0.157	0.020
-183.085	-200.000	-0.000	0.134
-182.071	-66.813	0.336	0.130
-181.056	-15.640	-0.150	0.094
-180.042	-176.200	0.329	-0.008
-179.027	200.230	-0.101	-0.152
-178.012	-77.922	-0.103	-0.035
-176.998	800.000	-0.053	-0.198
-175.983	75.108	0.209	0.216
-174.969	95.536	-0.176	-0.196
-173.954	252.990	0.033	-0.056
-172.939	-200.000	0.035	0.303
-171.925	431.503	0.034	-0.072
-170.910	3.278	0.061	-0.043
-169.896	-88.522	-0.412	-0.120
-168.881	104.705	0.052	-0.060
-167.866	-31.227	-0.112	-0.062
-166.852	-200.000	-0.032	-0.302
-165.837	-64.281	-0.428	0.171
-164.823	-43.164	-0.204	-0.101
-163.808	18.544	-0.079	-0.062
-162.793	159.826	0.128	-0.175
-161.779	-13.667	-0.098	-0.062
-160.764	169.197	-0.203	0.284
-159.750	-131.562	0.379	0.049
-158.735	-200.000	0.052	-0.282
-157.720	181.987	-0.049	-0.070
-156.706	-88.135	-0.035	-0.010
-155.691	256.715	-0.220	0.369
-154.677	-94.953	-0.219	-0.058
-153.662	203.836	-0.228	-0.345
-152.647	-10.869	-0.364	-0.235
-151.633	27.044	0.094	0.077
-150.618	-178.784	-0.165	0.004
-149.604	13.326	0.201	0.152
-148.589	190.078	-0.197	0.290
-147.574	800.000	0.114	0.376
-146.560	36.389	0.158	-0.136
-145.545	177.574	0.263	-0.374
-144.531	-100.163	0.251	0.061
-143.516	-38.409	-0.379	-0.196
-142.502	-140.118	0.236	-0.024
-141.487	800.000	-0.090	-0.243
-140.472	-113.677	-0.109	0.021
-139.458	-72.016	0.144	-0.052
-138.443	-152.081	0.317	0.023
-137.429	800.000	-0.047	0.132
-136.414	800.000	0.046	-0.170
-135.399	-142.952	0.053	-0.005
-134.385	800.000	-0.032	-0.089
-133.370	97.647	-0.068	-0.077
-132.356	359.567	0.041	-0.079
-131.341	396.474	0.108	0.221
-130.326	-174.290	-0.288	0.008
-129.312	-114.478	0.240	-0.045
-128.297	767.831	-0.077	-0.204
-127.283	-155.189	0.250	0.016
-126.268	-200.000	0.054	0.329
-125.253	-200.000	-0.012	-0.060
-124.239	384.549	-0.078	0.157
-123.224	38.483	-0.157	0.137
-122.210	544.268	0.067	-0.156
-121.195	-100.645	-0.172	-0.041
-120.180	-28.380	-0.238	-0.134
-119.166	-20.990	0.245	-0.147
-118.151	-200.000	-0.040	0.254
-117.137	208.643	-0.115	0.176
-116.122	712.418	0.042	-0.108
-115.107	-152.228	-0.009	0.001
-114.093	57.439	0.175	-0.167
-113.078	-127.421	0.195	0.028
-112.064	-170.556	0.227	0.008
-111.049	196.484	-0.158	0.236
-110.034	212.930	-0.173	-0.267
-109.020	-33.401	-0.119	0.064
-108.005	225.354	0.141	0.223
-106.991	486.289	0.120	-0.267
-105.976	-191.601	0.180	0.002
-104.962	-144.885	0.132	0.012
-103.947	-200.000	-0.051	-0.279
-102.932	800.000	0.083	0.241
-101.918	597.976	-0.106	-0.257
-100.903	213.787	0.119	0.183
-99.889	14.988	0.143	0.110
-98.874	10.679	0.175	0.130
-97.859	160.068	-0.190	0.259
-96.845	162.215	0.154	-0.210
-95.830	202.439	-0.131	-0.197
-94.816	800.000	-0.044	-0.185
-93.801	-200.000	0.025	0.139
-92.786	278.404	-0.110	-0.191
-91.772	-200.000	0.012	-0.140
-90.757	-200.000	0.022	0.537
-89.743	-70.080	-0.351	0.130
-88.728	40.969	-0.135	0.119
-87.713	368.273	-0.037	0.073
-86.699	800.000	0.049	-0.202
-85.684	180.502	-0.215	0.308
-84.670	-65.328	0.490	-0.192
-83.655	53.784	-0.113	-0.106
-82.640	-137.245	0.452	-0.050
-81.626	-11.058	-0.102	0.065
-80.611	18.052	-0.065	0.050
-79.597	800.000	-0.033	0.103
-78.582	-46.471	-0.104	0.050
-77.567	209.290	-0.121	-0.185
-76.553	-200.000	0.013	-0.203
-75.538	-200.000	-0.022	0.168
-74.524	-20.688	0.319	0.191
-73.509	-200.000	-0.061	-0.293
-72.494	-200.000	-0.011	0.077
-71.480	800.000	0.036	0.126
-70.465	3.121	0.260	0.184
-69.451	22.275	-0.127	-0.101
-68.436	57.508	-0.125	0.119
-67.422	-71.079	0.430	0.158
-66.407	-31.318	0.013	-0.007
-65.392	-200.000	-0.030	0.194
-64.378	-71.890	0.176	-0.064
-63.363	-129.182	-0.344	0.047
-62.349	-200.000	-0.056	-0.275
-61.334	48.585	-1.054	-0.963
-60.319	31.084	0.751	0.628
-59.305	516.231	-0.497	-1.133
-58.290	383.177	0.779	1.562
-57.276	187.353	0.851	1.237
-56.261	-200.000	132.592	702.603
-55.246	373.420	1657.102	3285.060
-54.232	134.466	2799.501	3538.887
-53.217	94.374	2164.957	2396.311
-52.203	33.920	1592.912	1351.538
-51.188	25.592	1338.831	1085.879
-50.173	23.243	1301.039	1041.385
-49.159	51.688	1374.021	1273.404
-48.144	47.892	1384.185	1259.809
-47.130	25.840	1330.472	1080.411
-46.115	22.537	1311.392	1045.318
-45.100	22.332	1305.799	1039.603
-44.086	22.195	1303.550	1036.966
-43.071	22.141	1301.320	1034.833
-42.057	22.112	1299.570	1033.227
-41.042	22.192	1297.773	1032.233
-40.027	22.080	1296.587	1030.588
-39.013	22.279	1293.815	1029.511
-37.998	22.198	1292.580	1028.010
-36.984	22.210	1291.186	1026.933
-35.969	22.319	1288.679	1025.534
-34.954	22.369	1287.240	1024.636
-33.940	22.301	1286.199	1023.376
-32.925	22.370	1284.559	1022.429
-31.911	22.290	1283.535	1021.109
-30.896	22.424	1281.506	1020.228
-29.881	22.395	1280.860	1019.510
-28.867	22.470	1279.350	1018.701
-27.852	22.374	1278.066	1017.081
-26.838	22.358	1277.081	1016.168
-25.823	22.455	1275.209	1015.195
-24.809	22.251	1274.452	1013.377
-23.794	22.364	1272.949	1012.789
-22.779	22.466	1271.703	1012.347
-21.765	22.443	1270.183	1010.962
-20.750	22.384	1269.204	1009.806
-19.736	22.330	1267.305	1007.949
-18.721	22.290	1266.280	1006.860
-17.706	22.201	1265.241	1005.485
-16.692	22.266	1264.246	1005.030
-15.677	22.286	1263.206	1004.274
-14.663	22.238	1261.881	1002.907
-13.648	22.269	1261.005	1002.349
-12.633	22.284	1260.084	1001.662
-11.619	22.286	1258.951	1000.734
-10.604	22.199	1258.843	1000.110
-9.590	22.276	1257.564	999.493
-8.575	22.320	1256.298	998.701
-7.560	22.310	1255.647	998.087
-6.546	22.369	1254.773	997.688
-5.531	22.193	1254.413	996.362
-4.517	22.235	1253.137	995.544
-3.502	22.317	1252.403	995.386
-2.487	22.208	1251.584	994.081
-1.473	22.203	1247.413	990.703
-0.458	20.401	1231.981	968.367
0.556	15.808	1216.294	930.013
1.571	12.165	1224.676	916.031
2.586	11.479	1240.036	923.560
3.600	11.403	1227.783	913.926
4.615	8.574	1157.057	846.258
5.629	3.266	1087.926	769.161
6.644	0.935	1071.755	746.182
7.659	0.645	1070.017	743.478
8.673	0.716	1069.158	743.167
9.688	0.645	1067.951	741.911
10.702	0.884	1065.304	741.181
11.717	4.206	1068.706	759.780
12.731	10.652	1077.453	797.697
13.746	15.774	1084.503	828.119
14.761	17.360	1085.377	836.522
15.775	16.733	1083.571	831.976
16.790	15.709	1081.876	825.577
17.804	15.038	1080.210	820.943
18.819	14.608	1079.068	817.896
19.834	14.392	1078.296	816.179
20.848	14.131	1077.592	814.298
21.863	13.935	1076.615	812.527
22.877	13.698	1076.054	810.875
23.892	13.543	1075.659	809.744
24.907	13.656	1074.675	809.487
25.921	13.729	1073.934	809.212
26.936	13.751	1073.119	808.633
27.950	13.814	1071.586	807.713
28.965	13.866	1070.542	807.109
29.980	13.843	1069.314	805.997
30.994	13.764	1068.414	804.865
32.009	13.961	1067.394	804.982
33.023	13.978	1066.437	804.272
34.038	13.804	1065.778	802.860
35.053	13.916	1064.555	802.408
36.067	13.856	1063.546	801.291
37.082	13.787	1062.893	800.394
38.096	13.918	1062.231	800.456
39.111	13.790	1061.304	799.070
40.126	13.835	1060.211	798.391
41.140	13.690	1059.159	796.833
42.155	13.804	1057.836	796.314
43.169	13.755	1056.724	795.171
44.184	13.729	1055.550	794.093
45.199	13.773	1054.122	793.161
46.213	13.845	1053.355	792.857
47.228	13.738	1052.585	791.696
48.242	13.713	1051.551	790.729
49.257	13.854	1050.479	790.525
50.271	13.789	1049.826	789.652
51.286	13.822	1049.061	789.166
52.301	13.825	1047.733	788.108
53.315	13.761	1046.946	787.146
54.330	13.823	1045.789	786.501
55.344	13.800	1044.565	785.398
56.359	13.801	1043.950	784.874
57.374	13.623	1043.285	783.460
58.388	13.687	1041.897	782.653
59.403	13.629	1041.776	782.219
60.417	13.769	1040.083	781.538
61.432	13.609	1039.872	780.555
62.447	13.636	1039.401	780.262
63.461	13.682	1037.903	779.282
64.476	13.560	1037.409	778.271
65.490	13.724	1036.467	778.264
66.505	13.742	1035.489	777.546
67.520	13.632	1035.177	776.730
68.534	13.722	1034.286	776.413
69.549	13.856	1033.170	776.131
70.563	13.658	1032.749	774.819
71.578	13.623	1032.035	774.054
72.593	13.725	1030.776	773.518
73.607	13.711	1030.451	773.137
74.622	13.713	1030.013	772.751
75.636	13.592	1029.439	771.691
76.651	13.728	1027.755	770.989
77.666	13.644	1028.137	770.818
78.680	13.755	1027.071	770.466
79.695	13.651	1027.001	769.862
80.709	13.596	1026.232	768.964
81.724	13.692	1025.301	768.641
82.739	13.726	1024.448	768.094
83.753	13.789	1023.721	767.773
84.768	13.897	1022.708	767.444
85.782	13.886	1021.970	766.770
86.797	13.792	1020.842	765.423
87.812	13.818	1020.319	765.081
88.826	13.857	1019.276	764.411
89.841	13.730	1018.346	763.065
90.855	13.794	1017.814	762.892
91.870	13.779	1017.051	762.182
92.884	13.998	1015.892	762.249
93.899	13.953	1014.981	761.296
94.914	14.020	1014.148	760.907
95.928	13.856	1013.509	759.612
96.943	13.973	1012.321	759.186
97.957	13.947	1011.920	758.704
98.972	14.082	1010.289	758.027
99.987	14.000	1009.606	757.075
101.001	13.873	1008.957	755.944
102.016	13.921	1007.851	755.264
103.030	13.977	1007.202	754.966
104.045	13.840	1006.882	754.035
105.060	13.984	1005.332	753.461
106.074	14.006	1004.179	752.630
107.089	13.770	1003.470	750.965
108.103	13.757	1002.821	750.353
109.118	13.759	1001.857	749.576
110.133	13.894	1000.525	749.125
111.147	13.875	999.598	748.276
112.162	13.873	999.063	747.799
113.176	13.882	998.127	747.074
114.191	13.967	997.196	746.694
115.206	13.809	997.036	745.800
116.220	13.786	995.894	744.772
117.235	13.864	995.045	744.425
118.249	13.873	993.735	743.416
119.264	13.940	993.077	743.161
120.279	13.889	992.180	742.195
121.293	13.830	991.810	741.588
122.308	13.743	991.150	740.639
123.322	13.774	989.819	739.717
124.337	13.710	988.950	738.720
125.352	13.886	987.082	738.043
126.366	13.805	986.481	737.165
127.381	13.837	985.798	736.731
128.395	13.821	984.682	735.762
129.410	13.966	983.615	735.543
130.424	13.851	982.985	734.496
131.439	13.803	982.615	733.941
132.454	13.849	981.658	733.368
133.468	13.876	980.456	732.525
134.483	13.948	979.584	732.126
135.497	13.947	978.730	731.419
136.512	13.776	978.218	730.218
137.527	13.933	977.256	730.124
138.541	13.911	976.484	729.385
139.556	13.842	975.594	728.353
140.570	13.965	974.919	728.326
141.585	14.033	974.130	727.972
142.600	14.137	973.059	727.560
143.614	14.053	972.200	726.484
144.629	13.892	971.882	725.479
145.643	14.045	970.797	725.276
146.658	13.996	970.033	724.424
147.673	14.108	969.059	724.124
148.687	13.996	968.095	722.851
149.702	14.004	967.681	722.512
150.716	13.844	966.954	721.210
151.731	14.003	965.782	720.964
152.746	14.057	965.448	720.885
153.760	14.074	964.606	720.264
154.775	14.025	964.265	719.736
155.789	14.176	963.481	719.740
156.804	14.187	962.534	719.015
157.819	14.125	961.699	718.058
158.833	14.169	961.152	717.779
159.848	14.185	960.479	717.280
160.862	14.252	959.561	716.821
161.877	14.103	958.693	715.469
162.892	14.102	957.845	714.765
163.906	14.067	956.742	713.728
164.921	14.314	955.924	714.118
165.935	14.226	955.353	713.248
166.950	14.128	954.538	712.158
167.964	14.203	953.327	711.512
168.979	14.270	952.345	711.002
169.994	14.317	951.177	710.268
171.008	14.258	950.846	709.706
172.023	14.322	949.914	709.219
173.037	14.245	949.766	708.721
174.052	14.300	948.454	707.910
175.067	14.318	948.317	707.825
176.081	14.262	947.842	707.168
177.096	14.282	947.089	706.631
178.110	14.240	946.458	705.915
179.125	14.278	945.666	705.424
180.140	14.387	945.442	705.656
181.154	14.392	945.016	705.297
182.169	14.285	944.727	704.566
183.183	14.382	943.448	703.963
184.198	14.402	942.967	703.625
185.213	14.522	941.639	703.076
186.227	14.498	941.319	702.675
187.242	14.631	940.575	702.618
188.256	14.374	940.329	701.289
189.271	14.542	939.240	701.123
190.286	14.440	938.571	700.131
191.300	14.170	938.126	698.604
192.315	14.282	937.317	698.409
193.329	14.452	936.608	698.532
194.344	14.517	935.975	698.271
195.359	14.345	935.589	697.200
196.373	14.488	934.722	697.092
197.388	14.473	934.542	696.833
198.402	14.625	933.922	696.944
199.417	14.624	933.389	696.481
200.432	14.623	932.775	695.955
201.446	14.669	931.899	695.432
202.461	14.666	931.580	695.119
203.475	14.703	931.422	695.093
204.490	14.715	930.162	694.143
205.504	14.655	929.561	693.383
206.519	14.747	929.059	693.327
207.534	14.664	928.227	692.302
208.548	14.649	927.507	691.641
209.563	14.746	926.816	691.468
210.577	14.772	926.047	690.941
211.592	14.917	925.405	691.001
212.607	14.863	924.316	689.900
213.621	14.875	923.685	689.422
214.636	14.974	922.899	689.179
215.650	14.921	922.325	688.473
216.665	14.838	921.827	687.696
217.680	14.989	920.996	687.636
218.694	14.948	920.217	686.827
219.709	14.961	920.092	686.726
220.723	14.922	919.077	685.749
221.738	14.892	918.468	685.108
222.753	15.032	917.912	685.208
223.767	14.942	917.613	684.557
224.782	15.026	916.525	684.025
225.796	15.055	915.942	683.650
226.811	15.199	915.137	683.577
227.826	15.116	914.802	682.928
228.840	15.079	913.668	681.870
229.855	15.000	913.172	681.117
230.869	15.088	912.239	680.719
231.884	15.043	911.525	679.942
232.899	15.035	911.102	679.534
233.913	14.944	910.769	678.855
234.928	15.054	909.757	678.487
235.942	15.171	908.860	678.234
236.957	15.138	908.435	677.721
237.972	15.114	907.902	677.169
238.986	15.107	907.222	676.573
240.001	15.079	906.383	675.776
241.015	15.094	906.089	675.557
242.030	14.967	905.695	674.690
243.045	15.167	904.873	674.825
244.059	15.312	904.265	674.892
245.074	15.347	903.141	674.138
246.088	15.198	903.030	673.394
247.103	15.236	902.039	672.747
248.117	15.402	901.803	673.181
249.132	15.311	901.150	672.266
250.147	15.364	900.382	671.846
251.161	15.466	899.794	671.759
252.176	15.435	899.277	671.187
253.190	15.510	898.288	670.691
254.205	15.520	897.748	670.266
255.220	15.436	897.127	669.409
256.234	15.604	896.637	669.655
257.249	15.555	895.634	668.648
258.263	15.702	894.572	668.384
259.278	15.559	894.214	667.486
260.293	15.668	893.735	667.505
261.307	15.750	893.190	667.363
262.322	15.747	892.930	667.100
263.336	15.799	891.839	666.432
264.351	15.771	890.740	665.440
265.366	15.688	890.346	664.758
266.380	15.842	889.603	664.752
267.395	15.710	889.005	663.724
268.409	15.650	888.510	663.061
269.424	15.785	887.469	662.759
270.439	15.771	886.649	662.030
271.453	15.781	886.416	661.840
272.468	15.864	885.222	661.216
273.482	15.881	884.795	660.902
274.497	15.782	884.595	660.307
275.512	15.808	883.793	659.752
276.526	15.851	883.752	659.832
277.541	15.931	882.900	659.451
278.555	15.871	882.184	658.624
279.570	16.015	881.698	658.764
280.585	15.931	880.905	657.786
281.599	15.951	880.096	657.200
282.614	16.056	879.443	657.064
283.628	15.942	878.881	656.141
284.643	15.983	878.130	655.683
285.657	15.971	877.255	654.925
286.672	15.948	877.250	654.775
287.687	15.886	876.193	653.686
288.701	16.042	875.542	653.746
289.716	16.136	875.220	653.813
290.730	16.094	874.448	653.017
291.745	16.087	873.893	652.518
292.760	16.043	873.739	652.173
293.774	16.136	872.943	651.883
294.789	16.053	872.238	650.977
295.803	16.181	871.044	650.523
296.818	16.195	870.665	650.236
297.833	16.115	870.127	649.468
298.847	16.167	869.646	649.252
299.862	16.401	868.528	649.261
300.876	16.255	868.102	648.324
301.891	16.160	868.172	647.952
302.906	16.308	867.475	647.943
303.920	16.326	866.732	647.402
304.935	16.472	866.276	647.561
305.949	16.344	865.628	646.529
306.964	16.336	865.218	646.135
307.979	16.432	864.397	645.833
308.993	16.412	863.965	645.376
310.008	16.507	863.425	645.277
311.022	16.366	863.050	644.404
312.037	16.515	862.190	644.272
313.052	16.292	861.664	642.971
314.066	16.375	861.069	642.787
315.081	16.481	860.503	642.710
316.095	16.612	859.588	642.468
317.110	16.533	859.041	641.702
318.125	16.418	858.728	640.975
319.139	16.482	858.411	640.925
320.154	16.483	858.053	640.606
321.168	16.446	857.391	639.915
322.183	16.497	856.585	639.450
323.197	16.400	856.194	638.735
324.212	16.613	855.651	639.075
325.227	16.596	854.814	638.332
326.241	16.523	854.204	637.544
327.256	16.627	853.886	637.640
328.270	16.652	852.834	636.892
329.285	16.642	852.810	636.783
330.300	16.485	851.760	635.352
331.314	16.592	851.677	635.634
332.329	16.485	851.199	634.821
333.343	16.694	851.116	635.488
334.358	16.795	850.416	635.287
335.373	16.582	850.439	634.449
336.387	16.799	849.977	634.860
337.402	16.550	849.905	633.819
338.416	16.740	849.422	634.115
339.431	16.838	848.663	633.858
340.446	16.835	848.318	633.531
341.460	16.876	847.808	633.249
342.475	16.902	847.474	633.040
343.489	16.980	847.164	633.043
344.504	16.999	846.278	632.397
345.519	17.040	846.043	632.317
346.533	16.935	845.561	631.512
347.548	16.872	845.124	630.892
348.562	16.890	844.462	630.412
349.577	16.998	843.685	630.176
350.592	16.952	843.265	629.637
351.606	16.937	842.441	628.910
352.621	16.998	841.708	628.533
353.635	17.033	841.009	628.083
354.650	17.072	840.244	627.601
355.665	16.986	839.836	626.922
356.679	17.173	838.879	626.844
357.694	17.055	838.908	626.373
358.708	16.979	838.332	625.611
359.723	17.049	837.397	625.115
360.738	17.060	836.932	624.751
361.752	17.150	836.168	624.457
362.767	17.307	835.506	624.485
363.781	17.379	835.000	624.315
364.796	17.321	834.668	623.800
365.810	17.288	834.662	623.617
366.825	17.369	834.007	623.370
367.840	17.306	833.977	623.063
368.854	17.357	833.096	622.537
369.869	17.325	832.758	622.110
370.883	17.308	832.283	621.639
371.898	17.392	832.310	621.911
372.913	17.467	831.362	621.421
373.927	17.467	830.860	620.990
374.942	17.600	830.105	620.858
375.956	17.357	830.231	620.009
376.971	17.586	829.285	620.084
377.986	17.724	828.851	620.204
379.000	17.651	828.448	619.584
380.015	17.578	827.860	618.823
381.029	17.563	827.004	618.075
382.044	17.619	827.038	618.248
383.059	17.661	826.131	617.669
384.073	17.559	825.629	616.869
385.088	17.759	825.060	617.113
386.102	17.613	824.698	616.259
387.117	17.507	824.230	615.473
388.132	17.694	823.391	615.467
389.146	17.751	822.401	614.877
390.161	17.771	822.339	614.849
391.175	17.711	822.115	614.411
392.190	17.604	821.873	613.791
393.205	17.702	820.676	613.193
394.219	17.682	820.744	613.120
395.234	17.718	820.458	612.980
396.248	17.784	819.496	612.444
397.263	17.770	819.415	612.280
398.278	17.602	819.636	611.788
399.292	17.720	818.797	611.528
400.307	17.751	818.192	611.133
401.321	17.694	817.484	610.348
402.336	17.943	816.621	610.539
403.350	17.875	816.178	609.911
404.365	17.795	816.457	609.779
405.380	17.829	815.976	609.490
406.394	17.850	815.532	609.177
407.409	17.913	814.931	608.901
408.423	17.956	814.481	608.663
409.438	18.035	814.005	608.536
410.453	18.100	813.502	608.335
411.467	18.039	813.012	607.700
412.482	18.158	812.668	607.812
413.496	18.080	812.499	607.352
414.511	18.141	812.225	607.313
415.526	18.073	811.771	606.677
416.540	18.115	810.959	606.164
417.555	18.143	810.736	606.046
418.569	18.197	810.227	605.803
419.584	18.066	809.782	604.952
420.599	18.195	809.243	604.950
421.613	116.202	1299.741	1491.605
422.628	100.551	1371.183	1491.670
