DTS Sentinel unit serial number:	SN413079Multiplexer serial number:	ORYXHardware model number:	OX4-SRSoftware version number:	ORYX F/W v4.00 Oryx Data Collector v3.7.2.0data status	okinstallation	princeton_trtdifferential loss correction	single-endedforward channel	channel 1reverse channel	N/Adate	2019/09/15time	00:26:35forward acquisition time	60.00reverse acquisition time	0.00gamma	496.2192k internal	0.2320k external	0.2320temperature offset calibration	0.9996default loss term (dB/km)	0.3790temperature slope calibration	1.0000multiplexer offset coefficient	1.0000multiplexer slope coefficient	1.0000fibre end	0.00T internal ref (°C)	32.12T ext. ref 1 (°C)	4.59T ext. ref 2 (°C)	27.16length (m)	temperature (°C)	Stokes	anti-Stokes-747.200	-92.968	0.279	0.079
-746.185	-79.030	-0.212	0.073
-745.171	-33.232	0.238	-0.134
-744.156	800.000	0.076	0.239
-743.142	278.159	-0.168	0.302
-742.127	-117.307	0.259	0.048
-741.112	-35.047	0.157	-0.086
-740.098	800.000	0.031	0.124
-739.083	-42.287	0.199	0.103
-738.069	-199.535	-0.223	0.001
-737.054	77.752	-0.054	0.058
-736.039	-31.205	-0.450	0.256
-735.025	-80.508	-0.348	0.117
-734.010	93.190	0.189	-0.216
-732.996	23.450	0.141	-0.117
-731.981	612.226	-0.083	0.211
-730.966	584.644	-0.102	-0.253
-729.952	-200.000	-0.006	0.204
-728.937	-139.452	-0.311	0.034
-727.923	97.458	0.123	-0.143
-726.908	-18.528	0.129	0.082
-725.894	-66.418	0.248	0.100
-724.879	-29.877	0.180	0.103
-723.864	358.233	0.051	-0.102
-722.850	132.367	-0.125	-0.163
-721.835	-69.952	-0.232	-0.089
-720.821	-49.487	-0.084	-0.040
-719.806	-200.000	0.037	-0.176
-718.791	30.307	0.143	-0.123
-717.777	800.000	-0.016	0.071
-716.762	-84.286	0.304	0.097
-715.748	144.709	-0.227	-0.307
-714.733	-61.172	-0.052	-0.022
-713.718	268.507	-0.058	0.102
-712.704	-200.000	-0.004	-0.064
-711.689	68.438	-0.250	-0.259
-710.675	530.650	0.033	-0.078
-709.660	-200.000	-0.015	0.248
-708.645	800.000	0.052	0.158
-707.631	28.376	0.200	-0.171
-706.616	800.000	0.058	0.188
-705.602	-160.403	-0.188	0.010
-704.587	-200.000	-0.016	0.153
-703.572	800.000	0.128	-0.382
-702.558	134.148	0.282	0.369
-701.543	-200.000	0.013	-0.169
-700.529	106.535	-0.299	-0.358
-699.514	-127.362	0.367	-0.054
-698.499	-200.000	0.045	0.277
-697.485	-49.080	0.076	-0.037
-696.470	-45.618	0.185	0.092
-695.456	-125.431	-0.178	0.027
-694.441	-127.452	-0.167	0.025
-693.426	-90.840	0.249	-0.072
-692.412	101.176	0.140	-0.165
-691.397	-9.306	-0.191	-0.128
-690.383	218.509	0.114	0.184
-689.368	800.000	-0.087	0.248
-688.354	3.388	0.140	-0.103
-687.339	-200.000	-0.016	-0.087
-686.324	-80.484	-0.159	0.053
-685.310	145.518	-0.162	-0.219
-684.295	36.522	0.242	0.215
-683.281	-92.634	-0.084	-0.024
-682.266	18.396	0.257	-0.207
-681.251	-56.157	-0.072	-0.032
-680.237	-115.257	-0.138	-0.026
-679.222	49.934	-0.136	-0.129
-678.208	24.659	0.107	0.089
-677.193	-158.033	0.025	0.001
-676.178	151.952	0.271	-0.373
-675.164	-116.723	0.080	-0.015
-674.149	18.045	-0.230	-0.185
-673.135	-11.278	0.058	-0.038
-672.120	261.182	-0.098	-0.171
-671.105	-60.714	0.161	-0.069
-670.091	255.635	-0.052	-0.091
-669.076	178.852	0.054	0.079
-668.062	-14.782	0.256	0.165
-667.047	-11.359	-0.332	0.220
-666.032	331.400	-0.050	0.097
-665.018	-200.000	0.008	0.295
-664.003	-137.392	0.159	-0.018
-662.989	40.560	0.074	0.067
-661.974	-139.801	-0.244	0.026
-660.959	-4.910	0.169	0.118
-659.945	800.000	-0.044	-0.129
-658.930	800.000	-0.091	-0.313
-657.916	-47.293	-0.249	-0.122
-656.901	-117.202	0.112	-0.020
-655.886	-74.434	0.320	-0.117
-654.872	69.612	0.126	-0.131
-653.857	20.439	-0.102	-0.083
-652.843	-200.000	0.013	-0.198
-651.828	359.686	-0.163	0.329
-650.814	-95.970	-0.170	0.046
-649.799	92.663	-0.244	-0.278
-648.784	800.000	0.107	-0.340
-647.770	48.150	-0.273	-0.257
-646.755	-0.389	-0.202	-0.144
-645.741	93.348	0.152	0.173
-644.726	-116.617	0.210	0.039
-643.711	-51.163	-0.515	-0.243
-642.697	-28.897	0.213	-0.123
-641.682	-74.760	0.206	-0.075
-640.668	29.886	-0.131	-0.113
-639.653	-44.332	-0.260	-0.131
-638.638	-200.000	0.002	-0.374
-637.624	-119.273	0.359	-0.063
-636.609	-30.144	0.293	-0.168
-635.595	209.987	-0.083	-0.132
-634.580	800.000	-0.061	-0.199
-633.565	-148.419	0.146	-0.012
-632.551	-200.000	0.004	-0.032
-631.536	-51.018	-0.054	-0.025
-630.522	246.860	-0.144	0.245
-629.507	70.545	-0.226	0.236
-628.492	-200.000	-0.052	-0.304
-627.478	-88.328	0.101	-0.030
-626.463	-90.082	-0.279	0.082
-625.449	244.173	-0.063	-0.106
-624.434	800.000	0.066	0.246
-623.419	72.028	0.178	-0.187
-622.405	800.000	-0.024	-0.103
-621.390	108.330	0.176	-0.211
-620.376	113.241	-0.105	-0.128
-619.361	203.153	-0.131	-0.204
-618.346	-38.630	0.255	0.136
-617.332	419.655	-0.121	-0.261
-616.317	-200.000	-0.079	0.349
-615.303	-149.007	0.178	-0.014
-614.288	800.000	0.036	0.114
-613.273	74.842	0.275	-0.291
-612.259	-57.538	0.262	-0.116
-611.244	-163.196	-0.148	-0.007
-610.230	800.000	-0.077	-0.241
-609.215	-200.000	-0.022	-0.357
-608.201	-200.000	0.026	-0.441
-607.186	-131.563	0.267	-0.035
-606.171	-18.195	0.149	0.094
-605.157	-200.000	0.035	0.194
-604.142	-200.000	-0.031	0.256
-603.128	-125.157	0.265	-0.041
-602.113	101.111	0.159	0.186
-601.098	-155.731	-0.529	0.034
-600.084	-106.668	0.034	-0.008
-599.069	-78.169	-0.018	-0.006
-598.055	26.323	0.071	-0.060
-597.040	-110.310	-0.322	-0.067
-596.025	33.443	0.100	0.088
-595.011	29.289	-0.010	0.009
-593.996	22.588	-0.065	-0.053
-592.982	31.843	-0.053	0.046
-591.967	27.926	-0.117	-0.099
-590.952	-200.000	0.001	0.023
-589.938	-13.218	-0.225	-0.147
-588.923	-25.236	-0.184	-0.110
-587.909	-73.401	0.268	0.098
-586.894	-200.000	-0.029	0.167
-585.879	705.389	0.054	0.142
-584.865	-141.740	-0.373	0.038
-583.850	-36.114	-0.092	0.050
-582.836	800.000	0.014	0.059
-581.821	-18.247	-0.217	-0.137
-580.806	309.058	-0.171	0.320
-579.792	-46.205	-0.178	-0.088
-578.777	142.058	-0.116	0.155
-577.763	-200.000	-0.011	0.315
-576.748	-39.472	0.196	-0.103
-575.733	-200.000	-0.035	-0.159
-574.719	-200.000	0.014	0.233
-573.704	-22.368	-0.146	-0.089
-572.690	-109.503	-0.176	-0.037
-571.675	-99.421	0.098	0.025
-570.661	-200.000	0.041	-0.287
-569.646	-157.820	0.241	0.014
-568.631	-95.910	-0.293	0.078
-567.617	-200.000	0.022	-0.209
-566.602	-161.163	-0.146	0.008
-565.588	93.164	-0.089	-0.101
-564.573	-188.255	0.100	0.001
-563.558	-75.199	0.218	-0.078
-562.544	84.436	-0.101	-0.110
-561.529	-83.689	-0.326	0.104
-560.515	72.978	0.125	0.131
-559.500	-109.612	-0.334	-0.071
-558.485	-41.116	-0.158	-0.082
-557.471	-105.643	-0.245	-0.056
-556.456	-30.008	-0.238	0.136
-555.442	800.000	0.095	0.356
-554.427	-200.000	0.007	0.133
-553.412	-158.181	0.227	0.013
-552.398	93.071	-0.126	-0.144
-551.383	121.710	0.040	-0.051
-550.369	-10.589	-0.210	0.140
-549.354	570.184	0.076	0.186
-548.339	-76.390	-0.078	0.028
-547.325	5.601	0.187	0.139
-546.310	-146.192	0.058	0.005
-545.296	212.218	-0.134	-0.212
-544.281	-118.772	-0.268	-0.047
-543.266	7.814	-0.250	0.188
-542.252	-21.127	0.254	-0.156
-541.237	800.000	-0.039	-0.168
-540.223	55.700	0.222	0.216
-539.208	299.984	0.123	0.228
-538.193	800.000	0.086	-0.282
-537.179	-200.000	0.002	0.249
-536.164	-102.098	-0.094	-0.023
-535.150	-200.000	0.024	-0.154
-534.135	93.908	0.153	0.174
-533.121	-173.945	0.045	0.001
-532.106	-200.000	0.014	0.156
-531.091	-200.000	-0.024	0.201
-530.077	-164.778	-0.157	0.007
-529.062	71.780	0.095	0.099
-528.048	17.565	0.099	0.079
-527.033	-107.090	0.363	-0.080
-526.018	-84.406	-0.214	0.068
-525.004	800.000	0.021	-0.071
-523.989	89.299	0.348	0.389
-522.975	-100.493	-0.251	0.062
-521.960	251.634	0.157	-0.268
-520.945	576.689	-0.172	-0.422
-519.931	-40.556	0.174	-0.090
-518.916	83.930	-0.091	-0.099
-517.902	800.000	0.068	0.253
-516.887	800.000	0.037	0.128
-515.872	-12.086	-0.189	-0.124
-514.858	-107.600	0.210	0.046
-513.843	296.347	0.036	0.066
-512.829	73.507	0.170	-0.178
-511.814	-200.000	0.022	-0.283
-510.799	-200.000	0.006	0.316
-509.785	94.630	0.227	0.259
-508.770	-44.123	-0.117	-0.059
-507.756	10.521	0.185	-0.141
-506.741	96.666	0.175	-0.200
-505.726	-86.469	-0.211	0.065
-504.712	-200.000	-0.014	-0.352
-503.697	268.411	0.025	-0.044
-502.683	-144.039	0.197	-0.019
-501.668	273.548	0.039	0.069
-500.653	-193.615	0.171	0.001
-499.639	800.000	0.130	-0.448
-498.624	-76.635	0.105	0.037
-497.610	164.501	0.175	0.247
-496.595	4.459	-0.084	-0.062
-495.581	-112.053	0.376	0.076
-494.566	40.201	0.116	0.104
-493.551	133.335	0.126	0.163
-492.537	-39.664	0.273	0.143
-491.522	-200.000	0.001	-0.047
-490.508	93.445	-0.075	0.085
-489.493	584.921	-0.064	0.158
-488.478	123.165	-0.095	0.120
-487.464	-200.000	0.047	-0.326
-486.449	281.904	0.012	-0.021
-485.435	2.110	0.028	-0.021
-484.420	-200.000	0.021	-0.118
-483.405	-30.163	-0.211	-0.120
-482.391	-67.057	0.440	-0.174
-481.376	-41.658	-0.191	0.098
-480.362	-200.000	-0.063	0.304
-479.347	142.823	0.104	-0.138
-478.332	519.899	-0.089	0.209
-477.318	-62.819	-0.573	0.237
-476.303	326.680	0.192	-0.368
-475.289	-200.000	0.027	-0.134
-474.274	38.472	-0.225	0.201
-473.259	-66.314	0.251	-0.100
-472.245	32.433	-0.175	0.151
-471.230	-13.187	-0.117	0.076
-470.216	234.024	-0.026	0.042
-469.201	229.901	-0.103	0.168
-468.186	800.000	0.089	0.322
-467.172	-200.000	0.039	-0.404
-466.157	800.000	0.087	0.298
-465.143	781.154	-0.123	0.337
-464.128	165.420	0.229	0.324
-463.113	-7.682	-0.288	0.195
-462.099	409.276	0.051	0.109
-461.084	58.873	0.192	0.189
-460.070	-200.000	0.006	0.282
-459.055	-59.563	0.197	0.085
-458.040	-93.704	-0.149	-0.041
-457.026	-72.252	-0.115	-0.042
-456.011	800.000	-0.040	-0.167
-454.997	174.374	0.094	0.136
-453.982	401.370	0.155	0.325
-452.968	-200.000	-0.016	0.291
-451.953	-157.060	-0.071	-0.004
-450.938	-99.645	0.173	-0.043
-449.924	68.702	0.048	0.049
-448.909	-200.000	0.077	0.376
-447.895	-200.000	-0.013	-0.164
-446.880	-52.534	-0.200	0.092
-445.865	-84.367	0.299	0.095
-444.851	-113.429	0.414	0.081
-443.836	357.813	-0.171	0.340
-442.822	28.569	0.054	0.046
-441.807	-78.263	-0.159	-0.055
-440.792	459.238	-0.062	0.137
-439.778	50.569	-0.210	-0.199
-438.763	193.149	-0.116	-0.175
-437.749	-32.824	0.193	0.107
-436.734	-128.462	-0.257	-0.036
-435.719	800.000	-0.033	0.142
-434.705	49.664	0.176	0.166
-433.690	229.334	0.127	0.206
-432.676	157.612	-0.015	0.021
-431.661	331.986	-0.058	0.111
-430.646	-21.693	-0.180	-0.110
-429.632	-200.000	0.059	-0.271
-428.617	17.915	-0.184	0.147
-427.603	599.007	0.110	0.272
-426.588	530.765	-0.098	0.230
-425.573	20.214	-0.344	0.277
-424.559	-200.000	-0.059	-0.272
-423.544	-103.312	-0.304	0.072
-422.530	41.178	0.085	-0.077
-421.515	800.000	-0.087	-0.278
-420.500	-63.090	0.117	-0.048
-419.486	800.000	-0.099	-0.285
-418.471	-89.866	0.306	-0.089
-417.457	-117.500	0.297	0.054
-416.442	50.872	-0.093	0.088
-415.428	-136.931	-0.142	0.016
-414.413	-68.210	0.293	0.114
-413.398	800.000	-0.020	0.065
-412.384	-200.000	-0.049	0.413
-411.369	-38.448	0.108	-0.057
-410.355	-49.949	-0.298	0.141
-409.340	118.309	-0.183	0.225
-408.325	-200.000	0.013	-0.072
-407.311	158.463	-0.041	-0.057
-406.296	-16.959	-0.209	0.132
-405.282	-200.000	-0.014	0.131
-404.267	-200.000	-0.022	0.157
-403.252	-200.000	-0.014	0.236
-402.238	544.770	-0.089	-0.212
-401.223	-85.997	-0.067	0.021
-400.209	11.464	0.263	-0.201
-399.194	-200.000	-0.016	-0.235
-398.179	6.934	-0.093	0.069
-397.165	-149.240	-0.309	0.025
-396.150	39.692	-0.048	0.043
-395.136	-95.433	0.093	-0.025
-394.121	-200.000	0.027	0.282
-393.106	263.605	-0.116	0.201
-392.092	325.428	-0.059	0.113
-391.077	18.298	0.346	-0.276
-390.063	4.854	0.316	-0.232
-389.048	-200.000	-0.054	0.276
-388.033	-200.000	-0.048	-0.363
-387.019	102.969	0.317	-0.371
-386.004	325.648	-0.119	-0.227
-384.990	90.199	-0.194	0.216
-383.975	16.486	-0.233	0.183
-382.960	157.190	-0.044	0.061
-381.946	-200.000	0.027	-0.191
-380.931	244.059	0.172	-0.288
-379.917	173.935	0.140	0.202
-378.902	60.796	0.164	0.162
-377.888	422.115	-0.130	0.278
-376.873	-120.057	-0.108	-0.018
-375.858	630.942	0.079	0.200
-374.844	87.662	0.108	-0.119
-373.829	-0.662	-0.191	-0.135
-372.815	142.992	0.141	0.187
-371.800	-200.000	0.001	0.279
-370.785	800.000	-0.089	-0.370
-369.771	-55.239	0.283	-0.127
-368.756	-26.034	-0.384	0.225
-367.742	198.562	-0.184	0.281
-366.727	-87.247	0.134	-0.041
-365.712	-158.382	-0.165	-0.010
-364.698	-24.713	0.099	0.059
-363.683	-67.421	0.273	-0.107
-362.669	493.976	0.062	0.142
-361.654	-200.000	-0.022	-0.110
-360.639	800.000	0.013	-0.053
-359.625	-96.344	0.203	-0.054
-358.610	800.000	-0.021	0.083
-357.596	140.838	-0.169	0.223
-356.581	-200.000	-0.046	-0.288
-355.566	-200.000	-0.043	0.202
-354.552	620.265	-0.058	0.145
-353.537	-200.000	-0.027	0.176
-352.523	-92.347	0.085	0.024
-351.508	-30.961	0.101	0.057
-350.493	-38.080	-0.072	-0.038
-349.479	-77.082	-0.019	-0.007
-348.464	-57.866	0.213	0.093
-347.450	420.618	-0.105	0.223
-346.435	-122.649	-0.052	0.008
-345.420	-200.000	0.007	-0.275
-344.406	588.138	0.076	-0.188
-343.391	42.442	0.158	0.143
-342.377	3.245	0.137	0.099
-341.362	-200.000	-0.005	-0.316
-340.348	-79.035	-0.251	-0.085
-339.333	-200.000	0.024	0.130
-338.318	-111.126	0.268	0.055
-337.304	-106.675	-0.185	0.041
-336.289	73.203	0.070	0.073
-335.275	-55.988	0.216	-0.096
-334.260	-136.100	0.075	-0.009
-333.245	749.764	0.022	0.060
-332.231	800.000	0.124	0.391
-331.216	50.702	0.040	0.038
-330.202	-200.000	0.045	-0.274
-329.187	19.170	0.278	0.222
-328.172	446.313	-0.056	-0.122
-327.158	-138.149	0.491	-0.054
-326.143	561.665	-0.074	0.178
-325.129	313.296	-0.080	-0.150
-324.114	800.000	0.071	-0.236
-323.099	143.925	-0.062	0.083
-322.085	-37.223	0.098	0.052
-321.070	-78.061	-0.270	0.093
-320.056	-200.000	0.017	0.141
-319.041	-104.518	0.215	-0.049
-318.026	84.893	-0.177	0.193
-317.012	-121.257	-0.161	-0.027
-315.997	302.063	0.130	0.239
-314.983	-61.403	0.292	-0.122
-313.968	-9.793	-0.147	-0.097
-312.953	800.000	0.082	-0.242
-311.939	327.296	0.084	-0.161
-310.924	81.979	0.096	0.104
-309.910	-102.329	-0.363	-0.087
-308.895	-67.342	-0.251	-0.098
-307.880	272.505	0.128	0.224
-306.866	494.054	0.085	0.195
-305.851	-86.443	-0.106	0.032
-304.837	-61.366	-0.220	-0.092
-303.822	-83.167	0.080	-0.026
-302.807	-149.919	0.211	0.016
-301.793	405.189	-0.047	-0.098
-300.778	800.000	0.108	0.390
-299.764	42.495	-0.189	-0.171
-298.749	-200.000	-0.002	0.284
-297.735	-93.780	-0.089	0.024
-296.720	-200.000	0.029	-0.133
-295.705	-32.950	-0.204	0.113
-294.691	29.296	0.192	0.162
-293.676	-200.000	-0.042	-0.270
-292.662	541.569	-0.084	0.198
-291.647	-135.565	-0.118	-0.014
-290.632	800.000	-0.081	-0.285
-289.618	114.385	-0.077	0.094
-288.603	63.672	0.061	-0.061
-287.589	-23.215	-0.239	0.143
-286.574	-156.228	0.310	0.019
-285.559	31.959	0.176	-0.151
-284.545	53.430	0.124	0.118
-283.530	-21.997	-0.240	0.145
-282.516	205.434	0.091	-0.140
-281.501	-200.000	-0.029	0.201
-280.486	5.336	0.041	0.030
-279.472	90.941	0.115	0.128
-278.457	48.767	-0.074	0.069
-277.443	-200.000	0.091	-0.408
-276.428	216.760	-0.062	-0.098
-275.413	388.981	0.158	-0.325
-274.399	800.000	-0.044	-0.153
-273.384	91.146	0.163	-0.182
-272.370	8.903	-0.195	0.146
-271.355	-154.020	-0.198	-0.013
-270.340	-55.628	0.264	-0.117
-269.326	43.497	-0.217	-0.197
-268.311	-93.726	0.199	-0.054
-267.297	128.943	0.034	0.043
-266.282	-200.000	-0.026	0.261
-265.267	-92.163	-0.243	0.068
-264.253	-124.387	-0.213	-0.033
-263.238	146.785	-0.235	-0.314
-262.224	611.031	-0.122	-0.304
-261.209	-48.571	-0.349	-0.167
-260.195	16.621	0.098	0.077
-259.180	31.318	0.059	0.050
-258.165	178.659	0.111	-0.161
-257.151	-200.000	0.026	-0.284
-256.136	-104.674	-0.302	-0.069
-255.122	180.457	0.186	-0.270
-254.107	-200.000	-0.028	-0.293
-253.092	-127.689	-0.209	0.030
-252.078	-1.791	0.288	0.201
-251.063	-105.326	-0.092	0.021
-250.049	-200.000	-0.005	0.080
-249.034	800.000	-0.051	0.158
-248.019	663.111	0.071	-0.183
-247.005	-57.946	-0.281	-0.122
-245.990	226.824	-0.156	-0.251
-244.976	166.656	-0.125	0.175
-243.961	-200.000	0.017	0.145
-242.946	3.577	0.084	0.061
-241.932	800.000	-0.048	-0.151
-240.917	-79.085	0.168	0.057
-239.903	-80.535	-0.130	-0.043
-238.888	190.642	0.080	-0.119
-237.873	367.315	-0.025	0.050
-236.859	800.000	-0.092	-0.286
-235.844	524.442	-0.048	-0.113
-234.830	-200.000	-0.044	-0.196
-233.815	44.710	-0.165	-0.151
-232.800	469.597	-0.150	-0.335
-231.786	-127.601	0.036	-0.005
-230.771	-200.000	0.013	-0.242
-229.757	-19.235	0.167	0.103
-228.742	-200.000	0.018	0.087
-227.727	-72.382	0.137	0.050
-226.713	-138.902	0.087	0.009
-225.698	-17.776	0.322	-0.200
-224.684	-76.388	-0.251	-0.087
-223.669	33.205	0.255	0.219
-222.655	-114.329	0.110	-0.021
-221.640	22.790	-0.167	-0.135
-220.625	173.911	0.223	0.319
-219.611	-4.335	0.201	0.138
-218.596	800.000	-0.047	-0.183
-217.582	800.000	-0.091	-0.389
-216.567	2.960	0.129	-0.093
-215.552	9.872	-0.072	-0.054
-214.538	-124.856	-0.202	-0.031
-213.523	-168.549	-0.033	-0.001
-212.509	-39.767	-0.089	0.046
-211.494	800.000	-0.039	0.124
-210.479	-154.414	-0.032	-0.002
-209.465	-55.839	-0.370	-0.164
-208.450	-9.152	-0.134	-0.089
-207.436	237.185	-0.052	-0.086
-206.421	12.474	0.304	0.232
-205.406	67.964	0.137	-0.139
-204.392	-200.000	-0.049	-0.360
-203.377	-80.170	0.350	-0.116
-202.363	-200.000	0.057	0.467
-201.348	-19.363	-0.165	-0.102
-200.333	800.000	0.140	-0.425
-199.319	-68.014	-0.165	0.064
-198.304	-61.105	0.388	-0.162
-197.290	-100.241	-0.047	0.012
-196.275	-101.231	0.349	0.085
-195.260	-149.689	0.089	0.007
-194.246	-200.000	0.051	0.318
-193.231	-200.000	0.025	-0.243
-192.217	-102.775	-0.271	0.064
-191.202	-39.834	-0.212	0.110
-190.187	-171.801	0.065	-0.002
-189.173	-200.000	0.041	0.349
-188.158	-80.703	0.152	-0.050
-187.144	-5.493	-0.286	-0.194
-186.129	800.000	-0.089	0.249
-185.114	800.000	0.093	-0.256
-184.100	257.567	0.133	0.226
-183.085	-57.529	-0.168	0.073
-182.071	800.000	-0.042	0.176
-181.056	-150.666	0.270	-0.020
-180.042	800.000	-0.076	-0.297
-179.027	191.059	0.015	-0.022
-178.012	-49.699	0.204	-0.096
-176.998	-200.000	-0.028	-0.187
-175.983	-161.245	-0.162	-0.008
-174.969	359.513	0.036	-0.071
-173.954	-155.994	-0.201	0.013
-172.939	110.803	0.194	-0.230
-171.925	286.641	0.204	0.364
-170.910	22.194	0.075	0.060
-169.896	800.000	0.070	0.303
-168.881	308.054	0.083	0.154
-167.866	18.567	-0.243	-0.192
-166.852	-200.000	-0.020	0.137
-165.837	-163.810	0.304	0.014
-164.823	-11.891	0.340	0.220
-163.808	-30.603	-0.118	-0.066
-162.793	-14.690	0.154	-0.098
-161.779	17.724	-0.187	-0.147
-160.764	-87.525	-0.273	0.082
-159.750	22.882	-0.120	0.097
-158.735	800.000	-0.033	-0.132
-157.720	-27.868	0.171	-0.098
-156.706	210.397	-0.172	-0.268
-155.691	-18.500	-0.303	-0.187
-154.677	145.683	0.101	0.134
-153.662	-200.000	-0.023	0.123
-152.647	784.112	-0.122	0.329
-151.633	-33.010	0.306	0.168
-150.618	-42.543	-0.532	0.268
-149.604	-133.962	-0.462	0.057
-148.589	57.826	-0.046	-0.044
-147.574	-118.504	-0.404	0.071
-146.560	-109.473	-0.130	0.027
-145.545	-33.279	-0.072	0.039
-144.531	-117.452	0.340	-0.061
-143.516	-122.342	-0.181	0.029
-142.502	-14.735	0.265	0.168
-141.487	-143.361	0.050	-0.005
-140.472	-56.420	0.247	0.108
-139.458	513.047	-0.087	0.200
-138.443	144.587	0.082	-0.108
-137.429	-161.805	0.030	-0.002
-136.414	152.480	-0.134	-0.181
-135.399	-56.758	0.182	0.079
-134.385	20.881	-0.243	-0.195
-133.370	395.114	0.083	-0.171
-132.356	122.028	0.117	-0.145
-131.341	150.869	0.074	0.099
-130.326	144.704	-0.278	-0.366
-129.312	-24.221	-0.011	-0.006
-128.297	-95.285	-0.212	-0.056
-127.283	-83.905	0.122	-0.038
-126.268	403.665	-0.027	-0.056
-125.253	800.000	0.037	0.111
-124.239	274.919	-0.152	0.266
-123.224	71.248	-0.139	0.143
-122.210	-200.000	-0.038	0.393
-121.195	-29.281	0.221	-0.125
-120.180	113.373	0.053	0.064
-119.166	302.889	-0.083	-0.152
-118.151	46.300	0.236	0.216
-117.137	0.952	-0.031	0.022
-116.122	-200.000	-0.010	0.200
-115.107	-200.000	-0.015	0.076
-114.093	-19.450	-0.228	0.139
-113.078	-9.307	-0.128	0.084
-112.064	-94.223	0.069	-0.019
-111.049	-50.894	0.145	-0.067
-110.034	-34.895	-0.259	0.139
-109.020	-135.756	0.271	0.032
-108.005	-200.000	0.033	-0.263
-106.991	162.086	0.145	-0.200
-105.976	384.806	0.049	0.100
-104.962	396.897	-0.024	0.050
-103.947	-49.826	0.144	0.067
-102.932	241.355	-0.127	0.209
-101.918	-145.959	-0.233	-0.020
-100.903	212.651	-0.187	-0.290
-99.889	-61.346	-0.121	-0.050
-98.874	601.392	0.115	0.283
-97.859	800.000	0.086	0.302
-96.845	-24.031	-0.045	-0.026
-95.830	800.000	-0.040	0.134
-94.816	-69.975	-0.180	-0.068
-93.801	207.500	-0.193	0.297
-92.786	645.976	-0.065	0.163
-91.772	1.147	0.251	-0.177
-90.757	11.088	0.097	0.073
-89.743	268.265	0.118	-0.203
-88.728	-131.515	0.110	-0.014
-87.713	83.764	0.150	0.161
-86.699	14.787	0.084	-0.065
-85.684	498.916	0.179	0.406
-84.670	-120.337	-0.263	-0.044
-83.655	-43.359	-0.190	0.095
-82.640	800.000	0.049	0.154
-81.626	98.786	0.180	0.204
-80.611	800.000	-0.051	-0.186
-79.597	319.699	-0.149	0.278
-78.582	26.819	-0.190	0.157
-77.567	88.865	0.098	0.107
-76.553	-82.656	-0.063	-0.020
-75.538	119.243	0.239	0.291
-74.524	-30.402	0.283	-0.158
-73.509	-118.030	0.223	0.039
-72.494	-60.519	0.367	-0.153
-71.480	-200.000	0.005	0.105
-70.465	-200.000	-0.000	-0.054
-69.451	800.000	-0.031	0.091
-68.436	-200.000	-0.077	0.371
-67.422	-80.654	0.145	0.048
-66.407	200.265	-0.068	-0.103
-65.392	800.000	0.054	-0.188
-64.378	127.198	0.066	0.083
-63.363	1.352	0.206	0.146
-62.349	75.044	-0.057	0.059
-61.334	360.281	-0.575	-1.133
-60.319	51.565	0.522	0.489
-59.305	800.000	-0.229	-0.896
-58.290	535.143	0.544	1.271
-57.276	523.215	0.686	1.588
-56.261	-200.000	94.657	591.376
-55.246	662.132	1365.898	3466.007
-54.232	200.398	2539.438	3841.162
-53.217	121.534	2138.725	2623.793
-52.203	44.197	1603.339	1447.836
-51.188	35.553	1341.511	1159.457
-50.173	32.425	1299.986	1105.187
-49.159	54.686	1346.528	1278.153
-48.144	56.811	1363.374	1306.770
-47.130	35.814	1322.688	1144.561
-46.115	32.323	1305.230	1108.870
-45.100	32.158	1299.996	1103.407
-44.086	32.086	1297.658	1100.959
-43.071	32.016	1295.266	1098.474
-42.057	32.012	1293.364	1096.796
-41.042	31.971	1291.480	1094.917
-40.027	32.099	1289.850	1094.233
-39.013	32.116	1287.860	1092.602
-37.998	32.154	1285.897	1091.114
-36.984	32.167	1284.232	1089.735
-35.969	32.122	1282.933	1088.326
-34.954	32.176	1280.949	1086.915
-33.940	32.118	1279.655	1085.439
-32.925	32.107	1278.606	1084.439
-31.911	32.244	1276.548	1083.445
-30.896	32.139	1275.470	1081.878
-29.881	32.325	1273.664	1081.376
-28.867	32.179	1272.926	1079.869
-27.852	32.361	1270.843	1079.099
-26.838	32.305	1269.768	1077.827
-25.823	32.231	1268.389	1076.189
-24.809	32.244	1267.118	1075.138
-23.794	32.118	1266.060	1073.482
-22.779	32.151	1264.990	1072.718
-21.765	32.234	1263.523	1071.908
-20.750	32.181	1261.781	1070.082
-19.736	32.122	1260.804	1068.874
-18.721	32.086	1259.833	1067.806
-17.706	32.045	1258.750	1066.616
-16.692	32.046	1257.621	1065.620
-15.677	32.105	1256.344	1064.830
-14.663	32.097	1255.295	1063.850
-13.648	32.043	1253.962	1062.373
-12.633	31.986	1252.852	1061.072
-11.619	32.078	1252.291	1061.074
-10.604	32.060	1251.443	1060.210
-9.590	32.070	1250.455	1059.387
-8.575	32.095	1249.189	1058.415
-7.560	32.010	1248.282	1057.127
-6.546	31.992	1247.502	1056.321
-5.531	31.978	1246.637	1055.468
-4.517	32.044	1245.791	1055.079
-3.502	31.977	1245.154	1054.123
-2.487	31.979	1244.370	1053.427
-1.473	31.871	1240.431	1049.447
-0.458	30.686	1224.835	1029.657
0.556	25.976	1207.837	991.491
1.571	22.415	1213.181	976.084
2.586	21.492	1227.704	982.497
3.600	20.878	1217.012	970.437
4.615	15.875	1145.790	887.264
5.629	8.082	1072.216	791.645
6.644	4.752	1052.792	760.975
7.659	4.475	1050.786	758.104
8.673	4.573	1049.756	757.772
9.688	4.540	1048.635	756.733
10.702	4.681	1046.355	755.706
11.717	9.055	1052.567	781.464
12.731	16.054	1062.676	823.192
13.746	18.892	1064.729	838.575
14.761	18.176	1063.590	834.114
15.775	17.161	1061.107	827.156
16.790	16.006	1059.712	820.375
17.804	15.313	1058.018	815.617
18.819	15.052	1056.464	813.080
19.834	14.724	1055.964	811.034
20.848	14.685	1054.493	809.640
21.863	14.466	1054.094	808.202
22.877	14.131	1053.557	806.096
23.892	14.261	1052.567	805.895
24.907	14.224	1052.318	805.455
25.921	14.213	1050.874	804.225
26.936	14.201	1049.441	803.000
27.950	14.293	1048.103	802.347
28.965	14.247	1046.643	800.938
29.980	14.486	1045.289	800.980
30.994	14.527	1043.952	800.082
32.009	14.588	1043.081	799.633
33.023	14.446	1041.933	798.003
34.038	14.303	1040.780	796.366
35.053	14.329	1040.583	796.270
36.067	14.348	1039.400	795.386
37.082	14.402	1038.430	794.831
38.096	14.393	1038.067	794.437
39.111	14.401	1036.991	793.581
40.126	14.285	1035.959	792.169
41.140	14.136	1034.656	790.394
42.155	14.127	1033.435	789.350
43.169	14.141	1032.391	788.553
44.184	13.984	1031.481	787.042
45.199	14.119	1030.271	786.688
46.213	14.283	1029.222	786.594
47.228	14.325	1028.307	786.024
48.242	14.281	1027.543	785.161
49.257	14.231	1026.626	784.155
50.271	14.310	1025.676	783.733
51.286	14.382	1024.746	783.292
52.301	14.277	1024.128	782.257
53.315	14.235	1022.815	780.985
54.330	14.331	1021.298	780.208
55.344	14.198	1020.848	779.173
56.359	14.197	1020.307	778.686
57.374	14.241	1018.988	777.818
58.388	14.118	1018.165	776.544
59.403	14.119	1016.945	775.550
60.417	14.132	1016.790	775.426
61.432	14.163	1015.703	774.671
62.447	14.109	1014.961	773.786
63.461	13.945	1014.246	772.407
64.476	13.944	1013.482	771.754
65.490	13.931	1012.742	771.063
66.505	14.022	1012.077	770.910
67.520	14.083	1011.163	770.426
68.534	14.167	1010.660	770.367
69.549	13.989	1009.969	768.946
70.563	13.942	1008.945	767.882
71.578	13.942	1008.255	767.289
72.593	13.906	1007.529	766.503
73.607	13.984	1006.469	765.988
74.622	13.967	1006.210	765.644
75.636	13.974	1005.227	764.860
76.651	13.885	1004.877	764.117
77.666	14.030	1003.890	763.964
78.680	13.926	1003.858	763.396
79.695	13.847	1003.160	762.433
80.709	14.117	1002.211	762.884
81.724	14.176	1002.005	762.932
82.739	14.206	1001.076	762.295
83.753	14.234	1000.608	761.999
84.768	14.407	999.590	761.947
85.782	14.530	998.538	761.640
86.797	14.431	997.668	760.454
87.812	14.277	996.554	758.839
88.826	14.262	996.026	758.303
89.841	14.304	995.031	757.666
90.855	14.434	994.029	757.429
91.870	14.419	993.187	756.651
92.884	14.572	992.660	756.877
93.899	14.392	991.622	755.202
94.914	14.508	990.499	754.807
95.928	14.640	989.877	754.862
96.943	14.555	988.929	753.687
97.957	14.333	987.943	751.870
98.972	14.404	987.526	751.806
99.987	14.492	986.458	751.321
101.001	14.539	985.044	750.390
102.016	14.278	984.871	749.020
103.030	14.351	984.645	749.105
104.045	14.505	983.462	748.834
105.060	14.271	982.770	747.190
106.074	14.255	981.328	745.954
107.089	14.178	980.433	744.866
108.103	14.052	979.394	743.447
109.118	14.114	978.231	742.774
110.133	14.106	977.493	742.115
111.147	13.979	977.229	741.279
112.162	14.151	976.223	741.219
113.176	14.289	975.170	740.968
114.191	14.175	974.844	740.145
115.206	14.322	973.536	739.742
116.220	14.100	973.214	738.445
117.235	14.171	971.919	737.714
118.249	14.171	971.224	737.120
119.264	14.150	970.473	736.391
120.279	14.151	970.172	736.102
121.293	14.081	968.907	734.767
122.308	14.136	967.979	734.243
123.322	13.982	967.567	733.185
124.337	14.120	966.216	732.703
125.352	14.001	965.384	731.486
126.366	14.135	964.332	731.212
127.381	14.137	962.763	729.964
128.395	14.019	962.678	729.320
129.410	14.265	961.548	729.476
130.424	14.192	960.856	728.567
131.439	14.271	960.092	728.271
132.454	14.294	959.243	727.659
133.468	14.209	958.457	726.631
134.483	14.280	957.635	726.250
135.497	14.363	956.807	725.923
136.512	14.343	955.770	724.985
137.527	14.261	955.261	724.178
138.541	14.207	954.228	723.094
139.556	14.275	954.178	723.287
140.570	14.450	953.227	723.263
141.585	14.607	952.170	723.079
142.600	14.477	951.348	721.827
143.614	14.652	950.614	721.964
144.629	14.504	950.038	720.821
145.643	14.514	949.003	720.018
146.658	14.392	948.167	718.792
147.673	14.347	947.189	717.792
148.687	14.273	946.352	716.777
149.702	14.264	945.365	715.927
150.716	14.316	944.559	715.478
151.731	14.436	943.755	715.318
152.746	14.340	943.483	714.637
153.760	14.424	942.760	714.386
154.775	14.473	942.633	714.438
155.789	14.518	941.522	713.723
156.804	14.516	941.054	713.299
157.819	14.559	940.300	712.846
158.833	14.619	939.647	712.544
159.848	14.771	938.630	712.358
160.862	14.525	938.054	710.812
161.877	14.526	936.498	709.571
162.892	14.475	935.297	708.385
163.906	14.482	934.695	707.896
164.921	14.326	934.062	706.690
165.935	14.463	933.016	706.417
166.950	14.508	932.163	705.899
167.964	14.561	931.503	705.560
168.979	14.442	930.583	704.299
169.994	14.408	929.748	703.461
171.008	14.532	929.442	703.691
172.023	14.531	928.674	703.041
173.037	14.598	927.952	702.717
174.052	14.628	926.978	702.043
175.067	14.580	926.272	701.246
176.081	14.528	925.709	700.537
177.096	14.612	924.733	700.091
178.110	14.515	924.123	699.159
179.125	14.653	923.885	699.497
180.140	14.478	923.791	698.628
181.154	14.579	923.392	698.690
182.169	14.633	922.572	698.233
183.183	14.866	921.487	698.323
184.198	14.799	921.084	697.678
185.213	14.707	920.556	696.832
186.227	14.788	919.832	696.560
187.242	14.763	919.646	696.252
188.256	14.974	918.710	696.360
189.271	14.889	917.920	695.344
190.286	14.591	917.018	693.363
191.300	14.499	916.324	692.394
192.315	14.568	915.559	692.040
193.329	14.540	915.144	691.553
194.344	14.684	914.488	691.591
195.359	14.702	913.681	690.993
196.373	14.795	913.532	691.204
197.388	14.915	913.271	691.442
198.402	15.045	912.635	691.435
199.417	15.104	911.864	691.036
200.432	15.128	911.558	690.842
201.446	15.117	911.082	690.372
202.461	15.153	910.705	690.175
203.475	15.205	909.642	689.522
204.490	15.066	909.021	688.420
205.504	14.996	908.391	687.594
206.519	14.909	907.754	686.692
207.534	15.056	906.582	686.347
208.548	15.082	905.915	685.890
209.563	14.977	905.656	685.204
210.577	15.071	904.906	684.958
211.592	15.170	903.948	684.578
212.607	15.220	903.512	684.389
213.621	15.181	902.671	683.535
214.636	15.216	902.003	683.111
215.650	15.347	901.115	682.912
216.665	15.232	901.071	682.348
217.680	15.261	900.319	681.839
218.694	15.432	899.348	681.737
219.709	15.245	898.936	680.606
220.723	15.158	898.663	679.986
221.738	15.206	897.999	679.615
222.753	15.400	896.926	679.529
223.767	15.480	896.163	679.216
224.782	15.465	895.612	678.678
225.796	15.404	895.358	678.177
226.811	15.406	894.601	677.554
227.826	15.320	894.010	676.698
228.840	15.366	893.175	676.192
229.855	15.151	892.322	674.623
230.869	15.344	891.364	674.614
231.884	15.376	890.606	674.107
232.899	15.265	890.028	673.165
233.913	15.324	889.269	672.770
234.928	15.281	888.390	671.873
235.942	15.226	887.988	671.289
236.957	15.194	887.894	671.031
237.972	15.167	887.403	670.490
238.986	15.219	886.641	670.063
240.001	15.331	885.977	669.952
241.015	15.369	885.223	669.473
242.030	15.424	884.622	669.177
243.045	15.477	884.209	669.016
244.059	15.433	883.535	668.272
245.074	15.369	882.989	667.545
246.088	15.482	882.371	667.468
247.103	15.528	881.717	667.098
248.117	15.587	880.978	666.713
249.132	15.748	880.858	667.204
250.147	15.838	880.055	666.891
251.161	15.923	879.205	666.527
252.176	15.819	879.083	665.962
253.190	15.902	878.127	665.509
254.205	15.959	877.483	665.186
255.220	15.845	876.935	664.263
256.234	15.962	876.426	664.279
257.249	16.005	875.505	663.690
258.263	16.096	874.604	663.308
259.278	16.000	873.874	662.316
260.293	15.920	873.487	661.650
261.307	16.077	872.908	661.772
262.322	16.058	872.522	661.344
263.336	16.091	871.817	660.880
264.351	16.059	871.134	660.179
265.366	16.220	870.069	659.943
266.380	16.151	869.758	659.378
267.395	16.226	868.811	658.897
268.409	16.120	868.475	658.170
269.424	16.019	867.387	656.891
270.439	15.961	866.869	656.215
271.453	15.979	866.444	655.906
272.468	16.079	865.778	655.736
273.482	16.103	865.165	655.304
274.497	16.030	864.819	654.701
275.512	16.215	863.798	654.588
276.526	16.110	863.576	653.953
277.541	16.122	863.213	653.667
278.555	16.129	862.387	653.012
279.570	16.339	861.725	653.265
280.585	16.375	861.038	652.828
281.599	16.354	860.116	651.989
282.614	16.166	859.710	650.897
283.628	16.316	858.801	650.731
284.643	16.250	858.702	650.344
285.657	16.329	857.807	649.914
286.672	16.178	857.647	649.150
287.687	16.296	856.627	648.776
288.701	16.254	855.862	647.978
289.716	16.453	855.289	648.251
290.730	16.378	854.822	647.551
291.745	16.306	854.837	647.229
292.760	16.446	854.065	647.123
293.774	16.481	853.553	646.814
294.789	16.458	852.806	646.102
295.803	16.309	851.868	644.767
296.818	16.404	851.226	644.586
297.833	16.410	850.688	644.141
298.847	16.374	849.753	643.239
299.862	16.592	849.329	643.692
300.876	16.548	848.775	643.050
301.891	16.527	848.835	642.957
302.906	16.685	847.741	642.669
303.920	16.620	847.427	642.129
304.935	16.634	847.176	641.936
305.949	16.720	846.372	641.595
306.964	16.553	845.824	640.491
307.979	16.678	845.267	640.487
308.993	16.686	844.631	639.975
310.008	16.619	844.339	639.446
311.022	16.745	843.515	639.239
312.037	16.734	842.646	638.484
313.052	16.542	842.274	637.424
314.066	16.564	841.710	637.023
315.081	16.597	841.142	636.661
316.095	16.660	840.388	636.269
317.110	16.730	839.644	635.911
318.125	16.676	839.246	635.351
319.139	16.651	838.790	634.856
320.154	16.561	838.677	634.378
321.168	16.646	837.876	634.035
322.183	16.829	836.947	633.960
323.197	16.763	836.860	633.591
324.212	16.709	836.681	633.198
325.227	16.653	835.745	632.226
326.241	16.862	834.760	632.203
327.256	16.697	834.213	631.116
328.270	16.766	833.706	630.935
329.285	16.794	833.269	630.653
330.300	16.908	832.430	630.387
331.314	16.680	832.175	629.290
332.329	16.868	831.840	629.678
333.343	16.898	831.632	629.579
334.358	16.910	831.348	629.350
335.373	16.895	830.708	628.755
336.387	16.969	830.588	628.884
337.402	16.931	830.207	628.397
338.416	16.964	830.064	628.356
339.431	17.258	829.375	628.870
340.446	17.170	828.863	628.099
341.460	17.185	828.666	627.950
342.475	17.305	827.979	627.816
343.489	17.164	827.814	627.114
344.504	17.209	827.606	627.066
345.519	17.455	826.379	626.989
346.533	17.209	826.523	626.138
347.548	17.103	825.750	625.106
348.562	17.094	825.104	624.527
349.577	17.202	824.580	624.474
350.592	17.056	823.834	623.316
351.606	17.073	823.373	622.974
352.621	17.022	822.363	621.968
353.635	17.199	821.966	622.263
354.650	17.196	821.593	621.914
355.665	17.285	820.877	621.641
356.679	17.330	819.804	620.937
357.694	17.260	819.544	620.431
358.708	17.137	819.485	619.883
359.723	17.297	818.402	619.593
360.738	17.173	818.146	618.893
361.752	17.407	817.258	619.016
362.767	17.444	816.923	618.843
363.781	17.469	816.642	618.667
364.796	17.573	815.821	618.365
365.810	17.751	815.512	618.723
366.825	17.467	815.524	617.648
367.840	17.677	814.975	617.938
368.854	17.580	814.371	617.075
369.869	17.484	813.736	616.190
370.883	17.682	813.047	616.330
371.898	17.633	813.110	616.146
372.913	17.734	812.885	616.286
373.927	17.543	812.277	615.082
374.942	17.627	811.633	614.842
375.956	17.742	811.228	614.897
376.971	17.971	810.615	615.200
377.986	17.997	810.286	614.992
379.000	17.928	809.971	614.451
380.015	17.925	809.219	613.814
381.029	17.946	808.737	613.470
382.044	17.801	808.332	612.589
383.059	17.790	807.753	612.053
384.073	17.837	806.966	611.575
385.088	17.774	806.573	610.996
386.102	17.654	806.142	610.185
387.117	17.764	805.519	610.052
388.132	17.669	804.983	609.253
389.146	17.765	804.346	609.059
390.161	17.859	803.877	608.988
391.175	18.012	803.235	608.992
392.190	17.867	803.075	608.300
393.205	17.889	802.309	607.745
394.219	17.906	801.936	607.467
395.234	17.741	801.453	606.462
396.248	17.796	801.243	606.444
397.263	17.660	800.446	605.304
398.278	17.529	800.618	604.916
399.292	17.778	799.802	605.131
400.307	17.839	799.379	604.973
401.321	17.802	798.777	604.334
402.336	17.821	798.503	604.138
403.350	17.929	798.121	604.179
404.365	18.069	797.297	603.994
405.380	18.059	797.385	603.972
406.394	18.166	796.923	603.948
407.409	18.212	796.565	603.786
408.423	18.215	796.165	603.442
409.438	18.375	795.416	603.384
410.453	18.327	795.266	603.047
411.467	18.337	794.832	602.698
412.482	18.380	794.317	602.405
413.496	18.353	793.947	601.977
414.511	18.358	793.772	601.808
415.526	18.407	793.389	601.636
416.540	18.364	792.862	601.035
417.555	18.262	792.423	600.289
418.569	18.339	792.152	600.300
419.584	18.270	791.576	599.570
420.599	18.357	790.924	599.329
421.613	156.201	1370.743	1793.885
422.628	135.124	1455.221	1793.975
