DTS Sentinel unit serial number:	SN413079Multiplexer serial number:	ORYXHardware model number:	OX4-SRSoftware version number:	ORYX F/W v4.00 Oryx Data Collector v3.7.2.0data status	okinstallation	princeton_trtdifferential loss correction	single-endedforward channel	channel 1reverse channel	N/Adate	2019/09/17time	16:30:35forward acquisition time	60.00reverse acquisition time	0.00gamma	496.2192k internal	0.2292k external	0.2292temperature offset calibration	0.9954default loss term (dB/km)	0.3790temperature slope calibration	1.0000multiplexer offset coefficient	1.0000multiplexer slope coefficient	1.0000fibre end	0.00T internal ref (°C)	41.56T ext. ref 1 (°C)	0.37T ext. ref 2 (°C)	38.31length (m)	temperature (°C)	Stokes	anti-Stokes-747.200	800.000	0.082	-0.355
-746.185	299.946	0.144	0.272
-745.171	99.051	-0.306	0.362
-744.156	687.704	0.096	0.257
-743.142	-82.588	0.271	0.090
-742.127	212.825	0.083	0.134
-741.112	-76.348	-0.043	-0.015
-740.098	7.975	0.202	0.155
-739.083	-200.000	0.040	-0.313
-738.069	-138.197	0.264	0.030
-737.054	-200.000	0.050	-0.377
-736.039	-30.365	0.127	-0.074
-735.025	-200.000	-0.006	0.142
-734.010	224.203	-0.112	0.185
-732.996	-64.030	-0.215	0.090
-731.981	40.653	-0.168	0.154
-730.966	43.956	0.214	-0.201
-729.952	-27.584	-0.244	0.145
-728.937	800.000	0.064	0.279
-727.923	-71.592	0.198	-0.076
-726.908	-200.000	-0.056	-0.255
-725.894	-73.267	0.147	-0.055
-724.879	-12.889	-0.190	-0.127
-723.864	-200.000	-0.010	-0.126
-722.850	266.567	-0.189	-0.337
-721.835	800.000	-0.087	0.306
-720.821	23.900	-0.114	-0.096
-719.806	-200.000	-0.089	-0.486
-718.791	800.000	-0.137	0.389
-717.777	260.231	0.006	-0.011
-716.762	245.924	0.092	0.159
-715.748	190.264	0.102	0.157
-714.733	800.000	-0.007	0.028
-713.718	-49.543	0.287	0.140
-712.704	125.090	0.190	-0.245
-711.689	800.000	0.075	-0.299
-710.675	-104.361	0.252	0.060
-709.660	-67.449	-0.124	-0.050
-708.645	-200.000	-0.030	0.262
-707.631	16.749	0.421	0.341
-706.616	-200.000	-0.015	0.146
-705.602	-141.665	0.262	-0.027
-704.587	230.339	-0.132	-0.220
-703.572	-51.142	0.296	-0.142
-702.558	-103.310	0.098	-0.024
-701.543	-8.610	-0.027	0.018
-700.529	9.787	-0.122	0.094
-699.514	156.782	0.082	-0.116
-698.499	228.812	0.074	-0.124
-697.485	-94.373	-0.193	-0.054
-696.470	-61.955	0.095	0.041
-695.456	-105.739	0.371	0.086
-694.441	169.950	0.108	-0.158
-693.426	736.070	-0.090	-0.245
-692.412	800.000	-0.040	-0.131
-691.397	800.000	0.063	0.254
-690.383	-22.087	-0.182	0.113
-689.368	-124.561	0.224	-0.036
-688.354	-54.968	0.247	0.114
-687.339	35.853	0.179	-0.160
-686.324	33.021	0.171	0.152
-685.310	733.445	-0.084	0.230
-684.295	69.538	-0.079	-0.084
-683.281	-138.896	0.044	-0.005
-682.266	32.982	0.135	-0.120
-681.251	-98.249	-0.077	0.020
-680.237	-146.293	-0.070	0.006
-679.222	1.767	0.184	0.135
-678.208	-101.592	-0.065	0.016
-677.193	-2.231	0.216	0.155
-676.178	800.000	-0.075	0.245
-675.164	211.349	0.073	-0.118
-674.149	-125.614	0.165	0.026
-673.135	-12.731	0.098	-0.065
-672.120	-200.000	0.050	0.331
-671.105	740.686	0.007	0.019
-670.091	-15.435	-0.224	0.146
-669.076	-73.780	0.049	0.018
-668.062	-22.784	-0.292	-0.180
-667.047	-118.952	-0.155	-0.028
-666.032	-121.686	-0.318	-0.054
-665.018	86.941	-0.026	-0.029
-664.003	43.300	-0.178	-0.166
-662.989	-136.787	0.239	0.028
-661.974	800.000	-0.029	-0.101
-660.959	624.269	0.108	0.278
-659.945	23.785	-0.025	0.021
-658.930	260.883	-0.178	0.314
-657.916	-91.092	0.165	0.048
-656.901	-200.000	-0.046	-0.286
-655.886	223.237	-0.180	0.297
-654.872	-139.338	-0.016	-0.002
-653.857	171.302	-0.060	-0.089
-652.843	800.000	-0.082	-0.311
-651.828	-200.000	0.001	0.320
-650.814	-154.895	0.409	-0.027
-649.799	-54.363	0.295	0.136
-648.784	169.143	-0.065	-0.094
-647.770	36.625	0.196	-0.176
-646.755	-102.186	0.197	-0.048
-645.741	62.507	0.066	0.067
-644.726	-54.716	0.338	-0.156
-643.711	-143.151	0.133	-0.013
-642.697	-91.462	0.066	-0.019
-641.682	-200.000	0.351	-0.002
-640.668	-78.672	-0.203	-0.071
-639.653	328.385	0.102	-0.199
-638.638	-8.685	0.327	-0.224
-637.624	-200.000	0.012	-0.377
-636.609	-200.000	-0.003	0.038
-635.595	164.639	0.134	-0.192
-634.580	-200.000	-0.020	0.316
-633.565	-93.233	-0.077	0.022
-632.551	52.266	0.081	0.079
-631.536	-200.000	0.000	0.128
-630.522	800.000	0.096	0.360
-629.507	-82.014	-0.321	0.107
-628.492	34.161	-0.214	-0.190
-627.478	-56.148	0.081	0.037
-626.463	800.000	-0.040	0.165
-625.449	-95.546	-0.286	-0.078
-624.434	800.000	0.108	-0.373
-623.419	-3.600	0.172	0.122
-622.405	-152.453	-0.225	-0.016
-621.390	800.000	-0.031	-0.093
-620.376	-200.000	0.043	-0.297
-619.361	-4.401	0.249	-0.176
-618.346	-5.898	-0.102	0.071
-617.332	-132.582	0.308	-0.040
-616.317	2.669	-0.279	-0.206
-615.303	73.382	0.110	-0.118
-614.288	800.000	0.129	-0.379
-613.273	-200.000	-0.007	0.101
-612.259	800.000	-0.053	-0.181
-611.244	800.000	0.115	0.437
-610.230	800.000	0.027	-0.076
-609.215	-150.520	-0.259	-0.020
-608.201	563.406	0.083	0.204
-607.186	800.000	0.012	-0.039
-606.171	-200.000	0.005	-0.024
-605.157	-143.825	-0.215	0.021
-604.142	-200.000	-0.025	0.223
-603.128	-77.147	0.145	0.051
-602.113	661.491	-0.127	-0.332
-601.098	-11.930	0.124	0.083
-600.084	-200.000	0.029	0.323
-599.069	-200.000	-0.133	-0.001
-598.055	-76.037	-0.211	-0.076
-597.040	-116.517	-0.170	0.032
-596.025	-114.365	0.309	0.060
-595.011	173.248	0.096	0.141
-593.996	-200.000	0.002	-0.097
-592.982	-74.977	0.415	0.151
-591.967	-71.945	-0.254	0.096
-590.952	237.508	-0.012	-0.020
-589.938	-6.952	0.287	-0.199
-588.923	800.000	0.031	0.101
-587.909	97.763	0.161	0.188
-586.894	5.329	0.074	-0.056
-585.879	306.296	0.059	0.112
-584.865	-200.000	-0.003	-0.158
-583.850	800.000	-0.083	0.290
-582.836	117.167	-0.036	0.045
-581.821	-46.127	0.292	0.146
-580.806	-82.050	0.181	-0.060
-579.792	-200.000	-0.002	0.208
-578.777	604.654	-0.053	-0.135
-577.763	15.170	-0.202	-0.161
-576.748	-200.000	0.002	0.040
-575.733	-200.000	0.018	0.264
-574.719	-118.282	0.181	-0.033
-573.704	-39.170	-0.068	0.036
-572.690	-168.187	-0.193	0.008
-571.675	800.000	-0.027	0.118
-570.661	480.575	0.098	-0.227
-569.646	-3.520	-0.176	0.125
-568.631	800.000	0.034	-0.135
-567.617	272.647	-0.104	-0.186
-566.602	-42.675	0.217	0.112
-565.588	69.726	-0.107	-0.112
-564.573	-200.000	0.005	-0.035
-563.558	-200.000	0.015	-0.113
-562.544	254.410	0.124	-0.215
-561.529	210.704	-0.132	-0.210
-560.515	-200.000	-0.005	0.043
-559.500	683.091	-0.083	-0.220
-558.485	-55.062	0.074	-0.034
-557.471	-184.290	-0.187	-0.003
-556.456	-0.739	-0.319	-0.230
-555.442	-43.595	-0.226	-0.116
-554.427	-36.320	-0.094	-0.052
-553.412	-16.695	0.146	-0.094
-552.398	-107.225	0.140	0.031
-551.383	105.127	0.143	-0.172
-550.369	-113.382	-0.233	-0.046
-549.354	2.958	0.030	-0.022
-548.339	651.631	-0.090	-0.235
-547.325	-200.000	0.015	-0.096
-546.310	-72.808	-0.315	-0.118
-545.296	114.225	-0.122	-0.151
-544.281	-123.524	-0.101	-0.016
-543.266	-100.516	-0.073	-0.018
-542.252	-100.297	-0.220	0.055
-541.237	-2.484	0.155	0.110
-540.223	94.261	-0.120	-0.139
-539.208	490.269	0.058	0.135
-538.193	122.308	0.113	-0.144
-537.179	-122.321	-0.233	-0.039
-536.164	-146.352	0.151	0.013
-535.150	800.000	0.055	0.155
-534.135	-133.576	-0.355	-0.045
-533.121	800.000	0.024	0.106
-532.106	-136.370	0.208	-0.025
-531.091	-71.133	0.073	-0.028
-530.077	53.846	0.016	0.016
-529.062	-200.000	0.065	-0.608
-528.048	113.483	0.111	0.137
-527.033	94.632	-0.050	-0.057
-526.018	184.610	0.071	-0.107
-525.004	477.885	0.071	-0.163
-523.989	83.241	-0.108	0.119
-522.975	-47.446	0.015	0.008
-521.960	-103.823	0.242	-0.057
-520.945	100.609	-0.099	-0.117
-519.931	-7.577	-0.354	0.243
-518.916	535.986	-0.025	0.061
-517.902	-167.079	0.159	0.007
-516.887	800.000	-0.094	0.284
-515.872	197.319	0.120	0.185
-514.858	-200.000	-0.025	0.230
-513.843	-103.443	0.166	0.040
-512.829	-4.617	0.175	0.123
-511.814	-57.487	-0.188	-0.084
-510.799	-23.450	-0.232	-0.141
-509.785	-200.000	0.002	-0.158
-508.770	747.390	0.058	0.158
-507.756	499.315	0.072	-0.168
-506.741	51.925	0.062	-0.060
-505.726	-200.000	0.041	-0.376
-504.712	73.724	-0.095	0.101
-503.697	192.949	0.085	-0.130
-502.683	-48.432	-0.328	-0.160
-501.668	56.251	-0.122	-0.120
-500.653	458.335	0.141	0.319
-499.639	-123.304	0.216	0.035
-498.624	70.143	-0.119	-0.124
-497.610	-200.000	-0.014	0.121
-496.595	-200.000	-0.000	0.168
-495.581	15.758	-0.309	0.246
-494.566	-200.000	-0.054	0.277
-493.551	43.455	-0.220	0.204
-492.537	21.723	0.162	0.134
-491.522	8.956	-0.443	0.339
-490.508	-115.541	-0.363	0.069
-489.493	-200.000	0.011	0.172
-488.478	-147.392	-0.135	-0.012
-487.464	-200.000	0.008	-0.174
-486.449	-79.577	-0.194	0.066
-485.435	140.490	0.209	-0.279
-484.420	-92.090	0.246	0.070
-483.405	168.965	0.069	-0.100
-482.391	-122.292	-0.039	0.006
-481.376	743.754	-0.039	-0.107
-480.362	800.000	0.015	0.054
-479.347	-36.845	-0.110	-0.060
-478.332	-33.137	0.368	-0.206
-477.318	435.262	0.077	0.170
-476.303	-200.000	0.057	0.258
-475.289	-200.000	0.000	0.193
-474.274	-63.120	0.182	0.076
-473.259	97.542	0.043	-0.050
-472.245	490.313	-0.038	-0.089
-471.230	800.000	-0.111	-0.365
-470.216	125.425	-0.068	0.086
-469.201	332.188	-0.054	-0.106
-468.186	800.000	0.087	0.298
-467.172	-52.144	-0.160	0.075
-466.157	663.807	-0.024	-0.063
-465.143	-200.000	-0.018	0.124
-464.128	-73.434	0.283	0.105
-463.113	-59.429	0.310	0.135
-462.099	800.000	0.072	-0.276
-461.084	-110.128	0.113	-0.024
-460.070	121.326	-0.080	0.101
-459.055	58.295	-0.298	0.296
-458.040	-3.781	-0.079	-0.055
-457.026	-125.576	0.230	0.035
-456.011	-46.495	-0.104	-0.052
-454.997	-35.672	-0.178	0.098
-453.982	94.995	-0.042	0.049
-452.968	-200.000	0.010	-0.119
-451.953	7.505	-0.165	-0.125
-450.938	800.000	-0.123	-0.409
-449.924	-86.636	-0.216	-0.067
-448.909	-73.548	-0.190	-0.070
-447.895	-63.089	0.185	0.077
-446.880	800.000	-0.093	0.263
-445.865	-122.012	-0.244	0.041
-444.851	547.808	-0.164	-0.398
-443.836	-91.672	-0.261	0.075
-442.822	-64.037	-0.259	0.107
-441.807	-200.000	0.061	-0.330
-440.792	800.000	-0.112	-0.460
-439.778	-191.055	0.198	0.002
-438.763	800.000	-0.074	-0.241
-437.749	20.404	0.132	0.108
-436.734	-120.649	-0.164	-0.028
-435.719	-200.000	0.035	-0.195
-434.705	-24.415	0.176	0.106
-433.690	-121.983	-0.313	-0.052
-432.676	39.752	0.183	-0.166
-431.661	-75.068	0.057	0.020
-430.646	65.551	-0.154	-0.158
-429.632	257.465	0.082	0.143
-428.617	-77.715	0.101	-0.035
-427.603	354.481	-0.042	0.083
-426.588	87.068	0.132	-0.147
-425.573	-119.223	-0.218	0.038
-424.559	800.000	0.122	-0.408
-423.544	-172.022	-0.191	-0.006
-422.530	-52.306	0.114	0.053
-421.515	-19.328	-0.072	-0.045
-420.500	-200.000	0.011	-0.102
-419.486	-77.940	-0.170	0.059
-418.471	-74.620	-0.072	0.026
-417.457	170.036	0.101	0.145
-416.442	129.205	-0.136	0.176
-415.428	74.644	0.275	-0.292
-414.413	-200.000	0.015	0.247
-413.398	800.000	0.025	0.075
-412.384	97.146	0.124	-0.144
-411.369	-1.381	-0.005	-0.004
-410.355	26.594	-0.075	-0.064
-409.340	-29.035	0.203	0.118
-408.325	-99.772	0.191	-0.048
-407.311	-200.000	0.042	0.217
-406.296	26.748	-0.166	-0.141
-405.282	-114.767	-0.196	0.038
-404.267	800.000	0.029	0.088
-403.252	595.366	0.121	0.303
-402.238	340.233	-0.097	0.192
-401.223	-126.644	0.448	-0.067
-400.209	203.655	-0.142	0.223
-399.194	800.000	-0.066	0.215
-398.179	316.608	-0.103	0.197
-397.165	76.113	-0.109	0.116
-396.150	-200.000	-0.009	-0.082
-395.136	158.127	-0.023	0.032
-394.121	-48.646	-0.295	0.143
-393.106	79.562	0.108	0.117
-392.092	101.228	0.147	-0.173
-391.077	-200.000	0.012	-0.130
-390.063	157.181	-0.104	-0.145
-389.048	800.000	-0.080	0.262
-388.033	174.577	-0.084	-0.122
-387.019	-21.203	0.288	-0.178
-386.004	-165.983	0.296	-0.013
-384.990	800.000	0.021	-0.069
-383.975	143.620	0.022	-0.030
-382.960	-114.098	0.122	-0.024
-381.946	237.870	0.187	0.313
-380.931	-200.000	-0.024	-0.152
-379.917	-165.476	0.023	-0.001
-378.902	428.503	0.054	-0.118
-377.888	133.825	0.181	-0.237
-376.873	-18.392	0.084	-0.053
-375.858	-200.000	-0.009	0.221
-374.844	-45.707	-0.116	0.058
-373.829	-73.121	-0.297	-0.110
-372.815	-67.335	-0.057	0.023
-371.800	-200.000	-0.023	-0.206
-370.785	-70.905	-0.238	-0.090
-369.771	134.036	0.071	-0.092
-368.756	217.807	0.059	0.096
-367.742	-200.000	0.004	-0.138
-366.727	-66.922	-0.122	-0.049
-365.712	89.095	-0.047	-0.052
-364.698	83.756	0.180	0.198
-363.683	-200.000	0.052	-0.253
-362.669	184.821	0.015	-0.022
-361.654	800.000	-0.016	0.060
-360.639	-24.538	-0.077	-0.046
-359.625	-200.000	-0.039	0.326
-358.610	283.668	0.054	0.097
-357.596	22.641	0.362	-0.299
-356.581	-159.404	0.066	-0.004
-355.566	61.250	0.083	-0.083
-354.552	68.461	0.238	-0.246
-353.537	800.000	0.080	-0.298
-352.523	-152.861	0.133	0.010
-351.508	800.000	-0.057	0.211
-350.493	402.836	-0.150	-0.317
-349.479	-5.539	0.187	-0.129
-348.464	0.005	0.099	0.071
-347.450	7.404	0.043	-0.032
-346.435	703.387	0.148	-0.392
-345.420	800.000	-0.071	0.225
-344.406	-40.778	-0.093	0.048
-343.391	104.797	-0.149	-0.177
-342.377	-200.000	0.013	0.121
-341.362	-117.881	-0.260	-0.047
-340.348	-121.236	-0.060	0.010
-339.333	581.595	0.070	-0.172
-338.318	613.001	-0.128	-0.324
-337.304	-200.000	-0.036	0.000
-336.289	329.125	-0.123	0.238
-335.275	26.393	-0.071	-0.060
-334.260	55.830	-0.062	-0.060
-333.245	-141.264	-0.184	-0.019
-332.231	101.616	-0.219	0.258
-331.216	-68.673	-0.336	0.131
-330.202	800.000	0.068	0.195
-329.187	800.000	0.109	0.347
-328.172	-57.058	0.176	-0.078
-327.158	167.957	-0.146	-0.210
-326.143	800.000	0.030	0.086
-325.129	27.576	0.160	0.136
-324.114	-88.615	0.085	0.025
-323.099	-193.469	0.191	0.002
-322.085	-66.422	0.382	0.153
-321.070	-200.000	0.190	-0.001
-320.056	16.552	-0.126	-0.100
-319.041	135.990	0.115	0.150
-318.026	-32.323	-0.116	-0.065
-317.012	578.618	-0.070	0.171
-315.997	-200.000	-0.069	0.414
-314.983	800.000	0.037	0.156
-313.968	-6.569	-0.221	0.152
-312.953	800.000	-0.015	0.057
-311.939	-88.220	-0.523	0.158
-310.924	3.390	0.035	0.026
-309.910	22.751	0.076	0.063
-308.895	-200.000	-0.013	0.064
-307.880	-200.000	0.060	0.313
-306.866	1.663	0.154	0.112
-305.851	800.000	0.062	0.180
-304.837	-11.720	-0.114	0.075
-303.822	-38.809	0.211	-0.112
-302.807	366.930	-0.077	0.157
-301.793	-125.755	0.132	0.020
-300.778	-200.000	-0.032	-0.150
-299.764	84.019	0.189	0.208
-298.749	-117.729	-0.135	0.024
-297.735	800.000	-0.029	-0.087
-296.720	-118.813	0.460	-0.081
-295.705	218.047	0.156	-0.250
-294.691	56.830	-0.168	0.164
-293.676	-107.598	0.147	0.032
-292.662	461.456	-0.111	-0.248
-291.647	800.000	-0.048	-0.140
-290.632	159.499	-0.113	-0.158
-289.618	-115.083	0.192	-0.037
-288.603	204.635	0.141	-0.220
-287.589	34.618	-0.378	-0.332
-286.574	215.156	-0.052	0.082
-285.559	220.013	-0.065	0.105
-284.545	-59.766	-0.057	-0.025
-283.530	23.193	0.231	-0.191
-282.516	-36.394	0.235	0.127
-281.501	149.346	0.046	0.063
-280.486	481.587	-0.043	0.098
-279.472	-200.000	-0.036	-0.179
-278.457	800.000	-0.068	-0.293
-277.443	-52.840	0.240	0.111
-276.428	800.000	0.119	0.479
-275.413	-137.500	-0.395	0.045
-274.399	800.000	0.054	0.165
-273.384	-32.685	-0.039	-0.022
-272.370	-175.389	-0.222	0.006
-271.355	-49.370	0.153	0.073
-270.340	800.000	-0.076	0.326
-269.326	-200.000	0.018	0.381
-268.311	-104.392	0.144	0.033
-267.297	-15.410	0.214	-0.138
-266.282	-200.000	-0.068	0.462
-265.267	800.000	0.042	-0.122
-264.253	-85.824	-0.145	-0.045
-263.238	-92.111	-0.279	-0.079
-262.224	800.000	0.064	-0.252
-261.209	-67.930	-0.100	-0.039
-260.195	185.622	-0.115	0.171
-259.180	-20.494	-0.107	0.066
-258.165	-108.250	-0.079	0.017
-257.151	-200.000	-0.015	0.179
-256.136	-129.594	0.216	0.030
-255.122	19.851	0.206	0.166
-254.107	194.879	0.138	0.210
-253.092	-59.824	0.234	-0.101
-252.078	-200.000	0.148	0.001
-251.063	-176.918	0.211	0.005
-250.049	-200.000	0.003	0.062
-249.034	-200.000	-0.012	-0.101
-248.019	-78.779	-0.143	-0.049
-247.005	268.114	-0.095	-0.167
-245.990	-127.845	-0.207	0.030
-244.976	-142.653	0.250	-0.025
-243.961	-200.000	-0.004	0.272
-242.946	-24.175	0.383	-0.230
-241.932	-200.000	-0.010	-0.173
-240.917	800.000	-0.022	-0.085
-239.903	39.243	0.191	0.171
-238.888	89.522	-0.048	0.053
-237.873	-87.060	0.388	-0.119
-236.859	107.453	0.197	-0.236
-235.844	-17.822	0.322	-0.203
-234.830	-25.046	-0.232	-0.138
-233.815	3.927	-0.134	-0.099
-232.800	-115.723	-0.242	-0.045
-231.786	800.000	-0.015	0.047
-230.771	55.096	0.050	-0.049
-229.757	76.283	-0.009	-0.009
-228.742	-200.000	0.063	0.283
-227.727	145.143	0.090	0.120
-226.713	-200.000	-0.052	-0.277
-225.698	131.962	-0.126	0.163
-224.684	200.730	-0.101	0.156
-223.669	-200.000	0.003	0.121
-222.655	80.047	-0.122	-0.131
-221.640	509.473	0.012	0.029
-220.625	-154.128	-0.490	0.033
-219.611	-60.183	-0.064	0.028
-218.596	31.131	-0.206	-0.177
-217.582	-48.884	-0.033	-0.016
-216.567	-29.699	-0.279	-0.160
-215.552	-124.333	-0.206	0.032
-214.538	800.000	0.058	-0.160
-213.523	-200.000	0.007	-0.076
-212.509	-200.000	0.014	-0.413
-211.494	-200.000	-0.051	-0.296
-210.479	-200.000	-0.062	-0.384
-209.465	-198.115	0.323	-0.002
-208.450	-192.871	0.098	0.001
-207.436	-157.132	-0.109	-0.007
-206.421	-165.174	-0.231	0.010
-205.406	800.000	0.053	0.177
-204.392	221.215	0.098	-0.158
-203.377	-98.998	-0.182	0.046
-202.363	-23.031	-0.122	-0.074
-201.348	-20.469	0.137	0.084
-200.333	134.719	-0.121	0.158
-199.319	152.377	-0.151	-0.207
-198.304	55.090	0.422	0.409
-197.290	-105.879	0.282	0.064
-196.275	275.013	0.014	-0.025
-195.260	-200.000	-0.010	-0.085
-194.246	-200.000	-0.052	-0.429
-193.231	146.177	0.221	-0.297
-192.217	131.298	-0.111	0.143
-191.202	-98.534	-0.530	0.136
-190.187	217.187	0.167	0.266
-189.173	-200.000	0.035	0.235
-188.158	0.500	0.129	-0.093
-187.144	400.931	0.049	0.102
-186.129	-63.194	0.336	-0.139
-185.114	355.275	0.108	0.215
-184.100	72.078	0.230	0.240
-183.085	211.630	0.038	-0.060
-182.071	-2.345	0.402	-0.282
-181.056	-200.000	0.040	0.209
-180.042	-200.000	0.015	-0.301
-179.027	-54.805	0.154	-0.069
-178.012	-48.401	-0.409	-0.197
-176.998	800.000	-0.062	0.216
-175.983	55.317	-0.149	0.144
-174.969	-200.000	0.025	0.212
-173.954	77.688	0.185	0.198
-172.939	-162.186	-0.349	-0.018
-171.925	800.000	-0.080	0.312
-170.910	-96.622	-0.381	0.101
-169.896	-200.000	-0.033	0.215
-168.881	670.128	0.058	0.149
-167.866	547.504	-0.035	0.084
-166.852	-47.317	-0.173	0.084
-165.837	102.895	-0.143	0.167
-164.823	-200.000	-0.016	0.146
-163.808	138.582	0.203	0.267
-162.793	800.000	-0.032	-0.108
-161.779	800.000	0.055	-0.234
-160.764	-126.360	0.261	-0.039
-159.750	167.065	-0.163	0.231
-158.735	-25.423	0.061	-0.036
-157.720	-182.812	-0.050	-0.001
-156.706	800.000	-0.047	0.159
-155.691	-96.633	-0.201	-0.053
-154.677	-200.000	0.036	0.262
-153.662	178.717	0.029	-0.042
-152.647	-184.657	-0.186	0.003
-151.633	219.048	0.124	0.199
-150.618	-200.000	-0.038	0.193
-149.604	-114.514	0.541	0.104
-148.589	-145.111	-0.244	0.022
-147.574	729.793	0.035	-0.093
-146.560	800.000	-0.056	-0.169
-145.545	-200.000	0.017	0.223
-144.531	-34.345	-0.143	0.078
-143.516	-115.877	0.158	0.030
-142.502	-200.000	0.018	-0.163
-141.487	47.663	-0.225	-0.210
-140.472	209.632	0.123	-0.192
-139.458	-137.989	0.139	-0.015
-138.443	-69.312	-0.100	-0.038
-137.429	800.000	0.068	0.289
-136.414	81.698	0.180	0.195
-135.399	7.641	0.290	-0.217
-134.385	196.233	0.261	-0.397
-133.370	-50.295	-0.194	0.092
-132.356	-200.000	0.003	0.050
-131.341	388.595	-0.140	-0.289
-130.326	-37.723	0.164	-0.087
-129.312	-67.088	0.311	-0.122
-128.297	61.427	0.132	0.132
-127.283	12.722	-0.215	0.166
-126.268	-200.000	0.055	-0.274
-125.253	-94.443	-0.312	0.085
-124.239	-115.350	0.422	-0.080
-123.224	-20.092	-0.070	0.043
-122.210	52.402	-0.106	-0.101
-121.195	371.558	-0.095	0.194
-120.180	-200.000	0.007	0.258
-119.166	128.359	0.072	0.092
-118.151	800.000	-0.013	0.052
-117.137	-113.217	-0.281	0.055
-116.122	800.000	-0.035	0.108
-115.107	-74.980	0.208	-0.074
-114.093	-66.793	0.293	0.116
-113.078	491.838	-0.146	-0.333
-112.064	-200.000	-0.000	-0.141
-111.049	7.440	-0.033	0.024
-110.034	-200.000	-0.028	-0.276
-109.020	598.295	-0.078	0.193
-108.005	-35.883	-0.183	-0.099
-106.991	-75.890	0.090	-0.032
-105.976	-133.262	-0.152	0.019
-104.962	-32.401	0.185	0.103
-103.947	800.000	0.102	0.320
-102.932	-189.240	-0.289	-0.003
-101.918	800.000	-0.056	-0.174
-100.903	234.397	-0.013	0.021
-99.889	23.881	0.142	0.117
-98.874	-123.351	0.293	-0.047
-97.859	-109.566	-0.334	-0.070
-96.845	-200.000	0.134	0.611
-95.830	-120.702	0.256	0.043
-94.816	-63.197	-0.196	0.081
-93.801	800.000	0.018	-0.072
-92.786	-12.870	0.198	0.129
-91.772	107.707	-0.142	-0.169
-90.757	-46.707	-0.201	0.098
-89.743	37.236	0.054	-0.048
-88.728	-93.537	0.181	-0.050
-87.713	-73.263	-0.119	-0.043
-86.699	-87.514	-0.163	0.049
-85.684	-134.923	0.082	-0.010
-84.670	800.000	-0.058	0.217
-83.655	-11.648	0.298	0.195
-82.640	4.846	-0.439	0.322
-81.626	-79.097	-0.022	0.007
-80.611	-200.000	-0.092	0.438
-79.597	6.815	-0.159	0.118
-78.582	193.289	0.299	0.450
-77.567	-21.274	0.303	-0.185
-76.553	-48.295	0.359	0.172
-75.538	-121.556	0.342	-0.057
-74.524	318.001	-0.142	0.267
-73.509	-59.726	0.123	-0.052
-72.494	434.106	0.042	-0.092
-71.480	800.000	0.069	-0.256
-70.465	175.156	-0.159	0.229
-69.451	139.585	0.270	-0.354
-68.436	-91.997	0.178	0.050
-67.422	32.487	-0.180	-0.155
-66.407	195.518	-0.172	-0.260
-65.392	-161.629	0.228	0.012
-64.378	-200.000	-0.102	0.606
-63.363	-118.406	-0.229	0.040
-62.349	-101.843	0.160	-0.038
-61.334	44.057	-0.596	-0.545
-60.319	449.301	0.200	0.439
-59.305	800.000	-0.210	-0.621
-58.290	86.260	0.291	0.320
-57.276	604.015	0.681	1.688
-56.261	-200.000	76.948	534.893
-55.246	506.607	1357.159	3135.764
-54.232	136.100	2616.282	3397.574
-53.217	117.266	2263.379	2772.180
-52.203	53.844	1688.475	1616.146
-51.188	45.402	1403.810	1290.658
-50.173	41.788	1356.740	1225.237
-49.159	60.026	1391.937	1370.198
-48.144	67.774	1410.623	1436.337
-47.130	46.071	1372.585	1265.875
-46.115	41.786	1356.349	1224.674
-45.100	41.551	1351.285	1218.618
-44.086	41.513	1348.609	1215.926
-43.071	41.482	1346.472	1213.764
-42.057	41.372	1344.168	1210.973
-41.042	41.353	1342.668	1209.459
-40.027	41.479	1340.596	1208.302
-39.013	41.483	1338.896	1206.747
-37.998	41.423	1336.975	1204.608
-36.984	41.525	1335.054	1203.444
-35.969	41.642	1333.093	1202.331
-34.954	41.610	1331.585	1200.735
-33.940	41.671	1330.002	1199.626
-32.925	41.777	1328.407	1198.771
-31.911	41.623	1327.215	1196.729
-30.896	41.765	1325.452	1195.941
-29.881	41.796	1323.908	1194.686
-28.867	41.599	1322.564	1192.250
-27.852	41.613	1321.307	1191.150
-26.838	41.588	1319.487	1189.314
-25.823	41.751	1317.843	1188.756
-24.809	41.645	1316.546	1186.908
-23.794	41.630	1315.140	1185.507
-22.779	41.608	1313.954	1184.257
-21.765	41.579	1312.823	1183.021
-20.750	41.647	1311.362	1182.056
-19.736	41.523	1309.992	1180.043
-18.721	41.502	1308.697	1178.704
-17.706	41.494	1307.600	1177.624
-16.692	41.513	1306.466	1176.671
-15.677	41.673	1304.794	1176.060
-14.663	41.519	1303.979	1174.368
-13.648	41.458	1302.823	1172.925
-12.633	41.562	1301.595	1172.383
-11.619	41.411	1300.685	1170.633
-10.604	41.502	1299.659	1170.197
-9.590	41.441	1298.871	1169.082
-8.575	41.394	1298.272	1168.222
-7.560	41.552	1296.692	1167.675
-6.546	41.447	1295.935	1166.332
-5.531	41.391	1295.145	1165.252
-4.517	41.504	1294.267	1165.074
-3.502	41.613	1293.341	1164.827
-2.487	41.587	1292.275	1163.671
-1.473	41.588	1289.169	1160.832
-0.458	41.090	1274.807	1144.993
0.556	35.820	1255.806	1104.643
1.571	30.411	1256.964	1074.375
2.586	27.815	1268.896	1069.291
3.600	25.750	1256.905	1047.097
4.615	18.436	1178.730	941.841
5.629	6.752	1094.060	814.166
6.644	0.931	1068.841	765.938
7.659	0.343	1066.402	761.155
8.673	0.165	1065.770	759.739
9.688	0.025	1064.444	758.020
10.702	0.241	1062.865	757.916
11.717	6.025	1071.075	792.969
12.731	15.303	1083.152	849.019
13.746	18.252	1085.709	865.887
14.761	17.340	1083.227	859.227
15.775	16.067	1081.465	851.326
16.790	15.185	1079.271	845.078
17.804	14.325	1077.623	839.383
18.819	13.864	1076.672	836.245
19.834	13.772	1075.236	834.591
20.848	13.407	1074.601	832.190
21.863	13.216	1074.025	830.714
22.877	13.148	1073.005	829.506
23.892	13.005	1072.233	828.119
24.907	13.026	1071.733	827.767
25.921	13.008	1070.894	826.956
26.936	13.005	1070.484	826.551
27.950	13.200	1068.779	826.133
28.965	13.285	1067.465	825.471
29.980	13.173	1066.596	824.165
30.994	13.192	1065.766	823.547
32.009	13.291	1064.639	823.096
33.023	13.199	1063.493	821.680
34.038	13.253	1062.563	821.160
35.053	13.143	1062.034	820.128
36.067	13.219	1060.547	819.284
37.082	13.170	1059.733	818.343
38.096	13.196	1059.237	818.014
39.111	13.084	1059.019	817.218
40.126	13.156	1057.197	816.096
41.140	13.144	1055.469	814.631
42.155	12.994	1054.765	813.278
43.169	12.988	1054.100	812.661
44.184	12.979	1052.855	811.587
45.199	12.912	1052.113	810.615
46.213	13.049	1050.946	810.318
47.228	13.132	1049.626	809.632
48.242	13.137	1048.735	808.898
49.257	13.136	1047.508	807.876
50.271	13.034	1046.428	806.473
51.286	13.168	1045.554	806.382
52.301	13.189	1044.913	805.918
53.315	13.213	1043.782	805.095
54.330	13.192	1043.049	804.356
55.344	13.111	1042.021	803.097
56.359	13.151	1041.193	802.580
57.374	13.073	1040.638	801.704
58.388	13.049	1039.466	800.611
59.403	12.946	1038.808	799.537
60.417	12.955	1037.543	798.537
61.432	12.935	1037.332	798.207
62.447	13.009	1036.297	797.695
63.461	12.908	1035.285	796.358
64.476	12.938	1034.384	795.740
65.490	12.890	1033.985	795.132
66.505	12.930	1033.727	795.057
67.520	12.880	1032.663	793.929
68.534	13.114	1031.458	794.056
69.549	12.911	1031.282	792.871
70.563	13.009	1030.310	792.525
71.578	12.937	1029.498	791.484
72.593	12.891	1028.915	790.750
73.607	12.881	1027.830	789.795
74.622	12.932	1027.412	789.647
75.636	12.901	1026.745	788.919
76.651	12.855	1025.925	787.998
77.666	12.970	1025.283	787.983
78.680	12.943	1024.458	787.153
79.695	13.009	1023.514	786.672
80.709	12.993	1023.403	786.439
81.724	12.904	1022.570	785.308
82.739	13.133	1021.622	785.598
83.753	13.109	1020.980	784.921
84.768	13.212	1019.518	784.216
85.782	13.189	1019.084	783.704
86.797	13.136	1018.119	782.640
87.812	13.166	1017.286	782.075
88.826	13.180	1015.981	781.067
89.841	13.193	1015.353	780.576
90.855	13.256	1014.637	780.257
91.870	13.296	1013.746	779.693
92.884	13.208	1012.753	778.445
93.899	13.319	1011.509	777.940
94.914	13.314	1011.080	777.519
95.928	13.358	1010.492	777.204
96.943	13.142	1009.531	775.380
97.957	13.205	1008.666	774.944
98.972	13.245	1007.795	774.395
99.987	13.197	1007.122	773.583
101.001	13.164	1006.040	772.530
102.016	13.273	1005.521	772.574
103.030	13.260	1004.436	771.611
104.045	13.250	1003.705	770.932
105.060	13.231	1002.591	769.918
106.074	13.100	1002.116	768.878
107.089	13.135	1000.723	767.901
108.103	13.090	999.953	767.037
109.118	13.045	999.248	766.217
110.133	13.046	998.315	765.441
111.147	12.955	997.736	764.509
112.162	13.205	996.675	764.784
113.176	13.149	995.948	763.900
114.191	13.143	995.114	763.161
115.206	13.178	994.314	762.645
116.220	13.214	993.507	762.124
117.235	13.156	992.291	760.858
118.249	13.134	991.790	760.303
119.264	13.126	991.044	759.626
120.279	13.188	990.122	759.136
121.293	13.137	989.385	758.271
122.308	13.082	988.305	757.126
123.322	13.162	987.059	756.472
124.337	13.081	985.986	755.210
125.352	13.147	984.981	754.674
126.366	13.118	984.095	753.797
127.381	13.079	982.922	752.656
128.395	13.133	981.854	752.014
129.410	13.193	981.321	751.815
130.424	13.242	979.954	750.922
131.439	13.233	979.482	750.456
132.454	13.362	978.509	750.227
133.468	13.354	977.909	749.665
134.483	13.353	977.406	749.209
135.497	13.293	976.306	748.027
136.512	13.362	975.239	747.456
137.527	13.280	974.434	746.403
138.541	13.271	973.867	745.863
139.556	13.310	973.294	745.530
140.570	13.392	972.651	745.341
141.585	13.471	971.560	744.798
142.600	13.552	970.321	744.143
143.614	13.476	969.582	743.169
144.629	13.471	968.751	742.445
145.643	13.468	967.863	741.687
146.658	13.453	966.804	740.741
147.673	13.468	965.869	740.028
148.687	13.451	964.854	739.107
149.702	13.388	964.090	738.178
150.716	13.322	963.319	737.228
151.731	13.361	962.368	736.609
152.746	13.259	962.213	735.970
153.760	13.367	961.536	735.867
154.775	13.425	961.038	735.679
155.789	13.404	960.285	734.944
156.804	13.421	959.543	734.388
157.819	13.477	958.716	733.935
158.833	13.462	958.052	733.296
159.848	13.581	957.298	733.182
160.862	13.545	956.486	732.335
161.877	13.544	954.991	731.124
162.892	13.529	954.156	730.353
163.906	13.413	953.640	729.379
164.921	13.543	952.685	729.157
165.935	13.466	952.285	728.448
166.950	13.477	950.849	727.333
167.964	13.454	950.311	726.756
168.979	13.502	949.314	726.141
169.994	13.449	948.306	725.072
171.008	13.554	947.776	725.064
172.023	13.533	947.245	724.502
173.037	13.581	946.622	724.169
174.052	13.582	945.459	723.222
175.067	13.451	945.197	722.385
176.081	13.495	944.462	721.951
177.096	13.581	943.745	721.715
178.110	13.565	943.203	721.165
179.125	13.723	942.566	721.304
180.140	13.553	942.306	720.302
181.154	13.647	941.783	720.247
182.169	13.696	941.135	719.899
183.183	13.695	940.451	719.309
184.198	13.704	939.505	718.560
185.213	13.676	939.097	718.063
186.227	13.764	938.055	717.581
187.242	13.728	937.814	717.178
188.256	13.771	937.214	716.842
189.271	13.807	936.086	716.072
190.286	13.684	935.496	715.026
191.300	13.632	934.671	714.110
192.315	13.560	934.431	713.554
193.329	13.524	934.116	713.095
194.344	13.667	933.219	712.963
195.359	13.780	932.465	712.809
196.373	13.880	931.935	712.767
197.388	13.944	931.586	712.712
198.402	13.838	931.324	711.994
199.417	13.968	930.172	711.610
200.432	13.986	930.045	711.525
201.446	13.962	929.278	710.774
202.461	14.218	928.393	711.128
203.475	14.018	928.317	710.153
204.490	14.019	927.336	709.344
205.504	14.081	926.218	708.690
206.519	14.116	925.463	708.197
207.534	14.011	925.233	707.513
208.548	14.026	924.184	706.710
209.563	14.025	923.806	706.354
210.577	14.010	923.386	705.907
211.592	14.109	922.364	705.483
212.607	14.153	921.582	705.011
213.621	14.222	920.805	704.646
214.636	14.273	920.122	704.277
215.650	14.197	919.575	703.472
216.665	14.237	918.657	702.879
217.680	14.349	918.049	702.824
218.694	14.220	917.316	701.656
219.709	14.242	916.808	701.296
220.723	14.344	916.219	701.214
221.738	14.326	915.485	700.515
222.753	14.220	915.040	699.666
223.767	14.261	914.426	699.307
224.782	14.254	913.675	698.643
225.796	14.389	912.934	698.581
226.811	14.345	912.432	697.950
227.826	14.298	912.041	697.393
228.840	14.346	911.178	696.869
229.855	14.446	909.859	696.219
230.869	14.236	909.588	695.072
231.884	14.423	908.862	695.237
232.899	14.306	908.083	694.092
233.913	14.281	907.502	693.484
234.928	14.332	906.623	692.961
235.942	14.287	906.298	692.465
236.957	14.238	905.813	691.829
237.972	14.186	905.443	691.270
238.986	14.251	904.563	690.806
240.001	14.333	903.340	690.149
241.015	14.444	903.018	690.304
242.030	14.342	902.161	689.165
243.045	14.455	901.795	689.290
244.059	14.447	901.184	688.732
245.074	14.437	900.659	688.227
246.088	14.596	899.706	688.093
247.103	14.433	899.108	686.903
248.117	14.486	898.776	686.809
249.132	14.739	897.967	687.172
250.147	14.654	897.454	686.367
251.161	14.769	896.698	686.201
252.176	14.810	895.924	685.717
253.190	14.817	895.352	685.246
254.205	14.952	894.541	685.118
255.220	14.907	893.947	684.416
256.234	14.766	893.295	683.279
257.249	14.957	892.600	683.471
258.263	14.818	892.244	682.568
259.278	14.913	891.411	682.259
260.293	14.977	890.989	682.135
261.307	14.941	890.552	681.597
262.322	15.061	889.402	681.142
263.336	15.106	888.755	680.771
264.351	15.015	888.136	679.867
265.366	15.107	887.659	679.812
266.380	15.054	887.058	679.081
267.395	15.010	886.415	678.349
268.409	15.017	885.832	677.869
269.424	15.149	884.857	677.600
270.439	15.140	884.352	677.116
271.453	15.083	883.242	675.977
272.468	15.058	882.840	675.508
273.482	15.177	882.474	675.648
274.497	15.204	881.571	675.004
275.512	15.087	880.940	673.990
276.526	15.048	880.740	673.620
277.541	15.071	880.643	673.578
278.555	15.123	879.923	673.177
279.570	15.200	879.132	672.824
280.585	15.330	878.080	672.478
281.599	15.243	877.163	671.369
282.614	15.193	876.621	670.697
283.628	15.263	876.128	670.537
284.643	15.200	875.621	669.838
285.657	15.304	875.053	669.759
286.672	15.207	874.768	669.095
287.687	15.289	873.729	668.568
288.701	15.285	873.363	668.216
289.716	15.346	872.649	667.852
290.730	15.279	872.056	667.070
291.745	15.260	871.480	666.497
292.760	15.414	870.688	666.444
293.774	15.386	870.500	666.132
294.789	15.447	869.671	665.677
295.803	15.457	868.906	665.073
296.818	15.476	868.077	664.454
297.833	15.344	867.678	663.571
298.847	15.583	866.750	663.743
299.862	15.471	866.347	662.937
300.876	15.577	865.632	662.749
301.891	15.597	865.305	662.516
302.906	15.559	864.749	661.883
303.920	15.601	864.265	661.620
304.935	15.727	863.593	661.544
305.949	15.682	863.158	660.973
306.964	15.735	862.217	660.405
307.979	15.750	861.497	659.853
308.993	15.623	861.438	659.251
310.008	15.776	860.824	659.322
311.022	15.695	860.228	658.489
312.037	15.762	859.853	658.405
313.052	15.721	858.877	657.439
314.066	15.692	858.480	656.964
315.081	15.701	857.615	656.282
316.095	15.663	857.376	655.891
317.110	15.701	856.561	655.358
318.125	15.714	856.266	655.123
319.139	15.574	856.047	654.354
320.154	15.706	855.355	654.282
321.168	15.691	854.866	653.792
322.183	15.790	854.034	653.480
323.197	15.768	853.556	652.974
324.212	15.766	853.131	652.581
325.227	15.829	852.325	652.150
326.241	15.950	851.606	652.012
327.256	15.882	851.345	651.490
328.270	15.910	850.392	650.812
329.285	15.865	849.641	650.008
330.300	15.845	849.581	649.828
331.314	15.789	848.933	649.055
332.329	15.947	848.590	649.348
333.343	15.875	848.418	648.881
334.358	15.813	847.687	648.025
335.373	15.950	847.087	648.036
336.387	16.020	846.643	647.908
337.402	16.027	846.561	647.814
338.416	16.213	845.796	647.886
339.431	16.121	845.927	647.576
340.446	16.166	845.224	647.152
341.460	16.234	844.647	646.914
342.475	16.273	844.166	646.639
343.489	16.235	844.257	646.506
344.504	16.219	843.478	645.790
345.519	16.175	843.360	645.475
346.533	16.318	842.531	645.328
347.548	16.348	841.991	644.975
348.562	16.264	841.438	644.172
349.577	16.225	841.157	643.751
350.592	16.170	840.512	642.990
351.606	16.324	838.922	642.302
352.621	16.060	839.188	641.446
353.635	16.234	838.282	641.356
354.650	16.372	837.817	641.469
355.665	16.394	836.901	640.795
356.679	16.420	836.428	640.474
357.694	16.311	836.294	639.902
358.708	16.458	835.118	639.502
359.723	16.349	834.833	638.814
360.738	16.375	833.993	638.213
361.752	16.380	833.508	637.804
362.767	16.428	832.927	637.486
363.781	16.406	832.634	637.120
364.796	16.548	831.889	637.029
365.810	16.637	831.488	637.002
366.825	16.671	831.230	636.877
367.840	16.732	830.430	636.437
368.854	16.633	830.254	635.874
369.869	16.677	829.785	635.623
370.883	16.736	828.889	635.101
371.898	16.698	828.706	634.760
372.913	16.777	828.541	634.874
373.927	16.758	827.884	634.246
374.942	16.729	827.532	633.809
375.956	16.818	827.161	633.803
376.971	16.799	826.617	633.258
377.986	16.939	826.411	633.569
379.000	16.907	825.626	632.791
380.015	16.944	825.134	632.496
381.029	16.926	824.655	632.007
382.044	16.893	823.947	631.285
383.059	16.859	823.292	630.600
384.073	17.039	822.572	630.663
385.088	16.893	822.498	630.006
386.102	16.781	822.157	629.272
387.117	16.800	821.391	628.701
388.132	16.804	820.678	628.117
389.146	16.966	820.455	628.491
390.161	16.927	820.176	628.077
391.175	16.879	819.402	627.249
392.190	17.125	818.423	627.355
393.205	17.079	818.172	626.935
394.219	16.964	818.094	626.396
395.234	16.953	817.688	625.990
396.248	16.821	817.286	625.141
397.263	16.969	816.439	624.980
398.278	16.888	816.262	624.493
399.292	16.945	815.955	624.413
400.307	16.994	815.497	624.187
401.321	16.816	815.400	623.402
402.336	16.986	814.448	623.246
403.350	17.043	813.965	623.028
404.365	17.036	813.402	622.515
405.380	17.208	812.978	622.768
406.394	17.224	812.547	622.440
407.409	17.279	812.120	622.261
408.423	17.129	812.074	621.622
409.438	17.278	811.665	621.797
410.453	17.273	810.976	621.196
411.467	17.359	810.228	620.883
412.482	17.375	809.891	620.628
413.496	17.398	809.650	620.470
414.511	17.364	809.078	619.854
415.526	17.405	808.653	619.623
416.540	17.610	808.235	619.996
417.555	17.499	807.775	619.184
418.569	17.438	807.552	618.736
419.584	17.467	807.267	618.568
420.599	17.487	806.638	618.104
421.613	88.661	1258.762	1349.436
422.628	75.731	1324.673	1349.592
