DTS Sentinel unit serial number:	SN413079Multiplexer serial number:	ORYXHardware model number:	OX4-SRSoftware version number:	ORYX F/W v4.00 Oryx Data Collector v3.7.2.0data status	okinstallation	princeton_trtdifferential loss correction	single-endedforward channel	channel 1reverse channel	N/Adate	2019/09/12time	19:46:34forward acquisition time	15.00reverse acquisition time	0.00gamma	496.2192k internal	0.2323k external	0.2323temperature offset calibration	1.0139default loss term (dB/km)	0.3790temperature slope calibration	1.0000multiplexer offset coefficient	1.0000multiplexer slope coefficient	1.0000fibre end	0.00T internal ref (°C)	32.00T ext. ref 1 (°C)	3.37T ext. ref 2 (°C)	26.58length (m)	temperature (°C)	Stokes	anti-Stokes-747.200	269.512	-0.379	0.671
-746.185	-200.000	-0.010	-0.266
-745.171	-119.028	-0.609	0.108
-744.156	25.597	-0.195	0.164
-743.142	-68.168	-0.774	0.304
-742.127	10.140	-0.799	0.613
-741.112	-28.897	0.140	-0.081
-740.098	369.205	-0.060	-0.122
-739.083	65.020	-0.337	0.344
-738.069	-200.000	-0.108	-0.739
-737.054	-200.000	0.034	0.600
-736.039	0.469	-0.285	0.206
-735.025	16.935	-0.328	-0.262
-734.010	-200.000	-0.091	-0.611
-732.996	-20.011	0.542	0.338
-731.981	800.000	-0.116	-0.500
-730.966	-127.749	-0.192	0.028
-729.952	160.442	0.092	-0.129
-728.937	-200.000	0.054	1.274
-727.923	-139.882	-0.944	-0.101
-726.908	232.793	-0.168	-0.279
-725.894	-70.826	0.457	-0.174
-724.879	57.313	-0.121	-0.119
-723.864	24.057	0.959	0.799
-722.850	-41.721	-0.277	-0.144
-721.835	-102.639	-0.635	-0.153
-720.821	-28.976	-0.279	-0.162
-719.806	-88.544	0.246	-0.074
-718.791	-200.000	0.064	0.743
-717.777	-42.346	0.789	-0.406
-716.762	-103.804	-0.637	-0.150
-715.748	113.076	-0.236	-0.289
-714.733	800.000	-0.149	-0.507
-713.718	290.259	-0.370	0.679
-712.704	205.354	0.403	-0.631
-711.689	2.668	-0.229	0.168
-710.675	272.538	-0.206	-0.366
-709.660	800.000	0.042	0.148
-708.645	225.948	-0.145	0.237
-707.631	-10.252	-0.362	-0.242
-706.616	45.760	0.273	0.255
-705.602	-200.000	0.015	-0.535
-704.587	-139.055	0.965	0.105
-703.572	-100.947	-0.459	0.114
-702.558	-153.429	0.630	0.044
-701.543	-89.459	-0.339	0.101
-700.529	800.000	-0.028	-0.119
-699.514	139.054	0.742	0.983
-698.499	-47.056	-0.872	0.429
-697.485	22.618	-0.696	-0.574
-696.470	-200.000	-0.059	-0.337
-695.456	-146.172	0.543	-0.048
-694.441	-133.408	-0.655	0.083
-693.426	800.000	-0.182	-0.695
-692.412	-200.000	0.018	-0.526
-691.397	-159.252	-0.586	-0.033
-690.383	-200.000	-0.096	-0.657
-689.368	-23.189	0.180	-0.109
-688.354	16.607	-0.754	0.601
-687.339	-66.598	1.161	0.464
-686.324	621.564	-0.221	0.559
-685.310	-200.000	0.115	-0.748
-684.295	-48.151	-0.399	-0.194
-683.281	85.988	0.666	0.739
-682.266	75.558	-0.245	0.261
-681.251	205.002	0.076	0.119
-680.237	43.522	0.388	0.357
-679.222	588.913	-0.330	-0.819
-678.208	-200.000	-0.043	0.523
-677.193	363.094	-0.073	-0.148
-676.178	55.207	0.342	-0.333
-675.164	-134.264	-1.017	0.126
-674.149	-149.505	0.620	-0.049
-673.135	-94.994	0.191	0.052
-672.120	-77.783	0.340	0.118
-671.105	191.054	0.241	-0.366
-670.091	148.767	0.215	0.292
-669.076	372.773	0.028	0.057
-668.062	-200.000	0.143	1.426
-667.047	-26.963	-0.162	0.096
-666.032	352.879	0.051	-0.101
-665.018	458.684	0.205	-0.460
-664.003	-60.400	0.681	-0.292
-662.989	80.835	0.469	-0.510
-661.974	800.000	0.144	0.507
-660.959	-75.035	-0.474	-0.171
-659.945	-200.000	0.080	0.408
-658.930	31.732	0.619	-0.536
-657.916	-73.243	0.449	-0.165
-656.901	-70.112	-0.058	-0.022
-655.886	-82.681	-0.438	0.143
-654.872	144.549	-0.245	-0.329
-653.857	-200.000	0.036	0.458
-652.843	452.158	-0.192	-0.427
-651.828	-200.000	0.074	-0.412
-650.814	-89.985	0.870	0.256
-649.799	-160.976	-0.126	-0.007
-648.784	-104.638	0.147	-0.034
-647.770	490.713	-0.193	-0.445
-646.755	80.927	0.325	-0.353
-645.741	-92.443	-0.284	0.080
-644.726	-200.000	0.102	-0.475
-643.711	-200.000	-0.079	-0.553
-642.697	-200.000	0.032	0.497
-641.682	800.000	-0.246	-0.822
-640.668	-29.421	0.564	-0.325
-639.653	408.709	0.028	0.059
-638.638	-5.228	0.567	0.392
-637.624	21.676	-0.274	0.224
-636.609	-92.114	-0.365	-0.104
-635.595	3.137	-0.144	0.106
-634.580	93.862	-0.345	0.394
-633.565	-200.000	-0.203	1.049
-632.551	-200.000	-0.035	-0.704
-631.536	42.133	0.422	0.386
-630.522	-200.000	-0.053	-0.282
-629.507	4.032	-0.471	0.346
-628.492	-200.000	-0.170	-0.774
-627.478	-200.000	0.031	-0.377
-626.463	-43.587	0.616	-0.312
-625.449	299.872	-0.035	0.064
-624.434	-81.290	-0.643	-0.213
-623.419	69.224	-0.667	-0.689
-622.405	-200.000	-0.048	0.956
-621.390	-146.586	-0.216	0.019
-620.376	-45.187	-0.077	-0.038
-619.361	233.198	-0.086	-0.142
-618.346	339.878	-0.075	-0.146
-617.332	13.361	0.398	0.310
-616.317	229.055	-0.170	-0.279
-615.303	-200.000	-0.033	-0.952
-614.288	-127.789	-0.699	-0.101
-613.273	800.000	-0.201	0.627
-612.259	-200.000	-0.084	0.448
-611.244	-146.022	0.232	0.021
-610.230	-98.914	0.515	-0.131
-609.215	-70.261	0.871	-0.332
-608.201	35.400	-0.222	0.196
-607.186	-200.000	0.085	-0.441
-606.171	519.398	0.472	-1.110
-605.157	35.117	-0.171	0.150
-604.142	-100.052	-0.537	0.134
-603.128	-76.604	-0.570	-0.201
-602.113	94.540	-0.432	0.493
-601.098	474.774	0.213	-0.483
-600.084	184.157	0.310	-0.461
-599.069	-42.650	-0.956	0.489
-598.055	-70.318	0.320	0.122
-597.040	-122.556	0.749	-0.122
-596.025	-184.506	0.963	0.016
-595.011	-169.122	0.470	0.018
-593.996	30.282	0.693	-0.594
-592.982	-42.427	-0.554	-0.284
-591.967	-200.000	0.022	-0.414
-590.952	-37.742	-1.239	-0.662
-589.938	109.658	-0.568	-0.684
-588.923	-200.000	0.067	-0.874
-587.909	40.574	0.529	-0.478
-586.894	79.519	0.604	0.650
-585.879	31.503	0.506	0.436
-584.865	-143.001	-0.296	0.029
-583.850	-188.809	-0.434	0.005
-582.836	21.581	-0.310	0.253
-581.821	-200.000	0.033	-0.584
-580.806	-35.866	0.277	0.151
-579.792	800.000	0.122	0.399
-578.777	563.033	0.177	-0.430
-577.763	-200.000	0.020	-0.969
-576.748	-167.940	0.594	0.023
-575.733	-200.000	0.055	0.487
-574.719	-200.000	0.073	-0.903
-573.704	-66.604	0.313	0.124
-572.690	800.000	-0.116	0.354
-571.675	95.671	0.478	0.548
-570.661	319.169	0.180	-0.342
-569.646	-78.856	-0.244	-0.083
-568.631	69.543	-0.494	-0.510
-567.617	243.485	0.541	0.910
-566.602	800.000	-0.015	0.059
-565.588	-85.679	-0.291	-0.091
-564.573	-106.190	0.135	-0.030
-563.558	-200.000	0.084	0.526
-562.544	-165.712	0.303	-0.013
-561.529	-44.475	-1.041	-0.522
-560.515	288.484	-0.227	0.412
-559.500	16.694	0.600	-0.476
-558.485	-56.942	0.193	0.086
-557.471	-200.000	0.105	-0.544
-556.456	107.592	0.378	0.452
-555.442	-151.218	0.331	-0.025
-554.427	1.383	0.201	-0.145
-553.412	800.000	-0.193	0.649
-552.398	800.000	-0.112	0.345
-551.383	21.938	0.777	-0.635
-550.369	-47.030	-0.200	-0.098
-549.354	-52.041	0.277	-0.129
-548.339	800.000	0.284	-0.812
-547.325	628.572	-0.227	-0.574
-546.310	-46.053	-0.659	-0.326
-545.296	111.090	-0.390	-0.471
-544.281	-167.421	-0.391	-0.016
-543.266	-28.658	0.067	-0.039
-542.252	-200.000	0.077	0.492
-541.237	-65.764	-0.546	-0.219
-540.223	-200.000	0.059	0.505
-539.208	-200.000	0.069	0.351
-538.193	152.383	-0.362	-0.495
-537.179	-63.324	0.399	-0.164
-536.164	-69.108	-0.553	0.213
-535.150	-11.153	-0.803	0.530
-534.135	329.713	0.446	-0.859
-533.121	-187.757	-0.897	0.012
-532.106	699.124	-0.092	-0.243
-531.091	-36.715	0.286	-0.154
-530.077	-139.505	0.111	-0.012
-529.062	-80.109	0.691	0.232
-528.048	-130.715	-0.416	0.056
-527.033	-200.000	0.016	-0.434
-526.018	-33.082	-0.395	-0.219
-525.004	341.809	0.218	-0.428
-523.989	-0.667	0.423	0.300
-522.975	-137.531	-0.854	0.097
-521.960	-154.474	0.884	-0.059
-520.945	-200.000	-0.117	-0.611
-519.931	800.000	-0.152	-0.517
-518.916	80.635	0.340	-0.366
-517.902	238.446	-0.255	-0.423
-516.887	-59.743	-0.153	-0.066
-515.872	-93.119	-0.468	0.130
-514.858	58.612	-0.144	-0.141
-513.843	-200.000	-0.207	-0.960
-512.829	800.000	0.098	-0.305
-511.814	92.186	0.378	0.427
-510.799	121.811	0.417	0.520
-509.785	-200.000	-0.007	0.231
-508.770	446.213	0.273	-0.600
-507.756	101.101	0.277	0.322
-506.741	800.000	0.193	0.648
-505.726	-95.985	0.126	0.034
-504.712	-19.658	0.764	-0.473
-503.697	-131.349	-0.473	0.063
-502.683	-116.295	-0.667	-0.124
-501.668	-200.000	-0.001	0.426
-500.653	124.691	-0.546	0.687
-499.639	573.833	-0.266	0.649
-498.624	-140.768	-0.519	0.054
-497.610	-64.561	-0.108	0.044
-496.595	235.831	0.304	-0.503
-495.581	167.038	-0.253	-0.358
-494.566	-1.590	-0.424	0.299
-493.551	-44.409	-0.895	0.448
-492.537	-125.446	-1.026	0.156
-491.522	-36.517	0.448	0.241
-490.508	800.000	0.123	0.393
-489.493	-9.079	-0.238	0.159
-488.478	-125.346	0.563	0.086
-487.464	419.891	0.118	-0.254
-486.449	800.000	0.096	-0.269
-485.435	-200.000	0.268	1.289
-484.420	-62.028	0.619	0.259
-483.405	797.933	-0.059	-0.164
-482.391	800.000	-0.117	0.415
-481.376	-200.000	0.010	-0.692
-480.362	4.156	0.601	0.440
-479.347	97.053	-0.116	-0.133
-478.332	661.283	-0.083	-0.213
-477.318	-15.137	0.211	0.135
-476.303	-173.070	0.317	-0.010
-475.289	39.799	-0.313	0.280
-474.274	85.379	-0.356	0.391
-473.259	-113.920	0.875	-0.170
-472.245	-5.386	-0.589	-0.404
-471.230	746.946	-0.123	-0.331
-470.216	56.003	-0.370	0.358
-469.201	-90.050	-1.167	0.340
-468.186	-113.966	-0.527	0.102
-467.172	-200.000	0.125	0.606
-466.157	-31.074	0.165	-0.093
-465.143	-78.046	0.967	0.333
-464.128	-38.303	-0.586	-0.310
-463.113	-40.765	-0.268	0.139
-462.099	-165.095	-0.172	-0.008
-461.084	-177.008	-0.575	0.014
-460.070	-200.000	-0.051	0.853
-459.055	-200.000	0.108	-0.498
-458.040	66.910	-0.280	-0.285
-457.026	-30.251	0.793	0.450
-456.011	-200.000	0.183	1.129
-454.997	-184.879	0.918	0.015
-453.982	800.000	-0.179	-0.551
-452.968	-117.416	0.580	-0.105
-451.953	328.689	0.099	-0.190
-450.938	-95.358	0.215	0.058
-449.924	-200.000	0.014	-0.124
-448.909	-1.080	0.324	-0.229
-447.895	-50.068	0.366	0.173
-446.880	-37.834	-0.381	0.202
-445.865	800.000	0.214	0.759
-444.851	-119.714	0.411	-0.071
-443.836	-69.600	-0.215	0.082
-442.822	-200.000	-0.191	-1.072
-441.807	-138.447	-0.172	0.019
-440.792	222.685	-0.229	0.368
-439.778	-41.145	-0.746	0.384
-438.763	-83.527	-0.626	0.200
-437.749	31.897	-0.477	-0.410
-436.734	-22.607	-0.363	-0.219
-435.719	148.025	0.571	0.768
-434.705	148.412	-0.098	0.133
-433.690	-63.896	-0.762	-0.311
-432.676	800.000	-0.219	0.632
-431.661	441.908	0.375	0.820
-430.646	-38.802	0.657	-0.346
-429.632	24.149	-0.199	-0.164
-428.617	5.148	-0.707	-0.520
-427.603	-92.464	0.411	0.115
-426.588	251.646	0.295	-0.501
-425.573	-123.787	0.357	-0.056
-424.559	800.000	-0.161	-0.567
-423.544	63.791	0.539	-0.540
-422.530	-65.682	0.978	-0.391
-421.515	387.547	-0.390	0.805
-420.500	800.000	0.213	0.707
-419.486	-200.000	-0.003	0.776
-418.471	315.134	-0.325	-0.610
-417.457	800.000	0.340	1.471
-416.442	58.068	0.529	0.517
-415.428	-200.000	-0.035	0.460
-414.413	-106.800	-0.496	-0.110
-413.398	-96.485	0.590	-0.155
-412.384	185.467	0.399	0.591
-411.369	333.330	-0.130	-0.251
-410.355	-9.941	-0.749	0.496
-409.340	-200.000	-0.090	0.433
-408.325	800.000	-0.192	0.635
-407.311	-200.000	-0.028	-0.185
-406.296	-49.094	-0.179	-0.085
-405.282	88.866	-0.499	0.554
-404.267	159.396	0.674	0.935
-403.252	-95.808	0.860	0.229
-402.238	-155.215	-0.474	-0.031
-401.223	-200.000	-0.274	-1.274
-400.209	-40.035	0.255	-0.133
-399.194	-200.000	0.032	-0.582
-398.179	800.000	0.170	0.619
-397.165	32.151	-0.696	-0.598
-396.150	-200.000	0.042	-0.211
-395.136	-93.534	-0.847	0.233
-394.121	35.557	-0.838	0.733
-393.106	157.100	-0.259	0.356
-392.092	131.135	0.448	-0.573
-391.077	800.000	-0.105	-0.297
-390.063	-150.043	0.522	0.040
-389.048	-80.185	-0.297	0.099
-388.033	778.417	0.170	0.462
-387.019	394.218	-0.211	-0.438
-386.004	100.507	0.128	-0.148
-384.990	11.271	0.528	0.403
-383.975	76.648	-0.008	-0.008
-382.960	-31.870	-0.647	-0.361
-381.946	38.523	-0.355	-0.316
-380.931	-164.496	0.957	-0.043
-379.917	-200.000	0.070	-0.649
-378.902	-50.093	0.475	-0.224
-377.888	800.000	0.267	-0.814
-376.873	-86.444	0.373	0.114
-375.858	-31.001	-0.320	-0.180
-374.844	117.610	-0.444	0.545
-373.829	3.320	0.472	0.342
-372.815	560.276	0.206	0.495
-371.800	-108.810	-0.647	0.138
-370.785	800.000	-0.124	0.350
-369.771	105.369	0.387	-0.454
-368.756	-92.381	-0.690	0.193
-367.742	-74.450	-0.180	-0.065
-366.727	-126.600	0.345	0.051
-365.712	166.247	0.242	-0.341
-364.698	-159.398	-0.313	0.017
-363.683	-21.485	0.462	-0.280
-362.669	-132.943	0.838	0.106
-361.654	239.648	-0.379	0.627
-360.639	-189.631	-0.871	-0.010
-359.625	-143.138	0.741	0.071
-358.610	-5.887	-0.528	-0.360
-357.596	-200.000	-0.018	-0.307
-356.581	-3.508	-0.534	-0.370
-355.566	-24.198	-0.424	-0.252
-354.552	63.710	0.206	0.206
-353.537	514.845	0.331	-0.768
-352.523	800.000	0.120	-0.399
-351.508	-200.000	-0.042	-0.629
-350.493	155.616	0.256	0.350
-349.479	-29.796	-0.466	-0.264
-348.464	-200.000	-0.004	-0.475
-347.450	-143.148	-0.350	0.034
-346.435	-64.419	0.394	0.159
-345.420	-111.690	0.424	-0.085
-344.406	66.391	-0.424	0.428
-343.391	-118.921	-0.467	-0.081
-342.377	95.732	0.420	-0.477
-341.362	212.515	0.444	-0.696
-340.348	-200.000	-0.934	-0.003
-339.333	-96.194	-0.666	-0.176
-338.318	800.000	0.300	0.914
-337.304	-48.483	-0.257	0.123
-336.289	80.011	-0.359	0.383
-335.275	-195.376	-1.101	-0.008
-334.260	-111.721	0.990	-0.199
-333.245	800.000	0.256	0.750
-332.231	70.725	0.051	0.053
-331.216	71.271	0.514	0.530
-330.202	-62.540	-0.356	-0.147
-329.187	800.000	0.075	0.301
-328.172	102.069	-0.232	0.269
-327.158	-85.211	0.559	-0.174
-326.143	-8.256	-0.278	0.186
-325.129	-70.266	0.558	-0.211
-324.114	-200.000	0.001	0.625
-323.099	-32.590	-1.052	0.582
-322.085	-70.123	-0.573	0.217
-321.070	88.196	-0.381	-0.420
-320.056	-85.547	-0.752	-0.232
-319.041	-200.000	-0.033	0.213
-318.026	-200.000	-0.003	-0.363
-317.012	42.524	-0.329	0.297
-315.997	-92.424	0.571	-0.159
-314.983	588.418	-0.140	-0.343
-313.968	-200.000	-0.145	-1.029
-312.953	150.005	0.250	-0.337
-311.939	-200.000	0.020	-0.181
-310.924	-200.000	0.026	0.784
-309.910	96.797	-0.448	0.509
-308.895	138.579	0.461	-0.601
-307.880	-88.132	-0.482	0.143
-306.866	333.017	-0.298	0.573
-305.851	-200.000	-0.123	0.562
-304.837	800.000	0.102	0.348
-303.822	-89.775	-0.215	0.062
-302.807	-61.010	0.445	0.187
-301.793	-96.703	0.524	-0.137
-300.778	110.048	-1.079	1.285
-299.764	-200.000	0.072	0.461
-298.749	-200.000	-0.045	-0.368
-297.735	-200.000	0.006	0.031
-296.720	116.106	-0.117	-0.142
-295.705	-130.408	-0.165	-0.022
-294.691	198.827	0.170	0.258
-293.676	-130.892	0.294	0.039
-292.662	-200.000	0.145	0.812
-291.647	-200.000	-0.036	0.569
-290.632	-200.000	-0.006	0.262
-289.618	218.603	0.186	-0.295
-288.603	-170.664	0.832	-0.029
-287.589	382.214	0.042	0.087
-286.574	-79.166	0.615	-0.207
-285.559	28.262	0.817	0.685
-284.545	668.156	-0.089	-0.229
-283.530	-85.036	0.364	-0.113
-282.516	-79.548	0.829	0.278
-281.501	-83.973	0.653	-0.206
-280.486	160.329	0.250	0.346
-279.472	-30.117	-0.247	-0.139
-278.457	-39.188	-0.214	-0.111
-277.443	-200.000	0.170	-0.764
-276.428	127.510	-0.306	0.385
-275.413	800.000	0.246	0.868
-274.399	90.877	-0.584	-0.649
-273.384	47.560	0.493	0.456
-272.370	23.644	-0.500	0.408
-271.355	-84.765	-0.473	-0.148
-270.340	269.538	-0.149	0.259
-269.326	-49.009	-0.798	0.379
-268.311	-88.457	1.150	-0.340
-267.297	137.399	0.676	-0.877
-266.282	411.752	0.329	0.692
-265.267	262.447	-0.116	0.200
-264.253	500.184	0.252	-0.576
-263.238	147.083	-0.326	-0.434
-262.224	-109.596	0.164	0.034
-261.209	40.443	0.188	0.168
-260.195	-200.000	-0.016	-0.753
-259.180	-200.000	0.007	0.156
-258.165	561.011	-0.219	-0.525
-257.151	-200.000	-0.221	-1.158
-256.136	-116.844	0.940	-0.171
-255.122	-21.748	-0.217	0.131
-254.107	71.182	-0.611	-0.627
-253.092	-3.619	1.017	-0.700
-252.078	749.927	-0.091	0.242
-251.063	108.434	0.333	-0.394
-250.049	-155.880	-0.421	-0.027
-249.034	122.303	0.849	-1.050
-248.019	-102.162	0.469	0.112
-247.005	46.325	0.404	0.371
-245.990	110.373	0.485	0.577
-244.976	-140.942	-0.874	0.089
-243.961	-11.608	0.532	0.346
-242.946	84.338	0.384	-0.416
-241.932	-79.776	0.186	-0.062
-240.917	-200.000	0.058	-0.556
-239.903	-200.000	0.011	0.199
-238.888	221.743	0.454	-0.722
-237.873	-185.210	-0.263	0.004
-236.859	245.258	-0.315	0.525
-235.844	800.000	0.094	-0.327
-234.830	667.867	0.200	-0.512
-233.815	-150.122	-0.728	0.056
-232.800	-0.909	0.795	0.557
-231.786	-25.106	-0.269	0.158
-230.771	57.658	0.553	0.535
-229.757	800.000	0.293	0.809
-228.742	72.748	0.426	0.440
-227.727	800.000	-0.184	0.561
-226.713	561.517	0.322	-0.770
-225.698	69.501	0.271	0.276
-224.684	236.996	-0.145	-0.238
-223.669	-200.000	-0.049	0.625
-222.655	-2.251	0.356	-0.247
-221.640	-104.846	0.706	-0.160
-220.625	-200.000	-0.051	0.402
-219.611	-200.000	0.001	0.063
-218.596	-135.263	0.108	-0.013
-217.582	-200.000	0.006	0.224
-216.567	319.307	-0.144	0.271
-215.552	-128.604	0.269	-0.038
-214.538	800.000	-0.160	0.587
-213.523	26.509	0.674	-0.558
-212.509	-92.034	0.356	0.100
-211.494	-86.744	0.218	-0.066
-210.479	86.313	-0.480	0.523
-209.465	204.612	-0.439	-0.673
-208.450	-65.379	0.424	0.169
-207.436	88.573	-0.177	-0.194
-206.421	246.455	0.077	0.128
-205.406	-200.000	0.054	0.853
-204.392	-178.634	-0.646	0.015
-203.377	102.774	-0.094	-0.108
-202.363	31.815	0.585	0.498
-201.348	181.168	-0.118	0.171
-200.333	-152.189	-0.314	-0.022
-199.319	7.262	-0.136	-0.100
-198.304	53.867	-0.730	0.693
-197.290	-60.426	-0.593	-0.249
-196.275	21.019	-0.576	-0.461
-195.260	-7.190	-0.357	-0.239
-194.246	-6.918	-0.404	0.271
-193.231	-200.000	0.078	0.345
-192.217	462.194	0.236	-0.520
-191.202	-91.654	-0.243	0.068
-190.187	310.348	0.084	-0.155
-189.173	189.369	0.161	0.239
-188.158	-200.000	-0.010	0.140
-187.144	800.000	0.056	-0.158
-186.129	-200.000	-0.176	0.841
-185.114	-7.222	-0.232	-0.156
-184.100	800.000	-0.185	-0.537
-183.085	800.000	0.210	0.835
-182.071	-35.905	0.729	-0.389
-181.056	2.467	0.674	0.482
-180.042	-200.000	0.022	-0.310
-179.027	-200.000	0.032	0.166
-178.012	-200.000	-0.091	0.407
-176.998	-200.000	0.020	-0.310
-175.983	107.144	0.283	0.332
-174.969	-58.138	-0.438	-0.189
-173.954	-91.883	0.142	0.040
-172.939	609.128	0.443	1.092
-171.925	-13.595	-0.519	-0.332
-170.910	-200.000	-0.018	-0.541
-169.896	-56.316	-0.198	0.087
-168.881	203.183	-0.050	0.076
-167.866	102.464	0.273	0.315
-166.852	37.227	0.122	0.107
-165.837	195.676	-0.524	-0.786
-164.823	648.516	0.266	-0.671
-163.808	31.605	-0.637	-0.541
-162.793	-200.000	0.018	0.417
-161.779	-200.000	-0.064	0.385
-160.764	-34.157	-0.478	0.259
-159.750	-200.000	-0.044	0.883
-158.735	-200.000	-0.202	-0.958
-157.720	800.000	0.239	-0.809
-156.706	33.796	0.040	0.035
-155.691	364.557	0.075	0.148
-154.677	6.698	0.197	-0.144
-153.662	-200.000	-0.036	-0.159
-152.647	-200.000	0.035	-0.307
-151.633	-46.894	-0.370	-0.178
-150.618	26.728	-0.339	-0.280
-149.604	160.491	-0.252	0.346
-148.589	-76.176	0.381	-0.132
-147.574	517.256	-0.157	0.362
-146.560	-200.000	0.002	0.447
-145.545	90.698	0.702	-0.776
-144.531	362.549	-0.049	0.097
-143.516	-200.000	0.058	0.565
-142.502	-122.951	0.607	0.096
-141.487	-165.489	0.276	0.012
-140.472	389.919	-0.349	0.715
-139.458	-18.840	0.166	-0.102
-138.443	-200.000	-0.089	0.713
-137.429	373.907	0.369	-0.742
-136.414	800.000	0.183	-0.782
-135.399	122.685	0.222	-0.274
-134.385	26.205	0.292	0.241
-133.370	738.577	-0.084	0.223
-132.356	800.000	-0.220	0.679
-131.341	-35.743	-0.908	0.485
-130.326	-99.787	0.187	0.046
-129.312	-62.998	0.695	-0.283
-128.297	256.745	-0.301	-0.510
-127.283	-82.162	-0.515	0.165
-126.268	-200.000	-0.028	-0.909
-125.253	41.679	-0.275	0.245
-124.239	-77.619	0.787	-0.269
-123.224	98.056	0.423	0.480
-122.210	-16.982	-0.364	0.227
-121.195	-115.243	0.276	-0.052
-120.180	-25.358	-0.377	0.220
-119.166	-74.049	0.283	0.101
-118.151	-37.255	-0.729	0.384
-117.137	-200.000	0.070	0.782
-116.122	155.526	-0.270	-0.366
-115.107	-5.530	-0.261	0.176
-114.093	77.027	0.041	0.043
-113.078	523.823	-0.194	-0.450
-112.064	-200.000	-0.402	-0.002
-111.049	-66.119	-0.592	-0.232
-110.034	-60.757	0.827	-0.345
-109.020	-49.276	-0.393	-0.185
-108.005	-113.038	-1.176	-0.229
-106.991	-81.634	-0.504	-0.163
-105.976	162.708	0.331	0.458
-104.962	-32.807	0.649	0.355
-103.947	800.000	-0.232	0.729
-102.932	-30.065	-0.235	0.132
-101.918	5.975	0.102	-0.074
-100.903	800.000	0.076	0.253
-99.889	60.676	0.465	-0.454
-98.874	133.473	-0.201	0.256
-97.859	154.298	-0.150	0.203
-96.845	-200.000	-0.064	-0.685
-95.830	258.495	0.193	0.328
-94.816	609.421	-0.265	-0.652
-93.801	800.000	-0.090	0.254
-92.786	-135.675	0.548	0.064
-91.772	519.558	0.374	-0.864
-90.757	227.978	-0.061	0.097
-89.743	-200.000	-0.030	0.135
-88.728	-14.565	-0.453	0.287
-87.713	-200.000	-0.012	-0.070
-86.699	118.489	-0.332	-0.403
-85.684	23.228	0.226	0.183
-84.670	-56.248	-0.277	-0.121
-83.655	-106.554	-0.594	-0.130
-82.640	3.896	-0.251	0.180
-81.626	-34.465	-0.749	0.404
-80.611	800.000	0.077	-0.285
-79.597	-41.357	0.961	-0.487
-78.582	15.072	0.183	0.141
-77.567	-200.000	-0.019	0.615
-76.553	-126.703	0.023	0.003
-75.538	800.000	-0.149	0.620
-74.524	800.000	0.122	0.468
-73.509	-157.623	0.547	-0.032
-72.494	196.689	-0.183	-0.275
-71.480	-124.575	-0.291	-0.044
-70.465	56.809	-0.200	-0.191
-69.451	-118.661	-0.365	-0.063
-68.436	69.872	0.093	-0.094
-67.422	-200.000	0.036	1.130
-66.407	519.514	-0.343	-0.791
-65.392	-136.481	-0.823	-0.094
-64.378	4.485	-0.564	0.407
-63.363	104.913	0.560	0.650
-62.349	159.527	-0.270	0.369
-61.334	153.182	-0.713	-0.960
-60.319	182.108	0.455	0.659
-59.305	345.887	0.361	-0.697
-58.290	69.647	0.980	0.993
-57.276	-200.000	0.226	1.647
-56.261	-200.000	96.339	609.810
-55.246	666.111	1358.480	3450.140
-54.232	203.809	2524.143	3841.400
-53.217	120.717	2117.921	2587.898
-52.203	44.142	1587.647	1431.281
-51.188	35.764	1327.732	1147.211
-50.173	32.422	1286.409	1092.111
-49.159	56.326	1337.299	1277.221
-48.144	57.017	1353.178	1296.414
-47.130	35.432	1311.612	1131.148
-46.115	32.238	1292.593	1096.112
-45.100	31.937	1288.328	1090.702
-44.086	32.090	1285.248	1088.939
-43.071	31.822	1283.587	1085.936
-42.057	31.922	1281.021	1084.301
-41.042	31.878	1279.880	1083.036
-40.027	32.028	1277.546	1081.885
-39.013	31.801	1277.411	1080.418
-37.998	32.037	1275.164	1079.833
-36.984	31.787	1273.636	1077.059
-35.969	31.820	1271.514	1075.411
-34.954	32.148	1269.702	1075.716
-33.940	32.105	1267.318	1073.403
-32.925	31.949	1267.366	1072.513
-31.911	32.056	1265.953	1071.887
-30.896	32.088	1263.202	1069.695
-29.881	31.951	1262.766	1068.501
-28.867	31.912	1261.295	1066.995
-27.852	32.331	1258.493	1066.960
-26.838	32.122	1258.766	1065.962
-25.823	32.400	1256.433	1065.517
-24.809	32.151	1255.555	1063.325
-23.794	32.348	1254.210	1063.255
-22.779	32.233	1253.277	1061.776
-21.765	32.141	1252.387	1060.455
-20.750	31.971	1251.216	1058.465
-19.736	32.134	1249.666	1058.030
-18.721	32.004	1248.141	1055.965
-17.706	32.016	1247.177	1055.175
-16.692	31.825	1246.514	1053.497
-15.677	31.990	1245.378	1053.426
-14.663	31.817	1243.943	1051.197
-13.648	31.881	1242.305	1050.128
-12.633	31.951	1242.079	1050.289
-11.619	31.859	1241.156	1048.952
-10.604	31.662	1240.922	1047.611
-9.590	31.963	1238.826	1047.482
-8.575	31.960	1238.610	1047.237
-7.560	32.100	1237.739	1047.242
-6.546	31.926	1236.717	1045.365
-5.531	31.804	1236.100	1044.124
-4.517	31.829	1235.579	1043.782
-3.502	31.859	1233.456	1042.116
-2.487	31.811	1233.824	1042.119
-1.473	31.669	1229.048	1037.254
-0.458	30.247	1214.186	1016.884
0.556	28.344	1196.370	979.536
1.571	24.450	1201.067	962.344
2.586	23.425	1215.565	968.275
3.600	22.788	1205.656	956.846
4.615	16.901	1133.617	869.495
5.629	7.896	1059.831	769.470
6.644	3.797	1039.646	735.284
7.659	3.428	1037.262	731.780
8.673	2.903	1036.595	728.752
9.688	3.355	1033.752	728.828
10.702	3.621	1032.960	729.462
11.717	9.722	1040.054	763.361
12.731	18.900	1053.747	817.176
13.746	23.718	1059.783	844.760
14.761	24.473	1060.272	848.666
15.775	24.061	1058.436	845.162
16.790	23.900	1057.229	843.364
17.804	23.206	1057.187	839.961
18.819	23.617	1055.720	840.669
19.834	23.561	1056.373	840.852
20.848	23.430	1055.604	839.542
21.863	23.676	1053.962	839.326
22.877	23.371	1054.461	838.205
23.892	23.178	1053.593	836.528
24.907	22.877	1052.952	834.525
25.921	23.046	1051.688	834.248
26.936	23.240	1049.429	833.295
27.950	23.193	1047.820	831.721
28.965	22.879	1048.030	830.341
29.980	23.044	1046.338	829.697
30.994	23.488	1044.004	829.852
32.009	23.454	1043.902	829.540
33.023	23.087	1042.894	826.950
34.038	23.290	1041.969	827.090
35.053	22.744	1042.251	824.690
36.067	22.995	1040.450	824.364
37.082	23.215	1039.161	824.293
38.096	23.413	1037.669	823.960
39.111	23.253	1038.099	823.484
40.126	23.253	1036.527	822.164
41.140	22.690	1035.537	818.692
42.155	22.581	1034.221	817.074
43.169	22.652	1033.234	816.550
44.184	22.487	1031.472	814.324
45.199	22.782	1030.568	814.899
46.213	22.564	1030.658	813.893
47.228	22.985	1030.562	815.687
48.242	23.430	1029.617	816.919
49.257	23.129	1028.774	814.794
50.271	23.533	1027.711	815.736
51.286	23.390	1027.130	814.547
52.301	23.393	1026.604	814.072
53.315	23.247	1025.650	812.570
54.330	23.195	1025.301	811.985
55.344	23.137	1023.184	809.970
56.359	23.116	1022.019	808.882
57.374	22.939	1020.980	807.180
58.388	22.778	1020.389	805.904
59.403	22.696	1019.258	804.567
60.417	22.732	1019.473	804.830
61.432	22.651	1019.109	804.100
62.447	22.485	1018.279	802.620
63.461	22.362	1016.947	800.937
64.476	22.261	1016.377	799.960
65.490	22.368	1015.532	799.711
66.505	22.459	1015.753	800.224
67.520	22.583	1013.684	799.089
68.534	22.543	1012.541	797.935
69.549	22.126	1011.890	795.463
70.563	22.001	1010.390	793.650
71.578	22.017	1010.352	793.621
72.593	21.975	1008.694	792.058
73.607	21.834	1008.441	791.157
74.622	22.112	1008.630	792.487
75.636	22.119	1007.214	791.338
76.651	22.153	1006.959	791.220
77.666	22.252	1006.432	791.179
78.680	22.198	1004.987	789.729
79.695	22.291	1004.271	789.516
80.709	22.262	1004.556	789.540
81.724	22.240	1005.033	789.749
82.739	22.323	1003.550	788.884
83.753	23.205	1003.246	792.528
84.768	23.802	1003.138	795.043
85.782	23.593	1002.486	793.523
86.797	23.597	1001.360	792.579
87.812	23.465	1000.516	791.250
88.826	23.527	998.418	789.799
89.841	23.118	999.278	788.583
90.855	23.575	996.944	788.703
91.870	23.651	996.103	788.308
92.884	23.738	995.383	788.053
93.899	23.683	993.569	786.303
94.914	23.554	993.792	785.840
95.928	23.348	993.116	784.326
96.943	23.517	991.025	783.348
97.957	23.059	990.802	781.079
98.972	23.471	990.029	782.222
99.987	23.696	989.228	782.511
101.001	23.287	988.220	779.843
102.016	23.245	987.350	778.903
103.030	23.474	986.070	778.829
104.045	23.426	986.527	778.910
105.060	23.549	984.272	777.599
106.074	23.153	984.603	776.058
107.089	22.778	983.756	773.677
108.103	22.813	982.176	772.518
109.118	22.750	980.593	770.931
110.133	22.568	978.565	768.476
111.147	22.496	978.246	767.841
112.162	22.315	977.919	766.727
113.176	22.785	977.235	768.170
114.191	22.887	976.287	767.799
115.206	22.800	975.258	766.545
116.220	22.238	975.028	763.857
117.235	22.438	974.652	764.365
118.249	22.331	972.842	762.411
119.264	22.120	972.583	761.227
120.279	22.163	970.826	759.970
121.293	22.039	969.746	758.524
122.308	21.707	970.086	757.287
123.322	21.915	968.724	757.054
124.337	21.655	967.898	755.220
125.352	22.174	966.199	756.060
126.366	21.738	965.237	753.367
127.381	22.416	964.090	755.315
128.395	22.510	964.005	755.586
129.410	22.217	963.870	754.157
130.424	22.521	962.817	754.568
131.439	22.859	961.930	755.252
132.454	22.869	961.599	754.968
133.468	22.663	961.475	753.925
134.483	22.339	959.747	751.118
135.497	22.996	958.864	753.163
136.512	22.787	958.097	751.605
137.527	22.787	957.463	751.041
138.541	22.952	956.671	751.055
139.556	22.968	957.009	751.319
140.570	22.862	957.037	750.826
141.585	23.328	954.653	750.863
142.600	23.157	954.385	749.862
143.614	23.882	952.805	751.622
144.629	23.519	953.803	750.807
145.643	23.796	951.581	750.161
146.658	23.450	949.218	746.775
147.673	23.218	949.193	745.710
148.687	23.120	948.079	744.355
149.702	22.797	947.634	742.582
150.716	22.846	946.592	741.906
151.731	22.966	945.742	741.678
152.746	22.849	945.321	740.793
153.760	23.311	944.113	741.715
154.775	23.398	944.103	742.007
155.789	23.383	943.152	741.130
156.804	23.174	942.655	739.801
157.819	23.303	941.920	739.695
158.833	23.331	941.708	739.582
159.848	23.646	941.085	740.341
160.862	23.471	939.783	738.520
161.877	22.935	938.359	735.108
162.892	23.046	936.403	733.970
163.906	22.878	935.546	732.540
164.921	22.691	935.414	731.593
165.935	23.080	934.440	732.379
166.950	22.767	934.229	730.852
167.964	23.275	932.218	731.313
168.979	23.127	932.328	730.724
169.994	22.783	931.374	728.491
171.008	22.772	931.527	728.502
172.023	23.443	930.376	730.302
173.037	23.583	929.339	729.998
174.052	23.433	928.274	728.484
175.067	22.881	927.698	725.697
176.081	22.542	927.046	723.730
177.096	22.606	926.046	723.148
178.110	22.646	925.599	722.901
179.125	22.722	924.784	722.510
180.140	22.659	924.760	722.169
181.154	22.768	924.277	722.174
182.169	23.254	924.106	723.965
183.183	23.484	922.928	723.918
184.198	23.212	922.501	722.409
185.213	23.106	921.358	721.018
186.227	23.318	921.315	721.783
187.242	23.614	921.365	722.966
188.256	23.532	919.933	721.444
189.271	23.181	919.852	719.890
190.286	23.344	918.965	719.795
191.300	22.907	916.278	715.857
192.315	22.503	916.098	714.014
193.329	22.220	916.283	712.947
194.344	23.074	915.553	715.774
195.359	23.186	915.052	715.772
196.373	23.287	914.605	715.770
197.388	23.250	915.031	715.887
198.402	23.466	915.770	717.277
199.417	24.229	914.238	719.095
200.432	23.767	914.127	717.078
201.446	24.217	912.521	717.569
202.461	23.953	912.687	716.571
203.475	23.596	910.931	713.694
204.490	23.294	909.569	711.353
205.504	23.453	909.706	712.033
206.519	23.189	909.242	710.550
207.534	23.248	908.840	710.409
208.548	23.344	907.774	709.896
209.563	23.294	907.128	709.128
210.577	23.389	906.184	708.709
211.592	23.916	905.471	710.193
212.607	23.988	905.306	710.288
213.621	23.546	905.416	708.544
214.636	23.635	904.451	708.082
215.650	23.415	903.359	706.290
216.665	23.726	902.351	706.678
217.680	23.755	902.683	706.989
218.694	23.764	901.635	706.142
219.709	23.545	900.554	704.363
220.723	23.361	900.806	703.767
221.738	23.288	900.123	702.882
222.753	23.681	898.330	702.976
223.767	23.590	898.648	702.800
224.782	23.569	898.346	702.422
225.796	23.773	897.588	702.573
226.811	23.707	896.314	701.253
227.826	23.271	894.822	698.305
228.840	23.154	894.847	697.801
229.855	23.118	893.977	696.920
230.869	23.186	893.821	697.000
231.884	23.066	893.084	695.893
232.899	23.258	892.446	696.091
233.913	22.876	891.682	693.930
234.928	22.967	890.469	693.284
235.942	22.558	889.899	691.176
236.957	22.669	889.654	691.357
237.972	22.664	889.286	690.991
238.986	22.875	888.563	691.193
240.001	22.663	888.010	689.873
241.015	22.906	887.209	690.140
242.030	23.194	886.841	690.919
243.045	23.193	886.609	690.673
244.059	23.241	885.713	690.100
245.074	23.022	886.640	689.906
246.088	23.350	885.064	689.895
247.103	23.868	884.113	691.110
248.117	24.007	884.492	691.886
249.132	24.256	884.906	693.115
250.147	24.674	884.143	694.079
251.161	24.639	883.975	693.750
252.176	24.640	883.923	693.653
253.190	24.828	882.168	692.941
254.205	24.818	881.447	692.275
255.220	24.404	881.630	690.754
256.234	24.486	880.173	689.867
257.249	24.577	880.051	690.063
258.263	23.923	879.947	687.396
259.278	24.248	877.766	686.884
260.293	24.616	877.538	688.062
261.307	24.488	877.680	687.618
262.322	24.540	877.612	687.706
263.336	24.525	876.044	686.358
264.351	24.277	875.221	684.701
265.366	24.453	874.994	685.137
266.380	24.514	874.070	684.587
267.395	24.659	873.552	684.677
268.409	24.276	872.812	682.571
269.424	24.323	872.333	682.313
270.439	24.241	871.567	681.340
271.453	24.350	869.885	680.382
272.468	24.229	869.486	679.549
273.482	24.022	869.911	679.030
274.497	23.979	869.167	678.224
275.512	24.384	868.595	679.261
276.526	24.164	867.826	677.762
277.541	24.047	868.743	677.975
278.555	24.518	867.517	678.748
279.570	24.682	866.885	678.816
280.585	24.516	865.863	677.326
281.599	24.383	864.864	675.980
282.614	24.228	863.715	674.437
283.628	24.053	863.589	673.617
284.643	23.980	862.766	672.637
285.657	24.347	861.550	673.017
286.672	24.266	861.036	672.248
287.687	24.400	861.082	672.733
288.701	24.298	860.792	672.060
289.716	24.461	860.504	672.391
290.730	24.646	859.203	672.011
291.745	24.210	859.221	670.325
292.760	24.585	858.511	671.122
293.774	24.670	858.082	671.044
294.789	24.801	857.551	671.061
295.803	24.508	856.291	668.920
296.818	24.619	855.194	668.418
297.833	24.482	854.466	667.278
298.847	24.618	854.165	667.491
299.862	24.561	854.130	667.192
300.876	24.864	853.431	667.720
301.891	24.905	852.993	667.471
302.906	24.703	853.808	667.296
303.920	24.933	853.334	667.722
304.935	25.355	851.995	668.186
305.949	24.966	851.298	666.133
306.964	24.404	851.063	663.800
307.979	24.750	849.899	664.122
308.993	24.568	850.340	663.728
310.008	25.116	849.832	665.309
311.022	24.830	848.215	662.925
312.037	24.302	848.309	660.981
313.052	24.383	846.600	659.891
314.066	23.907	846.354	657.882
315.081	23.742	845.403	656.474
316.095	24.150	845.482	657.987
317.110	24.108	844.775	657.224
318.125	24.364	843.691	657.263
319.139	23.569	843.754	654.326
320.154	23.172	843.432	652.553
321.168	23.694	842.962	654.055
322.183	24.193	842.290	655.309
323.197	24.172	841.219	654.344
324.212	23.967	841.917	654.075
325.227	23.748	841.625	652.985
326.241	24.052	839.292	652.232
327.256	24.133	838.375	651.757
328.270	23.786	838.379	650.431
329.285	23.567	838.250	649.473
330.300	23.671	837.547	649.253
331.314	24.296	835.816	650.133
332.329	24.409	836.197	650.783
333.343	24.376	836.646	650.954
334.358	25.044	835.440	652.392
335.373	24.487	836.069	650.793
336.387	24.538	835.520	650.497
337.402	25.016	835.654	652.282
338.416	25.178	835.296	652.535
339.431	25.437	835.137	653.293
340.446	25.308	834.353	652.154
341.460	24.975	834.330	650.871
342.475	25.529	833.628	652.274
343.489	25.268	833.499	651.171
344.504	25.565	832.199	651.173
345.519	25.734	832.519	651.978
346.533	25.607	832.027	651.074
347.548	25.242	830.974	648.875
348.562	25.118	830.662	648.125
349.577	24.912	830.497	647.192
350.592	24.629	829.504	645.340
351.606	24.860	829.139	645.832
352.621	24.686	828.016	644.273
353.635	24.553	827.730	643.515
354.650	24.566	827.254	643.135
355.665	24.743	825.910	642.668
356.679	25.181	825.219	643.647
357.694	24.774	825.265	642.166
358.708	24.429	824.110	639.971
359.723	24.301	823.911	639.302
360.738	24.781	822.747	640.062
361.752	25.015	822.319	640.509
362.767	25.118	822.111	640.657
363.781	24.916	822.131	639.896
364.796	25.471	821.789	641.552
365.810	25.530	821.447	641.441
366.825	25.721	821.114	641.805
367.840	25.233	820.364	639.422
368.854	25.311	818.930	638.525
369.869	25.292	818.283	637.898
370.883	25.079	818.517	637.268
371.898	25.550	818.414	638.803
372.913	25.777	818.833	639.881
373.927	25.482	817.013	637.356
374.942	25.490	816.607	637.011
375.956	25.647	816.643	637.539
376.971	25.799	815.816	637.375
377.986	25.745	816.077	637.330
379.000	25.717	815.490	636.718
380.015	25.528	815.115	635.699
381.029	25.651	813.221	634.600
382.044	26.036	813.282	635.948
383.059	25.805	813.276	635.075
384.073	25.667	811.875	633.439
385.088	25.296	810.704	631.166
386.102	24.960	810.342	629.645
387.117	25.134	809.512	629.557
388.132	25.065	808.489	628.463
389.146	25.001	809.603	629.050
390.161	25.541	809.087	630.485
391.175	25.564	808.402	629.978
392.190	25.236	807.906	628.385
393.205	24.740	807.357	626.167
394.219	24.736	805.855	624.935
395.234	24.727	806.010	624.968
396.248	24.896	805.436	625.057
397.263	24.717	805.704	624.583
398.278	24.717	804.166	623.336
399.292	24.554	803.946	622.542
400.307	24.531	803.722	622.234
401.321	24.887	803.096	622.932
402.336	25.337	802.730	624.160
403.350	25.209	802.687	623.625
404.365	25.657	802.820	625.231
405.380	25.757	802.857	625.552
406.394	25.956	802.472	625.886
407.409	25.941	801.845	625.292
408.423	25.731	802.271	624.839
409.438	26.314	801.294	626.041
410.453	25.654	801.162	623.600
411.467	25.974	800.652	624.254
412.482	25.796	800.394	623.382
413.496	26.085	799.501	623.628
414.511	26.378	797.935	623.365
415.526	25.939	798.653	622.355
416.540	25.907	797.597	621.365
417.555	25.737	798.099	621.115
418.569	26.057	796.878	621.212
419.584	25.716	797.231	620.255
420.599	26.023	795.754	620.109
421.613	162.269	1370.652	1794.637
422.628	140.741	1454.443	1794.588
