DTS Sentinel unit serial number:	SN413079Multiplexer serial number:	ORYXHardware model number:	OX4-SRSoftware version number:	ORYX F/W v4.00 Oryx Data Collector v3.7.2.0data status	okinstallation	princeton_trtdifferential loss correction	single-endedforward channel	channel 1reverse channel	N/Adate	2019/09/12time	18:57:34forward acquisition time	15.00reverse acquisition time	0.00gamma	496.2192k internal	0.2319k external	0.2319temperature offset calibration	1.0123default loss term (dB/km)	0.3790temperature slope calibration	1.0000multiplexer offset coefficient	1.0000multiplexer slope coefficient	1.0000fibre end	0.00T internal ref (°C)	32.81T ext. ref 1 (°C)	3.00T ext. ref 2 (°C)	27.35length (m)	temperature (°C)	Stokes	anti-Stokes-747.200	-119.927	0.426	-0.074
-746.185	112.244	0.536	0.656
-745.171	-200.000	-0.018	0.091
-744.156	253.990	0.246	0.426
-743.142	-165.284	0.353	0.016
-742.127	250.014	-0.104	0.178
-741.112	295.923	-0.102	0.188
-740.098	-22.843	0.616	-0.376
-739.083	-105.622	-0.514	-0.118
-738.069	-200.000	-0.049	-0.856
-737.054	12.088	-0.586	0.456
-736.039	-200.000	0.136	0.822
-735.025	178.854	0.253	-0.375
-734.010	800.000	-0.112	0.337
-732.996	800.000	-0.137	-0.428
-731.981	259.415	0.173	-0.302
-730.966	238.360	0.531	-0.892
-729.952	-37.405	0.493	0.266
-728.937	-200.000	-0.384	-0.001
-727.923	-200.000	0.162	-1.050
-726.908	-122.820	-0.741	-0.121
-725.894	-151.726	0.411	-0.031
-724.879	-54.700	-0.108	0.049
-723.864	-49.270	0.315	0.152
-722.850	67.944	0.380	0.393
-721.835	800.000	0.036	-0.160
-720.821	-185.468	-0.592	0.009
-719.806	-8.530	0.651	0.442
-718.791	-159.613	-0.338	-0.019
-717.777	-113.351	-0.765	0.152
-716.762	-200.000	0.007	-0.302
-715.748	2.477	-0.567	-0.415
-714.733	-84.759	-0.535	0.170
-713.718	-89.069	0.488	-0.146
-712.704	-200.000	-0.027	-0.382
-711.689	310.548	-0.369	0.698
-710.675	113.344	0.409	-0.501
-709.660	-200.000	-0.048	-0.520
-708.645	-42.468	0.749	-0.386
-707.631	-137.523	0.591	-0.067
-706.616	-129.041	-0.702	0.099
-705.602	26.531	0.368	0.311
-704.587	-200.000	-0.053	0.291
-703.572	-142.033	-1.028	0.103
-702.558	-77.534	-0.316	0.111
-701.543	800.000	-0.130	0.480
-700.529	-200.000	0.016	-0.665
-699.514	40.187	-0.458	-0.416
-698.499	-46.945	-0.414	0.204
-697.485	-63.161	-0.553	-0.230
-696.470	110.410	0.511	0.620
-695.456	-111.743	0.241	0.049
-694.441	-200.000	0.008	0.428
-693.426	227.867	0.246	-0.404
-692.412	146.940	-0.260	0.353
-691.397	-28.997	-1.262	-0.731
-690.383	-200.000	0.060	-1.100
-689.368	-110.573	0.454	0.095
-688.354	-96.760	0.872	0.231
-687.339	112.829	-0.499	0.611
-686.324	-71.839	0.173	0.065
-685.310	1.826	0.329	0.240
-684.295	-134.665	-0.495	0.061
-683.281	193.847	0.180	0.275
-682.266	5.070	0.474	-0.352
-681.251	800.000	0.112	0.370
-680.237	162.038	-0.348	-0.492
-679.222	-200.000	0.007	0.414
-678.208	-106.540	0.335	0.075
-677.193	800.000	0.066	0.217
-676.178	193.230	-0.244	-0.372
-675.164	-116.993	0.768	0.141
-674.149	-72.728	-0.410	-0.153
-673.135	800.000	-0.157	-0.543
-672.120	0.419	-0.287	-0.207
-671.105	180.789	0.266	0.394
-670.091	-36.855	-0.211	-0.114
-669.076	31.737	-0.469	-0.407
-668.062	-200.000	-0.080	0.424
-667.047	58.090	-0.239	-0.236
-666.032	116.164	-0.032	0.039
-665.018	-146.117	0.426	0.038
-664.003	-200.000	-0.139	1.001
-662.989	392.625	0.413	-0.866
-661.974	6.988	0.740	-0.557
-660.959	-143.187	-0.417	0.040
-659.945	28.599	-0.635	0.542
-658.930	-200.000	-0.077	-0.445
-657.916	-200.000	-0.048	-0.990
-656.901	-36.787	0.543	-0.294
-655.886	-200.000	0.004	0.098
-654.872	125.586	-0.134	-0.170
-653.857	-43.087	-0.209	0.107
-652.843	2.494	0.267	0.195
-651.828	800.000	0.151	-0.530
-650.814	-200.000	0.026	0.231
-649.799	-200.000	0.046	0.432
-648.784	592.722	-0.163	0.406
-647.770	22.763	-0.297	-0.246
-646.755	15.003	-0.903	0.713
-645.741	800.000	-0.207	0.705
-644.726	-97.541	-0.127	0.033
-643.711	-76.752	0.367	-0.130
-642.697	-200.000	-0.092	-0.850
-641.682	-38.411	0.418	0.223
-640.668	80.631	0.302	0.327
-639.653	128.478	-0.648	0.831
-638.638	-97.389	-0.230	-0.060
-637.624	61.693	-0.216	-0.216
-636.609	-25.130	0.878	0.524
-635.595	-70.649	-0.666	0.253
-634.580	-200.000	0.127	0.899
-633.565	360.574	0.107	-0.216
-632.551	800.000	0.066	0.202
-631.536	124.640	-0.315	-0.399
-630.522	382.154	0.373	0.772
-629.507	42.026	0.317	0.289
-628.492	-200.000	-0.009	0.127
-627.478	-200.000	0.160	-1.055
-626.463	-200.000	-0.195	-0.962
-625.449	15.760	-0.264	0.209
-624.434	317.751	-0.116	0.221
-623.419	-11.430	0.774	-0.513
-622.405	3.459	0.505	-0.371
-621.390	53.865	-0.352	0.340
-620.376	76.026	-0.274	0.292
-619.361	-83.421	0.368	0.119
-618.346	-200.000	0.013	0.805
-617.332	-106.828	-0.150	-0.034
-616.317	-158.957	0.545	-0.031
-615.303	-61.930	0.619	-0.260
-614.288	399.616	-0.067	-0.142
-613.273	15.185	-0.102	0.080
-612.259	746.187	-0.143	0.387
-611.244	-148.608	0.166	-0.014
-610.230	-13.264	-0.167	-0.109
-609.215	280.581	0.489	0.880
-608.201	179.720	0.400	0.590
-607.186	-84.975	0.981	-0.310
-606.171	96.615	-0.566	-0.652
-605.157	155.685	0.190	-0.263
-604.142	-7.219	0.087	-0.059
-603.128	79.570	-0.285	0.308
-602.113	-200.000	-0.143	0.825
-601.098	800.000	-0.185	-0.725
-600.084	16.144	0.545	-0.432
-599.069	75.284	0.469	-0.497
-598.055	-17.164	-0.477	-0.303
-597.040	-168.065	0.578	0.023
-596.025	688.798	0.132	0.346
-595.011	-4.918	-0.612	0.424
-593.996	-59.190	0.623	0.270
-592.982	-200.000	0.016	-0.987
-591.967	398.360	0.155	0.326
-590.952	448.586	-0.156	0.346
-589.938	-126.068	0.703	0.106
-588.923	-200.000	0.075	0.509
-587.909	-200.000	0.049	0.504
-586.894	800.000	0.202	-0.757
-585.879	-200.000	0.083	-0.642
-584.865	-200.000	-0.206	-1.190
-583.850	94.658	-0.725	-0.828
-582.836	-200.000	-0.012	-0.670
-581.821	-200.000	-0.059	0.264
-580.806	-200.000	-0.016	0.182
-579.792	-124.997	-0.362	0.056
-578.777	-200.000	0.048	0.314
-577.763	201.817	0.346	0.536
-576.748	800.000	0.258	-0.953
-575.733	-200.000	0.031	-0.560
-574.719	-150.588	1.046	-0.080
-573.704	55.865	-0.233	0.227
-572.690	-20.185	-0.597	0.370
-571.675	-29.106	-0.109	0.063
-570.661	394.886	0.204	0.427
-569.646	-200.000	0.022	-0.438
-568.631	-13.855	0.809	0.526
-567.617	-56.105	-0.503	-0.225
-566.602	-200.000	-0.023	0.264
-565.588	-194.177	0.492	0.004
-564.573	-68.670	-0.516	0.201
-563.558	166.994	0.270	0.384
-562.544	-85.596	0.617	0.193
-561.529	-126.596	-0.214	0.032
-560.515	330.671	-0.358	-0.693
-559.500	125.247	-0.663	-0.839
-558.485	424.354	0.136	0.295
-557.471	-44.504	-0.071	0.036
-556.456	176.343	-0.089	0.129
-555.442	168.868	-0.167	0.240
-554.427	-67.258	-0.525	-0.208
-553.412	41.655	-0.395	0.359
-552.398	250.834	0.434	-0.741
-551.383	800.000	-0.025	0.090
-550.369	679.607	0.107	-0.280
-549.354	-115.415	0.241	-0.046
-548.339	-151.613	0.401	-0.030
-547.325	-200.000	0.045	-0.528
-546.310	800.000	0.107	-0.462
-545.296	-18.857	0.540	-0.338
-544.281	-82.423	-0.542	0.177
-543.266	-200.000	-0.091	0.607
-542.252	-53.794	-0.556	0.255
-541.237	-89.360	-0.162	-0.048
-540.223	16.179	-0.429	0.339
-539.208	-36.967	-0.492	0.264
-538.193	-200.000	0.019	0.314
-537.179	-200.000	0.082	-1.105
-536.164	-146.950	-0.861	-0.074
-535.150	-200.000	-0.145	-1.027
-534.135	800.000	0.128	-0.533
-533.121	-104.097	-0.577	0.135
-532.106	46.646	-0.277	0.258
-531.091	-149.131	0.450	-0.036
-530.077	-200.000	-0.045	0.309
-529.062	-6.162	-0.039	-0.027
-528.048	-200.000	0.014	-0.331
-527.033	39.469	0.299	0.269
-526.018	-24.801	0.481	0.287
-525.004	-200.000	0.177	1.024
-523.989	26.112	-0.165	0.138
-522.975	-200.000	0.135	0.690
-521.960	800.000	0.367	1.205
-520.945	15.569	-0.409	-0.322
-519.931	-83.809	-0.920	0.294
-518.916	790.321	0.099	0.274
-517.902	50.675	-0.353	0.335
-516.887	234.778	-0.160	0.265
-515.872	589.034	-0.200	-0.494
-514.858	261.689	-0.060	-0.105
-513.843	-156.510	-0.573	0.036
-512.829	800.000	-0.141	-0.497
-511.814	466.035	0.203	-0.456
-510.799	159.949	0.124	0.173
-509.785	639.899	0.230	0.586
-508.770	106.250	-0.353	0.419
-507.756	77.265	-0.284	0.303
-506.741	516.097	-0.084	-0.196
-505.726	-140.620	0.664	-0.069
-504.712	138.979	-0.566	0.745
-503.697	479.162	-0.073	0.167
-502.683	-200.000	-0.110	-0.627
-501.668	262.403	0.253	-0.440
-500.653	-200.000	-0.008	0.436
-499.639	91.310	-0.283	-0.318
-498.624	-61.999	0.693	0.290
-497.610	-41.741	0.157	0.081
-496.595	-200.000	0.045	-0.404
-495.581	118.173	-0.381	0.470
-494.566	541.240	0.178	-0.425
-493.551	-128.348	0.701	-0.100
-492.537	-84.157	-0.050	-0.016
-491.522	143.249	-0.106	0.142
-490.508	123.050	0.427	0.536
-489.493	-36.040	0.242	-0.131
-488.478	800.000	0.169	-0.520
-487.464	5.197	-0.215	-0.158
-486.449	25.496	0.564	-0.470
-485.435	82.509	0.338	-0.367
-484.420	-26.633	-0.462	-0.271
-483.405	-25.040	-0.429	0.255
-482.391	-200.000	0.037	0.464
-481.376	-14.737	-0.492	0.316
-480.362	-111.891	-0.491	0.099
-479.347	185.303	0.451	-0.670
-478.332	70.468	-0.679	-0.703
-477.318	-15.928	0.931	0.593
-476.303	-63.964	0.828	-0.339
-475.289	119.031	0.313	-0.387
-474.274	-200.000	0.161	-0.965
-473.259	-200.000	-0.042	0.717
-472.245	31.847	0.334	0.288
-471.230	-132.655	-0.665	0.085
-470.216	555.664	-0.031	-0.076
-469.201	137.971	0.155	0.203
-468.186	112.839	-0.647	0.785
-467.172	800.000	-0.016	-0.052
-466.157	401.669	-0.112	-0.235
-465.143	202.164	0.217	-0.335
-464.128	-185.308	-0.541	-0.008
-463.113	800.000	0.217	-0.654
-462.099	800.000	-0.149	-0.576
-461.084	112.994	-0.224	0.271
-460.070	800.000	0.243	0.925
-459.055	-33.013	0.169	0.094
-458.040	-200.000	0.024	-0.135
-457.026	109.668	-0.350	0.419
-456.011	-91.504	0.900	0.257
-454.997	-76.471	1.086	0.382
-453.982	-131.244	0.413	0.055
-452.968	-200.000	-0.032	-0.367
-451.953	-47.514	0.164	0.080
-450.938	-103.431	-0.654	-0.154
-449.924	231.353	-0.561	-0.919
-448.909	146.292	0.243	0.327
-447.895	39.881	0.076	-0.068
-446.880	63.895	0.366	-0.368
-445.865	-53.357	-0.916	-0.420
-444.851	7.804	-0.384	0.288
-443.836	-155.827	0.579	-0.037
-442.822	-47.282	-0.281	0.137
-441.807	-34.368	0.317	-0.174
-440.792	323.105	0.235	0.448
-439.778	44.091	0.339	0.311
-438.763	-60.761	0.613	0.260
-437.749	-54.029	0.307	-0.140
-436.734	-75.075	-0.507	-0.181
-435.719	353.808	-0.198	-0.392
-434.705	425.334	0.051	0.109
-433.690	-7.109	0.256	-0.174
-432.676	548.689	-0.196	-0.468
-431.661	-90.091	0.606	0.176
-430.646	800.000	-0.100	0.425
-429.632	-111.878	0.365	0.074
-428.617	451.398	-0.190	-0.419
-427.603	87.532	0.032	0.036
-426.588	412.257	-0.172	-0.366
-425.573	-108.046	0.830	-0.180
-424.559	-123.002	-0.241	-0.039
-423.544	43.334	-0.865	-0.789
-422.530	-200.000	0.087	0.840
-421.515	-65.933	0.447	-0.178
-420.500	105.422	0.164	-0.194
-419.486	-142.151	-0.477	0.047
-418.471	-120.431	-0.414	0.070
-417.457	-86.724	0.510	0.156
-416.442	-200.000	0.137	0.637
-415.428	22.190	-0.204	0.166
-414.413	354.035	-0.521	1.033
-413.398	-64.829	-0.505	-0.204
-412.384	-160.120	-0.780	0.042
-411.369	800.000	0.070	0.241
-410.355	-200.000	0.071	-0.457
-409.340	-175.729	-0.203	-0.005
-408.325	-200.000	-0.070	-0.415
-407.311	-200.000	0.127	-0.556
-406.296	82.711	0.720	0.781
-405.282	-200.000	-0.012	-0.463
-404.267	20.357	0.561	0.453
-403.252	-200.000	-0.044	-0.393
-402.238	-143.642	-0.580	-0.055
-401.223	-65.392	0.357	-0.143
-400.209	800.000	-0.192	-0.673
-399.194	-90.673	-0.803	-0.232
-398.179	800.000	0.143	-0.434
-397.165	146.594	-0.576	0.772
-396.150	-84.043	0.660	0.209
-395.136	245.065	0.190	-0.320
-394.121	25.422	-0.372	0.309
-393.106	-200.000	-0.032	0.635
-392.092	546.583	0.380	-0.906
-391.077	800.000	-0.106	0.357
-390.063	14.373	0.124	-0.097
-389.048	55.456	0.619	0.598
-388.033	41.142	0.284	-0.256
-387.019	427.223	0.248	-0.533
-386.004	-200.000	0.144	-0.864
-384.990	-110.074	-0.434	-0.090
-383.975	-199.638	0.433	0.002
-382.960	-97.199	0.049	0.013
-381.946	680.342	0.104	-0.271
-380.931	203.081	-0.410	-0.632
-379.917	295.374	-0.314	0.574
-378.902	110.778	0.756	0.907
-377.888	800.000	0.213	-0.785
-376.873	-200.000	0.024	0.195
-375.858	-157.665	-0.578	0.034
-374.844	285.828	0.455	-0.819
-373.829	9.760	0.533	0.403
-372.815	-172.328	-0.586	-0.019
-371.800	-200.000	-0.032	-0.644
-370.785	-43.476	-0.396	0.199
-369.771	-200.000	-0.144	0.914
-368.756	538.226	0.230	-0.546
-367.742	325.473	0.118	-0.225
-366.727	-200.000	-0.055	0.894
-365.712	74.910	0.109	0.114
-364.698	-200.000	0.041	-0.400
-363.683	-7.982	0.355	0.239
-362.669	-200.000	-0.113	0.702
-361.654	-13.885	0.573	-0.369
-360.639	33.050	-0.309	-0.267
-359.625	472.105	0.243	-0.546
-358.610	-34.489	-0.731	0.399
-357.596	-101.523	-0.664	-0.161
-356.581	237.594	0.424	-0.700
-355.566	-62.145	-0.596	-0.248
-354.552	-200.000	0.007	0.789
-353.537	666.644	0.139	-0.357
-352.523	-19.093	0.524	-0.324
-351.508	800.000	-0.260	-1.075
-350.493	-49.476	-0.788	-0.374
-349.479	800.000	0.141	-0.419
-348.464	-200.000	-0.023	0.361
-347.450	90.738	0.057	-0.063
-346.435	520.489	-0.503	-1.174
-345.420	-59.583	-0.113	-0.048
-344.406	-181.991	-0.161	0.003
-343.391	233.692	-0.279	0.457
-342.377	20.264	-0.341	0.275
-341.362	259.526	-0.101	-0.174
-340.348	132.766	0.224	-0.288
-339.333	-200.000	-0.028	-0.972
-338.318	-192.874	0.250	0.002
-337.304	409.341	0.148	-0.311
-336.289	-50.982	0.066	0.031
-335.275	12.669	-0.317	0.243
-334.260	-110.944	-0.335	0.069
-333.245	739.624	-0.468	-1.252
-332.231	-120.464	0.795	0.135
-331.216	800.000	-0.030	-0.084
-330.202	-40.864	-0.160	-0.082
-329.187	-29.706	0.548	-0.312
-328.172	93.092	0.576	-0.649
-327.158	-167.792	0.816	0.032
-326.143	-34.843	0.190	0.103
-325.129	89.899	-0.274	-0.304
-324.114	14.460	-0.175	-0.136
-323.099	229.111	-0.147	-0.238
-322.085	-36.141	0.750	0.403
-321.070	-200.000	0.136	-1.027
-320.056	35.736	0.250	-0.219
-319.041	-123.218	0.338	0.054
-318.026	17.729	-0.405	0.321
-317.012	-109.327	-0.490	-0.103
-315.997	61.454	0.697	-0.690
-314.983	-114.033	-0.371	0.072
-313.968	250.185	-0.191	0.323
-312.953	582.719	-0.185	-0.451
-311.939	-115.747	-0.520	-0.097
-310.924	-200.000	0.220	1.493
-309.910	401.400	-0.220	0.460
-308.895	494.624	-0.427	0.975
-307.880	-29.118	0.233	-0.133
-306.866	-200.000	0.088	0.919
-305.851	-13.985	0.446	-0.286
-304.837	37.864	-0.563	0.497
-303.822	-77.355	0.143	-0.049
-302.807	-147.846	-0.222	0.018
-301.793	800.000	0.285	1.008
-300.778	-96.203	0.498	-0.131
-299.764	800.000	-0.196	0.678
-298.749	17.862	0.263	-0.208
-297.735	800.000	-0.204	0.795
-296.720	-44.309	0.530	0.264
-295.705	668.154	0.245	-0.631
-294.691	-100.781	0.683	-0.167
-293.676	-98.687	0.978	0.248
-292.662	-154.728	-0.698	0.046
-291.647	-133.881	-0.558	0.069
-290.632	800.000	-0.202	0.644
-289.618	784.054	0.190	0.517
-288.603	800.000	0.067	0.260
-287.589	-88.857	-0.205	-0.060
-286.574	-107.854	1.122	0.243
-285.559	-141.463	0.778	0.078
-284.545	-107.997	0.535	0.116
-283.530	171.340	0.191	0.272
-282.516	-200.000	-0.046	0.631
-281.501	66.428	-0.344	0.347
-280.486	-146.901	-0.182	-0.016
-279.472	216.157	0.577	-0.912
-278.457	-65.397	0.386	-0.154
-277.443	800.000	0.021	-0.059
-276.428	-145.885	-0.419	0.037
-275.413	31.154	-0.355	0.303
-274.399	-126.248	0.369	0.055
-273.384	-163.320	0.179	0.009
-272.370	-170.708	-0.242	-0.008
-271.355	-39.057	-0.884	0.462
-270.340	-200.000	-0.030	0.316
-269.326	34.481	-0.080	-0.070
-268.311	-200.000	-0.063	-0.283
-267.297	106.449	-0.295	-0.348
-266.282	-123.006	-0.480	-0.077
-265.267	587.928	-0.119	0.292
-264.253	-186.125	0.425	-0.006
-263.238	800.000	-0.263	0.835
-262.224	800.000	0.153	0.506
-261.209	37.345	-0.236	0.208
-260.195	442.761	-0.250	0.543
-259.180	57.645	0.324	-0.314
-258.165	-84.477	-0.231	0.072
-257.151	-144.585	0.714	-0.065
-256.136	599.427	-0.225	-0.554
-255.122	68.778	-0.596	-0.608
-254.107	-200.000	0.077	0.427
-253.092	-52.038	0.488	-0.225
-252.078	-200.000	0.034	-1.175
-251.063	243.583	-0.168	0.280
-250.049	-200.000	0.239	1.181
-249.034	800.000	0.074	0.226
-248.019	269.610	-0.576	1.004
-247.005	-96.337	-0.603	0.158
-245.990	65.773	-0.334	0.336
-244.976	-51.590	0.459	-0.213
-243.961	-83.968	-0.650	-0.205
-242.946	-200.000	-0.146	1.204
-241.932	-199.674	-0.282	0.001
-240.917	71.671	0.445	-0.458
-239.903	-94.568	-0.551	-0.149
-238.888	126.225	0.625	0.783
-237.873	31.811	0.476	-0.406
-236.859	-162.855	-0.656	-0.032
-235.844	-116.624	-1.395	0.255
-234.830	800.000	0.172	0.723
-233.815	4.150	-0.141	0.102
-232.800	800.000	-0.134	0.528
-231.786	197.170	-0.346	-0.523
-230.771	48.317	0.383	-0.356
-229.757	281.521	0.157	-0.278
-228.742	800.000	0.412	-1.255
-227.727	-3.183	0.218	-0.151
-226.713	-64.696	-0.646	0.260
-225.698	22.745	0.411	-0.334
-224.684	197.996	0.136	0.206
-223.669	800.000	-0.213	-0.686
-222.655	-21.671	-0.577	0.348
-221.640	-128.006	-0.548	-0.078
-220.625	724.119	-0.246	-0.649
-219.611	443.161	0.037	-0.079
-218.596	800.000	0.249	-0.688
-217.582	800.000	0.400	1.184
-216.567	-151.123	-0.294	-0.022
-215.552	-200.000	0.035	0.499
-214.538	-137.701	0.378	-0.042
-213.523	-71.372	-0.727	-0.270
-212.509	-82.676	-0.680	-0.218
-211.494	-97.206	-0.831	-0.215
-210.479	81.873	-0.083	-0.089
-209.465	-42.052	-0.355	-0.180
-208.450	800.000	-0.105	-0.298
-207.436	104.777	0.400	-0.467
-206.421	800.000	0.140	0.475
-205.406	211.208	-0.149	0.232
-204.392	9.225	-0.184	0.138
-203.377	229.558	-0.316	0.511
-202.363	-200.000	0.073	0.407
-201.348	-200.000	0.046	0.416
-200.333	612.403	0.255	-0.631
-199.319	83.857	0.184	-0.198
-198.304	-104.328	-0.187	-0.043
-197.290	324.446	0.041	-0.077
-196.275	-200.000	0.011	-0.666
-195.260	800.000	0.240	-0.901
-194.246	-73.992	0.237	0.085
-193.231	38.311	0.297	0.262
-192.217	-50.439	-0.291	0.136
-191.202	-112.575	-0.490	-0.097
-190.187	770.991	0.224	-0.605
-189.173	-111.991	0.685	0.137
-188.158	-78.027	0.247	-0.084
-187.144	128.749	-0.263	-0.332
-186.129	-200.000	0.020	-0.288
-185.114	120.712	0.502	-0.618
-184.100	-126.914	0.127	0.019
-183.085	162.963	0.391	0.543
-182.071	-94.850	-0.388	-0.104
-181.056	92.601	0.492	0.549
-180.042	-49.659	0.476	-0.224
-179.027	-172.546	-0.237	-0.007
-178.012	800.000	0.130	-0.550
-176.998	-122.094	-0.179	0.029
-175.983	800.000	0.147	0.428
-174.969	21.733	-0.174	-0.141
-173.954	45.452	0.569	-0.519
-172.939	800.000	-0.167	0.493
-171.925	-155.459	-0.201	-0.013
-170.910	157.576	0.453	-0.620
-169.896	6.571	-0.610	0.449
-168.881	-18.231	-0.387	0.239
-167.866	30.353	-0.265	-0.224
-166.852	71.808	0.467	0.480
-165.837	-33.442	0.143	-0.078
-164.823	80.721	-0.040	-0.042
-163.808	800.000	-0.156	-0.517
-162.793	-99.524	0.293	0.073
-161.779	-18.815	0.536	-0.330
-160.764	-152.417	-0.635	0.045
-159.750	-67.783	0.548	0.212
-158.735	-86.663	0.318	0.096
-157.720	-63.846	-0.712	0.288
-156.706	-66.122	0.463	-0.183
-155.691	-108.378	-0.772	-0.165
-154.677	682.801	-0.363	0.935
-153.662	-114.124	-0.826	-0.158
-152.647	46.605	0.446	-0.410
-151.633	800.000	-0.329	0.985
-150.618	-51.599	-0.504	0.232
-149.604	449.916	0.281	0.612
-148.589	35.113	0.532	-0.461
-147.574	-148.308	0.625	-0.051
-146.560	-200.000	-0.086	-0.521
-145.545	-71.321	-0.755	-0.280
-144.531	-155.002	-0.381	-0.025
-143.516	-141.716	1.014	-0.101
-142.502	800.000	-0.070	0.267
-141.487	33.704	0.313	-0.269
-140.472	-54.746	0.420	0.188
-139.458	800.000	-0.249	-0.803
-138.443	-58.880	0.110	0.047
-137.429	32.577	0.355	-0.303
-136.414	136.460	0.456	-0.588
-135.399	211.638	-0.226	0.351
-134.385	-123.670	-0.113	-0.018
-133.370	-83.873	0.524	0.165
-132.356	-43.155	0.845	0.423
-131.341	-173.595	-0.219	0.007
-130.326	204.979	0.616	0.944
-129.312	2.985	0.521	-0.374
-128.297	-200.000	0.022	0.171
-127.283	83.729	0.589	0.635
-126.268	18.591	0.460	0.364
-125.253	60.818	-0.672	0.658
-124.239	-200.000	0.074	-0.451
-123.224	241.868	-0.424	0.700
-122.210	800.000	-0.166	-0.698
-121.195	-7.593	-0.212	0.141
-120.180	800.000	-0.150	0.468
-119.166	-2.587	0.436	-0.302
-118.151	-111.558	0.553	-0.111
-117.137	-51.598	0.601	0.277
-116.122	-81.487	-0.097	0.031
-115.107	116.554	-0.196	0.237
-114.093	-200.000	-0.104	0.848
-113.078	-200.000	-0.004	0.510
-112.064	8.546	-0.279	0.207
-111.049	-104.726	-0.335	0.076
-110.034	-143.236	0.833	0.079
-109.020	8.494	0.494	-0.367
-108.005	278.019	0.256	0.450
-106.991	-123.964	-0.348	-0.054
-105.976	23.117	0.741	-0.600
-104.962	800.000	-0.090	-0.330
-103.947	142.667	-0.241	0.315
-102.932	74.851	0.364	-0.378
-101.918	-149.602	0.287	-0.022
-100.903	-129.185	-0.555	-0.076
-99.889	-6.516	-0.579	-0.389
-98.874	41.273	0.491	-0.438
-97.859	-132.761	-0.766	0.097
-96.845	55.209	0.413	-0.394
-95.830	-141.283	-0.256	-0.026
-94.816	-200.000	-0.016	0.201
-93.801	-200.000	0.043	0.308
-92.786	-23.281	0.304	0.180
-91.772	271.047	-0.481	-0.835
-90.757	155.901	-0.649	-0.883
-89.743	18.488	0.498	0.393
-88.728	-135.110	-0.205	-0.024
-87.713	4.127	0.243	-0.176
-86.699	101.320	0.394	0.453
-85.684	23.052	0.571	0.462
-84.670	-94.280	-0.203	-0.055
-83.655	-34.694	0.216	-0.116
-82.640	44.128	0.711	0.643
-81.626	63.161	-0.657	-0.649
-80.611	-143.109	-0.690	0.066
-79.597	-200.000	0.112	-0.726
-78.582	-200.000	-0.037	0.614
-77.567	-200.000	0.061	0.607
-76.553	800.000	-0.359	-1.030
-75.538	800.000	0.156	0.448
-74.524	-158.189	0.312	0.018
-73.509	228.187	0.686	1.100
-72.494	800.000	0.047	-0.160
-71.480	-115.470	0.244	0.045
-70.465	-54.460	0.562	-0.251
-69.451	143.748	-0.046	0.060
-68.436	-55.576	0.283	0.125
-67.422	473.104	0.411	-0.912
-66.407	-116.245	0.689	-0.126
-65.392	-200.000	0.006	-0.067
-64.378	-146.096	-0.607	-0.053
-63.363	-200.000	0.086	0.485
-62.349	70.469	0.451	-0.459
-61.334	135.926	-0.557	-0.715
-60.319	134.411	-0.305	0.390
-59.305	253.321	-0.822	-1.382
-58.290	416.036	0.336	0.706
-57.276	206.643	1.119	1.717
-56.261	-200.000	95.642	584.273
-55.246	662.377	1360.281	3453.270
-54.232	202.944	2522.381	3837.952
-53.217	118.766	2122.371	2581.484
-52.203	44.665	1593.460	1442.663
-51.188	36.146	1334.854	1157.610
-50.173	33.144	1292.987	1103.766
-49.159	56.147	1343.710	1284.462
-48.144	56.971	1359.287	1304.195
-47.130	36.392	1317.959	1144.235
-46.115	33.102	1299.051	1108.519
-45.100	32.802	1295.343	1103.557
-44.086	32.480	1292.944	1099.590
-43.071	32.529	1290.186	1097.484
-42.057	32.710	1287.871	1096.527
-41.042	32.402	1287.077	1094.018
-40.027	32.915	1284.491	1094.750
-39.013	32.991	1282.142	1093.144
-37.998	32.647	1282.229	1091.184
-36.984	32.689	1279.932	1089.428
-35.969	32.807	1278.475	1088.828
-34.954	32.747	1275.862	1086.213
-33.940	32.716	1274.976	1085.240
-32.925	33.013	1273.469	1085.621
-31.911	32.857	1273.087	1084.351
-30.896	33.130	1270.139	1083.365
-29.881	33.020	1269.165	1081.863
-28.867	33.097	1267.059	1080.464
-27.852	32.861	1267.255	1079.238
-26.838	32.819	1265.753	1077.676
-25.823	33.035	1263.938	1077.320
-24.809	33.013	1262.148	1075.626
-23.794	32.933	1261.039	1074.181
-22.779	32.746	1260.042	1072.226
-21.765	32.966	1258.116	1071.794
-20.750	32.597	1258.787	1070.228
-19.736	33.028	1255.595	1069.916
-18.721	32.805	1255.479	1068.511
-17.706	32.657	1254.357	1066.672
-16.692	32.768	1252.351	1065.552
-15.677	32.503	1251.811	1063.556
-14.663	32.726	1251.677	1064.656
-13.648	32.750	1249.358	1062.777
-12.633	32.733	1249.033	1062.362
-11.619	32.944	1248.100	1062.717
-10.604	32.886	1246.122	1060.665
-9.590	32.778	1246.270	1060.144
-8.575	32.665	1246.285	1059.477
-7.560	32.650	1244.890	1058.165
-6.546	32.636	1243.414	1056.790
-5.531	32.632	1242.428	1055.887
-4.517	32.754	1242.036	1056.195
-3.502	32.722	1240.235	1054.443
-2.487	32.748	1238.871	1053.385
-1.473	32.738	1236.105	1050.936
-0.458	31.514	1220.440	1030.836
0.556	28.769	1202.694	990.225
1.571	24.938	1208.017	973.733
2.586	23.798	1222.747	979.245
3.600	23.320	1211.707	967.704
4.615	17.084	1139.974	878.180
5.629	7.413	1065.477	773.746
6.644	3.165	1045.411	738.747
7.659	2.916	1042.740	735.599
8.673	3.042	1040.951	734.876
9.688	2.877	1039.824	733.228
10.702	3.330	1038.378	734.301
11.717	9.364	1046.272	768.729
12.731	19.037	1060.130	825.475
13.746	24.278	1065.269	854.596
14.761	24.660	1066.212	857.109
15.775	24.250	1066.510	855.304
16.790	24.176	1065.320	853.921
17.804	23.966	1063.857	851.669
18.819	24.057	1063.447	851.701
19.834	24.496	1062.348	852.841
20.848	24.376	1062.998	852.715
21.863	24.321	1061.450	851.133
22.877	24.136	1060.280	849.241
23.892	23.870	1060.900	848.391
24.907	24.128	1059.788	848.657
25.921	24.222	1057.594	847.270
26.936	24.216	1057.728	847.274
27.950	24.039	1055.441	844.532
28.965	23.892	1054.353	842.888
29.980	24.304	1052.434	843.227
30.994	24.128	1052.501	842.376
32.009	24.069	1050.651	840.542
33.023	24.271	1048.950	840.055
34.038	23.956	1049.090	838.612
35.053	23.970	1048.128	837.834
36.067	24.092	1047.012	837.441
37.082	23.719	1047.908	836.329
38.096	24.234	1045.819	837.004
39.111	23.968	1046.319	836.080
40.126	23.973	1044.050	834.217
41.140	24.043	1041.457	832.402
42.155	23.826	1041.143	831.059
43.169	23.885	1039.302	829.791
44.184	23.759	1039.190	829.043
45.199	23.608	1037.881	827.218
46.213	23.884	1037.648	828.247
47.228	24.175	1037.527	829.435
48.242	24.119	1036.696	828.433
49.257	24.305	1036.330	828.936
50.271	24.527	1035.076	828.890
51.286	24.498	1034.514	828.232
52.301	24.046	1035.011	826.455
53.315	24.433	1032.365	826.061
54.330	24.243	1032.011	824.825
55.344	24.121	1031.416	823.712
56.359	23.784	1030.430	821.297
57.374	23.780	1029.661	820.594
58.388	23.824	1029.596	820.671
59.403	23.622	1028.117	818.487
60.417	23.790	1026.397	817.819
61.432	23.994	1025.603	818.053
62.447	23.666	1026.253	816.991
63.461	23.807	1024.990	816.558
64.476	23.696	1023.799	815.032
65.490	23.736	1022.969	814.480
66.505	23.699	1022.563	813.915
67.520	23.886	1022.524	814.670
68.534	23.620	1020.340	811.642
69.549	23.303	1019.936	809.797
70.563	23.562	1018.188	809.521
71.578	23.067	1018.164	807.173
72.593	22.638	1017.627	804.718
73.607	22.904	1016.244	804.765
74.622	23.176	1016.165	805.868
75.636	23.411	1015.584	806.408
76.651	23.284	1015.702	805.852
77.666	23.509	1013.284	804.883
78.680	23.445	1012.783	804.123
79.695	23.718	1012.258	804.872
80.709	23.549	1012.493	804.221
81.724	23.491	1011.515	803.113
82.739	23.373	1011.903	802.813
83.753	23.813	1011.091	804.089
84.768	24.786	1008.863	806.636
85.782	24.765	1008.444	806.138
86.797	24.531	1008.596	805.129
87.812	24.253	1007.464	802.904
88.826	24.272	1006.125	801.850
89.841	24.392	1005.546	801.859
90.855	24.645	1003.818	801.545
91.870	24.662	1003.442	801.249
92.884	24.782	1002.552	801.006
93.899	24.330	1001.741	798.264
94.914	24.160	1001.994	797.632
95.928	24.398	999.882	796.944
96.943	24.107	999.597	795.346
97.957	23.877	998.729	793.562
98.972	24.158	997.272	793.584
99.987	24.419	996.023	793.681
101.001	24.150	995.742	792.192
102.016	24.177	994.495	791.249
103.030	24.372	993.063	790.903
104.045	24.516	993.093	791.497
105.060	24.275	992.765	790.095
106.074	24.189	991.612	788.731
107.089	24.471	989.730	788.408
108.103	23.920	988.858	785.213
109.118	23.667	988.320	783.599
110.133	23.579	986.965	782.068
111.147	23.237	986.646	780.236
112.162	23.526	985.150	780.257
113.176	23.352	985.641	779.810
114.191	23.474	984.897	779.690
115.206	23.589	983.413	778.953
116.220	23.694	981.910	778.153
117.235	23.572	981.893	777.536
118.249	23.550	980.841	776.536
119.264	23.302	978.823	773.786
120.279	23.025	979.519	773.055
121.293	23.354	977.531	772.855
122.308	23.226	977.028	771.833
123.322	23.160	976.599	771.138
124.337	23.135	974.835	769.568
125.352	23.354	973.555	769.438
126.366	23.250	973.313	768.730
127.381	23.848	973.026	771.029
128.395	23.724	972.698	770.160
129.410	23.838	970.904	769.166
130.424	23.833	970.565	768.811
131.439	24.242	969.777	769.883
132.454	24.274	968.368	768.837
133.468	24.294	967.461	768.133
134.483	23.810	966.915	765.547
135.497	24.144	966.209	766.360
136.512	24.269	965.039	765.902
137.527	24.239	964.051	764.920
138.541	24.082	963.546	763.779
139.556	23.931	963.784	763.250
140.570	23.715	963.670	762.165
141.585	24.487	961.313	763.536
142.600	24.297	961.210	762.577
143.614	24.321	961.246	762.640
144.629	24.879	959.051	763.209
145.643	24.552	958.216	761.086
146.658	24.317	956.576	758.717
147.673	24.159	956.244	757.711
148.687	23.922	956.410	756.768
149.702	24.134	954.453	756.056
150.716	24.239	952.705	755.047
151.731	24.306	952.428	755.047
152.746	24.044	952.164	753.661
153.760	24.311	952.343	754.867
154.775	24.356	951.009	753.932
155.789	24.225	951.225	753.483
156.804	24.394	949.816	753.014
157.819	24.058	949.429	751.220
158.833	24.613	948.050	752.400
159.848	24.462	947.769	751.478
160.862	24.770	946.275	751.520
161.877	24.345	944.759	748.466
162.892	24.158	944.005	747.019
163.906	24.330	942.166	746.218
164.921	24.432	940.905	745.578
165.935	24.275	941.296	745.163
166.950	24.353	940.671	744.932
167.964	24.610	939.272	744.828
168.979	24.097	938.508	742.019
169.994	24.270	937.691	742.028
171.008	24.731	936.185	742.686
172.023	24.836	935.933	742.855
173.037	24.701	935.702	742.046
174.052	24.431	935.089	740.375
175.067	24.341	934.015	739.086
176.081	23.962	933.213	736.815
177.096	23.733	933.323	735.890
178.110	23.797	932.009	735.055
179.125	23.665	931.155	733.769
180.140	23.703	931.101	733.817
181.154	24.099	931.080	735.375
182.169	24.113	931.477	735.679
183.183	24.435	930.239	735.967
184.198	24.309	928.890	734.315
185.213	24.449	927.432	733.672
186.227	24.566	927.372	734.041
187.242	24.551	926.653	733.344
188.256	24.800	926.493	734.176
189.271	24.576	926.093	732.874
190.286	24.014	925.233	729.826
191.300	23.799	923.245	727.311
192.315	23.384	922.371	724.862
193.329	23.347	922.415	724.682
194.344	23.603	922.769	725.941
195.359	24.280	922.334	728.304
196.373	24.450	921.017	727.892
197.388	24.367	921.638	727.980
198.402	24.740	920.352	728.421
199.417	25.167	919.942	729.769
200.432	25.167	919.357	729.239
201.446	24.771	918.938	727.233
202.461	24.714	917.853	726.077
203.475	24.357	917.897	724.597
204.490	23.754	916.393	720.901
205.504	24.118	916.362	722.291
206.519	24.343	915.123	722.161
207.534	24.544	914.298	722.259
208.548	24.786	913.320	722.400
209.563	24.720	912.929	721.761
210.577	24.388	912.802	720.254
211.592	24.886	912.376	721.865
212.607	24.927	912.815	722.311
213.621	24.957	910.051	720.182
214.636	24.900	909.640	719.565
215.650	24.845	908.289	718.211
216.665	24.712	908.408	717.709
217.680	24.848	908.490	718.254
218.694	24.711	907.394	716.777
219.709	24.290	907.087	714.784
220.723	24.388	906.888	714.956
221.738	24.339	905.664	713.732
222.753	24.319	904.522	712.687
223.767	24.408	904.983	713.344
224.782	24.838	904.578	714.679
225.796	24.995	904.238	714.973
226.811	24.467	903.434	712.169
227.826	24.518	901.176	710.532
228.840	24.142	900.858	708.719
229.855	24.315	900.558	709.109
230.869	24.278	899.438	708.019
231.884	24.049	899.932	707.434
232.899	24.682	898.395	708.673
233.913	24.294	897.300	706.209
234.928	24.054	897.711	705.519
235.942	24.070	896.699	704.726
236.957	23.679	895.710	702.340
237.972	23.969	895.514	703.271
238.986	23.832	895.233	702.445
240.001	24.053	894.047	702.324
241.015	24.229	893.536	702.557
242.030	24.154	893.170	701.910
243.045	24.280	893.484	702.593
244.059	24.482	892.488	702.542
245.074	24.465	892.264	702.237
246.088	24.687	890.954	702.014
247.103	24.678	891.146	702.070
248.117	25.055	890.965	703.343
249.132	25.413	890.496	704.316
250.147	25.566	889.531	704.088
251.161	25.660	888.591	703.649
252.176	25.462	889.155	703.260
253.190	25.703	888.858	703.906
254.205	25.537	888.357	702.797
255.220	25.492	886.620	701.186
256.234	25.199	886.225	699.668
257.249	25.363	885.315	699.526
258.263	25.449	883.689	698.514
259.278	25.107	885.023	698.174
260.293	25.334	883.443	697.750
261.307	25.481	882.742	697.706
262.322	25.441	883.291	697.922
263.336	25.243	881.698	695.833
264.351	25.047	880.737	694.253
265.366	24.953	879.801	693.091
266.380	25.550	880.067	695.548
267.395	25.527	879.441	694.906
268.409	24.922	879.245	692.351
269.424	25.206	877.554	692.054
270.439	25.262	876.940	691.722
271.453	25.156	876.412	690.838
272.468	25.361	875.150	690.569
273.482	25.793	874.895	691.968
274.497	25.271	874.755	689.789
275.512	25.161	874.354	688.991
276.526	25.479	873.192	689.232
277.541	25.487	873.367	689.341
278.555	25.236	873.873	688.717
279.570	25.567	873.323	689.491
280.585	25.598	871.799	688.346
281.599	25.421	870.418	686.518
282.614	25.061	869.535	684.385
283.628	24.940	869.372	683.734
284.643	25.139	868.913	684.073
285.657	25.245	867.378	683.209
286.672	25.304	866.612	682.768
287.687	25.519	866.605	683.520
288.701	25.038	866.812	681.794
289.716	25.234	865.864	681.733
290.730	25.111	866.275	681.527
291.745	25.064	865.064	680.338
292.760	25.583	864.263	681.612
293.774	25.779	864.734	682.668
294.789	25.646	862.872	680.633
295.803	25.627	862.521	680.224
296.818	25.206	861.899	678.084
297.833	25.105	861.517	677.343
298.847	25.145	860.452	676.595
299.862	25.355	860.601	677.444
300.876	25.547	860.012	677.646
301.891	25.478	859.473	676.902
302.906	25.470	859.398	676.752
303.920	26.059	858.193	677.956
304.935	26.034	857.977	677.631
305.949	25.741	857.674	676.234
306.964	25.496	856.367	674.223
307.979	25.682	855.470	674.154
308.993	25.596	855.799	674.032
310.008	25.341	855.738	672.969
311.022	25.648	854.189	672.838
312.037	25.401	853.744	671.505
313.052	24.688	853.502	668.591
314.066	24.835	852.585	668.364
315.081	24.638	852.071	667.164
316.095	24.851	851.711	667.618
317.110	25.177	851.169	668.349
318.125	25.109	849.913	667.052
319.139	24.559	849.105	664.311
320.154	24.409	848.619	663.318
321.168	24.941	848.446	665.100
322.183	25.274	847.640	665.644
323.197	24.905	847.461	664.077
324.212	25.007	846.274	663.463
325.227	25.125	845.685	663.381
326.241	24.654	845.719	661.606
327.256	25.165	844.413	662.415
328.270	25.010	844.074	661.517
329.285	25.292	842.738	661.449
330.300	24.656	843.267	659.460
331.314	24.767	842.965	659.576
332.329	24.915	843.551	660.522
333.343	25.806	842.265	662.737
334.358	25.537	841.496	661.085
335.373	25.397	841.278	660.341
336.387	25.581	841.687	661.278
337.402	25.539	842.324	661.565
338.416	25.710	841.594	661.564
339.431	26.205	841.070	662.911
340.446	26.326	839.660	662.185
341.460	25.633	840.414	660.179
342.475	26.148	839.935	661.631
343.489	26.143	839.662	661.340
344.504	26.362	838.945	661.517
345.519	26.202	838.095	660.202
346.533	26.285	837.147	659.703
347.548	25.939	837.799	658.892
348.562	26.051	836.520	658.238
349.577	25.757	835.748	656.498
350.592	25.625	834.972	655.351
351.606	25.570	834.992	655.110
352.621	25.616	833.923	654.378
353.635	25.532	833.204	653.450
354.650	25.441	832.129	652.221
355.665	25.622	831.823	652.579
356.679	25.382	832.021	651.806
357.694	25.970	830.240	652.481
358.708	25.368	829.629	649.765
359.723	26.018	828.350	651.056
360.738	25.219	828.407	648.155
361.752	25.821	828.239	650.142
362.767	26.354	827.393	651.342
363.781	26.312	827.821	651.468
364.796	26.508	827.288	651.698
365.810	26.372	826.774	650.744
366.825	26.140	826.310	649.488
367.840	25.924	825.836	648.281
368.854	26.354	824.867	649.007
369.869	25.583	825.332	646.546
370.883	25.903	824.839	647.251
371.898	25.910	823.990	646.553
372.913	26.137	824.569	647.765
373.927	26.112	823.718	646.948
374.942	25.927	822.570	645.330
375.956	26.277	822.248	646.270
376.971	26.702	821.098	646.825
377.986	26.420	820.724	645.467
379.000	26.328	820.198	644.671
380.015	26.396	819.196	644.066
381.029	26.383	819.175	643.948
382.044	26.370	819.562	644.149
383.059	26.440	818.629	643.608
384.073	26.265	817.817	642.288
385.088	26.076	816.953	640.883
386.102	26.013	816.728	640.426
387.117	25.687	815.656	638.373
388.132	25.553	814.884	637.235
389.146	25.849	814.068	637.591
390.161	26.051	814.976	638.961
391.175	26.340	813.896	639.080
392.190	26.112	813.498	637.906
393.205	25.774	811.873	635.384
394.219	25.084	811.654	632.720
395.234	24.895	811.684	632.019
396.248	25.642	810.796	633.904
397.263	25.751	810.887	634.303
398.278	25.522	810.037	632.778
399.292	25.545	809.643	632.493
400.307	25.226	808.421	630.363
401.321	25.208	808.273	630.127
402.336	25.655	808.104	631.509
403.350	25.923	809.006	633.101
404.365	26.049	808.973	633.462
405.380	26.486	808.066	634.228
406.394	26.866	806.951	634.627
407.409	26.780	806.567	633.966
408.423	26.754	806.240	633.564
409.438	27.015	806.418	634.557
410.453	26.612	805.730	632.555
411.467	26.079	806.259	631.051
412.482	26.155	805.355	630.553
413.496	26.678	803.881	631.165
414.511	26.581	803.664	630.600
415.526	26.660	803.571	630.746
416.540	26.673	803.060	630.336
417.555	26.434	802.917	629.336
418.569	26.806	802.428	630.190
419.584	26.812	801.607	629.511
420.599	26.419	801.491	627.999
421.613	160.373	1370.968	1791.974
422.628	139.237	1453.970	1792.022
