DTS Sentinel unit serial number:	SN413079Multiplexer serial number:	ORYXHardware model number:	OX4-SRSoftware version number:	ORYX F/W v4.00 Oryx Data Collector v3.7.2.0data status	okinstallation	princeton_trtdifferential loss correction	single-endedforward channel	channel 1reverse channel	N/Adate	2019/09/10time	21:24:11forward acquisition time	60.00reverse acquisition time	0.00gamma	496.2192k internal	0.2329k external	0.2329temperature offset calibration	0.9938default loss term (dB/km)	0.3790temperature slope calibration	1.0000multiplexer offset coefficient	1.0000multiplexer slope coefficient	1.0000fibre end	0.00T internal ref (°C)	31.23T ext. ref 1 (°C)	-0.30T ext. ref 2 (°C)	24.37length (m)	temperature (°C)	Stokes	anti-Stokes-747.200	-200.000	0.079	0.477
-746.185	119.063	0.022	0.027
-745.171	20.057	0.166	0.134
-744.156	-155.760	-0.188	-0.012
-743.142	-200.000	-0.029	-0.197
-742.127	-200.000	-0.000	-0.209
-741.112	326.882	0.116	0.225
-740.098	319.812	-0.094	0.180
-739.083	-65.863	0.116	0.047
-738.069	-24.564	-0.430	0.257
-737.054	-73.829	-0.154	0.057
-736.039	-164.586	-0.223	-0.010
-735.025	-103.829	-0.108	0.025
-734.010	42.075	0.057	0.052
-732.996	800.000	0.008	-0.031
-731.981	-49.644	0.234	-0.112
-730.966	89.127	-0.275	0.308
-729.952	-183.759	0.020	0.000
-728.937	152.387	-0.137	0.188
-727.923	-87.668	-0.346	-0.105
-726.908	800.000	-0.040	-0.146
-725.894	-200.000	-0.014	-0.214
-724.879	-81.571	0.035	0.012
-723.864	-200.000	-0.078	0.455
-722.850	800.000	-0.070	-0.202
-721.835	-200.000	-0.011	-0.153
-720.821	-16.026	0.090	0.058
-719.806	-82.756	-0.208	-0.068
-718.791	-200.000	0.044	0.266
-717.777	800.000	-0.098	0.308
-716.762	-200.000	0.002	0.274
-715.748	65.777	0.206	-0.210
-714.733	142.839	-0.171	-0.229
-713.718	800.000	0.054	0.157
-712.704	-200.000	0.002	0.252
-711.689	-96.969	-0.280	0.074
-710.675	-124.763	-0.256	-0.040
-709.660	-73.792	0.260	-0.095
-708.645	12.809	-0.224	-0.174
-707.631	5.317	-0.255	0.189
-706.616	570.754	-0.093	0.228
-705.602	-76.093	0.164	-0.058
-704.587	-121.324	0.144	-0.024
-703.572	-200.000	-0.006	0.031
-702.558	450.714	-0.061	-0.135
-701.543	-200.000	0.008	-0.536
-700.529	27.365	0.044	0.037
-699.514	-39.134	0.236	-0.125
-698.499	-70.560	0.524	0.199
-697.485	-88.726	-0.419	0.125
-696.470	-170.489	-0.456	0.016
-695.456	215.925	0.145	-0.231
-694.441	-143.422	-0.261	0.025
-693.426	-131.452	0.093	0.012
-692.412	192.664	-0.092	-0.140
-691.397	-67.248	-0.350	-0.138
-690.383	63.978	-0.240	-0.242
-689.368	-200.000	-0.012	-0.091
-688.354	-200.000	-0.039	-0.240
-687.339	699.844	-0.054	0.142
-686.324	-200.000	0.131	-0.584
-685.310	235.992	-0.150	-0.249
-684.295	110.772	-0.058	-0.071
-683.281	-3.185	0.109	0.077
-682.266	-163.557	0.124	0.006
-681.251	-86.572	-0.134	0.041
-680.237	-51.987	0.169	0.079
-679.222	20.267	-0.207	-0.168
-678.208	-200.000	-0.013	0.131
-677.193	-200.000	-0.007	0.085
-676.178	276.677	-0.059	-0.106
-675.164	-144.038	-0.209	-0.020
-674.149	-87.011	-0.280	-0.086
-673.135	800.000	0.031	0.108
-672.120	-21.444	0.361	0.221
-671.105	-169.140	0.081	0.003
-670.091	800.000	0.035	-0.099
-669.076	159.023	0.081	0.112
-668.062	-22.973	-0.226	-0.137
-667.047	-103.855	0.299	0.070
-666.032	306.293	0.039	0.074
-665.018	-75.547	-0.422	-0.151
-664.003	-64.023	-0.079	0.032
-662.989	-75.591	-0.096	-0.034
-661.974	-126.637	-0.074	0.011
-660.959	-200.000	0.030	0.172
-659.945	800.000	-0.104	0.353
-658.930	-200.000	0.037	0.203
-657.916	13.322	0.081	0.063
-656.901	303.193	-0.134	-0.249
-655.886	69.384	-0.115	0.118
-654.872	-15.951	-0.166	0.106
-653.857	-25.602	-0.339	0.201
-652.843	-57.774	0.188	0.082
-651.828	-200.000	0.025	0.214
-650.814	10.452	-0.137	0.105
-649.799	-44.498	0.150	-0.075
-648.784	-72.481	0.064	0.024
-647.770	542.244	0.038	-0.091
-646.755	376.441	-0.116	0.237
-645.741	-71.455	-0.253	0.095
-644.726	111.661	0.148	0.179
-643.711	-35.686	0.272	0.148
-642.697	-200.000	0.033	0.156
-641.682	-9.349	-0.098	-0.066
-640.668	-32.549	0.208	-0.116
-639.653	86.832	0.148	0.164
-638.638	150.020	-0.079	-0.108
-637.624	-200.000	0.003	-0.028
-636.609	-74.035	0.150	-0.054
-635.595	800.000	-0.074	0.248
-634.580	-76.658	0.282	-0.099
-633.565	470.747	-0.063	-0.142
-632.551	-37.646	-0.150	0.080
-631.536	-61.271	0.041	-0.017
-630.522	-14.305	-0.158	-0.102
-629.507	-200.000	0.008	-0.489
-628.492	-200.000	0.039	0.370
-627.478	113.621	-0.074	-0.091
-626.463	-101.230	-0.296	-0.073
-625.449	800.000	-0.145	0.418
-624.434	-121.449	0.143	-0.024
-623.419	-74.138	0.265	0.096
-622.405	800.000	-0.025	0.086
-621.390	-94.829	-0.253	-0.069
-620.376	241.708	-0.173	0.290
-619.361	-200.000	0.010	-0.049
-618.346	441.132	-0.024	0.052
-617.332	-33.162	0.098	-0.054
-616.317	-107.384	-0.107	0.024
-615.303	-90.945	-0.075	-0.022
-614.288	-31.843	-0.107	0.060
-613.273	-43.136	-0.063	-0.032
-612.259	-200.000	0.008	-0.172
-611.244	-149.737	0.210	0.017
-610.230	144.650	0.024	0.033
-609.215	-21.104	-0.286	0.175
-608.201	266.650	-0.188	0.329
-607.186	121.282	-0.109	0.137
-606.171	-11.081	-0.125	-0.082
-605.157	777.155	-0.059	0.162
-604.142	-105.835	0.314	-0.071
-603.128	-200.000	0.013	-0.421
-602.113	-200.000	-0.010	0.094
-601.098	-48.330	0.255	-0.123
-600.084	-143.879	-0.092	-0.009
-599.069	5.963	0.242	0.179
-598.055	70.903	-0.187	0.194
-597.040	-113.975	-0.106	-0.021
-596.025	-156.931	0.308	0.019
-595.011	54.702	0.200	0.193
-593.996	-82.531	-0.305	0.099
-592.982	-22.546	0.232	-0.141
-591.967	-55.461	-0.026	0.012
-590.952	-200.000	0.024	-0.176
-589.938	520.571	-0.077	0.180
-588.923	-160.268	-0.213	0.012
-587.909	-95.032	-0.200	0.054
-586.894	-90.879	-0.154	0.044
-585.879	228.044	0.343	0.558
-584.865	-82.294	0.084	0.027
-583.850	352.955	0.035	-0.069
-582.836	-135.768	-0.138	0.016
-581.821	327.279	0.046	0.087
-580.806	-200.000	-0.015	0.082
-579.792	-170.388	0.147	-0.005
-578.777	146.929	-0.291	-0.392
-577.763	-200.000	0.017	0.285
-576.748	384.280	0.033	-0.069
-575.733	81.118	-0.134	-0.144
-574.719	77.760	-0.214	-0.228
-573.704	800.000	0.059	-0.247
-572.690	699.003	-0.061	0.160
-571.675	-200.000	-0.004	-0.220
-570.661	-43.861	-0.156	0.078
-569.646	-50.957	0.386	-0.181
-568.631	26.421	-0.058	0.048
-567.617	416.099	-0.129	-0.275
-566.602	212.469	0.044	-0.070
-565.588	-90.192	-0.199	-0.058
-564.573	-153.416	0.247	0.017
-563.558	-200.000	-0.044	-0.222
-562.544	-200.000	0.007	0.278
-561.529	5.510	-0.137	0.101
-560.515	-192.660	0.156	0.001
-559.500	-200.000	-0.076	0.349
-558.485	-113.168	0.364	0.072
-557.471	132.553	-0.087	-0.113
-556.456	89.695	-0.222	-0.248
-555.442	-200.000	-0.012	-0.099
-554.427	-95.657	-0.178	-0.048
-553.412	547.342	0.175	0.418
-552.398	38.391	-0.140	-0.124
-551.383	-126.803	-0.179	-0.026
-550.369	-50.092	0.186	0.088
-549.354	117.682	-0.049	0.060
-548.339	-41.755	-0.270	0.138
-547.325	70.947	-0.240	-0.249
-546.310	371.189	0.194	-0.394
-545.296	-115.675	-0.170	-0.032
-544.281	800.000	0.115	-0.334
-543.266	305.938	-0.084	0.155
-542.252	230.213	-0.060	-0.098
-541.237	-200.000	0.001	-0.249
-540.223	-51.650	-0.513	-0.239
-539.208	437.479	-0.068	0.148
-538.193	284.232	-0.058	0.105
-537.179	-49.714	-0.107	-0.051
-536.164	255.231	0.104	-0.178
-535.150	-72.988	0.175	0.064
-534.135	-93.536	-0.056	0.015
-533.121	-113.569	0.336	-0.066
-532.106	47.491	-0.140	-0.130
-531.091	-69.970	0.102	0.039
-530.077	-0.876	0.057	-0.040
-529.062	800.000	0.055	0.173
-528.048	-200.000	0.011	-0.140
-527.033	-86.525	0.100	-0.031
-526.018	-200.000	-0.006	-0.107
-525.004	-6.792	-0.116	0.079
-523.989	436.325	-0.046	-0.100
-522.975	72.490	-0.108	0.112
-521.960	800.000	0.102	-0.345
-520.945	714.770	0.096	-0.254
-519.931	-4.852	-0.156	-0.107
-518.916	10.122	-0.244	0.185
-517.902	-54.968	-0.237	0.107
-516.887	61.842	-0.056	0.056
-515.872	-51.295	-0.112	-0.052
-514.858	141.651	0.095	-0.125
-513.843	413.983	0.103	0.218
-512.829	-200.000	0.056	0.257
-511.814	107.283	0.083	0.099
-510.799	-122.974	0.219	0.035
-509.785	535.920	-0.140	0.333
-508.770	-200.000	-0.005	-0.177
-507.756	385.844	0.105	-0.215
-506.741	-0.414	0.097	-0.069
-505.726	800.000	0.130	-0.453
-504.712	-145.794	-0.270	-0.024
-503.697	-200.000	-0.003	-0.045
-502.683	-82.927	-0.297	0.096
-501.668	577.166	0.108	0.262
-500.653	120.773	-0.248	0.308
-499.639	185.669	-0.126	0.186
-498.624	40.902	-0.139	0.125
-497.610	465.380	-0.036	-0.081
-496.595	800.000	-0.044	0.145
-495.581	-98.531	-0.176	-0.045
-494.566	800.000	0.058	-0.213
-493.551	-200.000	0.009	0.079
-492.537	-184.109	0.164	0.003
-491.522	-200.000	0.043	0.485
-490.508	-200.000	0.004	-0.141
-489.493	-108.842	-0.424	-0.090
-488.478	22.689	0.211	0.173
-487.464	86.114	-0.093	-0.102
-486.449	800.000	0.148	-0.421
-485.435	91.680	0.098	-0.109
-484.420	54.599	-0.218	0.210
-483.405	-200.000	0.017	0.111
-482.391	396.291	-0.082	-0.170
-481.376	-55.936	0.390	-0.173
-480.362	65.916	-0.245	0.248
-479.347	800.000	-0.041	-0.116
-478.332	27.282	-0.251	0.210
-477.318	25.962	0.330	0.274
-476.303	-166.675	0.232	-0.010
-475.289	-54.521	0.175	-0.079
-474.274	88.882	-0.159	0.177
-473.259	-40.680	0.201	-0.104
-472.245	-200.000	-0.001	-0.147
-471.230	-73.244	-0.229	-0.084
-470.216	-200.000	-0.003	0.130
-469.201	-44.185	0.067	-0.034
-468.186	800.000	0.053	-0.206
-467.172	-158.900	-0.216	0.012
-466.157	-44.646	-0.181	0.090
-465.143	-143.125	-0.075	-0.007
-464.128	22.934	0.445	0.364
-463.113	-29.919	0.170	0.096
-462.099	9.787	-0.300	0.226
-461.084	-80.168	0.222	0.074
-460.070	300.151	0.113	-0.208
-459.055	745.955	-0.090	0.240
-458.040	-193.526	-0.289	-0.002
-457.026	-85.469	0.010	-0.003
-456.011	57.489	0.105	0.103
-454.997	-185.557	0.232	0.004
-453.982	29.396	-0.145	0.123
-452.968	-16.154	0.291	-0.184
-451.953	432.631	0.130	0.281
-450.938	-27.779	0.253	-0.146
-449.924	-200.000	-0.002	-0.060
-448.909	-55.308	0.274	-0.123
-447.895	-200.000	-0.048	-0.522
-446.880	39.991	-0.050	0.045
-445.865	-20.550	-0.217	-0.133
-444.851	800.000	0.098	-0.328
-443.836	-200.000	-0.026	0.217
-442.822	497.586	-0.185	-0.423
-441.807	-101.943	0.165	-0.040
-440.792	-52.291	0.177	0.081
-439.778	217.083	-0.148	-0.235
-438.763	551.150	-0.044	0.104
-437.749	-88.478	0.355	-0.105
-436.734	548.278	-0.044	0.106
-435.719	25.373	-0.281	-0.232
-434.705	31.173	-0.262	-0.223
-433.690	-200.000	-0.039	-0.299
-432.676	475.400	-0.140	-0.315
-431.661	191.102	0.158	-0.237
-430.646	167.978	-0.150	0.213
-429.632	800.000	0.084	-0.274
-428.617	-122.391	-0.138	-0.022
-427.603	428.451	0.048	0.103
-426.588	359.062	0.025	0.049
-425.573	-155.992	-0.248	0.016
-424.559	-9.744	-0.310	-0.205
-423.544	185.273	0.120	-0.178
-422.530	81.064	-0.281	0.302
-421.515	11.744	-0.214	0.164
-420.500	-62.358	0.307	0.127
-419.486	-86.973	-0.270	-0.082
-418.471	-46.377	0.104	-0.051
-417.457	-62.735	0.153	-0.063
-416.442	800.000	0.053	0.177
-415.428	395.779	0.147	0.305
-414.413	99.876	0.127	-0.146
-413.398	-45.057	-0.237	-0.117
-412.384	800.000	0.048	-0.184
-411.369	124.967	0.274	0.343
-410.355	-27.488	0.067	0.039
-409.340	-29.165	0.074	-0.042
-408.325	-56.766	-0.157	-0.069
-407.311	-109.259	0.392	-0.083
-406.296	-77.925	0.380	-0.130
-405.282	171.613	0.069	-0.098
-404.267	-152.439	0.184	0.013
-403.252	-89.445	0.285	-0.083
-402.238	800.000	0.066	0.248
-401.223	-146.570	-0.232	-0.020
-400.209	198.481	-0.105	0.159
-399.194	180.972	-0.264	-0.386
-398.179	-197.159	0.132	0.001
-397.165	-108.179	-0.225	0.048
-396.150	124.823	-0.242	0.303
-395.136	-83.986	0.319	-0.101
-394.121	-200.000	0.018	0.256
-393.106	-200.000	0.020	-0.147
-392.092	488.463	-0.049	-0.110
-391.077	-200.000	0.142	-0.000
-390.063	225.735	-0.070	0.112
-389.048	312.151	-0.064	-0.119
-388.033	-39.250	0.079	-0.041
-387.019	163.359	-0.187	-0.261
-386.004	-200.000	-0.007	-0.178
-384.990	92.747	0.248	-0.278
-383.975	-200.000	-0.004	0.363
-382.960	23.473	0.171	-0.140
-381.946	40.793	0.050	0.045
-380.931	-44.150	-0.123	0.061
-379.917	-62.760	-0.035	-0.014
-378.902	-200.000	0.025	-0.323
-377.888	-200.000	-0.069	-0.312
-376.873	-164.186	-0.242	-0.011
-375.858	40.592	0.192	-0.172
-374.844	17.989	0.130	-0.103
-373.829	275.988	0.090	0.158
-372.815	474.036	0.081	-0.180
-371.800	800.000	-0.089	0.373
-370.785	-16.907	-0.168	-0.105
-369.771	-200.000	-0.001	-0.044
-368.756	166.282	-0.292	-0.410
-367.742	109.914	0.268	-0.320
-366.727	-200.000	0.037	-0.272
-365.712	-1.148	-0.324	0.227
-364.698	-43.886	0.211	-0.105
-363.683	77.566	0.051	-0.054
-362.669	-153.728	-0.203	0.014
-361.654	-200.000	-0.012	0.146
-360.639	-200.000	0.054	0.433
-359.625	-77.506	-0.119	0.041
-358.610	-120.787	0.154	-0.026
-357.596	155.302	0.095	-0.129
-356.581	-32.341	0.079	0.044
-355.566	800.000	-0.103	0.389
-354.552	55.268	-0.004	0.004
-353.537	393.965	-0.088	-0.182
-352.523	-63.016	0.144	-0.059
-351.508	700.151	0.194	0.508
-350.493	35.348	-0.221	-0.192
-349.479	-200.000	0.017	0.211
-348.464	-200.000	-0.025	0.297
-347.450	-60.456	-0.218	0.092
-346.435	225.915	-0.126	-0.203
-345.420	-35.063	0.232	-0.126
-344.406	800.000	-0.106	0.412
-343.391	331.921	0.145	0.278
-342.377	-23.031	0.352	-0.210
-341.362	350.110	-0.050	0.098
-340.348	537.763	0.035	0.083
-339.333	-45.631	0.134	-0.066
-338.318	183.995	-0.096	-0.141
-337.304	207.762	0.117	-0.181
-336.289	-100.102	0.293	-0.072
-335.275	280.386	0.008	0.015
-334.260	-16.829	0.099	-0.062
-333.245	-200.000	-0.001	0.048
-332.231	-200.000	0.012	-0.208
-331.216	76.670	-0.131	-0.138
-330.202	306.964	-0.061	0.113
-329.187	203.014	-0.033	-0.051
-328.172	3.984	-0.165	-0.120
-327.158	-35.485	0.073	0.039
-326.143	-200.000	-0.050	0.377
-325.129	-169.485	-0.122	0.004
-324.114	416.529	0.133	-0.282
-323.099	-57.998	0.241	0.104
-322.085	-200.000	0.021	0.230
-321.070	120.505	-0.198	-0.243
-320.056	261.695	0.020	-0.035
-319.041	-90.602	-0.154	-0.044
-318.026	-27.736	-0.289	-0.166
-317.012	-200.000	0.022	0.202
-315.997	448.373	-0.057	0.124
-314.983	-94.320	-0.191	-0.052
-313.968	2.670	-0.283	0.203
-312.953	-17.479	-0.054	0.034
-311.939	-159.412	0.251	0.014
-310.924	-89.841	0.236	-0.068
-309.910	800.000	0.085	0.233
-308.895	0.309	0.021	-0.015
-307.880	172.385	-0.142	0.202
-306.866	-200.000	-0.047	-0.281
-305.851	-48.958	-0.196	0.093
-304.837	-6.620	0.089	-0.060
-303.822	566.838	0.161	-0.386
-302.807	79.220	0.202	0.214
-301.793	271.856	0.203	-0.355
-300.778	-89.316	-0.118	0.034
-299.764	800.000	-0.084	0.306
-298.749	679.046	-0.123	0.318
-297.735	-200.000	0.009	0.203
-296.720	-200.000	-0.016	0.312
-295.705	-140.949	0.224	0.023
-294.691	15.714	-0.124	-0.096
-293.676	108.484	-0.067	0.079
-292.662	394.948	0.145	-0.300
-291.647	71.015	0.112	-0.115
-290.632	800.000	-0.037	-0.132
-289.618	-81.910	-0.208	0.067
-288.603	-2.000	-0.118	-0.082
-287.589	-100.605	-0.093	0.023
-286.574	187.227	-0.123	-0.181
-285.559	800.000	0.034	-0.106
-284.545	296.459	-0.042	0.076
-283.530	66.623	-0.119	0.119
-282.516	-71.587	-0.262	0.097
-281.501	-200.000	0.007	-0.092
-280.486	800.000	0.061	-0.203
-279.472	-200.000	-0.033	0.301
-278.457	73.202	0.095	0.098
-277.443	800.000	-0.065	0.258
-276.428	-23.325	0.337	0.200
-275.413	-200.000	0.012	-0.092
-274.399	82.358	0.076	-0.082
-273.384	-61.007	0.044	0.018
-272.370	-200.000	0.021	0.186
-271.355	800.000	-0.084	-0.291
-270.340	117.338	-0.118	0.144
-269.326	16.447	0.220	0.172
-268.311	244.379	-0.088	-0.146
-267.297	194.070	-0.081	0.121
-266.282	377.588	-0.036	-0.073
-265.267	351.550	-0.111	-0.218
-264.253	702.171	0.197	0.512
-263.238	279.965	-0.146	0.258
-262.224	322.492	0.095	-0.179
-261.209	-136.732	0.321	-0.037
-260.195	-90.341	-0.209	0.060
-259.180	207.066	0.158	-0.243
-258.165	800.000	-0.100	-0.323
-257.151	123.106	0.109	-0.135
-256.136	-64.482	0.093	0.037
-255.122	137.490	0.055	0.071
-254.107	-68.258	-0.290	0.112
-253.092	-44.451	-0.104	0.051
-252.078	272.040	0.081	0.140
-251.063	413.944	0.086	-0.182
-250.049	31.512	-0.131	0.112
-249.034	367.905	-0.042	-0.084
-248.019	800.000	-0.051	-0.160
-247.005	-102.857	-0.050	0.012
-245.990	-200.000	-0.086	-0.380
-244.976	-200.000	-0.022	-0.345
-243.961	-38.039	-0.461	0.242
-242.946	561.761	0.021	0.051
-241.932	200.361	0.094	0.142
-240.917	-136.965	0.258	0.029
-239.903	-141.131	0.180	-0.018
-238.888	-21.304	-0.273	0.165
-237.873	-12.759	0.035	0.023
-236.859	131.077	0.099	-0.125
-235.844	561.059	0.076	0.181
-234.830	33.883	0.193	-0.166
-233.815	-200.000	-0.106	-0.516
-232.800	-19.159	0.275	-0.168
-231.786	-200.000	-0.002	-0.146
-230.771	-200.000	-0.009	0.246
-229.757	-37.665	-0.213	0.112
-228.742	-121.877	0.241	0.039
-227.727	800.000	0.045	0.166
-226.713	-200.000	0.024	0.189
-225.698	-69.006	-0.105	0.040
-224.684	-41.780	0.137	-0.070
-223.669	800.000	-0.026	-0.082
-222.655	-200.000	0.045	0.257
-221.640	-42.824	0.079	0.040
-220.625	111.967	0.221	0.263
-219.611	60.904	-0.132	-0.129
-218.596	-179.333	-0.154	-0.003
-217.582	-200.000	0.025	0.155
-216.567	-200.000	-0.034	-0.298
-215.552	-200.000	0.019	0.085
-214.538	800.000	0.031	-0.106
-213.523	-164.855	0.206	-0.009
-212.509	154.971	-0.118	-0.160
-211.494	-73.711	-0.117	-0.042
-210.479	-200.000	-0.058	-0.285
-209.465	117.822	-0.087	0.106
-208.450	800.000	0.095	0.303
-207.436	-62.746	-0.131	-0.054
-206.421	-200.000	-0.024	-0.222
-205.406	-200.000	-0.030	-0.158
-204.392	86.313	-0.039	0.043
-203.377	-151.837	-0.172	0.012
-202.363	-185.303	0.188	0.003
-201.348	-200.000	0.052	0.245
-200.333	-200.000	-0.006	0.197
-199.319	-85.887	0.229	-0.070
-198.304	-109.535	0.322	-0.067
-197.290	-31.929	-0.160	0.088
-196.275	-168.393	0.167	-0.006
-195.260	-34.574	0.134	0.072
-194.246	45.648	-0.166	-0.151
-193.231	-24.171	0.353	-0.208
-192.217	160.508	-0.097	0.133
-191.202	-67.846	0.132	-0.051
-190.187	238.613	0.073	0.120
-189.173	172.949	-0.114	0.162
-188.158	-43.258	-0.236	-0.118
-187.144	-79.117	-0.291	-0.097
-186.129	23.356	0.159	-0.129
-185.114	8.060	0.378	0.279
-184.100	303.235	0.121	0.222
-183.085	527.260	0.103	-0.240
-182.071	-77.126	-0.145	0.050
-181.056	443.369	0.227	0.490
-180.042	-200.000	0.008	0.051
-179.027	-98.975	-0.370	0.093
-178.012	52.769	0.217	0.204
-176.998	9.050	0.215	-0.160
-175.983	622.962	-0.025	0.062
-174.969	310.919	-0.172	-0.317
-173.954	212.599	-0.151	0.234
-172.939	102.114	0.134	0.155
-171.925	-200.000	-0.045	0.246
-170.910	-0.650	-0.144	0.101
-169.896	-30.341	-0.184	0.103
-168.881	186.531	0.204	0.298
-167.866	-22.463	-0.284	-0.170
-166.852	189.010	-0.052	-0.077
-165.837	800.000	-0.044	0.124
-164.823	-200.000	0.005	0.303
-163.808	-35.946	0.262	0.140
-162.793	-27.023	0.168	-0.097
-161.779	-46.330	0.144	-0.069
-160.764	18.876	0.283	-0.223
-159.750	-139.320	0.354	0.037
-158.735	32.204	0.054	0.046
-157.720	-84.744	-0.229	0.071
-156.706	-103.837	0.103	-0.024
-155.691	-200.000	0.074	-0.520
-154.677	-200.000	0.004	0.076
-153.662	7.931	-0.149	-0.110
-152.647	-81.873	-0.274	-0.088
-151.633	576.226	0.048	0.116
-150.618	7.514	0.129	-0.095
-149.604	390.306	-0.159	-0.325
-148.589	619.782	-0.031	-0.078
-147.574	15.058	-0.055	-0.042
-146.560	32.157	0.118	-0.100
-145.545	-67.185	0.324	-0.126
-144.531	-66.707	-0.083	0.032
-143.516	-200.000	0.005	-0.044
-142.502	-116.315	0.333	-0.061
-141.487	-37.944	0.094	-0.049
-140.472	120.983	0.056	-0.069
-139.458	-200.000	0.018	-0.266
-138.443	292.471	-0.303	0.543
-137.429	-79.657	0.190	-0.063
-136.414	-17.991	0.277	-0.171
-135.399	59.216	0.121	-0.117
-134.385	-40.027	0.133	-0.068
-133.370	-2.891	-0.088	0.060
-132.356	-72.978	-0.138	-0.050
-131.341	-128.341	-0.175	-0.024
-130.326	157.533	-0.274	-0.373
-129.312	-130.163	-0.540	0.072
-128.297	46.028	-0.153	0.139
-127.283	118.771	-0.123	0.150
-126.268	135.061	0.104	-0.132
-125.253	-111.960	0.138	0.027
-124.239	-32.519	0.164	0.090
-123.224	189.938	0.126	0.185
-122.210	114.547	0.051	-0.061
-121.195	-39.980	0.268	0.137
-120.180	-188.379	-0.176	0.002
-119.166	-111.453	-0.217	-0.043
-118.151	-200.000	-0.027	0.183
-117.137	4.310	0.249	-0.179
-116.122	-177.369	-0.004	0.000
-115.107	800.000	0.008	0.030
-114.093	342.582	0.024	-0.046
-113.078	-120.602	0.446	0.074
-112.064	-42.307	-0.093	0.047
-111.049	-81.421	-0.331	-0.107
-110.034	-20.800	-0.221	0.133
-109.020	800.000	-0.101	-0.310
-108.005	-200.000	-0.002	-0.062
-106.991	800.000	-0.010	-0.030
-105.976	-52.320	-0.249	0.113
-104.962	50.181	0.225	-0.209
-103.947	-7.901	-0.223	-0.148
-102.932	-133.272	0.245	0.030
-101.918	-200.000	-0.012	0.142
-100.903	45.939	-0.237	-0.215
-99.889	319.945	0.190	-0.354
-98.874	-200.000	0.022	0.096
-97.859	175.319	0.160	-0.227
-96.845	-187.469	0.268	-0.004
-95.830	39.846	0.028	0.024
-94.816	800.000	-0.144	-0.407
-93.801	332.806	-0.158	-0.301
-92.786	406.329	0.085	-0.176
-91.772	800.000	-0.048	-0.143
-90.757	-137.373	0.160	-0.018
-89.743	-200.000	0.009	0.268
-88.728	800.000	0.068	0.207
-87.713	-200.000	-0.000	0.026
-86.699	7.210	0.040	0.029
-85.684	185.067	-0.136	0.198
-84.670	43.728	0.171	0.154
-83.655	57.204	0.107	-0.102
-82.640	-83.891	0.317	-0.099
-81.626	-180.090	-0.098	0.002
-80.611	479.612	0.073	-0.161
-79.597	166.590	-0.052	-0.073
-78.582	131.763	-0.125	-0.157
-77.567	153.763	-0.193	-0.260
-76.553	45.651	0.228	0.206
-75.538	-29.759	-0.120	0.067
-74.524	65.956	-0.334	0.332
-73.509	10.453	0.360	0.269
-72.494	-200.000	0.030	0.192
-71.480	225.913	0.123	0.196
-70.465	296.858	0.089	-0.159
-69.451	133.548	-0.114	0.145
-68.436	-10.579	0.138	0.090
-67.422	118.124	-0.119	-0.144
-66.407	-200.000	0.042	-0.333
-65.392	307.343	0.146	0.266
-64.378	-50.882	-0.136	0.063
-63.363	-79.746	-0.182	0.060
-62.349	-200.000	-0.001	0.420
-61.334	124.267	-0.736	-0.908
-60.319	93.531	0.431	0.478
-59.305	-200.000	-0.215	-0.975
-58.290	269.312	0.663	1.141
-57.276	290.258	0.861	1.532
-56.261	-200.000	98.585	613.520
-55.246	588.354	1412.663	3411.286
-54.232	191.115	2605.887	3843.986
-53.217	117.945	2142.932	2588.047
-52.203	43.456	1594.600	1428.749
-51.188	34.820	1331.189	1141.402
-50.173	31.592	1289.928	1087.267
-49.159	55.062	1339.407	1268.338
-48.144	56.789	1356.150	1294.345
-47.130	34.927	1313.750	1126.901
-46.115	31.469	1295.793	1091.319
-45.100	31.228	1291.051	1085.880
-44.086	31.237	1288.752	1083.957
-43.071	31.077	1286.432	1081.031
-42.057	31.093	1284.200	1079.208
-41.042	31.100	1282.902	1078.113
-40.027	31.027	1281.419	1076.402
-39.013	31.073	1279.631	1075.125
-37.998	31.157	1277.550	1073.817
-36.984	31.270	1275.693	1072.864
-35.969	31.339	1273.862	1071.677
-34.954	31.292	1272.528	1070.240
-33.940	31.242	1271.179	1068.778
-32.925	31.360	1270.036	1068.450
-31.911	31.270	1268.368	1066.491
-30.896	31.390	1267.484	1066.388
-29.881	31.377	1265.532	1064.631
-28.867	31.405	1264.123	1063.565
-27.852	31.375	1263.066	1062.461
-26.838	31.380	1261.735	1061.326
-25.823	31.422	1260.110	1060.158
-24.809	31.360	1258.973	1058.805
-23.794	31.292	1257.925	1057.500
-22.779	31.303	1256.391	1056.227
-21.765	31.412	1254.737	1055.411
-20.750	31.426	1253.449	1054.368
-19.736	31.241	1252.093	1052.139
-18.721	31.163	1250.782	1050.557
-17.706	31.152	1250.020	1049.814
-16.692	31.209	1248.579	1048.883
-15.677	31.179	1247.596	1047.848
-14.663	31.120	1246.494	1046.550
-13.648	31.047	1245.790	1045.507
-12.633	31.140	1245.073	1045.386
-11.619	31.138	1243.867	1044.318
-10.604	31.172	1242.906	1043.663
-9.590	31.169	1241.767	1042.645
-8.575	31.094	1240.822	1041.394
-7.560	31.103	1240.017	1040.730
-6.546	31.050	1239.309	1039.797
-5.531	31.076	1238.748	1039.430
-4.517	31.151	1237.748	1038.968
-3.502	31.187	1236.707	1038.254
-2.487	31.147	1235.379	1036.875
-1.473	31.102	1231.250	1033.116
-0.458	29.485	1216.493	1011.838
0.556	23.688	1198.750	973.140
1.571	19.890	1203.293	955.808
2.586	19.115	1217.557	962.715
3.600	18.859	1207.377	953.163
4.615	13.612	1136.380	869.575
5.629	4.331	1061.614	766.612
6.644	-0.060	1041.364	730.609
7.659	-0.305	1038.531	727.366
8.673	-0.304	1037.103	726.309
9.688	-0.520	1036.058	724.466
10.702	-0.082	1034.521	725.443
11.717	5.652	1042.741	758.984
12.731	14.665	1055.513	812.245
13.746	18.667	1059.738	834.936
14.761	19.092	1060.182	837.281
15.775	19.129	1059.410	836.775
16.790	18.836	1058.960	834.921
17.804	18.826	1057.696	833.803
18.819	18.800	1057.920	833.780
19.834	18.846	1057.422	833.538
20.848	18.792	1056.892	832.783
21.863	18.795	1056.413	832.346
22.877	18.757	1055.308	831.219
23.892	18.741	1054.993	830.821
24.907	18.813	1054.272	830.527
25.921	18.900	1053.001	829.874
26.936	18.959	1051.325	828.763
27.950	18.912	1049.784	827.248
28.965	18.637	1048.053	824.487
29.980	18.709	1046.218	823.317
30.994	18.888	1045.530	823.560
32.009	18.941	1043.946	822.496
33.023	18.798	1042.751	820.798
34.038	18.637	1042.082	819.427
35.053	18.927	1041.321	820.144
36.067	18.943	1040.296	819.337
37.082	18.972	1039.685	818.920
38.096	19.068	1039.050	818.809
39.111	19.062	1038.392	818.186
40.126	18.912	1037.079	816.369
41.140	18.693	1035.131	813.723
42.155	18.569	1033.942	812.131
43.169	18.617	1032.697	811.309
44.184	18.641	1031.221	810.190
45.199	18.641	1030.293	809.390
46.213	18.625	1028.900	808.148
47.228	18.595	1028.546	807.658
48.242	18.677	1027.206	806.918
49.257	18.884	1026.594	807.341
50.271	18.866	1025.734	806.507
51.286	19.002	1024.422	806.042
52.301	18.962	1023.630	805.159
53.315	18.908	1023.074	804.396
54.330	18.706	1022.330	802.799
55.344	18.927	1021.663	803.233
56.359	18.822	1020.323	801.619
57.374	18.648	1019.240	799.886
58.388	18.790	1018.287	799.730
59.403	18.672	1017.665	798.623
60.417	18.564	1016.560	797.180
61.432	18.643	1016.013	797.050
62.447	18.784	1015.287	797.066
63.461	18.736	1014.664	796.283
64.476	18.733	1013.455	795.248
65.490	18.690	1012.674	794.366
66.505	18.758	1011.643	793.803
67.520	18.808	1010.749	793.263
68.534	18.645	1009.802	791.695
69.549	18.272	1008.952	789.240
70.563	18.337	1007.848	788.607
71.578	18.287	1007.431	787.982
72.593	18.211	1006.489	786.822
73.607	18.407	1005.723	787.058
74.622	18.646	1005.462	787.881
75.636	18.578	1005.147	787.249
76.651	18.512	1003.662	785.715
77.666	18.357	1003.038	784.448
78.680	18.540	1002.607	784.876
79.695	18.572	1002.024	784.497
80.709	18.726	1000.956	784.296
81.724	18.499	1000.284	782.667
82.739	18.573	999.772	782.531
83.753	18.778	999.074	782.854
84.768	19.043	998.273	783.361
85.782	19.050	997.150	782.445
86.797	19.038	996.186	781.562
87.812	19.083	994.719	780.549
88.826	19.032	994.106	779.767
89.841	19.049	993.266	779.114
90.855	19.158	991.859	778.436
91.870	19.078	991.420	777.658
92.884	18.836	990.509	775.783
93.899	18.912	988.967	774.850
94.914	19.135	988.439	775.374
95.928	19.014	987.480	774.008
96.943	18.736	986.248	771.725
97.957	18.467	984.722	769.256
98.972	18.384	984.318	768.499
99.987	18.532	983.633	768.560
101.001	18.692	982.982	768.701
102.016	18.789	981.713	768.070
103.030	18.735	980.618	766.908
104.045	18.524	979.571	765.080
105.060	18.407	978.196	763.416
106.074	18.664	977.907	764.269
107.089	19.075	977.526	765.728
108.103	18.958	976.416	764.275
109.118	18.707	975.623	762.469
110.133	18.810	974.246	761.783
111.147	18.502	973.265	759.583
112.162	18.517	971.790	758.434
113.176	18.631	971.360	758.533
114.191	18.612	970.240	757.507
115.206	18.326	969.419	755.540
116.220	18.408	968.713	755.281
117.235	18.523	967.878	755.074
118.249	18.563	966.458	754.071
119.264	18.379	966.235	753.023
120.279	18.445	965.320	752.535
121.293	18.534	964.693	752.369
122.308	18.614	963.450	751.685
123.322	18.516	962.302	750.294
124.337	18.407	960.893	748.649
125.352	17.913	959.136	745.061
126.366	17.813	958.379	743.973
127.381	18.661	957.883	747.214
128.395	18.916	957.547	747.994
129.410	18.980	956.654	747.511
130.424	18.917	955.667	746.400
131.439	18.933	954.532	745.515
132.454	18.898	953.736	744.675
133.468	18.822	952.519	743.333
134.483	19.143	951.189	743.615
135.497	19.170	950.563	743.176
136.512	19.174	950.071	742.745
137.527	19.119	948.837	741.474
138.541	19.093	948.833	741.296
139.556	19.162	947.897	740.794
140.570	19.050	947.033	739.573
141.585	19.188	945.840	739.168
142.600	19.162	944.835	738.205
143.614	19.434	943.624	738.360
144.629	19.426	943.002	737.774
145.643	19.245	942.391	736.455
146.658	19.133	940.943	734.780
147.673	19.151	939.686	733.813
148.687	18.914	938.667	731.942
149.702	19.015	937.626	731.494
150.716	18.938	937.061	730.664
151.731	19.132	936.536	731.013
152.746	19.064	936.451	730.593
153.760	19.317	935.320	730.717
154.775	19.421	934.812	730.697
155.789	19.238	934.362	729.505
156.804	19.334	932.496	728.388
157.819	19.411	931.920	728.200
158.833	19.332	931.473	727.454
159.848	19.373	930.076	726.473
160.862	18.989	929.545	724.373
161.877	19.300	928.504	724.808
162.892	19.298	927.724	724.128
163.906	19.333	926.487	723.243
164.921	19.364	925.648	722.655
165.935	19.334	924.768	721.778
166.950	19.325	924.217	721.247
167.964	19.291	923.222	720.265
168.979	19.271	922.122	719.259
169.994	19.150	921.045	717.849
171.008	19.342	920.895	718.471
172.023	19.403	919.573	717.627
173.037	19.098	918.311	715.312
174.052	18.939	917.887	714.259
175.067	18.976	917.095	713.734
176.081	19.156	916.704	714.112
177.096	19.131	915.882	713.306
178.110	18.836	914.410	710.873
179.125	18.744	914.163	710.241
180.140	18.813	913.885	710.247
181.154	18.935	913.322	710.249
182.169	19.140	913.352	711.056
183.183	19.284	912.242	710.723
184.198	19.186	911.655	709.801
185.213	19.255	910.846	709.390
186.227	19.270	910.392	709.035
187.242	19.221	909.659	708.202
188.256	19.275	909.212	708.011
189.271	19.450	907.906	707.650
190.286	19.075	906.909	705.274
191.300	18.637	905.326	702.188
192.315	17.950	904.437	698.628
193.329	18.002	903.473	698.036
194.344	18.749	903.940	701.387
195.359	19.260	903.687	703.214
196.373	19.290	902.995	702.735
197.388	18.924	902.844	701.061
198.402	19.158	901.662	701.038
199.417	19.107	900.895	700.171
200.432	18.849	899.573	698.034
201.446	18.704	899.014	696.950
202.461	18.737	898.389	696.537
203.475	17.970	896.516	691.918
204.490	17.205	895.772	688.185
205.504	18.236	896.337	692.732
206.519	18.735	895.960	694.399
207.534	18.958	895.619	694.973
208.548	19.205	895.582	695.883
209.563	18.980	894.126	693.782
210.577	19.010	893.749	693.547
211.592	19.400	893.436	694.817
212.607	19.236	892.224	693.152
213.621	19.262	891.710	692.798
214.636	19.461	890.921	692.921
215.650	19.271	890.084	691.447
216.665	19.367	889.804	691.552
217.680	19.240	888.666	690.099
218.694	18.779	888.034	687.700
219.709	18.771	887.097	686.883
220.723	19.020	887.099	687.818
221.738	19.234	885.777	687.588
222.753	19.125	885.443	686.834
223.767	19.238	885.136	686.983
224.782	19.420	884.779	687.370
225.796	19.453	883.514	686.461
226.811	18.757	882.359	682.736
227.826	18.112	881.384	679.356
228.840	18.428	880.752	680.065
229.855	18.483	879.917	679.579
230.869	18.258	878.608	677.618
231.884	18.687	878.579	679.234
232.899	19.401	878.599	682.010
233.913	19.262	877.662	680.676
234.928	19.307	877.601	680.745
235.942	19.211	877.042	679.875
236.957	18.862	875.999	677.628
237.972	18.882	875.354	677.147
238.986	19.127	874.439	677.343
240.001	19.048	873.823	676.496
241.015	19.109	873.240	676.224
242.030	19.098	873.101	676.014
243.045	19.433	872.135	676.522
244.059	19.388	871.866	676.076
245.074	19.191	870.744	674.376
246.088	18.819	869.897	672.206
247.103	19.101	869.245	672.744
248.117	19.679	869.111	674.837
249.132	19.749	868.759	674.776
250.147	19.855	867.929	674.486
251.161	19.847	867.532	674.088
252.176	19.854	866.962	673.613
253.190	20.172	866.120	674.136
254.205	20.143	865.835	673.742
255.220	20.037	865.062	672.668
256.234	20.007	864.557	672.101
257.249	19.815	863.501	670.476
258.263	19.959	862.959	670.551
259.278	19.980	862.373	670.119
260.293	20.042	861.740	669.807
261.307	19.976	860.839	668.795
262.322	19.633	860.049	666.795
263.336	18.939	858.116	662.566
264.351	17.901	856.418	657.203
265.366	18.091	855.792	657.392
266.380	19.272	856.199	662.188
267.395	19.549	856.474	663.406
268.409	19.658	855.562	663.061
269.424	19.760	854.704	662.729
270.439	19.850	854.056	662.511
271.453	19.989	853.477	662.534
272.468	20.024	853.383	662.538
273.482	20.146	852.969	662.624
274.497	19.629	851.937	659.789
275.512	19.334	850.972	657.860
276.526	19.769	850.569	659.148
277.541	19.829	850.565	659.314
278.555	19.469	849.529	657.085
279.570	19.444	848.322	655.995
280.585	19.646	847.962	656.428
281.599	19.612	847.111	655.582
282.614	19.095	846.142	652.813
283.628	19.165	845.746	652.716
284.643	19.581	845.447	654.004
285.657	19.113	844.493	651.435
286.672	18.729	843.230	648.953
287.687	19.164	843.540	650.778
288.701	19.387	842.624	650.857
289.716	19.070	841.862	649.013
290.730	19.098	841.148	648.512
291.745	18.831	840.244	646.754
292.760	19.152	840.062	647.765
293.774	19.975	840.717	651.308
294.789	20.308	840.019	651.961
295.803	20.371	839.722	651.911
296.818	20.461	838.411	651.173
297.833	19.973	837.463	648.550
298.847	20.031	836.542	647.997
299.862	20.311	836.906	649.270
300.876	20.553	836.047	649.450
301.891	20.206	835.524	647.688
302.906	19.922	834.002	645.395
303.920	20.116	833.630	645.773
304.935	20.185	833.894	646.176
305.949	20.268	833.039	645.766
306.964	20.204	832.520	645.066
307.979	20.161	832.420	644.772
308.993	20.595	831.931	645.951
310.008	20.601	831.099	645.270
311.022	20.174	830.709	643.326
312.037	20.218	829.638	642.601
313.052	19.934	829.378	641.293
314.066	19.269	827.437	637.274
315.081	19.030	827.208	636.159
316.095	19.852	827.043	639.013
317.110	20.172	826.788	639.941
318.125	19.338	825.730	635.991
319.139	18.564	824.049	631.788
320.154	18.459	824.082	631.372
321.168	19.369	824.210	634.767
322.183	19.975	824.225	636.952
323.197	20.028	823.938	636.869
324.212	20.251	823.595	637.364
325.227	20.369	822.824	637.145
326.241	20.151	822.425	635.980
327.256	20.006	821.894	634.982
328.270	20.009	820.880	634.153
329.285	19.843	819.992	632.805
330.300	19.749	819.068	631.694
331.314	19.999	818.998	632.495
332.329	20.243	818.839	633.205
333.343	20.330	818.107	632.903
334.358	20.350	817.774	632.661
335.373	20.488	817.211	632.671
336.387	20.549	817.670	633.192
337.402	20.624	816.990	632.883
338.416	20.589	816.578	632.381
339.431	20.605	816.115	632.025
340.446	20.668	816.510	632.503
341.460	20.613	815.563	631.516
342.475	20.382	814.915	630.119
343.489	20.605	814.560	630.597
344.504	20.912	814.303	631.457
345.519	20.810	814.295	631.024
346.533	20.958	813.610	630.974
347.548	21.167	812.785	631.034
348.562	21.089	812.350	630.357
349.577	21.011	811.950	629.709
350.592	21.072	811.011	629.148
351.606	21.021	810.405	628.437
352.621	20.965	809.441	627.431
353.635	20.846	808.820	626.465
354.650	20.287	807.563	623.429
355.665	19.496	805.760	619.145
356.679	19.667	805.898	619.809
357.694	20.170	805.397	621.173
358.708	20.023	804.907	620.215
359.723	20.525	804.680	621.782
360.738	20.797	804.534	622.585
361.752	20.985	803.854	622.676
362.767	20.943	803.899	622.506
363.781	21.238	803.251	623.002
364.796	21.305	802.650	622.718
365.810	21.304	802.418	622.479
366.825	21.204	801.976	621.727
367.840	20.988	801.387	620.447
368.854	20.620	800.271	618.220
369.869	20.746	799.940	618.358
370.883	20.744	799.746	618.143
371.898	20.584	799.128	617.046
372.913	20.679	798.984	617.215
373.927	20.915	798.493	617.618
374.942	21.029	797.987	617.576
375.956	21.025	797.591	617.201
376.971	21.151	797.517	617.534
377.986	21.366	797.043	617.873
379.000	21.257	796.455	616.978
380.015	21.042	796.019	615.826
381.029	21.188	795.285	615.718
382.044	21.324	794.685	615.678
383.059	21.345	793.997	615.165
384.073	21.389	793.755	615.078
385.088	21.410	793.040	614.545
386.102	21.292	792.303	613.504
387.117	21.290	792.005	613.211
388.132	21.002	790.633	611.085
389.146	20.520	789.568	608.521
390.161	20.664	789.757	609.117
391.175	21.115	789.566	610.496
392.190	20.742	788.623	608.409
393.205	19.637	786.573	602.919
394.219	18.489	784.896	597.581
395.234	18.395	785.147	597.391
396.248	19.856	786.515	603.479
397.263	21.107	787.081	608.223
398.278	21.063	786.824	607.816
399.292	20.893	786.111	606.618
400.307	20.826	785.857	606.136
401.321	20.887	785.226	605.809
402.336	21.279	784.806	606.794
403.350	21.678	784.582	607.951
404.365	21.831	784.214	608.143
405.380	21.875	784.220	608.246
406.394	21.983	783.481	607.993
407.409	21.896	782.711	607.043
408.423	21.773	782.693	606.547
409.438	21.937	782.110	606.608
410.453	22.029	781.786	606.621
411.467	22.045	781.071	606.070
412.482	22.026	780.964	605.868
413.496	21.954	780.963	605.564
414.511	21.979	780.140	604.959
415.526	22.090	779.741	604.978
416.540	21.916	778.986	603.739
417.555	21.524	778.213	601.741
418.569	21.615	777.938	601.786
419.584	21.583	777.535	601.312
420.599	21.513	776.780	600.435
421.613	158.595	1362.206	1797.150
422.628	136.978	1447.475	1797.237
