DTS Sentinel unit serial number:	SN413079Multiplexer serial number:	ORYXHardware model number:	OX4-SRSoftware version number:	ORYX F/W v4.00 Oryx Data Collector v3.7.2.0data status	okinstallation	princeton_trtdifferential loss correction	single-endedforward channel	channel 1reverse channel	N/Adate	2019/09/16time	16:38:35forward acquisition time	60.00reverse acquisition time	0.00gamma	496.2192k internal	0.2296k external	0.2296temperature offset calibration	0.9964default loss term (dB/km)	0.3790temperature slope calibration	1.0000multiplexer offset coefficient	1.0000multiplexer slope coefficient	1.0000fibre end	0.00T internal ref (°C)	39.94T ext. ref 1 (°C)	15.14T ext. ref 2 (°C)	33.80length (m)	temperature (°C)	Stokes	anti-Stokes-747.200	-63.535	-0.283	0.119
-746.185	81.114	-0.292	0.322
-745.171	-138.245	0.268	0.030
-744.156	-200.000	0.007	0.222
-743.142	-54.213	-0.064	-0.030
-742.127	-92.708	0.272	0.078
-741.112	-200.000	-0.042	0.366
-740.098	85.151	0.112	-0.126
-739.083	-1.796	-0.110	-0.079
-738.069	-98.597	0.171	0.045
-737.054	-52.750	-0.220	0.104
-736.039	312.084	0.135	-0.259
-735.025	-200.000	-0.028	-0.445
-734.010	152.616	0.176	-0.246
-732.996	128.868	-0.176	-0.230
-731.981	800.000	0.013	-0.044
-730.966	-115.337	0.375	-0.072
-729.952	800.000	-0.050	0.144
-728.937	-63.533	0.180	0.075
-727.923	-57.309	0.079	0.036
-726.908	-27.179	0.127	-0.075
-725.894	-27.296	-0.052	0.031
-724.879	51.033	-0.263	-0.255
-723.864	-200.000	-0.063	-0.347
-722.850	-71.572	-0.270	-0.103
-721.835	-39.207	-0.275	0.147
-720.821	-117.902	0.175	0.032
-719.806	551.206	0.031	-0.075
-718.791	800.000	-0.017	-0.051
-717.777	-77.620	0.099	0.035
-716.762	-148.015	-0.255	-0.022
-715.748	-130.761	-0.170	-0.023
-714.733	66.294	-0.301	-0.312
-713.718	527.401	-0.054	-0.131
-712.704	39.691	0.074	-0.068
-711.689	315.832	0.105	-0.202
-710.675	-98.795	0.032	0.008
-709.660	346.491	0.094	0.189
-708.645	-111.375	0.372	-0.077
-707.631	-15.797	-0.154	0.100
-706.616	134.926	0.135	-0.179
-705.602	116.482	0.107	0.134
-704.587	-200.000	-0.039	-0.187
-703.572	-181.085	0.167	-0.003
-702.558	76.819	0.085	0.092
-701.543	66.098	-0.175	0.182
-700.529	27.438	-0.237	-0.204
-699.514	-200.000	-0.121	-0.550
-698.499	136.764	-0.069	-0.093
-697.485	-200.000	-0.037	0.256
-696.470	-91.545	0.282	-0.082
-695.456	24.649	0.043	-0.036
-694.441	-200.000	0.046	-0.367
-693.426	-200.000	-0.052	0.270
-692.412	-200.000	-0.032	0.173
-691.397	24.551	-0.332	-0.280
-690.383	-8.408	0.110	0.076
-689.368	800.000	-0.052	0.205
-688.354	-200.000	-0.093	0.000
-687.339	186.822	-0.110	0.167
-686.324	-200.000	-0.077	0.415
-685.310	-171.773	-0.261	-0.009
-684.295	-78.624	0.213	0.074
-683.281	247.357	-0.196	-0.337
-682.266	-71.704	-0.245	0.093
-681.251	800.000	-0.085	-0.261
-680.237	-200.000	-0.014	0.176
-679.222	-123.728	0.108	-0.017
-678.208	12.166	0.095	-0.075
-677.193	800.000	-0.023	-0.100
-676.178	307.261	-0.167	0.316
-675.164	308.798	-0.193	0.368
-674.149	170.219	0.042	-0.062
-673.135	12.934	0.010	0.008
-672.120	-113.914	0.146	0.029
-671.105	179.020	0.065	0.097
-670.091	316.895	-0.083	-0.160
-669.076	-77.417	0.151	0.054
-668.062	-200.000	-0.016	-0.512
-667.047	-34.169	-0.069	-0.039
-666.032	800.000	0.151	0.514
-665.018	-200.000	-0.020	0.297
-664.003	-115.148	-0.093	0.018
-662.989	62.351	0.170	0.173
-661.974	-122.426	-0.193	-0.032
-660.959	-148.901	-0.144	-0.012
-659.945	-149.267	-0.161	0.013
-658.930	-157.924	0.262	0.016
-657.916	280.441	-0.239	-0.436
-656.901	310.584	-0.172	-0.328
-655.886	800.000	0.097	-0.294
-654.872	70.673	0.261	0.275
-653.857	-99.233	0.114	0.029
-652.843	226.405	0.238	0.393
-651.828	-89.455	-0.202	0.060
-650.814	-13.782	-0.322	-0.212
-649.799	-58.139	0.233	-0.103
-648.784	-77.824	-0.192	0.067
-647.770	-200.000	-0.001	-0.087
-646.755	-33.882	-0.140	-0.078
-645.741	-200.000	-0.014	-0.111
-644.726	612.771	-0.127	-0.323
-643.711	129.630	0.141	-0.183
-642.697	-91.906	0.010	0.003
-641.682	-79.246	-0.113	-0.039
-640.668	-14.413	0.388	0.254
-639.653	-122.174	-0.115	-0.019
-638.638	-32.135	0.253	-0.144
-637.624	-71.759	0.147	-0.056
-636.609	5.448	-0.152	0.114
-635.595	783.652	-0.097	0.270
-634.580	14.050	-0.174	0.138
-633.565	122.096	-0.249	-0.317
-632.551	800.000	0.046	-0.144
-631.536	-27.013	-0.322	-0.191
-630.522	-141.720	-0.126	-0.013
-629.507	800.000	0.033	-0.101
-628.492	-104.994	0.259	0.060
-627.478	-39.754	-0.127	-0.067
-626.463	-78.815	-0.148	-0.051
-625.449	204.441	0.033	0.052
-624.434	-200.000	-0.033	-0.181
-623.419	-32.982	0.148	-0.083
-622.405	-177.084	-0.047	0.001
-621.390	142.001	-0.039	0.053
-620.376	94.238	0.032	0.037
-619.361	-157.412	-0.163	0.010
-618.346	-200.000	0.036	-0.315
-617.332	-200.000	-0.006	0.060
-616.317	243.066	-0.164	-0.280
-615.303	-137.895	0.121	-0.014
-614.288	-200.000	0.018	0.149
-613.273	291.586	-0.173	-0.320
-612.259	484.911	0.069	-0.160
-611.244	176.108	0.083	0.122
-610.230	72.580	0.303	-0.321
-609.215	457.594	-0.122	0.276
-608.201	-91.795	-0.340	-0.098
-607.186	125.034	0.052	0.067
-606.171	4.290	-0.115	0.085
-605.157	-113.312	0.235	-0.047
-604.142	-113.888	0.155	-0.031
-603.128	-163.039	-0.123	-0.006
-602.113	-97.696	-0.207	0.055
-601.098	283.358	-0.047	-0.086
-600.084	167.492	-0.099	0.143
-599.069	158.251	-0.279	-0.393
-598.055	-200.000	0.056	-0.289
-597.040	-118.504	0.191	0.034
-596.025	-200.000	-0.008	-0.109
-595.011	-22.863	0.121	-0.074
-593.996	628.404	-0.034	-0.088
-592.982	-170.723	0.117	-0.004
-591.967	-200.000	0.007	0.123
-590.952	6.297	-0.412	-0.311
-589.938	290.049	-0.156	-0.287
-588.923	98.780	-0.141	0.166
-587.909	-105.914	0.212	0.049
-586.894	-200.000	0.012	-0.076
-585.879	-113.131	0.095	-0.019
-584.865	-92.211	0.059	0.017
-583.850	26.864	-0.217	0.184
-582.836	-200.000	0.001	-0.033
-581.821	-89.987	-0.371	0.110
-580.806	-200.000	-0.068	-0.408
-579.792	-47.102	0.182	0.090
-578.777	285.839	0.085	0.156
-577.763	786.853	-0.167	0.464
-576.748	130.732	0.028	-0.037
-575.733	222.198	-0.062	0.101
-574.719	229.897	0.172	-0.285
-573.704	79.022	0.108	0.118
-572.690	-200.000	0.102	0.458
-571.675	480.772	0.026	-0.059
-570.661	-19.023	-0.090	0.057
-569.646	-73.052	-0.218	-0.081
-568.631	243.813	-0.191	-0.325
-567.617	-29.634	0.147	0.085
-566.602	-200.000	-0.018	-0.167
-565.588	-82.652	-0.218	-0.072
-564.573	-179.893	0.070	0.002
-563.558	-46.243	0.297	0.148
-562.544	207.293	-0.110	-0.174
-561.529	800.000	0.080	0.240
-560.515	54.223	-0.123	-0.120
-559.500	103.677	-0.128	-0.152
-558.485	29.994	0.387	-0.335
-557.471	435.882	0.114	-0.252
-556.456	296.738	-0.188	0.349
-555.442	-39.733	0.275	0.146
-554.427	-101.849	-0.143	0.035
-553.412	125.339	-0.079	-0.102
-552.398	-166.484	0.202	-0.009
-551.383	-73.578	-0.201	-0.074
-550.369	134.672	-0.104	0.137
-549.354	527.607	-0.159	-0.381
-548.339	-8.354	0.244	0.167
-547.325	394.983	0.051	-0.109
-546.310	-31.793	-0.133	-0.076
-545.296	-200.000	-0.004	-0.365
-544.281	55.090	-0.219	0.214
-543.266	7.466	-0.076	0.058
-542.252	-200.000	-0.017	0.313
-541.237	-105.034	-0.226	-0.052
-540.223	-1.436	-0.226	0.161
-539.208	124.270	0.114	0.146
-538.193	-58.814	0.185	0.081
-537.179	-163.201	-0.326	-0.016
-536.164	-155.293	0.056	-0.004
-535.150	11.337	0.005	-0.004
-534.135	-200.000	0.040	-0.435
-533.121	-200.000	0.054	0.410
-532.106	-200.000	-0.015	0.131
-531.091	-0.156	-0.092	-0.066
-530.077	-185.386	-0.140	-0.002
-529.062	-50.362	-0.012	-0.006
-528.048	19.953	0.144	0.117
-527.033	-123.036	0.065	0.011
-526.018	-45.444	-0.172	-0.086
-525.004	-99.524	0.148	-0.038
-523.989	48.007	0.166	0.157
-522.975	113.991	-0.125	0.153
-521.960	800.000	0.085	0.268
-520.945	-126.735	-0.385	0.058
-519.931	-18.384	-0.194	-0.123
-518.916	-77.437	-0.112	-0.039
-517.902	85.041	-0.197	0.219
-516.887	-119.524	-0.154	0.027
-515.872	-4.189	0.119	-0.084
-514.858	-200.000	0.030	0.183
-513.843	456.628	0.105	-0.235
-512.829	800.000	-0.057	0.211
-511.814	142.567	0.272	0.366
-510.799	-194.212	-0.196	-0.002
-509.785	28.954	-0.207	-0.178
-508.770	800.000	-0.037	-0.129
-507.756	-200.000	0.012	0.146
-506.741	-163.909	-0.132	0.006
-505.726	73.998	0.207	-0.220
-504.712	-78.186	0.133	0.046
-503.697	800.000	-0.016	-0.049
-502.683	-119.613	0.295	-0.052
-501.668	-116.388	-0.330	-0.062
-500.653	-200.000	-0.035	0.251
-499.639	-158.101	-0.119	-0.007
-498.624	-22.311	-0.103	-0.063
-497.610	-79.293	0.353	-0.121
-496.595	-93.825	-0.181	-0.051
-495.581	-200.000	0.066	0.298
-494.566	-200.000	0.012	0.114
-493.551	36.252	0.182	-0.163
-492.537	148.006	-0.114	-0.155
-491.522	800.000	0.036	0.142
-490.508	-94.265	0.333	0.092
-489.493	204.684	-0.174	-0.273
-488.478	116.099	-0.074	-0.092
-487.464	37.195	-0.222	-0.199
-486.449	543.709	-0.019	-0.046
-485.435	-84.554	0.465	-0.148
-484.420	800.000	-0.076	0.230
-483.405	31.609	-0.084	0.073
-482.391	-182.985	0.270	-0.005
-481.376	-70.806	0.281	0.107
-480.362	82.020	0.070	0.077
-479.347	39.154	-0.140	0.127
-478.332	-200.000	0.019	-0.175
-477.318	800.000	-0.040	0.150
-476.303	35.338	0.114	0.101
-475.289	800.000	-0.115	-0.324
-474.274	347.155	-0.142	-0.283
-473.259	241.774	0.101	0.171
-472.245	215.541	-0.274	-0.439
-471.230	-40.158	0.086	0.045
-470.216	-3.339	0.271	0.191
-469.201	-200.000	-0.033	-0.192
-468.186	180.269	-0.267	-0.396
-467.172	154.480	-0.153	0.212
-466.157	21.016	-0.165	0.135
-465.143	-178.499	0.110	0.003
-464.128	-200.000	-0.040	0.187
-463.113	800.000	0.017	0.070
-462.099	-16.730	0.194	0.124
-461.084	-12.194	0.274	0.181
-460.070	69.845	-0.271	0.282
-459.055	159.286	0.097	-0.136
-458.040	797.337	0.088	-0.244
-457.026	66.598	0.134	-0.137
-456.011	-129.110	-0.146	-0.021
-454.997	800.000	-0.020	0.076
-453.982	215.344	-0.153	-0.246
-452.968	17.645	-0.081	-0.065
-451.953	-200.000	0.008	0.048
-450.938	-200.000	0.007	-0.057
-449.924	35.779	0.250	0.222
-448.909	67.268	-0.061	-0.063
-447.895	163.853	-0.111	-0.158
-446.880	50.166	0.095	0.090
-445.865	800.000	-0.109	-0.338
-444.851	-53.207	-0.215	0.100
-443.836	38.969	0.117	0.105
-442.822	-42.471	-0.351	0.181
-441.807	21.953	-0.243	-0.200
-440.792	110.937	-0.154	0.187
-439.778	-77.238	0.459	-0.161
-438.763	-65.618	-0.293	-0.118
-437.749	469.428	0.067	0.153
-436.734	-113.423	0.399	-0.079
-435.719	800.000	-0.093	0.280
-434.705	133.700	0.168	0.219
-433.690	-39.959	0.189	-0.100
-432.676	353.648	-0.103	0.206
-431.661	-130.154	0.313	-0.043
-430.646	-115.336	0.137	-0.026
-429.632	59.161	-0.240	-0.239
-428.617	-200.000	0.049	0.251
-427.603	14.190	-0.323	-0.254
-426.588	-110.665	0.340	0.071
-425.573	800.000	0.031	-0.106
-424.559	110.658	-0.089	-0.108
-423.544	-200.000	-0.010	0.433
-422.530	217.770	0.027	0.043
-421.515	-12.601	0.243	0.160
-420.500	-139.726	-0.092	0.010
-419.486	800.000	0.118	-0.381
-418.471	27.553	-0.172	-0.146
-417.457	-200.000	-0.021	0.260
-416.442	-107.327	0.274	0.061
-415.428	800.000	-0.061	-0.206
-414.413	-131.295	-0.321	0.043
-413.398	195.439	0.175	-0.269
-412.384	346.484	0.197	-0.391
-411.369	561.534	0.052	-0.126
-410.355	145.929	0.077	-0.105
-409.340	800.000	-0.081	0.286
-408.325	-145.047	0.180	0.017
-407.311	800.000	0.064	0.249
-406.296	-80.819	-0.323	0.108
-405.282	-64.228	-0.206	0.085
-404.267	-152.307	-0.061	-0.004
-403.252	469.527	0.028	0.064
-402.238	624.454	0.052	-0.133
-401.223	-200.000	-0.031	-0.187
-400.209	800.000	-0.060	-0.171
-399.194	105.180	-0.210	0.250
-398.179	120.397	-0.271	-0.340
-397.165	10.161	0.195	-0.150
-396.150	-142.636	0.403	-0.040
-395.136	-20.613	-0.144	0.089
-394.121	-26.715	-0.153	0.090
-393.106	111.117	0.149	0.180
-392.092	33.742	-0.123	-0.108
-391.077	347.280	-0.141	0.280
-390.063	-55.368	0.170	0.077
-389.048	-153.861	0.213	0.015
-388.033	-72.806	-0.161	0.060
-387.019	43.295	0.093	-0.085
-386.004	-63.991	-0.134	-0.055
-384.990	217.776	-0.126	-0.202
-383.975	209.802	-0.041	0.064
-382.960	126.054	0.111	0.142
-381.946	800.000	0.039	-0.163
-380.931	-200.000	0.039	-0.314
-379.917	-146.390	-0.257	-0.023
-378.902	-71.457	-0.211	0.079
-377.888	67.127	0.185	0.190
-376.873	-200.000	0.013	0.178
-375.858	-200.000	-0.011	0.115
-374.844	-160.057	-0.178	-0.010
-373.829	-14.348	-0.222	0.144
-372.815	147.392	-0.061	0.082
-371.800	163.659	0.011	0.015
-370.785	-85.724	-0.322	-0.101
-369.771	57.067	0.263	-0.258
-368.756	-135.924	0.202	-0.024
-367.742	800.000	-0.030	-0.112
-366.727	-13.781	0.301	0.196
-365.712	604.366	-0.066	0.164
-364.698	800.000	-0.174	-0.501
-363.683	81.736	-0.113	-0.123
-362.669	394.971	0.109	0.229
-361.654	-79.901	0.247	0.084
-360.639	-115.057	-0.174	-0.033
-359.625	651.492	0.150	0.387
-358.610	800.000	-0.120	0.462
-357.596	208.161	0.072	-0.114
-356.581	800.000	0.143	-0.439
-355.566	-79.920	0.054	-0.018
-354.552	434.468	0.167	0.366
-353.537	-25.697	-0.159	-0.094
-352.523	-200.000	-0.008	0.130
-351.508	-77.250	-0.228	0.080
-350.493	233.556	-0.103	0.171
-349.479	45.544	0.157	-0.146
-348.464	800.000	0.030	0.124
-347.450	-75.318	0.383	0.138
-346.435	-140.372	-0.174	-0.018
-345.420	800.000	0.078	-0.236
-344.406	40.235	0.055	0.050
-343.391	-159.784	-0.127	0.007
-342.377	-62.563	0.156	0.065
-341.362	800.000	-0.083	0.280
-340.348	147.434	-0.197	-0.267
-339.333	103.204	0.158	0.186
-338.318	56.347	-0.121	-0.119
-337.304	-200.000	-0.045	-0.205
-336.289	800.000	-0.024	-0.088
-335.275	69.394	-0.036	-0.037
-334.260	-161.666	-0.257	-0.013
-333.245	-82.121	0.205	0.067
-332.231	61.521	0.148	-0.148
-331.216	-168.044	0.211	-0.008
-330.202	800.000	-0.067	0.295
-329.187	15.460	-0.132	0.104
-328.172	-95.692	-0.348	-0.094
-327.158	312.143	0.147	0.278
-326.143	102.958	0.160	-0.188
-325.129	-200.000	-0.009	0.199
-324.114	-81.038	-0.177	0.059
-323.099	-58.309	0.159	-0.070
-322.085	-200.000	-0.222	-0.000
-321.070	412.491	0.073	-0.157
-320.056	-68.980	-0.105	-0.041
-319.041	800.000	0.137	-0.488
-318.026	-14.994	-0.172	-0.111
-317.012	4.408	-0.280	-0.207
-315.997	-115.389	0.106	-0.020
-314.983	-74.133	-0.269	-0.098
-313.968	6.178	-0.224	0.167
-312.953	-40.635	-0.044	0.023
-311.939	-26.359	-0.154	-0.091
-310.924	-19.254	-0.252	-0.157
-309.910	189.692	-0.111	0.168
-308.895	74.201	0.119	-0.125
-307.880	42.458	0.189	-0.172
-306.866	-200.000	-0.043	-0.214
-305.851	800.000	0.037	-0.110
-304.837	347.159	0.121	0.240
-303.822	-200.000	0.050	0.290
-302.807	126.489	-0.240	-0.305
-301.793	496.323	-0.031	0.071
-300.778	-200.000	0.024	-0.122
-299.764	-154.740	-0.127	0.008
-298.749	-89.732	0.258	0.076
-297.735	-68.814	-0.136	-0.053
-296.720	800.000	0.051	0.188
-295.705	-103.691	0.641	0.151
-294.691	50.752	-0.099	0.094
-293.676	-51.088	0.223	0.105
-292.662	18.605	-0.313	0.252
-291.647	-200.000	-0.017	-0.150
-290.632	48.153	-0.047	-0.044
-289.618	19.813	-0.049	0.040
-288.603	254.830	0.064	-0.110
-287.589	800.000	0.021	0.087
-286.574	800.000	-0.073	0.229
-285.559	-104.405	0.309	-0.072
-284.545	28.229	0.340	-0.288
-283.530	91.552	0.118	0.133
-282.516	17.858	0.132	-0.105
-281.501	-200.000	-0.048	-0.443
-280.486	-91.093	-0.327	0.094
-279.472	-122.219	0.189	0.031
-278.457	-94.676	0.020	0.006
-277.443	-200.000	0.010	-0.311
-276.428	-70.710	-0.118	-0.045
-275.413	800.000	-0.013	0.046
-274.399	-181.224	0.054	0.001
-273.384	398.441	-0.057	-0.119
-272.370	-94.297	0.031	-0.008
-271.355	-110.096	0.322	-0.067
-270.340	32.998	0.141	-0.122
-269.326	800.000	0.046	0.161
-268.311	-200.000	-0.088	0.414
-267.297	-117.221	0.067	-0.012
-266.282	55.117	-0.106	0.102
-265.267	731.408	0.104	0.278
-264.253	-101.915	0.123	0.030
-263.238	-12.740	0.121	0.079
-262.224	-200.000	-0.005	0.021
-261.209	348.079	-0.074	0.146
-260.195	-18.166	-0.194	-0.122
-259.180	-153.013	0.347	0.024
-258.165	-130.051	0.145	-0.020
-257.151	676.504	-0.167	-0.436
-256.136	551.570	0.027	-0.064
-255.122	-147.326	0.269	0.023
-254.107	539.717	0.057	-0.137
-253.092	-200.000	-0.019	0.253
-252.078	-11.636	-0.179	-0.118
-251.063	241.968	0.055	-0.092
-250.049	3.593	-0.255	0.186
-249.034	-200.000	0.012	-0.091
-248.019	-47.189	0.247	0.121
-247.005	77.926	-0.084	-0.089
-245.990	800.000	0.083	0.253
-244.976	-200.000	-0.003	-0.068
-243.961	800.000	0.072	0.222
-242.946	800.000	0.091	0.319
-241.932	589.895	-0.042	0.103
-240.917	-128.475	-0.131	-0.019
-239.903	86.529	0.212	0.234
-238.888	31.838	0.266	-0.229
-237.873	-187.912	0.209	0.003
-236.859	-17.921	-0.284	0.178
-235.844	18.932	0.156	-0.125
-234.830	697.688	-0.066	0.174
-233.815	-45.399	-0.292	-0.145
-232.800	-107.654	-0.258	-0.057
-231.786	-10.103	-0.212	0.141
-230.771	69.110	-0.214	0.221
-229.757	-2.643	-0.096	-0.068
-228.742	-200.000	0.010	0.171
-227.727	800.000	-0.049	-0.206
-226.713	-66.315	0.219	0.087
-225.698	1.747	-0.195	0.141
-224.684	-200.000	0.002	0.651
-223.669	800.000	0.058	0.211
-222.655	-91.917	0.300	0.085
-221.640	-88.084	0.138	0.041
-220.625	800.000	0.101	0.284
-219.611	800.000	-0.077	0.228
-218.596	-78.655	-0.087	-0.030
-217.582	-106.801	0.308	0.068
-216.567	-200.000	-0.017	0.209
-215.552	-101.304	-0.249	0.061
-214.538	-200.000	-0.050	-0.385
-213.523	43.077	-0.206	-0.188
-212.509	-134.872	0.407	-0.049
-211.494	-152.554	-0.095	-0.007
-210.479	123.057	-0.177	0.222
-209.465	-23.045	-0.089	-0.054
-208.450	-143.907	-0.394	0.037
-207.436	-200.000	-0.025	0.229
-206.421	3.160	0.174	-0.126
-205.406	4.377	0.173	0.127
-204.392	-196.615	0.312	0.002
-203.377	-35.636	-0.110	0.060
-202.363	-72.303	-0.251	0.093
-201.348	-21.717	-0.269	0.164
-200.333	-14.291	0.158	-0.102
-199.319	432.001	-0.086	-0.186
-198.304	-200.000	-0.003	0.046
-197.290	-187.870	-0.316	-0.004
-196.275	215.132	0.306	-0.485
-195.260	63.972	0.102	-0.103
-194.246	290.976	0.083	0.152
-193.231	800.000	-0.060	0.198
-192.217	530.868	-0.066	0.157
-191.202	-85.952	0.251	-0.078
-190.187	-137.578	0.280	-0.032
-189.173	-140.245	0.029	0.003
-188.158	-200.000	-0.018	-0.084
-187.144	-72.655	0.227	-0.084
-186.129	-200.000	-0.009	0.183
-185.114	9.709	0.171	0.130
-184.100	-64.542	0.261	-0.106
-183.085	-200.000	0.034	-0.187
-182.071	495.939	-0.093	0.214
-181.056	209.665	0.107	0.168
-180.042	-200.000	-0.018	-0.164
-179.027	-200.000	0.003	-0.217
-178.012	-200.000	-0.011	0.092
-176.998	-2.452	0.214	0.150
-175.983	-19.215	0.297	0.184
-174.969	-200.000	0.055	0.302
-173.954	79.206	-0.108	0.116
-172.939	-106.052	0.368	-0.083
-171.925	-65.493	0.114	-0.046
-170.910	-200.000	0.020	0.174
-169.896	204.438	-0.192	-0.297
-168.881	-173.013	0.208	0.006
-167.866	-200.000	0.054	-0.272
-166.852	-118.366	0.091	-0.016
-165.837	-117.534	0.349	-0.063
-164.823	34.328	-0.293	-0.255
-163.808	-48.781	0.041	0.020
-162.793	-200.000	0.019	0.479
-161.779	-29.971	0.154	-0.088
-160.764	141.512	-0.082	0.109
-159.750	358.188	-0.122	-0.243
-158.735	238.426	-0.084	0.140
-157.720	215.205	-0.107	0.169
-156.706	-115.918	0.286	-0.053
-155.691	61.385	0.056	-0.056
-154.677	-32.959	-0.273	-0.151
-153.662	-160.249	0.234	0.013
-152.647	-200.000	-0.008	-0.132
-151.633	-16.213	0.090	0.057
-150.618	-105.736	0.147	-0.033
-149.604	-0.454	0.294	-0.208
-148.589	-200.000	0.023	-0.143
-147.574	35.415	-0.072	-0.063
-146.560	54.165	0.113	-0.108
-145.545	-123.153	-0.070	-0.011
-144.531	-200.000	0.025	-0.159
-143.516	-200.000	-0.036	-0.491
-142.502	-110.788	-0.429	0.088
-141.487	85.140	0.060	-0.066
-140.472	151.460	-0.158	-0.215
-139.458	18.739	-0.098	-0.078
-138.443	477.061	-0.062	0.139
-137.429	190.154	0.133	-0.199
-136.414	301.592	0.097	-0.179
-135.399	156.886	-0.061	0.084
-134.385	-58.294	-0.187	-0.081
-133.370	800.000	-0.029	-0.093
-132.356	-154.392	0.114	0.008
-131.341	172.475	-0.049	0.071
-130.326	-200.000	0.042	-0.220
-129.312	-10.560	-0.097	-0.064
-128.297	55.554	-0.043	0.042
-127.283	104.037	-0.139	0.163
-126.268	192.150	-0.112	-0.169
-125.253	-142.847	0.297	0.029
-124.239	-14.388	-0.466	0.299
-123.224	-159.705	-0.175	0.010
-122.210	-200.000	-0.010	-0.065
-121.195	-26.148	0.187	0.109
-120.180	323.607	-0.116	0.220
-119.166	-20.117	-0.117	-0.072
-118.151	34.444	-0.191	0.167
-117.137	-71.061	-0.131	0.049
-116.122	-28.708	0.142	-0.082
-115.107	365.525	0.214	-0.430
-114.093	197.908	-0.145	0.221
-113.078	-71.827	-0.036	-0.013
-112.064	221.890	-0.065	-0.104
-111.049	252.030	-0.139	-0.236
-110.034	52.008	-0.160	-0.152
-109.020	-162.037	0.230	-0.012
-108.005	-200.000	-0.046	-0.313
-106.991	23.647	0.108	-0.089
-105.976	-117.230	-0.034	-0.006
-104.962	-112.928	0.090	0.018
-103.947	-102.859	-0.297	-0.070
-102.932	362.643	-0.085	0.170
-101.918	-200.000	-0.053	0.249
-100.903	53.896	-0.067	0.064
-99.889	534.466	-0.081	-0.191
-98.874	-77.768	-0.042	-0.014
-97.859	506.309	0.058	-0.133
-96.845	64.424	0.213	0.214
-95.830	-98.985	0.286	-0.072
-94.816	-82.409	-0.199	-0.064
-93.801	-142.175	0.142	0.014
-92.786	-104.481	0.256	0.059
-91.772	203.197	0.082	-0.126
-90.757	622.254	-0.034	0.085
-89.743	164.281	0.163	0.229
-88.728	345.164	-0.104	-0.203
-87.713	-200.000	-0.014	0.218
-86.699	502.608	0.207	0.477
-85.684	800.000	-0.043	0.182
-84.670	-121.177	0.044	0.007
-83.655	36.469	-0.010	0.009
-82.640	231.092	0.066	-0.107
-81.626	9.548	0.075	-0.057
-80.611	58.446	-0.194	0.190
-79.597	64.954	-0.041	-0.041
-78.582	800.000	-0.055	0.164
-77.567	-151.671	-0.166	0.012
-76.553	-50.860	-0.153	0.072
-75.538	127.925	0.357	-0.452
-74.524	120.538	0.208	0.258
-73.509	174.658	0.125	-0.180
-72.494	-132.169	-0.191	0.025
-71.480	668.886	-0.135	0.349
-70.465	-200.000	-0.052	0.313
-69.451	389.780	0.047	-0.098
-68.436	4.190	0.185	-0.135
-67.422	-200.000	-0.022	0.245
-66.407	735.784	0.094	-0.251
-65.392	627.420	-0.116	0.293
-64.378	-200.000	-0.024	0.168
-63.363	122.365	-0.111	0.138
-62.349	800.000	-0.052	0.154
-61.334	48.447	-0.902	-0.840
-60.319	110.261	0.318	0.381
-59.305	-200.000	0.001	-0.781
-58.290	27.715	0.634	0.531
-57.276	-200.000	0.378	1.753
-56.261	-200.000	79.456	510.041
-55.246	524.770	1317.944	3084.203
-54.232	151.723	2538.169	3440.414
-53.217	113.954	2220.483	2685.534
-52.203	50.981	1679.509	1583.394
-51.188	43.446	1411.228	1282.812
-50.173	40.127	1366.706	1221.835
-49.159	58.016	1405.375	1368.583
-48.144	63.613	1424.768	1422.400
-47.130	43.816	1385.018	1261.092
-46.115	39.996	1368.631	1222.552
-45.100	39.731	1364.035	1216.761
-44.086	39.761	1361.070	1214.253
-43.071	39.696	1359.207	1212.143
-42.057	39.729	1356.879	1210.221
-41.042	39.870	1354.708	1209.100
-40.027	39.825	1353.497	1207.700
-39.013	39.784	1351.626	1205.729
-37.998	39.955	1349.660	1204.970
-36.984	39.841	1348.306	1203.021
-35.969	39.938	1346.559	1202.004
-34.954	39.985	1344.015	1199.972
-33.940	39.911	1342.795	1198.385
-32.925	40.020	1341.727	1198.045
-31.911	40.171	1340.486	1197.806
-30.896	40.101	1338.869	1195.890
-29.881	40.031	1337.543	1194.235
-28.867	40.140	1335.691	1193.187
-27.852	40.072	1334.115	1191.326
-26.838	40.046	1332.883	1190.024
-25.823	39.924	1331.418	1187.933
-24.809	40.089	1329.864	1187.490
-23.794	40.106	1328.695	1186.501
-22.779	39.992	1327.156	1184.393
-21.765	40.109	1325.512	1183.579
-20.750	40.004	1324.050	1181.604
-19.736	39.932	1322.728	1179.945
-18.721	39.881	1321.791	1178.759
-17.706	39.819	1321.156	1177.775
-16.692	39.840	1319.954	1176.782
-15.677	39.885	1318.738	1175.918
-14.663	39.831	1317.841	1174.753
-13.648	39.968	1316.613	1174.425
-12.633	39.912	1315.205	1172.792
-11.619	39.825	1314.715	1171.790
-10.604	39.769	1313.886	1170.674
-9.590	39.916	1313.056	1170.755
-8.575	39.883	1311.568	1169.186
-7.560	39.825	1310.332	1167.696
-6.546	39.794	1309.969	1167.147
-5.531	39.807	1309.415	1166.681
-4.517	39.901	1308.511	1166.384
-3.502	39.864	1307.171	1164.926
-2.487	39.904	1306.285	1164.325
-1.473	39.914	1301.838	1160.378
-0.458	38.251	1286.246	1136.768
0.556	32.109	1265.535	1088.741
1.571	27.482	1268.890	1064.562
2.586	26.036	1283.478	1068.149
3.600	25.206	1274.733	1055.897
4.615	22.702	1206.114	985.005
5.629	18.115	1132.647	900.810
6.644	15.349	1112.007	869.992
7.659	15.128	1109.354	866.693
8.673	15.142	1108.077	865.694
9.688	14.931	1106.966	863.661
10.702	15.321	1105.289	864.283
11.717	18.328	1108.576	882.298
12.731	21.252	1112.542	900.472
13.746	20.013	1109.700	891.716
14.761	17.835	1105.964	877.447
15.775	16.547	1103.676	868.944
16.790	15.422	1101.220	861.162
17.804	14.638	1099.519	855.737
18.819	14.269	1097.889	852.504
19.834	13.842	1097.066	849.606
20.848	13.553	1096.196	847.379
21.863	13.387	1095.470	845.894
22.877	13.252	1094.473	844.361
23.892	13.207	1093.798	843.534
24.907	13.184	1093.071	842.781
25.921	13.201	1092.330	842.223
26.936	13.380	1090.573	841.706
27.950	13.206	1089.326	839.783
28.965	13.449	1087.640	839.640
29.980	13.430	1086.089	838.272
30.994	13.510	1084.869	837.661
32.009	13.393	1084.113	836.412
33.023	13.522	1082.883	836.044
34.038	13.427	1081.650	834.538
35.053	13.377	1080.838	833.587
36.067	13.371	1079.905	832.761
37.082	13.483	1079.309	832.794
38.096	13.499	1078.606	832.258
39.111	13.334	1078.131	830.987
40.126	13.375	1076.410	829.793
41.140	13.229	1075.044	827.935
42.155	13.180	1074.392	827.114
43.169	13.244	1072.944	826.244
44.184	13.287	1071.495	825.274
45.199	13.291	1070.948	824.798
46.213	13.185	1069.898	823.390
47.228	13.243	1068.723	822.698
48.242	13.301	1067.682	822.114
49.257	13.342	1066.486	821.323
50.271	13.284	1065.614	820.292
51.286	13.434	1064.412	820.039
52.301	13.319	1063.918	819.017
53.315	13.312	1062.677	817.950
54.330	13.196	1061.710	816.563
55.344	13.288	1060.544	816.047
56.359	13.294	1059.734	815.381
57.374	13.168	1058.814	813.981
58.388	13.198	1058.123	813.526
59.403	13.084	1057.197	812.181
60.417	13.289	1056.218	812.364
61.432	13.132	1055.142	810.693
62.447	13.188	1054.500	810.404
63.461	13.167	1053.848	809.727
64.476	13.107	1052.728	808.501
65.490	13.145	1051.719	807.840
66.505	13.060	1051.282	807.020
67.520	13.105	1050.378	806.472
68.534	13.081	1050.313	806.233
69.549	13.176	1049.080	805.679
70.563	13.198	1048.457	805.239
71.578	13.108	1047.826	804.243
72.593	13.203	1046.727	803.790
73.607	13.050	1046.425	802.742
74.622	13.112	1045.600	802.341
75.636	13.087	1044.582	801.370
76.651	13.038	1043.870	800.514
77.666	13.217	1043.278	800.853
78.680	13.156	1042.776	800.106
79.695	13.131	1042.061	799.365
80.709	13.264	1041.490	799.499
81.724	13.194	1041.029	798.736
82.739	13.332	1040.241	798.728
83.753	13.376	1039.467	798.271
84.768	13.505	1038.149	797.813
85.782	13.462	1037.534	797.062
86.797	13.511	1036.379	796.340
87.812	13.327	1035.878	794.998
88.826	13.411	1034.596	794.348
89.841	13.451	1033.590	793.700
90.855	13.495	1033.034	793.411
91.870	13.416	1032.666	792.681
92.884	13.583	1031.090	792.199
93.899	13.415	1030.355	790.762
94.914	13.452	1029.822	790.461
95.928	13.580	1028.579	790.047
96.943	13.475	1027.737	788.828
97.957	13.561	1026.679	788.357
98.972	13.519	1025.670	787.313
99.987	13.617	1024.757	787.006
101.001	13.500	1023.782	785.633
102.016	13.429	1023.364	784.907
103.030	13.585	1022.294	784.754
104.045	13.461	1022.000	783.876
105.060	13.312	1021.170	782.464
106.074	13.412	1019.946	781.928
107.089	13.287	1018.910	780.476
108.103	13.291	1018.032	779.754
109.118	13.352	1016.950	779.139
110.133	13.228	1016.139	777.869
111.147	13.220	1015.191	777.036
112.162	13.393	1014.253	777.059
113.176	13.444	1013.337	776.528
114.191	13.389	1012.937	775.898
115.206	13.344	1012.158	775.018
116.220	13.262	1011.564	774.114
117.235	13.346	1010.603	773.701
118.249	13.464	1009.248	773.146
119.264	13.335	1008.797	772.132
120.279	13.225	1008.125	771.035
121.293	13.333	1007.326	770.859
122.308	13.333	1006.217	769.941
123.322	13.275	1005.087	768.739
124.337	13.309	1004.249	768.188
125.352	13.275	1002.763	766.825
126.366	13.340	1002.384	766.769
127.381	13.417	1000.948	765.959
128.395	13.331	1000.346	765.033
129.410	13.311	999.647	764.338
130.424	13.417	998.202	763.655
131.439	13.502	997.540	763.475
132.454	13.502	997.268	763.197
133.468	13.346	996.529	761.849
134.483	13.497	995.154	761.422
135.497	13.436	994.355	760.466
136.512	13.409	993.439	759.571
137.527	13.402	992.580	758.817
138.541	13.578	991.862	759.006
139.556	13.505	991.171	758.075
140.570	13.535	990.341	757.514
141.585	13.461	989.998	756.846
142.600	13.625	988.400	756.307
143.614	13.686	987.436	755.779
144.629	13.596	987.217	755.131
145.643	13.552	986.077	753.996
146.658	13.494	985.070	752.893
147.673	13.567	984.009	752.349
148.687	13.550	982.995	751.427
149.702	13.494	981.955	750.313
150.716	13.493	981.087	749.580
151.731	13.507	980.430	749.074
152.746	13.638	980.135	749.376
153.760	13.590	979.079	748.286
154.775	13.470	979.107	747.696
155.789	13.558	978.179	747.321
156.804	13.648	977.474	747.120
157.819	13.623	976.766	746.403
158.833	13.692	975.854	745.948
159.848	13.658	975.333	745.330
160.862	13.713	974.126	744.590
161.877	13.647	973.081	743.428
162.892	13.515	972.474	742.310
163.906	13.604	971.060	741.562
164.921	13.584	970.292	740.821
165.935	13.538	969.830	740.195
166.950	13.707	968.695	740.018
167.964	13.525	968.216	738.775
168.979	13.579	966.771	737.849
169.994	13.661	966.253	737.751
171.008	13.683	965.560	737.254
172.023	13.772	964.616	736.865
173.037	13.765	964.063	736.344
174.052	13.819	963.037	735.737
175.067	13.731	962.940	735.207
176.081	13.649	961.987	734.052
177.096	13.636	961.803	733.790
178.110	13.577	961.257	733.046
179.125	13.804	960.474	733.389
180.140	13.662	960.085	732.398
181.154	13.717	959.575	732.187
182.169	13.707	958.787	731.479
183.183	13.834	957.976	731.352
184.198	13.785	957.528	730.731
185.213	13.824	956.656	730.171
186.227	13.906	956.172	730.100
187.242	13.767	955.456	728.878
188.256	13.994	954.520	729.094
189.271	13.933	953.835	728.240
190.286	13.987	952.594	727.467
191.300	13.765	952.142	726.084
192.315	13.685	951.657	725.297
193.329	13.731	951.439	725.271
194.344	13.801	950.648	724.909
195.359	13.793	949.998	724.314
196.373	13.925	949.314	724.305
197.388	13.968	948.683	723.946
198.402	14.104	948.385	724.247
199.417	14.065	947.952	723.681
200.432	14.268	947.155	723.894
201.446	14.286	946.423	723.349
202.461	14.291	946.190	723.126
203.475	14.143	945.746	722.082
204.490	14.107	944.585	720.974
205.504	14.126	943.991	720.540
206.519	14.059	943.017	719.443
207.534	14.022	942.242	718.626
208.548	14.167	941.716	718.792
209.563	14.088	941.264	718.040
210.577	14.156	940.505	717.689
211.592	14.257	939.720	717.462
212.607	14.289	938.836	716.861
213.621	14.337	938.054	716.408
214.636	14.308	937.311	715.655
215.650	14.350	936.609	715.232
216.665	14.313	935.999	714.546
217.680	14.417	935.481	714.533
218.694	14.395	934.656	713.746
219.709	14.463	933.907	713.402
220.723	14.458	933.575	713.064
221.738	14.283	932.619	711.523
222.753	14.320	932.246	711.335
223.767	14.480	931.391	711.300
224.782	14.459	930.903	710.777
225.796	14.486	930.584	710.583
226.811	14.546	929.502	709.950
227.826	14.474	928.792	709.038
228.840	14.489	927.929	708.381
229.855	14.456	927.449	707.811
230.869	14.417	926.734	707.040
231.884	14.488	925.780	706.549
232.899	14.466	925.008	705.806
233.913	14.412	924.370	705.028
234.928	14.312	923.558	703.920
235.942	14.399	923.195	703.951
236.957	14.502	922.460	703.763
237.972	14.393	921.852	702.777
238.986	14.423	921.243	702.375
240.001	14.515	920.454	702.100
241.015	14.629	919.711	701.952
242.030	14.389	919.843	700.981
243.045	14.638	918.751	701.131
244.059	14.463	918.390	700.060
245.074	14.676	917.350	700.098
246.088	14.646	916.485	699.252
247.103	14.586	916.435	698.899
248.117	14.709	915.856	698.912
249.132	14.801	915.293	698.804
250.147	14.864	914.023	698.034
251.161	14.818	913.756	697.578
252.176	14.997	912.946	697.645
253.190	14.930	912.447	696.920
254.205	15.116	911.221	696.697
255.220	14.935	911.053	695.757
256.234	14.999	910.483	695.522
257.249	14.979	909.690	694.772
258.263	15.119	908.675	694.520
259.278	14.988	908.142	693.505
260.293	15.023	907.965	693.455
261.307	15.102	907.300	693.211
262.322	15.255	906.089	692.860
263.336	15.234	905.662	692.384
264.351	15.258	904.936	691.865
265.366	15.153	904.292	690.881
266.380	15.173	903.758	690.494
267.395	15.274	903.144	690.380
268.409	15.204	901.971	689.132
269.424	15.348	901.124	689.016
270.439	15.262	900.756	688.320
271.453	15.191	899.861	687.286
272.468	15.226	899.915	687.409
273.482	15.212	898.810	686.445
274.497	15.140	898.600	685.932
275.512	15.271	897.702	685.720
276.526	15.289	897.195	685.346
277.541	15.197	897.216	684.928
278.555	15.385	895.897	684.626
279.570	15.361	895.723	684.332
280.585	15.384	894.709	683.594
281.599	15.414	894.067	683.165
282.614	15.410	893.305	682.503
283.628	15.392	892.701	681.908
284.643	15.376	892.392	681.548
285.657	15.305	891.759	680.717
286.672	15.276	891.378	680.247
287.687	15.390	890.430	679.925
288.701	15.481	889.854	679.793
289.716	15.431	889.257	679.075
290.730	15.426	888.994	678.793
291.745	15.488	887.937	678.176
292.760	15.527	887.155	677.678
293.774	15.614	886.626	677.565
294.789	15.621	886.059	677.101
295.803	15.353	885.694	675.682
296.818	15.523	884.440	675.348
297.833	15.635	883.818	675.266
298.847	15.609	883.327	674.723
299.862	15.540	882.964	674.110
300.876	15.779	882.076	674.332
301.891	15.764	881.702	673.926
302.906	15.700	881.102	673.151
303.920	15.836	880.757	673.371
304.935	15.860	880.403	673.137
305.949	15.758	879.447	671.942
306.964	15.766	878.630	671.289
307.979	15.840	877.777	670.871
308.993	15.810	877.872	670.765
310.008	15.901	877.022	670.418
311.022	15.895	876.152	669.670
312.037	15.905	875.474	669.135
313.052	15.875	874.913	668.525
314.066	15.681	874.482	667.370
315.081	15.684	874.331	667.207
316.095	15.762	873.501	666.824
317.110	15.740	872.314	665.769
318.125	15.889	872.202	666.215
319.139	15.849	871.687	665.605
320.154	15.790	871.467	665.146
321.168	15.849	870.789	664.799
322.183	15.856	870.197	664.317
323.197	15.922	869.263	663.808
324.212	16.025	868.723	663.740
325.227	15.846	868.497	662.807
326.241	15.918	867.832	662.521
327.256	15.917	867.306	662.059
328.270	15.908	866.842	661.611
329.285	16.011	865.932	661.260
330.300	16.059	865.313	660.920
331.314	15.964	864.981	660.232
332.329	15.944	864.630	659.830
333.343	16.091	863.903	659.792
334.358	16.071	863.726	659.519
335.373	16.086	863.403	659.271
336.387	16.059	863.136	658.904
337.402	16.255	862.673	659.261
338.416	16.144	862.519	658.648
339.431	16.261	861.725	658.441
340.446	16.245	861.389	658.065
341.460	16.167	860.878	657.313
342.475	16.402	860.238	657.681
343.489	16.250	860.255	657.041
344.504	16.142	859.921	656.310
345.519	16.395	859.314	656.771
346.533	16.336	858.458	655.829
347.548	16.379	857.901	655.513
348.562	16.210	857.602	654.570
349.577	16.228	856.778	653.953
350.592	16.150	856.028	653.022
351.606	16.311	855.574	653.240
352.621	16.309	855.139	652.845
353.635	16.379	854.303	652.416
354.650	16.405	853.570	651.898
355.665	16.429	852.712	651.279
356.679	16.426	852.111	650.753
357.694	16.455	851.527	650.360
358.708	16.576	850.888	650.277
359.723	16.457	850.617	649.555
360.738	16.501	849.717	648.979
361.752	16.416	849.187	648.191
362.767	16.582	848.447	648.205
363.781	16.519	848.251	647.759
364.796	16.530	847.824	647.417
365.810	16.636	847.252	647.330
366.825	16.575	847.282	647.059
367.840	16.804	846.297	647.125
368.854	16.714	845.799	646.344
369.869	16.854	845.088	646.279
370.883	16.811	844.611	645.693
371.898	16.846	844.838	645.941
372.913	16.733	844.506	645.201
373.927	16.710	843.932	644.619
374.942	16.884	843.281	644.723
375.956	16.924	842.825	644.470
376.971	16.851	842.060	643.553
377.986	16.943	841.705	643.572
379.000	16.957	841.189	643.173
380.015	17.039	840.707	643.059
381.029	16.995	840.246	642.482
382.044	16.982	839.881	642.100
383.059	16.909	839.065	641.142
384.073	17.075	837.920	640.838
385.088	16.960	837.641	640.132
386.102	16.834	837.546	639.530
387.117	16.969	836.587	639.247
388.132	16.992	835.957	638.797
389.146	17.046	835.403	638.519
390.161	17.147	835.052	638.576
391.175	17.031	834.938	637.996
392.190	17.179	833.817	637.638
393.205	16.826	833.804	636.246
394.219	17.023	833.134	636.417
395.234	17.013	832.877	636.129
396.248	16.907	832.862	635.662
397.263	16.969	831.889	635.096
398.278	16.935	831.511	634.623
399.292	16.978	831.237	634.519
400.307	17.022	830.790	634.286
401.321	17.110	830.025	633.973
402.336	17.169	829.419	633.674
403.350	17.093	829.288	633.237
404.365	17.085	828.740	632.732
405.380	17.394	828.001	633.263
406.394	17.315	827.512	632.537
407.409	17.374	827.109	632.395
408.423	17.156	826.911	631.374
409.438	17.401	826.224	631.707
410.453	17.364	826.092	631.413
411.467	17.405	825.416	630.990
412.482	17.384	825.196	630.688
413.496	17.562	824.898	631.064
414.511	17.564	824.812	630.950
415.526	17.477	824.233	630.128
416.540	17.464	823.313	629.322
417.555	17.500	822.582	628.842
418.569	17.479	822.786	628.864
419.584	17.543	822.041	628.476
420.599	17.552	821.717	628.203
421.613	94.660	1273.520	1392.384
422.628	81.458	1339.356	1392.505
