DTS Sentinel unit serial number:	SN413079Multiplexer serial number:	ORYXHardware model number:	OX4-SRSoftware version number:	ORYX F/W v4.00 Oryx Data Collector v3.7.2.0data status	okinstallation	princeton_trtdifferential loss correction	single-endedforward channel	channel 1reverse channel	N/Adate	2019/09/19time	02:42:35forward acquisition time	60.00reverse acquisition time	0.00gamma	496.2192k internal	0.2344k external	0.2344temperature offset calibration	1.0019default loss term (dB/km)	0.3790temperature slope calibration	1.0000multiplexer offset coefficient	1.0000multiplexer slope coefficient	1.0000fibre end	0.00T internal ref (°C)	20.94T ext. ref 1 (°C)	0.67T ext. ref 2 (°C)	14.69length (m)	temperature (°C)	Stokes	anti-Stokes-747.200	210.310	0.132	0.207
-746.185	118.623	-0.241	0.297
-745.171	-200.000	-0.033	0.196
-744.156	-186.352	-0.118	0.002
-743.142	-200.000	-0.043	-0.334
-742.127	583.842	-0.168	0.412
-741.112	-87.184	-0.130	0.040
-740.098	800.000	-0.033	-0.133
-739.083	-200.000	0.037	-0.207
-738.069	483.323	0.126	0.287
-737.054	142.019	0.391	0.519
-736.039	-155.192	-0.283	0.018
-735.025	-161.315	0.173	-0.009
-734.010	-200.000	-0.006	-0.659
-732.996	187.544	0.182	-0.272
-731.981	-200.000	-0.029	-0.238
-730.966	-200.000	0.055	-0.309
-729.952	-200.000	0.034	-0.157
-728.937	201.011	0.239	-0.368
-727.923	717.726	0.050	-0.132
-726.908	-167.615	0.337	-0.013
-725.894	-59.311	0.279	0.120
-724.879	-76.920	-0.386	-0.135
-723.864	-0.003	-0.317	-0.226
-722.850	-59.885	-0.241	-0.103
-721.835	800.000	0.034	0.136
-720.821	800.000	-0.144	-0.526
-719.806	668.184	-0.129	0.333
-718.791	124.258	0.010	0.012
-717.777	-9.158	-0.256	-0.171
-716.762	699.737	-0.104	-0.272
-715.748	-15.142	0.329	0.210
-714.733	-117.846	-0.106	0.019
-713.718	256.151	-0.167	-0.286
-712.704	-117.047	0.247	-0.045
-711.689	129.835	-0.179	-0.229
-710.675	-34.604	0.230	-0.126
-709.660	-94.610	-0.053	0.014
-708.645	137.002	0.195	-0.254
-707.631	258.300	-0.164	0.282
-706.616	129.408	0.060	0.077
-705.602	-91.948	-0.023	0.006
-704.587	-89.737	0.348	-0.102
-703.572	-200.000	0.034	0.305
-702.558	543.356	0.132	-0.315
-701.543	-141.359	-0.310	0.031
-700.529	699.039	-0.088	-0.230
-699.514	-49.180	0.200	-0.095
-698.499	81.772	-0.177	-0.192
-697.485	0.691	0.240	-0.172
-696.470	3.683	0.346	-0.252
-695.456	-200.000	0.005	-0.224
-694.441	37.021	0.261	0.231
-693.426	216.392	-0.205	-0.325
-692.412	69.833	-0.210	-0.217
-691.397	206.552	-0.089	-0.138
-690.383	20.901	-0.376	-0.304
-689.368	-66.788	-0.017	0.007
-688.354	-88.938	-0.066	-0.020
-687.339	-200.000	-0.018	0.185
-686.324	-57.580	-0.236	-0.103
-685.310	-200.000	-0.001	0.059
-684.295	-105.247	-0.240	-0.055
-683.281	-77.138	0.061	0.021
-682.266	624.521	-0.029	-0.074
-681.251	-195.023	-0.341	-0.003
-680.237	-49.285	-0.123	-0.058
-679.222	612.140	-0.133	-0.332
-678.208	662.455	0.096	0.248
-677.193	-200.000	0.004	0.310
-676.178	-124.001	0.063	-0.010
-675.164	-82.988	0.312	0.101
-674.149	-200.000	-0.055	0.261
-673.135	800.000	0.114	-0.410
-672.120	-200.000	0.021	0.138
-671.105	-8.574	-0.157	0.105
-670.091	474.015	-0.144	-0.323
-669.076	156.460	0.163	-0.224
-668.062	211.938	0.104	-0.163
-667.047	550.050	-0.044	0.104
-666.032	-175.933	-0.138	0.004
-665.018	263.448	-0.102	-0.177
-664.003	-151.460	-0.243	-0.018
-662.989	290.003	0.062	-0.112
-661.974	-39.341	0.233	-0.122
-660.959	138.679	-0.172	-0.225
-659.945	-200.000	-0.216	0.000
-658.930	306.321	0.116	0.216
-657.916	320.836	0.053	0.101
-656.901	205.112	-0.184	0.285
-655.886	332.616	-0.061	0.117
-654.872	-40.251	0.284	-0.147
-653.857	-71.626	-0.093	-0.035
-652.843	-200.000	-0.055	-0.269
-651.828	371.615	0.073	0.147
-650.814	-2.932	-0.067	-0.047
-649.799	485.803	-0.071	0.161
-648.784	-200.000	-0.019	0.107
-647.770	-144.060	-0.113	-0.011
-646.755	349.066	-0.059	0.115
-645.741	32.487	-0.275	0.237
-644.726	-45.056	0.417	0.207
-643.711	13.689	0.382	-0.296
-642.697	800.000	-0.085	-0.285
-641.682	453.209	-0.081	-0.179
-640.668	-200.000	0.039	-0.230
-639.653	97.527	-0.100	0.115
-638.638	114.536	-0.127	-0.154
-637.624	320.869	0.113	0.213
-636.609	800.000	0.061	0.231
-635.595	-200.000	0.014	0.216
-634.580	710.973	0.110	-0.291
-633.565	800.000	-0.055	0.164
-632.551	44.724	0.178	-0.163
-631.536	-134.179	0.191	0.023
-630.522	16.810	0.091	0.072
-629.507	-114.582	0.378	-0.072
-628.492	209.526	-0.178	0.278
-627.478	-91.405	0.216	-0.061
-626.463	-200.000	0.002	0.154
-625.449	800.000	-0.015	0.044
-624.434	-140.059	-0.260	-0.027
-623.419	662.121	0.042	-0.108
-622.405	-200.000	0.000	-0.146
-621.390	-179.575	-0.330	-0.007
-620.376	4.595	0.124	0.091
-619.361	70.195	0.231	-0.237
-618.346	-109.492	-0.317	0.067
-617.332	-200.000	0.032	0.303
-616.317	-71.665	0.257	-0.095
-615.303	-200.000	0.045	0.311
-614.288	92.671	0.132	0.149
-613.273	416.106	0.039	0.083
-612.259	681.763	-0.040	0.104
-611.244	175.428	0.074	0.107
-610.230	85.954	-0.064	-0.070
-609.215	-131.527	-0.239	-0.031
-608.201	800.000	0.047	-0.144
-607.186	-200.000	0.047	0.288
-606.171	-200.000	0.012	-0.381
-605.157	800.000	-0.061	0.238
-604.142	800.000	-0.032	0.119
-603.128	-147.625	-0.328	0.027
-602.113	449.690	-0.102	-0.223
-601.098	-108.891	-0.260	-0.055
-600.084	-13.724	0.319	0.205
-599.069	187.067	0.092	-0.136
-598.055	-39.966	-0.032	0.017
-597.040	82.221	-0.105	0.113
-596.025	42.073	-0.404	0.365
-595.011	-45.455	0.104	0.051
-593.996	128.366	0.206	0.260
-592.982	-200.000	-0.001	-0.323
-591.967	-12.914	-0.274	-0.177
-590.952	794.281	-0.111	-0.303
-589.938	800.000	-0.058	-0.249
-588.923	-200.000	0.005	0.161
-587.909	491.798	-0.109	-0.247
-586.894	-162.835	0.195	0.009
-585.879	800.000	-0.053	0.201
-584.865	167.223	-0.113	-0.159
-583.850	-157.461	-0.461	0.028
-582.836	-1.529	-0.097	-0.068
-581.821	-82.460	-0.124	-0.040
-580.806	-177.101	-0.094	0.002
-579.792	-200.000	0.036	0.225
-578.777	-200.000	0.089	-0.403
-577.763	48.452	0.246	-0.229
-576.748	-200.000	-0.023	-0.159
-575.733	-11.279	0.115	-0.075
-574.719	234.695	-0.055	-0.090
-573.704	82.390	-0.102	0.110
-572.690	276.433	-0.097	-0.171
-571.675	2.103	0.311	0.224
-570.661	484.061	0.142	-0.321
-569.646	70.017	-0.080	-0.082
-568.631	-200.000	0.019	0.307
-567.617	147.582	-0.097	0.130
-566.602	-108.632	0.376	0.080
-565.588	433.001	0.072	-0.155
-564.573	178.659	-0.107	-0.156
-563.558	800.000	-0.015	-0.062
-562.544	-200.000	-0.007	-0.151
-561.529	146.457	-0.096	-0.129
-560.515	-20.649	-0.203	0.124
-559.500	-144.080	0.231	-0.021
-558.485	-109.866	0.280	0.058
-557.471	250.640	0.057	-0.096
-556.456	-130.470	-0.131	-0.018
-555.442	-15.652	-0.073	-0.046
-554.427	601.669	-0.029	-0.072
-553.412	-200.000	0.033	0.384
-552.398	800.000	0.044	0.132
-551.383	-37.215	-0.134	-0.071
-550.369	-44.531	-0.078	0.039
-549.354	-137.096	-0.134	0.015
-548.339	800.000	-0.057	-0.228
-547.325	88.167	0.121	-0.133
-546.310	-200.000	-0.025	-0.186
-545.296	-152.817	0.185	0.013
-544.281	-91.491	0.203	0.057
-543.266	-200.000	0.026	-0.148
-542.252	-10.751	-0.097	0.063
-541.237	75.075	-0.115	0.120
-540.223	-69.744	-0.257	-0.098
-539.208	-120.455	-0.306	0.052
-538.193	559.612	-0.021	0.049
-537.179	-81.348	-0.123	0.040
-536.164	39.105	-0.166	-0.148
-535.150	-44.754	0.069	-0.034
-534.135	-112.373	0.481	0.096
-533.121	352.446	-0.200	-0.393
-532.106	-115.663	-0.169	-0.032
-531.091	-200.000	-0.003	0.291
-530.077	250.749	0.203	-0.343
-529.062	-200.000	-0.002	-0.115
-528.048	83.374	0.154	-0.167
-527.033	46.316	-0.243	-0.224
-526.018	-77.162	0.143	-0.050
-525.004	98.585	0.107	0.123
-523.989	-27.368	-0.091	0.052
-522.975	162.006	0.101	0.141
-521.960	36.922	-0.189	-0.166
-520.945	225.758	0.259	0.416
-519.931	-134.380	-0.101	0.012
-518.916	-74.312	0.285	-0.102
-517.902	-75.702	-0.216	-0.076
-516.887	31.108	0.281	-0.239
-515.872	103.984	-0.012	0.014
-514.858	-72.928	-0.295	0.108
-513.843	0.633	0.059	-0.042
-512.829	-200.000	-0.056	-0.356
-511.814	800.000	-0.093	-0.313
-510.799	-7.297	-0.269	0.181
-509.785	248.303	0.123	-0.207
-508.770	-200.000	-0.033	0.222
-507.756	-178.901	0.385	-0.009
-506.741	336.223	0.028	0.054
-505.726	800.000	-0.037	-0.144
-504.712	-51.009	0.123	-0.057
-503.697	764.986	0.190	0.512
-502.683	23.558	-0.161	-0.131
-501.668	480.093	0.143	0.322
-500.653	447.918	-0.034	0.075
-499.639	-4.097	0.156	-0.107
-498.624	-200.000	0.022	-0.108
-497.610	-130.099	-0.071	-0.010
-496.595	-41.834	-0.093	0.047
-495.581	31.562	0.240	-0.205
-494.566	-166.712	0.147	-0.006
-493.551	54.562	-0.233	0.223
-492.537	-200.000	-0.048	-0.286
-491.522	90.411	0.195	-0.217
-490.508	-200.000	-0.002	0.066
-489.493	-200.000	-0.059	0.310
-488.478	124.943	-0.085	0.106
-487.464	39.619	0.193	-0.171
-486.449	17.535	-0.154	-0.121
-485.435	384.785	0.107	-0.218
-484.420	-47.889	0.213	-0.102
-483.405	-200.000	-0.041	-0.290
-482.391	550.245	-0.062	-0.148
-481.376	-138.351	0.278	-0.030
-480.362	-200.000	0.044	-0.190
-479.347	196.270	0.134	0.201
-478.332	800.000	-0.077	0.223
-477.318	87.741	0.112	-0.123
-476.303	390.363	0.035	-0.072
-475.289	-84.566	0.165	0.052
-474.274	81.865	0.189	0.203
-473.259	616.365	0.062	-0.155
-472.245	-200.000	0.016	0.108
-471.230	196.826	0.224	0.338
-470.216	18.047	0.022	-0.018
-469.201	-200.000	-0.032	-0.333
-468.186	381.881	0.091	-0.185
-467.172	523.613	0.137	-0.320
-466.157	-149.174	0.119	-0.009
-465.143	23.422	0.125	0.102
-464.128	27.904	-0.111	0.093
-463.113	288.589	-0.099	-0.177
-462.099	176.475	0.018	-0.026
-461.084	800.000	0.065	-0.186
-460.070	-200.000	-0.013	-0.103
-459.055	22.182	-0.105	-0.085
-458.040	40.764	0.075	-0.066
-457.026	13.846	-0.038	0.029
-456.011	-200.000	0.011	0.054
-454.997	184.022	-0.124	-0.182
-453.982	47.514	0.232	0.214
-452.968	146.556	0.176	0.234
-451.953	-57.261	0.033	-0.014
-450.938	800.000	0.076	-0.273
-449.924	-53.757	-0.047	-0.021
-448.909	-160.866	0.200	-0.010
-447.895	-146.990	-0.101	-0.009
-446.880	547.778	0.057	0.134
-445.865	339.685	-0.079	-0.151
-444.851	-143.767	-0.166	-0.015
-443.836	178.175	0.061	0.088
-442.822	-73.025	-0.346	-0.126
-441.807	-130.382	0.312	0.042
-440.792	-121.035	0.172	0.028
-439.778	247.535	-0.149	0.249
-438.763	-200.000	0.036	-0.224
-437.749	-27.174	0.278	-0.160
-436.734	-200.000	-0.005	-0.242
-435.719	469.125	-0.031	0.068
-434.705	-142.913	-0.427	0.041
-433.690	-50.736	-0.126	0.058
-432.676	-39.469	-0.186	0.096
-431.661	-87.382	0.178	0.053
-430.646	193.607	-0.103	0.154
-429.632	-10.198	-0.184	-0.121
-428.617	-147.979	0.319	-0.026
-427.603	-200.000	-0.034	0.173
-426.588	800.000	0.167	-0.490
-425.573	90.332	-0.139	0.154
-424.559	-52.938	-0.192	0.087
-423.544	56.163	-0.240	-0.230
-422.530	200.626	-0.225	-0.342
-421.515	800.000	0.041	0.143
-420.500	-200.000	-0.037	0.330
-419.486	130.403	0.197	0.249
-418.471	-72.465	0.273	-0.100
-417.457	-200.000	-0.015	-0.086
-416.442	85.500	0.264	0.287
-415.428	26.952	0.221	0.183
-414.413	800.000	0.077	0.217
-413.398	176.213	0.059	0.085
-412.384	535.634	0.190	-0.445
-411.369	-118.840	0.178	0.031
-410.355	-92.633	0.122	-0.034
-409.340	8.045	0.076	-0.057
-408.325	-33.345	0.135	-0.074
-407.311	200.693	0.206	-0.313
-406.296	-134.877	-0.367	-0.044
-405.282	58.738	-0.175	-0.170
-404.267	127.246	0.203	-0.255
-403.252	800.000	0.023	0.069
-402.238	45.401	-0.186	0.170
-401.223	-200.000	0.013	0.103
-400.209	334.604	-0.104	-0.200
-399.194	62.848	-0.087	-0.086
-398.179	-118.995	0.169	-0.029
-397.165	-7.963	0.296	0.197
-396.150	-200.000	-0.008	-0.109
-395.136	-136.405	0.231	-0.027
-394.121	237.903	0.057	0.094
-393.106	800.000	-0.024	-0.092
-392.092	494.857	0.122	-0.276
-391.077	-200.000	-0.007	-0.095
-390.063	-91.124	-0.198	0.056
-389.048	-200.000	0.013	0.154
-388.033	-200.000	0.008	0.041
-387.019	-200.000	-0.008	0.174
-386.004	-71.786	-0.094	0.034
-384.990	454.101	-0.066	0.144
-383.975	319.556	0.138	-0.258
-382.960	720.752	-0.128	-0.336
-381.946	165.956	0.033	-0.047
-380.931	451.571	0.031	0.068
-379.917	41.832	0.119	-0.107
-378.902	-200.000	0.042	-0.252
-377.888	-88.470	0.403	-0.119
-376.873	505.446	-0.071	0.162
-375.858	167.979	0.156	-0.219
-374.844	-42.870	0.113	0.057
-373.829	77.364	0.162	0.170
-372.815	127.208	-0.186	0.232
-371.800	256.453	0.087	-0.147
-370.785	373.948	0.157	0.315
-369.771	-68.231	0.032	0.012
-368.756	-14.882	0.324	0.205
-367.742	-200.000	-0.027	0.134
-366.727	-35.305	-0.105	0.056
-365.712	-7.880	0.208	0.138
-364.698	77.386	0.179	0.188
-363.683	-135.477	-0.517	-0.061
-362.669	-119.756	0.129	-0.022
-361.654	507.565	0.059	-0.136
-360.639	137.047	-0.053	0.068
-359.625	-42.138	-0.258	0.130
-358.610	-200.000	0.048	-0.233
-357.596	-166.268	-0.228	0.009
-356.581	-150.543	0.155	-0.012
-355.566	-47.310	-0.282	-0.136
-354.552	-11.941	0.310	0.200
-353.537	800.000	-0.073	0.238
-352.523	62.220	0.179	0.176
-351.508	-84.239	-0.209	0.065
-350.493	614.691	0.162	0.400
-349.479	-67.060	0.080	0.031
-348.464	800.000	0.074	-0.272
-347.450	-161.892	0.118	0.006
-346.435	40.116	0.170	-0.151
-345.420	-135.031	-0.374	0.044
-344.406	318.333	0.080	-0.149
-343.391	800.000	-0.163	-0.472
-342.377	-158.633	-0.198	-0.011
-341.362	100.771	-0.143	0.164
-340.348	13.811	0.187	0.143
-339.333	105.822	-0.136	0.159
-338.318	-200.000	-0.075	0.337
-337.304	-200.000	0.031	0.173
-336.289	-200.000	-0.116	-0.503
-335.275	-169.389	-0.069	0.002
-334.260	800.000	-0.026	0.077
-333.245	-31.464	0.146	-0.081
-332.231	-145.488	-0.301	-0.027
-331.216	-200.000	0.040	0.465
-330.202	-102.428	-0.204	0.048
-329.187	800.000	0.060	0.206
-328.172	-43.473	-0.237	0.118
-327.158	-30.673	-0.135	0.075
-326.143	59.751	0.083	-0.081
-325.129	-54.521	0.102	0.046
-324.114	-200.000	0.066	-0.391
-323.099	544.690	-0.092	0.216
-322.085	-3.832	0.198	-0.136
-321.070	-176.255	-0.123	-0.003
-320.056	800.000	-0.116	-0.485
-319.041	-117.829	-0.198	0.035
-318.026	42.339	0.058	0.052
-317.012	800.000	-0.049	-0.162
-315.997	-56.195	0.291	0.128
-314.983	585.962	0.031	0.076
-313.968	36.740	-0.081	-0.070
-312.953	478.879	-0.126	0.282
-311.939	202.874	0.043	0.066
-310.924	397.629	-0.071	-0.145
-309.910	-200.000	0.015	-0.380
-308.895	201.509	-0.137	0.207
-307.880	87.099	-0.255	-0.277
-306.866	339.715	-0.110	0.210
-305.851	-54.226	0.041	-0.018
-304.837	800.000	-0.092	-0.256
-303.822	-119.884	-0.141	-0.024
-302.807	-44.903	0.140	0.068
-301.793	-200.000	-0.039	0.342
-300.778	134.520	-0.209	0.267
-299.764	800.000	0.080	0.268
-298.749	-200.000	0.038	-0.283
-297.735	-0.181	-0.155	-0.108
-296.720	-152.261	0.369	-0.026
-295.705	133.658	0.081	-0.103
-294.691	800.000	0.053	0.152
-293.676	173.474	0.070	0.100
-292.662	371.984	0.034	-0.068
-291.647	-106.608	0.116	-0.025
-290.632	-29.631	-0.329	0.185
-289.618	-78.028	0.093	0.032
-288.603	152.334	-0.191	0.256
-287.589	-106.143	-0.303	-0.067
-286.574	326.021	0.069	-0.129
-285.559	-200.000	0.036	-0.216
-284.545	158.685	0.004	-0.006
-283.530	-129.464	-0.399	0.054
-282.516	-200.000	-0.042	0.401
-281.501	800.000	-0.040	0.162
-280.486	-40.707	0.187	0.095
-279.472	243.864	-0.061	0.100
-278.457	800.000	0.047	0.145
-277.443	7.977	0.250	0.184
-276.428	800.000	-0.072	-0.262
-275.413	-53.173	0.186	-0.084
-274.399	-42.097	-0.182	-0.091
-273.384	800.000	-0.024	0.096
-272.370	-186.724	0.175	-0.002
-271.355	-54.820	-0.206	-0.091
-270.340	414.754	0.089	-0.186
-269.326	87.316	0.095	-0.103
-268.311	-0.651	0.112	0.078
-267.297	166.254	0.242	0.336
-266.282	-63.983	0.163	0.065
-265.267	-64.201	-0.262	-0.105
-264.253	-200.000	-0.015	-0.110
-263.238	-84.390	0.219	0.068
-262.224	-200.000	-0.011	0.149
-261.209	-200.000	-0.041	0.000
-260.195	9.230	-0.121	0.090
-259.180	764.356	0.040	-0.107
-258.165	419.723	0.133	0.280
-257.151	85.373	-0.032	0.035
-256.136	90.323	0.155	0.170
-255.122	29.582	0.051	0.043
-254.107	40.689	-0.109	0.096
-253.092	5.998	-0.383	-0.279
-252.078	-200.000	-0.028	-0.237
-251.063	-56.463	-0.354	0.154
-250.049	-31.800	0.139	0.077
-249.034	-18.621	0.118	0.072
-248.019	800.000	-0.027	-0.075
-247.005	-200.000	0.025	0.160
-245.990	-70.130	-0.441	0.164
-244.976	14.775	-0.084	-0.064
-243.961	-141.318	0.196	0.020
-242.946	165.946	-0.281	0.390
-241.932	-106.924	0.318	0.069
-240.917	80.010	0.163	0.172
-239.903	-186.788	-0.408	0.006
-238.888	229.603	0.170	-0.273
-237.873	-34.117	0.283	-0.152
-236.859	-125.901	-0.335	0.050
-235.844	-44.116	0.124	-0.061
-234.830	117.038	-0.093	0.112
-233.815	-99.987	0.200	0.049
-232.800	-105.112	0.269	-0.060
-231.786	23.791	-0.195	0.157
-230.771	-147.513	-0.193	-0.016
-229.757	-200.000	0.040	-0.191
-228.742	-41.485	-0.295	-0.149
-227.727	748.792	-0.053	-0.141
-226.713	78.430	0.050	0.053
-225.698	-200.000	0.000	-0.097
-224.684	-200.000	-0.024	0.296
-223.669	-134.598	-0.275	0.033
-222.655	36.197	-0.197	0.170
-221.640	180.035	-0.157	-0.226
-220.625	143.123	-0.210	0.274
-219.611	800.000	0.043	0.158
-218.596	-95.162	-0.328	0.087
-217.582	-113.657	-0.269	0.052
-216.567	-163.666	0.085	0.004
-215.552	800.000	-0.083	0.283
-214.538	-31.305	0.158	0.087
-213.523	-11.184	-0.229	0.148
-212.509	-200.000	0.033	-0.152
-211.494	-47.901	0.313	0.148
-210.479	104.242	0.071	-0.082
-209.465	-126.449	0.342	0.050
-208.450	-48.998	-0.185	-0.087
-207.436	195.997	-0.179	-0.266
-206.421	-114.809	-0.306	-0.057
-205.406	332.822	-0.116	0.219
-204.392	800.000	0.024	0.076
-203.377	-57.017	0.227	0.098
-202.363	800.000	0.039	-0.149
-201.348	-200.000	0.027	0.275
-200.333	41.344	0.184	-0.163
-199.319	734.515	-0.120	0.314
-198.304	-114.889	0.109	-0.020
-197.290	154.874	-0.359	0.483
-196.275	80.057	0.140	0.147
-195.260	35.385	0.210	0.180
-194.246	-200.000	0.044	0.279
-193.231	-200.000	-0.027	-0.119
-192.217	-1.804	0.190	0.131
-191.202	203.925	-0.088	0.133
-190.187	-64.250	0.095	-0.038
-189.173	-123.458	-0.312	-0.049
-188.158	-114.143	0.156	0.029
-187.144	-200.000	-0.084	0.474
-186.129	-94.314	0.278	0.074
-185.114	800.000	0.108	-0.303
-184.100	310.462	-0.091	-0.166
-183.085	362.828	-0.040	0.079
-182.071	800.000	0.094	0.305
-181.056	800.000	-0.141	-0.391
-180.042	211.504	-0.210	-0.323
-179.027	3.144	0.219	0.156
-178.012	-200.000	0.017	-0.289
-176.998	-128.520	0.058	-0.008
-175.983	203.147	-0.126	-0.191
-174.969	77.165	-0.130	-0.136
-173.954	-117.561	-0.105	0.018
-172.939	795.996	0.086	0.232
-171.925	-200.000	0.043	0.205
-170.910	11.129	0.097	-0.073
-169.896	-200.000	0.011	-0.076
-168.881	800.000	-0.060	-0.221
-167.866	-1.060	-0.190	-0.131
-166.852	-200.000	-0.018	-0.238
-165.837	-200.000	-0.013	0.203
-164.823	-16.230	-0.030	0.019
-163.808	-103.260	-0.269	0.062
-162.793	-39.725	0.183	0.094
-161.779	800.000	0.093	-0.262
-160.764	800.000	0.095	-0.316
-159.750	-200.000	-0.013	-0.520
-158.735	108.009	0.176	0.205
-157.720	24.007	0.073	0.059
-156.706	73.250	-0.151	-0.154
-155.691	23.193	-0.155	-0.124
-154.677	150.879	-0.264	0.351
-153.662	155.237	0.053	-0.071
-152.647	280.280	-0.180	0.315
-151.633	-200.000	0.009	-0.327
-150.618	297.722	-0.066	0.118
-149.604	227.064	-0.291	0.463
-148.589	328.847	0.085	0.160
-147.574	-32.388	-0.243	0.132
-146.560	-200.000	0.000	0.037
-145.545	-146.806	0.129	-0.011
-144.531	87.698	0.221	-0.239
-143.516	-86.261	0.192	0.058
-142.502	-79.563	-0.361	-0.119
-141.487	-98.802	0.268	-0.067
-140.472	95.086	-0.140	0.156
-139.458	-47.349	0.346	-0.165
-138.443	-200.000	-0.038	-0.211
-137.429	42.002	0.071	-0.063
-136.414	142.264	0.038	0.049
-135.399	13.115	0.175	0.132
-134.385	0.487	0.148	-0.103
-133.370	-12.115	-0.112	0.072
-132.356	800.000	-0.057	-0.168
-131.341	-37.536	0.277	0.144
-130.326	2.606	0.078	0.055
-129.312	-101.708	-0.344	-0.082
-128.297	-200.000	0.020	0.133
-127.283	294.844	-0.076	-0.137
-126.268	-200.000	-0.021	-0.142
-125.253	800.000	0.080	-0.323
-124.239	149.872	0.060	0.080
-123.224	-200.000	0.026	-0.134
-122.210	-200.000	-0.027	0.189
-121.195	-200.000	0.024	0.172
-120.180	800.000	-0.178	0.527
-119.166	142.119	0.030	0.039
-118.151	-200.000	-0.020	-0.346
-117.137	-0.752	-0.452	0.313
-116.122	91.633	-0.221	0.243
-115.107	800.000	0.025	0.092
-114.093	-49.600	0.033	0.015
-113.078	125.925	0.170	-0.209
-112.064	185.026	-0.150	0.218
-111.049	47.430	-0.078	-0.071
-110.034	499.954	-0.032	0.073
-109.020	92.577	-0.048	-0.053
-108.005	740.521	0.070	-0.183
-106.991	483.790	-0.071	-0.158
-105.976	-200.000	0.005	0.215
-104.962	-10.088	0.115	0.075
-103.947	-63.638	-0.127	0.051
-102.932	203.991	0.127	0.192
-101.918	376.078	-0.037	0.075
-100.903	67.746	-0.121	-0.120
-99.889	-13.570	0.062	-0.039
-98.874	800.000	-0.066	-0.213
-97.859	800.000	-0.124	0.439
-96.845	-87.869	0.202	-0.059
-95.830	259.706	0.029	-0.049
-94.816	-132.342	0.139	-0.017
-93.801	68.019	-0.062	-0.062
-92.786	800.000	-0.098	-0.376
-91.772	-200.000	-0.018	-0.462
-90.757	-200.000	0.011	-0.417
-89.743	-61.187	-0.209	-0.086
-88.728	-62.055	0.218	-0.089
-87.713	-34.614	0.186	0.099
-86.699	-90.605	-0.295	-0.083
-85.684	800.000	0.057	-0.160
-84.670	-148.215	0.339	-0.027
-83.655	47.683	0.141	0.128
-82.640	-200.000	-0.009	0.085
-81.626	-25.182	0.102	-0.059
-80.611	154.780	0.096	-0.128
-79.597	800.000	-0.052	-0.207
-78.582	20.748	0.078	0.061
-77.567	108.283	-0.133	0.154
-76.553	508.663	0.072	-0.164
-75.538	-99.263	0.410	-0.101
-74.524	198.267	-0.146	-0.217
-73.509	30.411	0.132	-0.110
-72.494	59.885	-0.108	-0.104
-71.480	-179.895	0.194	-0.004
-70.465	-200.000	0.006	0.176
-69.451	-200.000	0.069	-0.357
-68.436	507.919	-0.061	-0.139
-67.422	8.620	-0.219	-0.161
-66.407	-101.632	-0.209	-0.050
-65.392	30.503	0.096	-0.080
-64.378	-200.000	-0.006	-0.374
-63.363	-141.218	-0.241	-0.024
-62.349	178.300	-0.276	0.392
-61.334	238.413	-0.987	-1.598
-60.319	156.283	0.658	0.884
-59.305	766.169	-0.552	-1.463
-58.290	452.270	0.728	1.568
-57.276	411.515	0.768	1.589
-56.261	-200.000	135.565	682.399
-55.246	337.619	1679.098	3180.619
-54.232	134.055	2803.660	3537.979
-53.217	87.446	2171.977	2341.329
-52.203	31.987	1602.777	1345.371
-51.188	24.220	1351.433	1087.175
-50.173	21.907	1315.678	1044.615
-49.159	49.700	1389.228	1274.789
-48.144	46.040	1398.127	1260.493
-47.130	24.199	1345.580	1082.167
-46.115	21.144	1326.363	1048.347
-45.100	20.989	1321.106	1043.228
-44.086	20.790	1318.839	1040.204
-43.071	20.840	1316.302	1038.464
-42.057	20.813	1314.288	1036.670
-41.042	20.862	1312.653	1035.632
-40.027	20.925	1310.787	1034.494
-39.013	20.902	1309.149	1033.021
-37.998	20.790	1307.690	1031.164
-36.984	20.869	1305.804	1030.105
-35.969	20.949	1303.943	1029.069
-34.954	20.973	1302.165	1027.768
-33.940	20.861	1301.489	1026.534
-32.925	20.964	1299.818	1025.780
-31.911	20.990	1298.312	1024.706
-30.896	20.988	1297.131	1023.716
-29.881	21.051	1295.563	1022.812
-28.867	21.003	1293.755	1021.063
-27.852	21.126	1292.500	1020.749
-26.838	21.109	1291.435	1019.770
-25.823	21.057	1289.746	1018.088
-24.809	20.947	1288.641	1016.535
-23.794	21.046	1287.383	1016.082
-22.779	21.055	1286.381	1015.302
-21.765	21.037	1284.620	1013.766
-20.750	21.049	1283.615	1013.004
-19.736	20.827	1282.908	1011.119
-18.721	20.970	1281.302	1010.641
-17.706	20.894	1280.835	1009.788
-16.692	20.878	1279.522	1008.625
-15.677	20.982	1277.903	1007.907
-14.663	20.945	1276.776	1006.765
-13.648	20.942	1275.705	1005.864
-12.633	20.830	1274.856	1004.509
-11.619	20.886	1274.111	1004.203
-10.604	20.806	1273.619	1003.313
-9.590	20.879	1272.377	1002.716
-8.575	20.867	1271.261	1001.732
-7.560	20.872	1270.696	1001.274
-6.546	20.832	1269.579	1000.125
-5.531	20.907	1268.994	1000.052
-4.517	21.041	1267.555	999.650
-3.502	20.853	1267.628	998.590
-2.487	20.921	1266.133	997.761
-1.473	20.871	1261.736	993.969
-0.458	19.211	1246.556	972.606
0.556	14.916	1231.198	936.229
1.571	11.355	1239.151	922.095
2.586	10.740	1255.326	930.526
3.600	10.953	1242.904	922.442
4.615	8.355	1170.767	854.938
5.629	3.131	1101.822	778.148
6.644	0.829	1085.888	755.338
7.659	0.588	1083.969	752.735
8.673	0.639	1083.147	752.354
9.688	0.615	1081.809	751.239
10.702	0.840	1079.034	750.361
11.717	3.947	1082.508	768.152
12.731	10.333	1091.047	806.010
13.746	15.496	1098.040	836.901
14.761	17.318	1099.422	846.964
15.775	16.611	1098.340	842.538
16.790	15.538	1096.403	835.642
17.804	15.010	1094.383	831.406
18.819	14.566	1093.351	828.346
19.834	14.371	1092.555	826.702
20.848	14.165	1091.702	824.960
21.863	13.839	1090.742	822.549
22.877	13.719	1090.100	821.395
23.892	13.739	1089.307	820.825
24.907	13.778	1088.742	820.517
25.921	13.734	1087.494	819.289
26.936	13.790	1086.928	819.065
27.950	13.806	1085.987	818.362
28.965	13.851	1084.965	817.743
29.980	13.878	1083.402	816.625
30.994	14.017	1081.828	816.047
32.009	14.001	1081.339	815.531
33.023	13.966	1080.508	814.660
34.038	13.917	1079.479	813.569
35.053	13.844	1078.789	812.622
36.067	13.917	1077.691	812.077
37.082	13.890	1076.864	811.250
38.096	13.866	1076.240	810.595
39.111	13.908	1075.309	810.025
40.126	13.924	1073.614	808.753
41.140	13.853	1072.827	807.747
42.155	13.678	1071.934	806.150
43.169	13.705	1070.832	805.383
44.184	13.659	1069.946	804.420
45.199	13.762	1068.684	803.898
46.213	13.671	1067.997	802.869
47.228	13.676	1066.890	801.994
48.242	13.787	1065.451	801.377
49.257	13.835	1064.613	800.905
50.271	13.805	1063.802	800.078
51.286	13.832	1062.758	799.357
52.301	13.812	1062.064	798.664
53.315	13.800	1060.785	797.578
54.330	13.724	1059.934	796.501
55.344	13.788	1058.811	795.894
56.359	13.810	1057.971	795.296
57.374	13.740	1057.176	794.293
58.388	13.687	1056.794	793.680
59.403	13.738	1055.541	792.915
60.417	13.609	1054.830	791.694
61.432	13.484	1054.454	790.745
62.447	13.586	1053.623	790.540
63.461	13.605	1052.101	789.417
64.476	13.551	1051.769	788.843
65.490	13.706	1050.142	788.289
66.505	13.721	1049.635	787.909
67.520	13.770	1049.091	787.661
68.534	13.764	1048.252	786.936
69.549	13.652	1047.473	785.748
70.563	13.768	1046.792	785.719
71.578	13.767	1045.534	784.700
72.593	13.638	1045.088	783.687
73.607	13.607	1044.534	783.056
74.622	13.615	1044.021	782.638
75.636	13.590	1043.197	781.835
76.651	13.701	1042.251	781.581
77.666	13.661	1042.121	781.225
78.680	13.620	1041.447	780.459
79.695	13.655	1040.590	779.912
80.709	13.836	1039.910	780.184
81.724	13.621	1039.548	778.831
82.739	13.795	1038.590	778.864
83.753	13.818	1037.925	778.402
84.768	13.923	1036.478	777.741
85.782	13.898	1035.864	777.092
86.797	13.853	1034.763	775.987
87.812	13.730	1034.093	774.840
88.826	13.865	1032.735	774.388
89.841	13.873	1031.886	773.720
90.855	13.823	1030.873	772.658
91.870	13.833	1029.959	771.953
92.884	13.902	1029.085	771.548
93.899	14.036	1028.213	771.447
94.914	13.921	1027.680	770.446
95.928	14.012	1026.483	769.901
96.943	13.868	1025.865	768.703
97.957	13.821	1025.103	767.849
98.972	13.824	1024.355	767.235
99.987	13.874	1023.274	766.585
101.001	13.942	1022.134	765.980
102.016	13.878	1021.350	765.027
103.030	13.918	1020.456	764.475
104.045	13.943	1019.428	763.753
105.060	13.989	1018.767	763.400
106.074	13.855	1017.942	762.098
107.089	13.798	1017.153	761.178
108.103	13.698	1016.392	760.086
109.118	13.759	1015.482	759.617
110.133	13.780	1014.625	759.006
111.147	13.741	1013.943	758.249
112.162	13.779	1012.540	757.304
113.176	13.908	1011.905	757.353
114.191	13.905	1011.332	756.843
115.206	13.874	1010.540	756.043
116.220	13.789	1009.810	755.043
117.235	13.693	1009.251	754.122
118.249	13.780	1007.986	753.504
119.264	13.821	1007.014	752.898
120.279	13.890	1006.447	752.719
121.293	13.836	1005.776	751.904
122.308	13.704	1005.300	750.887
123.322	13.812	1003.366	749.864
124.337	13.686	1002.590	748.647
125.352	13.990	1001.175	748.894
126.366	13.858	1000.312	747.587
127.381	13.796	999.164	746.385
128.395	13.752	998.535	745.653
129.410	13.830	997.564	745.210
130.424	13.903	996.301	744.531
131.439	13.754	995.845	743.453
132.454	13.768	995.263	743.017
133.468	13.942	993.975	742.767
134.483	13.897	993.078	741.831
135.497	13.809	992.527	740.962
136.512	13.851	991.691	740.460
137.527	13.936	990.676	740.015
138.541	13.850	990.557	739.476
139.556	13.869	989.092	738.401
140.570	13.833	989.211	738.267
141.585	13.972	987.648	737.652
142.600	13.952	986.555	736.683
143.614	14.010	986.052	736.498
144.629	14.137	984.917	736.146
145.643	13.954	984.592	735.027
146.658	14.099	983.173	734.547
147.673	14.022	982.229	733.437
148.687	13.984	981.571	732.710
149.702	13.895	980.565	731.504
150.716	13.963	979.723	731.111
151.731	13.922	979.128	730.419
152.746	14.072	978.476	730.529
153.760	14.073	977.705	729.893
154.775	14.125	977.117	729.616
155.789	14.143	975.980	728.782
156.804	14.139	975.768	728.541
157.819	14.186	974.944	728.067
158.833	14.246	974.202	727.710
159.848	14.138	973.194	726.423
160.862	14.190	972.316	725.930
161.877	14.067	971.743	724.901
162.892	14.145	970.372	724.156
163.906	14.090	969.609	723.282
164.921	14.202	968.739	723.056
165.935	14.216	967.874	722.408
166.950	14.199	967.048	721.653
167.964	14.120	966.311	720.699
168.979	14.169	965.695	720.385
169.994	14.300	964.089	719.693
171.008	14.215	963.754	719.008
172.023	14.311	962.712	718.581
173.037	14.266	962.664	718.290
174.052	14.377	961.507	717.841
175.067	14.383	960.860	717.318
176.081	14.151	960.531	716.011
177.096	14.220	959.890	715.770
178.110	14.263	959.555	715.637
179.125	14.267	958.740	714.985
180.140	14.281	958.332	714.676
181.154	14.227	958.010	714.144
182.169	14.364	957.033	713.937
183.183	14.456	956.317	713.735
184.198	14.460	955.742	713.260
185.213	14.442	955.197	712.711
186.227	14.487	954.284	712.161
187.242	14.406	953.989	711.534
188.256	14.492	952.926	711.042
189.271	14.412	952.422	710.262
190.286	14.377	951.468	709.338
191.300	14.328	950.873	708.627
192.315	14.300	950.489	708.156
193.329	14.385	949.654	707.834
194.344	14.401	949.067	707.402
195.359	14.550	948.239	707.351
196.373	14.562	947.840	707.046
197.388	14.595	947.353	706.756
198.402	14.590	946.660	706.157
199.417	14.600	945.958	705.615
200.432	14.640	945.510	705.385
201.446	14.720	944.818	705.145
202.461	14.704	944.102	704.479
203.475	14.718	943.884	704.317
204.490	14.698	943.112	703.591
205.504	14.541	942.472	702.391
206.519	14.689	941.368	702.127
207.534	14.669	940.743	701.518
208.548	14.707	940.060	701.104
209.563	14.704	939.652	700.724
210.577	14.673	938.944	700.006
211.592	14.770	938.236	699.823
212.607	14.898	937.319	699.611
213.621	14.797	936.817	698.755
214.636	14.900	935.890	698.432
215.650	14.923	934.816	697.662
216.665	15.105	934.195	697.896
217.680	14.939	933.718	696.787
218.694	15.009	932.801	696.332
219.709	15.032	932.572	696.197
220.723	14.961	931.659	695.159
221.738	14.960	931.008	694.606
222.753	14.988	930.280	694.116
223.767	14.943	929.721	693.451
224.782	15.059	929.333	693.584
225.796	14.995	928.635	692.734
226.811	15.046	927.996	692.406
227.826	15.005	927.212	691.591
228.840	15.115	925.946	691.041
229.855	15.110	925.676	690.757
230.869	15.084	924.834	689.961
231.884	15.026	924.091	689.105
232.899	15.034	923.424	688.582
233.913	15.071	922.752	688.171
234.928	15.156	921.888	687.816
235.942	14.928	921.774	686.735
236.957	15.090	921.260	686.954
237.972	15.181	920.429	686.647
238.986	15.120	919.546	685.676
240.001	15.155	918.776	685.187
241.015	15.235	918.068	684.925
242.030	15.181	917.368	684.122
243.045	15.170	917.268	683.942
244.059	15.216	916.604	683.574
245.074	15.214	915.966	683.027
246.088	15.285	915.193	682.680
247.103	15.289	914.617	682.209
248.117	15.322	914.171	681.947
249.132	15.444	913.170	681.638
250.147	15.367	912.825	681.006
251.161	15.379	912.290	680.595
252.176	15.578	911.174	680.508
253.190	15.487	910.763	679.772
254.205	15.465	910.142	679.160
255.220	15.632	909.273	679.126
256.234	15.561	908.774	678.409
257.249	15.447	908.516	677.693
258.263	15.641	907.485	677.648
259.278	15.599	906.643	676.791
260.293	15.719	905.981	676.717
261.307	15.647	906.000	676.381
262.322	15.763	904.946	676.003
263.336	15.657	904.503	675.187
264.351	15.679	903.450	674.427
265.366	15.832	903.203	674.799
266.380	15.766	902.314	673.811
267.395	15.780	901.322	673.067
268.409	15.743	900.955	672.585
269.424	15.805	899.734	671.860
270.439	15.888	899.164	671.707
271.453	15.723	898.659	670.611
272.468	15.881	897.863	670.586
273.482	15.779	897.771	670.053
274.497	15.795	897.082	669.544
275.512	15.919	896.447	669.503
276.526	15.760	896.082	668.538
277.541	15.851	895.660	668.528
278.555	15.905	894.560	667.863
279.570	15.907	893.803	667.246
280.585	15.968	892.966	666.801
281.599	15.966	892.328	666.259
282.614	15.954	891.836	665.784
283.628	16.025	891.200	665.534
284.643	15.821	891.040	664.547
285.657	15.966	889.771	664.113
286.672	15.959	889.615	663.912
287.687	16.018	889.084	663.687
288.701	15.960	888.324	662.836
289.716	16.111	887.740	662.936
290.730	16.006	887.283	662.122
291.745	16.189	886.085	661.889
292.760	16.158	885.909	661.576
293.774	16.309	884.660	661.177
294.789	16.219	884.084	660.334
295.803	16.217	883.464	659.804
296.818	16.186	882.788	659.122
297.833	16.092	882.369	658.383
298.847	16.161	881.851	658.207
299.862	16.230	880.858	657.678
300.876	16.301	880.503	657.629
301.891	16.367	879.907	657.383
302.906	16.327	879.247	656.678
303.920	16.350	878.797	656.374
304.935	16.318	878.279	655.803
305.949	16.500	877.493	655.864
306.964	16.423	876.801	654.989
307.979	16.550	876.103	654.901
308.993	16.408	875.764	654.042
310.008	16.447	875.222	653.731
311.022	16.566	874.705	653.746
312.037	16.590	874.031	653.276
313.052	16.397	873.657	652.193
314.066	16.357	872.927	651.437
315.081	16.415	872.635	651.387
316.095	16.407	871.513	650.459
317.110	16.493	871.264	650.547
318.125	16.431	871.027	650.074
319.139	16.516	869.939	649.529
320.154	16.429	869.458	648.780
321.168	16.456	869.247	648.668
322.183	16.639	868.034	648.409
323.197	16.584	868.197	648.262
324.212	16.654	867.374	647.859
325.227	16.564	866.718	646.967
326.241	16.582	866.103	646.519
327.256	16.481	865.626	645.720
328.270	16.674	864.857	645.823
329.285	16.467	864.165	644.461
330.300	16.619	863.530	644.512
331.314	16.546	863.189	643.921
332.329	16.529	862.861	643.555
333.343	16.681	862.328	643.680
334.358	16.694	861.869	643.329
335.373	16.754	861.320	643.091
336.387	16.735	861.015	642.731
337.402	16.760	860.889	642.675
338.416	16.726	860.701	642.350
339.431	16.675	860.489	641.944
340.446	16.861	859.626	641.946
341.460	16.874	859.355	641.735
342.475	16.911	858.789	641.397
343.489	17.052	857.848	641.169
344.504	16.912	857.717	640.484
345.519	16.868	857.364	640.001
346.533	16.969	856.700	639.827
347.548	17.188	855.828	639.947
348.562	16.850	855.898	638.669
349.577	16.922	855.128	638.309
350.592	16.936	854.467	637.811
351.606	16.959	853.669	637.246
352.621	16.944	852.942	636.590
353.635	16.932	852.807	636.387
354.650	17.081	851.965	636.261
355.665	17.036	851.079	635.375
356.679	17.062	850.727	635.154
357.694	17.164	849.646	634.671
358.708	17.226	848.988	634.355
359.723	17.160	848.361	633.585
360.738	17.113	848.106	633.161
361.752	17.143	847.429	632.711
362.767	17.093	847.027	632.170
363.781	17.201	846.409	632.055
364.796	17.211	845.891	631.651
365.810	17.294	845.565	631.660
366.825	17.280	845.328	631.374
367.840	17.320	844.655	630.965
368.854	17.349	844.092	630.593
369.869	17.309	843.936	630.272
370.883	17.326	843.121	629.672
371.898	17.396	842.935	629.739
372.913	17.502	842.282	629.585
373.927	17.443	842.044	629.133
374.942	17.537	841.373	628.923
375.956	17.434	840.911	628.143
376.971	17.662	840.137	628.348
377.986	17.622	840.071	628.098
379.000	17.475	839.992	627.441
380.015	17.622	839.136	627.285
381.029	17.706	838.283	626.903
382.044	17.641	837.663	626.146
383.059	17.661	837.138	625.770
384.073	17.689	836.664	625.463
385.088	17.686	836.368	625.176
386.102	17.763	835.118	624.468
387.117	17.721	834.993	624.167
388.132	17.628	834.312	623.261
389.146	17.618	833.830	622.810
390.161	17.663	833.346	622.556
391.175	17.789	832.744	622.513
392.190	17.846	832.192	622.252
393.205	17.711	831.898	621.485
394.219	17.762	831.734	621.495
395.234	17.631	831.446	620.747
396.248	17.743	830.718	620.554
397.263	17.691	830.243	619.957
398.278	17.618	830.405	619.757
399.292	17.652	829.946	619.485
400.307	17.643	829.060	618.734
401.321	17.721	828.461	618.515
402.336	17.689	828.323	618.241
403.350	17.652	827.664	617.561
404.365	17.828	827.119	617.737
405.380	17.981	826.425	617.717
406.394	17.947	826.316	617.458
407.409	17.930	825.594	616.804
408.423	17.995	824.858	616.433
409.438	17.930	824.957	616.218
410.453	17.954	824.885	616.195
411.467	18.046	824.031	615.834
412.482	18.199	823.015	615.573
413.496	18.089	822.856	615.004
414.511	18.179	822.877	615.288
415.526	18.104	822.602	614.759
416.540	18.129	821.810	614.202
417.555	18.089	821.465	613.745
418.569	18.226	820.960	613.806
419.584	18.358	820.338	613.760
420.599	18.123	820.235	612.787
421.613	116.014	1301.397	1492.281
422.628	100.683	1371.439	1492.344
