DTS Sentinel unit serial number:	SN413079Multiplexer serial number:	ORYXHardware model number:	OX4-SRSoftware version number:	ORYX F/W v4.00 Oryx Data Collector v3.7.2.0data status	okinstallation	princeton_trtdifferential loss correction	single-endedforward channel	channel 1reverse channel	N/Adate	2019/09/17time	21:34:35forward acquisition time	60.00reverse acquisition time	0.00gamma	496.2192k internal	0.2339k external	0.2339temperature offset calibration	0.9979default loss term (dB/km)	0.3790temperature slope calibration	1.0000multiplexer offset coefficient	1.0000multiplexer slope coefficient	1.0000fibre end	0.00T internal ref (°C)	26.97T ext. ref 1 (°C)	0.19T ext. ref 2 (°C)	19.20length (m)	temperature (°C)	Stokes	anti-Stokes-747.200	197.105	-0.263	0.402
-746.185	-200.000	0.007	0.077
-745.171	-55.193	0.049	0.022
-744.156	50.182	0.053	0.050
-743.142	135.087	-0.074	0.097
-742.127	78.707	-0.157	-0.168
-741.112	-86.567	0.254	0.078
-740.098	140.725	-0.253	0.335
-739.083	800.000	0.052	0.203
-738.069	-200.000	0.026	0.559
-737.054	-100.743	0.224	-0.055
-736.039	-33.394	-0.336	-0.186
-735.025	-15.420	0.315	0.202
-734.010	-50.852	-0.152	-0.072
-732.996	-115.215	-0.464	0.088
-731.981	51.003	-0.090	-0.086
-730.966	106.513	0.085	0.101
-729.952	-158.626	-0.222	-0.013
-728.937	-30.544	0.242	-0.138
-727.923	76.770	-0.065	0.069
-726.908	-146.523	-0.089	-0.008
-725.894	485.809	0.091	0.208
-724.879	22.891	-0.256	0.210
-723.864	178.842	-0.027	-0.040
-722.850	89.129	0.196	-0.218
-721.835	-200.000	0.033	-0.291
-720.821	141.182	0.143	0.189
-719.806	-34.002	-0.074	-0.041
-718.791	-184.069	-0.487	0.008
-717.777	21.070	-0.226	-0.184
-716.762	-176.543	-0.225	-0.006
-715.748	147.516	0.080	-0.108
-714.733	-121.375	-0.191	0.032
-713.718	285.175	-0.037	-0.067
-712.704	-200.000	0.034	-0.241
-711.689	-97.715	-0.178	-0.046
-710.675	201.910	-0.088	-0.136
-709.660	563.254	-0.178	-0.433
-708.645	67.804	0.117	0.120
-707.631	170.055	-0.301	-0.432
-706.616	-200.000	-0.012	-0.062
-705.602	-83.505	0.117	-0.038
-704.587	319.028	-0.201	0.381
-703.572	-110.652	-0.405	0.084
-702.558	-200.000	0.055	-0.430
-701.543	-111.587	0.159	0.032
-700.529	800.000	0.151	-0.456
-699.514	29.943	0.134	0.114
-698.499	94.058	0.153	-0.174
-697.485	-200.000	0.050	-0.525
-696.470	-151.578	0.213	-0.016
-695.456	-67.388	-0.345	-0.136
-694.441	180.680	-0.120	0.176
-693.426	285.271	-0.121	0.219
-692.412	-35.505	-0.044	0.024
-691.397	550.909	-0.068	-0.163
-690.383	-200.000	-0.038	0.488
-689.368	-200.000	0.039	-0.361
-688.354	-142.199	0.158	0.016
-687.339	-59.920	0.077	-0.033
-686.324	9.287	0.048	-0.036
-685.310	-158.126	-0.186	-0.011
-684.295	-200.000	-0.006	0.028
-683.281	-137.095	0.076	0.009
-682.266	-78.510	-0.180	0.062
-681.251	-28.082	0.209	-0.121
-680.237	36.053	-0.220	0.193
-679.222	-150.399	0.298	0.023
-678.208	-46.915	-0.231	0.113
-677.193	-39.232	-0.197	0.103
-676.178	-200.000	0.011	0.309
-675.164	-200.000	0.011	0.097
-674.149	-99.115	0.341	0.086
-673.135	-31.763	-0.166	0.093
-672.120	-87.844	0.171	-0.052
-671.105	-72.595	-0.089	-0.033
-670.091	800.000	-0.095	0.346
-669.076	800.000	-0.085	-0.336
-668.062	-200.000	0.008	-0.064
-667.047	5.992	-0.048	-0.035
-666.032	800.000	-0.119	0.411
-665.018	717.275	-0.051	-0.135
-664.003	-164.035	-0.195	0.009
-662.989	-200.000	-0.022	-0.376
-661.974	140.384	0.163	-0.216
-660.959	-82.548	0.061	-0.020
-659.945	-128.928	0.287	0.040
-658.930	800.000	0.158	-0.491
-657.916	83.239	-0.127	-0.139
-656.901	-170.421	-0.324	-0.011
-655.886	399.547	0.026	-0.054
-654.872	-200.000	0.208	0.001
-653.857	570.284	0.117	0.285
-652.843	-200.000	0.010	-0.046
-651.828	-111.278	-0.185	0.038
-650.814	-188.236	-0.321	-0.004
-649.799	315.935	0.145	-0.274
-648.784	-140.909	-0.066	0.007
-647.770	44.594	0.140	-0.129
-646.755	-151.002	-0.202	-0.015
-645.741	-200.000	-0.017	-0.244
-644.726	-142.406	-0.259	0.025
-643.711	-139.997	-0.044	-0.005
-642.697	-200.000	-0.034	-0.343
-641.682	800.000	0.026	0.094
-640.668	-200.000	-0.036	-0.303
-639.653	51.259	-0.192	-0.182
-638.638	-144.606	-0.123	0.011
-637.624	-59.718	0.072	-0.031
-636.609	-200.000	0.083	-0.541
-635.595	-154.051	0.144	0.010
-634.580	18.047	0.248	0.197
-633.565	-104.516	-0.179	-0.041
-632.551	-3.694	0.066	-0.046
-631.536	239.345	0.153	-0.253
-630.522	335.324	0.019	0.037
-629.507	-44.752	0.178	0.089
-628.492	183.477	-0.086	-0.126
-627.478	-116.751	0.270	0.050
-626.463	-105.690	-0.127	0.029
-625.449	-137.068	-0.203	0.023
-624.434	-200.000	-0.037	0.197
-623.419	27.665	0.077	-0.065
-622.405	-75.217	-0.181	0.065
-621.390	800.000	-0.047	-0.135
-620.376	-96.712	-0.129	-0.034
-619.361	-87.344	0.216	-0.065
-618.346	-200.000	0.105	-0.484
-617.332	800.000	0.088	-0.313
-616.317	65.542	-0.154	-0.156
-615.303	342.006	-0.054	0.105
-614.288	800.000	0.078	0.269
-613.273	-200.000	-0.013	-0.068
-612.259	-27.372	0.067	0.039
-611.244	-200.000	-0.011	0.182
-610.230	138.196	0.045	-0.059
-609.215	800.000	0.041	0.158
-608.201	70.235	-0.203	-0.209
-607.186	143.127	-0.081	0.108
-606.171	258.021	0.053	-0.092
-605.157	-112.880	-0.137	0.027
-604.142	800.000	0.063	0.211
-603.128	-139.664	-0.212	-0.023
-602.113	162.236	0.131	0.183
-601.098	-108.083	-0.128	-0.028
-600.084	253.680	-0.044	-0.076
-599.069	239.543	0.187	-0.310
-598.055	4.499	-0.348	-0.255
-597.040	-163.323	-0.084	0.004
-596.025	-79.725	0.071	-0.024
-595.011	381.318	-0.185	-0.378
-593.996	-200.000	-0.021	-0.129
-592.982	90.055	-0.139	-0.154
-591.967	-39.665	0.214	0.112
-590.952	-47.554	-0.106	0.051
-589.938	-200.000	-0.004	0.043
-588.923	-150.387	-0.141	0.011
-587.909	195.935	-0.125	-0.189
-586.894	800.000	0.073	0.304
-585.879	-83.672	0.079	0.025
-584.865	-200.000	0.030	-0.149
-583.850	682.780	0.030	-0.079
-582.836	147.266	-0.259	-0.347
-581.821	89.750	0.025	0.028
-580.806	-200.000	-0.029	0.295
-579.792	-44.919	0.464	-0.230
-578.777	-200.000	-0.019	-0.121
-577.763	-200.000	-0.056	-0.272
-576.748	35.587	-0.143	-0.125
-575.733	-124.064	-0.264	0.041
-574.719	-200.000	0.030	0.178
-573.704	307.561	-0.067	0.125
-572.690	33.467	-0.372	0.322
-571.675	-137.001	0.120	0.014
-570.661	-141.995	-0.109	0.011
-569.646	800.000	0.024	-0.073
-568.631	546.478	0.038	0.090
-567.617	800.000	-0.048	0.132
-566.602	-200.000	0.035	-0.185
-565.588	-114.249	-0.193	0.037
-564.573	10.130	-0.445	-0.337
-563.558	11.445	-0.165	-0.126
-562.544	-113.754	0.316	0.061
-561.529	-200.000	-0.055	0.247
-560.515	-61.665	0.172	0.072
-559.500	-63.916	0.277	0.113
-558.485	69.698	0.312	-0.320
-557.471	84.985	0.206	-0.224
-556.456	539.969	0.029	-0.068
-555.442	-43.354	0.286	-0.144
-554.427	800.000	-0.042	0.165
-553.412	-85.667	-0.172	0.053
-552.398	30.098	-0.014	-0.012
-551.383	-200.000	0.005	0.123
-550.369	-68.498	-0.234	0.090
-549.354	-200.000	0.066	-0.456
-548.339	800.000	-0.062	-0.248
-547.325	45.472	-0.187	-0.172
-546.310	-9.121	0.264	0.176
-545.296	10.938	0.132	0.100
-544.281	30.999	-0.094	0.080
-543.266	476.380	0.053	0.119
-542.252	-35.144	-0.089	0.048
-541.237	167.698	-0.204	0.289
-540.223	43.864	0.140	-0.128
-539.208	-200.000	0.007	-0.224
-538.193	205.208	-0.116	-0.180
-537.179	153.063	-0.146	0.199
-536.164	-87.433	0.313	0.094
-535.150	-31.666	0.060	0.034
-534.135	800.000	-0.059	0.163
-533.121	242.241	-0.111	0.184
-532.106	-200.000	0.018	-0.187
-531.091	-200.000	-0.002	-0.061
-530.077	-80.743	0.130	0.043
-529.062	-59.895	0.322	0.137
-528.048	-200.000	-0.016	-0.085
-527.033	-164.706	0.058	0.003
-526.018	800.000	-0.018	-0.057
-525.004	229.947	-0.039	-0.063
-523.989	-132.753	0.251	-0.032
-522.975	620.122	0.164	-0.409
-521.960	-200.000	0.004	-0.159
-520.945	-200.000	0.039	0.227
-519.931	-118.312	-0.268	0.047
-518.916	800.000	0.181	-0.512
-517.902	-200.000	0.050	0.221
-516.887	16.899	-0.155	0.122
-515.872	-143.791	0.252	0.024
-514.858	-24.268	0.125	0.074
-513.843	-73.706	0.254	-0.092
-512.829	-200.000	-0.031	0.177
-511.814	-46.429	-0.333	0.162
-510.799	-157.409	0.358	0.021
-509.785	-115.807	0.292	0.054
-508.770	-200.000	-0.017	-0.178
-507.756	-42.750	0.184	-0.093
-506.741	303.743	0.188	0.346
-505.726	800.000	-0.054	0.169
-504.712	163.303	0.042	0.059
-503.697	-71.768	0.102	-0.038
-502.683	800.000	0.099	0.291
-501.668	338.971	0.099	0.191
-500.653	-130.288	0.169	0.023
-499.639	-98.224	0.226	-0.058
-498.624	26.738	0.124	0.103
-497.610	2.131	0.198	0.142
-496.595	-46.980	0.299	-0.145
-495.581	223.316	-0.231	-0.370
-494.566	-200.000	-0.043	-0.284
-493.551	-4.381	0.198	0.136
-492.537	740.642	-0.064	0.172
-491.522	-155.289	0.145	-0.009
-490.508	-16.140	-0.119	0.075
-489.493	-200.000	-0.012	0.181
-488.478	-200.000	-0.020	-0.198
-487.464	145.216	0.138	-0.184
-486.449	771.938	0.057	-0.153
-485.435	-200.000	-0.023	-0.143
-484.420	-180.465	-0.112	0.002
-483.405	-126.326	0.475	0.070
-482.391	-100.828	-0.168	-0.041
-481.376	-84.276	-0.149	-0.047
-480.362	696.506	-0.115	0.299
-479.347	-200.000	0.002	0.362
-478.332	37.012	0.012	-0.011
-477.318	413.878	0.144	-0.305
-476.303	800.000	-0.095	-0.402
-475.289	785.996	0.036	0.098
-474.274	-17.005	0.110	-0.069
-473.259	83.512	-0.257	0.278
-472.245	-115.646	-0.327	-0.061
-471.230	-113.059	0.158	-0.031
-470.216	-200.000	0.002	0.129
-469.201	-200.000	-0.059	-0.300
-468.186	53.789	0.171	0.163
-467.172	-15.951	0.232	0.147
-466.157	-51.671	0.152	0.070
-465.143	-200.000	-0.018	-0.099
-464.128	800.000	0.039	0.108
-463.113	-200.000	0.050	-0.219
-462.099	-26.527	0.218	0.127
-461.084	-92.423	0.181	0.050
-460.070	54.543	-0.203	-0.194
-459.055	-106.060	0.124	-0.028
-458.040	-39.662	-0.513	-0.266
-457.026	-33.061	0.419	-0.230
-456.011	-64.552	-0.155	-0.062
-454.997	-63.960	-0.363	0.147
-453.982	-200.000	-0.010	-0.185
-452.968	-200.000	-0.007	0.173
-451.953	-100.476	0.018	0.004
-450.938	-1.600	0.105	-0.074
-449.924	34.464	-0.122	-0.105
-448.909	350.385	0.171	-0.336
-447.895	125.450	-0.183	0.228
-446.880	-141.735	-0.036	-0.004
-445.865	9.729	0.122	0.092
-444.851	-132.264	0.353	-0.045
-443.836	-200.000	-0.005	0.471
-442.822	8.705	0.304	-0.227
-441.807	136.039	0.114	0.148
-440.792	-84.516	0.200	-0.062
-439.778	800.000	-0.086	0.336
-438.763	-128.971	-0.152	-0.021
-437.749	800.000	0.018	0.063
-436.734	-20.548	0.131	0.080
-435.719	463.595	0.141	-0.312
-434.705	-32.786	-0.151	-0.083
-433.690	-121.278	-0.168	0.028
-432.676	394.352	-0.063	0.131
-431.661	59.056	-0.118	0.115
-430.646	-162.444	-0.305	0.015
-429.632	271.996	-0.045	0.079
-428.617	-83.881	-0.135	-0.043
-427.603	67.352	0.314	0.318
-426.588	236.257	0.020	-0.032
-425.573	-66.467	0.221	-0.087
-424.559	197.985	-0.152	-0.230
-423.544	-200.000	0.000	0.051
-422.530	-14.923	-0.114	0.073
-421.515	-59.686	0.230	-0.098
-420.500	20.280	-0.043	0.035
-419.486	-114.579	-0.001	-0.000
-418.471	-156.666	-0.114	0.007
-417.457	469.583	-0.111	0.247
-416.442	-61.438	-0.294	-0.122
-415.428	72.001	0.102	-0.105
-414.413	-190.653	0.254	-0.003
-413.398	116.663	-0.087	0.106
-412.384	-70.274	-0.268	-0.101
-411.369	800.000	0.043	-0.178
-410.355	800.000	-0.095	-0.392
-409.340	-121.430	-0.394	0.065
-408.325	-200.000	0.047	0.323
-407.311	800.000	0.074	-0.284
-406.296	326.969	0.238	0.452
-405.282	-88.958	0.147	0.043
-404.267	121.635	-0.129	-0.159
-403.252	-49.326	-0.349	-0.165
-402.238	-0.919	0.158	0.111
-401.223	14.367	-0.197	0.152
-400.209	366.324	0.030	0.060
-399.194	-53.783	0.123	0.056
-398.179	96.921	-0.217	-0.247
-397.165	-168.142	0.203	0.008
-396.150	-19.983	0.113	0.069
-395.136	-200.000	0.022	-0.175
-394.121	-73.869	0.079	0.028
-393.106	150.525	-0.075	-0.101
-392.092	33.430	0.131	-0.113
-391.077	-153.309	-0.137	0.009
-390.063	-108.915	-0.080	0.017
-389.048	800.000	0.063	0.218
-388.033	244.015	0.085	0.141
-387.019	-107.664	0.533	0.115
-386.004	361.833	-0.112	-0.223
-384.990	-117.117	0.172	0.031
-383.975	-13.532	0.228	0.146
-382.960	341.176	-0.054	0.104
-381.946	21.097	0.404	0.324
-380.931	8.185	-0.157	-0.117
-379.917	110.419	-0.203	0.241
-378.902	-74.432	-0.066	0.024
-377.888	-200.000	0.002	0.235
-376.873	-29.587	0.171	-0.097
-375.858	-200.000	0.017	-0.085
-374.844	201.870	0.290	0.443
-373.829	800.000	-0.027	0.099
-372.815	-63.447	0.160	0.065
-371.800	-91.114	0.232	0.066
-370.785	309.523	0.094	-0.175
-369.771	466.700	0.140	0.309
-368.756	108.328	0.334	0.394
-367.742	-200.000	0.040	0.183
-366.727	551.664	0.097	0.229
-365.712	34.704	0.210	-0.182
-364.698	70.882	-0.106	-0.109
-363.683	-9.074	0.103	0.068
-362.669	-106.513	-0.557	0.123
-361.654	2.424	0.117	-0.083
-360.639	127.614	-0.074	0.093
-359.625	401.496	0.078	-0.162
-358.610	-126.790	-0.178	-0.026
-357.596	664.544	0.040	0.103
-356.581	137.714	0.161	0.208
-355.566	183.458	-0.237	-0.346
-354.552	187.147	0.188	-0.277
-353.537	633.111	0.072	0.181
-352.523	-36.243	0.256	0.136
-351.508	497.103	-0.072	-0.164
-350.493	-32.401	-0.209	0.115
-349.479	-200.000	0.023	-0.288
-348.464	800.000	-0.101	-0.326
-347.450	-200.000	-0.015	0.147
-346.435	7.740	0.133	0.098
-345.420	800.000	0.081	-0.242
-344.406	-118.762	0.178	-0.031
-343.391	205.296	0.135	-0.208
-342.377	-171.545	0.129	0.004
-341.362	216.231	0.014	0.022
-340.348	38.785	-0.439	0.387
-339.333	781.555	0.016	-0.042
-338.318	-120.366	0.154	0.026
-337.304	305.207	-0.056	-0.102
-336.289	285.690	-0.096	-0.171
-335.275	309.629	0.074	-0.136
-334.260	101.073	-0.159	-0.182
-333.245	694.429	0.064	0.166
-332.231	-200.000	0.021	-0.218
-331.216	-200.000	-0.016	-0.360
-330.202	-200.000	0.006	-0.075
-329.187	-2.413	-0.299	0.207
-328.172	-195.454	-0.151	-0.001
-327.158	-200.000	-0.003	0.057
-326.143	290.546	0.197	0.353
-325.129	-14.345	0.143	0.091
-324.114	-65.841	-0.129	-0.051
-323.099	-152.611	-0.305	0.021
-322.085	800.000	0.047	0.145
-321.070	800.000	0.018	-0.057
-320.056	800.000	-0.084	0.255
-319.041	800.000	-0.015	-0.042
-318.026	241.975	0.246	0.406
-317.012	68.033	-0.015	-0.015
-315.997	-200.000	-0.003	-0.097
-314.983	-70.026	0.227	0.085
-313.968	107.246	-0.236	0.276
-312.953	158.697	-0.122	-0.167
-311.939	-111.202	-0.223	-0.045
-310.924	-61.990	-0.279	0.115
-309.910	-45.447	-0.251	-0.123
-308.895	-69.521	-0.091	0.034
-307.880	617.893	0.145	0.359
-306.866	800.000	0.068	0.222
-305.851	800.000	0.085	-0.262
-304.837	-185.830	-0.082	-0.001
-303.822	549.175	0.086	0.203
-302.807	-1.025	0.192	0.134
-301.793	35.212	0.070	-0.060
-300.778	-139.920	-0.380	-0.040
-299.764	81.240	-0.176	0.187
-298.749	-107.911	-0.475	-0.102
-297.735	-58.091	-0.383	0.165
-296.720	-200.000	0.019	-0.129
-295.705	-143.687	-0.158	-0.015
-294.691	134.227	0.150	0.192
-293.676	-69.458	-0.090	0.034
-292.662	-166.487	0.151	0.006
-291.647	205.919	-0.191	-0.293
-290.632	101.462	-0.136	0.156
-289.618	-26.463	0.273	-0.157
-288.603	-200.000	0.079	0.355
-287.589	464.752	-0.025	-0.055
-286.574	-200.000	-0.042	-0.193
-285.559	475.947	0.153	-0.341
-284.545	119.157	-0.215	0.262
-283.530	-200.000	-0.010	-0.085
-282.516	31.431	-0.118	0.100
-281.501	88.121	0.180	0.197
-280.486	-200.000	-0.065	-0.300
-279.472	-8.248	0.092	-0.061
-278.457	166.756	0.211	-0.295
-277.443	359.542	-0.176	-0.346
-276.428	214.767	0.159	0.248
-275.413	2.593	-0.190	0.136
-274.399	-200.000	-0.002	0.182
-273.384	-200.000	0.028	-0.134
-272.370	-200.000	-0.018	0.124
-271.355	800.000	-0.024	-0.084
-270.340	-19.952	-0.144	-0.087
-269.326	-38.984	0.096	0.050
-268.311	654.296	0.088	0.221
-267.297	-167.290	-0.073	0.003
-266.282	199.349	0.196	-0.296
-265.267	98.065	0.127	-0.144
-264.253	115.222	-0.150	0.180
-263.238	66.092	-0.143	0.143
-262.224	-200.000	0.012	-0.261
-261.209	-200.000	0.067	0.462
-260.195	30.010	0.162	0.136
-259.180	-200.000	0.002	0.026
-258.165	258.369	-0.119	0.201
-257.151	10.559	-0.043	-0.032
-256.136	-90.954	-0.236	-0.067
-255.122	136.064	-0.163	0.209
-254.107	-16.460	-0.345	0.215
-253.092	-18.264	-0.145	0.089
-252.078	52.450	-0.186	0.175
-251.063	-200.000	-0.014	0.082
-250.049	15.819	-0.268	0.207
-249.034	800.000	-0.011	0.040
-248.019	-200.000	0.008	-0.141
-247.005	599.454	-0.102	-0.248
-245.990	42.906	-0.274	-0.246
-244.976	166.603	-0.143	0.199
-243.961	767.008	0.039	-0.103
-242.946	-11.165	0.251	0.163
-241.932	8.472	0.156	0.115
-240.917	617.372	0.305	-0.754
-239.903	-200.000	0.023	-0.217
-238.888	-122.905	-0.385	0.061
-237.873	-169.155	0.179	-0.007
-236.859	800.000	0.070	0.238
-235.844	166.331	0.201	0.280
-234.830	-90.615	0.174	-0.049
-233.815	-121.244	0.191	-0.031
-232.800	-200.000	-0.021	-0.124
-231.786	-200.000	0.004	-0.090
-230.771	-135.571	0.323	0.038
-229.757	800.000	-0.033	-0.128
-228.742	45.123	0.150	0.136
-227.727	203.058	-0.026	-0.039
-226.713	-200.000	0.077	-0.474
-225.698	-200.000	-0.011	0.130
-224.684	-74.900	-0.029	0.010
-223.669	-150.869	-0.361	-0.027
-222.655	358.998	0.031	0.060
-221.640	187.099	-0.146	0.214
-220.625	4.799	0.243	0.176
-219.611	-99.559	-0.387	-0.096
-218.596	-46.523	-0.140	-0.067
-217.582	-11.916	-0.177	-0.114
-216.567	-16.254	-0.268	-0.167
-215.552	-13.922	0.261	0.166
-214.538	-56.745	0.093	-0.040
-213.523	108.587	0.227	-0.266
-212.509	141.033	-0.193	-0.251
-211.494	-19.417	-0.304	-0.185
-210.479	121.699	-0.210	0.257
-209.465	77.280	-0.162	0.170
-208.450	393.066	0.169	0.345
-207.436	-54.141	-0.269	-0.120
-206.421	-96.666	-0.294	0.076
-205.406	800.000	-0.066	0.239
-204.392	64.902	-0.108	-0.107
-203.377	-200.000	0.035	0.304
-202.363	-136.466	0.125	-0.014
-201.348	-200.000	0.059	0.499
-200.333	-200.000	0.006	-0.098
-199.319	121.278	-0.182	0.222
-198.304	23.412	-0.243	0.196
-197.290	-200.000	-0.004	0.062
-196.275	-78.879	0.096	0.032
-195.260	533.947	0.082	-0.190
-194.246	32.007	-0.135	-0.114
-193.231	-26.276	-0.186	-0.107
-192.217	116.585	-0.101	-0.122
-191.202	115.686	0.251	0.301
-190.187	-200.000	0.012	-0.327
-189.173	166.186	0.136	0.189
-188.158	-200.000	-0.023	-0.196
-187.144	33.026	-0.161	0.137
-186.129	-200.000	0.004	0.153
-185.114	-200.000	-0.003	-0.096
-184.100	-41.524	-0.072	0.036
-183.085	-131.110	0.177	0.023
-182.071	208.095	0.179	-0.275
-181.056	109.656	-0.231	0.271
-180.042	44.634	-0.189	0.171
-179.027	36.066	0.183	0.158
-178.012	-124.718	0.142	0.022
-176.998	-88.904	-0.228	-0.066
-175.983	-87.991	-0.195	0.057
-174.969	642.029	-0.118	0.296
-173.954	40.615	0.179	-0.158
-172.939	-81.194	-0.196	-0.064
-171.925	-154.237	0.086	0.006
-170.910	-145.645	0.218	-0.019
-169.896	-89.148	-0.163	-0.047
-168.881	800.000	-0.115	-0.395
-167.866	-89.973	0.208	0.059
-166.852	-42.721	0.257	0.128
-165.837	-36.713	-0.192	0.101
-164.823	-48.780	0.152	0.071
-163.808	-135.172	0.116	-0.014
-162.793	206.564	-0.086	0.131
-161.779	-200.000	0.030	-0.171
-160.764	136.716	-0.033	-0.042
-159.750	-134.885	0.123	0.015
-158.735	158.710	-0.166	-0.226
-157.720	210.538	-0.146	-0.224
-156.706	-86.067	0.277	0.084
-155.691	800.000	0.093	0.337
-154.677	800.000	0.012	-0.044
-153.662	-26.533	0.143	-0.082
-152.647	-200.000	-0.378	-0.000
-151.633	-100.659	0.392	0.095
-150.618	218.112	0.080	0.126
-149.604	-93.196	0.222	0.061
-148.589	-86.316	0.153	0.046
-147.574	-81.481	0.222	0.072
-146.560	605.553	0.098	-0.240
-145.545	275.786	-0.087	0.152
-144.531	-200.000	-0.006	0.214
-143.516	800.000	0.078	-0.326
-142.502	-166.183	-0.251	-0.010
-141.487	-134.269	0.459	-0.055
-140.472	800.000	0.032	-0.137
-139.458	-200.000	-0.072	-0.383
-138.443	-0.617	0.194	0.135
-137.429	-121.949	0.277	0.045
-136.414	800.000	-0.042	0.175
-135.399	128.474	-0.213	-0.265
-134.385	-148.103	-0.312	0.025
-133.370	393.830	-0.016	-0.033
-132.356	-200.000	-0.008	-0.047
-131.341	800.000	0.067	-0.221
-130.326	-16.525	-0.326	-0.202
-129.312	-85.782	-0.239	-0.072
-128.297	-162.748	0.350	0.017
-127.283	800.000	-0.061	0.227
-126.268	800.000	0.090	-0.267
-125.253	-200.000	0.001	0.167
-124.239	78.324	0.242	-0.253
-123.224	115.631	0.170	-0.204
-122.210	-57.104	0.097	-0.042
-121.195	302.493	0.059	-0.108
-120.180	526.927	-0.130	-0.301
-119.166	-135.477	0.430	0.050
-118.151	32.934	-0.085	0.072
-117.137	800.000	-0.055	-0.180
-116.122	800.000	-0.064	0.233
-115.107	-200.000	0.034	0.264
-114.093	800.000	-0.030	-0.090
-113.078	-157.318	0.064	0.004
-112.064	-200.000	-0.079	0.357
-111.049	-186.090	0.253	-0.004
-110.034	-104.753	0.435	-0.098
-109.020	-200.000	-0.038	-0.247
-108.005	332.491	0.088	0.167
-106.991	-184.129	-0.451	-0.007
-105.976	606.948	0.150	0.366
-104.962	800.000	-0.095	0.301
-103.947	18.786	-0.096	0.075
-102.932	129.796	-0.073	-0.091
-101.918	800.000	-0.036	-0.141
-100.903	244.628	0.071	-0.117
-99.889	-50.656	-0.121	-0.056
-98.874	5.951	0.419	-0.303
-97.859	-200.000	0.051	-0.292
-96.845	800.000	0.036	0.147
-95.830	800.000	-0.055	0.172
-94.816	-55.432	-0.186	-0.082
-93.801	83.498	-0.221	-0.235
-92.786	800.000	0.124	-0.479
-91.772	67.099	0.165	-0.164
-90.757	-64.869	-0.313	-0.124
-89.743	-200.000	0.031	-0.427
-88.728	-200.000	0.008	0.220
-87.713	-177.601	0.263	-0.006
-86.699	800.000	-0.058	0.179
-85.684	-200.000	-0.001	0.211
-84.670	143.583	-0.172	0.224
-83.655	256.350	0.028	0.047
-82.640	-88.904	0.307	-0.089
-81.626	-71.416	0.199	-0.073
-80.611	-200.000	0.022	0.251
-79.597	750.504	0.038	0.099
-78.582	-171.917	0.459	0.015
-77.567	171.340	0.177	0.248
-76.553	-6.775	-0.020	-0.013
-75.538	-111.165	-0.109	0.022
-74.524	180.963	-0.343	0.492
-73.509	82.209	0.003	-0.003
-72.494	588.555	-0.146	-0.351
-71.480	2.461	-0.133	0.094
-70.465	-2.038	-0.197	-0.136
-69.451	-2.291	0.211	-0.145
-68.436	391.764	0.043	0.088
-67.422	149.165	0.081	0.107
-66.407	-97.635	0.223	0.056
-65.392	116.027	-0.149	0.178
-64.378	800.000	-0.070	-0.219
-63.363	-39.677	0.273	-0.140
-62.349	-152.735	-0.056	-0.004
-61.334	87.238	-1.072	-1.158
-60.319	-46.850	0.743	0.355
-59.305	84.572	-0.537	-0.573
-58.290	393.125	0.632	1.284
-57.276	194.356	0.877	1.298
-56.261	-200.000	113.237	627.321
-55.246	460.501	1484.085	3228.496
-54.232	153.065	2640.636	3526.552
-53.217	99.011	2120.813	2391.605
-52.203	37.735	1572.722	1363.601
-51.188	30.357	1319.609	1100.556
-50.173	27.469	1281.520	1052.088
-49.159	51.590	1340.292	1243.821
-48.144	50.619	1354.297	1251.019
-47.130	30.397	1308.138	1091.049
-46.115	27.037	1290.246	1056.574
-45.100	26.885	1284.887	1051.262
-44.086	26.893	1282.224	1049.086
-43.071	26.760	1280.383	1046.771
-42.057	26.683	1278.736	1044.937
-41.042	26.734	1277.208	1043.942
-40.027	26.726	1275.732	1042.652
-39.013	26.894	1273.150	1041.460
-37.998	26.757	1272.183	1039.844
-36.984	26.906	1269.926	1038.809
-35.969	27.013	1268.337	1038.082
-34.954	27.044	1266.365	1036.602
-33.940	26.972	1265.130	1035.139
-32.925	27.033	1263.553	1034.155
-31.911	27.037	1261.843	1032.739
-30.896	27.027	1260.671	1031.681
-29.881	26.954	1259.788	1030.506
-28.867	27.022	1258.139	1029.499
-27.852	27.049	1256.833	1028.545
-26.838	27.106	1255.310	1027.579
-25.823	27.085	1254.420	1026.693
-24.809	26.964	1253.118	1024.902
-23.794	27.098	1251.763	1024.505
-22.779	26.990	1250.625	1022.929
-21.765	27.128	1249.077	1022.398
-20.750	27.053	1247.848	1020.931
-19.736	26.937	1246.909	1019.469
-18.721	26.903	1245.847	1018.368
-17.706	27.147	1244.003	1018.190
-16.692	27.004	1243.338	1016.804
-15.677	26.935	1242.020	1015.300
-14.663	26.945	1241.418	1014.822
-13.648	26.921	1239.958	1013.457
-12.633	26.969	1238.928	1012.838
-11.619	26.930	1238.231	1012.013
-10.604	26.853	1237.719	1011.124
-9.590	26.914	1236.622	1010.529
-8.575	26.869	1235.740	1009.514
-7.560	26.961	1234.545	1009.015
-6.546	26.893	1233.892	1008.059
-5.531	26.851	1232.991	1007.052
-4.517	26.948	1232.025	1006.758
-3.502	26.857	1231.701	1005.953
-2.487	26.971	1230.456	1005.525
-1.473	26.650	1226.472	1000.458
-0.458	24.766	1210.805	977.357
0.556	19.086	1193.830	936.281
1.571	15.135	1199.151	918.741
2.586	14.116	1213.740	924.178
3.600	13.971	1202.085	914.425
4.615	10.416	1132.693	843.091
5.629	3.698	1061.724	757.344
6.644	0.426	1044.020	728.859
7.659	0.249	1042.075	726.583
8.673	-0.008	1041.098	724.601
9.688	0.073	1040.055	724.200
10.702	0.388	1037.347	723.761
11.717	4.517	1042.654	747.288
12.731	11.887	1052.247	789.761
13.746	16.293	1057.105	814.640
14.761	17.045	1057.315	818.359
15.775	16.154	1055.707	812.748
16.790	15.291	1053.460	806.799
17.804	14.428	1052.589	801.908
18.819	14.171	1051.123	799.484
19.834	13.916	1050.266	797.538
20.848	13.706	1049.434	795.829
21.863	13.360	1048.671	793.518
22.877	13.179	1047.981	792.062
23.892	13.239	1047.225	791.704
24.907	13.159	1046.554	790.748
25.921	13.211	1045.773	790.333
26.936	13.261	1045.001	789.921
27.950	13.298	1044.008	789.277
28.965	13.363	1042.784	788.593
29.980	13.424	1041.222	787.631
30.994	13.382	1040.624	786.908
32.009	13.460	1039.676	786.493
33.023	13.399	1038.700	785.395
34.038	13.292	1038.133	784.388
35.053	13.224	1037.008	783.147
36.067	13.359	1035.842	782.835
37.082	13.189	1035.638	781.807
38.096	13.481	1034.463	782.233
39.111	13.349	1033.695	780.961
40.126	13.288	1032.571	779.754
41.140	13.210	1031.439	778.461
42.155	13.147	1030.335	777.263
43.169	13.205	1029.234	776.636
44.184	13.162	1028.647	775.924
45.199	13.290	1027.309	775.444
46.213	13.317	1026.043	774.548
47.228	13.186	1025.088	773.148
48.242	13.397	1023.663	772.990
49.257	13.422	1023.194	772.682
50.271	13.408	1021.903	771.575
51.286	13.397	1021.046	770.807
52.301	13.311	1020.900	770.228
53.315	13.282	1019.499	768.968
54.330	13.173	1018.780	767.850
55.344	13.201	1017.981	767.311
56.359	13.328	1016.352	766.602
57.374	13.244	1016.010	765.889
58.388	13.371	1014.882	765.562
59.403	13.165	1014.300	764.098
60.417	13.106	1013.415	763.095
61.432	13.134	1013.054	762.883
62.447	13.158	1011.648	761.869
63.461	13.020	1011.382	760.965
64.476	13.142	1010.125	760.512
65.490	13.237	1009.211	760.193
66.505	13.182	1008.755	759.531
67.520	13.162	1008.213	758.964
68.534	13.146	1007.751	758.476
69.549	13.244	1006.890	758.207
70.563	13.163	1005.955	757.067
71.578	13.055	1005.155	755.901
72.593	13.113	1004.380	755.517
73.607	13.101	1003.630	754.831
74.622	13.061	1003.553	754.526
75.636	13.166	1002.415	754.080
76.651	12.959	1001.881	752.668
77.666	13.121	1000.908	752.610
78.680	13.007	1000.649	751.831
79.695	13.061	999.896	751.443
80.709	13.153	999.197	751.270
81.724	13.205	998.544	750.946
82.739	13.287	997.776	750.677
83.753	13.323	996.831	750.060
84.768	13.400	995.664	749.468
85.782	13.378	994.781	748.636
86.797	13.375	994.267	748.169
87.812	13.354	993.091	747.123
88.826	13.303	992.364	746.280
89.841	13.365	991.514	745.853
90.855	13.324	990.922	745.157
91.870	13.320	990.056	744.422
92.884	13.408	988.961	743.932
93.899	13.491	988.182	743.652
94.914	13.446	987.728	743.039
95.928	13.582	986.592	742.731
96.943	13.379	986.409	741.620
97.957	13.506	984.740	740.865
98.972	13.524	983.929	740.271
99.987	13.509	982.919	739.379
101.001	13.289	982.385	737.930
102.016	13.335	981.377	737.311
103.030	13.406	980.756	737.095
104.045	13.477	979.590	736.472
105.060	13.350	978.968	735.371
106.074	13.443	978.147	735.103
107.089	13.426	976.962	734.073
108.103	13.269	976.784	733.178
109.118	13.294	975.450	732.222
110.133	13.251	974.381	731.164
111.147	13.216	973.570	730.337
112.162	13.440	972.519	730.475
113.176	13.357	972.326	729.896
114.191	13.344	971.687	729.294
115.206	13.342	971.303	728.934
116.220	13.210	970.267	727.512
117.235	13.310	968.885	726.851
118.249	13.372	968.178	726.529
119.264	13.331	967.675	725.907
120.279	13.389	966.820	725.454
121.293	13.327	965.612	724.214
122.308	13.305	964.931	723.539
123.322	13.351	963.883	722.894
124.337	13.234	963.204	721.809
125.352	13.331	962.140	721.370
126.366	13.294	960.999	720.291
127.381	13.326	959.980	719.603
128.395	13.245	958.819	718.316
129.410	13.552	957.498	718.594
130.424	13.366	957.283	717.562
131.439	13.432	956.738	717.377
132.454	13.558	955.513	716.939
133.468	13.387	955.121	715.843
134.483	13.458	954.059	715.292
135.497	13.406	952.993	714.205
136.512	13.432	952.502	713.886
137.527	13.346	951.591	712.770
138.541	13.430	950.718	712.415
139.556	13.361	950.171	711.644
140.570	13.482	949.411	711.529
141.585	13.529	948.499	710.985
142.600	13.536	947.796	710.425
143.614	13.591	946.776	709.835
144.629	13.602	946.481	709.597
145.643	13.471	945.608	708.320
146.658	13.373	944.689	707.149
147.673	13.630	943.143	707.025
148.687	13.364	943.092	705.792
149.702	13.424	942.555	705.582
150.716	13.498	941.111	704.753
151.731	13.407	940.685	703.987
152.746	13.498	939.712	703.585
153.760	13.454	939.594	703.244
154.775	13.625	938.729	703.262
155.789	13.607	938.059	702.622
156.804	13.601	937.601	702.190
157.819	13.583	937.316	701.838
158.833	13.676	935.930	701.133
159.848	13.765	935.343	701.008
160.862	13.749	934.150	699.981
161.877	13.598	933.690	698.939
162.892	13.702	932.229	698.223
163.906	13.672	931.231	697.285
164.921	13.576	930.805	696.500
165.935	13.626	930.030	696.072
166.950	13.671	928.936	695.378
167.964	13.778	928.021	695.080
168.979	13.668	927.473	694.148
169.994	13.800	926.328	693.781
171.008	13.702	926.027	693.086
172.023	13.735	925.271	692.595
173.037	13.692	925.144	692.260
174.052	13.686	924.092	691.388
175.067	13.731	923.408	691.000
176.081	13.680	922.688	690.189
177.096	13.682	922.597	690.069
178.110	13.784	921.406	689.542
179.125	13.758	920.789	688.910
180.140	13.775	920.350	688.591
181.154	13.822	919.685	688.227
182.169	14.003	919.147	688.514
183.183	13.858	918.807	687.597
184.198	13.888	918.132	687.154
185.213	13.975	917.340	686.863
186.227	13.877	916.521	685.784
187.242	13.978	915.514	685.386
188.256	14.094	915.055	685.460
189.271	13.939	914.442	684.303
190.286	13.833	913.605	683.176
191.300	13.864	913.167	682.918
192.315	13.808	912.693	682.273
193.329	13.875	911.999	681.966
194.344	14.074	910.998	681.975
195.359	13.951	910.372	680.943
196.373	13.959	910.013	680.645
197.388	14.020	909.671	680.580
198.402	14.241	908.669	680.673
199.417	14.249	908.385	680.435
200.432	14.186	907.998	679.826
201.446	14.203	907.282	679.299
202.461	14.207	906.826	678.915
203.475	14.302	906.368	678.900
204.490	14.134	905.711	677.663
205.504	14.142	905.064	677.151
206.519	14.154	904.184	676.481
207.534	14.047	903.808	675.705
208.548	14.215	903.027	675.745
209.563	14.075	902.318	674.584
210.577	14.339	901.385	674.900
211.592	14.382	900.494	674.345
212.607	14.407	899.878	673.924
213.621	14.331	899.436	673.228
214.636	14.365	898.322	672.472
215.650	14.370	897.954	672.156
216.665	14.373	897.478	671.753
217.680	14.370	896.777	671.157
218.694	14.587	895.566	671.062
219.709	14.475	895.407	670.435
220.723	14.419	894.820	669.710
221.738	14.380	894.113	668.965
222.753	14.386	893.464	668.445
223.767	14.549	892.820	668.556
224.782	14.500	892.287	667.902
225.796	14.549	891.966	667.800
226.811	14.484	890.820	666.623
227.826	14.438	890.298	665.990
228.840	14.554	889.662	665.918
229.855	14.528	889.054	665.299
230.869	14.458	887.678	663.932
231.884	14.542	887.260	663.895
232.899	14.533	886.702	663.382
233.913	14.438	885.940	662.378
234.928	14.552	885.332	662.318
235.942	14.349	885.119	661.292
236.957	14.424	884.790	661.286
237.972	14.477	884.084	660.908
238.986	14.510	883.566	660.594
240.001	14.588	882.697	660.198
241.015	14.766	881.736	660.121
242.030	14.518	882.062	659.326
243.045	14.661	880.581	658.728
244.059	14.592	880.311	658.196
245.074	14.717	879.743	658.205
246.088	14.799	878.987	657.905
247.103	14.792	878.553	657.492
248.117	14.769	877.735	656.730
249.132	14.822	877.340	656.586
250.147	14.830	876.803	656.158
251.161	15.007	875.845	656.078
252.176	14.973	875.456	655.592
253.190	15.044	874.093	654.792
254.205	15.098	874.100	654.953
255.220	14.974	873.721	654.125
256.234	15.182	872.777	654.172
257.249	15.136	871.926	653.299
258.263	15.099	871.138	652.506
259.278	15.125	870.810	652.304
260.293	15.110	870.131	651.677
261.307	15.138	869.798	651.478
262.322	15.275	868.685	651.120
263.336	15.277	868.075	650.614
264.351	15.360	867.225	650.240
265.366	15.201	866.801	649.248
266.380	15.268	866.300	649.076
267.395	15.456	865.524	649.163
268.409	15.319	864.809	648.040
269.424	15.208	864.361	647.221
270.439	15.233	863.618	646.702
271.453	15.206	862.885	645.992
272.468	15.302	862.685	646.153
273.482	15.395	861.735	645.743
274.497	15.323	861.514	645.245
275.512	15.356	860.897	644.854
276.526	15.314	860.440	644.290
277.541	15.162	860.245	643.506
278.555	15.367	859.022	643.318
279.570	15.542	858.800	643.766
280.585	15.536	857.512	642.723
281.599	15.471	856.854	641.922
282.614	15.547	856.121	641.609
283.628	15.465	856.016	641.160
284.643	15.482	855.746	640.964
285.657	15.470	854.542	639.960
286.672	15.475	854.025	639.537
287.687	15.654	853.514	639.778
288.701	15.582	852.943	639.019
289.716	15.595	852.413	638.614
290.730	15.688	851.685	638.367
291.745	15.657	851.419	637.994
292.760	15.636	850.723	637.334
293.774	15.651	849.956	636.762
294.789	15.603	849.511	636.189
295.803	15.534	848.658	635.233
296.818	15.748	847.793	635.336
297.833	15.708	847.197	634.684
298.847	15.616	846.596	633.831
299.862	15.686	846.389	633.886
300.876	15.760	845.674	633.570
301.891	15.721	845.148	632.975
302.906	15.767	845.053	633.018
303.920	15.835	844.238	632.611
304.935	15.868	843.337	632.003
305.949	16.002	842.425	631.767
306.964	15.887	842.013	630.970
307.979	16.058	841.322	631.035
308.993	16.087	840.693	630.618
310.008	15.965	840.370	629.862
311.022	15.822	839.996	628.992
312.037	16.033	839.145	629.088
313.052	15.781	838.835	627.857
314.066	15.864	838.180	627.624
315.081	15.885	837.965	627.485
316.095	15.871	837.440	626.983
317.110	15.913	836.649	626.493
318.125	15.892	835.950	625.836
319.139	15.963	835.448	625.669
320.154	15.960	835.303	625.493
321.168	16.038	834.565	625.173
322.183	16.081	834.091	624.921
323.197	15.956	833.851	624.225
324.212	15.869	833.536	623.609
325.227	16.002	832.443	623.230
326.241	15.910	831.943	622.460
327.256	16.079	831.346	622.582
328.270	16.081	830.681	622.036
329.285	16.029	830.136	621.381
330.300	16.060	829.579	621.024
331.314	16.067	829.145	620.669
332.329	16.127	828.827	620.598
333.343	16.112	828.514	620.253
334.358	16.202	827.660	619.891
335.373	16.263	827.198	619.713
336.387	16.084	827.344	619.111
337.402	16.171	826.806	618.971
338.416	16.282	826.573	619.151
339.431	16.351	825.698	618.693
340.446	16.342	825.713	618.616
341.460	16.294	825.348	618.112
342.475	16.364	824.957	618.020
343.489	16.384	824.264	617.519
344.504	16.527	823.677	617.548
345.519	16.561	823.157	617.226
346.533	16.392	823.025	616.458
347.548	16.273	822.627	615.673
348.562	16.439	822.220	615.917
349.577	16.520	821.259	615.436
350.592	16.303	820.741	614.206
351.606	16.528	820.031	614.438
352.621	16.404	819.477	613.518
353.635	16.421	819.050	613.204
354.650	16.420	818.116	612.450
355.665	16.649	817.356	612.656
356.679	16.507	817.147	611.928
357.694	16.553	816.241	611.363
358.708	16.656	815.491	611.120
359.723	16.506	815.467	610.505
360.738	16.551	814.848	610.152
361.752	16.686	813.715	609.734
362.767	16.612	813.787	609.467
363.781	16.725	813.052	609.272
364.796	16.693	812.719	608.851
365.810	16.923	812.426	609.404
366.825	16.822	811.771	608.496
367.840	16.719	811.440	607.824
368.854	16.717	811.091	607.502
369.869	16.781	810.462	607.208
370.883	16.798	810.288	607.085
371.898	16.908	809.532	606.858
372.913	16.890	809.028	606.364
373.927	17.008	808.466	606.309
374.942	16.857	808.743	605.924
375.956	16.916	808.314	605.758
376.971	16.896	807.714	605.184
377.986	17.039	806.934	605.057
379.000	17.110	806.365	604.827
380.015	17.099	806.147	604.573
381.029	17.039	805.411	603.754
382.044	17.056	804.866	603.352
383.059	17.089	803.923	602.710
384.073	17.031	803.942	602.462
385.088	17.212	802.987	602.336
386.102	17.039	802.664	601.430
387.117	17.095	802.304	601.303
388.132	17.117	801.646	600.836
389.146	17.204	801.453	600.944
390.161	17.209	800.556	600.237
391.175	17.203	800.241	599.925
392.190	17.210	799.809	599.574
393.205	17.190	799.176	598.975
394.219	16.976	799.219	598.199
395.234	17.226	798.401	598.415
396.248	17.126	798.509	598.093
397.263	17.184	797.713	597.647
398.278	17.237	797.253	597.435
399.292	17.186	796.871	596.918
400.307	17.287	796.416	596.880
401.321	17.225	796.046	596.331
402.336	17.370	795.318	596.239
403.350	17.352	794.956	595.855
404.365	17.288	794.319	595.100
405.380	17.252	793.896	594.605
406.394	17.331	793.597	594.604
407.409	17.394	793.330	594.570
408.423	17.633	792.530	594.752
409.438	17.550	792.270	594.215
410.453	17.490	791.921	593.694
411.467	17.563	791.568	593.628
412.482	17.742	791.122	593.866
413.496	17.555	790.878	592.979
414.511	17.546	790.778	592.822
415.526	17.554	790.258	592.406
416.540	17.546	789.376	591.665
417.555	17.590	789.231	591.655
418.569	17.560	788.742	591.131
419.584	17.671	788.223	591.077
420.599	17.624	787.869	590.596
421.613	112.808	1295.920	1479.638
422.628	96.870	1369.898	1479.708
