DTS Sentinel unit serial number:	SN413079Multiplexer serial number:	ORYXHardware model number:	OX4-SRSoftware version number:	ORYX F/W v4.00 Oryx Data Collector v3.7.2.0data status	okinstallation	princeton_trtdifferential loss correction	single-endedforward channel	channel 1reverse channel	N/Adate	2019/09/19time	08:26:35forward acquisition time	60.00reverse acquisition time	0.00gamma	496.2192k internal	0.2343k external	0.2343temperature offset calibration	1.0007default loss term (dB/km)	0.3790temperature slope calibration	1.0000multiplexer offset coefficient	1.0000multiplexer slope coefficient	1.0000fibre end	0.00T internal ref (°C)	20.56T ext. ref 1 (°C)	0.57T ext. ref 2 (°C)	16.26length (m)	temperature (°C)	Stokes	anti-Stokes-747.200	-6.577	0.087	-0.059
-746.185	-125.668	-0.140	-0.021
-745.171	-200.000	0.008	-0.172
-744.156	19.945	-0.073	-0.059
-743.142	229.561	-0.151	-0.246
-742.127	-59.139	-0.256	-0.111
-741.112	-200.000	-0.019	-0.292
-740.098	-42.805	0.019	-0.009
-739.083	-127.723	0.139	0.020
-738.069	-99.539	0.116	-0.029
-737.054	-110.261	-0.478	-0.100
-736.039	65.292	-0.177	-0.179
-735.025	-48.087	0.347	0.168
-734.010	-101.053	-0.252	-0.062
-732.996	-146.355	-0.646	-0.057
-731.981	-87.995	-0.419	-0.126
-730.966	33.848	-0.223	0.194
-729.952	117.839	-0.105	0.129
-728.937	204.949	-0.039	0.060
-727.923	422.817	-0.188	-0.403
-726.908	-106.919	-0.072	0.016
-725.894	-200.000	0.032	-0.158
-724.879	-200.000	-0.008	0.266
-723.864	-6.640	-0.196	-0.133
-722.850	-54.525	-0.162	0.073
-721.835	-19.454	0.092	0.057
-720.821	-47.108	-0.053	-0.026
-719.806	39.039	0.247	-0.221
-718.791	448.876	-0.078	0.171
-717.777	128.833	0.125	-0.159
-716.762	497.085	0.121	0.278
-715.748	104.999	-0.167	0.198
-714.733	-72.429	0.201	-0.074
-713.718	-117.189	-0.111	-0.020
-712.704	-61.374	-0.140	0.059
-711.689	344.553	0.120	-0.235
-710.675	162.152	0.051	-0.071
-709.660	18.831	-0.144	0.115
-708.645	-199.422	0.171	0.001
-707.631	-200.000	0.011	0.330
-706.616	283.407	-0.144	0.258
-705.602	-82.482	-0.159	0.052
-704.587	-126.888	-0.026	-0.004
-703.572	-200.000	-0.014	-0.095
-702.558	-80.093	0.097	0.032
-701.543	-200.000	0.000	-0.111
-700.529	56.355	0.164	0.159
-699.514	173.354	0.178	-0.256
-698.499	93.464	0.109	-0.123
-697.485	-136.451	-0.162	-0.019
-696.470	217.700	-0.041	-0.065
-695.456	-200.000	0.002	-0.024
-694.441	-142.603	-0.266	0.026
-693.426	-66.314	0.339	-0.135
-692.412	-56.422	-0.093	0.041
-691.397	17.968	0.055	-0.044
-690.383	181.914	-0.089	0.131
-689.368	-149.038	0.120	0.010
-688.354	102.013	-0.186	-0.217
-687.339	-75.710	-0.218	-0.077
-686.324	417.615	0.107	-0.229
-685.310	86.675	-0.139	-0.153
-684.295	800.000	0.085	-0.283
-683.281	779.210	-0.047	-0.128
-682.266	178.973	0.118	-0.172
-681.251	5.139	-0.156	0.115
-680.237	87.112	-0.087	0.096
-679.222	584.335	0.077	0.189
-678.208	-200.000	0.020	0.202
-677.193	-69.997	-0.191	-0.073
-676.178	278.712	0.085	0.151
-675.164	203.532	-0.053	-0.082
-674.149	-143.036	0.277	0.027
-673.135	24.944	-0.364	-0.301
-672.120	165.003	0.231	-0.325
-671.105	800.000	-0.089	0.278
-670.091	-200.000	-0.034	0.270
-669.076	18.815	0.114	-0.091
-668.062	-200.000	0.024	0.300
-667.047	-200.000	0.023	0.146
-666.032	-6.684	0.327	0.222
-665.018	79.019	-0.103	0.110
-664.003	800.000	-0.073	-0.204
-662.989	726.501	0.094	0.249
-661.974	-182.932	-0.241	-0.004
-660.959	137.519	0.482	-0.630
-659.945	728.627	0.103	-0.275
-658.930	-200.000	0.006	0.151
-657.916	-165.501	-0.321	0.014
-656.901	-170.248	0.228	0.008
-655.886	-200.000	0.001	0.194
-654.872	196.348	0.095	-0.144
-653.857	-31.741	0.062	0.034
-652.843	-98.082	0.095	0.024
-651.828	-106.055	0.232	-0.052
-650.814	532.774	-0.111	-0.263
-649.799	429.343	0.067	0.145
-648.784	-41.139	0.255	-0.131
-647.770	115.111	-0.282	-0.343
-646.755	-195.796	0.373	-0.003
-645.741	16.730	-0.247	-0.195
-644.726	-200.000	0.003	-0.333
-643.711	-146.454	-0.167	0.015
-642.697	131.887	0.147	0.189
-641.682	-200.000	-0.047	-0.219
-640.668	-200.000	0.040	-0.229
-639.653	-95.531	-0.110	-0.029
-638.638	168.314	0.165	0.234
-637.624	-19.932	-0.223	-0.137
-636.609	-177.176	-0.054	0.001
-635.595	800.000	-0.052	-0.181
-634.580	-38.305	-0.182	0.096
-633.565	45.167	-0.287	0.264
-632.551	-200.000	-0.043	-0.283
-631.536	800.000	-0.039	0.113
-630.522	-36.928	0.117	0.063
-629.507	-53.109	-0.042	0.019
-628.492	87.761	-0.014	0.015
-627.478	622.950	0.032	-0.080
-626.463	5.839	0.136	0.100
-625.449	-122.861	0.074	-0.012
-624.434	174.106	-0.100	0.144
-623.419	244.111	-0.189	-0.315
-622.405	-82.575	-0.480	-0.155
-621.390	-139.706	0.454	-0.048
-620.376	-200.000	-0.018	0.145
-619.361	-159.271	0.226	-0.013
-618.346	-56.973	0.158	0.070
-617.332	-200.000	0.020	0.296
-616.317	800.000	-0.128	-0.388
-615.303	-26.299	0.097	-0.057
-614.288	-137.554	0.194	-0.022
-613.273	800.000	-0.149	-0.412
-612.259	116.366	-0.090	0.110
-611.244	365.551	0.043	0.086
-610.230	-32.413	0.155	-0.086
-609.215	-8.799	-0.416	0.278
-608.201	-49.872	-0.179	-0.085
-607.186	145.709	-0.075	-0.100
-606.171	146.892	0.185	0.247
-605.157	46.105	-0.165	-0.152
-604.142	-173.987	-0.391	0.011
-603.128	-23.855	-0.127	-0.076
-602.113	145.232	-0.206	0.274
-601.098	511.566	0.025	-0.057
-600.084	-200.000	0.056	0.257
-599.069	-134.453	-0.062	0.008
-598.055	257.451	-0.083	-0.142
-597.040	137.033	0.125	-0.162
-596.025	357.814	0.161	-0.321
-595.011	85.672	0.116	-0.127
-593.996	-200.000	-0.021	-0.097
-592.982	-130.276	0.030	-0.004
-591.967	-99.733	0.095	0.024
-590.952	109.136	0.215	0.256
-589.938	43.408	0.182	-0.165
-588.923	-175.541	-0.165	0.004
-587.909	91.178	-0.069	-0.078
-586.894	4.438	-0.126	0.092
-585.879	402.571	0.151	0.316
-584.865	25.254	-0.341	0.281
-583.850	-156.865	-0.034	-0.002
-582.836	-200.000	0.078	-0.349
-581.821	-155.834	0.204	0.013
-580.806	-31.195	0.097	-0.055
-579.792	-89.742	0.264	0.077
-578.777	-130.885	0.453	-0.060
-577.763	-200.000	0.011	-0.059
-576.748	6.567	0.062	-0.046
-575.733	281.176	0.060	0.107
-574.719	78.599	0.165	-0.176
-573.704	42.372	0.457	0.413
-572.690	-200.000	0.013	-0.184
-571.675	-93.638	-0.089	0.024
-570.661	222.891	-0.166	0.266
-569.646	-200.000	-0.046	0.293
-568.631	212.177	-0.096	0.151
-567.617	81.480	0.091	-0.098
-566.602	-103.841	-0.206	-0.048
-565.588	20.285	-0.156	0.125
-564.573	-5.222	0.175	0.120
-563.558	-0.098	-0.163	0.116
-562.544	9.601	-0.280	0.211
-561.529	220.471	-0.243	0.388
-560.515	71.614	-0.152	-0.157
-559.500	48.378	-0.198	0.184
-558.485	32.035	-0.346	0.296
-557.471	-70.940	-0.159	0.060
-556.456	-63.303	-0.230	-0.094
-555.442	-66.065	0.118	-0.047
-554.427	170.943	0.098	-0.140
-553.412	-200.000	0.000	-0.108
-552.398	48.391	0.206	0.192
-551.383	-42.847	-0.055	-0.028
-550.369	-11.528	-0.317	-0.207
-549.354	-126.186	-0.151	0.022
-548.339	-200.000	0.023	0.169
-547.325	89.346	-0.109	0.120
-546.310	-200.000	0.014	-0.233
-545.296	-200.000	-0.025	0.331
-544.281	-160.746	0.327	0.017
-543.266	800.000	0.001	0.004
-542.252	-141.931	-0.392	-0.039
-541.237	60.603	-0.105	0.104
-540.223	-42.324	0.141	-0.071
-539.208	-81.236	0.244	0.080
-538.193	800.000	-0.070	-0.269
-537.179	-118.254	0.184	-0.033
-536.164	-200.000	-0.015	-0.104
-535.150	-99.772	0.167	-0.042
-534.135	48.787	-0.149	-0.139
-533.121	-107.285	-0.071	0.015
-532.106	17.657	-0.181	-0.143
-531.091	800.000	0.063	-0.256
-530.077	-123.661	0.401	0.063
-529.062	800.000	-0.058	0.175
-528.048	-81.978	0.205	0.067
-527.033	39.924	-0.124	-0.110
-526.018	-36.434	-0.204	-0.109
-525.004	-69.272	0.091	-0.035
-523.989	-59.327	-0.219	-0.093
-522.975	320.171	-0.162	0.305
-521.960	-90.135	-0.349	0.101
-520.945	700.694	-0.203	-0.530
-519.931	107.233	-0.213	0.251
-518.916	-58.158	0.252	-0.109
-517.902	-17.775	0.144	-0.090
-516.887	252.890	-0.185	-0.313
-515.872	-200.000	-0.004	-0.221
-514.858	-200.000	0.015	0.134
-513.843	42.815	-0.311	-0.281
-512.829	-169.328	0.106	-0.004
-511.814	77.833	0.226	-0.239
-510.799	105.141	-0.324	-0.379
-509.785	50.333	0.244	0.229
-508.770	209.482	-0.083	-0.128
-507.756	800.000	0.064	0.211
-506.741	-51.061	-0.207	-0.096
-505.726	-73.126	-0.175	-0.064
-504.712	-30.894	-0.282	-0.158
-503.697	237.667	-0.144	-0.238
-502.683	250.485	-0.075	-0.126
-501.668	800.000	0.045	0.189
-500.653	800.000	0.014	0.059
-499.639	-123.855	0.021	-0.003
-498.624	-154.033	-0.408	0.027
-497.610	-158.131	-0.133	-0.008
-496.595	191.099	0.056	0.084
-495.581	205.608	-0.095	0.146
-494.566	-58.001	0.226	0.098
-493.551	-59.825	-0.183	0.078
-492.537	-99.256	0.197	-0.049
-491.522	-110.541	0.195	0.040
-490.508	82.892	0.029	-0.031
-489.493	243.226	-0.151	0.252
-488.478	154.314	0.126	-0.171
-487.464	-163.658	0.162	0.008
-486.449	123.547	-0.052	0.064
-485.435	-15.445	0.200	0.127
-484.420	37.016	-0.257	0.226
-483.405	245.191	-0.045	0.075
-482.391	-200.000	-0.006	-0.356
-481.376	69.634	-0.272	-0.277
-480.362	-122.153	-0.222	-0.036
-479.347	-133.384	0.150	-0.019
-478.332	-92.175	-0.446	-0.125
-477.318	680.945	0.095	0.245
-476.303	164.464	-0.033	-0.046
-475.289	7.766	0.309	0.229
-474.274	206.583	-0.153	-0.237
-473.259	383.189	-0.194	0.396
-472.245	800.000	-0.032	-0.120
-471.230	390.000	0.096	0.198
-470.216	-191.641	-0.212	0.002
-469.201	-136.571	0.153	-0.018
-468.186	-129.783	0.127	0.017
-467.172	45.206	-0.122	0.112
-466.157	-200.000	0.009	-0.123
-465.143	-16.453	-0.224	0.141
-464.128	-100.051	0.231	0.057
-463.113	-200.000	0.053	-0.319
-462.099	-130.637	0.145	0.019
-461.084	-114.315	0.144	-0.027
-460.070	-97.475	-0.343	-0.088
-459.055	-80.155	0.255	-0.085
-458.040	800.000	-0.080	-0.251
-457.026	-83.614	0.163	-0.052
-456.011	-200.000	0.055	0.267
-454.997	-200.000	-0.031	0.151
-453.982	-116.881	-0.115	-0.021
-452.968	-68.233	-0.150	-0.058
-451.953	-200.000	0.040	-0.324
-450.938	39.301	-0.136	0.121
-449.924	-110.916	-0.147	0.030
-448.909	527.117	-0.160	-0.374
-447.895	-65.358	-0.222	-0.088
-446.880	-24.601	0.155	0.091
-445.865	-82.480	-0.264	0.085
-444.851	17.005	-0.230	0.180
-443.836	382.220	-0.055	-0.111
-442.822	-135.538	-0.202	-0.024
-441.807	-200.000	0.011	0.123
-440.792	-7.172	0.067	0.045
-439.778	-60.986	0.018	0.007
-438.763	47.162	-0.221	-0.203
-437.749	-125.718	0.260	-0.039
-436.734	-200.000	-0.010	-0.046
-435.719	299.165	-0.160	0.292
-434.705	64.796	-0.300	0.300
-433.690	-200.000	-0.022	0.274
-432.676	-8.005	0.150	0.100
-431.661	-99.649	0.216	0.054
-430.646	234.029	-0.034	-0.055
-429.632	-167.498	-0.293	-0.012
-428.617	800.000	0.061	0.238
-427.603	-45.851	-0.231	-0.113
-426.588	800.000	0.071	-0.251
-425.573	-78.236	-0.331	0.112
-424.559	224.999	-0.218	-0.350
-423.544	-10.781	-0.109	0.071
-422.530	365.057	0.050	-0.099
-421.515	-200.000	-0.006	-0.181
-420.500	-100.794	-0.206	0.050
-419.486	-121.592	-0.179	-0.029
-418.471	-61.296	0.204	-0.085
-417.457	-69.071	0.326	0.124
-416.442	59.644	-0.218	-0.213
-415.428	800.000	0.068	0.278
-414.413	-200.000	-0.061	0.338
-413.398	316.043	0.081	0.151
-412.384	228.597	0.173	0.278
-411.369	-55.254	-0.141	-0.063
-410.355	21.441	0.178	0.143
-409.340	-200.000	0.009	0.190
-408.325	529.340	-0.152	-0.354
-407.311	-107.930	0.138	-0.030
-406.296	-200.000	-0.053	-0.382
-405.282	-68.295	0.295	-0.113
-404.267	-200.000	0.009	-0.118
-403.252	223.088	-0.100	-0.160
-402.238	86.466	0.091	-0.099
-401.223	194.041	-0.130	-0.194
-400.209	-19.965	0.178	0.108
-399.194	0.039	0.264	-0.186
-398.179	-200.000	0.002	-0.044
-397.165	226.965	-0.078	-0.125
-396.150	185.355	-0.129	0.190
-395.136	199.808	0.095	0.143
-394.121	319.376	-0.050	0.094
-393.106	274.528	-0.073	-0.128
-392.092	-200.000	0.076	0.410
-391.077	678.658	-0.118	-0.302
-390.063	50.606	-0.293	0.274
-389.048	-85.688	0.255	-0.078
-388.033	150.606	-0.073	-0.098
-387.019	-109.847	-0.172	0.036
-386.004	-125.580	0.173	-0.026
-384.990	90.027	0.226	0.250
-383.975	-74.363	0.055	-0.019
-382.960	-200.000	0.026	0.237
-381.946	-200.000	-0.029	0.191
-380.931	133.917	0.031	0.040
-379.917	800.000	0.079	0.228
-378.902	-121.815	0.194	0.032
-377.888	-2.504	-0.202	-0.140
-376.873	45.581	0.247	-0.225
-375.858	146.038	0.079	-0.104
-374.844	-200.000	-0.007	0.167
-373.829	-200.000	0.008	0.328
-372.815	56.788	0.128	0.123
-371.800	232.645	-0.110	0.179
-370.785	-200.000	-0.038	0.266
-369.771	185.841	0.253	0.370
-368.756	-55.350	0.126	0.056
-367.742	800.000	-0.108	0.296
-366.727	-56.536	-0.237	-0.104
-365.712	169.593	0.132	-0.185
-364.698	-69.248	0.210	0.080
-363.683	35.411	-0.058	0.050
-362.669	-119.592	-0.317	0.054
-361.654	69.572	0.162	0.165
-360.639	203.758	0.196	-0.299
-359.625	107.764	-0.005	-0.005
-358.610	-167.582	-0.227	0.009
-357.596	-139.066	0.188	-0.020
-356.581	60.606	0.075	0.074
-355.566	315.411	-0.139	0.258
-354.552	-200.000	-0.017	-0.371
-353.537	-109.747	0.313	-0.065
-352.523	-17.939	-0.208	0.128
-351.508	-89.446	0.267	0.077
-350.493	-29.544	-0.324	-0.182
-349.479	-2.732	0.242	-0.167
-348.464	-132.464	-0.247	0.031
-347.450	-200.000	0.010	-0.188
-346.435	-197.614	0.246	0.001
-345.420	477.332	-0.052	-0.117
-344.406	103.720	-0.051	-0.059
-343.391	-70.796	0.092	0.034
-342.377	131.133	0.104	0.131
-341.362	-67.208	0.302	-0.117
-340.348	-42.804	-0.049	-0.025
-339.333	27.203	0.123	0.102
-338.318	137.573	-0.208	0.269
-337.304	-119.110	0.139	0.024
-336.289	39.005	-0.125	0.110
-335.275	169.387	-0.182	0.257
-334.260	253.289	0.158	-0.265
-333.245	335.104	0.008	-0.016
-332.231	-200.000	-0.007	-0.081
-331.216	-49.547	0.214	0.100
-330.202	-137.257	-0.510	-0.057
-329.187	-66.195	0.056	-0.022
-328.172	-41.834	0.259	-0.131
-327.158	-138.986	-0.317	-0.034
-326.143	-93.228	-0.277	0.076
-325.129	-118.262	0.375	0.066
-324.114	188.028	0.115	0.169
-323.099	-0.953	-0.195	-0.136
-322.085	-69.371	0.188	0.071
-321.070	-200.000	0.013	-0.063
-320.056	-136.828	0.182	-0.021
-319.041	118.612	-0.118	-0.143
-318.026	34.421	0.204	-0.175
-317.012	800.000	-0.048	-0.143
-315.997	214.309	-0.100	-0.155
-314.983	66.193	0.210	-0.210
-313.968	33.711	-0.170	-0.145
-312.953	-61.943	-0.115	-0.047
-311.939	-200.000	0.036	0.199
-310.924	-93.872	0.287	0.078
-309.910	-200.000	-0.025	0.146
-308.895	102.923	-0.126	0.145
-307.880	-155.351	0.323	0.021
-306.866	671.896	-0.031	-0.080
-305.851	-200.000	0.020	-0.095
-304.837	-200.000	-0.062	-0.360
-303.822	-175.302	-0.181	0.005
-302.807	-200.000	-0.066	0.404
-301.793	28.990	0.327	-0.273
-300.778	-16.548	-0.188	0.117
-299.764	107.759	0.292	0.342
-298.749	-68.496	-0.097	-0.037
-297.735	149.833	0.203	0.271
-296.720	-71.003	0.124	-0.046
-295.705	800.000	-0.037	0.117
-294.691	46.824	0.247	-0.226
-293.676	-200.000	-0.015	-0.268
-292.662	10.924	-0.165	-0.124
-291.647	-200.000	-0.030	0.415
-290.632	-200.000	0.035	0.163
-289.618	-5.158	-0.302	0.204
-288.603	-161.891	-0.203	-0.010
-287.589	-200.000	0.013	0.253
-286.574	-153.102	-0.316	0.022
-285.559	-77.499	0.333	0.113
-284.545	-200.000	0.037	0.204
-283.530	-194.360	0.151	0.001
-282.516	-193.501	0.280	0.002
-281.501	49.797	0.270	-0.250
-280.486	336.524	0.072	0.137
-279.472	77.228	-0.255	-0.266
-278.457	-111.790	0.382	-0.076
-277.443	-70.755	0.137	0.051
-276.428	35.901	0.129	-0.112
-275.413	-11.858	0.149	-0.096
-274.399	354.390	-0.230	0.449
-273.384	-24.132	0.223	-0.131
-272.370	-51.961	-0.222	0.101
-271.355	-60.544	0.401	-0.167
-270.340	-200.000	-0.003	0.234
-269.326	537.228	-0.083	0.193
-268.311	-140.192	0.246	-0.025
-267.297	-200.000	0.026	0.253
-266.282	-101.435	-0.466	0.112
-265.267	800.000	-0.026	-0.078
-264.253	800.000	-0.096	0.304
-263.238	-16.479	-0.239	0.149
-262.224	-22.334	0.299	-0.178
-261.209	93.750	-0.166	0.185
-260.195	176.478	0.146	0.208
-259.180	-200.000	0.021	0.284
-258.165	-71.339	0.086	0.032
-257.151	-200.000	0.216	0.001
-256.136	-17.563	-0.255	0.158
-255.122	-165.241	-0.532	0.023
-254.107	90.541	-0.208	-0.228
-253.092	291.761	0.189	-0.339
-252.078	-200.000	-0.054	0.402
-251.063	800.000	0.049	-0.173
-250.049	-141.803	-0.107	0.011
-249.034	-70.870	0.198	-0.073
-248.019	57.231	0.201	-0.193
-247.005	-200.000	-0.022	-0.324
-245.990	-123.322	-0.147	0.023
-244.976	800.000	0.089	0.265
-243.961	-101.727	-0.286	-0.068
-242.946	123.821	0.060	0.074
-241.932	-96.341	0.332	0.086
-240.917	285.127	-0.083	-0.147
-239.903	78.321	-0.079	0.082
-238.888	-86.346	0.237	-0.071
-237.873	388.305	0.166	-0.336
-236.859	800.000	0.035	0.145
-235.844	239.631	-0.109	0.178
-234.830	-142.242	0.063	-0.006
-233.815	144.647	0.142	-0.186
-232.800	-38.993	-0.214	0.110
-231.786	-77.900	0.172	-0.058
-230.771	-175.908	-0.267	-0.007
-229.757	-33.536	0.133	-0.072
-228.742	-99.640	-0.045	-0.011
-227.727	404.942	0.159	-0.328
-226.713	-79.416	0.379	-0.126
-225.698	-94.774	0.352	0.094
-224.684	-122.648	0.194	-0.031
-223.669	-64.472	-0.205	-0.082
-222.655	48.292	0.159	-0.146
-221.640	-120.674	-0.219	0.036
-220.625	-108.629	0.219	-0.046
-219.611	6.182	0.095	0.069
-218.596	129.712	-0.187	0.234
-217.582	-200.000	0.039	-0.198
-216.567	100.240	-0.113	-0.128
-215.552	-112.081	0.286	0.056
-214.538	-78.679	-0.314	-0.105
-213.523	23.418	-0.066	-0.053
-212.509	1.654	-0.211	-0.149
-211.494	-200.000	-0.021	-0.459
-210.479	-59.704	-0.129	0.054
-209.465	-38.999	0.242	0.125
-208.450	-123.575	0.112	0.017
-207.436	-200.000	0.021	-0.268
-206.421	338.060	0.079	0.151
-205.406	229.993	0.371	-0.594
-204.392	120.595	-0.130	0.158
-203.377	-127.485	0.267	-0.038
-202.363	39.727	0.058	-0.051
-201.348	279.896	-0.053	-0.092
-200.333	-200.000	0.003	0.033
-199.319	-137.750	0.271	-0.030
-198.304	-0.980	-0.111	-0.077
-197.290	-2.566	-0.084	-0.057
-196.275	-60.310	-0.021	-0.009
-195.260	-16.793	-0.172	-0.107
-194.246	-111.220	0.402	-0.081
-193.231	800.000	-0.108	0.369
-192.217	159.019	0.095	-0.130
-191.202	-45.889	-0.238	0.115
-190.187	116.379	0.168	-0.202
-189.173	210.796	-0.089	0.137
-188.158	800.000	0.104	-0.401
-187.144	-165.093	-0.205	-0.009
-186.129	-178.750	0.113	-0.003
-185.114	449.109	-0.113	0.244
-184.100	49.623	0.166	-0.154
-183.085	-42.390	0.161	0.080
-182.071	20.475	-0.153	-0.121
-181.056	-90.861	-0.224	-0.063
-180.042	-0.352	0.133	0.092
-179.027	-7.152	0.130	0.086
-178.012	-100.408	0.253	-0.061
-176.998	245.885	-0.022	-0.036
-175.983	92.849	0.122	-0.135
-174.969	-33.129	0.268	0.145
-173.954	459.506	0.097	0.210
-172.939	-164.006	0.366	-0.017
-171.925	-129.386	0.244	-0.033
-170.910	181.085	0.111	0.160
-169.896	18.786	-0.258	0.202
-168.881	800.000	-0.103	-0.309
-167.866	416.806	0.117	0.245
-166.852	-200.000	0.008	0.173
-165.837	-200.000	-0.021	0.125
-164.823	421.036	0.008	-0.016
-163.808	-139.155	-0.225	0.024
-162.793	-121.871	0.263	-0.042
-161.779	-200.000	0.002	0.143
-160.764	-46.269	0.272	0.131
-159.750	135.803	0.080	-0.102
-158.735	188.074	-0.201	-0.294
-157.720	9.851	-0.208	0.155
-156.706	5.389	0.176	0.127
-155.691	2.052	0.159	0.112
-154.677	-111.719	0.383	-0.076
-153.662	-105.254	-0.316	0.070
-152.647	140.378	-0.228	-0.295
-151.633	14.110	-0.037	-0.028
-150.618	-29.875	-0.215	0.120
-149.604	136.162	0.069	0.088
-148.589	-149.804	0.149	-0.011
-147.574	-128.066	-0.119	0.017
-146.560	26.927	-0.130	0.107
-145.545	-34.792	0.203	-0.109
-144.531	-20.289	-0.345	0.208
-143.516	33.359	0.137	0.117
-142.502	-75.277	0.405	-0.141
-141.487	401.544	0.071	-0.145
-140.472	-45.650	0.126	-0.061
-139.458	-77.130	-0.374	-0.128
-138.443	4.252	-0.238	-0.170
-137.429	233.376	-0.173	0.279
-136.414	-200.000	0.036	0.405
-135.399	800.000	-0.048	0.158
-134.385	-176.555	-0.419	0.011
-133.370	38.507	-0.264	0.230
-132.356	11.041	-0.034	-0.026
-131.341	-165.775	-0.292	-0.012
-130.326	800.000	0.131	0.522
-129.312	122.592	-0.149	0.183
-128.297	73.525	0.268	0.275
-127.283	290.558	-0.179	0.318
-126.268	-200.000	-0.017	0.161
-125.253	-57.982	0.156	0.066
-124.239	-91.964	0.218	0.060
-123.224	-40.866	-0.128	0.065
-122.210	800.000	0.091	-0.305
-121.195	534.807	0.137	0.317
-120.180	135.190	0.036	0.046
-119.166	-182.607	0.200	0.004
-118.151	496.933	0.161	0.363
-117.137	170.328	-0.111	-0.155
-116.122	-195.127	0.442	0.003
-115.107	43.564	-0.069	0.061
-114.093	-37.353	-0.185	0.097
-113.078	-65.498	-0.108	-0.042
-112.064	206.175	-0.069	0.104
-111.049	-68.859	-0.100	-0.038
-110.034	275.124	0.116	-0.201
-109.020	800.000	-0.137	-0.414
-108.005	-200.000	0.012	0.317
-106.991	-153.000	-0.190	0.013
-105.976	129.234	-0.108	0.135
-104.962	800.000	-0.072	-0.244
-103.947	-200.000	0.041	-0.292
-102.932	-31.538	0.208	0.114
-101.918	800.000	-0.054	-0.179
-100.903	-111.039	0.039	0.008
-99.889	-119.735	0.266	-0.045
-98.874	-48.389	0.047	-0.022
-97.859	-200.000	-0.029	-0.193
-96.845	-111.761	-0.140	0.028
-95.830	245.560	0.082	0.134
-94.816	-23.161	-0.128	-0.075
-93.801	-10.894	0.333	-0.214
-92.786	149.308	0.118	0.156
-91.772	-64.112	-0.136	0.054
-90.757	-200.000	-0.015	0.163
-89.743	177.840	-0.030	0.043
-88.728	111.028	-0.170	-0.200
-87.713	47.649	0.371	0.338
-86.699	-200.000	0.019	0.125
-85.684	131.087	-0.098	-0.123
-84.670	112.896	0.157	-0.186
-83.655	86.940	-0.118	-0.127
-82.640	143.436	0.124	-0.161
-81.626	-105.048	-0.282	-0.063
-80.611	-200.000	0.033	-0.185
-79.597	-87.414	-0.339	-0.100
-78.582	-85.546	0.252	0.076
-77.567	800.000	0.152	0.443
-76.553	7.924	-0.119	0.087
-75.538	-200.000	0.004	0.043
-74.524	15.440	-0.180	0.138
-73.509	39.150	0.230	0.201
-72.494	38.827	-0.286	0.249
-71.480	800.000	-0.067	0.210
-70.465	229.171	0.099	0.158
-69.451	-43.397	-0.110	-0.054
-68.436	-200.000	0.015	0.178
-67.422	71.620	0.119	-0.121
-66.407	-200.000	-0.038	0.382
-65.392	212.175	-0.165	0.253
-64.378	-200.000	0.038	0.182
-63.363	-79.336	0.396	0.131
-62.349	-30.675	-0.153	0.084
-61.334	57.981	-1.210	-1.155
-60.319	312.754	0.493	0.904
-59.305	749.206	-0.546	-1.436
-58.290	400.873	0.641	1.311
-57.276	285.944	0.590	1.037
-56.261	-200.000	134.418	676.063
-55.246	324.224	1685.736	3137.090
-54.232	132.099	2818.304	3537.340
-53.217	86.636	2183.980	2348.143
-52.203	32.013	1611.309	1353.383
-51.188	23.917	1358.244	1091.332
-50.173	21.472	1322.432	1047.889
-49.159	49.812	1396.614	1282.885
-48.144	45.907	1405.927	1267.328
-47.130	23.909	1352.598	1086.573
-46.115	20.776	1332.960	1051.862
-45.100	20.508	1327.892	1046.207
-44.086	20.487	1325.151	1043.877
-43.071	20.492	1322.613	1041.866
-42.057	20.508	1320.371	1040.154
-41.042	20.411	1319.610	1038.936
-40.027	20.452	1318.045	1037.909
-39.013	20.492	1315.700	1036.258
-37.998	20.559	1314.402	1035.594
-36.984	20.531	1313.123	1034.378
-35.969	20.504	1310.677	1032.252
-34.954	20.486	1309.470	1031.150
-33.940	20.664	1307.345	1030.490
-32.925	20.562	1306.600	1029.259
-31.911	20.659	1304.745	1028.331
-30.896	20.601	1303.606	1027.053
-29.881	20.636	1302.097	1026.025
-28.867	20.632	1301.496	1025.488
-27.852	20.694	1299.523	1024.258
-26.838	20.719	1298.206	1023.330
-25.823	20.603	1296.933	1021.601
-24.809	20.575	1295.566	1020.322
-23.794	20.614	1294.112	1019.363
-22.779	20.633	1292.845	1018.436
-21.765	20.653	1291.693	1017.607
-20.750	20.621	1290.403	1016.358
-19.736	20.491	1288.983	1014.444
-18.721	20.468	1287.993	1013.491
-17.706	20.536	1286.786	1012.896
-16.692	20.658	1285.013	1012.172
-15.677	20.513	1284.578	1010.941
-14.663	20.597	1283.162	1010.276
-13.648	20.475	1282.070	1008.672
-12.633	20.536	1281.037	1008.173
-11.619	20.537	1280.330	1007.582
-10.604	20.528	1279.645	1006.949
-9.590	20.490	1278.785	1006.015
-8.575	20.460	1277.863	1005.072
-7.560	20.509	1277.056	1004.679
-6.546	20.596	1276.028	1004.333
-5.531	20.501	1275.253	1003.139
-4.517	20.536	1274.068	1002.365
-3.502	20.551	1273.504	1001.971
-2.487	20.566	1272.494	1001.225
-1.473	20.476	1268.588	997.592
-0.458	19.319	1253.672	979.258
0.556	15.144	1239.138	945.143
1.571	11.967	1248.584	934.177
2.586	11.282	1264.851	942.304
3.600	11.449	1251.650	933.342
4.615	8.423	1179.007	862.775
5.629	3.113	1108.950	784.415
6.644	0.754	1092.472	760.825
7.659	0.510	1090.946	758.472
8.673	0.472	1090.112	757.632
9.688	0.565	1088.720	757.063
10.702	0.776	1086.197	756.298
11.717	3.992	1089.681	774.776
12.731	10.320	1098.385	812.739
13.746	15.309	1104.851	842.576
14.761	17.131	1106.668	853.051
15.775	16.338	1105.073	847.765
16.790	15.584	1102.667	842.065
17.804	14.749	1101.350	836.807
18.819	14.359	1100.624	834.229
19.834	14.174	1099.667	832.501
20.848	13.956	1098.398	830.376
21.863	13.756	1097.434	828.577
22.877	13.588	1096.668	827.089
23.892	13.456	1096.580	826.287
24.907	13.637	1095.046	825.960
25.921	13.525	1094.731	825.095
26.936	13.617	1094.029	824.950
27.950	13.653	1093.288	824.495
28.965	13.763	1090.988	823.235
29.980	13.687	1090.560	822.463
30.994	13.736	1088.966	821.427
32.009	13.818	1087.994	821.030
33.023	13.758	1086.907	819.841
34.038	13.701	1085.957	818.770
35.053	13.767	1085.054	818.339
36.067	13.708	1084.106	817.262
37.082	13.658	1083.398	816.410
38.096	13.689	1082.747	816.001
39.111	13.669	1081.528	814.912
40.126	13.637	1080.777	814.116
41.140	13.654	1079.127	812.884
42.155	13.491	1078.957	811.885
43.169	13.495	1077.441	810.692
44.184	13.527	1075.876	809.603
45.199	13.600	1075.259	809.420
46.213	13.550	1074.666	808.658
47.228	13.620	1073.173	807.807
48.242	13.669	1071.678	806.846
49.257	13.556	1071.132	805.817
50.271	13.676	1070.062	805.521
51.286	13.657	1069.026	804.577
52.301	13.664	1068.347	804.032
53.315	13.626	1067.087	802.828
54.330	13.609	1065.961	801.827
55.344	13.532	1065.112	800.742
56.359	13.621	1064.200	800.417
57.374	13.591	1063.351	799.562
58.388	13.558	1062.568	798.744
59.403	13.568	1061.856	798.187
60.417	13.572	1060.628	797.212
61.432	13.648	1059.845	796.918
62.447	13.528	1059.050	795.673
63.461	13.583	1057.889	794.996
64.476	13.624	1057.307	794.684
65.490	13.443	1056.477	793.121
66.505	13.624	1055.592	793.254
67.520	13.615	1055.554	793.112
68.534	13.576	1054.501	792.066
69.549	13.438	1054.055	791.001
70.563	13.584	1052.306	790.317
71.578	13.475	1052.041	789.528
72.593	13.574	1051.266	789.346
73.607	13.427	1050.778	788.210
74.622	13.522	1049.669	787.758
75.636	13.471	1049.149	787.057
76.651	13.375	1048.583	786.106
77.666	13.441	1047.768	785.741
78.680	13.381	1047.352	785.073
79.695	13.391	1046.725	784.581
80.709	13.531	1045.899	784.556
81.724	13.604	1044.994	784.155
82.739	13.694	1044.005	783.768
83.753	13.521	1043.954	782.841
84.768	13.799	1042.116	782.707
85.782	13.706	1041.455	781.703
86.797	13.691	1040.747	781.030
87.812	13.473	1040.244	779.557
88.826	13.527	1038.585	778.500
89.841	13.708	1037.973	778.821
90.855	13.703	1036.582	777.688
91.870	13.693	1036.009	777.142
92.884	13.655	1035.383	776.425
93.899	13.757	1034.511	776.181
94.914	13.790	1033.830	775.756
95.928	13.830	1032.655	774.990
96.943	13.833	1031.430	774.018
97.957	13.772	1030.546	772.998
98.972	13.752	1029.710	772.211
99.987	13.727	1028.988	771.485
101.001	13.815	1027.836	770.963
102.016	13.784	1026.807	769.980
103.030	13.813	1026.159	769.558
104.045	13.757	1025.580	768.796
105.060	13.640	1024.841	767.633
106.074	13.613	1023.732	766.609
107.089	13.585	1022.778	765.698
108.103	13.665	1021.644	765.152
109.118	13.694	1020.398	764.286
110.133	13.651	1019.662	763.469
111.147	13.636	1018.882	762.744
112.162	13.720	1017.786	762.244
113.176	13.710	1017.310	761.773
114.191	13.729	1016.047	760.850
115.206	13.757	1015.423	760.445
116.220	13.742	1014.699	759.762
117.235	13.711	1013.690	758.799
118.249	13.680	1013.209	758.231
119.264	13.693	1012.521	757.706
120.279	13.724	1011.403	756.946
121.293	13.698	1010.578	756.143
122.308	13.637	1009.521	755.007
123.322	13.721	1008.287	754.400
124.337	13.660	1007.715	753.630
125.352	13.690	1006.284	752.628
126.366	13.594	1005.422	751.479
127.381	13.597	1004.556	750.782
128.395	13.676	1003.223	750.074
129.410	13.625	1002.430	749.186
130.424	13.660	1001.690	748.727
131.439	13.694	1000.960	748.265
132.454	13.749	999.918	747.667
133.468	13.788	999.467	747.442
134.483	13.670	998.477	746.101
135.497	13.856	997.021	745.787
136.512	13.756	996.647	744.989
137.527	13.672	995.756	743.881
138.541	13.716	994.987	743.441
139.556	13.783	993.908	742.868
140.570	13.831	993.318	742.576
141.585	13.833	992.674	742.037
142.600	13.782	991.793	741.085
143.614	13.908	990.817	740.851
144.629	13.985	989.761	740.339
145.643	13.874	989.173	739.338
146.658	13.866	987.762	738.187
147.673	13.856	987.026	737.523
148.687	13.821	986.473	736.892
149.702	13.740	985.490	735.733
150.716	13.739	984.866	735.197
151.731	13.795	984.367	735.009
152.746	13.915	983.192	734.598
153.760	13.793	983.015	733.860
154.775	13.953	981.937	733.697
155.789	14.018	981.160	733.338
156.804	14.043	980.808	733.118
157.819	13.985	980.182	732.332
158.833	14.186	978.943	732.225
159.848	14.109	978.427	731.435
160.862	14.074	977.585	730.589
161.877	13.987	976.704	729.485
162.892	14.054	975.359	728.708
163.906	13.971	974.755	727.827
164.921	13.973	973.714	726.995
165.935	13.951	972.873	726.208
166.950	13.970	972.050	725.610
167.964	14.174	971.217	725.815
168.979	13.971	970.362	724.226
169.994	14.178	969.086	724.111
171.008	14.135	968.878	723.704
172.023	14.234	967.677	723.177
173.037	14.179	967.318	722.604
174.052	14.192	966.512	721.994
175.067	14.084	966.083	721.140
176.081	14.097	965.584	720.763
177.096	14.105	964.689	720.064
178.110	14.082	964.112	719.470
179.125	14.137	963.375	719.094
180.140	14.193	962.985	718.981
181.154	14.240	962.570	718.811
182.169	14.306	962.165	718.728
183.183	14.331	961.400	718.201
184.198	14.299	960.340	717.209
185.213	14.263	959.586	716.426
186.227	14.244	958.973	715.825
187.242	14.419	958.083	715.849
188.256	14.296	957.479	714.807
189.271	14.439	956.295	714.472
190.286	14.290	956.176	713.681
191.300	14.285	955.014	712.729
192.315	14.321	954.404	712.368
193.329	14.288	953.917	711.799
194.344	14.189	953.649	711.114
195.359	14.138	952.772	710.179
196.373	14.332	951.926	710.312
197.388	14.466	951.690	710.643
198.402	14.302	951.386	709.653
199.417	14.417	950.430	709.368
200.432	14.522	949.656	709.177
201.446	14.492	949.153	708.609
202.461	14.442	948.820	708.087
203.475	14.604	947.786	707.937
204.490	14.441	947.516	706.982
205.504	14.521	946.517	706.512
206.519	14.592	945.814	706.227
207.534	14.490	945.277	705.331
208.548	14.529	944.647	704.964
209.563	14.575	943.848	704.498
210.577	14.520	943.477	703.929
211.592	14.717	942.329	703.839
212.607	14.730	941.713	703.371
213.621	14.669	940.968	702.497
214.636	14.706	940.219	702.030
215.650	14.735	938.949	701.143
216.665	14.798	938.731	701.180
217.680	14.732	937.932	700.247
218.694	14.815	937.122	699.928
219.709	14.838	936.725	699.666
220.723	14.848	935.556	698.772
221.738	14.861	935.062	698.395
222.753	14.829	934.574	697.836
223.767	14.859	934.118	697.561
224.782	14.846	933.350	696.870
225.796	14.818	932.880	696.339
226.811	14.931	932.072	696.147
227.826	14.912	931.314	695.439
228.840	14.908	930.378	694.660
229.855	14.922	929.949	694.340
230.869	14.966	929.142	693.855
231.884	14.936	928.443	693.149
232.899	14.985	927.335	692.462
233.913	14.867	926.825	691.534
234.928	14.928	926.158	691.227
235.942	14.924	925.450	690.619
236.957	14.892	925.100	690.166
237.972	15.001	924.240	689.914
238.986	14.980	923.771	689.415
240.001	14.822	922.952	688.093
241.015	14.971	922.252	688.122
242.030	15.011	921.638	687.767
243.045	15.083	920.953	687.490
244.059	15.011	920.539	686.827
245.074	15.124	919.706	686.609
246.088	15.165	919.192	686.330
247.103	15.099	918.649	685.594
248.117	15.097	918.201	685.190
249.132	15.226	917.213	684.919
250.147	15.167	916.500	684.087
251.161	15.311	915.700	684.016
252.176	15.310	915.029	683.452
253.190	15.276	914.511	682.864
254.205	15.294	913.848	682.383
255.220	15.458	912.717	682.146
256.234	15.349	912.659	681.596
257.249	15.286	912.168	680.914
258.263	15.431	911.133	680.670
259.278	15.328	910.380	679.630
260.293	15.426	909.993	679.676
261.307	15.504	909.201	679.343
262.322	15.477	908.914	678.957
263.336	15.565	907.771	678.400
264.351	15.512	907.354	677.816
265.366	15.498	906.594	677.129
266.380	15.500	906.290	676.852
267.395	15.586	905.145	676.281
268.409	15.663	904.164	675.797
269.424	15.558	903.698	674.968
270.439	15.555	902.974	674.358
271.453	15.579	902.209	673.822
272.468	15.687	901.679	673.800
273.482	15.665	901.169	673.271
274.497	15.573	900.760	672.538
275.512	15.552	900.533	672.225
276.526	15.653	899.646	671.904
277.541	15.669	899.018	671.440
278.555	15.735	898.551	671.297
279.570	15.830	897.881	671.116
280.585	15.835	896.747	670.229
281.599	15.825	896.155	669.688
282.614	15.750	895.380	668.749
283.628	15.719	894.751	668.099
284.643	15.807	894.371	668.104
285.657	15.848	893.935	667.884
286.672	15.811	893.469	667.327
287.687	15.812	892.743	666.730
288.701	15.851	891.705	666.052
289.716	15.966	891.059	665.963
290.730	15.951	890.443	665.388
291.745	15.988	889.880	665.052
292.760	15.980	889.356	664.569
293.774	15.961	888.897	664.095
294.789	16.064	887.889	663.689
295.803	16.131	886.939	663.181
296.818	16.007	886.567	662.358
297.833	16.014	885.575	661.584
298.847	16.016	885.009	661.113
299.862	16.090	884.283	660.801
300.876	16.127	883.732	660.476
301.891	16.150	883.345	660.218
302.906	16.189	882.515	659.691
303.920	16.098	882.214	659.055
304.935	16.132	881.790	658.809
305.949	16.163	881.194	658.428
306.964	16.194	880.522	657.990
307.979	16.267	879.536	657.477
308.993	16.254	879.154	657.084
310.008	16.210	878.679	656.498
311.022	16.308	878.028	656.338
312.037	16.398	877.033	655.883
313.052	16.221	876.942	655.071
314.066	16.377	876.203	655.064
315.081	16.251	875.669	654.120
316.095	16.246	875.081	653.602
317.110	16.127	874.474	652.631
318.125	16.232	873.913	652.562
319.139	16.144	873.806	652.081
320.154	16.396	873.275	652.601
321.168	16.361	872.543	651.861
322.183	16.406	871.541	651.232
323.197	16.332	871.354	650.747
324.212	16.372	870.911	650.512
325.227	16.447	870.133	650.165
326.241	16.377	869.643	649.470
327.256	16.356	869.129	648.948
328.270	16.459	868.126	648.538
329.285	16.406	867.680	647.942
330.300	16.457	866.922	647.517
331.314	16.389	866.687	647.020
332.329	16.615	866.093	647.385
333.343	16.492	866.112	646.872
334.358	16.500	865.236	646.191
335.373	16.491	864.998	645.923
336.387	16.511	864.844	645.826
337.402	16.384	864.738	645.207
338.416	16.634	863.670	645.304
339.431	16.472	863.940	644.833
340.446	16.726	862.912	644.975
341.460	16.662	862.558	644.408
342.475	16.733	862.089	644.273
343.489	16.689	862.112	644.065
344.504	16.900	860.924	643.923
345.519	16.939	860.699	643.844
346.533	16.731	859.981	642.462
347.548	16.721	859.999	642.382
348.562	16.824	858.729	641.765
349.577	16.745	858.316	641.099
350.592	16.872	858.036	641.317
351.606	16.728	857.220	640.104
352.621	16.739	856.378	639.460
353.635	16.839	855.928	639.447
354.650	16.850	855.195	638.880
355.665	16.962	854.477	638.712
356.679	16.900	853.897	637.988
357.694	16.817	853.249	637.137
358.708	17.020	852.558	637.324
359.723	16.930	851.806	636.369
360.738	16.908	851.625	636.095
361.752	17.034	850.937	635.997
362.767	17.000	850.426	635.431
363.781	17.079	849.868	635.253
364.796	17.173	849.329	635.147
365.810	17.071	849.231	634.635
366.825	17.073	848.658	634.159
367.840	17.203	848.286	634.312
368.854	17.184	847.750	633.782
369.869	17.147	847.237	633.204
370.883	17.045	846.936	632.543
371.898	17.308	846.342	633.022
372.913	17.224	846.291	632.615
373.927	17.209	845.840	632.167
374.942	17.362	844.748	631.866
375.956	17.334	844.335	631.396
376.971	17.328	844.000	631.066
377.986	17.388	843.600	630.935
379.000	17.607	842.985	631.229
380.015	17.396	842.685	630.166
381.029	17.334	842.250	629.556
382.044	17.373	841.572	629.140
383.059	17.490	840.544	628.747
384.073	17.527	840.188	628.562
385.088	17.444	839.720	627.850
386.102	17.588	838.978	627.770
387.117	17.604	838.353	627.305
388.132	17.491	837.928	626.516
389.146	17.296	837.812	625.657
390.161	17.400	837.226	625.545
391.175	17.535	836.340	625.326
392.190	17.574	835.705	624.938
393.205	17.537	835.196	624.365
394.219	17.575	834.917	624.243
395.234	17.490	834.487	623.553
396.248	17.511	834.136	623.313
397.263	17.645	834.009	623.652
398.278	17.500	833.511	622.696
399.292	17.571	833.237	622.694
400.307	17.446	832.844	621.891
401.321	17.560	832.012	621.631
402.336	17.689	831.563	621.709
403.350	17.605	831.182	621.064
404.365	17.476	830.879	620.312
405.380	17.601	829.879	619.964
406.394	17.836	829.254	620.296
407.409	17.711	829.225	619.766
408.423	17.788	828.812	619.684
409.438	17.890	828.368	619.666
410.453	17.804	827.642	618.757
411.467	17.986	827.458	619.223
412.482	17.900	826.984	618.503
413.496	18.022	826.598	618.603
414.511	17.801	826.533	617.700
415.526	17.913	825.867	617.549
416.540	17.941	825.317	617.187
417.555	17.877	825.331	616.909
418.569	17.909	824.780	616.560
419.584	17.911	824.456	616.269
420.599	17.960	823.873	615.956
421.613	115.223	1301.887	1491.488
422.628	100.045	1371.479	1491.523
