DTS Sentinel unit serial number:	SN413079Multiplexer serial number:	ORYXHardware model number:	OX4-SRSoftware version number:	ORYX F/W v4.00 Oryx Data Collector v3.7.2.0data status	okinstallation	princeton_trtdifferential loss correction	single-endedforward channel	channel 1reverse channel	N/Adate	2019/09/13time	04:54:35forward acquisition time	60.00reverse acquisition time	0.00gamma	496.2192k internal	0.2335k external	0.2335temperature offset calibration	1.0161default loss term (dB/km)	0.3790temperature slope calibration	1.0000multiplexer offset coefficient	1.0000multiplexer slope coefficient	1.0000fibre end	0.00T internal ref (°C)	26.52T ext. ref 1 (°C)	4.05T ext. ref 2 (°C)	20.94length (m)	temperature (°C)	Stokes	anti-Stokes-747.200	32.754	0.226	0.196
-746.185	516.475	0.071	0.167
-745.171	68.272	-0.203	0.209
-744.156	-54.195	-0.159	0.073
-743.142	-200.000	-0.014	-0.076
-742.127	43.772	-0.262	0.241
-741.112	5.205	-0.264	-0.196
-740.098	116.063	0.034	-0.042
-739.083	323.474	-0.058	-0.111
-738.069	102.604	-0.183	0.215
-737.054	134.110	0.111	-0.145
-736.039	-200.000	0.055	0.249
-735.025	32.945	-0.060	-0.052
-734.010	-92.355	-0.114	-0.032
-732.996	227.776	-0.092	0.151
-731.981	-200.000	0.001	0.051
-730.966	-1.123	-0.245	0.174
-729.952	349.623	-0.116	-0.231
-728.937	-200.000	0.036	-0.440
-727.923	-120.954	0.208	0.035
-726.908	-150.318	-0.315	-0.024
-725.894	-71.904	-0.301	0.113
-724.879	56.254	-0.119	-0.116
-723.864	37.558	-0.113	-0.101
-722.850	517.549	0.071	-0.167
-721.835	177.917	0.253	-0.371
-720.821	-87.160	-0.160	-0.049
-719.806	-157.856	-0.027	-0.002
-718.791	176.193	0.201	-0.294
-717.777	263.335	0.067	-0.117
-716.762	209.504	-0.115	-0.181
-715.748	59.511	-0.178	0.176
-714.733	151.560	0.112	-0.153
-713.718	22.272	-0.153	-0.126
-712.704	800.000	0.046	-0.187
-711.689	46.179	0.163	-0.152
-710.675	-66.683	0.058	0.023
-709.660	0.463	-0.115	0.083
-708.645	-200.000	0.045	-0.213
-707.631	-75.688	-0.182	-0.065
-706.616	-200.000	0.017	-0.155
-705.602	39.796	0.256	-0.230
-704.587	107.585	-0.169	-0.202
-703.572	37.041	0.169	0.150
-702.558	800.000	-0.103	0.369
-701.543	-68.151	0.232	0.091
-700.529	800.000	0.017	0.058
-699.514	192.917	-0.162	-0.246
-698.499	93.136	-0.165	-0.188
-697.485	-200.000	0.039	0.234
-696.470	800.000	-0.060	0.175
-695.456	71.315	0.238	0.247
-694.441	-145.005	-0.255	-0.023
-693.426	-37.115	0.119	-0.064
-692.412	-200.000	0.023	0.149
-691.397	800.000	0.011	0.034
-690.383	800.000	-0.035	0.138
-689.368	-71.259	-0.170	0.064
-688.354	83.347	-0.173	-0.189
-687.339	549.713	-0.114	-0.275
-686.324	248.346	-0.062	-0.105
-685.310	-200.000	-0.009	0.207
-684.295	301.633	-0.152	-0.281
-683.281	800.000	-0.104	-0.446
-682.266	431.760	-0.083	-0.180
-681.251	-105.280	-0.183	0.042
-680.237	800.000	-0.107	0.442
-679.222	-200.000	0.008	-0.086
-678.208	800.000	-0.034	-0.110
-677.193	-8.411	-0.386	0.260
-676.178	193.364	-0.025	0.038
-675.164	-157.644	-0.210	-0.013
-674.149	-50.292	0.216	0.102
-673.135	-200.000	-0.038	0.298
-672.120	63.496	-0.034	-0.034
-671.105	-107.860	-0.285	-0.062
-670.091	-98.273	0.167	-0.043
-669.076	-106.640	0.109	0.024
-668.062	-116.320	-0.259	-0.048
-667.047	-62.678	0.305	0.127
-666.032	-200.000	0.009	-0.087
-665.018	-123.086	0.227	-0.036
-664.003	800.000	0.018	0.070
-662.989	-90.837	0.340	0.098
-661.974	-200.000	0.000	-0.221
-660.959	-200.000	-0.014	-0.147
-659.945	-64.156	-0.178	-0.073
-658.930	293.957	0.171	-0.313
-657.916	134.506	0.197	-0.256
-656.901	68.756	0.131	-0.134
-655.886	-200.000	0.034	0.372
-654.872	-97.356	-0.214	0.056
-653.857	800.000	-0.085	-0.356
-652.843	-138.425	-0.288	-0.032
-651.828	-87.671	0.273	-0.083
-650.814	-43.999	-0.205	0.103
-649.799	100.723	-0.168	-0.196
-648.784	493.826	0.174	-0.400
-647.770	392.293	-0.105	-0.219
-646.755	-21.321	0.172	-0.105
-645.741	-51.157	0.275	0.129
-644.726	-141.420	-0.291	-0.030
-643.711	459.160	0.028	-0.062
-642.697	-143.734	0.285	-0.027
-641.682	-41.712	-0.080	0.041
-640.668	326.395	-0.031	0.059
-639.653	13.347	0.269	0.209
-638.638	-98.827	0.154	-0.039
-637.624	-65.633	-0.345	-0.138
-636.609	-200.000	0.023	0.000
-635.595	-111.101	-0.201	-0.041
-634.580	20.832	-0.120	0.098
-633.565	155.525	0.094	0.129
-632.551	63.995	0.159	-0.160
-631.536	325.333	-0.126	-0.241
-630.522	-180.466	0.095	0.002
-629.507	-128.035	0.007	0.001
-628.492	-104.015	0.201	0.047
-627.478	219.155	0.144	-0.231
-626.463	-32.886	-0.270	0.150
-625.449	345.831	0.127	-0.250
-624.434	-200.000	0.026	0.149
-623.419	444.803	-0.044	-0.096
-622.405	110.005	-0.132	0.158
-621.390	800.000	-0.103	-0.320
-620.376	353.881	0.060	-0.118
-619.361	-38.470	0.170	-0.090
-618.346	-197.051	-0.431	-0.003
-617.332	-129.423	-0.224	0.031
-616.317	-1.681	0.161	0.113
-615.303	-50.317	-0.313	-0.148
-614.288	-200.000	-0.015	0.307
-613.273	-81.197	0.151	0.050
-612.259	800.000	0.038	-0.145
-611.244	127.697	-0.124	0.158
-610.230	-52.584	0.054	0.025
-609.215	-57.365	-0.248	-0.109
-608.201	-154.142	-0.129	-0.009
-607.186	71.303	-0.261	0.271
-606.171	-200.000	-0.019	-0.270
-605.157	5.722	0.162	-0.119
-604.142	300.534	-0.045	-0.082
-603.128	-162.670	0.339	0.017
-602.113	-200.000	-0.015	0.080
-601.098	2.384	-0.380	0.275
-600.084	-168.181	0.284	0.011
-599.069	-96.036	0.104	-0.028
-598.055	800.000	0.122	0.454
-597.040	-200.000	0.057	-0.257
-596.025	195.874	0.067	0.102
-595.011	-106.770	0.236	0.052
-593.996	-158.786	-0.393	0.022
-592.982	-81.322	-0.171	-0.056
-591.967	-115.127	0.113	-0.021
-590.952	134.568	0.091	0.118
-589.938	-82.120	0.188	0.061
-588.923	-77.481	-0.097	0.034
-587.909	17.918	-0.151	-0.120
-586.894	-200.000	-0.067	-0.386
-585.879	-29.574	0.379	-0.216
-584.865	-89.666	-0.165	-0.048
-583.850	87.899	-0.072	-0.080
-582.836	318.211	-0.123	0.233
-581.821	-140.948	-0.508	-0.052
-580.806	83.971	-0.216	-0.235
-579.792	555.865	0.108	0.259
-578.777	-97.426	0.309	-0.080
-577.763	800.000	-0.056	-0.197
-576.748	-200.000	0.041	0.413
-575.733	-200.000	0.002	-0.348
-574.719	349.829	-0.078	-0.153
-573.704	-200.000	-0.043	-0.252
-572.690	-110.534	0.093	-0.019
-571.675	118.917	-0.036	0.044
-570.661	-83.548	-0.173	0.055
-569.646	-98.593	0.277	0.071
-568.631	-12.833	0.193	-0.125
-567.617	183.339	0.134	-0.198
-566.602	-200.000	0.024	-0.127
-565.588	-83.992	0.074	-0.023
-564.573	-200.000	-0.009	-0.329
-563.558	69.758	-0.297	-0.305
-562.544	94.010	0.094	0.107
-561.529	334.869	0.061	-0.118
-560.515	-144.568	0.308	-0.028
-559.500	-6.388	0.097	-0.066
-558.485	-200.000	-0.091	-0.436
-557.471	-23.277	-0.347	-0.208
-556.456	-100.988	0.210	0.052
-555.442	-200.000	0.008	0.117
-554.427	26.122	0.172	-0.143
-553.412	373.985	0.024	0.049
-552.398	-54.699	0.154	-0.069
-551.383	-172.646	0.221	-0.007
-550.369	-71.415	0.325	-0.121
-549.354	800.000	0.022	0.065
-548.339	-128.585	-0.230	0.033
-547.325	-124.912	-0.199	-0.031
-546.310	-117.957	-0.337	0.060
-545.296	-200.000	-0.042	0.283
-544.281	-200.000	-0.270	-0.001
-543.266	-200.000	0.038	-0.221
-542.252	-156.366	-0.162	0.010
-541.237	63.859	-0.230	-0.230
-540.223	16.815	0.108	-0.086
-539.208	-122.351	-0.332	0.054
-538.193	-22.674	-0.315	0.190
-537.179	800.000	0.034	-0.127
-536.164	74.501	-0.246	-0.257
-535.150	-48.159	0.185	-0.089
-534.135	8.870	-0.354	-0.266
-533.121	-15.292	0.404	-0.258
-532.106	775.261	-0.051	-0.138
-531.091	138.443	0.093	0.122
-530.077	19.099	0.135	-0.108
-529.062	-200.000	-0.041	0.274
-528.048	-39.281	0.400	0.209
-527.033	301.369	-0.037	-0.068
-526.018	-86.525	0.330	0.101
-525.004	666.278	-0.033	-0.084
-523.989	-75.190	-0.197	0.070
-522.975	26.360	-0.266	0.221
-521.960	41.237	0.273	-0.246
-520.945	-113.520	0.208	-0.041
-519.931	217.424	0.158	0.250
-518.916	-39.387	-0.274	-0.143
-517.902	800.000	-0.077	0.282
-516.887	566.835	-0.067	0.161
-515.872	180.102	-0.038	-0.055
-514.858	98.722	0.060	-0.069
-513.843	-29.867	0.077	-0.044
-512.829	-93.764	-0.293	0.081
-511.814	21.177	0.167	0.135
-510.799	800.000	0.041	0.166
-509.785	-81.447	0.187	-0.061
-508.770	435.175	-0.063	0.136
-507.756	-7.394	0.209	-0.141
-506.741	245.278	-0.088	0.147
-505.726	-24.690	0.134	-0.079
-504.712	105.207	-0.152	-0.178
-503.697	-200.000	-0.061	-0.302
-502.683	-200.000	-0.008	-0.087
-501.668	-200.000	0.513	0.002
-500.653	800.000	-0.061	0.210
-499.639	-80.746	-0.291	0.096
-498.624	-200.000	0.007	-0.312
-497.610	-200.000	-0.006	-0.056
-496.595	-80.215	0.289	0.096
-495.581	-73.694	-0.324	-0.117
-494.566	-188.886	0.163	0.002
-493.551	18.517	-0.298	0.237
-492.537	-87.653	-0.268	0.080
-491.522	800.000	-0.067	0.288
-490.508	-60.631	0.140	0.059
-489.493	-106.767	-0.241	0.053
-488.478	56.498	0.215	0.208
-487.464	-32.212	0.059	-0.033
-486.449	-198.452	-0.216	0.001
-485.435	-20.927	0.252	0.154
-484.420	-21.650	0.025	-0.015
-483.405	56.103	-0.240	-0.232
-482.391	-200.000	0.017	-0.307
-481.376	-174.076	-0.347	-0.010
-480.362	800.000	-0.110	-0.305
-479.347	-60.189	-0.197	0.084
-478.332	-200.000	-0.058	-0.362
-477.318	-2.365	-0.380	-0.265
-476.303	-146.430	0.095	-0.008
-475.289	-200.000	-0.004	0.443
-474.274	38.150	0.104	0.092
-473.259	-102.995	-0.148	-0.035
-472.245	44.160	0.165	0.151
-471.230	-200.000	0.009	0.242
-470.216	-71.955	-0.169	-0.062
-469.201	103.436	-0.089	0.104
-468.186	-36.422	0.430	0.230
-467.172	-200.000	-0.009	-0.046
-466.157	-114.811	0.135	0.026
-465.143	-90.232	0.165	-0.048
-464.128	-97.484	-0.321	0.083
-463.113	-151.752	-0.183	-0.013
-462.099	-45.274	0.110	0.054
-461.084	800.000	-0.087	0.285
-460.070	346.882	0.017	0.034
-459.055	-200.000	-0.034	-0.299
-458.040	-200.000	-0.016	-0.114
-457.026	18.688	0.359	-0.285
-456.011	-101.267	0.179	0.043
-454.997	137.782	-0.056	-0.073
-453.982	-1.834	0.174	-0.122
-452.968	136.552	-0.206	-0.267
-451.953	176.456	-0.060	0.087
-450.938	-148.401	0.164	-0.013
-449.924	-81.591	-0.243	0.079
-448.909	46.607	0.212	-0.195
-447.895	261.608	-0.093	0.160
-446.880	-200.000	0.029	-0.248
-445.865	-200.000	0.042	0.222
-444.851	469.805	-0.018	-0.041
-443.836	252.594	-0.068	0.116
-442.822	-107.636	0.116	0.025
-441.807	73.033	0.213	0.221
-440.792	800.000	-0.030	0.126
-439.778	-11.278	-0.198	-0.129
-438.763	131.934	0.050	-0.063
-437.749	-200.000	0.027	-0.137
-436.734	2.395	0.171	-0.123
-435.719	-38.530	0.238	-0.125
-434.705	760.973	0.093	-0.251
-433.690	-200.000	-0.012	-0.068
-432.676	-200.000	0.074	0.325
-431.661	202.326	-0.059	0.090
-430.646	138.364	0.055	-0.072
-429.632	9.723	-0.153	-0.115
-428.617	43.381	0.187	-0.169
-427.603	19.164	-0.180	0.143
-426.588	-59.235	0.215	0.092
-425.573	138.345	-0.157	0.204
-424.559	800.000	0.009	0.035
-423.544	415.521	-0.085	0.179
-422.530	437.589	0.032	0.070
-421.515	800.000	0.116	-0.325
-420.500	-200.000	0.015	0.081
-419.486	-98.305	0.155	0.040
-418.471	800.000	-0.046	0.159
-417.457	-68.973	0.074	-0.028
-416.442	-51.129	0.245	0.114
-415.428	140.787	-0.155	0.203
-414.413	800.000	0.132	-0.439
-413.398	164.082	0.168	0.234
-412.384	542.888	0.111	0.264
-411.369	-51.420	0.189	-0.088
-410.355	-14.222	-0.192	0.123
-409.340	-200.000	0.013	0.082
-408.325	800.000	0.093	0.322
-407.311	-120.315	0.181	-0.031
-406.296	-198.880	-0.597	0.003
-405.282	-67.488	-0.186	-0.072
-404.267	-200.000	0.009	0.325
-403.252	-122.860	-0.234	-0.037
-402.238	35.664	0.180	-0.157
-401.223	526.026	-0.123	-0.288
-400.209	-147.330	-0.094	-0.008
-399.194	152.793	0.081	-0.110
-398.179	351.617	-0.059	0.116
-397.165	-87.083	-0.197	0.060
-396.150	-104.077	0.293	0.068
-395.136	189.043	0.124	0.184
-394.121	800.000	-0.083	0.239
-393.106	170.692	-0.022	0.031
-392.092	-29.118	-0.098	0.056
-391.077	-200.000	-0.008	-0.162
-390.063	12.357	-0.155	0.118
-389.048	-111.831	0.579	0.116
-388.033	138.903	-0.054	-0.071
-387.019	76.184	-0.085	-0.089
-386.004	117.812	0.178	0.218
-384.990	800.000	0.032	-0.091
-383.975	239.050	-0.265	0.436
-382.960	211.141	-0.166	0.259
-381.946	800.000	0.007	-0.021
-380.931	-81.940	0.140	0.045
-379.917	-185.727	0.141	-0.002
-378.902	-200.000	-0.007	-0.091
-377.888	-86.954	0.055	0.016
-376.873	-145.800	0.128	-0.011
-375.858	-200.000	0.014	-0.165
-374.844	-38.327	-0.105	-0.055
-373.829	128.231	-0.087	0.109
-372.815	30.969	0.172	0.146
-371.800	-59.370	-0.025	0.011
-370.785	220.018	0.141	0.223
-369.771	-26.740	-0.299	0.173
-368.756	3.749	-0.111	-0.081
-367.742	800.000	-0.076	0.315
-366.727	-200.000	0.003	-0.050
-365.712	-200.000	-0.009	-0.201
-364.698	127.354	0.162	0.204
-363.683	376.749	0.026	-0.052
-362.669	121.621	-0.171	-0.210
-361.654	720.279	0.016	-0.042
-360.639	800.000	-0.064	-0.197
-359.625	100.242	-0.112	0.129
-358.610	146.003	0.133	-0.177
-357.596	-22.175	-0.128	0.077
-356.581	745.733	0.023	0.062
-355.566	112.454	0.099	0.119
-354.552	406.274	-0.128	0.267
-353.537	-74.840	-0.253	-0.090
-352.523	-8.324	-0.486	0.323
-351.508	-4.146	0.138	0.095
-350.493	-200.000	0.019	-0.088
-349.479	-114.358	-0.319	0.061
-348.464	86.232	0.067	-0.073
-347.450	75.348	0.118	0.123
-346.435	13.805	-0.285	0.219
-345.420	-41.258	0.317	-0.162
-344.406	-200.000	0.009	-0.211
-343.391	243.083	-0.253	0.419
-342.377	-68.091	0.132	-0.051
-341.362	-113.771	0.430	0.083
-340.348	143.748	-0.146	-0.193
-339.333	-200.000	-0.070	0.321
-338.318	478.432	0.187	0.418
-337.304	53.097	0.154	0.146
-336.289	-2.758	0.210	0.145
-335.275	800.000	-0.113	-0.325
-334.260	63.095	0.070	-0.069
-333.245	178.282	-0.116	0.168
-332.231	0.295	0.200	-0.141
-331.216	-12.728	0.328	-0.211
-330.202	-200.000	-0.017	-0.136
-329.187	-200.000	-0.058	-0.297
-328.172	-14.968	0.216	0.137
-327.158	-200.000	0.002	0.233
-326.143	128.464	-0.115	-0.145
-325.129	199.017	0.248	-0.375
-324.114	800.000	0.044	-0.119
-323.099	-94.386	0.507	0.137
-322.085	433.936	-0.035	-0.074
-321.070	59.723	0.289	-0.282
-320.056	23.602	-0.177	0.144
-319.041	106.580	0.136	-0.160
-318.026	-149.310	-0.062	-0.005
-317.012	-13.720	0.351	-0.224
-315.997	3.885	0.107	-0.077
-314.983	-54.259	-0.186	-0.083
-313.968	451.956	-0.068	-0.148
-312.953	-70.401	-0.089	0.033
-311.939	260.794	0.076	-0.130
-310.924	-200.000	0.007	0.184
-309.910	250.443	-0.058	-0.098
-308.895	-92.188	-0.038	0.011
-307.880	-3.737	0.278	0.191
-306.866	-129.376	0.337	0.046
-305.851	11.721	0.137	-0.104
-304.837	-107.111	-0.208	-0.045
-303.822	-112.239	-0.273	-0.054
-302.807	-200.000	0.018	0.134
-301.793	-179.089	-0.159	-0.004
-300.778	800.000	0.014	-0.053
-299.764	-200.000	-0.008	0.274
-298.749	332.718	0.031	0.060
-297.735	131.112	-0.114	0.145
-296.720	-23.296	0.262	-0.156
-295.705	10.855	0.089	0.067
-294.691	-70.489	-0.243	-0.091
-293.676	209.264	0.126	0.195
-292.662	-134.022	-0.143	0.018
-291.647	800.000	-0.101	-0.293
-290.632	792.575	0.070	-0.190
-289.618	158.891	-0.148	0.204
-288.603	-88.427	0.287	-0.084
-287.589	800.000	0.019	-0.076
-286.574	800.000	0.031	0.097
-285.559	-16.977	-0.065	0.040
-284.545	-200.000	-0.002	-0.085
-283.530	149.945	0.188	0.251
-282.516	800.000	-0.137	0.457
-281.501	148.438	0.110	-0.147
-280.486	-200.000	-0.036	-0.175
-279.472	-55.806	0.233	0.103
-278.457	800.000	-0.059	0.218
-277.443	323.225	-0.137	0.257
-276.428	800.000	-0.011	0.037
-275.413	49.344	0.142	0.132
-274.399	20.891	-0.118	0.094
-273.384	-115.292	-0.444	0.083
-272.370	-119.433	-0.394	-0.067
-271.355	-139.014	-0.254	0.027
-270.340	-119.945	0.243	0.041
-269.326	-200.000	0.001	-0.235
-268.311	23.633	-0.232	-0.188
-267.297	-200.000	0.002	0.439
-266.282	-200.000	0.004	0.134
-265.267	44.620	-0.219	0.198
-264.253	-137.758	-0.309	-0.034
-263.238	-17.281	0.197	0.123
-262.224	70.821	0.070	-0.072
-261.209	-7.598	-0.246	-0.164
-260.195	800.000	0.098	0.365
-259.180	800.000	0.089	0.318
-258.165	-13.878	0.218	0.139
-257.151	-200.000	-0.004	-0.300
-256.136	166.657	-0.100	-0.139
-255.122	-200.000	-0.033	0.144
-254.107	28.913	-0.138	0.115
-253.092	-200.000	0.049	0.276
-252.078	-15.692	-0.263	0.166
-251.063	-75.275	-0.190	0.067
-250.049	-41.882	-0.217	-0.110
-249.034	5.619	0.044	0.032
-248.019	800.000	0.027	0.083
-247.005	-34.490	0.209	-0.113
-245.990	409.163	0.148	0.310
-244.976	-174.877	-0.414	0.011
-243.961	-95.565	-0.152	-0.040
-242.946	-4.691	0.324	-0.220
-241.932	-85.538	0.223	0.068
-240.917	-36.095	0.231	0.123
-239.903	428.241	0.006	-0.012
-238.888	-200.000	0.007	0.160
-237.873	-200.000	0.055	0.335
-236.859	-108.022	0.093	0.020
-235.844	103.026	0.078	0.090
-234.830	344.188	0.121	-0.235
-233.815	-59.196	-0.078	0.033
-232.800	-200.000	0.016	-0.184
-231.786	-116.560	0.166	0.030
-230.771	17.913	0.374	-0.294
-229.757	418.265	-0.038	0.081
-228.742	56.375	-0.200	0.191
-227.727	-55.577	-0.044	0.019
-226.713	800.000	-0.094	-0.304
-225.698	-71.391	-0.192	0.071
-224.684	-30.278	-0.176	0.099
-223.669	-59.200	0.217	0.092
-222.655	800.000	0.126	-0.389
-221.640	797.644	0.106	-0.287
-220.625	-75.823	-0.148	-0.051
-219.611	356.761	-0.097	0.190
-218.596	-200.000	0.022	-0.125
-217.582	100.396	-0.224	0.256
-216.567	15.100	-0.257	0.198
-215.552	-200.000	-0.021	-0.127
-214.538	468.603	-0.105	-0.232
-213.523	200.458	-0.087	-0.132
-212.509	149.193	-0.209	0.278
-211.494	144.385	0.142	0.187
-210.479	800.000	-0.075	0.225
-209.465	800.000	0.022	0.072
-208.450	-129.695	0.225	0.030
-207.436	-200.000	0.008	0.040
-206.421	-200.000	-0.014	-0.068
-205.406	-104.877	-0.137	0.031
-204.392	602.467	-0.119	0.290
-203.377	25.412	0.166	-0.136
-202.363	-72.340	0.373	0.136
-201.348	17.752	-0.191	-0.149
-200.333	394.651	0.013	-0.026
-199.319	-151.325	-0.150	-0.011
-198.304	-200.000	0.012	0.060
-197.290	-200.000	0.031	0.430
-196.275	68.341	0.240	-0.242
-195.260	47.180	-0.118	0.108
-194.246	556.675	-0.123	0.291
-193.231	-43.765	0.269	-0.133
-192.217	-200.000	-0.008	-0.069
-191.202	-200.000	0.084	-0.469
-190.187	-200.000	0.009	-0.085
-189.173	-200.000	0.052	0.379
-188.158	120.391	-0.062	-0.076
-187.144	-123.951	-0.291	0.045
-186.129	-110.078	-0.196	-0.040
-185.114	353.973	0.051	0.100
-184.100	-7.048	-0.155	0.103
-183.085	38.254	0.151	-0.132
-182.071	-200.000	0.009	-0.234
-181.056	-9.321	0.376	-0.247
-180.042	185.130	0.095	-0.139
-179.027	112.668	-0.100	-0.119
-178.012	-200.000	0.035	-0.283
-176.998	81.328	-0.225	0.239
-175.983	-152.007	0.166	0.012
-174.969	-50.877	-0.250	-0.116
-173.954	-200.000	-0.011	-0.115
-172.939	-120.367	0.326	-0.055
-171.925	25.011	0.387	0.316
-170.910	800.000	-0.080	0.223
-169.896	68.689	0.154	-0.156
-168.881	-67.538	-0.027	0.010
-167.866	223.190	0.072	-0.115
-166.852	-180.642	0.220	0.004
-165.837	531.589	-0.098	0.228
-164.823	-200.000	0.034	-0.178
-163.808	-108.801	0.233	0.049
-162.793	-36.730	-0.107	0.057
-161.779	-19.482	-0.200	-0.121
-160.764	62.172	-0.197	-0.193
-159.750	-66.717	-0.257	-0.100
-158.735	-165.317	0.110	-0.005
-157.720	26.895	-0.229	-0.189
-156.706	9.419	0.246	-0.183
-155.691	404.852	-0.048	0.100
-154.677	-200.000	-0.036	-0.184
-153.662	10.615	0.097	-0.073
-152.647	800.000	0.074	-0.276
-151.633	-84.489	-0.074	0.023
-150.618	-86.630	0.330	-0.099
-149.604	-171.634	-0.466	-0.015
-148.589	-110.960	-0.145	0.029
-147.574	-200.000	0.038	0.172
-146.560	55.410	0.178	-0.169
-145.545	-59.206	0.193	-0.082
-144.531	461.818	0.094	0.205
-143.516	652.754	0.056	0.142
-142.502	173.765	0.093	0.131
-141.487	489.108	-0.062	-0.139
-140.472	37.809	0.153	0.134
-139.458	-200.000	0.001	0.084
-138.443	-102.497	-0.111	-0.026
-137.429	125.626	0.127	-0.157
-136.414	-174.682	0.059	-0.002
-135.399	-167.493	-0.306	-0.012
-134.385	108.867	-0.046	0.054
-133.370	-200.000	0.009	0.082
-132.356	66.368	-0.089	0.088
-131.341	309.880	0.105	-0.193
-130.326	-19.138	-0.123	-0.075
-129.312	-39.899	0.241	0.123
-128.297	-80.512	-0.169	-0.055
-127.283	391.234	0.072	0.148
-126.268	-132.294	-0.055	0.007
-125.253	310.599	0.161	0.296
-124.239	173.356	-0.151	0.213
-123.224	-200.000	-0.011	0.204
-122.210	-200.000	0.033	-0.145
-121.195	104.456	-0.331	0.382
-120.180	-200.000	-0.018	-0.217
-119.166	-34.176	-0.228	-0.123
-118.151	-118.134	-0.148	0.026
-117.137	-41.147	0.322	0.163
-116.122	57.692	0.155	-0.148
-115.107	-103.998	-0.123	-0.028
-114.093	-38.850	-0.155	0.080
-113.078	-104.504	-0.209	0.047
-112.064	318.199	0.100	-0.186
-111.049	-147.155	-0.156	-0.013
-110.034	800.000	0.110	0.382
-109.020	-135.299	-0.299	-0.035
-108.005	800.000	-0.032	0.094
-106.991	6.866	-0.073	0.053
-105.976	539.604	-0.237	0.552
-104.962	-103.822	-0.356	-0.082
-103.947	124.369	-0.086	-0.106
-102.932	-131.865	-0.037	0.005
-101.918	656.245	-0.105	0.265
-100.903	-81.645	-0.015	-0.005
-99.889	173.107	0.155	-0.219
-98.874	323.962	-0.041	-0.077
-97.859	102.138	-0.149	0.171
-96.845	-66.552	0.135	0.052
-95.830	140.785	0.090	-0.116
-94.816	-70.599	0.179	-0.066
-93.801	-111.529	0.394	0.079
-92.786	246.636	-0.037	-0.061
-91.772	371.882	-0.047	-0.093
-90.757	-200.000	0.084	-0.459
-89.743	-29.406	-0.318	-0.178
-88.728	800.000	0.031	-0.098
-87.713	-86.187	0.502	0.152
-86.699	-126.515	-0.331	-0.048
-85.684	192.568	0.101	-0.150
-84.670	17.148	0.246	0.191
-83.655	-125.495	0.221	-0.033
-82.640	419.250	-0.042	0.087
-81.626	48.117	-0.169	0.154
-80.611	693.307	-0.082	-0.211
-79.597	-46.938	-0.096	0.046
-78.582	58.346	-0.389	0.374
-77.567	78.878	0.127	-0.133
-76.553	800.000	0.111	0.338
-75.538	322.347	0.037	-0.070
-74.524	-200.000	0.014	-0.240
-73.509	-200.000	-0.005	0.205
-72.494	-37.333	0.350	-0.183
-71.480	-200.000	-0.070	-0.311
-70.465	-200.000	0.110	-0.492
-69.451	-86.173	0.111	-0.034
-68.436	-200.000	0.026	0.116
-67.422	13.079	-0.096	0.073
-66.407	-100.069	0.164	0.040
-65.392	683.489	-0.118	-0.301
-64.378	-131.407	0.255	-0.033
-63.363	363.670	-0.132	-0.260
-62.349	76.542	0.086	-0.089
-61.334	74.269	-1.017	-1.046
-60.319	6.707	0.813	0.592
-59.305	800.000	-0.474	-1.336
-58.290	91.536	0.795	0.874
-57.276	284.554	0.655	1.153
-56.261	-200.000	117.038	654.157
-55.246	506.789	1543.399	3501.064
-54.232	175.407	2711.159	3843.515
-53.217	106.165	2150.138	2490.701
-52.203	38.147	1584.639	1379.208
-51.188	29.833	1328.522	1106.762
-50.173	27.002	1290.077	1058.214
-49.159	53.392	1348.445	1264.156
-48.144	51.626	1361.883	1266.198
-47.130	30.075	1315.474	1097.152
-46.115	26.689	1298.339	1062.990
-45.100	26.546	1292.928	1057.681
-44.086	26.360	1290.317	1054.416
-43.071	26.343	1288.051	1052.426
-42.057	26.330	1286.380	1050.946
-41.042	26.395	1284.524	1049.761
-40.027	26.324	1283.008	1048.070
-39.013	26.392	1280.880	1046.684
-37.998	26.433	1279.009	1045.350
-36.984	26.543	1277.130	1044.410
-35.969	26.541	1275.552	1043.062
-34.954	26.630	1273.658	1041.987
-33.940	26.518	1272.942	1040.713
-32.925	26.422	1271.382	1038.846
-31.911	26.470	1270.076	1038.013
-30.896	26.725	1268.435	1038.092
-29.881	26.667	1266.843	1036.418
-28.867	26.610	1265.730	1035.137
-27.852	26.676	1263.972	1034.035
-26.838	26.648	1262.726	1032.818
-25.823	26.512	1261.549	1031.041
-24.809	26.500	1260.249	1029.869
-23.794	26.488	1258.858	1028.621
-22.779	26.519	1257.808	1027.902
-21.765	26.651	1256.335	1027.402
-20.750	26.626	1255.028	1026.149
-19.736	26.506	1254.094	1024.667
-18.721	26.547	1253.055	1024.009
-17.706	26.431	1251.598	1022.122
-16.692	26.472	1250.626	1021.520
-15.677	26.602	1249.208	1021.053
-14.663	26.603	1247.975	1020.015
-13.648	26.507	1247.004	1018.639
-12.633	26.408	1246.187	1017.372
-11.619	26.451	1245.487	1017.005
-10.604	26.609	1244.462	1017.016
-9.590	26.394	1243.825	1015.247
-8.575	26.408	1242.655	1014.331
-7.560	26.512	1241.546	1013.965
-6.546	26.373	1241.199	1012.865
-5.531	26.366	1240.165	1011.941
-4.517	26.448	1239.591	1011.891
-3.502	26.501	1238.305	1011.095
-2.487	26.504	1237.323	1010.271
-1.473	26.450	1233.020	1006.420
-0.458	24.840	1218.237	985.454
0.556	23.019	1201.764	948.366
1.571	19.157	1207.675	932.085
2.586	18.423	1222.021	939.051
3.600	18.109	1211.168	928.926
4.615	14.158	1140.903	854.693
5.629	7.227	1070.466	768.341
6.644	4.339	1052.636	741.688
7.659	4.092	1050.539	738.967
8.673	3.832	1049.357	736.829
9.688	3.929	1047.968	736.251
10.702	4.430	1045.921	737.128
11.717	8.696	1052.002	761.683
12.731	16.447	1062.914	806.644
13.746	21.445	1068.480	834.711
14.761	22.332	1070.133	840.164
15.775	21.571	1068.138	834.896
16.790	20.759	1066.032	829.313
17.804	20.129	1064.713	825.214
18.819	19.884	1063.658	823.156
19.834	19.914	1063.522	823.122
20.848	19.828	1063.148	822.349
21.863	19.641	1061.838	820.376
22.877	19.547	1061.103	819.289
23.892	19.577	1059.992	818.504
24.907	19.428	1059.859	817.622
25.921	19.422	1058.430	816.416
26.936	19.386	1057.098	815.150
27.950	19.308	1055.898	813.784
28.965	19.400	1054.893	813.370
29.980	19.689	1053.245	813.388
30.994	19.814	1052.429	813.272
32.009	19.747	1051.806	812.403
33.023	19.717	1050.250	810.989
34.038	19.633	1049.105	809.640
35.053	19.599	1048.203	808.713
36.067	19.453	1047.700	807.572
37.082	19.525	1046.980	807.283
38.096	19.690	1046.513	807.621
39.111	19.707	1045.682	806.989
40.126	19.537	1044.139	804.932
41.140	19.068	1042.762	801.614
42.155	19.095	1040.931	800.262
43.169	19.011	1039.943	799.041
44.184	18.964	1039.021	798.046
45.199	19.103	1038.152	797.954
46.213	19.196	1037.670	797.944
47.228	19.509	1036.855	798.694
48.242	19.653	1036.063	798.676
49.257	19.431	1035.429	797.091
50.271	19.639	1034.089	796.952
51.286	19.555	1033.718	796.207
52.301	19.526	1032.772	795.273
53.315	19.470	1031.315	793.822
54.330	19.312	1030.333	792.272
55.344	19.052	1029.988	790.741
56.359	19.251	1029.019	790.840
57.374	19.191	1027.949	789.676
58.388	19.056	1026.526	787.892
59.403	18.992	1025.826	786.995
60.417	18.983	1025.151	786.366
61.432	18.999	1024.377	785.776
62.447	19.018	1022.883	784.647
63.461	18.803	1023.004	783.690
64.476	18.667	1022.296	782.456
65.490	18.706	1021.152	781.688
66.505	18.861	1020.318	781.686
67.520	18.840	1020.167	781.405
68.534	18.869	1018.802	780.425
69.549	18.792	1018.257	779.587
70.563	18.754	1017.245	778.571
71.578	18.537	1016.387	776.860
72.593	18.398	1015.814	775.726
73.607	18.380	1015.100	775.033
74.622	18.467	1014.664	775.024
75.636	18.589	1014.075	775.055
76.651	18.541	1013.250	774.141
77.666	18.545	1012.676	773.651
78.680	18.800	1011.390	773.750
79.695	18.878	1011.185	773.876
80.709	19.054	1010.740	774.257
81.724	19.036	1009.974	773.520
82.739	19.122	1009.569	773.531
83.753	19.445	1009.145	774.585
84.768	19.825	1008.520	775.743
85.782	19.960	1007.766	775.698
86.797	20.017	1006.346	774.794
87.812	19.654	1006.085	772.898
88.826	19.705	1004.799	772.069
89.841	19.844	1003.924	771.950
90.855	19.914	1003.482	771.857
91.870	20.046	1002.133	771.337
92.884	19.916	1001.093	769.888
93.899	19.892	1000.477	769.241
94.914	19.924	999.990	768.938
95.928	19.828	999.023	767.703
96.943	19.676	997.763	765.992
97.957	19.552	997.058	764.833
98.972	19.752	995.789	764.679
99.987	19.766	995.363	764.347
101.001	19.815	993.938	763.400
102.016	19.729	993.490	762.609
103.030	19.809	992.998	762.518
104.045	19.713	992.186	761.405
105.060	19.619	990.669	759.757
106.074	19.215	989.763	757.221
107.089	19.050	988.381	755.369
108.103	18.832	987.790	753.898
109.118	18.894	986.625	753.211
110.133	18.873	985.248	752.003
111.147	18.923	984.391	751.502
112.162	18.931	984.200	751.324
113.176	19.127	983.512	751.588
114.191	19.184	982.811	751.233
115.206	19.026	982.345	750.123
116.220	18.950	981.220	748.867
117.235	19.029	980.271	748.417
118.249	18.882	979.707	747.282
119.264	18.856	978.531	746.206
120.279	18.915	977.507	745.616
121.293	18.734	977.029	744.401
122.308	18.586	976.242	743.094
123.322	18.530	974.988	741.832
124.337	18.590	974.029	741.296
125.352	18.654	972.557	740.385
126.366	18.638	971.767	739.651
127.381	18.466	971.119	738.350
128.395	18.681	970.459	738.707
129.410	18.785	969.443	738.316
130.424	18.901	968.738	738.214
131.439	19.090	967.481	737.999
132.454	18.942	967.281	737.147
133.468	19.007	966.571	736.821
134.483	19.063	965.714	736.341
135.497	19.034	964.967	735.583
136.512	19.158	964.005	735.315
137.527	19.051	963.423	734.349
138.541	19.041	963.300	734.147
139.556	19.158	962.142	733.699
140.570	19.301	961.943	734.089
141.585	19.589	961.125	734.626
142.600	19.751	959.938	734.342
143.614	19.778	959.363	733.952
144.629	19.876	958.930	733.972
145.643	19.789	957.848	732.708
146.658	19.434	956.474	730.091
147.673	19.395	954.908	728.665
148.687	19.214	954.831	727.782
149.702	19.125	953.399	726.250
150.716	19.085	953.037	725.742
151.731	19.120	952.334	725.287
152.746	19.228	951.701	725.194
153.760	19.371	950.593	724.890
154.775	19.430	950.161	724.744
155.789	19.407	949.542	724.112
156.804	19.479	948.682	723.690
157.819	19.552	948.143	723.523
158.833	19.793	947.764	724.178
159.848	19.847	947.160	723.879
160.862	19.866	945.434	722.575
161.877	19.361	944.068	719.362
162.892	19.201	943.308	718.053
163.906	19.245	942.110	717.258
164.921	19.179	941.631	716.558
165.935	19.350	940.617	716.432
166.950	19.284	940.360	715.899
167.964	19.311	939.078	714.973
168.979	19.203	938.106	713.720
169.994	19.188	936.623	712.467
171.008	19.307	936.617	712.892
172.023	19.577	936.166	713.601
173.037	19.780	935.367	713.766
174.052	19.610	934.059	712.006
175.067	19.188	933.624	709.872
176.081	18.986	933.177	708.639
177.096	19.029	932.854	708.508
178.110	19.160	931.548	707.990
179.125	19.174	931.559	707.992
180.140	19.215	931.056	707.717
181.154	19.522	930.806	708.725
182.169	19.694	930.607	709.218
183.183	19.702	929.801	708.573
184.198	19.748	928.872	707.990
185.213	19.622	928.437	707.078
186.227	19.740	927.922	707.110
187.242	19.859	927.568	707.262
188.256	20.067	927.015	707.629
189.271	19.996	925.693	706.266
190.286	19.615	924.836	703.998
191.300	19.178	923.568	701.191
192.315	18.874	922.970	699.439
193.329	19.048	922.448	699.690
194.344	19.381	921.857	700.530
195.359	19.348	921.638	700.169
196.373	19.542	920.789	700.251
197.388	19.721	920.816	700.933
198.402	19.989	921.000	702.097
199.417	20.050	920.085	701.586
200.432	20.166	919.401	701.471
201.446	20.323	919.336	701.996
202.461	20.369	918.617	701.567
203.475	20.192	918.020	700.337
204.490	19.862	916.917	698.102
205.504	19.804	916.190	697.251
206.519	19.619	915.501	695.920
207.534	19.662	914.712	695.432
208.548	19.774	914.102	695.359
209.563	19.783	913.204	694.648
210.577	19.948	912.775	694.923
211.592	20.154	911.967	695.074
212.607	20.318	911.237	695.113
213.621	19.976	911.141	693.607
214.636	20.114	909.876	693.136
215.650	20.079	909.188	692.412
216.665	20.186	908.977	692.615
217.680	20.261	908.232	692.285
218.694	20.266	907.790	691.907
219.709	20.171	907.031	690.891
220.723	20.109	906.422	690.116
221.738	20.058	905.863	689.430
222.753	20.219	904.724	689.140
223.767	20.244	904.451	688.972
224.782	20.391	904.153	689.265
225.796	20.507	903.240	688.968
226.811	20.190	903.056	687.511
227.826	20.097	902.049	686.315
228.840	20.007	900.943	685.055
229.855	20.010	900.598	684.745
230.869	19.999	899.774	684.016
231.884	19.947	898.956	683.128
232.899	19.970	898.010	682.440
233.913	19.751	897.246	680.938
234.928	19.643	896.547	679.922
235.942	19.659	896.142	679.614
236.957	19.566	895.608	678.786
237.972	19.716	894.865	678.750
238.986	19.707	894.455	678.346
240.001	19.745	893.950	678.053
241.015	19.892	893.246	678.031
242.030	19.919	892.958	677.858
243.045	20.061	892.202	677.782
244.059	19.955	892.029	677.175
245.074	20.129	891.211	677.175
246.088	20.184	890.786	677.008
247.103	20.322	889.787	676.724
248.117	20.614	890.030	677.988
249.132	20.872	890.065	678.961
250.147	21.104	889.083	679.053
251.161	21.302	888.180	679.076
252.176	21.139	888.172	678.376
253.190	21.420	886.864	678.405
254.205	21.251	886.853	677.680
255.220	21.149	885.979	676.561
256.234	20.998	885.376	675.454
257.249	20.990	884.938	675.030
258.263	21.015	883.841	674.229
259.278	21.110	883.402	674.200
260.293	21.040	882.961	673.534
261.307	21.352	882.160	674.067
262.322	21.294	882.071	673.715
263.336	21.311	880.950	672.868
264.351	21.244	880.168	671.952
265.366	21.231	880.065	671.763
266.380	21.173	879.180	670.805
267.395	21.177	878.000	669.863
268.409	21.006	877.677	668.900
269.424	21.048	876.625	668.200
270.439	21.077	876.077	667.835
271.453	20.970	874.740	666.346
272.468	20.792	874.851	665.692
273.482	20.806	874.582	665.483
274.497	20.739	873.751	664.536
275.512	20.888	873.429	664.801
276.526	20.890	872.795	664.266
277.541	21.042	872.195	664.331
278.555	21.044	872.159	664.251
279.570	21.472	870.942	664.893
280.585	21.420	870.059	663.963
281.599	21.210	869.190	662.445
282.614	21.127	868.516	661.557
283.628	20.851	868.073	660.116
284.643	20.917	867.944	660.210
285.657	20.939	866.895	659.434
286.672	21.097	866.294	659.518
287.687	21.023	865.737	658.756
288.701	21.098	865.199	658.571
289.716	21.141	864.411	658.074
290.730	21.150	864.270	657.944
291.745	21.264	863.651	657.844
292.760	21.346	863.255	657.793
293.774	21.443	862.595	657.595
294.789	21.352	861.908	656.672
295.803	21.195	860.727	655.126
296.818	21.020	860.448	654.199
297.833	21.008	859.972	653.733
298.847	21.237	859.073	653.850
299.862	21.091	858.827	653.058
300.876	21.436	858.297	653.887
301.891	21.472	858.120	653.829
302.906	21.661	857.306	653.858
303.920	21.680	857.274	653.844
304.935	21.864	856.854	654.154
305.949	21.685	855.513	652.404
306.964	21.559	855.028	651.507
307.979	21.634	854.304	651.179
308.993	21.420	854.324	650.340
310.008	21.609	853.585	650.423
311.022	21.708	852.376	649.809
312.037	21.209	852.288	647.835
313.052	21.132	851.473	646.872
314.066	21.083	850.496	645.891
315.081	21.006	850.151	645.290
316.095	21.102	849.348	644.976
317.110	21.226	848.447	644.693
318.125	21.257	848.118	644.501
319.139	20.973	847.976	643.289
320.154	21.062	847.812	643.436
321.168	21.269	846.960	643.492
322.183	21.232	846.265	642.772
323.197	21.269	846.099	642.727
324.212	21.175	845.542	641.900
325.227	21.234	844.962	641.621
326.241	21.187	844.087	640.727
327.256	21.223	843.516	640.369
328.270	21.053	842.902	639.221
329.285	21.066	842.297	638.754
330.300	21.085	841.861	638.437
331.314	21.248	841.414	638.636
332.329	21.353	841.354	638.920
333.343	21.335	841.095	638.600
334.358	21.497	840.620	638.776
335.373	21.468	840.266	638.343
336.387	21.689	840.001	638.890
337.402	21.716	840.033	638.960
338.416	21.783	839.601	638.816
339.431	21.969	839.118	639.070
340.446	22.240	838.338	639.404
341.460	22.196	838.458	639.282
342.475	22.303	837.675	639.014
343.489	22.169	837.825	638.585
344.504	22.197	837.448	638.345
345.519	22.463	836.847	638.794
346.533	22.400	835.967	637.836
347.548	21.989	835.108	635.638
348.562	21.688	834.760	634.226
349.577	21.724	833.803	633.574
350.592	21.623	833.288	632.761
351.606	21.519	832.811	631.970
352.621	21.646	831.727	631.549
353.635	21.628	831.322	631.119
354.650	21.685	830.842	630.906
355.665	21.735	830.304	630.621
356.679	22.068	829.494	631.148
357.694	21.869	828.992	629.994
358.708	21.894	828.373	629.558
359.723	21.842	827.719	628.818
360.738	21.934	827.309	628.781
361.752	22.020	826.649	628.530
362.767	22.264	826.002	628.857
363.781	22.435	825.970	629.386
364.796	22.445	825.643	629.119
365.810	22.697	825.197	629.623
366.825	22.687	824.710	629.160
367.840	22.545	824.181	628.192
368.854	22.233	823.811	626.746
369.869	22.162	823.387	626.113
370.883	22.168	822.911	625.716
371.898	22.595	822.210	626.648
372.913	22.591	822.401	626.722
373.927	22.444	821.184	625.220
374.942	22.423	821.351	625.216
375.956	22.636	820.789	625.490
376.971	22.779	820.293	625.564
377.986	22.847	819.819	625.387
379.000	22.782	819.463	624.829
380.015	22.642	818.870	623.825
381.029	22.764	818.021	623.557
382.044	22.790	817.447	623.156
383.059	22.889	816.674	622.858
384.073	22.481	816.622	621.326
385.088	22.377	815.502	620.053
386.102	22.269	815.020	619.249
387.117	22.305	814.108	618.630
388.132	22.334	813.538	618.242
389.146	22.341	813.582	618.246
390.161	22.520	813.322	618.624
391.175	22.557	812.809	618.309
392.190	22.484	812.061	617.428
393.205	22.339	811.710	616.599
394.219	22.412	810.929	616.207
395.234	22.103	810.650	614.860
396.248	22.043	810.122	614.195
397.263	21.977	809.587	613.505
398.278	21.844	809.290	612.760
399.292	22.013	808.486	612.687
400.307	22.098	807.812	612.419
401.321	22.014	807.746	612.021
402.336	22.318	807.400	612.763
403.350	22.483	806.770	612.806
404.365	22.607	806.435	612.927
405.380	22.876	805.917	613.415
406.394	22.892	805.987	613.469
407.409	22.918	805.609	613.218
408.423	22.953	805.521	613.217
409.438	23.144	804.927	613.373
410.453	23.107	804.388	612.778
411.467	23.142	804.299	612.779
412.482	23.317	803.532	612.744
413.496	23.327	803.609	612.786
414.511	23.213	803.212	612.034
415.526	22.973	802.387	610.521
416.540	23.117	801.786	610.506
417.555	23.271	800.958	610.353
418.569	23.187	800.785	609.877
419.584	23.088	800.755	609.459
420.599	23.140	800.106	609.092
421.613	165.761	1370.967	1798.333
422.628	144.073	1454.162	1798.431
