DTS Sentinel unit serial number:	SN413079Multiplexer serial number:	ORYXHardware model number:	OX4-SRSoftware version number:	ORYX F/W v4.00 Oryx Data Collector v3.7.2.0data status	okinstallation	princeton_trtdifferential loss correction	single-endedforward channel	channel 1reverse channel	N/Adate	2019/09/11time	08:20:11forward acquisition time	60.00reverse acquisition time	0.00gamma	496.2192k internal	0.2319k external	0.2319temperature offset calibration	0.9947default loss term (dB/km)	0.3790temperature slope calibration	1.0000multiplexer offset coefficient	1.0000multiplexer slope coefficient	1.0000fibre end	0.00T internal ref (°C)	32.72T ext. ref 1 (°C)	0.06T ext. ref 2 (°C)	30.00length (m)	temperature (°C)	Stokes	anti-Stokes-747.200	9.783	-0.175	-0.134
-746.185	-200.000	-0.020	0.357
-745.171	467.474	0.088	0.199
-744.156	-200.000	0.015	0.167
-743.142	27.908	0.256	-0.218
-742.127	115.582	0.149	0.184
-741.112	-122.226	0.320	0.053
-740.098	800.000	0.076	0.304
-739.083	800.000	0.031	0.121
-738.069	108.900	0.282	0.341
-737.054	61.956	-0.080	-0.080
-736.039	-97.999	0.299	0.078
-735.025	-187.979	-0.478	-0.006
-734.010	43.047	-0.371	-0.343
-732.996	-59.673	0.052	0.022
-731.981	308.576	-0.079	0.149
-730.966	-31.470	0.174	-0.099
-729.952	87.948	-0.144	-0.162
-728.937	-108.746	-0.091	0.020
-727.923	799.693	0.145	0.405
-726.908	-152.251	0.286	0.021
-725.894	-90.953	-0.179	-0.052
-724.879	689.539	0.169	-0.446
-723.864	65.900	0.055	-0.057
-722.850	-34.206	-0.344	-0.191
-721.835	800.000	-0.078	-0.226
-720.821	53.956	0.168	0.163
-719.806	224.121	-0.184	-0.301
-718.791	-200.000	-0.043	-0.226
-717.777	85.536	-0.248	-0.275
-716.762	-111.655	0.270	0.055
-715.748	92.392	-0.089	0.102
-714.733	-68.992	-0.273	0.106
-713.718	-168.493	-0.077	0.003
-712.704	-38.444	0.155	-0.083
-711.689	-99.823	-0.157	-0.040
-710.675	37.105	-0.092	-0.083
-709.660	-107.572	-0.105	-0.023
-708.645	-131.953	-0.155	0.020
-707.631	104.369	0.136	0.162
-706.616	711.242	0.089	0.238
-705.602	-136.983	0.149	-0.017
-704.587	-200.000	-0.034	0.238
-703.572	-40.135	-0.238	-0.125
-702.558	449.660	-0.090	0.200
-701.543	40.374	0.146	-0.133
-700.529	-111.239	0.354	0.073
-699.514	-102.186	-0.261	-0.063
-698.499	16.719	-0.230	0.184
-697.485	-176.700	-0.230	0.006
-696.470	-129.049	0.179	-0.025
-695.456	800.000	-0.090	0.303
-694.441	-89.200	0.186	-0.056
-693.426	91.474	0.207	0.235
-692.412	-18.518	-0.179	-0.113
-691.397	-8.433	0.155	-0.105
-690.383	-30.776	-0.164	0.094
-689.368	396.277	0.085	0.179
-688.354	-7.872	0.154	0.105
-687.339	-71.744	-0.082	-0.031
-686.324	515.728	-0.037	0.086
-685.310	675.585	-0.076	0.200
-684.295	-200.000	-0.007	0.122
-683.281	-200.000	0.044	0.232
-682.266	-127.866	-0.353	0.051
-681.251	-38.968	0.126	0.067
-680.237	64.008	-0.223	-0.227
-679.222	-89.855	-0.079	-0.023
-678.208	119.353	-0.100	0.125
-677.193	114.599	0.270	-0.333
-676.178	80.277	-0.058	-0.062
-675.164	-161.429	0.219	0.011
-674.149	-200.000	0.001	-0.046
-673.135	-180.021	0.138	0.003
-672.120	79.764	-0.456	-0.494
-671.105	-112.721	0.142	-0.028
-670.091	-111.509	-0.089	-0.018
-669.076	194.549	0.175	0.267
-668.062	-113.783	-0.143	-0.028
-667.047	-200.000	0.051	0.309
-666.032	147.757	0.111	-0.152
-665.018	800.000	0.077	-0.299
-664.003	791.605	0.073	0.204
-662.989	-52.057	0.369	0.173
-661.974	-200.000	-0.047	-0.280
-660.959	350.628	0.187	-0.374
-659.945	800.000	0.060	-0.200
-658.930	204.720	-0.241	0.378
-657.916	-26.841	-0.132	-0.078
-656.901	-97.307	-0.127	-0.033
-655.886	-200.000	-0.018	0.082
-654.872	404.468	0.065	0.139
-653.857	-200.000	-0.024	0.185
-652.843	-115.937	0.206	0.039
-651.828	-76.749	-0.250	-0.088
-650.814	-50.100	-0.185	-0.088
-649.799	78.901	0.145	-0.156
-648.784	-41.670	0.169	0.088
-647.770	-200.000	0.037	-0.308
-646.755	335.012	0.008	-0.015
-645.741	800.000	0.038	0.143
-644.726	-200.000	-0.005	-0.075
-643.711	640.160	0.110	-0.282
-642.697	-29.300	0.154	-0.089
-641.682	-104.243	-0.272	0.064
-640.668	136.075	0.253	-0.332
-639.653	800.000	-0.094	-0.391
-638.638	167.058	0.123	0.176
-637.624	-200.000	0.009	0.096
-636.609	-43.402	0.100	0.051
-635.595	137.825	0.052	-0.069
-634.580	114.265	-0.111	0.136
-633.565	-169.984	-0.235	0.008
-632.551	-200.000	0.040	-0.366
-631.536	-74.584	0.189	0.068
-630.522	800.000	0.015	0.065
-629.507	115.106	0.006	-0.008
-628.492	-200.000	0.017	0.132
-627.478	31.800	0.272	0.236
-626.463	-34.408	0.140	0.077
-625.449	800.000	-0.062	-0.180
-624.434	605.491	0.206	-0.516
-623.419	174.692	0.122	-0.178
-622.405	-23.738	-0.209	0.126
-621.390	-41.854	-0.417	0.215
-620.376	-133.618	0.192	-0.024
-619.361	76.765	-0.089	0.096
-618.346	-116.276	-0.053	-0.010
-617.332	400.708	-0.062	-0.130
-616.317	-92.326	0.095	0.027
-615.303	583.479	-0.149	-0.367
-614.288	800.000	0.025	0.071
-613.273	-8.275	-0.103	0.069
-612.259	-97.918	-0.410	-0.106
-611.244	-61.033	0.329	-0.140
-610.230	-106.464	-0.425	0.095
-609.215	-114.362	-0.215	-0.042
-608.201	-200.000	-0.029	0.162
-607.186	-200.000	0.032	-0.543
-606.171	-129.781	-0.330	0.046
-605.157	578.496	0.085	-0.209
-604.142	-117.857	-0.226	0.041
-603.128	105.954	0.082	-0.097
-602.113	325.477	0.230	-0.442
-601.098	57.974	-0.047	-0.046
-600.084	-47.739	-0.189	0.092
-599.069	-176.910	0.100	-0.003
-598.055	111.111	0.383	0.463
-597.040	800.000	-0.079	-0.257
-596.025	-200.000	0.012	-0.079
-595.011	-101.801	-0.377	-0.092
-593.996	9.983	-0.065	-0.050
-592.982	-126.391	-0.093	-0.014
-591.967	-200.000	-0.035	-0.351
-590.952	603.596	-0.045	-0.113
-589.938	-71.834	0.135	-0.050
-588.923	-2.013	0.203	-0.143
-587.909	148.105	0.105	-0.142
-586.894	152.025	-0.151	0.207
-585.879	94.567	-0.183	0.209
-584.865	-146.439	-0.200	-0.018
-583.850	-88.598	0.055	0.016
-582.836	39.575	-0.204	-0.184
-581.821	-151.275	0.081	0.006
-580.806	-40.837	-0.172	0.090
-579.792	708.513	0.122	0.324
-578.777	116.514	0.234	-0.289
-577.763	-4.924	-0.080	-0.055
-576.748	293.707	-0.083	-0.153
-575.733	695.899	-0.052	0.136
-574.719	280.818	-0.051	0.092
-573.704	-120.267	-0.153	0.026
-572.690	-72.223	0.160	0.059
-571.675	-200.000	-0.053	0.248
-570.661	-55.239	-0.160	-0.072
-569.646	-121.376	0.146	-0.024
-568.631	-67.317	-0.139	0.055
-567.617	-10.181	-0.201	0.134
-566.602	-143.945	0.103	0.010
-565.588	-144.844	-0.273	-0.025
-564.573	37.626	0.215	0.192
-563.558	-200.000	0.056	0.269
-562.544	-200.000	0.036	0.181
-561.529	800.000	0.040	0.146
-560.515	252.504	-0.013	-0.023
-559.500	-36.171	-0.075	-0.041
-558.485	741.108	0.045	0.121
-557.471	-15.587	-0.187	-0.120
-556.456	-58.251	-0.094	-0.041
-555.442	111.796	0.141	0.171
-554.427	25.191	-0.172	0.144
-553.412	5.073	0.265	0.196
-552.398	-118.620	0.330	-0.058
-551.383	-63.621	-0.019	-0.008
-550.369	-141.415	-0.175	0.018
-549.354	131.339	0.149	0.192
-548.339	-138.121	0.251	0.028
-547.325	477.571	0.084	-0.190
-546.310	-200.000	-0.018	-0.197
-545.296	-59.479	-0.081	0.035
-544.281	-200.000	0.022	0.224
-543.266	-83.280	-0.247	-0.080
-542.252	79.723	-0.331	-0.357
-541.237	181.871	-0.182	0.269
-540.223	54.867	0.229	0.222
-539.208	-84.035	0.348	0.111
-538.193	72.937	0.064	0.067
-537.179	128.379	0.220	0.282
-536.164	-76.781	-0.455	0.160
-535.150	800.000	0.066	-0.256
-534.135	661.668	-0.146	-0.377
-533.121	11.382	0.018	-0.014
-532.106	-19.664	-0.098	0.061
-531.091	77.843	-0.208	-0.222
-530.077	-22.639	-0.311	-0.189
-529.062	77.490	0.205	0.219
-528.048	-143.723	0.248	0.024
-527.033	-163.703	-0.346	0.016
-526.018	20.385	-0.218	-0.176
-525.004	-92.654	0.216	-0.061
-523.989	-86.774	0.296	-0.091
-522.975	101.786	-0.270	0.316
-521.960	665.777	0.100	-0.260
-520.945	-14.459	0.103	0.067
-519.931	-45.509	-0.015	-0.008
-518.916	69.408	-0.235	-0.242
-517.902	417.182	0.060	-0.128
-516.887	151.347	0.107	-0.146
-515.872	-200.000	-0.021	-0.122
-514.858	-68.637	0.076	-0.030
-513.843	50.722	0.059	-0.056
-512.829	63.466	-0.352	0.354
-511.814	46.862	-0.124	0.115
-510.799	125.997	-0.240	-0.304
-509.785	159.567	-0.056	0.079
-508.770	-53.215	-0.162	-0.075
-507.756	-29.617	0.144	0.083
-506.741	-31.519	-0.385	-0.217
-505.726	-200.000	-0.010	0.057
-504.712	-200.000	0.000	-0.116
-503.697	-200.000	-0.015	-0.222
-502.683	-28.512	0.172	-0.100
-501.668	-158.226	-0.266	0.016
-500.653	-84.316	-0.056	-0.018
-499.639	-21.806	-0.111	-0.067
-498.624	-200.000	-0.033	-0.171
-497.610	-108.343	0.353	0.076
-496.595	36.088	0.119	-0.105
-495.581	405.197	-0.142	-0.300
-494.566	-156.099	-0.213	-0.014
-493.551	-42.361	-0.172	0.088
-492.537	-97.428	-0.101	-0.026
-491.522	-77.618	0.141	0.049
-490.508	-103.878	0.152	-0.036
-489.493	42.341	-0.142	0.130
-488.478	175.918	-0.089	-0.129
-487.464	-1.595	-0.129	0.091
-486.449	64.541	-0.090	-0.091
-485.435	-51.740	0.141	0.066
-484.420	-183.805	-0.236	0.004
-483.405	-112.495	-0.058	0.012
-482.391	-200.000	0.007	0.089
-481.376	-200.000	-0.009	0.218
-480.362	-200.000	-0.012	0.115
-479.347	-147.679	0.169	0.014
-478.332	62.524	0.155	-0.155
-477.318	86.940	-0.096	-0.106
-476.303	-102.774	0.337	0.080
-475.289	154.070	0.162	-0.222
-474.274	149.750	0.058	-0.078
-473.259	690.342	0.070	0.184
-472.245	-200.000	0.035	0.374
-471.230	284.012	-0.125	-0.225
-470.216	70.772	-0.221	-0.229
-469.201	164.382	-0.138	-0.195
-468.186	339.019	0.254	0.495
-467.172	-80.525	0.370	0.123
-466.157	30.109	0.020	-0.017
-465.143	-123.014	-0.322	0.052
-464.128	191.291	0.046	-0.069
-463.113	-114.754	0.260	-0.050
-462.099	800.000	-0.103	0.312
-461.084	117.026	0.095	0.117
-460.070	-83.375	0.212	-0.068
-459.055	800.000	0.066	0.190
-458.040	-64.516	-0.097	-0.039
-457.026	-88.944	0.106	-0.031
-456.011	800.000	0.058	0.183
-454.997	319.664	0.019	0.037
-453.982	273.023	0.100	0.177
-452.968	800.000	-0.031	0.097
-451.953	-200.000	-0.025	-0.132
-450.938	-23.371	0.173	-0.104
-449.924	-101.807	0.256	0.062
-448.909	-200.000	-0.005	-0.061
-447.895	-200.000	-0.013	0.072
-446.880	-136.482	0.128	-0.015
-445.865	-3.648	-0.314	-0.218
-444.851	0.358	-0.087	0.062
-443.836	-101.887	0.297	0.072
-442.822	644.942	0.123	-0.314
-441.807	233.565	-0.139	-0.228
-440.792	-200.000	-0.041	-0.216
-439.778	176.312	-0.102	0.148
-438.763	215.210	-0.189	-0.299
-437.749	800.000	-0.008	-0.029
-436.734	800.000	-0.015	0.063
-435.719	-37.627	-0.059	0.031
-434.705	-23.845	-0.236	-0.141
-433.690	-12.386	-0.321	-0.210
-432.676	-93.700	-0.271	0.075
-431.661	-44.688	0.123	0.062
-430.646	-200.000	0.054	0.243
-429.632	-82.964	-0.403	0.130
-428.617	-39.255	-0.162	0.085
-427.603	-62.128	0.403	0.168
-426.588	-48.112	0.104	0.050
-425.573	800.000	0.063	-0.215
-424.559	388.603	0.100	-0.206
-423.544	178.368	0.192	0.280
-422.530	-51.459	0.245	-0.115
-421.515	-200.000	0.002	-0.157
-420.500	-101.074	0.269	-0.066
-419.486	-137.835	0.267	-0.030
-418.471	-128.647	0.348	-0.049
-417.457	-200.000	0.007	-0.260
-416.442	79.453	0.162	0.173
-415.428	47.905	0.114	0.107
-414.413	-109.003	0.270	-0.057
-413.398	-108.393	-0.170	0.037
-412.384	201.040	-0.043	0.067
-411.369	-171.439	-0.071	0.002
-410.355	-118.462	0.625	0.111
-409.340	-68.301	0.298	-0.115
-408.325	150.937	0.035	0.047
-407.311	-200.000	-0.032	-0.163
-406.296	124.205	-0.185	0.232
-405.282	-200.000	0.015	-0.329
-404.267	-52.830	0.153	0.070
-403.252	209.687	-0.105	-0.165
-402.238	412.861	0.095	0.201
-401.223	-30.048	0.252	0.143
-400.209	49.476	-0.093	0.087
-399.194	-4.854	-0.189	0.130
-398.179	275.665	0.100	-0.177
-397.165	-200.000	0.030	-0.285
-396.150	515.853	0.036	0.083
-395.136	54.338	-0.126	0.121
-394.121	-28.600	-0.027	0.015
-393.106	800.000	0.014	0.058
-392.092	12.605	0.105	-0.081
-391.077	168.635	-0.158	-0.225
-390.063	63.260	-0.281	0.281
-389.048	18.813	-0.350	0.280
-388.033	-70.360	-0.206	-0.078
-387.019	-121.838	-0.308	-0.051
-386.004	-200.000	-0.048	-0.238
-384.990	59.370	-0.080	-0.078
-383.975	800.000	0.072	0.308
-382.960	-135.754	0.289	-0.034
-381.946	-17.789	-0.100	0.062
-380.931	19.068	-0.184	0.147
-379.917	-139.946	0.120	0.013
-378.902	147.309	0.087	0.117
-377.888	160.059	-0.115	-0.159
-376.873	-200.000	0.028	0.264
-375.858	-137.179	-0.341	-0.039
-374.844	-2.721	0.175	-0.122
-373.829	800.000	-0.038	-0.117
-372.815	132.483	0.189	-0.243
-371.800	760.509	-0.155	0.418
-370.785	69.154	0.221	0.227
-369.771	38.063	0.063	0.056
-368.756	-40.404	-0.090	-0.046
-367.742	102.476	0.233	0.271
-366.727	-109.012	0.151	-0.032
-365.712	-5.786	-0.114	-0.077
-364.698	-27.175	0.329	-0.191
-363.683	88.267	0.111	-0.123
-362.669	-200.000	0.036	-0.529
-361.654	124.287	-0.111	0.139
-360.639	-20.002	-0.235	0.144
-359.625	-200.000	0.002	0.140
-358.610	-29.574	-0.111	0.063
-357.596	-200.000	0.054	0.376
-356.581	-77.391	0.280	-0.097
-355.566	-153.001	0.150	0.011
-354.552	-51.202	-0.186	0.087
-353.537	52.726	0.248	-0.236
-352.523	249.509	-0.319	-0.538
-351.508	8.792	0.069	-0.052
-350.493	-200.000	0.007	0.071
-349.479	800.000	0.086	0.289
-348.464	800.000	0.036	-0.135
-347.450	-200.000	0.007	0.057
-346.435	-200.000	-0.010	0.055
-345.420	206.131	-0.172	-0.266
-344.406	155.695	-0.095	-0.130
-343.391	-81.100	0.293	0.097
-342.377	6.014	-0.252	0.186
-341.362	11.828	0.135	0.103
-340.348	-200.000	-0.030	0.140
-339.333	175.421	0.063	-0.091
-338.318	-41.481	-0.077	-0.039
-337.304	22.493	-0.144	0.117
-336.289	220.460	-0.131	0.209
-335.275	-142.657	-0.480	0.047
-334.260	-200.000	-0.010	-0.333
-333.245	-95.003	-0.313	-0.084
-332.231	578.875	0.118	0.288
-331.216	109.157	0.098	0.116
-330.202	-164.006	-0.148	0.007
-329.187	-200.000	-0.046	-0.249
-328.172	-56.894	-0.177	0.078
-327.158	84.958	-0.178	0.194
-326.143	82.582	0.215	0.233
-325.129	19.396	-0.210	-0.168
-324.114	-129.025	0.236	-0.033
-323.099	-200.000	-0.041	-0.330
-322.085	240.579	-0.230	-0.382
-321.070	546.978	-0.160	-0.380
-320.056	83.238	0.079	-0.085
-319.041	-110.840	0.218	0.045
-318.026	-119.390	-0.022	0.004
-317.012	-37.589	0.184	-0.097
-315.997	-95.941	0.231	-0.061
-314.983	-200.000	-0.018	-0.132
-313.968	-87.191	0.341	-0.103
-312.953	-74.238	-0.361	-0.130
-311.939	71.023	0.156	-0.161
-310.924	70.889	-0.262	0.270
-309.910	-6.021	0.061	0.042
-308.895	-96.055	-0.297	0.079
-307.880	-37.395	0.106	-0.056
-306.866	59.219	0.080	0.078
-305.851	-190.882	-0.312	-0.003
-304.837	257.930	0.020	-0.035
-303.822	70.912	-0.019	-0.019
-302.807	-31.480	0.050	0.028
-301.793	-67.347	0.299	-0.117
-300.778	800.000	-0.125	0.463
-299.764	220.908	-0.114	0.181
-298.749	-111.630	-0.350	0.071
-297.735	-79.684	-0.247	0.083
-296.720	-200.000	-0.214	0.000
-295.705	-200.000	-0.017	-0.275
-294.691	71.548	-0.015	-0.015
-293.676	34.279	-0.269	-0.233
-292.662	106.172	0.064	0.076
-291.647	800.000	-0.000	0.002
-290.632	-189.787	-0.263	-0.003
-289.618	-200.000	-0.015	-0.261
-288.603	-65.325	0.214	0.085
-287.589	174.566	-0.100	0.144
-286.574	326.803	-0.057	-0.108
-285.559	-200.000	0.025	0.428
-284.545	-200.000	0.011	0.077
-283.530	-44.298	0.238	0.119
-282.516	800.000	0.070	-0.227
-281.501	360.576	-0.078	0.154
-280.486	800.000	-0.024	0.085
-279.472	-200.000	-0.031	0.396
-278.457	-1.547	0.157	0.110
-277.443	-70.642	0.299	-0.112
-276.428	-45.471	-0.172	0.084
-275.413	-81.257	-0.360	-0.118
-274.399	-200.000	0.003	-0.049
-273.384	-101.279	0.069	0.017
-272.370	57.732	0.099	0.096
-271.355	-200.000	-0.015	-0.074
-270.340	182.704	-0.077	-0.113
-269.326	-80.232	-0.150	-0.050
-268.311	-106.494	0.064	-0.014
-267.297	92.797	-0.169	0.189
-266.282	-73.409	-0.153	0.055
-265.267	795.180	0.039	-0.107
-264.253	121.396	-0.203	0.250
-263.238	-200.000	-0.017	0.237
-262.224	72.637	-0.117	0.121
-261.209	-31.351	-0.370	0.207
-260.195	-109.967	0.315	0.065
-259.180	58.508	-0.168	0.164
-258.165	9.608	0.125	-0.094
-257.151	-38.999	0.303	-0.158
-256.136	-148.164	-0.327	0.027
-255.122	-16.285	0.172	-0.108
-254.107	148.210	-0.079	0.106
-253.092	-142.620	-0.177	0.017
-252.078	-200.000	-0.014	-0.193
-251.063	-21.196	0.187	0.113
-250.049	-200.000	-0.026	0.558
-249.034	-48.338	0.101	-0.048
-248.019	309.027	0.048	-0.089
-247.005	-83.616	-0.150	-0.047
-245.990	-78.206	0.400	0.136
-244.976	125.597	-0.287	-0.360
-243.961	172.523	0.132	0.188
-242.946	-103.861	0.161	0.037
-241.932	-119.306	-0.257	0.044
-240.917	-23.651	-0.311	0.185
-239.903	800.000	-0.048	-0.204
-238.888	305.057	-0.190	-0.349
-237.873	-12.479	-0.059	0.038
-236.859	341.314	0.232	-0.450
-235.844	-96.642	-0.105	0.027
-234.830	22.983	-0.198	0.161
-233.815	4.737	0.294	0.214
-232.800	714.839	0.047	-0.124
-231.786	-200.000	-0.011	0.125
-230.771	-200.000	0.005	0.481
-229.757	184.970	-0.240	-0.354
-228.742	800.000	-0.031	0.125
-227.727	-32.068	0.178	0.099
-226.713	-200.000	0.012	0.089
-225.698	-55.413	-0.269	-0.120
-224.684	-59.315	0.206	0.088
-223.669	385.051	-0.076	0.155
-222.655	6.756	0.127	0.094
-221.640	-47.482	0.179	-0.086
-220.625	138.934	-0.087	-0.113
-219.611	-106.335	0.138	0.031
-218.596	-200.000	0.024	-0.281
-217.582	-55.638	0.323	-0.143
-216.567	-16.824	0.162	0.102
-215.552	414.880	-0.061	0.128
-214.538	158.259	-0.083	-0.114
-213.523	800.000	-0.050	0.176
-212.509	-200.000	0.025	-0.167
-211.494	274.482	0.049	0.085
-210.479	-14.013	0.019	0.012
-209.465	800.000	0.078	0.302
-208.450	64.526	0.170	0.170
-207.436	800.000	0.022	-0.073
-206.421	378.018	-0.125	-0.252
-205.406	4.500	0.235	0.171
-204.392	-22.302	0.174	0.104
-203.377	-127.779	0.186	0.027
-202.363	-45.938	0.103	0.050
-201.348	-200.000	0.008	0.228
-200.333	-171.748	-0.059	0.002
-199.319	-16.180	-0.065	-0.041
-198.304	-5.052	0.151	-0.103
-197.290	-24.784	0.296	0.174
-196.275	-55.252	-0.220	0.098
-195.260	-200.000	0.200	-0.001
-194.246	-107.691	0.349	0.075
-193.231	57.562	0.156	0.151
-192.217	639.969	-0.126	0.319
-191.202	608.094	0.163	0.404
-190.187	633.992	-0.236	0.593
-189.173	-102.813	0.361	-0.085
-188.158	-200.000	0.010	-0.218
-187.144	13.036	0.138	0.106
-186.129	-200.000	0.042	0.242
-185.114	5.512	-0.249	0.182
-184.100	27.910	-0.047	-0.039
-183.085	-51.011	-0.086	0.040
-182.071	192.432	-0.102	0.152
-181.056	252.878	0.196	0.331
-180.042	-48.711	0.056	-0.027
-179.027	-127.206	0.166	0.024
-178.012	-47.773	0.079	0.038
-176.998	340.901	0.086	-0.166
-175.983	-200.000	0.025	0.133
-174.969	379.991	-0.045	-0.091
-173.954	97.691	0.159	-0.181
-172.939	-92.399	-0.232	-0.065
-171.925	39.168	0.249	0.220
-170.910	684.622	-0.047	-0.122
-169.896	5.344	0.280	-0.204
-168.881	294.701	0.164	-0.296
-167.866	800.000	0.124	0.484
-166.852	-85.378	0.258	-0.080
-165.837	57.790	-0.056	0.054
-164.823	-109.244	-0.315	0.066
-163.808	-44.584	-0.170	-0.084
-162.793	278.474	0.128	0.225
-161.779	154.300	0.201	-0.273
-160.764	-200.000	0.035	-0.277
-159.750	7.764	-0.023	0.017
-158.735	-168.452	-0.066	0.003
-157.720	171.888	0.184	-0.261
-156.706	-132.767	-0.188	0.024
-155.691	-64.412	0.188	-0.075
-154.677	-200.000	-0.003	0.030
-153.662	800.000	0.065	-0.223
-152.647	272.991	0.167	-0.292
-151.633	-200.000	0.038	-0.164
-150.618	-77.542	0.181	-0.062
-149.604	57.099	0.155	-0.149
-148.589	190.849	0.213	0.317
-147.574	-200.000	0.099	0.000
-146.560	-66.521	0.065	-0.025
-145.545	14.213	-0.152	0.117
-144.531	-88.353	-0.260	0.077
-143.516	-149.282	-0.105	0.008
-142.502	-142.917	-0.079	-0.008
-141.487	-200.000	0.094	-0.445
-140.472	-200.000	-0.049	0.313
-139.458	-141.240	0.327	-0.033
-138.443	318.534	0.100	0.186
-137.429	7.691	-0.116	-0.086
-136.414	53.672	0.235	-0.223
-135.399	-200.000	-0.010	0.136
-134.385	7.301	-0.201	0.148
-133.370	-184.021	-0.117	-0.002
-132.356	-200.000	-0.014	0.107
-131.341	800.000	-0.071	-0.216
-130.326	-200.000	0.010	-0.081
-129.312	-68.884	0.262	0.100
-128.297	-78.371	0.451	0.153
-127.283	798.873	0.028	-0.076
-126.268	76.607	-0.259	-0.271
-125.253	196.820	-0.090	-0.136
-124.239	-9.241	0.289	-0.190
-123.224	162.198	0.152	-0.210
-122.210	-39.763	0.133	0.068
-121.195	-127.326	0.027	-0.004
-120.180	35.313	-0.085	0.074
-119.166	-144.280	0.213	0.020
-118.151	-11.181	0.090	-0.059
-117.137	-60.622	0.197	-0.083
-116.122	87.629	0.247	0.270
-115.107	-147.911	-0.063	0.005
-114.093	108.894	0.124	-0.146
-113.078	-200.000	-0.024	0.107
-112.064	-200.000	-0.013	-0.130
-111.049	-200.000	0.007	-0.358
-110.034	-106.016	0.346	-0.077
-109.020	119.484	0.109	0.133
-108.005	-200.000	-0.003	0.073
-106.991	-37.668	-0.144	-0.076
-105.976	21.614	-0.245	0.197
-104.962	-129.691	0.068	0.009
-103.947	-35.682	0.106	0.057
-102.932	332.175	-0.044	0.084
-101.918	-42.943	0.308	-0.154
-100.903	283.083	0.140	-0.248
-99.889	800.000	-0.046	-0.154
-98.874	-127.494	-0.045	-0.006
-97.859	-82.380	0.025	0.008
-96.845	71.519	-0.250	-0.256
-95.830	99.415	0.119	-0.136
-94.816	733.599	0.066	-0.173
-93.801	161.211	0.115	0.158
-92.786	273.592	0.092	0.160
-91.772	210.667	-0.173	-0.268
-90.757	-0.827	0.150	-0.105
-89.743	800.000	0.059	0.189
-88.728	-185.152	-0.261	0.004
-87.713	166.490	-0.102	0.142
-86.699	-0.023	0.094	0.066
-85.684	734.773	-0.074	-0.194
-84.670	-124.650	-0.178	0.027
-83.655	202.611	0.085	0.129
-82.640	-67.150	0.159	-0.062
-81.626	-147.518	-0.298	0.025
-80.611	-50.769	-0.316	0.146
-79.597	-14.483	0.064	-0.041
-78.582	-200.000	0.015	-0.186
-77.567	-35.356	0.250	-0.134
-76.553	-25.784	-0.071	0.041
-75.538	-200.000	-0.006	0.049
-74.524	-200.000	0.013	-0.134
-73.509	-200.000	-0.010	-0.086
-72.494	353.258	-0.042	0.081
-71.480	800.000	-0.018	0.057
-70.465	-200.000	0.008	-0.257
-69.451	800.000	0.066	-0.184
-68.436	214.218	0.046	-0.072
-67.422	9.314	-0.096	0.072
-66.407	-200.000	0.000	-0.020
-65.392	-200.000	0.045	-0.222
-64.378	800.000	-0.034	0.094
-63.363	159.460	-0.096	0.132
-62.349	-200.000	0.021	0.162
-61.334	32.343	-0.955	-0.812
-60.319	23.991	0.283	0.230
-59.305	-200.000	-0.208	-0.998
-58.290	173.552	0.748	1.063
-57.276	800.000	0.388	1.592
-56.261	-200.000	103.109	651.787
-55.246	631.333	1458.379	3635.306
-54.232	177.902	2676.799	3843.696
-53.217	121.125	2194.608	2689.494
-52.203	45.079	1632.854	1481.250
-51.188	36.314	1365.878	1185.479
-50.173	33.064	1322.526	1128.442
-49.159	57.712	1375.666	1324.340
-48.144	60.643	1391.735	1357.512
-47.130	36.636	1345.024	1169.145
-46.115	32.921	1326.583	1130.868
-45.100	32.845	1321.414	1125.963
-44.086	32.618	1319.462	1122.902
-43.071	32.611	1317.210	1120.901
-42.057	32.532	1315.235	1118.701
-41.042	32.633	1313.641	1117.902
-40.027	32.574	1312.270	1116.343
-39.013	32.629	1309.954	1114.654
-37.998	32.651	1308.065	1113.130
-36.984	32.684	1306.782	1112.191
-35.969	32.771	1304.830	1110.998
-34.954	32.718	1303.074	1109.146
-33.940	32.739	1301.996	1108.307
-32.925	32.774	1300.749	1107.410
-31.911	32.978	1298.571	1106.708
-30.896	32.843	1297.190	1104.693
-29.881	32.829	1296.221	1103.740
-28.867	32.837	1294.738	1102.483
-27.852	32.908	1292.936	1101.318
-26.838	32.892	1291.645	1100.084
-25.823	32.818	1290.517	1098.648
-24.809	32.865	1288.704	1097.332
-23.794	32.795	1287.294	1095.682
-22.779	32.854	1286.296	1095.130
-21.765	32.828	1284.793	1093.659
-20.750	32.734	1283.991	1092.386
-19.736	32.666	1282.687	1090.841
-18.721	32.568	1281.429	1089.160
-17.706	32.671	1280.213	1088.679
-16.692	32.637	1278.894	1087.319
-15.677	32.774	1277.696	1087.045
-14.663	32.657	1276.798	1085.566
-13.648	32.573	1275.575	1084.002
-12.633	32.630	1274.402	1083.290
-11.619	32.592	1273.706	1082.434
-10.604	32.586	1273.038	1081.790
-9.590	32.631	1271.914	1081.050
-8.575	32.615	1271.220	1080.322
-7.560	32.625	1270.247	1079.513
-6.546	32.658	1268.846	1078.466
-5.531	32.637	1268.394	1077.918
-4.517	32.678	1267.380	1077.252
-3.502	32.788	1266.427	1077.025
-2.487	32.743	1265.355	1075.816
-1.473	32.591	1262.227	1072.246
-0.458	31.722	1247.647	1054.929
0.556	26.708	1229.911	1018.922
1.571	23.534	1236.276	1006.137
2.586	22.824	1252.139	1014.874
3.600	21.666	1240.447	998.711
4.615	14.793	1164.548	900.604
5.629	4.581	1085.840	788.105
6.644	0.400	1065.062	752.132
7.659	-0.009	1062.815	748.445
8.673	0.053	1061.442	747.719
9.688	-0.213	1060.591	745.733
10.702	0.359	1058.416	746.973
11.717	6.764	1067.949	785.578
12.731	16.500	1082.540	845.129
13.746	21.094	1087.727	872.122
14.761	21.725	1088.753	876.022
15.775	21.728	1088.422	875.692
16.790	21.466	1087.348	873.445
17.804	21.545	1086.596	873.154
18.819	21.713	1085.972	873.415
19.834	21.771	1085.415	873.178
20.848	21.720	1085.158	872.643
21.863	21.768	1084.532	872.298
22.877	21.617	1083.802	870.881
23.892	21.609	1083.238	870.313
24.907	21.661	1082.310	869.750
25.921	21.663	1081.412	868.960
26.936	21.589	1080.226	867.561
27.950	21.541	1078.423	865.802
28.965	21.465	1076.426	863.747
29.980	21.496	1075.157	862.807
30.994	21.744	1074.002	863.023
32.009	21.744	1072.930	862.084
33.023	21.499	1071.648	859.777
34.038	21.582	1070.655	859.310
35.053	21.669	1070.165	859.269
36.067	21.718	1068.983	858.482
37.082	21.641	1068.526	857.661
38.096	21.843	1068.092	858.226
39.111	21.899	1067.251	857.750
40.126	21.723	1065.557	855.453
41.140	21.447	1063.695	852.537
42.155	21.251	1062.502	850.549
43.169	21.215	1061.990	849.893
44.184	21.289	1060.895	849.300
45.199	21.041	1059.754	847.106
46.213	21.357	1058.485	847.550
47.228	21.485	1057.599	847.386
48.242	21.424	1056.915	846.469
49.257	21.545	1055.962	846.214
50.271	21.812	1054.923	846.593
51.286	21.655	1054.433	845.370
52.301	21.749	1053.200	844.757
53.315	21.685	1052.219	843.588
54.330	21.638	1051.291	842.543
55.344	21.575	1050.889	841.846
56.359	21.515	1049.759	840.578
57.374	21.536	1048.224	839.373
58.388	21.551	1047.753	838.995
59.403	21.455	1047.112	837.947
60.417	21.334	1045.895	836.322
61.432	21.410	1045.453	836.259
62.447	21.456	1045.122	836.139
63.461	21.561	1044.148	835.786
64.476	21.531	1042.721	834.429
65.490	21.411	1042.350	833.486
66.505	21.406	1041.565	832.761
67.520	21.477	1040.698	832.331
68.534	21.197	1039.705	830.129
69.549	20.861	1038.363	827.390
70.563	20.962	1037.474	827.089
71.578	21.086	1036.503	826.830
72.593	20.893	1035.874	825.340
73.607	20.880	1035.230	824.690
74.622	21.275	1034.994	826.297
75.636	21.298	1033.861	825.432
76.651	21.108	1033.030	823.798
77.666	20.980	1032.582	822.765
78.680	21.181	1031.586	822.844
79.695	21.196	1031.407	822.698
80.709	21.293	1030.636	822.469
81.724	21.192	1029.798	821.252
82.739	21.312	1028.939	821.059
83.753	21.721	1028.030	822.177
84.768	21.970	1027.430	822.796
85.782	21.947	1026.526	821.890
86.797	21.940	1025.581	821.029
87.812	21.679	1024.569	818.926
88.826	21.868	1023.763	819.090
89.841	21.933	1022.548	818.351
90.855	21.982	1021.675	817.807
91.870	21.956	1020.463	816.642
92.884	21.745	1019.581	814.884
93.899	21.831	1018.230	814.133
94.914	21.966	1017.412	814.033
95.928	21.761	1016.848	812.558
96.943	21.586	1014.908	810.128
97.957	21.354	1013.879	808.161
98.972	21.191	1012.938	806.585
99.987	21.407	1012.859	807.451
101.001	21.603	1011.849	807.475
102.016	21.611	1010.975	806.744
103.030	21.630	1009.660	805.710
104.045	21.406	1008.600	803.764
105.060	21.226	1007.375	801.891
106.074	21.422	1007.274	802.640
107.089	21.762	1006.627	803.611
108.103	21.676	1004.949	801.809
109.118	21.383	1004.221	799.816
110.133	21.444	1003.001	799.054
111.147	21.283	1001.709	797.219
112.162	21.198	1000.737	795.987
113.176	21.410	1000.180	796.437
114.191	21.373	999.161	795.388
115.206	21.007	998.263	792.939
116.220	20.881	997.093	791.365
117.235	21.010	996.312	791.263
118.249	21.160	995.408	791.154
119.264	21.184	994.501	790.471
120.279	21.071	993.841	789.367
121.293	21.194	992.980	789.167
122.308	21.245	992.082	788.617
123.322	21.227	990.719	787.381
124.337	21.008	989.698	785.516
125.352	20.475	987.892	781.612
126.366	20.534	986.668	780.843
127.381	21.157	986.779	783.658
128.395	21.585	986.256	785.095
129.410	21.744	985.409	785.062
130.424	21.547	984.623	783.485
131.439	21.771	983.009	783.129
132.454	21.641	982.475	782.055
133.468	21.640	981.109	780.896
134.483	21.632	980.860	780.591
135.497	21.847	979.775	780.617
136.512	21.919	978.670	779.986
137.527	21.953	977.645	779.254
138.541	22.065	977.105	779.249
139.556	21.926	976.084	777.750
140.570	21.953	975.251	777.139
141.585	22.084	974.224	776.829
142.600	21.913	973.742	775.622
143.614	22.010	973.037	775.420
144.629	22.216	972.118	775.526
145.643	21.979	970.722	773.302
146.658	21.769	969.576	771.395
147.673	21.726	968.393	770.198
148.687	21.725	967.312	769.265
149.702	21.674	966.506	768.333
150.716	21.673	965.440	767.414
151.731	21.819	964.820	767.489
152.746	21.914	964.251	767.387
153.760	22.054	963.590	767.402
154.775	22.109	963.079	767.169
155.789	22.162	961.677	766.214
156.804	22.046	961.253	765.303
157.819	22.105	960.202	764.659
158.833	22.211	959.794	764.726
159.848	22.223	958.390	763.593
160.862	22.025	957.243	761.753
161.877	22.165	956.369	761.594
162.892	22.149	955.396	760.682
163.906	21.942	954.615	759.100
164.921	22.026	953.686	758.654
165.935	22.111	952.433	757.958
166.950	22.036	951.905	757.149
167.964	22.040	951.169	756.513
168.979	21.868	949.520	754.394
169.994	21.858	948.669	753.611
171.008	22.067	948.938	754.656
172.023	22.074	947.893	753.785
173.037	21.762	946.441	751.228
174.052	21.614	946.039	750.208
175.067	21.841	945.144	750.406
176.081	21.967	944.317	750.219
177.096	21.995	943.295	749.461
178.110	21.498	942.708	746.806
179.125	21.310	941.945	745.334
180.140	21.423	941.701	745.559
181.154	21.531	941.859	746.077
182.169	21.834	941.680	747.161
183.183	22.027	940.813	747.229
184.198	21.898	940.277	746.186
185.213	21.849	939.332	745.163
186.227	22.020	938.363	745.053
187.242	21.979	937.868	744.421
188.256	22.120	936.710	744.033
189.271	22.153	935.928	743.488
190.286	21.933	934.934	741.701
191.300	21.267	933.576	737.747
192.315	20.633	932.116	733.856
193.329	20.460	931.806	732.814
194.344	21.376	931.788	736.598
195.359	21.955	931.834	739.008
196.373	22.108	931.515	739.332
197.388	21.878	930.830	737.756
198.402	21.832	930.146	736.955
199.417	22.039	929.257	737.056
200.432	21.668	928.529	734.858
201.446	21.563	927.089	733.214
202.461	21.547	927.344	733.283
203.475	20.540	925.576	727.607
204.490	19.915	923.925	723.634
205.504	20.896	924.038	727.754
206.519	21.563	923.883	730.351
207.534	21.603	923.661	730.280
208.548	21.965	923.794	731.832
209.563	21.561	922.918	729.387
210.577	21.673	921.893	728.979
211.592	22.092	921.479	730.331
212.607	22.211	920.276	729.806
213.621	22.026	919.951	728.716
214.636	22.135	919.612	728.833
215.650	22.032	918.541	727.496
216.665	22.224	917.776	727.619
217.680	22.170	916.906	726.644
218.694	21.570	915.934	723.330
219.709	21.577	915.392	722.867
220.723	21.828	915.028	723.552
221.738	21.950	914.598	723.648
222.753	21.899	913.553	722.549
223.767	22.113	913.155	723.051
224.782	22.215	912.852	723.167
225.796	22.123	912.165	722.181
226.811	21.582	910.589	718.647
227.826	20.992	909.651	715.425
228.840	21.263	909.007	715.965
229.855	21.107	908.613	714.953
230.869	20.836	907.125	712.611
231.884	21.430	907.314	715.127
232.899	21.982	907.506	717.468
233.913	21.897	906.642	716.377
234.928	21.873	905.977	715.688
235.942	21.835	905.387	715.007
236.957	21.655	904.047	713.151
237.972	21.512	903.968	712.442
238.986	21.693	903.447	712.706
240.001	21.764	902.619	712.280
241.015	21.820	902.116	712.044
242.030	21.848	901.709	711.777
243.045	22.011	901.224	711.989
244.059	22.094	901.018	712.103
245.074	21.875	899.800	710.187
246.088	21.589	898.971	708.316
247.103	21.895	898.396	709.037
248.117	22.391	898.455	711.023
249.132	22.637	897.988	711.586
250.147	22.660	897.585	711.294
251.161	22.783	897.181	711.407
252.176	22.748	896.203	710.429
253.190	22.904	895.805	710.678
254.205	22.921	895.581	710.505
255.220	23.047	894.712	710.260
256.234	22.786	894.153	708.707
257.249	22.657	893.472	707.585
258.263	22.772	892.357	707.102
259.278	22.876	891.730	706.957
260.293	22.831	891.217	706.308
261.307	22.722	890.854	705.522
262.322	22.681	889.632	704.327
263.336	21.890	887.342	699.300
264.351	20.665	885.879	693.210
265.366	20.934	885.363	693.815
266.380	22.045	886.167	698.806
267.395	22.498	885.824	700.277
268.409	22.322	885.456	699.223
269.424	22.665	884.300	699.610
270.439	22.584	884.189	699.140
271.453	22.501	883.732	698.386
272.468	22.628	883.540	698.675
273.482	22.856	882.967	699.063
274.497	22.464	881.828	696.548
275.512	22.114	880.662	694.183
276.526	22.464	880.699	695.534
277.541	22.739	880.054	696.051
278.555	22.512	879.231	694.442
279.570	22.257	878.618	692.890
280.585	22.500	877.889	693.212
281.599	22.565	876.824	692.564
282.614	21.885	875.961	689.153
283.628	21.938	875.505	688.939
284.643	22.204	875.507	689.926
285.657	21.961	874.211	687.890
286.672	21.580	873.484	685.765
287.687	22.185	873.219	687.866
288.701	22.199	872.499	687.293
289.716	21.790	871.943	685.193
290.730	21.868	871.303	684.936
291.745	21.604	870.104	682.904
292.760	21.906	870.131	684.040
293.774	22.739	870.670	687.652
294.789	23.212	870.081	688.967
295.803	23.145	869.711	688.352
296.818	23.123	869.042	687.678
297.833	22.877	867.289	685.275
298.847	22.645	867.001	684.088
299.862	22.931	867.051	685.174
300.876	23.246	866.196	685.661
301.891	23.043	865.494	684.257
302.906	22.736	864.305	682.071
303.920	22.893	864.338	682.644
304.935	23.087	864.042	683.096
305.949	23.154	863.304	682.713
306.964	22.762	862.708	680.667
307.979	22.883	862.448	680.869
308.993	23.149	862.342	681.753
310.008	23.287	861.035	681.187
311.022	22.979	860.324	679.384
312.037	22.950	859.739	678.750
313.052	22.749	858.900	677.255
314.066	21.746	857.840	672.512
315.081	21.534	856.862	670.873
316.095	22.339	857.374	674.301
317.110	22.887	856.729	675.830
318.125	21.938	855.713	671.341
319.139	20.902	854.256	666.180
320.154	21.015	853.761	666.167
321.168	21.794	854.281	669.491
322.183	22.457	854.288	671.967
323.197	22.670	853.925	672.434
324.212	22.936	853.576	673.114
325.227	23.016	852.799	672.747
326.241	22.776	852.455	671.503
327.256	22.669	851.741	670.472
328.270	22.637	851.074	669.769
329.285	22.376	850.291	668.101
330.300	22.135	849.582	666.572
331.314	22.558	848.915	667.590
332.329	22.800	849.304	668.756
333.343	22.942	848.826	668.859
334.358	22.935	848.282	668.341
335.373	23.104	847.686	668.452
336.387	23.419	847.557	669.482
337.402	23.440	847.416	669.390
338.416	23.276	847.047	668.420
339.431	23.395	846.687	668.528
340.446	23.647	846.707	669.432
341.460	23.465	845.750	667.932
342.475	23.341	845.287	667.041
343.489	23.381	844.503	666.512
344.504	23.615	844.509	667.339
345.519	23.668	844.486	667.460
346.533	23.844	844.054	667.720
347.548	23.792	842.985	666.623
348.562	23.941	842.531	666.763
349.577	23.888	841.988	666.075
350.592	23.822	841.242	665.179
351.606	23.604	840.584	663.786
352.621	23.696	839.627	663.314
353.635	23.523	839.159	662.240
354.650	22.921	837.424	658.567
355.665	22.019	835.704	653.801
356.679	22.359	836.304	655.481
357.694	22.842	835.588	656.657
358.708	22.587	834.837	655.063
359.723	23.046	834.810	656.687
360.738	23.469	834.584	658.023
361.752	23.507	833.660	657.377
362.767	23.975	833.305	658.772
363.781	23.997	833.141	658.663
364.796	24.145	832.694	658.799
365.810	24.186	832.243	658.537
366.825	24.160	831.778	658.015
367.840	23.997	830.741	656.533
368.854	23.470	830.142	654.058
369.869	23.490	829.773	653.784
370.883	23.590	829.264	653.693
371.898	23.451	828.908	652.843
372.913	23.580	828.629	653.040
373.927	23.714	828.283	653.203
374.942	23.819	827.732	653.097
375.956	23.851	827.490	652.965
376.971	23.973	827.179	653.111
377.986	24.141	826.569	653.186
379.000	24.149	825.513	652.324
380.015	23.903	825.151	651.080
381.029	23.855	825.266	650.939
382.044	24.149	824.302	651.193
383.059	24.149	823.860	650.787
384.073	24.137	823.077	650.066
385.088	24.095	822.671	649.535
386.102	24.001	821.725	648.389
387.117	23.925	821.037	647.513
388.132	23.543	819.905	645.175
389.146	23.144	818.676	642.702
390.161	23.357	819.052	643.713
391.175	23.869	818.968	645.450
392.190	23.443	818.005	643.087
393.205	22.238	815.651	636.818
394.219	20.699	814.144	630.018
395.234	20.598	814.185	629.631
396.248	22.259	815.301	636.453
397.263	23.684	816.123	642.197
398.278	23.667	815.882	641.888
399.292	23.406	815.016	640.205
400.307	23.453	814.449	639.876
401.321	23.681	813.884	640.196
402.336	23.921	813.939	641.046
403.350	24.365	813.849	642.519
404.365	24.443	813.680	642.611
405.380	24.877	812.900	643.498
406.394	24.849	812.464	642.995
407.409	24.823	812.297	642.713
408.423	24.612	812.001	641.666
409.438	24.823	811.608	642.053
410.453	24.760	811.477	641.667
411.467	24.839	810.097	640.803
412.482	24.821	810.375	640.902
413.496	24.886	809.985	640.769
414.511	24.813	809.503	640.070
415.526	24.870	809.081	639.883
416.540	24.693	808.189	638.489
417.555	24.424	807.365	636.822
418.569	24.461	807.153	636.729
419.584	24.587	806.506	636.613
420.599	24.309	805.741	634.962
421.613	156.097	1366.013	1796.398
422.628	135.619	1447.671	1796.500
