DTS Sentinel unit serial number:	SN413079Multiplexer serial number:	ORYXHardware model number:	OX4-SRSoftware version number:	ORYX F/W v4.00 Oryx Data Collector v3.7.2.0data status	okinstallation	princeton_trtdifferential loss correction	single-endedforward channel	channel 1reverse channel	N/Adate	2019/09/13time	08:02:35forward acquisition time	60.00reverse acquisition time	0.00gamma	496.2192k internal	0.2332k external	0.2332temperature offset calibration	1.0160default loss term (dB/km)	0.3790temperature slope calibration	1.0000multiplexer offset coefficient	1.0000multiplexer slope coefficient	1.0000fibre end	0.00T internal ref (°C)	26.89T ext. ref 1 (°C)	4.24T ext. ref 2 (°C)	23.15length (m)	temperature (°C)	Stokes	anti-Stokes-747.200	-101.810	-0.182	-0.044
-746.185	36.813	-0.145	0.129
-745.171	-111.893	-0.258	0.052
-744.156	-34.127	0.186	-0.103
-743.142	-79.096	-0.154	-0.053
-742.127	-59.878	-0.544	0.234
-741.112	265.243	0.116	-0.204
-740.098	55.346	0.179	0.174
-739.083	12.787	-0.122	-0.095
-738.069	-0.457	0.109	-0.078
-737.054	-69.719	-0.129	-0.050
-736.039	-200.000	-0.004	0.059
-735.025	-105.361	0.575	0.132
-734.010	-97.069	0.170	0.045
-732.996	-58.267	-0.247	0.108
-731.981	800.000	0.005	-0.017
-730.966	-122.607	0.228	-0.037
-729.952	-60.323	0.208	0.089
-728.937	-200.000	0.007	-0.224
-727.923	6.911	-0.222	-0.166
-726.908	79.789	0.128	-0.139
-725.894	282.075	-0.080	-0.144
-724.879	-158.196	-0.175	-0.010
-723.864	-22.770	-0.174	-0.106
-722.850	-73.021	-0.151	-0.056
-721.835	258.792	0.047	0.081
-720.821	600.655	-0.057	-0.141
-719.806	244.740	-0.171	-0.289
-718.791	-93.540	0.061	-0.017
-717.777	-42.532	0.146	-0.075
-716.762	-36.319	0.151	0.082
-715.748	-86.861	-0.097	0.030
-714.733	-159.896	0.191	0.011
-713.718	800.000	0.024	-0.082
-712.704	160.697	-0.335	-0.471
-711.689	-200.000	0.016	-0.198
-710.675	-50.217	-0.109	0.052
-709.660	-136.532	0.226	-0.026
-708.645	-200.000	0.021	-0.138
-707.631	-200.000	-0.017	0.076
-706.616	-14.171	0.264	0.171
-705.602	663.469	-0.074	0.192
-704.587	-123.972	0.062	0.010
-703.572	-200.000	0.014	-0.248
-702.558	-20.226	0.236	0.146
-701.543	264.160	-0.057	-0.100
-700.529	-87.926	-0.016	0.005
-699.514	-200.000	0.020	0.254
-698.499	-174.313	-0.076	0.002
-697.485	203.193	0.051	0.079
-696.470	81.025	0.241	-0.261
-695.456	49.724	-0.270	-0.255
-694.441	800.000	0.056	-0.176
-693.426	127.357	0.091	0.116
-692.412	-200.000	0.064	0.383
-691.397	63.335	-0.229	-0.231
-690.383	-76.362	0.158	0.056
-689.368	-200.000	-0.032	-0.194
-688.354	96.644	0.191	0.219
-687.339	74.951	-0.125	-0.132
-686.324	800.000	0.064	0.187
-685.310	521.759	-0.137	0.324
-684.295	529.861	0.143	-0.340
-683.281	645.303	0.073	-0.186
-682.266	800.000	-0.051	-0.151
-681.251	-200.000	0.000	-0.162
-680.237	-85.612	0.343	0.107
-679.222	496.338	-0.117	-0.271
-678.208	-142.485	0.134	0.013
-677.193	302.762	-0.015	0.028
-676.178	-200.000	-0.010	-0.060
-675.164	-0.953	0.103	-0.073
-674.149	-57.309	0.176	0.078
-673.135	-140.002	-0.305	-0.032
-672.120	800.000	0.057	-0.186
-671.105	204.729	0.099	0.154
-670.091	-59.134	-0.204	-0.088
-669.076	-200.000	0.010	0.247
-668.062	-125.889	-0.156	-0.024
-667.047	2.943	-0.061	0.045
-666.032	-5.808	0.243	0.167
-665.018	-80.624	0.226	0.076
-664.003	-71.823	-0.413	-0.154
-662.989	-80.122	-0.082	-0.028
-661.974	510.147	-0.124	-0.289
-660.959	-54.972	-0.207	0.094
-659.945	-56.595	0.412	-0.183
-658.930	48.840	0.038	-0.036
-657.916	228.997	0.108	0.177
-656.901	-126.710	-0.331	-0.049
-655.886	-33.858	-0.040	0.022
-654.872	281.533	0.147	0.263
-653.857	800.000	-0.044	-0.124
-652.843	-200.000	-0.001	0.016
-651.828	-80.067	0.327	0.110
-650.814	-166.035	-0.101	-0.004
-649.799	-11.725	0.382	-0.251
-648.784	49.551	-0.084	0.079
-647.770	-153.650	-0.153	-0.011
-646.755	13.070	-0.190	-0.147
-645.741	-4.916	-0.155	0.107
-644.726	147.638	-0.099	0.133
-643.711	-15.770	0.083	-0.053
-642.697	121.036	0.059	0.073
-641.682	800.000	0.044	-0.180
-640.668	39.980	0.231	0.208
-639.653	-82.557	0.146	-0.047
-638.638	-162.769	-0.173	0.008
-637.624	-7.497	-0.166	-0.113
-636.609	-200.000	-0.016	0.115
-635.595	-142.823	-0.430	-0.042
-634.580	773.835	0.051	0.138
-633.565	-87.249	-0.238	0.072
-632.551	72.725	0.274	-0.286
-631.536	-199.362	0.143	-0.001
-630.522	-24.614	-0.115	0.069
-629.507	566.088	0.162	0.395
-628.492	25.202	0.141	0.117
-627.478	-3.490	0.028	-0.020
-626.463	183.064	-0.199	-0.294
-625.449	370.862	-0.102	-0.207
-624.434	281.656	0.055	-0.099
-623.419	-90.885	0.144	-0.041
-622.405	-200.000	0.002	0.182
-621.390	800.000	-0.030	-0.113
-620.376	7.962	-0.241	0.181
-619.361	800.000	-0.010	0.032
-618.346	-200.000	0.008	-0.310
-617.332	477.125	-0.159	-0.359
-616.317	-37.050	0.162	-0.087
-615.303	-150.288	0.523	0.040
-614.288	-200.000	0.034	0.361
-613.273	800.000	-0.039	0.113
-612.259	-200.000	0.021	-0.132
-611.244	95.760	0.069	0.079
-610.230	-50.746	0.152	0.072
-609.215	-200.000	-0.002	0.069
-608.201	-200.000	-0.029	-0.191
-607.186	-200.000	-0.004	-0.043
-606.171	590.559	0.009	0.021
-605.157	465.049	-0.150	-0.336
-604.142	8.958	-0.107	0.080
-603.128	73.671	0.089	-0.094
-602.113	-41.544	0.322	-0.166
-601.098	298.149	0.164	-0.302
-600.084	-38.386	0.294	-0.156
-599.069	488.575	0.030	0.068
-598.055	-200.000	0.064	0.285
-597.040	-143.401	0.057	0.005
-596.025	183.487	-0.065	-0.097
-595.011	800.000	0.098	-0.355
-593.996	-57.269	0.227	0.100
-592.982	-145.597	-0.129	0.012
-591.967	-200.000	0.014	-0.199
-590.952	-115.086	-0.365	0.069
-589.938	-93.583	0.107	0.030
-588.923	-107.222	-0.113	0.025
-587.909	800.000	-0.064	-0.271
-586.894	800.000	0.060	0.212
-585.879	-200.000	-0.049	-0.289
-584.865	33.465	-0.193	0.168
-583.850	-51.131	-0.286	-0.134
-582.836	-91.414	-0.082	0.023
-581.821	-200.000	-0.019	0.181
-580.806	-200.000	-0.001	-0.144
-579.792	-58.071	0.079	-0.034
-578.777	492.604	0.036	-0.082
-577.763	337.495	0.048	-0.094
-576.748	-200.000	-0.056	0.323
-575.733	800.000	-0.030	0.097
-574.719	800.000	-0.023	0.071
-573.704	249.536	-0.127	-0.215
-572.690	-34.702	0.222	-0.121
-571.675	-200.000	0.040	0.363
-570.661	39.458	-0.268	-0.240
-569.646	69.630	0.216	-0.222
-568.631	-2.301	0.173	-0.121
-567.617	-58.603	-0.136	-0.059
-566.602	27.080	-0.192	0.161
-565.588	13.800	-0.213	0.165
-564.573	-200.000	-0.075	0.366
-563.558	14.542	-0.246	-0.192
-562.544	197.390	-0.119	0.182
-561.529	-63.089	-0.299	0.123
-560.515	-9.625	-0.354	-0.236
-559.500	800.000	0.101	0.365
-558.485	-160.817	0.394	0.021
-557.471	-55.183	-0.299	0.134
-556.456	-49.068	0.252	-0.120
-555.442	24.224	-0.064	0.053
-554.427	-81.164	-0.258	0.085
-553.412	-24.664	-0.121	-0.072
-552.398	746.049	-0.166	0.447
-551.383	42.338	0.242	0.219
-550.369	109.656	-0.165	-0.198
-549.354	484.944	0.080	-0.182
-548.339	-110.728	0.249	-0.051
-547.325	-24.407	-0.070	-0.042
-546.310	398.106	0.107	0.224
-545.296	122.771	0.073	0.091
-544.281	-51.480	0.110	0.052
-543.266	-133.982	0.241	0.030
-542.252	800.000	-0.157	0.454
-541.237	800.000	0.053	-0.190
-540.223	165.901	0.185	-0.262
-539.208	800.000	-0.130	-0.419
-538.193	800.000	0.127	-0.438
-537.179	-18.426	-0.031	-0.019
-536.164	150.991	-0.079	-0.107
-535.150	53.074	0.303	-0.289
-534.135	-200.000	-0.057	0.268
-533.121	70.824	0.150	0.155
-532.106	248.222	0.085	-0.144
-531.091	331.568	0.142	-0.274
-530.077	-19.546	-0.243	0.150
-529.062	-200.000	0.064	-0.407
-528.048	-200.000	0.017	-0.202
-527.033	-2.781	0.116	0.081
-526.018	-8.752	0.271	-0.181
-525.004	-78.796	-0.231	0.079
-523.989	-200.000	-0.030	-0.375
-522.975	378.957	0.034	-0.069
-521.960	-200.000	-0.049	-0.307
-520.945	108.628	-0.250	-0.298
-519.931	-170.192	0.236	-0.008
-518.916	73.714	-0.073	0.076
-517.902	390.269	0.007	-0.014
-516.887	40.219	-0.193	0.173
-515.872	94.799	-0.159	0.181
-514.858	-115.120	0.160	-0.030
-513.843	98.982	-0.131	0.151
-512.829	-67.758	-0.235	-0.092
-511.814	-200.000	-0.068	-0.360
-510.799	-200.000	0.044	0.214
-509.785	-118.087	-0.138	0.025
-508.770	-200.000	0.028	0.123
-507.756	800.000	-0.032	0.098
-506.741	-117.067	0.176	0.032
-505.726	800.000	-0.079	0.240
-504.712	-135.727	0.289	-0.034
-503.697	548.856	0.104	-0.248
-502.683	234.610	-0.156	-0.256
-501.668	57.218	-0.091	-0.089
-500.653	800.000	-0.061	0.176
-499.639	-59.970	0.156	0.067
-498.624	-11.051	0.174	-0.114
-497.610	61.368	-0.283	0.281
-496.595	800.000	0.070	0.287
-495.581	38.608	0.161	-0.143
-494.566	-22.192	0.024	-0.015
-493.551	-25.715	0.243	-0.143
-492.537	-70.930	0.145	-0.055
-491.522	-73.689	-0.464	-0.168
-490.508	-66.820	-0.306	0.121
-489.493	432.620	-0.103	0.223
-488.478	-146.384	-0.189	0.016
-487.464	-107.986	0.167	0.036
-486.449	-200.000	-0.064	0.297
-485.435	150.591	-0.058	-0.079
-484.420	-200.000	0.014	-0.250
-483.405	80.713	0.047	-0.050
-482.391	-189.657	-0.325	-0.004
-481.376	-62.877	0.068	0.028
-480.362	39.138	-0.137	0.122
-479.347	-29.552	-0.144	-0.082
-478.332	800.000	0.036	-0.144
-477.318	3.757	-0.261	0.190
-476.303	1.525	0.225	-0.161
-475.289	-200.000	0.014	0.177
-474.274	-200.000	0.049	0.264
-473.259	-24.043	0.063	-0.038
-472.245	163.734	0.166	0.233
-471.230	-131.096	-0.206	0.027
-470.216	-19.992	0.053	-0.033
-469.201	484.110	0.035	0.080
-468.186	-48.391	0.309	0.148
-467.172	-47.678	-0.306	-0.148
-466.157	204.960	-0.195	0.300
-465.143	-200.000	-0.045	0.339
-464.128	97.870	-0.262	-0.300
-463.113	800.000	-0.051	0.140
-462.099	-129.925	0.210	0.029
-461.084	43.640	0.162	0.148
-460.070	-12.421	0.195	0.127
-459.055	-109.848	0.279	0.058
-458.040	-124.515	-0.152	0.023
-457.026	-200.000	0.024	0.184
-456.011	-51.790	-0.272	-0.126
-454.997	135.975	0.135	0.176
-453.982	-145.611	-0.172	0.015
-452.968	-111.853	-0.357	-0.072
-451.953	53.453	-0.156	-0.149
-450.938	-200.000	0.055	-0.334
-449.924	-200.000	-0.020	-0.133
-448.909	395.003	0.208	-0.432
-447.895	431.317	0.029	0.063
-446.880	-104.550	-0.162	-0.037
-445.865	118.207	0.061	-0.075
-444.851	-41.489	-0.276	-0.141
-443.836	-9.633	0.100	0.066
-442.822	292.078	-0.044	-0.080
-441.807	-4.149	-0.038	-0.026
-440.792	668.366	-0.062	-0.160
-439.778	-104.999	0.075	-0.017
-438.763	-32.660	-0.188	-0.104
-437.749	57.800	-0.025	-0.024
-436.734	-200.000	-0.010	0.125
-435.719	598.226	0.104	0.256
-434.705	-21.288	0.125	-0.076
-433.690	161.999	0.131	-0.182
-432.676	-172.430	-0.211	0.007
-431.661	9.002	-0.496	0.372
-430.646	800.000	-0.060	-0.175
-429.632	-200.000	-0.054	-0.425
-428.617	800.000	0.056	-0.226
-427.603	-200.000	0.003	0.136
-426.588	-34.247	-0.111	-0.061
-425.573	-25.734	-0.360	-0.211
-424.559	-17.533	-0.180	-0.112
-423.544	-200.000	0.042	-0.221
-422.530	-45.779	0.113	-0.055
-421.515	126.285	0.136	-0.171
-420.500	-119.036	-0.049	0.009
-419.486	102.677	0.089	-0.104
-418.471	-200.000	-0.010	0.163
-417.457	-200.000	-0.001	-0.390
-416.442	-89.072	-0.189	-0.055
-415.428	-81.797	0.226	-0.074
-414.413	-126.462	0.232	0.034
-413.398	170.271	0.211	0.300
-412.384	130.919	0.051	-0.065
-411.369	-200.000	-0.042	0.292
-410.355	402.657	-0.014	-0.028
-409.340	-28.850	0.247	0.141
-408.325	800.000	0.051	0.149
-407.311	-200.000	-0.072	-0.483
-406.296	-140.132	0.123	-0.013
-405.282	261.903	0.016	-0.028
-404.267	-25.884	0.156	0.091
-403.252	-114.848	0.310	0.059
-402.238	-30.329	-0.323	0.182
-401.223	-14.784	-0.074	-0.047
-400.209	-114.491	-0.072	-0.014
-399.194	800.000	0.008	0.031
-398.179	800.000	-0.070	0.221
-397.165	-72.501	-0.189	-0.069
-396.150	-73.321	0.131	-0.047
-395.136	-151.885	-0.223	-0.016
-394.121	172.667	-0.043	0.061
-393.106	-200.000	0.025	-0.186
-392.092	-27.506	0.118	-0.068
-391.077	-155.417	-0.159	0.010
-390.063	333.502	-0.115	0.221
-389.048	-200.000	0.019	0.156
-388.033	251.336	0.182	0.308
-387.019	800.000	0.049	-0.165
-386.004	47.896	-0.221	-0.205
-384.990	743.981	-0.141	-0.376
-383.975	-87.371	0.219	0.066
-382.960	364.078	0.110	0.219
-381.946	-105.191	-0.253	0.057
-380.931	-74.924	-0.472	0.168
-379.917	-83.366	0.251	0.080
-378.902	-25.512	0.226	-0.133
-377.888	-160.315	-0.495	-0.026
-376.873	800.000	-0.071	-0.238
-375.858	2.092	0.183	0.131
-374.844	-200.000	0.033	0.278
-373.829	131.319	0.145	0.185
-372.815	112.584	0.087	0.105
-371.800	800.000	0.069	0.244
-370.785	-200.000	0.071	0.334
-369.771	345.078	0.073	0.141
-368.756	-200.000	-0.056	0.286
-367.742	-9.581	-0.205	0.136
-366.727	-125.745	0.253	0.038
-365.712	326.866	-0.172	-0.326
-364.698	319.544	0.089	-0.167
-363.683	800.000	0.072	0.213
-362.669	-64.875	-0.100	0.040
-361.654	-114.606	-0.139	0.026
-360.639	-1.984	0.348	-0.242
-359.625	184.424	0.181	-0.266
-358.610	-111.318	-0.151	0.031
-357.596	-67.827	0.097	0.038
-356.581	-200.000	-0.034	-0.213
-355.566	-127.444	-0.163	-0.023
-354.552	-143.916	-0.129	-0.012
-353.537	-18.862	0.243	0.150
-352.523	-200.000	0.036	-0.160
-351.508	800.000	-0.035	-0.109
-350.493	-200.000	0.063	0.295
-349.479	28.419	0.365	-0.306
-348.464	-200.000	-0.040	0.229
-347.450	189.722	-0.267	0.397
-346.435	-148.391	-0.389	-0.032
-345.420	8.419	0.155	0.116
-344.406	67.942	-0.355	-0.359
-343.391	68.581	-0.093	0.094
-342.377	-200.000	-0.011	0.391
-341.362	800.000	0.123	-0.384
-340.348	-200.000	-0.015	0.294
-339.333	-200.000	0.014	-0.125
-338.318	800.000	0.100	-0.278
-337.304	177.242	-0.065	-0.094
-336.289	110.174	0.145	-0.173
-335.275	-13.538	-0.251	0.161
-334.260	340.686	0.086	0.166
-333.245	266.454	-0.041	0.070
-332.231	-31.477	-0.083	-0.046
-331.216	800.000	0.042	0.124
-330.202	8.040	-0.142	-0.105
-329.187	-86.862	0.031	-0.010
-328.172	-35.168	-0.204	0.110
-327.158	82.587	-0.113	-0.121
-326.143	-163.876	0.196	0.009
-325.129	251.722	0.033	0.055
-324.114	-94.762	0.169	0.045
-323.099	-200.000	-0.045	-0.214
-322.085	-200.000	-0.004	0.126
-321.070	126.720	-0.183	0.230
-320.056	578.998	0.063	0.154
-319.041	299.724	0.213	-0.389
-318.026	261.699	-0.061	-0.105
-317.012	144.462	0.313	-0.414
-315.997	-14.931	0.187	-0.118
-314.983	-146.368	0.372	0.032
-313.968	15.886	-0.151	0.117
-312.953	-200.000	-0.043	0.283
-311.939	-101.735	0.324	0.078
-310.924	226.085	0.302	0.484
-309.910	201.738	-0.095	-0.144
-308.895	-96.973	-0.108	0.028
-307.880	590.832	-0.180	0.438
-306.866	-200.000	-0.029	-0.154
-305.851	23.884	0.179	-0.146
-304.837	-200.000	0.027	-0.222
-303.822	-103.573	0.363	0.084
-302.807	530.456	-0.103	-0.241
-301.793	-24.492	0.286	-0.169
-300.778	594.919	0.030	0.074
-299.764	-75.374	0.040	0.014
-298.749	412.422	-0.079	0.167
-297.735	-95.467	0.381	0.101
-296.720	121.379	-0.087	0.107
-295.705	459.049	-0.075	-0.165
-294.691	413.824	-0.060	-0.127
-293.676	-36.065	0.306	0.163
-292.662	-200.000	-0.025	-0.248
-291.647	-115.828	0.092	-0.017
-290.632	31.155	0.072	0.061
-289.618	-7.939	0.072	0.048
-288.603	-200.000	0.061	-0.436
-287.589	132.332	0.151	0.193
-286.574	-50.979	-0.406	0.189
-285.559	-21.019	0.201	0.121
-284.545	-120.541	0.198	0.033
-283.530	22.096	0.291	-0.235
-282.516	-132.077	0.083	-0.011
-281.501	-30.658	0.283	-0.158
-280.486	-88.487	-0.207	0.061
-279.472	-200.000	0.013	-0.106
-278.457	-64.925	0.352	0.141
-277.443	29.831	0.224	-0.189
-276.428	9.638	0.362	-0.271
-275.413	-13.897	0.156	-0.100
-274.399	-200.000	0.054	0.258
-273.384	-200.000	0.021	-0.133
-272.370	-28.396	-0.116	-0.066
-271.355	-121.407	0.266	0.044
-270.340	800.000	0.064	0.201
-269.326	125.789	-0.112	0.140
-268.311	203.365	-0.049	-0.075
-267.297	41.546	-0.128	-0.115
-266.282	-89.538	-0.169	-0.049
-265.267	392.830	-0.010	-0.021
-264.253	-128.605	-0.266	-0.037
-263.238	-200.000	-0.032	-0.195
-262.224	23.236	0.143	-0.116
-261.209	-132.446	-0.310	0.039
-260.195	-23.667	0.130	-0.077
-259.180	-43.059	-0.304	0.152
-258.165	-162.170	-0.087	0.004
-257.151	216.088	0.131	-0.206
-256.136	-200.000	0.005	0.032
-255.122	-60.580	0.100	0.042
-254.107	642.043	0.087	0.218
-253.092	800.000	-0.128	0.373
-252.078	191.796	0.088	0.131
-251.063	-134.053	0.095	0.012
-250.049	800.000	-0.106	0.340
-249.034	475.930	0.068	0.152
-248.019	141.298	0.279	-0.365
-247.005	4.561	-0.067	-0.049
-245.990	-118.624	-0.311	-0.054
-244.976	18.198	0.090	-0.071
-243.961	-127.707	0.034	0.005
-242.946	-35.270	0.146	0.079
-241.932	-200.000	0.017	-0.192
-240.917	800.000	0.131	0.444
-239.903	22.570	-0.185	0.149
-238.888	-63.989	-0.079	-0.032
-237.873	-200.000	0.058	0.281
-236.859	473.971	0.048	0.106
-235.844	-167.970	-0.220	-0.008
-234.830	-180.050	-0.235	-0.005
-233.815	800.000	0.123	0.366
-232.800	-148.544	-0.079	0.006
-231.786	-171.232	0.354	-0.012
-230.771	-59.419	-0.184	0.078
-229.757	110.869	-0.079	0.094
-228.742	-200.000	-0.022	-0.197
-227.727	-111.458	0.287	-0.058
-226.713	800.000	-0.053	0.151
-225.698	-93.661	0.318	0.087
-224.684	-64.340	-0.564	0.226
-223.669	-200.000	-0.008	-0.178
-222.655	-47.167	-0.436	0.209
-221.640	27.011	-0.117	0.097
-220.625	1.987	-0.102	-0.072
-219.611	245.269	0.024	0.040
-218.596	54.372	-0.037	0.035
-217.582	-200.000	-0.007	-0.190
-216.567	36.477	-0.295	0.256
-215.552	577.136	0.066	0.159
-214.538	51.431	0.066	0.062
-213.523	-63.581	-0.259	-0.105
-212.509	70.503	0.226	-0.230
-211.494	-37.365	0.128	-0.067
-210.479	-200.000	-0.040	0.229
-209.465	25.165	-0.297	0.243
-208.450	-200.000	0.020	0.143
-207.436	174.374	0.065	-0.093
-206.421	-83.869	0.171	0.054
-205.406	278.563	0.031	0.054
-204.392	382.009	-0.022	0.044
-203.377	285.198	-0.148	0.263
-202.363	-156.514	-0.254	0.016
-201.348	-78.700	0.268	-0.090
-200.333	180.780	-0.139	0.201
-199.319	144.943	-0.122	0.160
-198.304	36.487	0.098	0.085
-197.290	177.841	-0.087	0.125
-196.275	-130.249	0.178	-0.024
-195.260	2.511	-0.049	-0.035
-194.246	-131.806	0.281	0.036
-193.231	800.000	0.035	0.102
-192.217	-200.000	0.042	-0.216
-191.202	155.897	0.214	-0.290
-190.187	-200.000	-0.080	-0.488
-189.173	800.000	-0.047	-0.141
-188.158	-200.000	0.009	0.324
-187.144	-21.077	0.192	-0.116
-186.129	-101.398	-0.287	0.069
-185.114	35.007	-0.069	0.059
-184.100	69.282	0.208	0.211
-183.085	-200.000	-0.009	-0.120
-182.071	426.800	-0.052	-0.110
-181.056	-14.646	0.059	-0.037
-180.042	-26.790	-0.133	0.077
-179.027	71.086	0.230	-0.235
-178.012	441.888	-0.129	-0.278
-176.998	477.461	-0.038	0.085
-175.983	-117.251	0.166	0.030
-174.969	-150.878	0.135	0.010
-173.954	-67.170	0.079	0.031
-172.939	173.934	-0.041	0.058
-171.925	-134.706	-0.375	-0.045
-170.910	-200.000	0.024	0.120
-169.896	122.104	0.309	-0.379
-168.881	-200.000	0.229	-0.001
-167.866	36.307	-0.209	0.181
-166.852	-200.000	-0.058	-0.366
-165.837	800.000	-0.077	-0.290
-164.823	-18.450	0.064	0.039
-163.808	-200.000	-0.008	-0.281
-162.793	-200.000	-0.032	0.273
-161.779	81.761	-0.162	0.172
-160.764	-200.000	-0.027	0.187
-159.750	-3.761	-0.455	0.311
-158.735	242.691	-0.016	0.026
-157.720	-20.457	-0.074	0.045
-156.706	593.417	0.169	0.410
-155.691	-200.000	0.025	-0.128
-154.677	-105.532	0.121	-0.027
-153.662	-200.000	0.001	-0.030
-152.647	-132.557	0.152	-0.019
-151.633	-96.068	0.259	-0.068
-150.618	-12.232	-0.045	0.029
-149.604	319.173	0.151	0.281
-148.589	22.165	-0.141	0.113
-147.574	-197.027	0.348	0.002
-146.560	332.966	-0.114	0.216
-145.545	508.723	0.172	0.392
-144.531	167.886	0.164	0.230
-143.516	122.071	-0.152	0.187
-142.502	37.070	0.169	0.147
-141.487	261.621	-0.154	0.263
-140.472	-173.036	0.235	0.007
-139.458	-151.963	0.472	0.034
-138.443	12.615	-0.108	-0.082
-137.429	800.000	-0.069	0.211
-136.414	-200.000	0.027	0.119
-135.399	20.289	-0.187	0.148
-134.385	-93.246	-0.385	0.105
-133.370	-170.025	0.208	-0.007
-132.356	-179.873	-0.239	0.005
-131.341	600.650	0.092	-0.224
-130.326	-163.774	-0.177	-0.008
-129.312	17.174	-0.190	-0.148
-128.297	0.847	0.265	-0.186
-127.283	-161.769	0.172	0.009
-126.268	800.000	0.059	0.186
-125.253	-110.219	0.262	0.054
-124.239	159.618	0.021	-0.029
-123.224	-200.000	0.076	0.396
-122.210	18.462	-0.116	-0.091
-121.195	-148.711	0.248	-0.020
-120.180	-38.992	0.088	0.045
-119.166	42.398	-0.207	0.185
-118.151	189.777	0.075	-0.111
-117.137	-74.225	0.036	-0.013
-116.122	511.375	0.136	-0.311
-115.107	116.570	0.140	-0.169
-114.093	-200.000	0.046	-0.213
-113.078	243.535	0.090	-0.147
-112.064	-91.074	0.138	0.039
-111.049	-200.000	-0.088	-0.503
-110.034	-162.550	-0.138	0.007
-109.020	-144.691	-0.274	0.025
-108.005	-109.958	-0.212	0.044
-106.991	-61.975	-0.159	0.065
-105.976	567.785	-0.079	0.188
-104.962	108.562	0.158	-0.185
-103.947	800.000	0.102	-0.372
-102.932	-113.200	0.371	0.072
-101.918	-15.639	-0.071	0.044
-100.903	314.702	-0.023	0.042
-99.889	146.771	-0.334	0.441
-98.874	161.036	0.048	0.066
-97.859	45.096	0.057	-0.052
-96.845	566.583	0.044	0.104
-95.830	222.495	0.203	-0.320
-94.816	604.325	-0.193	-0.471
-93.801	186.327	0.062	0.091
-92.786	-99.296	0.359	-0.089
-91.772	-200.000	0.023	-0.100
-90.757	-66.776	0.118	-0.046
-89.743	160.564	0.289	0.396
-88.728	-30.664	0.184	-0.102
-87.713	-169.555	-0.224	0.008
-86.699	106.362	-0.128	0.148
-85.684	6.059	-0.167	-0.121
-84.670	3.524	0.040	0.029
-83.655	-132.030	-0.222	0.028
-82.640	340.899	-0.060	0.115
-81.626	800.000	-0.076	-0.221
-80.611	82.003	-0.039	0.041
-79.597	-17.266	0.080	-0.049
-78.582	-118.337	-0.171	-0.030
-77.567	-9.004	0.258	0.169
-76.553	261.876	-0.108	-0.183
-75.538	-133.644	-0.145	0.018
-74.524	-200.000	-0.039	-0.265
-73.509	-200.000	-0.038	0.260
-72.494	-39.666	0.225	0.116
-71.480	800.000	-0.126	0.367
-70.465	45.010	0.101	0.091
-69.451	132.581	0.062	0.078
-68.436	54.812	0.099	0.094
-67.422	527.988	-0.079	-0.183
-66.407	-200.000	0.023	0.140
-65.392	-89.389	0.392	0.113
-64.378	800.000	0.031	0.127
-63.363	223.571	0.087	-0.137
-62.349	328.412	-0.007	-0.012
-61.334	106.079	-0.991	-1.150
-60.319	72.616	0.494	0.505
-59.305	316.628	-0.585	-1.083
-58.290	142.983	0.698	0.909
-57.276	363.286	0.715	1.408
-56.261	-200.000	114.134	656.650
-55.246	538.679	1529.694	3562.147
-54.232	175.540	2705.519	3841.478
-53.217	110.056	2164.567	2544.052
-52.203	38.965	1600.880	1400.891
-51.188	30.229	1344.338	1123.706
-50.173	27.363	1306.217	1074.899
-49.159	55.518	1363.767	1292.728
-48.144	53.511	1377.940	1294.053
-47.130	30.373	1332.980	1114.901
-46.115	27.168	1314.380	1080.285
-45.100	26.842	1309.774	1074.527
-44.086	26.737	1306.920	1071.522
-43.071	26.671	1304.938	1069.464
-42.057	26.715	1302.751	1067.893
-41.042	26.740	1301.300	1066.804
-40.027	26.752	1299.828	1065.629
-39.013	26.786	1297.949	1064.247
-37.998	26.910	1295.668	1063.060
-36.984	26.789	1294.601	1061.434
-35.969	26.927	1292.436	1060.424
-34.954	26.904	1290.868	1058.959
-33.940	26.884	1289.549	1057.717
-32.925	26.904	1288.252	1056.731
-31.911	26.876	1286.729	1055.274
-30.896	26.993	1284.912	1054.424
-29.881	27.010	1283.634	1053.431
-28.867	26.975	1282.488	1052.243
-27.852	27.047	1280.885	1051.303
-26.838	27.026	1279.148	1049.715
-25.823	27.114	1277.544	1048.864
-24.809	27.083	1276.405	1047.709
-23.794	26.869	1275.435	1045.638
-22.779	26.892	1274.155	1044.681
-21.765	26.988	1272.818	1044.093
-20.750	26.910	1271.749	1042.727
-19.736	26.809	1270.774	1041.305
-18.721	26.914	1269.569	1040.885
-17.706	26.754	1268.797	1039.290
-16.692	26.846	1267.229	1038.493
-15.677	26.942	1265.865	1037.880
-14.663	26.929	1264.794	1036.886
-13.648	26.896	1263.324	1035.456
-12.633	26.916	1262.221	1034.620
-11.619	26.821	1261.928	1033.801
-10.604	26.799	1261.051	1032.917
-9.590	26.805	1260.105	1032.135
-8.575	26.794	1259.081	1031.192
-7.560	26.858	1258.226	1030.812
-6.546	26.782	1257.455	1029.708
-5.531	26.757	1256.620	1028.841
-4.517	26.839	1255.308	1028.190
-3.502	26.835	1254.766	1027.686
-2.487	26.804	1253.995	1026.839
-1.473	26.821	1249.991	1023.612
-0.458	25.561	1235.453	1004.636
0.556	24.097	1218.276	968.568
1.571	20.587	1224.130	953.915
2.586	19.580	1238.540	959.468
3.600	19.135	1226.354	947.499
4.615	14.486	1155.445	868.471
5.629	7.527	1083.128	779.960
6.644	4.516	1065.005	752.280
7.659	4.239	1062.390	749.028
8.673	4.068	1061.300	747.368
9.688	4.138	1059.823	746.597
10.702	4.555	1058.327	747.484
11.717	8.983	1064.836	773.405
12.731	16.851	1074.600	818.570
13.746	21.146	1080.763	844.006
14.761	22.072	1081.176	848.732
15.775	21.261	1079.336	843.299
16.790	20.286	1077.690	837.237
17.804	19.822	1076.039	833.644
18.819	19.555	1074.793	831.319
19.834	19.428	1074.356	830.294
20.848	19.277	1074.031	829.244
21.863	19.162	1073.125	827.919
22.877	18.953	1072.639	826.466
23.892	18.933	1071.790	825.642
24.907	18.961	1070.851	824.981
25.921	19.069	1069.678	824.521
26.936	19.009	1068.078	822.928
27.950	18.931	1066.877	821.558
28.965	18.995	1066.079	821.175
29.980	19.219	1064.372	820.859
30.994	19.260	1063.519	820.324
32.009	19.260	1062.858	819.740
33.023	19.261	1061.741	818.812
34.038	19.089	1060.716	817.128
35.053	19.083	1059.612	816.178
36.067	19.041	1058.600	815.129
37.082	19.089	1057.471	814.416
38.096	19.267	1057.268	815.027
39.111	19.274	1056.422	814.335
40.126	19.117	1054.966	812.401
41.140	18.816	1053.412	809.713
42.155	18.553	1052.477	807.687
43.169	18.391	1051.365	805.998
44.184	18.608	1050.308	806.138
45.199	18.620	1049.472	805.480
46.213	18.856	1048.511	805.778
47.228	19.143	1047.723	806.446
48.242	19.083	1046.670	805.282
49.257	18.952	1046.057	804.126
50.271	19.117	1045.225	804.188
51.286	19.234	1044.044	803.754
52.301	19.103	1043.136	802.371
53.315	18.881	1042.198	800.548
54.330	18.730	1040.976	798.835
55.344	18.763	1039.996	798.165
56.359	18.875	1038.889	797.767
57.374	18.675	1038.474	796.447
58.388	18.695	1037.129	795.438
59.403	18.615	1036.189	794.276
60.417	18.441	1035.987	793.245
61.432	18.439	1035.292	792.634
62.447	18.414	1034.219	791.628
63.461	18.380	1033.172	790.601
64.476	18.430	1032.240	790.044
65.490	18.437	1031.295	789.286
66.505	18.478	1030.876	789.085
67.520	18.486	1030.365	788.661
68.534	18.459	1029.176	787.554
69.549	18.446	1028.747	787.099
70.563	18.244	1027.881	785.440
71.578	18.155	1026.991	784.282
72.593	17.986	1026.253	782.874
73.607	18.137	1025.423	782.860
74.622	18.195	1024.935	782.688
75.636	18.399	1023.555	782.493
76.651	18.256	1023.275	781.561
77.666	18.206	1022.799	780.897
78.680	18.383	1022.196	781.177
79.695	18.368	1021.765	780.707
80.709	18.565	1020.830	780.823
81.724	18.506	1020.943	780.570
82.739	18.930	1019.422	781.265
83.753	18.949	1019.254	781.154
84.768	19.408	1018.634	782.695
85.782	19.456	1018.261	782.554
86.797	19.375	1017.214	781.316
87.812	19.201	1015.790	779.363
88.826	19.140	1014.957	778.380
89.841	19.105	1014.747	777.990
90.855	19.406	1013.618	778.418
91.870	19.390	1012.816	777.662
92.884	19.452	1011.533	776.885
93.899	19.312	1010.810	775.632
94.914	19.486	1009.906	775.650
95.928	19.420	1008.912	774.525
96.943	19.181	1007.911	772.614
97.957	19.144	1007.419	772.000
98.972	19.479	1005.545	771.997
99.987	19.156	1005.717	770.617
101.001	19.262	1004.569	770.143
102.016	19.151	1003.821	769.004
103.030	19.264	1003.101	768.887
104.045	19.220	1002.412	768.098
105.060	19.078	1001.279	766.530
106.074	18.941	999.512	764.497
107.089	18.546	999.263	762.482
108.103	18.613	998.109	761.832
109.118	18.454	997.026	760.233
110.133	18.373	996.066	759.074
111.147	18.351	995.440	758.435
112.162	18.407	994.581	757.961
113.176	18.734	993.896	758.817
114.191	18.807	992.865	758.284
115.206	18.614	992.586	757.151
116.220	18.677	990.909	756.085
117.235	18.569	990.476	755.213
118.249	18.552	989.575	754.381
119.264	18.366	988.964	753.032
120.279	18.348	988.086	752.219
121.293	18.388	987.019	751.512
122.308	18.346	985.776	750.317
123.322	18.132	985.008	748.729
124.337	18.284	983.898	748.485
125.352	18.233	983.064	747.561
126.366	18.126	982.523	746.616
127.381	18.098	981.822	745.897
128.395	18.259	980.402	745.451
129.410	18.296	979.543	744.894
130.424	18.450	978.763	744.903
131.439	18.590	978.059	744.911
132.454	18.497	977.671	744.145
133.468	18.715	976.575	744.191
134.483	18.779	975.606	743.664
135.497	18.685	974.883	742.641
136.512	18.702	974.420	742.296
137.527	18.748	973.401	741.651
138.541	18.693	972.658	740.785
139.556	18.709	972.251	740.478
140.570	18.940	971.634	740.937
141.585	19.207	971.011	741.545
142.600	19.221	970.034	740.794
143.614	19.397	968.965	740.670
144.629	19.222	968.790	739.717
145.643	19.137	967.543	738.335
146.658	19.012	966.357	736.830
147.673	18.846	965.029	735.043
148.687	18.755	964.357	734.074
149.702	18.648	963.046	732.556
150.716	18.737	962.301	732.305
151.731	18.676	961.829	731.619
152.746	18.750	960.886	731.153
153.760	18.888	960.409	731.312
154.775	19.054	960.038	731.670
155.789	19.063	959.265	731.058
156.804	19.077	958.448	730.428
157.819	19.012	958.121	729.839
158.833	19.316	957.164	730.332
159.848	19.384	956.582	730.111
160.862	19.321	955.532	728.981
161.877	18.909	954.104	726.084
162.892	18.711	952.832	724.218
163.906	18.695	951.653	723.193
164.921	18.712	951.154	722.821
165.935	18.861	950.140	722.612
166.950	18.952	949.738	722.625
167.964	18.949	948.689	721.748
168.979	18.943	947.419	720.693
169.994	18.699	947.190	719.435
171.008	18.869	946.782	719.773
172.023	19.107	946.228	720.285
173.037	19.361	945.100	720.421
174.052	19.227	944.414	719.277
175.067	18.781	943.681	716.794
176.081	18.634	942.970	715.579
177.096	18.610	942.725	715.226
178.110	18.865	941.725	715.470
179.125	18.900	940.992	714.994
180.140	18.884	940.915	714.805
181.154	18.990	940.888	715.163
182.169	19.289	940.240	715.849
183.183	19.234	939.565	715.045
184.198	19.286	938.776	714.593
185.213	19.231	937.944	713.672
186.227	19.298	937.253	713.357
187.242	19.340	936.837	713.154
188.256	19.532	936.344	713.510
189.271	19.496	935.238	712.454
190.286	19.093	934.382	710.075
191.300	18.711	933.004	707.394
192.315	18.607	932.322	706.385
193.329	18.581	932.390	706.265
194.344	18.782	931.325	706.225
195.359	18.836	931.235	706.317
196.373	19.061	930.436	706.569
197.388	19.303	929.870	707.070
198.402	19.525	929.267	707.458
199.417	19.625	929.071	707.657
200.432	19.832	928.623	708.102
201.446	19.834	928.331	707.823
202.461	19.918	927.767	707.674
203.475	19.737	926.901	706.213
204.490	19.510	926.131	704.635
205.504	19.295	925.348	703.103
206.519	19.355	923.981	702.246
207.534	19.338	923.410	701.681
208.548	19.238	923.300	701.127
209.563	19.299	922.544	700.738
210.577	19.456	921.970	700.879
211.592	19.710	921.258	701.307
212.607	19.755	920.513	700.859
213.621	19.682	919.787	699.949
214.636	19.556	919.079	698.839
215.650	19.554	918.744	698.515
216.665	19.726	917.600	698.278
217.680	19.837	917.324	698.455
218.694	19.816	916.684	697.822
219.709	19.816	915.841	697.116
220.723	19.736	915.158	696.214
221.738	19.586	914.695	695.195
222.753	19.759	913.838	695.178
223.767	19.795	913.734	695.180
224.782	19.936	913.052	695.167
225.796	20.076	912.416	695.183
226.811	19.906	911.733	693.920
227.826	19.716	910.797	692.386
228.840	19.465	910.376	690.999
229.855	19.798	908.890	691.140
230.869	19.603	908.663	690.127
231.884	19.460	908.093	689.065
232.899	19.553	907.129	688.642
233.913	19.486	905.864	687.355
234.928	19.418	905.694	686.891
235.942	19.331	905.191	686.103
236.957	19.293	904.538	685.400
237.972	19.378	904.122	685.360
238.986	19.413	903.088	684.655
240.001	19.364	902.860	684.226
241.015	19.614	902.252	684.696
242.030	19.516	901.932	684.005
243.045	19.550	901.313	683.608
244.059	19.542	901.047	683.316
245.074	19.825	899.830	683.449
246.088	19.871	899.404	683.248
247.103	20.026	898.876	683.397
248.117	20.226	898.825	684.088
249.132	20.545	898.374	684.943
250.147	20.649	897.593	684.696
251.161	20.621	897.504	684.457
252.176	20.625	896.467	683.620
253.190	20.678	895.957	683.380
254.205	20.659	895.622	682.987
255.220	20.641	894.827	682.252
256.234	20.622	894.020	681.501
257.249	20.665	893.494	681.209
258.263	20.623	892.771	680.432
259.278	20.551	892.516	679.896
260.293	20.872	891.217	680.100
261.307	20.718	891.184	679.412
262.322	20.825	890.777	679.459
263.336	20.784	889.768	678.469
264.351	20.802	889.149	678.008
265.366	20.730	888.588	677.242
266.380	20.874	887.947	677.252
267.395	20.709	886.986	675.820
268.409	20.590	886.431	674.875
269.424	20.578	885.554	674.101
270.439	20.534	884.381	672.976
271.453	20.504	883.897	672.435
272.468	20.352	883.352	671.372
273.482	20.456	882.823	671.311
274.497	20.368	882.494	670.664
275.512	20.528	881.658	670.584
276.526	20.469	881.502	670.178
277.541	20.681	880.792	670.397
278.555	20.749	880.513	670.388
279.570	20.922	880.139	670.708
280.585	20.994	878.925	670.001
281.599	20.658	878.046	667.981
282.614	20.486	877.468	666.824
283.628	20.694	876.576	666.882
284.643	20.495	876.584	666.068
285.657	20.538	875.581	665.411
286.672	20.522	875.057	664.894
287.687	20.617	874.518	664.789
288.701	20.554	873.883	664.005
289.716	20.641	873.175	663.742
290.730	20.848	872.498	663.957
291.745	20.795	871.863	663.213
292.760	20.955	871.609	663.572
293.774	21.046	870.904	663.321
294.789	20.918	870.304	662.320
295.803	20.839	869.101	661.045
296.818	20.696	868.440	659.941
297.833	20.730	868.234	659.857
298.847	20.678	867.963	659.394
299.862	20.849	867.183	659.391
300.876	20.946	866.571	659.235
301.891	21.013	866.134	659.097
302.906	21.084	865.752	659.014
303.920	21.326	865.343	659.561
304.935	21.356	865.181	659.492
305.949	21.106	864.106	657.672
306.964	21.120	863.322	657.069
307.979	21.200	862.920	657.004
308.993	21.197	862.177	656.371
310.008	21.305	861.525	656.220
311.022	21.162	860.905	655.154
312.037	20.883	860.429	653.689
313.052	20.689	859.724	652.367
314.066	20.525	859.252	651.336
315.081	20.730	858.331	651.348
316.095	20.759	858.042	651.179
317.110	20.766	857.316	650.597
318.125	20.686	856.954	649.965
319.139	20.662	856.407	649.404
320.154	20.735	855.857	649.202
321.168	20.650	855.659	648.677
322.183	20.871	854.607	648.645
323.197	20.877	854.541	648.559
324.212	20.875	853.620	647.798
325.227	20.771	853.367	647.159
326.241	20.706	852.589	646.274
327.256	20.766	851.869	645.891
328.270	20.683	851.586	645.313
329.285	20.773	850.414	644.699
330.300	20.899	850.192	644.943
331.314	20.932	849.693	644.629
332.329	20.961	849.436	644.484
333.343	21.113	849.160	644.777
334.358	21.195	848.505	644.527
335.373	21.038	848.266	643.708
336.387	21.160	847.981	643.886
337.402	21.356	847.638	644.291
338.416	21.600	847.416	644.962
339.431	21.610	846.965	644.599
340.446	21.708	846.471	644.527
341.460	21.581	846.597	644.099
342.475	21.854	846.267	644.795
343.489	21.800	845.828	644.205
344.504	21.680	845.797	643.685
345.519	22.011	844.853	644.123
346.533	21.753	844.242	642.654
347.548	21.585	843.194	641.184
348.562	21.395	842.473	639.883
349.577	21.279	841.723	638.832
350.592	21.234	840.718	637.849
351.606	21.177	840.603	637.499
352.621	21.262	839.962	637.265
353.635	21.352	839.292	637.031
354.650	21.419	838.637	636.718
355.665	21.377	838.075	636.082
356.679	21.604	837.654	636.532
357.694	21.443	837.114	635.480
358.708	21.317	836.785	634.718
359.723	21.487	835.749	634.494
360.738	21.569	835.406	634.474
361.752	21.648	834.538	634.045
362.767	21.735	833.942	633.850
363.781	21.934	833.773	634.386
364.796	22.078	833.334	634.516
365.810	22.228	832.875	634.652
366.825	22.278	832.602	634.568
367.840	22.141	832.256	633.754
368.854	21.949	831.432	632.376
369.869	21.777	831.328	631.621
370.883	21.741	830.750	630.997
371.898	22.084	830.502	631.990
372.913	22.301	830.128	632.428
373.927	21.971	829.472	630.686
374.942	22.008	828.877	630.311
375.956	22.258	828.807	631.098
376.971	22.168	828.497	630.484
377.986	22.307	828.057	630.591
379.000	22.476	827.379	630.625
380.015	22.197	826.793	629.125
381.029	22.250	826.227	628.826
382.044	22.234	825.488	628.151
383.059	22.416	824.968	628.351
384.073	22.200	824.250	626.979
385.088	22.045	823.469	625.778
386.102	21.798	822.822	624.349
387.117	21.838	822.334	624.065
388.132	21.905	821.667	623.744
389.146	21.992	821.303	623.719
390.161	22.189	820.684	623.895
391.175	22.289	820.608	624.135
392.190	22.098	819.979	622.925
393.205	22.078	818.906	621.985
394.219	21.967	819.151	621.724
395.234	21.808	818.630	620.710
396.248	21.738	817.862	619.825
397.263	21.762	817.105	619.281
398.278	21.500	817.435	618.551
399.292	21.582	816.568	618.128
400.307	21.661	815.989	617.916
401.321	21.796	815.498	617.963
402.336	21.824	815.167	617.757
403.350	22.038	814.921	618.269
404.365	22.141	814.223	618.048
405.380	22.389	814.013	618.706
406.394	22.525	813.753	618.930
407.409	22.491	812.973	618.162
408.423	22.737	812.650	618.728
409.438	22.806	812.596	618.873
410.453	22.642	812.249	617.979
411.467	22.758	811.448	617.721
412.482	22.962	811.011	618.047
413.496	22.863	811.196	617.786
414.511	22.837	810.608	617.193
415.526	22.714	810.100	616.322
416.540	22.728	809.609	615.943
417.555	22.619	809.322	615.288
418.569	22.650	808.783	614.935
419.584	22.732	808.301	614.797
420.599	22.828	807.624	614.563
421.613	164.528	1370.902	1794.959
422.628	143.225	1452.969	1795.043
