DTS Sentinel unit serial number:	SN413079Multiplexer serial number:	ORYXHardware model number:	OX4-SRSoftware version number:	ORYX F/W v4.00 Oryx Data Collector v3.7.2.0data status	okinstallation	princeton_trtdifferential loss correction	single-endedforward channel	channel 1reverse channel	N/Adate	2019/09/12time	18:47:34forward acquisition time	15.00reverse acquisition time	0.00gamma	496.2192k internal	0.2318k external	0.2318temperature offset calibration	1.0111default loss term (dB/km)	0.3790temperature slope calibration	1.0000multiplexer offset coefficient	1.0000multiplexer slope coefficient	1.0000fibre end	0.00T internal ref (°C)	32.94T ext. ref 1 (°C)	3.01T ext. ref 2 (°C)	27.49length (m)	temperature (°C)	Stokes	anti-Stokes-747.200	-200.000	-0.056	-0.774
-746.185	-200.000	0.063	0.291
-745.171	-200.000	-0.059	-0.377
-744.156	110.176	-0.192	0.234
-743.142	-56.081	-0.687	-0.310
-742.127	800.000	0.043	0.139
-741.112	98.267	0.213	-0.249
-740.098	618.914	-0.233	0.593
-739.083	265.713	-0.037	0.065
-738.069	352.144	-0.084	-0.169
-737.054	-195.484	0.300	-0.002
-736.039	2.855	0.394	0.289
-735.025	53.882	0.343	-0.333
-734.010	-200.000	0.022	-0.469
-732.996	98.287	0.465	0.542
-731.981	-105.019	0.182	-0.042
-730.966	433.840	-0.349	0.766
-729.952	-137.440	-0.974	-0.111
-728.937	-46.259	0.875	-0.435
-727.923	-24.770	0.839	0.504
-726.908	-61.507	-0.962	-0.409
-725.894	156.255	0.457	-0.638
-724.879	38.133	0.881	-0.793
-723.864	-163.979	0.726	-0.034
-722.850	25.682	-0.239	-0.201
-721.835	211.085	0.097	-0.154
-720.821	76.251	-0.376	0.403
-719.806	40.110	0.594	0.540
-718.791	61.238	-0.258	0.259
-717.777	800.000	0.178	-0.589
-716.762	-56.229	0.205	-0.092
-715.748	800.000	-0.206	-0.582
-714.733	-19.823	-0.180	0.112
-713.718	-74.709	0.103	0.037
-712.704	-158.893	0.350	0.020
-711.689	-200.000	-0.010	0.123
-710.675	201.401	0.399	-0.621
-709.660	485.920	-0.202	-0.464
-708.645	-42.758	-0.623	0.320
-707.631	-143.322	2.012	-0.195
-706.616	-200.000	-0.006	-1.317
-705.602	800.000	-0.188	-0.583
-704.587	73.581	-0.212	-0.224
-703.572	168.809	-0.404	0.582
-702.558	800.000	0.213	-0.661
-701.543	-200.000	-0.385	0.000
-700.529	-19.474	-0.586	-0.367
-699.514	17.256	0.428	-0.343
-698.499	-171.497	0.223	-0.008
-697.485	229.106	-0.070	-0.116
-696.470	-169.471	0.300	-0.011
-695.456	-32.417	0.648	0.365
-694.441	200.579	-0.292	0.454
-693.426	-90.994	0.480	-0.139
-692.412	303.424	0.232	-0.434
-691.397	-100.986	0.260	0.064
-690.383	-101.463	0.465	-0.114
-689.368	132.769	0.415	-0.541
-688.354	91.868	-0.524	0.595
-687.339	-152.851	0.098	0.007
-686.324	-83.189	0.289	-0.094
-685.310	-94.734	-0.958	-0.263
-684.295	208.498	-0.739	-1.168
-683.281	-180.247	0.559	-0.012
-682.266	62.273	-0.589	-0.594
-681.251	-200.000	-0.016	-0.383
-680.237	-200.000	0.087	0.732
-679.222	100.164	-0.518	0.606
-678.208	99.788	-0.292	-0.342
-677.193	107.747	-0.254	-0.306
-676.178	-200.000	-0.105	-0.506
-675.164	-200.000	0.015	0.193
-674.149	-127.660	0.298	0.043
-673.135	47.176	0.587	-0.552
-672.120	-130.988	-0.310	-0.042
-671.105	-58.375	-0.180	0.079
-670.091	-27.738	0.132	0.077
-669.076	-185.582	0.998	0.015
-668.062	800.000	-0.165	-0.506
-667.047	-19.191	0.915	-0.573
-666.032	-200.000	0.044	-0.655
-665.018	-35.809	0.644	-0.352
-664.003	392.817	0.360	-0.756
-662.989	-172.150	0.182	-0.006
-661.974	-200.000	-0.144	-0.648
-660.959	-200.000	0.049	-0.320
-659.945	800.000	-0.113	-0.403
-658.930	-59.953	-0.209	-0.090
-657.916	122.248	-0.393	0.495
-656.901	-7.390	0.455	-0.311
-655.886	-200.000	0.083	0.600
-654.872	-200.000	-0.028	-0.694
-653.857	-9.411	-0.246	0.166
-652.843	-200.000	-0.058	0.265
-651.828	-66.591	-0.433	-0.173
-650.814	88.335	0.318	0.357
-649.799	23.194	0.290	-0.240
-648.784	-16.736	-0.470	0.300
-647.770	-200.000	-0.038	0.571
-646.755	-79.375	-0.307	0.105
-645.741	194.489	-0.345	0.527
-644.726	92.756	0.582	-0.662
-643.711	-200.000	0.038	-0.321
-642.697	-103.091	-0.040	-0.010
-641.682	-200.000	0.123	-0.875
-640.668	15.929	-0.660	-0.524
-639.653	-45.948	-0.640	0.318
-638.638	483.941	-0.064	0.147
-637.624	-117.872	0.538	0.097
-636.609	-171.750	-0.895	0.030
-635.595	280.185	0.471	0.849
-634.580	155.888	0.117	-0.162
-633.565	177.474	-0.445	0.653
-632.551	-200.000	-0.037	0.807
-631.536	-200.000	-0.024	-1.086
-630.522	-200.000	0.055	0.278
-629.507	178.363	-0.570	-0.838
-628.492	-57.741	-0.248	-0.110
-627.478	-13.627	0.471	-0.307
-626.463	798.106	-0.130	0.361
-625.449	-73.825	0.811	0.297
-624.434	-151.104	-0.782	-0.059
-623.419	-200.000	0.005	0.140
-622.405	-200.000	0.035	0.430
-621.390	800.000	-0.081	-0.355
-620.376	-184.409	-0.570	-0.009
-619.361	800.000	0.195	-0.543
-618.346	-200.000	-0.002	0.077
-617.332	-156.009	0.599	0.038
-616.317	399.626	0.131	-0.276
-615.303	-52.656	0.959	-0.446
-614.288	654.189	0.067	-0.173
-613.273	800.000	-0.182	0.785
-612.259	-80.516	0.903	0.303
-611.244	26.771	0.466	-0.393
-610.230	-103.322	-0.409	0.097
-609.215	-118.809	0.434	0.077
-608.201	-141.274	-0.810	0.083
-607.186	-35.661	-0.844	-0.461
-606.171	-64.046	0.220	0.090
-605.157	-200.000	-0.017	-0.196
-604.142	800.000	-0.216	0.612
-603.128	99.395	0.082	-0.096
-602.113	800.000	-0.337	-1.054
-601.098	468.391	-0.195	-0.441
-600.084	211.715	-0.164	-0.260
-599.069	444.505	0.146	-0.323
-598.055	217.940	-0.315	0.505
-597.040	119.198	0.339	-0.423
-596.025	305.064	0.398	0.745
-595.011	-36.077	-0.215	0.117
-593.996	-200.000	0.047	0.629
-592.982	-200.000	-0.039	0.244
-591.967	135.269	-0.395	-0.516
-590.952	-48.161	-0.305	-0.148
-589.938	408.886	0.129	-0.274
-588.923	800.000	-0.127	0.369
-587.909	-23.376	-0.600	0.363
-586.894	-200.000	0.087	-0.506
-585.879	-126.382	-0.549	0.082
-584.865	-200.000	-0.027	0.569
-583.850	43.144	-0.748	0.687
-582.836	-200.000	0.041	-0.740
-581.821	-200.000	-0.086	-0.809
-580.806	800.000	0.072	-0.283
-579.792	92.799	0.820	-0.931
-578.777	-112.455	-0.313	0.063
-577.763	38.566	-0.228	0.204
-576.748	118.668	0.106	-0.132
-575.733	-142.584	-0.696	-0.069
-574.719	-69.399	-0.588	0.227
-573.704	-80.438	-0.573	-0.192
-572.690	-135.616	-0.428	-0.051
-571.675	197.460	-0.514	-0.789
-570.661	516.939	0.251	0.591
-569.646	800.000	0.089	-0.379
-568.631	800.000	-0.150	0.577
-567.617	-80.933	-0.551	0.184
-566.602	274.084	-0.197	-0.351
-565.588	800.000	-0.109	0.440
-564.573	-200.000	-0.073	0.612
-563.558	-143.536	-0.555	-0.053
-562.544	-83.843	0.668	-0.214
-561.529	-200.000	0.069	0.319
-560.515	-200.000	-0.034	0.403
-559.500	-109.406	0.532	0.113
-558.485	-98.682	-0.488	-0.125
-557.471	-169.552	-0.418	-0.015
-556.456	-43.599	0.721	0.365
-555.442	-124.328	0.330	-0.052
-554.427	16.060	-0.555	0.440
-553.412	-23.218	-0.432	0.261
-552.398	800.000	-0.081	-0.256
-551.383	39.858	0.530	0.478
-550.369	381.991	0.211	0.434
-549.354	79.381	0.418	0.450
-548.339	-200.000	-0.031	0.414
-547.325	37.917	-0.633	0.566
-546.310	753.926	0.242	-0.656
-545.296	-200.000	0.018	-0.095
-544.281	-42.373	0.549	0.281
-543.266	158.190	0.171	0.238
-542.252	-10.902	0.138	-0.091
-541.237	-128.082	0.658	0.095
-540.223	-46.671	-0.150	-0.074
-539.208	-12.400	0.806	-0.529
-538.193	526.723	-0.274	-0.648
-537.179	634.962	-0.071	0.181
-536.164	-200.000	-0.074	-0.876
-535.150	-20.155	0.288	-0.178
-534.135	151.020	-0.145	-0.198
-533.121	800.000	-0.335	-1.034
-532.106	0.112	0.578	0.413
-531.091	125.816	0.215	0.273
-530.077	93.276	0.430	-0.488
-529.062	-7.138	0.090	-0.061
-528.048	40.012	0.310	0.279
-527.033	12.389	-0.812	-0.628
-526.018	16.134	0.425	-0.336
-525.004	95.968	0.740	-0.848
-523.989	210.612	0.072	0.114
-522.975	-33.556	-0.562	0.312
-521.960	84.594	-0.605	0.665
-520.945	170.302	-0.272	0.390
-519.931	-113.265	0.254	-0.050
-518.916	-121.077	-1.001	0.168
-517.902	1.457	-0.403	-0.291
-516.887	-154.847	0.506	0.034
-515.872	-29.779	-0.682	0.390
-514.858	-57.775	0.768	0.337
-513.843	501.176	-0.133	-0.308
-512.829	-88.012	-0.329	-0.099
-511.814	138.839	0.120	0.158
-510.799	15.185	-0.476	0.374
-509.785	39.167	0.192	0.172
-508.770	123.937	0.632	0.795
-507.756	-83.974	0.451	0.144
-506.741	-76.945	0.475	0.166
-505.726	800.000	-0.111	0.399
-504.712	-84.771	-0.826	-0.260
-503.697	-200.000	-0.041	0.388
-502.683	223.257	0.283	0.458
-501.668	402.814	0.344	0.725
-500.653	-60.694	-0.689	0.293
-499.639	800.000	-0.199	-0.719
-498.624	800.000	0.256	0.798
-497.610	-18.617	0.234	0.147
-496.595	800.000	0.048	0.195
-495.581	55.186	-0.550	-0.533
-494.566	-50.843	-0.172	-0.081
-493.551	800.000	-0.127	0.393
-492.537	83.075	0.698	-0.761
-491.522	-107.172	-0.471	-0.104
-490.508	-121.202	-0.125	-0.021
-489.493	311.830	-0.308	0.579
-488.478	33.630	0.386	-0.336
-487.464	-51.619	0.409	0.191
-486.449	753.797	-0.178	0.481
-485.435	-64.532	0.417	0.170
-484.420	132.703	0.059	0.076
-483.405	-129.932	0.186	-0.026
-482.391	70.491	0.443	-0.459
-481.376	245.753	0.611	-1.031
-480.362	38.236	0.508	-0.453
-479.347	118.057	0.293	0.361
-478.332	77.687	0.296	0.315
-477.318	-167.165	0.416	0.017
-476.303	6.801	-0.539	0.402
-475.289	61.521	0.128	-0.128
-474.274	417.883	0.149	0.319
-473.259	49.791	-0.151	0.143
-472.245	-48.808	0.633	0.304
-471.230	146.205	0.149	-0.201
-470.216	-113.128	0.691	0.136
-469.201	-90.258	0.563	-0.164
-468.186	-200.000	0.005	0.162
-467.172	-200.000	0.034	0.502
-466.157	-96.418	-1.222	-0.323
-465.143	-56.874	0.714	-0.316
-464.128	800.000	-0.293	0.970
-463.113	134.306	0.357	0.464
-462.099	-36.459	0.456	-0.246
-461.084	-115.604	-0.583	0.110
-460.070	-13.958	-0.416	-0.269
-459.055	737.543	-0.096	0.258
-458.040	56.776	0.234	-0.228
-457.026	-200.000	0.100	-0.443
-456.011	800.000	-0.207	0.668
-454.997	-200.000	-0.083	-1.107
-453.982	647.143	0.164	0.420
-452.968	28.686	-0.685	-0.581
-451.953	155.966	0.030	0.041
-450.938	-200.000	0.099	-1.000
-449.924	-62.753	-0.320	-0.132
-448.909	-42.097	-0.433	0.221
-447.895	-24.503	-0.093	0.056
-446.880	-200.000	0.050	-0.715
-445.865	-54.134	0.885	0.403
-444.851	-200.000	0.026	-0.179
-443.836	-140.710	-0.493	0.051
-442.822	258.597	-0.143	0.247
-441.807	72.585	-0.289	-0.302
-440.792	-13.915	0.442	-0.285
-439.778	76.853	-0.244	0.259
-438.763	-111.079	-0.826	-0.169
-437.749	800.000	0.267	-0.739
-436.734	108.481	-0.297	-0.355
-435.719	506.126	0.225	0.522
-434.705	-112.948	-0.490	0.097
-433.690	85.522	-0.228	-0.250
-432.676	-46.768	0.264	0.129
-431.661	108.544	0.531	-0.634
-430.646	37.345	-0.224	0.198
-429.632	127.244	-0.137	0.174
-428.617	-133.344	0.084	-0.011
-427.603	-64.916	-0.175	-0.071
-426.588	18.967	-0.279	0.223
-425.573	262.652	-0.580	1.006
-424.559	800.000	0.027	0.104
-423.544	68.833	0.142	0.146
-422.530	-72.756	-0.721	0.265
-421.515	-200.000	-0.035	0.517
-420.500	178.577	0.278	0.406
-419.486	-50.822	-0.498	0.234
-418.471	-141.891	1.231	0.123
-417.457	184.951	-0.310	0.460
-416.442	8.317	0.793	-0.596
-415.428	-200.000	-0.001	0.433
-414.413	-200.000	-0.083	-0.603
-413.398	-106.714	0.492	-0.109
-412.384	86.198	-0.291	-0.320
-411.369	529.806	0.077	0.182
-410.355	-46.128	-0.400	0.197
-409.340	288.559	-0.108	0.195
-408.325	-200.000	0.000	-0.569
-407.311	-138.183	0.765	0.085
-406.296	-53.960	-0.432	-0.196
-405.282	-182.439	-0.527	-0.010
-404.267	-101.122	0.166	-0.041
-403.252	213.880	-0.386	0.610
-402.238	-44.832	-0.689	0.343
-401.223	-122.489	-0.144	-0.023
-400.209	232.362	-0.219	0.358
-399.194	-126.336	0.694	0.103
-398.179	278.864	0.357	-0.636
-397.165	-104.914	0.326	-0.075
-396.150	800.000	0.163	0.634
-395.136	82.372	0.679	0.736
-394.121	-106.813	-0.166	0.037
-393.106	157.857	0.285	0.394
-392.092	171.069	0.141	0.202
-391.077	-196.984	0.507	0.003
-390.063	-26.746	0.470	0.274
-389.048	-200.000	0.000	0.100
-388.033	149.600	0.115	0.155
-387.019	64.344	0.419	0.421
-386.004	47.876	-0.516	-0.481
-384.990	17.185	0.323	-0.255
-383.975	351.316	0.166	0.327
-382.960	-96.032	-0.168	-0.045
-381.946	20.738	-0.371	0.300
-380.931	204.613	0.211	-0.326
-379.917	186.517	-0.061	0.091
-378.902	-95.572	0.316	-0.085
-377.888	-120.001	0.401	0.069
-376.873	-200.000	0.064	0.849
-375.858	-142.033	-0.275	-0.027
-374.844	800.000	-0.373	-1.031
-373.829	39.225	-0.151	-0.135
-372.815	22.685	-0.113	-0.092
-371.800	84.143	-0.151	0.165
-370.785	14.983	-0.549	0.429
-369.771	23.865	-0.504	0.414
-368.756	800.000	-0.222	-0.897
-367.742	292.617	0.199	-0.362
-366.727	-185.326	0.158	-0.002
-365.712	-35.438	-1.117	0.605
-364.698	-13.005	0.368	-0.239
-363.683	-57.664	0.753	-0.329
-362.669	800.000	-0.143	0.481
-361.654	396.435	-0.270	-0.561
-360.639	-68.145	0.474	-0.184
-359.625	-66.908	-0.233	0.092
-358.610	744.046	0.135	0.361
-357.596	533.583	0.084	-0.198
-356.581	45.562	-0.645	-0.594
-355.566	378.159	0.438	0.892
-354.552	800.000	0.136	-0.542
-353.537	406.246	0.345	0.725
-352.523	372.793	-0.160	-0.325
-351.508	12.041	-0.024	0.018
-350.493	329.072	-0.127	0.243
-349.479	-112.028	0.363	0.073
-348.464	13.791	-0.156	-0.121
-347.450	161.459	-0.073	0.102
-346.435	800.000	0.147	0.449
-345.420	-62.906	1.327	0.547
-344.406	-200.000	-0.140	-1.077
-343.391	103.732	-0.281	-0.329
-342.377	-109.028	0.349	0.074
-341.362	-30.456	-0.464	-0.262
-340.348	35.622	0.253	0.221
-339.333	-197.629	-0.825	0.005
-338.318	310.638	0.097	0.181
-337.304	257.364	0.138	0.236
-336.289	2.424	-0.219	-0.158
-335.275	-200.000	0.028	-0.148
-334.260	-77.162	-0.999	-0.347
-333.245	800.000	0.079	-0.292
-332.231	182.629	0.789	-1.159
-331.216	-200.000	0.005	-0.198
-330.202	-200.000	0.008	0.820
-329.187	-118.364	-1.276	0.226
-328.172	369.436	-0.127	-0.256
-327.158	800.000	-0.117	0.507
-326.143	278.373	0.147	0.261
-325.129	-155.430	-0.544	-0.035
-324.114	469.041	0.076	0.171
-323.099	-49.320	-0.194	-0.092
-322.085	-92.245	-0.678	0.190
-321.070	-171.795	0.220	-0.007
-320.056	800.000	-0.090	0.282
-319.041	761.748	0.151	0.408
-318.026	65.092	0.817	-0.822
-317.012	123.616	0.359	0.448
-315.997	-47.614	-0.890	0.430
-314.983	331.092	0.400	0.766
-313.968	-54.187	0.532	-0.240
-312.953	-152.381	0.777	-0.056
-311.939	800.000	-0.070	0.251
-310.924	-128.282	0.609	-0.086
-309.910	-99.354	-0.700	0.176
-308.895	-200.000	-0.103	0.463
-307.880	800.000	-0.124	0.372
-306.866	-200.000	-0.101	0.827
-305.851	-200.000	-0.044	-0.538
-304.837	671.195	-0.365	0.941
-303.822	243.532	-0.274	0.457
-302.807	-100.279	-0.831	0.205
-301.793	48.105	0.348	-0.324
-300.778	95.137	-0.479	0.542
-299.764	52.398	0.510	0.484
-298.749	-24.934	-0.423	-0.249
-297.735	-200.000	0.001	0.031
-296.720	-115.466	0.235	0.044
-295.705	-145.164	-0.402	-0.036
-294.691	-126.209	-0.198	0.029
-293.676	-200.000	0.127	-0.793
-292.662	-171.860	-0.369	-0.012
-291.647	-122.653	0.470	0.076
-290.632	25.887	-0.397	0.329
-289.618	-10.839	0.440	0.289
-288.603	-74.428	-1.106	-0.397
-287.589	800.000	-0.135	-0.491
-286.574	800.000	0.165	-0.626
-285.559	187.667	-0.051	-0.075
-284.545	-87.107	0.199	-0.060
-283.530	-88.481	-0.520	-0.154
-282.516	-200.000	0.052	0.389
-281.501	55.100	0.132	0.127
-280.486	-200.000	-0.115	0.575
-279.472	-64.103	0.485	0.197
-278.457	-50.795	-0.412	0.193
-277.443	-200.000	-0.032	-0.449
-276.428	-180.803	-0.582	-0.012
-275.413	371.626	-0.310	0.625
-274.399	-200.000	-0.005	0.256
-273.384	800.000	0.066	0.259
-272.370	146.067	0.445	-0.593
-271.355	800.000	0.059	-0.166
-270.340	159.323	-0.106	0.147
-269.326	-22.865	1.006	-0.603
-268.311	-200.000	0.009	-0.143
-267.297	-133.420	-0.469	-0.059
-266.282	-24.649	-0.701	-0.414
-265.267	800.000	0.143	0.580
-264.253	105.824	0.349	0.410
-263.238	256.560	0.439	-0.749
-262.224	-200.000	-0.145	0.769
-261.209	-150.081	0.289	0.022
-260.195	357.670	-0.360	-0.714
-259.180	11.298	-0.362	0.276
-258.165	-65.207	0.685	0.274
-257.151	275.211	0.110	0.193
-256.136	45.110	0.235	0.215
-255.122	-200.000	-0.133	-0.664
-254.107	253.907	0.316	-0.536
-253.092	-200.000	0.051	-0.228
-252.078	800.000	-0.250	0.700
-251.063	608.772	0.300	0.743
-250.049	17.072	0.141	-0.111
-249.034	118.144	0.398	-0.487
-248.019	-128.148	-0.611	-0.087
-247.005	-122.469	-0.734	-0.118
-245.990	-25.027	-0.528	-0.311
-244.976	85.283	0.198	-0.216
-243.961	-200.000	-0.108	-0.869
-242.946	-200.000	-0.088	0.547
-241.932	-61.353	0.361	0.151
-240.917	550.178	-0.216	-0.514
-239.903	-127.303	-0.361	-0.052
-238.888	-200.000	0.035	-0.242
-237.873	-165.580	0.670	-0.029
-236.859	800.000	-0.148	-0.632
-235.844	-63.843	-0.324	0.132
-234.830	-117.843	0.734	-0.131
-233.815	36.929	0.045	-0.040
-232.800	-116.434	0.655	-0.120
-231.786	205.063	0.305	0.469
-230.771	110.654	-0.482	-0.575
-229.757	-5.843	0.185	0.126
-228.742	788.989	-0.113	0.309
-227.727	479.096	0.301	-0.676
-226.713	800.000	-0.094	0.377
-225.698	-24.510	0.666	-0.393
-224.684	-40.955	0.560	-0.287
-223.669	-20.329	0.272	0.166
-222.655	-100.250	0.763	-0.188
-221.640	-200.000	0.021	-0.367
-220.625	103.814	0.615	0.717
-219.611	-200.000	0.077	-0.938
-218.596	-200.000	0.036	-0.676
-217.582	349.743	-0.306	-0.600
-216.567	22.191	0.470	0.380
-215.552	340.886	-0.295	0.570
-214.538	28.960	0.414	-0.348
-213.523	-109.180	0.229	0.048
-212.509	701.632	-0.273	-0.712
-211.494	12.132	-0.748	-0.571
-210.479	-200.000	0.045	0.252
-209.465	-176.686	-0.234	-0.006
-208.450	-26.745	0.361	0.209
-207.436	800.000	-0.083	0.270
-206.421	-43.407	0.381	0.191
-205.406	-54.532	-0.573	0.257
-204.392	-136.422	0.445	0.051
-203.377	800.000	0.089	-0.371
-202.363	369.844	-0.196	-0.393
-201.348	-103.993	0.455	-0.105
-200.333	-106.677	-0.794	-0.175
-199.319	-46.780	1.086	0.527
-198.304	176.823	0.274	0.395
-197.290	-68.501	0.511	0.196
-196.275	-46.317	-0.607	-0.296
-195.260	-42.937	-0.584	0.294
-194.246	84.055	-0.109	-0.118
-193.231	-126.132	-0.340	-0.050
-192.217	321.968	-0.282	-0.532
-191.202	-11.451	0.360	0.235
-190.187	46.008	-0.204	0.187
-189.173	76.511	0.121	-0.127
-188.158	584.507	0.124	-0.302
-187.144	222.388	0.294	-0.469
-186.129	-200.000	-0.020	0.176
-185.114	-60.161	-0.355	0.150
-184.100	-112.789	0.787	-0.155
-183.085	6.114	-0.533	0.391
-182.071	48.416	0.384	0.356
-181.056	-200.000	0.028	-0.292
-180.042	-98.427	-0.222	0.056
-179.027	-129.406	0.262	0.036
-178.012	57.457	-0.549	-0.531
-176.998	-55.135	0.834	0.371
-175.983	148.581	-0.116	0.155
-174.969	-200.000	0.017	0.198
-173.954	-90.880	-0.107	0.030
-172.939	-33.467	0.627	0.343
-171.925	256.167	0.316	-0.537
-170.910	-100.474	-0.836	-0.205
-169.896	-23.154	0.912	0.543
-168.881	-68.276	-0.380	-0.146
-167.866	45.162	-0.180	-0.164
-166.852	-125.190	-0.624	0.095
-165.837	-105.460	0.542	-0.122
-164.823	-81.915	0.341	0.110
-163.808	-200.000	0.009	-0.156
-162.793	104.577	0.373	-0.435
-161.779	-200.000	-0.131	-0.810
-160.764	-200.000	0.081	-0.674
-159.750	333.696	-0.631	-1.208
-158.735	-200.000	-0.039	-0.690
-157.720	-11.929	0.279	-0.181
-156.706	165.336	0.603	0.843
-155.691	116.282	0.364	0.442
-154.677	-200.000	-0.024	-0.356
-153.662	-158.615	-0.692	-0.039
-152.647	-55.822	0.545	-0.241
-151.633	-200.000	0.105	-0.490
-150.618	432.142	0.319	-0.685
-149.604	-66.361	0.127	0.050
-148.589	235.047	-0.588	-0.959
-147.574	-123.238	-0.566	0.090
-146.560	16.342	0.248	-0.194
-145.545	-200.000	0.013	-0.592
-144.531	369.797	0.128	-0.257
-143.516	-200.000	0.115	1.038
-142.502	339.612	0.164	0.316
-141.487	387.443	0.249	-0.509
-140.472	-133.743	0.519	-0.064
-139.458	291.959	-0.150	-0.270
-138.443	50.548	0.390	-0.365
-137.429	-200.000	-0.110	-0.798
-136.414	-186.146	0.419	-0.006
-135.399	-86.622	1.025	0.310
-134.385	-200.000	0.033	-0.533
-133.370	602.640	0.334	-0.821
-132.356	-200.000	-0.073	-0.452
-131.341	57.844	-0.602	-0.582
-130.326	277.975	0.124	0.218
-129.312	-200.000	0.048	0.351
-128.297	-101.098	-0.286	0.069
-127.283	-200.000	-0.038	-0.387
-126.268	480.108	-0.141	-0.316
-125.253	141.128	-0.295	0.385
-124.239	-182.504	0.599	0.011
-123.224	-100.839	0.542	-0.132
-122.210	-98.288	-0.320	-0.081
-121.195	-42.807	0.443	0.223
-120.180	-64.248	0.438	0.176
-119.166	-73.055	-0.245	-0.089
-118.151	-122.661	0.614	-0.098
-117.137	38.814	0.661	0.583
-116.122	109.548	0.425	0.503
-115.107	-200.000	-0.293	-0.001
-114.093	-45.149	0.235	-0.115
-113.078	391.770	0.368	0.755
-112.064	-200.000	0.113	0.582
-111.049	-200.000	0.033	-0.505
-110.034	48.410	0.298	0.276
-109.020	-200.000	-0.023	0.388
-108.005	184.921	0.226	-0.331
-106.991	86.355	0.358	-0.389
-105.976	-200.000	0.025	0.250
-104.962	-153.991	0.806	0.054
-103.947	164.936	-0.254	-0.354
-102.932	-115.896	0.700	-0.129
-101.918	800.000	0.031	-0.120
-100.903	-200.000	-0.003	0.168
-99.889	92.876	0.289	-0.322
-98.874	533.121	0.334	0.782
-97.859	-200.000	-0.018	0.558
-96.845	-135.511	-0.415	0.049
-95.830	428.839	0.099	-0.212
-94.816	10.661	-0.464	-0.349
-93.801	800.000	-0.179	0.722
-92.786	63.278	0.289	-0.286
-91.772	168.701	-0.289	0.407
-90.757	800.000	-0.252	0.711
-89.743	-37.041	0.724	0.383
-88.728	351.881	0.328	0.641
-87.713	553.805	0.254	0.602
-86.699	-18.873	-0.238	-0.146
-85.684	-164.777	-0.303	-0.013
-84.670	-127.970	0.412	0.058
-83.655	138.934	-0.436	-0.565
-82.640	-61.571	0.811	-0.336
-81.626	593.447	0.233	0.567
-80.611	536.383	-0.031	-0.072
-79.597	-133.457	0.819	0.101
-78.582	-42.860	-0.596	-0.298
-77.567	-125.756	0.342	0.051
-76.553	-128.147	-0.348	0.049
-75.538	-77.103	0.537	-0.184
-74.524	2.000	-0.351	0.250
-73.509	129.359	0.388	0.489
-72.494	-22.076	0.503	-0.301
-71.480	-200.000	0.009	-0.305
-70.465	800.000	0.028	-0.093
-69.451	360.488	0.202	0.400
-68.436	0.128	0.336	0.236
-67.422	800.000	-0.142	-0.537
-66.407	-124.597	0.348	-0.053
-65.392	800.000	0.171	-0.575
-64.378	581.311	-0.243	0.586
-63.363	14.960	0.168	0.129
-62.349	2.338	0.768	-0.548
-61.334	718.524	-0.388	-1.017
-60.319	-200.000	0.075	0.776
-59.305	45.445	0.368	-0.335
-58.290	76.343	0.762	0.796
-57.276	-200.000	0.190	2.209
-56.261	-200.000	95.591	579.468
-55.246	658.648	1362.765	3453.688
-54.232	202.712	2523.848	3839.843
-53.217	119.169	2123.790	2587.654
-52.203	44.456	1595.224	1443.378
-51.188	36.322	1335.424	1159.650
-50.173	33.141	1294.622	1105.608
-49.159	56.640	1344.083	1288.254
-48.144	57.623	1361.216	1310.473
-47.130	36.572	1318.421	1146.184
-46.115	33.129	1300.396	1110.292
-45.100	32.953	1294.600	1104.273
-44.086	32.962	1292.751	1102.700
-43.071	32.753	1291.900	1100.713
-42.057	33.183	1287.740	1099.624
-41.042	32.823	1287.249	1097.070
-40.027	33.064	1285.174	1096.655
-39.013	32.939	1283.642	1094.583
-37.998	32.859	1281.385	1092.152
-36.984	32.694	1281.575	1091.312
-35.969	32.877	1278.773	1089.940
-34.954	32.851	1277.495	1088.657
-33.940	33.036	1275.245	1087.766
-32.925	32.935	1274.802	1086.761
-31.911	33.057	1273.038	1085.918
-30.896	33.230	1270.818	1084.974
-29.881	33.152	1269.776	1083.592
-28.867	33.000	1268.991	1082.009
-27.852	33.065	1267.313	1080.910
-26.838	33.103	1265.656	1079.666
-25.823	33.149	1264.128	1078.585
-24.809	33.051	1262.462	1076.560
-23.794	32.950	1261.978	1075.529
-22.779	32.862	1261.000	1074.155
-21.765	33.342	1258.304	1074.541
-20.750	33.096	1258.116	1072.940
-19.736	32.848	1256.653	1070.243
-18.721	32.953	1255.822	1070.088
-17.706	33.144	1254.227	1069.768
-16.692	32.658	1253.967	1066.756
-15.677	32.824	1252.673	1066.549
-14.663	32.902	1250.965	1065.493
-13.648	32.834	1250.303	1064.502
-12.633	32.914	1248.914	1063.731
-11.619	33.077	1248.330	1064.109
-10.604	32.910	1246.902	1061.908
-9.590	32.778	1246.816	1061.050
-8.575	33.073	1244.974	1061.095
-7.560	32.719	1245.344	1059.384
-6.546	32.731	1244.779	1058.929
-5.531	32.483	1243.187	1056.140
-4.517	32.655	1242.887	1056.810
-3.502	33.098	1241.050	1057.685
-2.487	33.205	1240.062	1057.396
-1.473	32.722	1236.558	1051.674
-0.458	31.330	1221.290	1030.972
0.556	28.824	1203.853	993.107
1.571	24.813	1208.499	975.045
2.586	23.832	1223.306	981.487
3.600	23.076	1211.383	967.699
4.615	17.150	1141.227	880.934
5.629	7.707	1065.571	776.523
6.644	3.371	1045.079	740.716
7.659	3.085	1041.746	736.917
8.673	2.687	1041.514	734.778
9.688	2.899	1040.122	734.748
10.702	3.306	1038.157	735.240
11.717	9.248	1047.395	770.263
12.731	19.034	1061.199	827.647
13.746	23.811	1066.459	854.711
14.761	24.798	1067.059	859.864
15.775	24.331	1066.593	857.169
16.790	24.299	1065.232	855.846
17.804	24.267	1066.063	856.281
18.819	24.434	1064.573	855.812
19.834	24.395	1064.471	855.467
20.848	24.222	1064.756	854.791
21.863	24.406	1062.931	854.128
22.877	24.357	1062.272	853.292
23.892	24.619	1061.148	853.563
24.907	24.267	1061.181	851.834
25.921	24.288	1059.817	850.765
26.936	24.166	1058.201	848.808
27.950	24.263	1055.771	847.245
28.965	24.179	1055.094	846.229
29.980	24.304	1053.975	845.851
30.994	24.257	1053.011	844.777
32.009	24.441	1052.394	845.081
33.023	24.015	1051.301	842.111
34.038	24.422	1050.782	843.547
35.053	24.084	1049.834	841.114
36.067	24.482	1048.024	841.469
37.082	24.252	1048.340	840.562
38.096	24.496	1047.908	841.290
39.111	24.393	1046.420	839.537
40.126	24.291	1045.918	838.581
41.140	24.118	1043.795	835.991
42.155	24.068	1042.949	835.006
43.169	23.672	1042.167	832.452
44.184	23.859	1040.916	832.253
45.199	23.832	1040.427	831.662
46.213	23.955	1039.477	831.402
47.228	24.283	1038.855	832.362
48.242	24.548	1037.778	832.664
49.257	24.511	1037.070	831.850
50.271	24.645	1035.788	831.370
51.286	24.409	1035.514	829.978
52.301	24.809	1033.845	830.428
53.315	24.360	1033.182	827.735
54.330	24.360	1033.362	827.808
55.344	24.379	1032.526	827.152
56.359	24.569	1030.697	826.494
57.374	24.156	1030.933	824.695
58.388	24.182	1030.084	824.065
59.403	24.173	1027.849	822.162
60.417	24.093	1028.091	821.915
61.432	23.943	1026.783	820.104
62.447	24.294	1026.247	821.222
63.461	24.084	1026.629	820.485
64.476	23.985	1025.189	818.806
65.490	23.968	1024.359	817.992
66.505	23.798	1024.112	816.943
67.520	24.077	1022.846	817.140
68.534	23.871	1021.325	814.911
69.549	23.684	1021.286	813.950
70.563	23.528	1020.338	812.407
71.578	23.572	1018.095	810.750
72.593	23.435	1018.917	810.708
73.607	23.502	1017.894	810.129
74.622	24.099	1016.237	811.461
75.636	23.789	1017.688	811.130
76.651	23.779	1016.325	809.926
77.666	23.907	1015.281	809.605
78.680	23.826	1014.110	808.231
79.695	23.896	1014.161	808.519
80.709	24.024	1012.932	808.051
81.724	24.275	1011.968	808.348
82.739	24.225	1012.087	808.146
83.753	24.055	1011.834	807.100
84.768	24.583	1010.456	808.320
85.782	24.929	1009.919	809.383
86.797	24.832	1008.875	808.035
87.812	24.548	1007.906	805.908
88.826	24.349	1008.243	805.209
89.841	24.642	1006.775	805.283
90.855	24.469	1006.371	804.109
91.870	24.958	1003.831	804.206
92.884	24.504	1003.663	801.963
93.899	24.559	1003.657	802.131
94.914	24.713	1002.101	801.508
95.928	24.461	1001.372	799.726
96.943	24.187	1000.764	797.943
97.957	24.447	999.419	797.964
98.972	24.357	999.037	797.185
99.987	24.490	997.440	796.433
101.001	24.572	996.644	796.093
102.016	24.396	995.557	794.370
103.030	24.719	994.693	795.047
104.045	24.640	994.233	794.257
105.060	24.664	992.471	792.885
106.074	24.274	993.225	791.689
107.089	24.287	992.295	790.935
108.103	24.104	991.754	789.622
109.118	24.229	989.252	788.115
110.133	24.115	988.593	787.015
111.147	24.051	987.270	785.608
112.162	23.960	986.616	784.617
113.176	24.086	985.905	784.537
114.191	24.103	985.323	784.080
115.206	23.866	984.066	781.966
116.220	23.846	983.646	781.477
117.235	23.886	982.814	780.923
118.249	23.888	982.139	780.326
119.264	23.912	980.832	779.324
120.279	23.626	980.449	777.695
121.293	23.768	979.568	777.553
122.308	23.926	978.689	777.475
123.322	23.617	978.169	775.643
124.337	23.616	976.846	774.521
125.352	23.628	976.209	774.000
126.366	23.405	974.862	771.893
127.381	23.800	975.591	774.122
128.395	24.363	973.789	775.072
129.410	24.235	972.788	773.651
130.424	23.944	973.220	772.660
131.439	24.254	972.061	773.017
132.454	24.323	969.829	771.472
133.468	24.381	969.681	771.537
134.483	24.587	968.687	771.571
135.497	24.812	967.607	771.612
136.512	24.545	967.790	770.537
137.527	24.965	966.657	771.376
138.541	24.473	965.984	768.652
139.556	24.269	965.349	767.201
140.570	24.353	965.882	767.918
141.585	24.702	963.998	767.853
142.600	24.471	963.422	766.335
143.614	24.836	961.909	766.626
144.629	24.897	961.483	766.479
145.643	24.663	960.814	764.876
146.658	24.668	958.351	762.870
147.673	24.419	957.706	761.227
148.687	24.288	956.858	759.927
149.702	24.624	956.329	760.873
150.716	24.389	954.865	758.640
151.731	24.319	954.700	758.145
152.746	24.218	955.261	758.093
153.760	24.712	953.507	758.732
154.775	24.608	952.914	757.753
155.789	24.520	952.349	756.863
156.804	24.730	950.846	756.490
157.819	24.479	950.676	755.224
158.833	24.745	950.548	756.181
159.848	25.204	949.129	756.924
160.862	25.239	947.356	755.591
161.877	24.559	946.442	751.933
162.892	24.398	946.333	751.102
163.906	24.584	945.374	751.054
164.921	24.538	944.359	749.988
165.935	24.889	942.961	750.285
166.950	24.687	942.570	749.060
167.964	24.776	941.655	748.639
168.979	24.270	941.000	745.935
169.994	24.735	939.374	746.524
171.008	24.849	939.746	747.231
172.023	24.911	938.407	746.357
173.037	24.924	936.883	745.134
174.052	24.659	936.275	743.481
175.067	24.891	935.432	743.709
176.081	24.456	935.073	741.554
177.096	24.576	934.235	741.318
178.110	24.196	934.425	739.828
179.125	23.959	933.729	738.226
180.140	24.235	933.131	738.832
181.154	24.730	931.616	739.616
182.169	24.427	932.251	738.802
183.183	24.615	931.063	738.572
184.198	24.512	930.733	737.820
185.213	24.448	931.164	737.830
186.227	24.691	928.948	737.012
187.242	24.490	929.720	736.731
188.256	25.224	928.003	738.325
189.271	24.750	927.535	735.940
190.286	24.326	926.617	733.399
191.300	24.399	925.011	732.365
192.315	23.778	924.658	729.473
193.329	23.675	924.167	728.598
194.344	24.328	924.075	731.137
195.359	24.427	925.323	732.466
196.373	25.250	922.834	733.800
197.388	25.362	922.061	733.576
198.402	25.040	922.105	732.233
199.417	25.248	920.963	732.109
200.432	25.198	920.288	731.302
201.446	24.956	920.488	730.413
202.461	25.104	919.337	730.035
203.475	24.297	918.557	726.067
204.490	23.877	916.974	723.046
205.504	24.134	917.962	724.807
206.519	24.511	916.957	725.480
207.534	24.930	915.812	726.209
208.548	24.983	915.814	726.362
209.563	24.715	915.404	724.886
210.577	25.076	914.436	725.516
211.592	24.977	914.689	725.254
212.607	25.081	912.487	723.862
213.621	25.198	912.182	724.026
214.636	25.295	911.467	723.787
215.650	25.045	911.128	722.446
216.665	25.051	910.632	722.013
217.680	24.697	910.155	720.145
218.694	24.914	908.741	719.836
219.709	25.093	907.745	719.700
220.723	24.540	908.015	717.631
221.738	24.716	906.867	717.367
222.753	24.752	905.967	716.737
223.767	24.967	906.164	717.688
224.782	25.441	905.904	719.320
225.796	25.104	904.382	716.700
226.811	24.824	903.921	715.152
227.826	24.133	903.903	712.310
228.840	24.380	902.608	712.212
229.855	24.475	901.136	711.368
230.869	24.266	901.363	710.653
231.884	24.414	900.707	710.659
232.899	24.511	901.104	711.297
233.913	24.911	898.877	711.064
234.928	24.602	899.415	710.201
235.942	24.469	898.561	708.937
236.957	24.380	896.764	707.101
237.972	24.482	896.369	707.131
238.986	24.575	895.986	707.134
240.001	24.288	896.414	706.275
241.015	24.479	894.470	705.435
242.030	24.517	894.649	705.663
243.045	24.825	893.939	706.258
244.059	24.905	893.804	706.402
245.074	24.683	892.798	704.670
246.088	24.876	892.969	705.505
247.103	25.213	891.797	705.840
248.117	25.448	892.644	707.374
249.132	25.480	892.255	707.131
250.147	25.863	891.543	708.007
251.161	25.921	890.511	707.353
252.176	25.747	890.056	706.248
253.190	26.099	888.297	706.168
254.205	25.639	888.914	704.793
255.220	25.558	888.276	703.907
256.234	25.260	887.417	701.999
257.249	25.524	886.360	702.131
258.263	25.162	887.430	701.503
259.278	25.257	885.685	700.431
260.293	25.315	885.365	700.345
261.307	25.839	883.684	700.990
262.322	25.475	883.938	699.712
263.336	25.300	883.106	698.312
264.351	24.841	881.846	695.472
265.366	25.086	881.043	695.726
266.380	25.786	880.209	697.720
267.395	25.726	880.219	697.432
268.409	25.548	879.690	696.263
269.424	25.629	878.916	695.903
270.439	25.162	878.523	693.722
271.453	25.374	878.243	694.261
272.468	25.477	877.492	694.004
273.482	25.852	876.681	694.748
274.497	25.643	876.209	693.506
275.512	25.342	875.852	692.003
276.526	25.633	874.996	692.385
277.541	25.803	874.952	692.945
278.555	25.618	874.078	691.479
279.570	25.735	873.562	691.457
280.585	25.604	873.020	690.467
281.599	25.571	871.935	689.420
282.614	25.104	870.878	686.733
283.628	25.233	870.496	686.868
284.643	25.469	870.166	687.448
285.657	24.874	870.275	685.195
286.672	25.160	869.601	685.697
287.687	25.280	868.027	684.855
288.701	25.252	867.774	684.490
289.716	25.466	866.666	684.369
290.730	25.162	867.328	683.672
291.745	25.169	865.696	682.353
292.760	25.458	865.669	683.370
293.774	25.835	865.360	684.497
294.789	25.951	865.358	684.876
295.803	25.780	864.017	683.104
296.818	25.678	863.125	681.955
297.833	25.601	862.022	680.730
298.847	25.691	861.461	680.569
299.862	25.557	861.897	680.344
300.876	25.551	861.708	680.114
301.891	25.868	861.403	681.012
302.906	26.003	859.836	680.220
303.920	26.233	860.069	681.211
304.935	25.846	860.276	679.857
305.949	25.751	859.184	678.575
306.964	25.834	857.494	677.491
307.979	25.501	858.041	676.611
308.993	25.886	857.368	677.466
310.008	26.193	857.078	678.332
311.022	25.632	855.702	675.078
312.037	25.421	855.632	674.171
313.052	25.243	856.025	673.755
314.066	25.088	853.189	670.883
315.081	24.978	852.837	670.133
316.095	25.492	852.399	671.653
317.110	25.634	851.560	671.460
318.125	24.949	851.688	668.945
319.139	24.778	848.961	666.107
320.154	24.475	849.577	665.403
321.168	24.956	849.675	667.212
322.183	25.122	849.748	667.831
323.197	25.290	849.290	668.036
324.212	25.155	848.087	666.530
325.227	25.134	847.273	665.751
326.241	25.352	846.315	665.750
327.256	25.269	846.884	665.831
328.270	25.470	845.807	665.670
329.285	25.151	844.969	663.771
330.300	24.966	843.769	662.083
331.314	25.080	844.026	662.650
332.329	25.587	843.548	664.089
333.343	25.577	843.719	664.127
334.358	25.441	843.502	663.393
335.373	25.294	843.208	662.564
336.387	25.684	842.746	663.579
337.402	25.971	843.055	664.820
338.416	26.161	843.045	665.456
339.431	26.190	841.693	664.436
340.446	26.509	841.042	665.036
341.460	26.183	841.478	664.124
342.475	26.411	841.301	664.763
343.489	26.517	840.389	664.372
344.504	26.629	839.771	664.237
345.519	26.669	839.170	663.848
346.533	26.491	839.050	663.044
347.548	26.180	837.994	661.010
348.562	26.222	837.852	660.994
349.577	26.042	836.769	659.425
350.592	25.772	836.567	658.220
351.606	25.885	835.511	657.745
352.621	26.330	834.064	658.168
353.635	25.616	835.083	656.307
354.650	25.725	833.740	655.592
355.665	25.287	833.057	653.403
356.679	25.538	832.484	653.807
357.694	25.628	832.962	654.453
358.708	25.815	830.787	653.363
359.723	25.875	829.920	652.842
360.738	25.877	829.530	652.485
361.752	26.049	829.671	653.160
362.767	25.969	829.272	652.498
363.781	26.604	827.758	653.543
364.796	26.289	827.842	652.415
365.810	26.546	827.463	652.987
366.825	26.362	827.312	652.144
367.840	26.335	826.906	651.671
368.854	26.069	826.633	650.439
369.869	25.774	826.951	649.565
370.883	26.060	825.441	649.353
371.898	26.305	826.102	650.697
372.913	26.088	824.966	648.967
373.927	25.936	823.735	647.392
374.942	25.991	824.239	647.930
375.956	25.838	823.469	646.716
376.971	26.109	823.653	647.778
377.986	26.127	822.821	647.131
379.000	26.370	822.371	647.590
380.015	26.310	821.483	646.619
381.029	26.378	820.156	645.762
382.044	26.145	820.176	644.885
383.059	26.903	818.726	646.391
384.073	26.318	818.490	644.064
385.088	26.063	817.866	642.609
386.102	25.431	817.615	640.104
387.117	26.225	816.402	641.919
388.132	25.789	815.603	639.685
389.146	26.018	814.645	639.690
390.161	26.140	814.534	639.980
391.175	26.257	815.443	641.054
392.190	26.539	813.918	640.794
393.205	25.706	812.999	637.069
394.219	25.164	811.512	633.931
395.234	24.910	810.656	632.309
396.248	25.219	812.270	634.603
397.263	25.718	811.407	635.636
398.278	25.933	810.814	635.875
399.292	25.874	809.964	634.945
400.307	25.702	810.123	634.407
401.321	25.614	809.902	633.867
402.336	25.811	809.937	634.533
403.350	26.232	810.255	636.210
404.365	26.697	808.754	636.608
405.380	26.647	808.441	636.130
406.394	26.642	808.877	636.399
407.409	26.891	807.345	636.011
408.423	26.766	807.631	635.742
409.438	26.893	807.153	635.752
410.453	26.842	806.112	634.700
411.467	26.285	806.147	632.722
412.482	26.908	805.207	634.106
413.496	26.596	804.944	632.754
414.511	26.887	804.584	633.429
415.526	26.704	804.415	632.602
416.540	26.703	804.089	632.283
417.555	26.409	803.857	631.020
418.569	26.321	803.360	630.268
419.584	26.680	802.107	630.480
420.599	26.885	802.062	631.101
421.613	160.119	1370.926	1793.658
422.628	139.033	1453.803	1793.692
