DTS Sentinel unit serial number:	SN413079Multiplexer serial number:	ORYXHardware model number:	OX4-SRSoftware version number:	ORYX F/W v4.00 Oryx Data Collector v3.7.2.0data status	okinstallation	princeton_trtdifferential loss correction	single-endedforward channel	channel 1reverse channel	N/Adate	2019/09/13time	03:54:35forward acquisition time	60.00reverse acquisition time	0.00gamma	496.2192k internal	0.2333k external	0.2333temperature offset calibration	1.0161default loss term (dB/km)	0.3790temperature slope calibration	1.0000multiplexer offset coefficient	1.0000multiplexer slope coefficient	1.0000fibre end	0.00T internal ref (°C)	27.06T ext. ref 1 (°C)	4.09T ext. ref 2 (°C)	21.36length (m)	temperature (°C)	Stokes	anti-Stokes-747.200	105.703	-0.047	0.056
-746.185	504.121	-0.059	-0.137
-745.171	-184.221	0.479	-0.008
-744.156	593.327	0.070	-0.173
-743.142	-27.769	-0.254	-0.148
-742.127	800.000	0.105	0.438
-741.112	-200.000	0.009	-0.077
-740.098	-200.000	0.016	0.288
-739.083	800.000	-0.056	0.167
-738.069	254.620	-0.063	0.109
-737.054	-104.959	0.139	0.032
-736.039	-200.000	-0.014	0.165
-735.025	23.305	0.291	0.241
-734.010	-131.000	-0.360	0.048
-732.996	0.149	0.249	-0.178
-731.981	-200.000	0.012	-0.065
-730.966	-45.398	0.189	0.094
-729.952	-70.624	-0.453	0.172
-728.937	96.274	0.146	0.168
-727.923	-30.757	0.364	-0.207
-726.908	-200.000	-0.007	0.044
-725.894	-200.000	0.022	-0.158
-724.879	93.745	-0.170	0.194
-723.864	32.031	0.280	-0.242
-722.850	-200.000	0.046	-0.254
-721.835	-68.036	-0.149	0.059
-720.821	-199.451	-0.179	0.001
-719.806	117.701	-0.088	-0.109
-718.791	-67.682	0.272	-0.107
-717.777	59.493	0.297	-0.295
-716.762	-137.854	-0.325	-0.036
-715.748	-182.518	-0.232	-0.004
-714.733	-200.000	0.011	-0.348
-713.718	-65.297	0.055	-0.022
-712.704	163.077	0.099	-0.140
-711.689	184.004	0.077	0.114
-710.675	-142.033	0.246	0.025
-709.660	-55.233	0.104	0.047
-708.645	-58.315	0.112	0.049
-707.631	-89.106	0.302	0.090
-706.616	140.017	-0.298	0.395
-705.602	800.000	0.045	-0.134
-704.587	246.271	-0.149	-0.253
-703.572	-200.000	-0.011	0.419
-702.558	-200.000	0.057	0.300
-701.543	-200.000	-0.007	-0.095
-700.529	0.796	-0.166	0.119
-699.514	162.857	-0.099	-0.139
-698.499	-55.384	0.228	0.103
-697.485	376.306	0.052	0.106
-696.470	800.000	-0.050	0.150
-695.456	-128.591	0.220	0.031
-694.441	296.109	0.120	0.221
-693.426	800.000	-0.096	-0.373
-692.412	-200.000	0.004	0.188
-691.397	-107.501	0.228	0.050
-690.383	39.096	-0.172	-0.155
-689.368	262.947	0.166	0.289
-688.354	-200.000	-0.010	-0.235
-687.339	-42.775	0.126	0.064
-686.324	-84.320	0.495	0.157
-685.310	97.274	-0.148	-0.170
-684.295	285.527	-0.080	-0.145
-683.281	-138.269	-0.264	0.029
-682.266	-68.046	-0.422	-0.165
-681.251	18.617	0.137	0.110
-680.237	540.892	-0.104	0.249
-679.222	-200.000	-0.019	0.175
-678.208	-135.641	-0.144	0.017
-677.193	187.965	0.069	-0.103
-676.178	57.206	-0.043	0.042
-675.164	135.128	0.101	-0.131
-674.149	-115.058	-0.320	0.061
-673.135	116.736	-0.054	0.067
-672.120	-76.320	-0.181	-0.064
-671.105	-200.000	-0.026	0.422
-670.091	172.928	-0.177	0.256
-669.076	-73.434	0.120	-0.044
-668.062	-17.201	-0.098	0.062
-667.047	800.000	-0.062	-0.237
-666.032	70.546	-0.067	0.070
-665.018	-200.000	0.044	-0.269
-664.003	-200.000	-0.019	-0.286
-662.989	317.073	-0.134	-0.255
-661.974	-140.645	-0.094	-0.010
-660.959	483.564	-0.134	-0.306
-659.945	15.977	-0.044	0.035
-658.930	-38.674	0.044	0.023
-657.916	-29.040	-0.042	-0.024
-656.901	-29.722	-0.225	-0.129
-655.886	-189.415	-0.131	0.002
-654.872	-84.641	0.109	-0.034
-653.857	-195.696	-0.075	-0.001
-652.843	293.340	0.073	-0.134
-651.828	548.565	-0.056	-0.135
-650.814	-176.199	-0.334	0.009
-649.799	422.152	0.024	-0.053
-648.784	88.797	0.159	-0.177
-647.770	800.000	-0.076	-0.297
-646.755	-116.594	0.348	-0.064
-645.741	-200.000	0.010	0.193
-644.726	-31.722	-0.338	0.190
-643.711	136.460	0.209	-0.273
-642.697	-44.748	-0.121	-0.061
-641.682	-81.185	0.176	0.058
-640.668	105.186	-0.213	-0.251
-639.653	-2.468	0.127	0.089
-638.638	-167.721	-0.074	-0.003
-637.624	-29.815	-0.310	-0.177
-636.609	3.125	0.289	0.210
-635.595	-35.569	0.304	0.165
-634.580	41.887	0.285	-0.259
-633.565	84.278	-0.116	-0.127
-632.551	113.565	-0.092	-0.112
-631.536	74.522	-0.089	0.094
-630.522	-170.890	-0.135	0.005
-629.507	800.000	0.048	-0.198
-628.492	-45.209	0.338	0.168
-627.478	105.281	0.113	0.134
-626.463	-94.102	0.087	-0.024
-625.449	32.050	0.266	-0.230
-624.434	-65.803	-0.278	0.111
-623.419	48.757	0.252	-0.237
-622.405	-131.640	-0.381	-0.050
-621.390	79.698	0.163	0.175
-620.376	60.240	0.413	0.408
-619.361	307.502	-0.148	0.276
-618.346	-200.000	0.032	0.184
-617.332	-200.000	-0.010	-0.199
-616.317	515.348	-0.127	-0.297
-615.303	28.231	-0.316	-0.267
-614.288	800.000	0.046	-0.195
-613.273	800.000	0.032	0.138
-612.259	-123.408	-0.162	0.026
-611.244	-200.000	-0.040	-0.183
-610.230	128.332	-0.324	-0.413
-609.215	-200.000	-0.042	-0.217
-608.201	196.253	0.082	-0.125
-607.186	-190.652	-0.079	-0.001
-606.171	-200.000	0.017	-0.102
-605.157	523.702	0.019	-0.045
-604.142	-124.072	0.337	0.053
-603.128	-200.000	0.092	-0.441
-602.113	55.805	0.157	-0.152
-601.098	-75.731	0.504	0.179
-600.084	-200.000	-0.001	0.027
-599.069	-130.458	0.378	0.051
-598.055	-6.173	0.292	-0.199
-597.040	-88.545	0.263	0.078
-596.025	-200.000	0.023	0.126
-595.011	478.608	0.085	-0.193
-593.996	-22.971	0.080	0.048
-592.982	-166.607	-0.288	-0.012
-591.967	123.395	0.189	-0.236
-590.952	800.000	-0.080	0.325
-589.938	737.629	0.034	0.091
-588.923	-172.061	-0.288	-0.009
-587.909	283.615	-0.120	0.216
-586.894	-31.130	-0.219	-0.124
-585.879	-121.349	-0.086	0.014
-584.865	800.000	-0.044	0.168
-583.850	-65.354	-0.150	-0.060
-582.836	-200.000	0.015	-0.074
-581.821	-102.863	-0.204	0.049
-580.806	322.555	-0.106	0.202
-579.792	-151.186	0.117	-0.009
-578.777	230.652	-0.037	-0.061
-577.763	-200.000	0.000	-0.102
-576.748	800.000	0.069	-0.200
-575.733	26.308	-0.107	-0.089
-574.719	113.237	0.111	0.135
-573.704	-26.775	-0.369	0.216
-572.690	90.523	0.326	-0.365
-571.675	-200.000	-0.066	-0.315
-570.661	-24.341	-0.160	-0.096
-569.646	-73.070	-0.316	-0.116
-568.631	52.608	0.269	0.257
-567.617	-50.543	-0.084	0.039
-566.602	-200.000	0.015	0.314
-565.588	142.470	0.047	0.062
-564.573	485.498	0.069	-0.157
-563.558	124.969	0.187	0.235
-562.544	111.805	-0.165	0.199
-561.529	-138.120	0.165	0.018
-560.515	33.693	-0.195	-0.169
-559.500	800.000	-0.080	-0.257
-558.485	-144.824	0.043	-0.004
-557.471	393.898	0.278	0.578
-556.456	-200.000	0.021	-0.348
-555.442	-200.000	0.012	-0.161
-554.427	-37.437	0.291	-0.155
-553.412	-88.626	-0.063	-0.019
-552.398	-76.202	0.406	-0.143
-551.383	-200.000	0.002	0.018
-550.369	-135.757	-0.194	0.023
-549.354	-67.913	0.242	0.094
-548.339	-105.806	-0.196	-0.044
-547.325	305.521	-0.143	-0.266
-546.310	800.000	0.044	-0.131
-545.296	376.320	0.027	-0.055
-544.281	800.000	0.026	-0.111
-543.266	800.000	0.070	-0.201
-542.252	137.549	0.094	0.123
-541.237	195.026	0.128	-0.193
-540.223	180.244	0.047	-0.068
-539.208	-60.355	0.263	-0.112
-538.193	-60.557	0.157	0.067
-537.179	-200.000	-0.029	0.145
-536.164	-200.000	0.046	0.237
-535.150	29.873	-0.313	0.266
-534.135	35.284	-0.078	-0.068
-533.121	-68.363	-0.305	0.118
-532.106	800.000	0.032	0.127
-531.091	800.000	-0.055	-0.188
-530.077	18.230	0.237	-0.189
-529.062	53.545	-0.213	-0.204
-528.048	-200.000	0.014	0.171
-527.033	230.850	-0.149	-0.243
-526.018	-15.407	0.321	-0.204
-525.004	253.649	-0.201	0.342
-523.989	474.677	-0.122	0.274
-522.975	-200.000	-0.022	0.393
-521.960	-31.684	-0.358	0.200
-520.945	-200.000	0.013	-0.159
-519.931	-184.416	-0.088	-0.001
-518.916	628.392	-0.123	0.309
-517.902	-115.215	-0.289	-0.055
-516.887	15.369	0.232	-0.181
-515.872	-123.775	-0.244	0.039
-514.858	-112.309	-0.155	-0.031
-513.843	677.963	-0.051	-0.131
-512.829	117.736	0.152	0.186
-511.814	-20.568	0.343	-0.210
-510.799	-107.403	-0.155	0.034
-509.785	239.768	0.015	-0.025
-508.770	-128.406	0.126	0.018
-507.756	4.110	-0.100	-0.073
-506.741	225.708	0.022	-0.035
-505.726	206.992	0.297	-0.462
-504.712	-72.191	0.389	-0.144
-503.697	-97.603	0.122	0.032
-502.683	-94.465	-0.441	-0.120
-501.668	-200.000	0.008	-0.189
-500.653	-182.432	0.074	0.001
-499.639	114.357	-0.038	0.045
-498.624	365.874	-0.121	0.242
-497.610	-64.741	0.216	0.087
-496.595	800.000	0.173	0.493
-495.581	180.448	0.077	0.112
-494.566	-20.794	-0.073	-0.045
-493.551	94.048	-0.006	-0.007
-492.537	800.000	-0.019	-0.073
-491.522	-200.000	0.040	-0.322
-490.508	742.849	0.032	0.085
-489.493	-8.641	-0.308	-0.206
-488.478	-114.942	-0.332	0.063
-487.464	-200.000	0.038	-0.179
-486.449	800.000	0.040	-0.157
-485.435	-180.209	-0.608	-0.013
-484.420	-101.394	0.331	0.080
-483.405	-104.402	-0.130	0.030
-482.391	800.000	-0.017	0.054
-481.376	-41.215	-0.126	-0.065
-480.362	132.422	0.220	-0.282
-479.347	-124.095	-0.032	-0.005
-478.332	46.094	-0.183	0.169
-477.318	-200.000	-0.007	-0.216
-476.303	69.224	-0.182	-0.187
-475.289	112.100	-0.232	-0.279
-474.274	-200.000	0.001	-0.185
-473.259	16.497	0.172	-0.135
-472.245	800.000	0.028	0.121
-471.230	608.109	0.043	-0.106
-470.216	-200.000	-0.017	0.518
-469.201	-200.000	0.055	0.345
-468.186	-62.272	0.169	-0.070
-467.172	273.636	0.031	-0.054
-466.157	-82.146	-0.258	-0.084
-465.143	-112.188	-0.145	-0.029
-464.128	180.163	-0.094	-0.136
-463.113	114.349	-0.155	0.188
-462.099	-88.308	0.175	0.052
-461.084	-23.120	0.197	-0.118
-460.070	-75.633	-0.105	-0.037
-459.055	60.158	0.215	0.212
-458.040	-24.259	-0.232	0.138
-457.026	25.270	-0.238	-0.197
-456.011	23.309	-0.140	-0.114
-454.997	-200.000	-0.060	0.333
-453.982	800.000	0.044	-0.177
-452.968	-200.000	0.009	-0.120
-451.953	-65.966	-0.097	0.038
-450.938	-111.329	0.201	-0.041
-449.924	-200.000	-0.004	-0.164
-448.909	-200.000	-0.030	0.169
-447.895	-53.246	-0.059	0.027
-446.880	-200.000	-0.035	-0.389
-445.865	-56.661	-0.094	0.041
-444.851	84.569	0.076	0.082
-443.836	14.622	-0.267	-0.207
-442.822	-200.000	0.036	-0.436
-441.807	-118.842	-0.371	0.065
-440.792	-8.278	0.136	0.091
-439.778	-31.370	-0.109	0.061
-438.763	620.480	-0.106	-0.266
-437.749	-78.183	-0.200	0.068
-436.734	-23.549	0.282	0.168
-435.719	45.523	0.438	-0.402
-434.705	345.486	0.190	-0.371
-433.690	402.506	-0.136	0.284
-432.676	-173.426	-0.511	0.015
-431.661	223.857	-0.178	-0.285
-430.646	800.000	-0.042	-0.163
-429.632	800.000	0.088	-0.277
-428.617	-156.282	-0.326	-0.020
-427.603	-200.000	0.006	-0.163
-426.588	-17.665	0.301	0.188
-425.573	-200.000	0.029	-0.242
-424.559	-53.062	0.115	-0.052
-423.544	-95.498	0.362	-0.097
-422.530	-50.856	-0.199	0.093
-421.515	-200.000	-0.022	-0.259
-420.500	310.595	-0.088	-0.164
-419.486	-44.473	-0.122	-0.060
-418.471	-9.751	-0.260	-0.172
-417.457	17.332	-0.073	0.058
-416.442	-36.469	0.136	0.073
-415.428	22.751	0.258	0.210
-414.413	136.399	0.048	0.062
-413.398	152.408	0.302	0.409
-412.384	203.688	0.145	0.223
-411.369	264.452	-0.084	-0.144
-410.355	-145.977	0.329	-0.029
-409.340	-200.000	0.036	-0.385
-408.325	-200.000	0.001	0.015
-407.311	-200.000	-0.001	-0.011
-406.296	800.000	0.055	-0.212
-405.282	-117.497	0.183	-0.033
-404.267	5.480	0.243	-0.178
-403.252	-14.322	0.363	0.232
-402.238	-90.323	-0.191	-0.055
-401.223	135.233	0.061	-0.079
-400.209	55.799	0.198	-0.190
-399.194	800.000	0.022	0.079
-398.179	-200.000	0.038	-0.208
-397.165	-200.000	-0.042	-0.343
-396.150	-200.000	-0.006	-0.166
-395.136	-200.000	0.055	-0.323
-394.121	109.480	-0.147	0.175
-393.106	800.000	-0.013	0.042
-392.092	98.693	-0.143	-0.164
-391.077	-99.360	0.213	0.053
-390.063	-76.541	0.203	0.071
-389.048	-31.956	-0.226	0.125
-388.033	-200.000	0.016	0.277
-387.019	-154.482	0.074	-0.005
-386.004	-85.374	-0.069	-0.021
-384.990	2.339	0.306	0.219
-383.975	322.167	0.123	0.232
-382.960	-58.665	-0.093	0.040
-381.946	438.115	-0.056	0.121
-380.931	-131.164	-0.290	0.038
-379.917	-48.340	-0.091	-0.044
-378.902	244.577	0.053	-0.088
-377.888	34.483	-0.280	0.242
-376.873	73.226	0.319	0.331
-375.858	272.131	-0.083	0.144
-374.844	-30.176	-0.203	0.114
-373.829	-82.922	-0.296	-0.095
-372.815	-200.000	-0.016	0.144
-371.800	78.221	0.185	-0.196
-370.785	-13.415	-0.175	-0.112
-369.771	-80.740	-0.309	-0.102
-368.756	-94.334	-0.185	0.050
-367.742	-108.476	0.319	0.068
-366.727	-100.836	0.370	-0.090
-365.712	-49.799	0.226	0.106
-364.698	-34.455	-0.251	0.136
-363.683	195.816	0.151	0.228
-362.669	116.654	0.088	0.107
-361.654	171.424	0.025	-0.035
-360.639	68.017	0.152	0.154
-359.625	-179.179	-0.334	-0.007
-358.610	47.691	0.259	0.240
-357.596	800.000	0.012	0.049
-356.581	-19.652	-0.179	0.110
-355.566	366.550	-0.143	0.286
-354.552	800.000	0.032	0.112
-353.537	52.357	0.173	0.164
-352.523	136.744	0.079	0.102
-351.508	-97.046	0.294	-0.076
-350.493	-12.901	0.193	-0.124
-349.479	230.549	-0.118	0.191
-348.464	800.000	-0.024	-0.096
-347.450	-175.103	-0.047	-0.001
-346.435	-200.000	0.237	-0.001
-345.420	212.557	-0.144	0.225
-344.406	800.000	-0.124	0.398
-343.391	-200.000	0.032	-0.319
-342.377	-99.777	-0.077	0.019
-341.362	74.362	0.126	-0.131
-340.348	53.249	0.253	0.240
-339.333	-2.188	0.214	0.149
-338.318	-200.000	-0.004	0.040
-337.304	-36.037	0.134	0.072
-336.289	-76.077	-0.395	0.138
-335.275	85.387	-0.054	0.059
-334.260	113.158	0.083	-0.099
-333.245	800.000	-0.053	-0.181
-332.231	-8.918	-0.017	-0.011
-331.216	792.701	0.129	0.351
-330.202	-126.593	-0.288	-0.042
-329.187	-200.000	0.058	-0.275
-328.172	-171.772	-0.164	-0.005
-327.158	-83.455	-0.156	0.049
-326.143	-12.776	-0.237	0.153
-325.129	-123.798	-0.028	0.004
-324.114	73.373	0.226	-0.234
-323.099	368.039	-0.080	-0.159
-322.085	-75.239	0.123	0.043
-321.070	-123.220	-0.207	0.033
-320.056	-167.367	-0.202	0.008
-319.041	-153.115	-0.223	0.015
-318.026	-89.941	-0.475	0.137
-317.012	-135.402	-0.260	-0.031
-315.997	169.446	0.062	-0.088
-314.983	800.000	0.088	0.378
-313.968	-80.868	-0.089	-0.029
-312.953	-1.122	0.245	0.172
-311.939	-98.396	0.210	0.053
-310.924	88.210	0.097	0.107
-309.910	-20.465	-0.201	0.122
-308.895	491.138	-0.091	-0.206
-307.880	78.875	0.043	-0.045
-306.866	-150.454	-0.498	0.038
-305.851	-43.189	0.420	-0.210
-304.837	-200.000	0.010	0.206
-303.822	-78.818	-0.354	0.119
-302.807	-200.000	-0.008	-0.067
-301.793	500.815	-0.013	0.030
-300.778	-200.000	0.023	-0.456
-299.764	5.155	0.091	-0.067
-298.749	29.672	-0.083	0.069
-297.735	-116.083	-0.330	0.061
-296.720	-200.000	-0.029	0.209
-295.705	-56.838	-0.242	-0.106
-294.691	800.000	0.080	0.335
-293.676	441.495	-0.085	0.185
-292.662	205.338	0.163	0.250
-291.647	-136.323	-0.297	0.034
-290.632	-200.000	-0.030	-0.145
-289.618	-200.000	-0.010	-0.206
-288.603	116.882	-0.197	-0.239
-287.589	32.361	-0.086	0.073
-286.574	-200.000	-0.037	-0.233
-285.559	-148.789	-0.165	-0.013
-284.545	-200.000	-0.034	-0.197
-283.530	-200.000	-0.020	-0.137
-282.516	98.507	-0.160	0.183
-281.501	332.819	0.222	0.423
-280.486	248.327	0.042	0.071
-279.472	-200.000	-0.014	0.099
-278.457	74.951	0.343	0.357
-277.443	800.000	-0.054	0.165
-276.428	-200.000	-0.003	-0.066
-275.413	-71.850	0.147	-0.054
-274.399	41.939	0.064	-0.057
-273.384	95.496	0.023	-0.026
-272.370	-114.387	0.311	0.059
-271.355	-200.000	0.022	0.124
-270.340	-162.189	-0.386	0.019
-269.326	-62.656	0.108	0.044
-268.311	800.000	0.060	0.187
-267.297	46.569	-0.230	0.211
-266.282	-200.000	-0.061	0.362
-265.267	26.889	-0.125	0.103
-264.253	61.160	-0.280	0.274
-263.238	-119.044	-0.181	0.031
-262.224	-200.000	0.018	0.218
-261.209	-10.927	0.373	-0.243
-260.195	-83.687	0.178	-0.056
-259.180	105.974	0.104	-0.122
-258.165	-200.000	-0.028	-0.286
-257.151	53.120	-0.043	-0.041
-256.136	800.000	-0.055	0.188
-255.122	54.299	-0.260	0.247
-254.107	-8.622	0.231	0.153
-253.092	-200.000	0.019	0.116
-252.078	78.318	-0.172	0.181
-251.063	-94.296	0.025	-0.007
-250.049	66.322	-0.127	0.128
-249.034	439.132	-0.074	0.159
-248.019	-18.622	-0.066	0.041
-247.005	-48.110	0.129	0.061
-245.990	-58.212	0.172	0.074
-244.976	95.447	-0.097	-0.109
-243.961	-127.574	0.055	-0.008
-242.946	-200.000	0.019	-0.101
-241.932	-200.000	0.150	0.001
-240.917	800.000	-0.108	-0.320
-239.903	183.664	0.183	-0.266
-238.888	723.700	-0.049	-0.128
-237.873	-66.205	-0.069	-0.027
-236.859	-50.254	0.143	0.067
-235.844	-131.463	-0.072	-0.009
-234.830	45.997	0.128	-0.116
-233.815	-200.000	0.023	0.222
-232.800	-61.542	0.381	0.158
-231.786	-146.426	-0.287	0.025
-230.771	62.108	-0.097	-0.095
-229.757	-18.547	-0.360	0.221
-228.742	32.496	0.161	0.137
-227.727	-40.651	0.269	-0.137
-226.713	-200.000	0.087	-0.422
-225.698	241.413	-0.084	-0.139
-224.684	-200.000	-0.046	-0.383
-223.669	800.000	-0.025	0.090
-222.655	-15.980	0.183	0.115
-221.640	-140.740	-0.272	0.028
-220.625	42.992	0.209	0.188
-219.611	38.480	-0.254	-0.223
-218.596	-1.152	-0.167	0.116
-217.582	800.000	-0.069	0.239
-216.567	-200.000	0.016	0.094
-215.552	203.931	-0.148	-0.225
-214.538	182.108	0.036	-0.052
-213.523	-89.380	-0.198	0.058
-212.509	-200.000	0.010	0.371
-211.494	-200.000	0.016	0.286
-210.479	45.822	0.353	-0.322
-209.465	151.924	0.120	-0.161
-208.450	8.216	0.358	-0.265
-207.436	-200.000	0.014	0.086
-206.421	-109.111	-0.274	0.057
-205.406	-75.896	0.105	-0.037
-204.392	-147.106	0.210	-0.018
-203.377	145.249	-0.262	-0.346
-202.363	-200.000	0.074	0.363
-201.348	-200.000	-0.008	0.162
-200.333	42.919	0.122	0.109
-199.319	-200.000	-0.040	0.336
-198.304	-22.107	-0.141	-0.084
-197.290	139.842	-0.098	-0.126
-196.275	5.200	0.058	0.042
-195.260	-200.000	-0.014	0.072
-194.246	-88.857	0.137	0.040
-193.231	-137.698	0.147	0.016
-192.217	99.105	-0.050	0.057
-191.202	128.463	-0.070	0.087
-190.187	800.000	-0.063	-0.175
-189.173	-200.000	-0.021	-0.190
-188.158	-200.000	0.005	-0.218
-187.144	387.106	-0.020	-0.041
-186.129	-50.574	-0.314	0.146
-185.114	-200.000	-0.005	-0.057
-184.100	-21.725	-0.234	-0.140
-183.085	-44.505	0.224	0.110
-182.071	150.293	-0.277	-0.370
-181.056	381.726	0.169	0.342
-180.042	-143.673	-0.280	-0.026
-179.027	93.829	-0.092	-0.102
-178.012	-88.596	0.296	-0.087
-176.998	43.642	0.358	0.322
-175.983	-139.396	0.247	0.026
-174.969	-71.284	0.412	0.152
-173.954	482.675	0.175	0.391
-172.939	800.000	-0.095	0.361
-171.925	428.246	0.163	-0.345
-170.910	-141.640	0.325	-0.032
-169.896	161.542	0.168	0.231
-168.881	-52.286	0.166	-0.076
-167.866	800.000	0.088	-0.354
-166.852	-198.917	-0.239	-0.001
-165.837	800.000	-0.134	0.368
-164.823	-200.000	-0.058	0.331
-163.808	800.000	0.066	-0.241
-162.793	-72.912	0.123	0.044
-161.779	-112.670	0.099	-0.019
-160.764	-130.862	-0.434	-0.057
-159.750	-200.000	0.054	-0.289
-158.735	381.228	-0.148	-0.299
-157.720	-200.000	-0.000	0.325
-156.706	-42.944	0.072	-0.036
-155.691	-172.709	0.231	-0.007
-154.677	174.080	-0.081	0.114
-153.662	800.000	0.028	0.111
-152.647	-200.000	-0.006	0.296
-151.633	59.850	0.139	0.135
-150.618	397.457	0.121	0.249
-149.604	-200.000	-0.006	0.091
-148.589	109.672	0.071	-0.084
-147.574	-200.000	-0.009	-0.357
-146.560	800.000	-0.032	-0.121
-145.545	800.000	0.116	-0.390
-144.531	-86.776	0.166	0.050
-143.516	-200.000	-0.022	-0.139
-142.502	66.608	-0.199	0.199
-141.487	349.019	0.085	-0.166
-140.472	-157.198	0.213	-0.013
-139.458	-10.074	0.144	0.094
-138.443	-200.000	0.011	-0.181
-137.429	58.662	-0.298	-0.287
-136.414	-96.431	0.403	-0.105
-135.399	329.390	0.059	-0.111
-134.385	800.000	-0.035	-0.139
-133.370	112.780	0.191	-0.227
-132.356	224.135	0.196	0.311
-131.341	-200.000	0.006	-0.076
-130.326	331.625	0.144	-0.273
-129.312	747.256	-0.104	-0.275
-128.297	-200.000	-0.031	-0.294
-127.283	285.663	0.169	0.298
-126.268	-83.783	-0.282	-0.088
-125.253	-200.000	0.004	0.077
-124.239	-90.738	-0.158	-0.045
-123.224	17.842	-0.073	0.057
-122.210	-160.551	0.253	0.013
-121.195	-35.289	0.176	-0.094
-120.180	-127.926	-0.198	0.028
-119.166	-148.345	-0.199	-0.016
-118.151	-61.772	0.247	-0.102
-117.137	-135.659	-0.411	0.048
-116.122	-56.268	-0.254	0.111
-115.107	107.791	-0.214	-0.250
-114.093	-71.748	-0.108	0.040
-113.078	46.516	0.244	-0.222
-112.064	-99.068	-0.227	-0.056
-111.049	43.360	-0.129	-0.116
-110.034	172.647	0.078	-0.110
-109.020	-168.036	-0.457	-0.018
-108.005	-200.000	-0.076	-0.371
-106.991	-88.870	-0.352	-0.102
-105.976	13.166	-0.172	0.131
-104.962	-22.521	0.145	-0.086
-103.947	34.555	0.206	0.177
-102.932	-138.810	0.119	-0.013
-101.918	-29.253	-0.253	-0.142
-100.903	800.000	-0.064	-0.221
-99.889	-128.626	0.319	-0.044
-98.874	-78.938	-0.456	0.152
-97.859	-114.511	0.290	-0.055
-96.845	800.000	-0.074	-0.204
-95.830	212.857	0.078	-0.121
-94.816	158.857	0.164	-0.223
-93.801	324.402	-0.058	-0.108
-92.786	-200.000	0.004	0.044
-91.772	379.451	-0.077	0.154
-90.757	-32.145	0.219	-0.120
-89.743	-86.317	-0.228	0.069
-88.728	-27.692	-0.262	-0.149
-87.713	-8.517	0.324	-0.213
-86.699	20.667	-0.109	-0.087
-85.684	800.000	0.135	0.406
-84.670	-41.268	0.276	-0.140
-83.655	-94.768	-0.163	-0.043
-82.640	-24.443	0.098	-0.057
-81.626	7.551	-0.059	-0.043
-80.611	-200.000	-0.001	-0.139
-79.597	-200.000	-0.005	-0.082
-78.582	-17.794	0.423	0.260
-77.567	-160.299	-0.350	-0.019
-76.553	800.000	0.070	-0.203
-75.538	93.037	0.211	-0.233
-74.524	267.700	0.030	0.051
-73.509	-79.631	0.215	0.071
-72.494	97.197	0.195	0.219
-71.480	16.847	0.100	-0.077
-70.465	-200.000	0.062	0.493
-69.451	-188.784	-0.343	-0.004
-68.436	-2.704	0.231	0.158
-67.422	21.067	-0.256	0.203
-66.407	-37.755	0.415	0.217
-65.392	462.213	-0.074	0.161
-64.378	70.565	-0.175	0.177
-63.363	49.383	0.140	0.129
-62.349	417.405	-0.075	0.157
-61.334	65.988	-0.945	-0.938
-60.319	149.600	0.386	0.512
-59.305	234.773	-0.674	-1.089
-58.290	500.366	0.671	1.514
-57.276	188.871	0.931	1.364
-56.261	-200.000	116.274	661.024
-55.246	529.014	1532.219	3540.586
-54.232	177.051	2698.690	3844.667
-53.217	108.632	2150.333	2514.251
-52.203	38.721	1592.249	1391.106
-51.188	30.324	1338.262	1118.802
-50.173	27.452	1300.374	1070.235
-49.159	55.635	1358.011	1287.509
-48.144	53.330	1372.219	1287.138
-47.130	30.729	1326.176	1110.940
-46.115	27.269	1308.838	1075.946
-45.100	27.014	1303.887	1070.331
-44.086	26.843	1301.848	1067.606
-43.071	26.902	1298.748	1065.372
-42.057	26.878	1297.108	1063.843
-41.042	26.920	1295.267	1062.539
-40.027	27.007	1293.707	1061.723
-39.013	27.016	1292.092	1060.411
-37.998	26.914	1290.208	1058.223
-36.984	26.968	1288.597	1057.176
-35.969	27.108	1286.268	1056.040
-34.954	27.121	1284.736	1054.811
-33.940	27.131	1283.505	1053.821
-32.925	27.007	1282.816	1052.490
-31.911	27.072	1280.974	1051.318
-30.896	27.081	1279.767	1050.339
-29.881	27.300	1278.076	1050.173
-28.867	27.249	1276.234	1048.322
-27.852	27.147	1275.312	1046.934
-26.838	27.115	1274.087	1045.704
-25.823	27.099	1272.662	1044.400
-24.809	27.072	1271.439	1043.199
-23.794	27.082	1270.232	1042.224
-22.779	27.118	1268.600	1041.053
-21.765	27.112	1267.476	1040.054
-20.750	27.273	1265.683	1039.460
-19.736	27.142	1264.686	1037.854
-18.721	26.975	1264.023	1036.315
-17.706	27.044	1262.766	1035.635
-16.692	27.025	1261.561	1034.499
-15.677	27.111	1260.264	1033.882
-14.663	27.003	1259.268	1032.410
-13.648	27.007	1258.269	1031.576
-12.633	26.997	1257.223	1030.617
-11.619	27.082	1256.313	1030.317
-10.604	27.019	1255.292	1029.080
-9.590	27.142	1254.285	1028.908
-8.575	26.975	1253.517	1027.291
-7.560	27.008	1252.890	1026.925
-6.546	26.925	1252.676	1026.242
-5.531	26.902	1251.328	1024.966
-4.517	27.126	1249.800	1024.935
-3.502	26.961	1249.274	1023.534
-2.487	27.077	1248.375	1023.409
-1.473	27.038	1244.054	1019.610
-0.458	25.404	1229.260	998.372
0.556	23.391	1211.902	959.218
1.571	19.503	1217.115	942.080
2.586	18.588	1231.469	948.051
3.600	18.250	1219.831	937.157
4.615	14.267	1148.638	861.806
5.629	7.320	1077.301	774.376
6.644	4.452	1059.047	747.401
7.659	4.014	1056.966	743.762
8.673	3.954	1055.606	742.452
9.688	3.922	1053.849	740.997
10.702	4.224	1052.613	741.509
11.717	8.714	1058.743	767.319
12.731	16.543	1069.723	812.981
13.746	21.509	1075.688	841.387
14.761	22.500	1076.655	846.832
15.775	21.745	1075.090	841.899
16.790	20.805	1073.179	835.820
17.804	20.188	1071.752	831.677
18.819	19.993	1070.800	829.931
19.834	19.978	1070.400	829.477
20.848	20.035	1069.949	829.323
21.863	19.699	1069.399	827.220
22.877	19.722	1067.901	826.094
23.892	19.646	1067.403	825.277
24.907	19.639	1066.485	824.459
25.921	19.687	1065.340	823.730
26.936	19.478	1064.124	821.721
27.950	19.581	1062.676	821.018
28.965	19.613	1061.830	820.445
29.980	19.983	1059.833	820.584
30.994	20.094	1058.885	820.301
32.009	19.911	1058.125	818.775
33.023	19.839	1057.204	817.650
34.038	19.693	1056.259	816.156
35.053	19.705	1055.138	815.277
36.067	19.632	1054.213	814.146
37.082	19.693	1053.653	813.926
38.096	19.839	1052.867	813.936
39.111	19.810	1052.885	813.740
40.126	19.595	1050.711	810.978
41.140	19.258	1049.560	808.439
42.155	19.242	1047.782	806.920
43.169	19.087	1046.721	805.311
44.184	19.152	1045.832	804.856
45.199	19.212	1045.472	804.788
46.213	19.300	1044.740	804.568
47.228	19.599	1043.805	805.171
48.242	19.703	1043.168	805.088
49.257	19.713	1041.617	803.867
50.271	19.759	1041.232	803.715
51.286	19.843	1040.580	803.532
52.301	19.670	1039.105	801.518
53.315	19.440	1038.141	799.636
54.330	19.444	1036.911	798.640
55.344	19.375	1036.449	797.891
56.359	19.314	1035.538	796.840
57.374	19.377	1034.604	796.339
58.388	19.108	1033.512	794.188
59.403	19.023	1033.036	793.358
60.417	19.181	1031.669	792.966
61.432	19.136	1031.065	792.227
62.447	18.965	1030.253	790.745
63.461	18.817	1030.084	789.864
64.476	18.916	1028.927	789.362
65.490	19.034	1027.603	788.817
66.505	18.927	1027.286	788.015
67.520	19.050	1026.521	787.923
68.534	19.019	1025.614	787.016
69.549	18.796	1024.891	785.369
70.563	18.849	1023.647	784.590
71.578	18.817	1022.874	783.781
72.593	18.517	1022.653	782.174
73.607	18.680	1021.462	781.935
74.622	18.732	1021.486	782.125
75.636	18.710	1020.774	781.409
76.651	18.766	1019.711	780.781
77.666	18.757	1019.471	780.486
78.680	18.788	1018.528	779.835
79.695	18.801	1018.269	779.627
80.709	19.067	1017.475	780.158
81.724	19.220	1016.871	780.319
82.739	19.315	1016.267	780.214
83.753	19.546	1016.091	781.054
84.768	19.895	1015.385	782.022
85.782	20.138	1014.692	782.518
86.797	20.048	1013.414	781.057
87.812	19.804	1012.303	779.032
88.826	19.808	1011.835	778.622
89.841	19.884	1010.784	778.083
90.855	19.945	1009.949	777.646
91.870	20.069	1009.367	777.689
92.884	19.949	1008.277	776.240
93.899	19.987	1006.996	775.357
94.914	19.960	1006.754	774.981
95.928	20.045	1005.632	774.429
96.943	19.827	1004.584	772.577
97.957	19.794	1003.651	771.643
98.972	19.764	1003.182	771.081
99.987	19.940	1001.943	770.844
101.001	19.915	1000.863	769.836
102.016	19.930	999.845	769.052
103.030	19.941	999.257	768.579
104.045	19.967	998.720	768.216
105.060	19.579	997.776	765.698
106.074	19.545	996.253	764.311
107.089	19.236	995.193	762.063
108.103	19.064	994.258	760.522
109.118	19.009	993.081	759.312
110.133	18.913	991.929	757.941
111.147	18.843	991.401	757.161
112.162	18.991	990.735	757.235
113.176	19.166	990.146	757.489
114.191	19.230	989.780	757.423
115.206	19.163	988.453	756.046
116.220	19.095	987.861	755.228
117.235	19.041	986.696	754.037
118.249	18.982	985.926	753.124
119.264	18.906	985.005	752.019
120.279	18.900	984.816	751.784
121.293	18.779	983.668	750.312
122.308	18.785	982.391	749.296
123.322	18.522	981.683	747.545
124.337	18.605	980.460	746.907
125.352	18.720	979.371	746.510
126.366	18.771	978.205	745.779
127.381	18.741	977.526	745.065
128.395	18.845	976.859	744.942
129.410	18.810	976.027	744.091
130.424	18.842	975.359	743.654
131.439	19.171	974.424	744.297
132.454	19.206	973.977	744.039
133.468	19.233	972.763	743.165
134.483	19.197	972.416	742.676
135.497	19.130	971.819	741.865
136.512	19.210	970.599	741.216
137.527	19.161	970.039	740.511
138.541	19.230	969.258	740.147
139.556	19.434	968.196	740.144
140.570	19.465	968.227	740.236
141.585	19.889	966.845	740.928
142.600	19.801	966.585	740.286
143.614	19.868	966.084	740.126
144.629	19.955	965.387	739.898
145.643	19.681	964.189	737.743
146.658	19.589	962.680	736.132
147.673	19.487	961.483	734.716
148.687	19.330	960.432	733.181
149.702	19.253	959.680	732.217
150.716	19.312	958.800	731.728
151.731	19.368	958.122	731.386
152.746	19.381	957.726	731.074
153.760	19.312	957.250	730.354
154.775	19.506	956.213	730.317
155.789	19.631	955.832	730.490
156.804	19.579	955.199	729.725
157.819	19.673	954.719	729.688
158.833	19.770	954.282	729.700
159.848	20.011	953.338	729.930
160.862	19.711	952.204	727.734
161.877	19.387	950.885	725.300
162.892	19.391	949.241	723.996
163.906	19.092	948.493	722.109
164.921	19.087	948.039	721.677
165.935	19.431	946.970	722.239
166.950	19.529	946.121	721.939
167.964	19.454	945.146	720.817
168.979	19.347	944.394	719.736
169.994	19.412	943.104	718.957
171.008	19.461	942.697	718.789
172.023	19.793	941.922	719.516
173.037	19.999	941.434	719.936
174.052	19.704	940.656	718.051
175.067	19.286	939.903	715.678
176.081	19.216	939.048	714.672
177.096	19.186	938.583	714.130
178.110	19.191	938.147	713.759
179.125	19.349	937.329	713.726
180.140	19.502	936.646	713.776
181.154	19.611	937.116	714.520
182.169	19.715	936.830	714.672
183.183	19.725	936.040	714.045
184.198	19.815	934.986	713.548
185.213	19.963	934.458	713.693
186.227	19.932	933.431	712.720
187.242	20.147	933.088	713.280
188.256	20.073	933.038	712.872
189.271	19.950	932.174	711.646
190.286	19.752	930.780	709.702
191.300	19.233	929.528	706.558
192.315	19.112	928.681	705.357
193.329	19.256	928.296	705.592
194.344	19.357	928.089	705.784
195.359	19.516	927.469	705.900
196.373	19.529	927.044	705.567
197.388	19.764	927.057	706.478
198.402	20.091	926.147	707.056
199.417	20.149	926.280	707.330
200.432	20.347	925.282	707.314
201.446	20.617	924.807	707.984
202.461	20.457	924.714	707.202
203.475	20.320	923.575	705.708
204.490	20.036	922.602	703.752
205.504	19.887	922.011	702.633
206.519	19.805	920.993	701.460
207.534	19.796	920.568	701.039
208.548	19.835	919.960	700.672
209.563	19.981	919.084	700.532
210.577	19.931	919.096	700.281
211.592	20.140	918.628	700.704
212.607	20.327	917.596	700.610
213.621	20.287	916.798	699.781
214.636	20.064	916.441	698.545
215.650	20.351	915.020	698.556
216.665	20.400	914.792	698.517
217.680	20.394	914.692	698.356
218.694	20.419	913.850	697.752
219.709	20.362	912.869	696.710
220.723	20.252	912.342	695.805
221.738	20.156	911.996	695.097
222.753	20.127	911.065	694.209
223.767	20.296	910.676	694.527
224.782	20.382	910.560	694.723
225.796	20.643	909.352	694.779
226.811	20.392	908.764	693.267
227.826	20.196	907.822	691.705
228.840	20.089	907.442	690.929
229.855	20.114	906.694	690.399
230.869	20.237	905.282	689.749
231.884	19.962	904.790	688.222
232.899	19.865	904.324	687.419
233.913	19.886	903.512	686.825
234.928	19.826	902.606	685.839
235.942	19.817	902.385	685.574
236.957	19.827	901.327	684.749
237.972	19.836	901.069	684.530
238.986	19.870	900.549	684.210
240.001	19.836	899.865	683.494
241.015	19.987	899.294	683.596
242.030	20.200	898.562	683.817
243.045	20.086	898.372	683.165
244.059	20.200	897.730	683.063
245.074	20.205	897.432	682.795
246.088	20.325	897.058	682.924
247.103	20.512	895.876	682.699
248.117	20.700	896.091	683.540
249.132	20.932	896.177	684.458
250.147	21.267	895.454	685.156
251.161	21.232	894.665	684.355
252.176	21.267	894.299	684.152
253.190	21.468	892.955	683.850
254.205	21.480	892.748	683.678
255.220	21.360	892.086	682.641
256.234	21.174	891.374	681.312
257.249	21.213	890.315	680.592
258.263	21.191	889.903	680.133
259.278	21.212	889.469	679.824
260.293	21.234	889.231	679.666
261.307	21.375	888.365	679.494
262.322	21.326	888.175	679.095
263.336	21.482	886.856	678.632
264.351	21.347	886.364	677.673
265.366	21.254	886.192	677.122
266.380	21.457	884.969	676.914
267.395	21.266	884.319	675.617
268.409	21.048	884.009	674.476
269.424	21.053	882.972	673.645
270.439	21.014	882.386	672.990
271.453	20.998	881.205	671.966
272.468	21.051	880.261	671.389
273.482	20.969	880.156	670.935
274.497	21.042	879.599	670.734
275.512	21.086	878.763	670.206
276.526	21.029	878.617	669.817
277.541	21.194	878.088	669.987
278.555	21.369	877.714	670.314
279.570	21.601	876.879	670.504
280.585	21.502	876.419	669.713
281.599	21.268	874.772	667.501
282.614	21.092	874.542	666.596
283.628	21.141	873.996	666.307
284.643	21.159	873.514	665.948
285.657	21.051	873.077	665.145
286.672	21.155	872.279	664.874
287.687	21.371	871.513	665.055
288.701	21.056	871.449	663.747
289.716	21.157	870.751	663.541
290.730	21.171	870.125	663.059
291.745	21.239	869.620	662.872
292.760	21.369	869.085	662.899
293.774	21.519	868.362	662.859
294.789	21.420	867.807	662.001
295.803	21.062	867.399	660.279
296.818	21.149	866.359	659.754
297.833	21.205	865.623	659.347
298.847	21.206	865.150	658.933
299.862	21.111	864.657	658.141
300.876	21.376	864.136	658.687
301.891	21.629	863.643	659.201
302.906	21.768	862.930	659.122
303.920	21.871	862.829	659.374
304.935	21.988	862.335	659.379
305.949	21.858	861.524	658.212
306.964	21.456	861.025	656.265
307.979	21.429	860.496	655.703
308.993	21.749	860.068	656.517
310.008	21.604	859.310	655.340
311.022	21.678	858.420	654.877
312.037	21.508	857.724	653.655
313.052	21.232	857.403	652.323
314.066	20.984	856.509	650.657
315.081	21.101	855.906	650.578
316.095	21.159	855.253	650.241
317.110	21.155	854.627	649.690
318.125	21.247	853.985	649.488
319.139	21.014	854.140	648.683
320.154	21.207	853.469	648.834
321.168	21.210	852.720	648.218
322.183	21.390	852.439	648.615
323.197	21.384	851.614	647.905
324.212	21.366	851.239	647.499
325.227	21.309	850.756	646.861
326.241	21.288	850.068	646.204
327.256	21.255	849.379	645.499
328.270	21.287	848.645	645.003
329.285	21.230	848.486	644.615
330.300	21.111	847.500	643.369
331.314	21.373	847.047	643.935
332.329	21.517	846.870	644.274
333.343	21.625	846.433	644.283
334.358	21.561	846.392	643.959
335.373	21.643	846.185	644.046
336.387	21.693	845.555	643.694
337.402	21.819	845.181	643.815
338.416	21.892	845.387	644.180
339.431	22.135	844.856	644.610
340.446	22.221	843.888	644.130
341.460	22.390	844.021	644.795
342.475	22.371	843.610	644.355
343.489	22.392	843.446	644.249
344.504	22.498	842.884	644.151
345.519	22.339	842.921	643.539
346.533	22.443	841.949	643.121
347.548	22.121	841.088	641.232
348.562	21.922	840.376	639.907
349.577	21.860	839.464	638.929
350.592	21.689	838.309	637.372
351.606	21.648	837.734	636.729
352.621	21.714	837.466	636.708
353.635	21.604	837.108	635.982
354.650	21.773	836.268	635.900
355.665	22.004	835.305	635.947
356.679	22.041	835.280	636.006
357.694	21.996	834.791	635.414
358.708	21.869	834.037	634.326
359.723	22.010	833.468	634.348
360.738	21.908	832.860	633.457
361.752	21.972	832.415	633.294
362.767	22.299	831.883	634.012
363.781	22.523	831.355	634.361
364.796	22.596	831.273	634.504
365.810	22.711	831.202	634.808
366.825	22.783	830.503	634.479
367.840	22.630	830.053	633.529
368.854	22.525	829.307	632.527
369.869	22.397	828.670	631.526
370.883	22.283	828.646	631.041
371.898	22.449	828.332	631.342
372.913	22.761	827.445	631.727
373.927	22.383	827.153	630.095
374.942	22.298	826.760	629.434
375.956	22.673	826.622	630.615
376.971	22.917	825.862	630.853
377.986	22.850	825.943	630.620
379.000	22.878	824.941	629.899
380.015	22.927	824.421	629.620
381.029	22.654	823.933	628.220
382.044	22.744	823.547	628.190
383.059	22.899	822.540	627.917
384.073	22.618	821.874	626.353
385.088	22.477	821.050	625.171
386.102	22.537	820.251	624.718
387.117	22.388	819.573	623.619
388.132	22.247	819.299	622.859
389.146	22.485	818.938	623.371
390.161	22.667	818.898	623.930
391.175	22.835	818.274	623.991
392.190	22.655	817.204	622.486
393.205	22.484	816.839	621.549
394.219	22.538	816.218	621.212
395.234	22.177	816.087	619.783
396.248	22.145	815.558	619.215
397.263	22.021	815.022	618.318
398.278	22.053	814.542	618.012
399.292	22.083	813.849	617.537
400.307	21.971	814.054	617.242
401.321	22.057	813.316	616.929
402.336	22.276	812.881	617.314
403.350	22.475	812.491	617.662
404.365	22.602	812.197	617.829
405.380	22.845	811.675	618.227
406.394	22.944	811.363	618.281
407.409	23.098	811.114	618.574
408.423	22.981	810.888	617.941
409.438	23.175	810.180	618.023
410.453	23.281	809.783	618.034
411.467	23.138	809.921	617.589
412.482	23.407	809.178	617.904
413.496	23.378	809.076	617.672
414.511	23.386	808.544	617.238
415.526	23.245	807.534	615.920
416.540	23.263	807.131	615.623
417.555	23.130	806.533	614.648
418.569	23.060	806.702	614.480
419.584	23.213	806.485	614.791
420.599	23.298	805.638	614.386
421.613	165.043	1372.603	1798.716
422.628	143.589	1455.225	1798.831
