DTS Sentinel unit serial number:	SN413079Multiplexer serial number:	ORYXHardware model number:	OX4-SRSoftware version number:	ORYX F/W v4.00 Oryx Data Collector v3.7.2.0data status	okinstallation	princeton_trtdifferential loss correction	single-endedforward channel	channel 1reverse channel	N/Adate	2019/09/12time	14:04:11forward acquisition time	60.00reverse acquisition time	0.00gamma	496.2192k internal	0.2293k external	0.2293temperature offset calibration	1.0053default loss term (dB/km)	0.3790temperature slope calibration	1.0000multiplexer offset coefficient	1.0000multiplexer slope coefficient	1.0000fibre end	0.00T internal ref (°C)	40.47T ext. ref 1 (°C)	2.20T ext. ref 2 (°C)	34.65length (m)	temperature (°C)	Stokes	anti-Stokes-747.200	-107.176	0.275	-0.062
-746.185	6.656	-0.101	0.077
-745.171	-163.380	0.125	0.006
-744.156	155.562	-0.185	0.260
-743.142	150.648	0.104	-0.145
-742.127	-7.956	-0.058	-0.040
-741.112	154.649	0.103	-0.144
-740.098	112.696	0.168	0.208
-739.083	-28.455	-0.169	0.100
-738.069	35.773	0.109	0.098
-737.054	166.542	0.061	0.089
-736.039	721.660	-0.162	0.440
-735.025	61.550	0.213	0.217
-734.010	226.844	0.160	-0.265
-732.996	-124.559	-0.028	-0.004
-731.981	186.788	0.243	0.370
-730.966	12.624	-0.058	-0.046
-729.952	-200.000	-0.023	-0.145
-728.937	-138.212	-0.063	-0.007
-727.923	-200.000	-0.038	-0.394
-726.908	-118.539	-0.159	-0.029
-725.894	-200.000	0.034	-0.235
-724.879	-34.349	-0.063	-0.036
-723.864	-200.000	0.046	0.346
-722.850	-200.000	-0.077	-0.513
-721.835	-188.246	0.056	-0.001
-720.821	-74.188	-0.175	-0.065
-719.806	-66.288	0.423	0.172
-718.791	12.011	0.189	0.149
-717.777	402.879	0.093	-0.201
-716.762	-200.000	-0.043	-0.385
-715.748	38.296	0.136	-0.124
-714.733	-200.000	-0.004	0.119
-713.718	86.786	0.182	0.206
-712.704	-100.205	0.237	0.060
-711.689	-53.531	-0.083	-0.039
-710.675	-95.964	0.315	-0.086
-709.660	97.592	0.132	-0.155
-708.645	139.931	0.190	-0.256
-707.631	-200.000	-0.042	-0.229
-706.616	694.459	0.052	-0.140
-705.602	160.902	0.179	-0.256
-704.587	800.000	0.064	-0.210
-703.572	-200.000	-0.006	-0.042
-702.558	800.000	0.172	-0.492
-701.543	-62.092	0.016	-0.007
-700.529	192.272	0.049	-0.075
-699.514	215.465	-0.080	0.130
-698.499	-51.029	0.179	0.086
-697.485	510.143	0.056	-0.134
-696.470	-36.399	-0.157	-0.086
-695.456	-200.000	0.030	-0.147
-694.441	181.459	-0.114	-0.171
-693.426	0.276	-0.394	-0.287
-692.412	-175.467	-0.069	0.002
-691.397	141.465	-0.145	-0.196
-690.383	-11.105	-0.192	0.129
-689.368	-200.000	-0.005	-0.202
-688.354	-200.000	0.025	0.138
-687.339	51.315	-0.141	-0.137
-686.324	800.000	0.004	0.014
-685.310	30.784	-0.040	-0.035
-684.295	-174.468	0.157	0.005
-683.281	232.203	-0.028	-0.047
-682.266	470.251	0.132	0.303
-681.251	-143.427	0.203	0.020
-680.237	-170.776	0.233	-0.008
-679.222	631.888	-0.048	-0.125
-678.208	-97.591	-0.208	-0.055
-677.193	2.594	0.169	0.125
-676.178	96.792	-0.071	-0.083
-675.164	124.889	0.147	-0.189
-674.149	-132.032	-0.571	-0.076
-673.135	-60.159	-0.194	0.085
-672.120	-72.340	-0.208	-0.079
-671.105	-72.047	-0.330	-0.125
-670.091	65.407	0.171	0.177
-669.076	-200.000	0.020	0.232
-668.062	100.802	0.143	0.170
-667.047	251.523	-0.125	0.217
-666.032	444.783	0.065	-0.146
-665.018	800.000	0.082	0.268
-664.003	-200.000	-0.004	0.219
-662.989	-200.000	-0.002	0.136
-661.974	-133.021	0.089	0.012
-660.959	-82.426	-0.066	0.022
-659.945	751.748	0.032	0.088
-658.930	-79.082	0.123	0.043
-657.916	-121.068	-0.284	-0.049
-656.901	-72.291	-0.026	0.010
-655.886	800.000	0.080	-0.280
-654.872	53.349	-0.021	-0.021
-653.857	-200.000	-0.051	0.350
-652.843	-142.859	0.250	-0.025
-651.828	-200.000	0.038	0.287
-650.814	-35.316	0.088	-0.049
-649.799	-97.447	-0.341	-0.090
-648.784	548.225	-0.012	0.029
-647.770	-126.365	-0.475	-0.072
-646.755	-156.810	-0.248	-0.016
-645.741	-68.536	0.175	-0.069
-644.726	227.032	0.036	-0.060
-643.711	-120.114	-0.198	-0.034
-642.697	-91.071	0.463	0.135
-641.682	-157.213	-0.195	0.012
-640.668	-200.000	0.004	0.148
-639.653	443.409	-0.146	-0.327
-638.638	-3.216	-0.115	-0.082
-637.624	-81.837	0.365	-0.122
-636.609	19.815	0.228	0.187
-635.595	341.255	0.023	0.046
-634.580	120.325	0.158	0.200
-633.565	130.560	0.099	0.130
-632.551	-57.735	-0.286	0.127
-631.536	-71.364	-0.049	0.019
-630.522	63.843	0.039	0.040
-629.507	150.416	0.140	-0.193
-628.492	192.584	-0.114	0.175
-627.478	-47.570	0.398	0.197
-626.463	800.000	0.026	-0.114
-625.449	81.564	-0.128	0.141
-624.434	229.800	0.066	0.109
-623.419	-200.000	-0.027	-0.444
-622.405	178.224	-0.133	-0.197
-621.390	-38.959	0.292	0.157
-620.376	-135.053	-0.212	0.026
-619.361	194.101	-0.066	0.102
-618.346	-72.618	0.159	0.060
-617.332	-200.000	-0.031	0.222
-616.317	79.944	-0.265	-0.290
-615.303	39.254	-0.067	0.061
-614.288	7.130	-0.201	-0.153
-613.273	-83.447	-0.220	-0.072
-612.259	84.745	0.084	-0.094
-611.244	-21.736	-0.156	-0.097
-610.230	-200.000	-0.011	0.146
-609.215	296.738	-0.109	-0.203
-608.201	-15.698	0.087	0.057
-607.186	-171.307	0.066	-0.002
-606.171	-200.000	-0.013	0.061
-605.157	-109.971	0.124	-0.026
-604.142	-66.259	0.186	0.075
-603.128	-200.000	-0.005	-0.160
-602.113	-200.000	-0.013	-0.112
-601.098	1.437	-0.387	-0.283
-600.084	333.539	0.132	-0.260
-599.069	-200.000	0.002	0.073
-598.055	9.202	-0.300	0.230
-597.040	-84.201	0.377	-0.122
-596.025	-60.620	-0.208	-0.090
-595.011	-17.674	-0.071	0.046
-593.996	800.000	0.114	-0.339
-592.982	-169.596	-0.113	-0.004
-591.967	-200.000	0.012	0.153
-590.952	800.000	0.028	-0.101
-589.938	800.000	0.078	0.254
-588.923	49.005	-0.271	-0.259
-587.909	363.520	0.112	-0.229
-586.894	51.878	-0.233	-0.226
-585.879	133.800	0.049	0.065
-584.865	800.000	0.008	0.027
-583.850	-200.000	0.041	0.247
-582.836	-40.298	-0.081	0.043
-581.821	265.395	0.205	-0.364
-580.806	296.991	-0.071	-0.133
-579.792	182.956	0.106	-0.159
-578.777	52.884	-0.167	-0.163
-577.763	46.417	-0.231	0.218
-576.748	-104.068	0.166	-0.039
-575.733	800.000	-0.111	0.426
-574.719	-169.115	-0.153	0.006
-573.704	-200.000	-0.026	-0.212
-572.690	-9.780	0.243	0.164
-571.675	-200.000	-0.075	0.456
-570.661	233.091	-0.085	0.142
-569.646	34.507	-0.317	-0.282
-568.631	800.000	-0.080	-0.259
-567.617	-200.000	0.004	0.032
-566.602	402.785	0.031	0.066
-565.588	800.000	0.059	-0.190
-564.573	-200.000	-0.011	0.194
-563.558	-200.000	0.015	-0.259
-562.544	151.899	-0.343	-0.475
-561.529	-140.133	0.180	0.019
-560.515	-42.851	0.278	0.144
-559.500	31.637	-0.119	-0.104
-558.485	800.000	0.034	-0.096
-557.471	155.822	0.149	0.209
-556.456	-63.319	-0.242	-0.101
-555.442	-162.651	-0.379	0.019
-554.427	800.000	-0.022	0.072
-553.412	-82.342	0.185	-0.061
-552.398	800.000	-0.030	0.091
-551.383	-171.924	-0.472	0.016
-550.369	466.916	0.161	-0.366
-549.354	-200.000	0.014	0.114
-548.339	-123.811	0.226	-0.036
-547.325	140.057	0.219	0.293
-546.310	149.148	0.121	-0.166
-545.296	407.246	0.079	0.170
-544.281	600.200	-0.082	0.207
-543.266	-109.681	0.297	-0.064
-542.252	142.147	-0.131	-0.176
-541.237	-115.535	0.154	0.029
-540.223	-157.238	0.186	0.011
-539.208	339.049	-0.033	0.066
-538.193	100.923	-0.115	-0.136
-537.179	8.588	-0.240	-0.183
-536.164	800.000	0.016	0.061
-535.150	136.087	0.157	-0.208
-534.135	-107.242	0.075	-0.017
-533.121	597.696	0.084	0.211
-532.106	-18.620	0.520	0.329
-531.091	-85.906	-0.135	-0.042
-530.077	800.000	0.113	-0.319
-529.062	-0.815	-0.382	-0.275
-528.048	-60.163	-0.345	-0.149
-527.033	58.443	0.088	0.087
-526.018	288.661	0.027	-0.049
-525.004	-200.000	-0.021	-0.222
-523.989	106.924	0.183	-0.220
-522.975	-53.367	0.159	-0.074
-521.960	290.043	0.085	-0.156
-520.945	-200.000	0.003	-0.091
-519.931	718.051	-0.088	0.238
-518.916	-200.000	-0.031	0.486
-517.902	-200.000	0.003	0.144
-516.887	504.640	-0.012	0.029
-515.872	-200.000	0.030	0.427
-514.858	-25.956	-0.049	-0.029
-513.843	-200.000	0.005	-0.052
-512.829	-21.953	-0.216	-0.133
-511.814	-200.000	0.006	-0.095
-510.799	-102.625	-0.255	-0.062
-509.785	61.904	-0.125	0.127
-508.770	111.333	-0.262	0.320
-507.756	222.424	-0.121	0.197
-506.741	800.000	0.038	0.110
-505.726	-139.913	0.140	0.015
-504.712	41.028	-0.061	0.056
-503.697	63.344	0.194	-0.197
-502.683	45.840	0.286	0.268
-501.668	-200.000	0.050	-0.345
-500.653	-101.892	0.157	0.038
-499.639	-114.772	-0.219	0.042
-498.624	-151.020	0.118	-0.009
-497.610	800.000	-0.035	-0.134
-496.595	-136.781	-0.220	-0.026
-495.581	-61.532	-0.110	0.047
-494.566	800.000	-0.004	0.015
-493.551	431.049	-0.084	-0.184
-492.537	-133.127	0.131	0.017
-491.522	262.702	-0.111	-0.195
-490.508	-200.000	-0.028	0.258
-489.493	-200.000	-0.012	0.115
-488.478	800.000	-0.078	-0.327
-487.464	157.464	0.083	0.116
-486.449	-200.000	-0.004	-0.174
-485.435	-140.158	-0.314	-0.033
-484.420	-36.938	-0.165	-0.090
-483.405	-200.000	-0.011	0.161
-482.391	-104.349	-0.154	-0.036
-481.376	-62.623	0.141	0.059
-480.362	-200.000	0.000	-0.056
-479.347	-137.798	-0.147	0.017
-478.332	-101.408	0.074	-0.018
-477.318	-151.935	-0.297	-0.022
-476.303	53.931	0.111	-0.108
-475.289	-74.458	0.168	-0.061
-474.274	-200.000	0.021	0.321
-473.259	136.585	-0.364	-0.481
-472.245	0.702	0.103	0.075
-471.230	800.000	0.073	-0.239
-470.216	-0.995	0.154	-0.111
-469.201	-40.780	0.179	0.094
-468.186	212.727	-0.114	-0.182
-467.172	-97.259	0.259	0.068
-466.157	800.000	0.054	-0.185
-465.143	35.657	0.126	-0.112
-464.128	-200.000	0.080	-0.565
-463.113	800.000	-0.024	-0.077
-462.099	-33.176	0.128	-0.072
-461.084	-38.459	0.056	-0.030
-460.070	27.181	-0.089	-0.076
-459.055	-200.000	0.012	0.291
-458.040	800.000	0.129	0.367
-457.026	53.976	-0.029	0.028
-456.011	446.676	0.199	-0.443
-454.997	-200.000	-0.024	0.154
-453.982	-108.914	-0.090	0.019
-452.968	143.878	-0.161	0.217
-451.953	-122.920	0.194	0.032
-450.938	17.537	0.141	0.113
-449.924	-73.559	0.199	-0.073
-448.909	734.499	-0.069	-0.186
-447.895	222.225	-0.076	-0.124
-446.880	-200.000	-0.003	-0.033
-445.865	-200.000	0.030	0.160
-444.851	-58.716	0.041	-0.018
-443.836	59.982	0.265	0.265
-442.822	-122.874	0.153	0.025
-441.807	-200.000	0.015	-0.225
-440.792	-200.000	0.004	0.085
-439.778	-81.882	0.292	-0.097
-438.763	-200.000	0.038	-0.330
-437.749	-200.000	-0.002	-0.286
-436.734	-22.609	-0.073	-0.044
-435.719	-175.162	-0.256	0.007
-434.705	-159.803	-0.061	0.003
-433.690	-33.596	-0.157	-0.087
-432.676	243.306	0.150	0.255
-431.661	-122.563	-0.382	0.063
-430.646	-48.746	0.004	0.002
-429.632	215.067	0.065	0.104
-428.617	103.265	0.081	-0.096
-427.603	800.000	0.063	0.232
-426.588	558.782	-0.095	0.232
-425.573	123.027	-0.065	-0.082
-424.559	-200.000	0.002	0.071
-423.544	-200.000	0.020	-0.284
-422.530	2.214	0.335	-0.245
-421.515	-106.565	0.198	-0.045
-420.500	201.294	0.084	0.131
-419.486	800.000	0.095	0.399
-418.471	73.144	0.125	0.132
-417.457	-123.129	0.073	-0.012
-416.442	-32.980	-0.146	-0.082
-415.428	-132.442	0.337	0.044
-414.413	-74.442	-0.265	0.096
-413.398	800.000	0.042	0.148
-412.384	-200.000	0.042	0.325
-411.369	-27.046	-0.047	-0.028
-410.355	800.000	0.081	0.234
-409.340	-147.632	-0.460	0.039
-408.325	-60.584	0.266	0.114
-407.311	800.000	0.077	-0.245
-406.296	-32.074	0.104	-0.059
-405.282	55.052	0.145	-0.142
-404.267	800.000	0.082	-0.240
-403.252	-50.525	-0.180	0.086
-402.238	145.407	-0.035	-0.047
-401.223	-96.170	0.109	-0.029
-400.209	552.901	0.057	0.138
-399.194	-73.581	-0.370	0.136
-398.179	-146.369	-0.129	0.011
-397.165	-172.653	0.102	-0.003
-396.150	-116.807	0.237	-0.044
-395.136	-102.565	0.338	0.081
-394.121	-198.519	-0.313	-0.002
-393.106	129.442	-0.163	0.210
-392.092	-23.965	0.462	-0.279
-391.077	-1.631	-0.148	-0.105
-390.063	-200.000	-0.006	0.083
-389.048	153.586	0.045	-0.062
-388.033	301.332	-0.075	-0.139
-387.019	-17.691	0.163	0.103
-386.004	41.691	0.165	-0.151
-384.990	91.165	0.062	0.070
-383.975	311.999	-0.041	-0.078
-382.960	-49.999	0.227	-0.108
-381.946	34.634	-0.207	0.183
-380.931	-46.126	-0.226	0.112
-379.917	-200.000	0.003	0.093
-378.902	-200.000	-0.007	-0.268
-377.888	-200.000	-0.054	0.310
-376.873	800.000	-0.042	-0.178
-375.858	40.559	-0.223	-0.203
-374.844	40.602	0.086	0.078
-373.829	454.938	-0.120	0.269
-372.815	-56.448	-0.269	0.120
-371.800	319.099	-0.085	-0.162
-370.785	800.000	0.018	0.068
-369.771	-4.671	-0.218	-0.152
-368.756	779.500	0.015	0.041
-367.742	-47.636	-0.177	0.086
-366.727	-200.000	-0.015	0.318
-365.712	800.000	-0.004	0.018
-364.698	98.883	0.009	-0.011
-363.683	-153.228	-0.103	-0.007
-362.669	800.000	0.102	-0.295
-361.654	42.866	0.184	-0.169
-360.639	-21.569	-0.297	0.183
-359.625	-81.550	-0.152	-0.050
-358.610	-20.268	0.118	-0.073
-357.596	-26.122	-0.120	-0.071
-356.581	108.854	-0.240	-0.289
-355.566	75.527	0.105	-0.112
-354.552	-103.156	-0.171	0.041
-353.537	-180.959	0.103	-0.002
-352.523	-200.000	0.014	-0.076
-351.508	800.000	-0.067	-0.278
-350.493	239.552	-0.199	-0.333
-349.479	-200.000	0.065	-0.307
-348.464	-0.630	0.293	0.209
-347.450	-10.933	-0.205	0.136
-346.435	94.794	0.135	0.154
-345.420	8.850	0.052	0.040
-344.406	13.616	0.405	-0.317
-343.391	-7.040	0.052	-0.035
-342.377	95.564	0.144	-0.165
-341.362	-110.694	-0.085	-0.018
-340.348	231.769	-0.158	-0.262
-339.333	-100.158	0.229	-0.057
-338.318	-164.297	0.356	-0.016
-337.304	-1.921	-0.035	0.025
-336.289	99.211	0.188	0.219
-335.275	-200.000	0.097	0.535
-334.260	0.073	-0.306	0.219
-333.245	118.895	0.079	-0.098
-332.231	-200.000	-0.001	0.347
-331.216	-143.581	0.295	0.028
-330.202	-200.000	0.007	-0.176
-329.187	-23.966	0.356	0.214
-328.172	0.132	0.109	-0.079
-327.158	694.561	-0.048	0.127
-326.143	-156.590	0.547	-0.034
-325.129	800.000	-0.129	0.394
-324.114	-200.000	0.007	0.211
-323.099	1.834	0.056	-0.041
-322.085	46.037	-0.257	-0.239
-321.070	-114.913	-0.081	-0.016
-320.056	93.341	-0.134	-0.152
-319.041	-12.995	-0.263	0.172
-318.026	91.966	-0.104	0.118
-317.012	-200.000	-0.073	-0.321
-315.997	800.000	0.079	-0.226
-314.983	522.646	-0.085	-0.201
-313.968	33.116	-0.027	-0.024
-312.953	-42.466	0.305	0.157
-311.939	800.000	0.046	0.178
-310.924	71.481	0.418	0.437
-309.910	-52.852	-0.099	0.046
-308.895	-94.623	0.098	0.027
-307.880	105.336	0.171	0.203
-306.866	-41.789	0.316	0.163
-305.851	800.000	-0.085	-0.357
-304.837	-99.263	0.234	0.059
-303.822	-2.717	0.210	-0.148
-302.807	208.132	-0.030	0.047
-301.793	-105.435	-0.268	0.061
-300.778	-83.188	0.276	0.089
-299.764	-200.000	-0.020	0.148
-298.749	-36.369	-0.422	-0.229
-297.735	12.566	0.194	-0.151
-296.720	-200.000	-0.246	0.001
-295.705	15.689	0.055	0.044
-294.691	182.252	0.098	0.145
-293.676	-59.998	-0.262	-0.112
-292.662	-28.519	-0.227	-0.132
-291.647	347.017	-0.183	0.362
-290.632	-18.520	0.147	0.092
-289.618	228.299	0.096	0.157
-288.603	36.272	-0.159	0.141
-287.589	800.000	-0.101	-0.358
-286.574	621.186	0.079	0.201
-285.559	293.090	-0.071	0.131
-284.545	-73.874	-0.048	0.017
-283.530	800.000	-0.137	0.399
-282.516	299.826	0.080	-0.147
-281.501	52.266	0.198	0.190
-280.486	-200.000	-0.006	0.059
-279.472	-200.000	0.011	0.052
-278.457	15.300	0.237	-0.187
-277.443	17.029	0.110	-0.088
-276.428	800.000	0.081	0.325
-275.413	72.151	-0.200	-0.209
-274.399	800.000	-0.089	-0.260
-273.384	-200.000	0.030	-0.333
-272.370	68.029	0.152	-0.156
-271.355	10.051	0.175	0.134
-270.340	-72.555	0.195	-0.072
-269.326	-200.000	0.003	-0.135
-268.311	-148.649	0.164	-0.013
-267.297	-53.306	0.286	-0.132
-266.282	1.860	0.028	0.020
-265.267	-20.765	-0.094	0.058
-264.253	-115.672	0.403	0.076
-263.238	-98.280	-0.220	-0.057
-262.224	-43.557	0.090	0.046
-261.209	126.494	-0.072	-0.092
-260.195	319.896	-0.073	0.140
-259.180	-158.565	0.162	0.009
-258.165	-200.000	0.019	0.166
-257.151	-72.103	-0.230	0.086
-256.136	126.248	-0.097	-0.124
-255.122	215.517	0.102	0.162
-254.107	22.415	-0.331	-0.271
-253.092	-44.702	0.168	0.084
-252.078	800.000	-0.145	0.531
-251.063	260.945	-0.048	0.083
-250.049	-195.706	0.121	0.001
-249.034	-135.887	0.171	-0.020
-248.019	-11.914	0.078	0.051
-247.005	-146.127	-0.111	0.010
-245.990	-28.614	-0.205	0.118
-244.976	97.997	0.151	-0.174
-243.961	-134.503	-0.285	-0.035
-242.946	-73.251	-0.130	0.048
-241.932	31.065	-0.179	-0.154
-240.917	-200.000	-0.006	-0.028
-239.903	-61.169	-0.083	0.035
-238.888	186.216	-0.088	0.131
-237.873	245.855	0.042	0.071
-236.859	800.000	-0.122	0.427
-235.844	792.810	-0.123	0.339
-234.830	28.045	-0.106	-0.089
-233.815	-109.847	0.365	0.077
-232.800	800.000	0.045	-0.168
-231.786	-129.668	-0.168	-0.023
-230.771	-64.173	-0.347	-0.142
-229.757	-54.946	0.223	-0.101
-228.742	800.000	-0.064	-0.242
-227.727	-200.000	-0.006	-0.274
-226.713	9.298	-0.212	-0.161
-225.698	-123.057	-0.039	0.006
-224.684	-155.936	0.252	-0.016
-223.669	99.294	0.125	0.145
-222.655	262.833	0.204	-0.356
-221.640	-200.000	-0.010	0.116
-220.625	17.956	-0.121	-0.097
-219.611	73.003	0.309	-0.323
-218.596	112.927	0.058	0.070
-217.582	633.299	0.128	0.324
-216.567	-194.940	0.093	-0.001
-215.552	6.009	0.353	0.262
-214.538	215.778	-0.204	0.325
-213.523	789.938	0.154	-0.423
-212.509	162.840	0.168	-0.237
-211.494	-65.697	0.135	-0.054
-210.479	710.137	0.017	-0.045
-209.465	-200.000	-0.012	-0.107
-208.450	-86.583	-0.033	0.010
-207.436	800.000	0.074	0.240
-206.421	-94.906	-0.202	0.055
-205.406	-4.583	-0.043	-0.029
-204.392	51.885	-0.109	0.104
-203.377	642.309	0.104	-0.265
-202.363	155.326	0.181	0.249
-201.348	-73.792	0.193	0.070
-200.333	198.770	-0.049	-0.076
-199.319	800.000	0.051	-0.168
-198.304	682.272	-0.056	0.147
-197.290	208.224	0.011	0.017
-196.275	-78.178	0.183	-0.063
-195.260	-86.191	-0.351	0.108
-194.246	-62.167	-0.096	-0.040
-193.231	163.278	0.198	0.279
-192.217	-71.870	-0.221	-0.082
-191.202	115.838	0.061	0.075
-190.187	110.514	-0.217	0.261
-189.173	-200.000	-0.037	-0.237
-188.158	83.833	0.313	-0.342
-187.144	-84.936	0.231	-0.073
-186.129	-157.758	-0.148	0.009
-185.114	430.389	-0.104	0.225
-184.100	-177.156	0.219	-0.005
-183.085	110.408	-0.112	-0.135
-182.071	300.582	0.253	0.467
-181.056	-117.631	-0.182	-0.033
-180.042	-58.634	-0.174	0.075
-179.027	-73.096	-0.177	0.065
-178.012	210.238	0.180	0.283
-176.998	-200.000	-0.011	0.236
-175.983	800.000	-0.046	-0.147
-174.969	-70.107	-0.392	0.149
-173.954	137.226	-0.225	0.294
-172.939	-23.391	-0.311	0.187
-171.925	444.162	-0.116	0.254
-170.910	-200.000	0.020	-0.184
-169.896	249.406	0.102	-0.172
-168.881	-200.000	-0.009	0.487
-167.866	135.121	0.201	0.261
-166.852	-123.067	-0.081	0.013
-165.837	35.354	-0.240	0.211
-164.823	6.558	-0.315	0.234
-163.808	90.317	0.194	-0.217
-162.793	800.000	0.028	0.084
-161.779	504.752	-0.043	-0.099
-160.764	76.976	0.037	-0.039
-159.750	-176.339	0.079	-0.002
-158.735	138.527	-0.254	-0.334
-157.720	-17.967	0.046	-0.029
-156.706	98.732	0.250	0.288
-155.691	347.474	-0.055	-0.109
-154.677	-87.062	-0.207	-0.063
-153.662	189.047	-0.179	-0.268
-152.647	-198.538	-0.186	-0.001
-151.633	182.905	0.138	0.204
-150.618	143.392	0.020	0.027
-149.604	205.555	0.115	-0.179
-148.589	-137.943	0.128	0.014
-147.574	208.556	-0.078	-0.122
-146.560	43.309	-0.227	-0.208
-145.545	-200.000	0.016	-0.161
-144.531	-114.467	0.160	0.031
-143.516	-200.000	-0.017	0.107
-142.502	-107.571	-0.135	-0.030
-141.487	177.544	0.091	-0.133
-140.472	364.694	-0.178	-0.358
-139.458	363.589	-0.116	-0.233
-138.443	800.000	0.093	-0.332
-137.429	-108.378	0.157	0.034
-136.414	104.182	-0.275	0.323
-135.399	-200.000	0.016	-0.076
-134.385	-200.000	0.001	0.004
-133.370	9.847	-0.162	-0.123
-132.356	55.606	0.314	-0.304
-131.341	800.000	0.051	0.203
-130.326	-200.000	0.024	-0.354
-129.312	-153.808	-0.115	-0.008
-128.297	73.592	0.062	-0.065
-127.283	800.000	0.061	0.194
-126.268	-200.000	-0.049	0.237
-125.253	158.766	0.078	-0.109
-124.239	-200.000	-0.037	-0.357
-123.224	-200.000	0.048	-0.217
-122.210	-69.645	-0.115	0.044
-121.195	-100.258	0.161	-0.040
-120.180	-62.990	0.341	-0.141
-119.166	-200.000	0.015	0.227
-118.151	-29.447	-0.198	0.113
-117.137	-122.882	0.143	-0.023
-116.122	-106.855	-0.322	-0.071
-115.107	428.504	0.104	-0.223
-114.093	-67.990	0.271	-0.105
-113.078	-111.759	0.260	-0.053
-112.064	-128.181	0.338	0.048
-111.049	-26.024	0.263	-0.154
-110.034	-136.301	0.219	0.026
-109.020	-76.522	0.151	-0.053
-108.005	-89.827	-0.326	0.095
-106.991	-200.000	-0.099	-0.559
-105.976	575.343	-0.098	0.238
-104.962	550.484	-0.053	-0.127
-103.947	-200.000	-0.025	0.331
-102.932	-45.073	-0.050	-0.025
-101.918	54.833	0.079	-0.076
-100.903	-96.564	-0.164	-0.043
-99.889	-83.723	0.169	0.054
-98.874	286.415	0.207	-0.373
-97.859	-32.386	-0.521	0.290
-96.845	-74.260	0.259	0.093
-95.830	800.000	-0.078	0.291
-94.816	0.738	0.194	0.139
-93.801	110.178	0.048	-0.058
-92.786	-16.408	-0.135	-0.085
-91.772	-113.773	0.268	0.052
-90.757	-138.100	0.331	-0.037
-89.743	-186.038	-0.252	0.004
-88.728	800.000	-0.026	0.076
-87.713	800.000	-0.072	0.222
-86.699	4.679	-0.137	0.100
-85.684	-200.000	0.092	0.417
-84.670	9.219	0.324	0.244
-83.655	-200.000	-0.014	-0.147
-82.640	182.161	0.058	0.086
-81.626	160.604	-0.237	-0.330
-80.611	-149.934	-0.035	0.003
-79.597	-200.000	0.040	0.315
-78.582	-200.000	-0.025	0.255
-77.567	84.739	-0.197	0.215
-76.553	-50.781	-0.061	-0.029
-75.538	790.378	-0.100	0.274
-74.524	9.922	-0.407	-0.308
-73.509	-200.000	0.013	-0.308
-72.494	-153.785	-0.266	0.018
-71.480	-84.309	0.235	0.074
-70.465	-30.493	0.107	0.060
-69.451	-16.174	-0.219	-0.139
-68.436	-200.000	-0.016	0.115
-67.422	-170.157	0.412	0.015
-66.407	605.363	-0.091	0.226
-65.392	45.812	0.086	0.080
-64.378	46.470	0.094	-0.087
-63.363	800.000	0.047	-0.153
-62.349	-154.269	-0.070	-0.005
-61.334	-115.436	-0.829	-0.156
-60.319	182.391	0.225	0.331
-59.305	-200.000	0.107	-0.705
-58.290	99.714	0.666	0.768
-57.276	773.168	0.593	1.611
-56.261	-200.000	77.973	513.102
-55.246	513.303	1331.144	3090.887
-54.232	147.994	2555.172	3432.166
-53.217	115.842	2225.310	2711.606
-52.203	51.859	1678.344	1590.868
-51.188	44.162	1405.495	1283.755
-50.173	40.627	1360.776	1221.151
-49.159	58.683	1396.535	1365.809
-48.144	65.308	1415.643	1425.559
-47.130	44.566	1377.493	1260.482
-46.115	40.562	1361.229	1220.962
-45.100	40.359	1356.817	1215.715
-44.086	40.258	1354.267	1212.760
-43.071	40.267	1351.223	1210.046
-42.057	40.191	1349.459	1207.949
-41.042	40.251	1347.718	1206.713
-40.027	40.260	1345.882	1205.073
-39.013	40.387	1344.200	1204.293
-37.998	40.392	1341.899	1202.212
-36.984	40.422	1340.105	1200.740
-35.969	40.587	1337.816	1199.640
-34.954	40.527	1336.520	1198.068
-33.940	40.554	1335.094	1196.903
-32.925	40.518	1334.422	1196.034
-31.911	40.604	1332.539	1194.823
-30.896	40.631	1331.021	1193.576
-29.881	40.528	1329.865	1191.873
-28.867	40.482	1328.448	1190.278
-27.852	40.574	1326.923	1189.413
-26.838	40.569	1325.157	1187.758
-25.823	40.587	1323.783	1186.581
-24.809	40.638	1322.226	1185.447
-23.794	40.497	1321.325	1183.751
-22.779	40.484	1319.629	1182.106
-21.765	40.698	1317.967	1181.844
-20.750	40.472	1317.189	1179.753
-19.736	40.419	1315.584	1177.958
-18.721	40.265	1314.688	1176.189
-17.706	40.488	1313.124	1176.069
-16.692	40.491	1311.816	1174.866
-15.677	40.366	1311.273	1173.594
-14.663	40.334	1310.211	1172.411
-13.648	40.407	1308.932	1171.651
-12.633	40.488	1307.728	1171.003
-11.619	40.394	1306.853	1169.617
-10.604	40.521	1305.490	1169.103
-9.590	40.404	1304.904	1167.840
-8.575	40.315	1304.331	1166.756
-7.560	40.375	1303.201	1166.050
-6.546	40.378	1302.390	1165.297
-5.531	40.384	1301.510	1164.502
-4.517	40.378	1300.741	1163.733
-3.502	40.503	1299.355	1163.178
-2.487	40.518	1298.424	1162.387
-1.473	40.410	1294.320	1158.034
-0.458	38.834	1279.259	1135.400
0.556	34.850	1258.363	1089.952
1.571	30.646	1261.773	1068.712
2.586	29.347	1277.339	1074.239
3.600	28.017	1266.692	1057.504
4.615	20.338	1188.921	950.610
5.629	8.224	1105.643	821.885
6.644	2.704	1080.781	775.481
7.659	2.207	1078.008	770.914
8.673	1.954	1076.641	768.595
9.688	1.937	1075.181	767.397
10.702	2.338	1074.239	768.672
11.717	9.069	1085.135	810.483
12.731	20.009	1101.066	878.075
13.746	25.044	1106.831	908.182
14.761	25.584	1106.641	910.678
15.775	25.437	1106.433	909.685
16.790	25.300	1105.231	907.922
17.804	25.140	1105.060	906.893
18.819	25.388	1104.407	907.527
19.834	25.454	1103.678	907.183
20.848	25.559	1103.358	907.369
21.863	25.493	1103.258	906.875
22.877	25.484	1102.321	905.981
23.892	25.422	1101.063	904.552
24.907	25.432	1100.913	904.400
25.921	25.436	1098.945	902.722
26.936	25.453	1098.020	901.969
27.950	25.383	1096.476	900.269
28.965	25.270	1094.822	898.267
29.980	25.357	1093.237	897.322
30.994	25.499	1092.785	897.580
32.009	25.395	1091.435	895.873
33.023	25.278	1090.390	894.353
34.038	25.346	1089.557	893.928
35.053	25.509	1088.845	894.078
36.067	25.321	1088.824	893.046
37.082	25.490	1087.399	892.636
38.096	25.648	1087.004	893.017
39.111	25.773	1086.523	893.164
40.126	25.481	1084.856	890.270
41.140	25.114	1083.146	886.972
42.155	24.993	1081.402	884.869
43.169	25.025	1081.037	884.649
44.184	25.037	1080.265	883.999
45.199	25.001	1079.027	882.729
46.213	25.047	1078.188	882.192
47.228	25.238	1077.449	882.446
48.242	25.159	1076.864	881.500
49.257	25.338	1075.733	881.378
50.271	25.487	1074.988	881.421
51.286	25.590	1074.373	881.343
52.301	25.563	1073.317	880.267
53.315	25.304	1072.616	878.347
54.330	25.285	1071.184	877.003
55.344	25.437	1070.194	876.858
56.359	25.320	1069.661	875.771
57.374	25.170	1068.740	874.210
58.388	25.242	1067.682	873.615
59.403	25.075	1067.646	872.696
60.417	24.948	1066.396	870.979
61.432	25.035	1065.793	870.833
62.447	25.206	1065.270	871.157
63.461	25.191	1064.106	870.056
64.476	25.089	1063.235	868.775
65.490	25.150	1062.383	868.295
66.505	25.251	1061.339	867.854
67.520	25.115	1061.708	867.423
68.534	24.875	1060.164	864.922
69.549	24.700	1058.959	863.019
70.563	24.618	1058.186	861.916
71.578	24.647	1057.671	861.561
72.593	24.471	1056.556	859.730
73.607	24.516	1056.305	859.664
74.622	24.920	1055.508	860.886
75.636	24.880	1055.244	860.403
76.651	24.858	1053.649	858.917
77.666	24.768	1053.126	857.986
78.680	24.784	1052.772	857.695
79.695	24.947	1051.829	857.632
80.709	24.921	1051.564	857.218
81.724	25.016	1050.255	856.527
82.739	25.124	1049.642	856.470
83.753	25.435	1048.904	857.273
84.768	25.667	1048.483	857.962
85.782	25.750	1047.983	857.873
86.797	25.659	1046.403	856.068
87.812	25.541	1045.180	854.431
88.826	25.557	1044.429	853.819
89.841	25.718	1043.762	853.963
90.855	25.690	1042.651	852.843
91.870	25.587	1042.400	852.076
92.884	25.570	1040.808	850.621
93.899	25.478	1039.949	849.407
94.914	25.654	1039.135	849.500
95.928	25.477	1038.378	847.966
96.943	25.356	1036.199	845.545
97.957	25.045	1035.733	843.625
98.972	24.853	1034.404	841.565
99.987	25.261	1033.514	842.685
101.001	25.303	1033.103	842.470
102.016	25.375	1032.387	842.150
103.030	25.360	1030.973	840.851
104.045	25.170	1030.507	839.507
105.060	25.015	1029.566	837.941
106.074	25.146	1028.896	837.937
107.089	25.567	1028.092	839.172
108.103	25.422	1027.303	837.778
109.118	25.160	1026.083	835.488
110.133	24.984	1025.159	833.844
111.147	24.974	1023.790	832.609
112.162	24.914	1022.759	831.419
113.176	25.168	1022.342	832.182
114.191	25.002	1021.547	830.693
115.206	24.602	1020.969	828.296
116.220	24.544	1019.907	827.093
117.235	24.768	1019.299	827.565
118.249	24.808	1017.912	826.548
119.264	24.719	1017.297	825.567
120.279	24.767	1016.516	825.080
121.293	24.877	1015.580	824.753
122.308	24.811	1015.037	823.934
123.322	24.757	1013.549	822.407
124.337	24.660	1012.380	820.941
125.352	24.161	1010.413	816.985
126.366	24.118	1009.250	815.774
127.381	24.841	1009.497	819.214
128.395	25.338	1009.315	821.265
129.410	25.347	1008.864	820.871
130.424	25.371	1007.626	819.901
131.439	25.320	1006.885	818.989
132.454	25.245	1006.058	817.906
133.468	25.206	1004.908	816.720
134.483	25.620	1003.556	817.429
135.497	25.620	1003.198	817.064
136.512	25.586	1002.615	816.364
137.527	25.563	1001.856	815.571
138.541	25.742	1000.748	815.407
139.556	25.608	1000.292	814.355
140.570	25.614	999.611	813.756
141.585	25.693	998.206	812.897
142.600	25.717	997.432	812.305
143.614	25.809	997.036	812.324
144.629	25.904	996.103	811.921
145.643	25.680	994.839	809.810
146.658	25.670	993.298	808.441
147.673	25.465	992.117	806.488
148.687	25.300	991.128	804.872
149.702	25.328	989.989	804.002
150.716	25.317	989.230	803.263
151.731	25.405	988.902	803.320
152.746	25.675	988.033	803.747
153.760	25.909	987.282	804.112
154.775	25.825	986.810	803.283
155.789	25.841	985.970	802.598
156.804	25.682	985.225	801.214
157.819	25.783	984.353	800.881
158.833	25.899	984.033	801.067
159.848	25.868	982.951	799.976
160.862	25.759	981.578	798.305
161.877	25.730	980.363	797.117
162.892	25.902	979.121	796.798
163.906	25.721	978.272	795.238
164.921	25.645	977.382	794.109
165.935	25.871	976.499	794.316
166.950	25.706	975.831	792.976
167.964	25.708	974.852	792.121
168.979	25.535	973.560	790.239
169.994	25.454	972.585	789.022
171.008	25.828	971.879	790.019
172.023	25.866	971.043	789.437
173.037	25.659	970.047	787.652
174.052	25.511	969.020	786.102
175.067	25.432	968.950	785.627
176.081	25.492	968.427	785.396
177.096	25.587	967.663	785.122
178.110	25.173	966.876	782.610
179.125	25.116	965.397	781.095
180.140	25.123	965.595	781.215
181.154	25.255	965.279	781.467
182.169	25.574	965.133	782.668
183.183	25.748	964.504	782.844
184.198	25.485	963.573	780.876
185.213	25.655	962.653	780.801
186.227	25.775	962.009	780.729
187.242	25.680	961.340	779.704
188.256	25.823	960.724	779.757
189.271	25.947	959.996	779.631
190.286	25.542	958.712	776.772
191.300	24.897	957.036	772.565
192.315	24.007	955.750	767.620
193.329	24.024	955.617	767.518
194.344	24.972	955.870	771.741
195.359	25.583	955.919	774.344
196.373	25.568	955.386	773.779
197.388	25.568	954.790	773.225
198.402	25.629	954.049	772.818
199.417	25.688	953.346	772.436
200.432	25.403	952.384	770.364
201.446	25.196	952.114	769.189
202.461	25.334	951.175	768.958
203.475	24.458	949.175	763.527
204.490	23.665	947.854	759.006
205.504	24.478	948.375	762.833
206.519	25.197	948.260	765.741
207.534	25.236	947.956	765.595
208.548	25.693	947.321	766.962
209.563	25.444	946.371	765.068
210.577	25.213	946.316	763.973
211.592	25.874	945.798	766.297
212.607	25.831	944.556	765.042
213.621	25.863	944.049	764.698
214.636	25.788	943.387	763.774
215.650	25.654	942.864	762.715
216.665	25.914	942.133	763.160
217.680	25.744	941.600	761.938
218.694	25.439	940.036	759.319
219.709	25.212	939.410	757.786
220.723	25.554	939.016	758.848
221.738	25.620	938.726	758.823
222.753	25.593	937.647	757.769
223.767	25.756	937.290	758.102
224.782	25.882	937.431	758.676
225.796	25.941	936.454	758.067
226.811	25.303	934.888	754.053
227.826	24.686	933.764	750.493
228.840	24.771	933.395	750.483
229.855	24.904	932.429	750.199
230.869	24.503	931.607	747.793
231.884	24.917	931.247	749.171
232.899	25.557	931.728	752.170
233.913	25.515	931.041	751.373
234.928	25.573	929.921	750.642
235.942	25.562	929.377	750.091
236.957	25.158	928.408	747.559
237.972	25.105	928.205	747.111
238.986	25.253	927.694	747.248
240.001	25.212	927.276	746.677
241.015	25.333	926.561	746.536
242.030	25.384	926.510	746.643
243.045	25.631	925.793	747.022
244.059	25.774	924.853	746.794
245.074	25.599	924.163	745.446
246.088	25.262	923.100	743.126
247.103	25.479	923.050	743.916
248.117	25.956	923.130	745.890
249.132	26.271	923.111	747.110
250.147	26.360	922.441	746.869
251.161	26.590	921.726	747.177
252.176	26.376	921.199	745.801
253.190	26.641	920.470	746.234
254.205	26.762	919.920	746.220
255.220	26.647	919.249	745.139
256.234	26.619	918.617	744.445
257.249	26.448	918.031	743.202
258.263	26.547	916.793	742.541
259.278	26.491	916.616	742.099
260.293	26.483	916.030	741.529
261.307	26.431	915.400	740.741
262.322	26.301	914.348	739.291
263.336	25.653	912.370	734.979
264.351	24.566	910.253	728.779
265.366	24.683	909.964	728.960
266.380	25.765	910.836	734.007
267.395	26.037	910.794	735.018
268.409	26.126	909.703	734.432
269.424	26.244	909.442	734.635
270.439	26.276	908.916	734.275
271.453	26.286	908.592	733.991
272.468	26.508	908.032	734.374
273.482	26.518	907.561	733.970
274.497	26.235	906.028	731.520
275.512	25.773	905.449	729.115
276.526	26.157	905.403	730.568
277.541	26.239	904.998	730.509
278.555	26.084	904.515	729.429
279.570	25.977	903.469	728.088
280.585	26.229	902.551	728.299
281.599	26.104	901.967	727.259
282.614	25.548	901.045	724.215
283.628	25.541	899.849	723.161
284.643	25.978	899.747	724.770
285.657	25.451	898.744	721.783
286.672	25.200	897.908	720.041
287.687	25.855	897.777	722.497
288.701	25.745	897.484	721.760
289.716	25.714	896.057	720.423
290.730	25.571	895.366	719.233
291.745	25.265	894.538	717.281
292.760	25.507	894.958	718.521
293.774	26.559	895.043	722.727
294.789	26.869	894.719	723.638
295.803	26.863	894.025	722.991
296.818	26.795	893.507	722.235
297.833	26.393	892.484	719.748
298.847	26.296	891.673	718.644
299.862	26.588	891.718	719.777
300.876	26.868	891.200	720.405
301.891	26.789	890.153	719.183
302.906	26.309	889.556	716.733
303.920	26.482	889.309	717.158
304.935	26.718	889.555	718.229
305.949	26.788	888.353	717.471
306.964	26.615	887.243	715.829
307.979	26.645	887.240	715.881
308.993	27.070	887.223	717.483
310.008	27.007	885.829	716.043
311.022	26.735	885.015	714.252
312.037	26.604	884.824	713.516
313.052	26.236	883.788	711.172
314.066	25.414	881.971	706.412
315.081	25.137	881.289	704.718
316.095	25.919	881.801	708.135
317.110	26.414	881.595	709.854
318.125	25.675	880.324	705.871
319.139	24.477	878.789	699.883
320.154	24.577	878.077	699.643
321.168	25.525	878.397	703.551
322.183	26.108	878.733	706.036
323.197	26.246	878.346	706.204
324.212	26.686	877.686	707.329
325.227	26.591	877.287	706.575
326.241	26.469	876.960	705.771
327.256	26.388	876.048	704.660
328.270	26.274	875.236	703.501
329.285	26.129	874.649	702.403
330.300	25.848	873.977	700.706
331.314	26.139	873.617	701.487
332.329	26.532	873.943	703.217
333.343	26.726	873.269	703.365
334.358	26.613	872.615	702.337
335.373	26.698	872.106	702.194
336.387	27.012	872.456	703.629
337.402	27.165	872.423	704.135
338.416	27.051	871.751	703.089
339.431	27.232	871.392	703.436
340.446	27.394	871.014	703.697
341.460	27.200	870.411	702.396
342.475	27.034	869.587	701.030
343.489	27.194	869.390	701.427
344.504	27.448	869.006	702.033
345.519	27.372	869.184	701.823
346.533	27.495	868.638	701.793
347.548	27.412	867.678	700.636
348.562	27.564	867.185	700.760
349.577	27.397	866.411	699.431
350.592	27.399	866.084	699.114
351.606	27.387	865.186	698.281
352.621	27.212	864.292	696.825
353.635	27.220	863.667	696.290
354.650	26.559	861.845	692.236
355.665	25.642	860.278	687.411
356.679	26.015	860.471	688.932
357.694	26.498	859.582	690.001
358.708	26.389	859.117	689.152
359.723	26.754	859.341	690.660
360.738	27.007	858.870	691.184
361.752	27.322	858.168	691.758
362.767	27.430	858.348	692.252
363.781	27.721	858.207	693.181
364.796	27.860	857.628	693.179
365.810	27.904	857.135	692.889
366.825	27.973	856.398	692.492
367.840	27.582	855.402	690.147
368.854	27.140	854.902	688.009
369.869	27.239	854.247	687.796
370.883	27.004	854.112	686.735
371.898	27.058	853.634	686.494
372.913	27.313	852.947	686.843
373.927	27.242	852.994	686.552
374.942	27.521	852.509	687.153
375.956	27.460	852.086	686.524
376.971	27.841	851.422	687.362
377.986	27.892	851.253	687.356
379.000	27.848	850.439	686.475
380.015	27.667	849.931	685.323
381.029	27.731	849.532	685.180
382.044	27.950	848.707	685.274
383.059	27.901	848.137	684.571
384.073	27.744	847.866	683.702
385.088	27.829	846.882	683.168
386.102	27.514	846.293	681.456
387.117	27.457	845.883	680.851
388.132	27.098	844.745	678.535
389.146	26.669	843.726	676.053
390.161	27.251	843.349	677.861
391.175	27.629	843.142	679.045
392.190	27.395	841.984	677.180
393.205	25.877	840.298	670.125
394.219	24.259	838.405	662.548
395.234	24.094	838.275	661.775
396.248	25.792	839.584	669.064
397.263	27.281	840.439	675.218
398.278	27.320	840.211	675.120
399.292	27.120	839.298	673.583
400.307	27.051	838.513	672.639
401.321	27.123	838.317	672.690
402.336	27.718	838.115	674.668
403.350	27.891	838.503	675.563
404.365	28.209	838.481	676.658
405.380	28.459	838.026	677.157
406.394	28.570	836.992	676.670
407.409	28.334	837.040	675.778
408.423	28.277	836.632	675.178
409.438	28.607	836.161	675.955
410.453	28.652	835.445	675.480
411.467	28.517	834.904	674.487
412.482	28.436	834.501	673.805
413.496	28.506	834.352	673.882
414.511	28.570	833.938	673.725
415.526	28.475	833.492	672.953
416.540	28.519	832.345	672.132
417.555	28.236	831.685	670.503
418.569	28.141	831.510	669.954
419.584	28.261	831.004	669.924
420.599	28.049	830.305	668.526
421.613	96.027	1269.342	1384.100
422.628	83.038	1333.338	1384.214
