DTS Sentinel unit serial number:	SN413079Multiplexer serial number:	ORYXHardware model number:	OX4-SRSoftware version number:	ORYX F/W v4.00 Oryx Data Collector v3.7.2.0data status	okinstallation	princeton_trtdifferential loss correction	single-endedforward channel	channel 1reverse channel	N/Adate	2019/09/10time	23:16:11forward acquisition time	60.00reverse acquisition time	0.00gamma	496.2192k internal	0.2331k external	0.2331temperature offset calibration	0.9936default loss term (dB/km)	0.3790temperature slope calibration	1.0000multiplexer offset coefficient	1.0000multiplexer slope coefficient	1.0000fibre end	0.00T internal ref (°C)	29.86T ext. ref 1 (°C)	-0.31T ext. ref 2 (°C)	23.45length (m)	temperature (°C)	Stokes	anti-Stokes-747.200	47.569	0.174	-0.163
-746.185	800.000	-0.055	0.212
-745.171	-148.967	-0.232	-0.019
-744.156	182.327	-0.039	-0.057
-743.142	-200.000	-0.005	0.175
-742.127	-91.416	0.154	-0.044
-741.112	243.497	-0.145	-0.245
-740.098	-92.154	-0.256	0.073
-739.083	3.895	0.328	0.241
-738.069	-200.000	-0.012	0.284
-737.054	-200.000	0.033	0.150
-736.039	11.964	0.081	-0.063
-735.025	800.000	0.180	0.568
-734.010	-157.735	-0.297	-0.018
-732.996	717.593	0.021	0.056
-731.981	22.326	0.134	-0.110
-730.966	42.392	0.089	0.081
-729.952	86.616	-0.228	0.253
-728.937	-200.000	0.011	-0.185
-727.923	-87.431	-0.271	0.082
-726.908	-200.000	-0.029	-0.138
-725.894	-63.706	-0.122	0.050
-724.879	-112.122	-0.168	-0.034
-723.864	-200.000	-0.044	-0.202
-722.850	-4.261	-0.142	0.098
-721.835	-179.035	0.097	-0.002
-720.821	255.708	-0.221	0.380
-719.806	-200.000	-0.014	-0.213
-718.791	40.514	0.088	0.080
-717.777	197.464	0.036	-0.055
-716.762	56.589	-0.101	0.099
-715.748	-31.227	-0.181	0.102
-714.733	465.240	0.014	0.031
-713.718	51.975	-0.140	-0.134
-712.704	-157.084	-0.176	-0.011
-711.689	-77.858	-0.307	0.107
-710.675	-87.371	-0.395	0.120
-709.660	15.774	-0.143	0.113
-708.645	-104.913	-0.016	0.004
-707.631	158.456	0.124	-0.173
-706.616	-200.000	0.032	-0.165
-705.602	-89.284	0.128	-0.038
-704.587	-56.681	0.130	-0.058
-703.572	45.424	0.304	-0.282
-702.558	699.938	-0.060	0.158
-701.543	-63.662	0.422	-0.174
-700.529	-28.394	-0.250	-0.145
-699.514	-200.000	-0.045	0.237
-698.499	-113.398	-0.088	-0.017
-697.485	-93.989	-0.128	0.035
-696.470	-200.000	0.017	-0.153
-695.456	-200.000	-0.056	-0.273
-694.441	21.649	-0.076	-0.062
-693.426	137.999	0.259	-0.342
-692.412	154.125	0.190	-0.261
-691.397	800.000	-0.092	0.346
-690.383	-200.000	0.005	-0.038
-689.368	338.846	-0.020	0.038
-688.354	-107.170	0.410	-0.091
-687.339	52.726	-0.071	-0.068
-686.324	676.116	0.089	0.233
-685.310	-124.890	0.293	-0.045
-684.295	-148.785	0.399	-0.032
-683.281	641.430	-0.100	-0.255
-682.266	82.727	-0.250	-0.273
-681.251	25.721	0.135	-0.113
-680.237	-200.000	-0.001	0.236
-679.222	-200.000	0.024	0.257
-678.208	42.562	0.160	0.146
-677.193	90.043	-0.313	-0.351
-676.178	-92.316	-0.309	0.088
-675.164	39.414	0.229	-0.206
-674.149	-10.907	0.151	0.100
-673.135	-164.967	-0.173	0.008
-672.120	-103.708	0.198	-0.047
-671.105	6.191	0.169	0.125
-670.091	-77.533	-0.258	0.090
-669.076	-200.000	-0.006	-0.211
-668.062	188.674	0.142	0.213
-667.047	800.000	-0.058	0.216
-666.032	146.633	-0.142	0.191
-665.018	-3.334	0.187	-0.131
-664.003	-200.000	0.019	0.418
-662.989	327.382	0.104	0.200
-661.974	-136.916	0.175	-0.020
-660.959	108.499	0.319	-0.382
-659.945	-67.923	-0.036	-0.014
-658.930	-39.833	0.163	-0.085
-657.916	-98.701	-0.122	0.031
-656.901	86.893	-0.154	0.170
-655.886	140.294	-0.078	-0.103
-654.872	-200.000	0.019	0.131
-653.857	800.000	0.035	-0.141
-652.843	-29.570	-0.126	0.072
-651.828	-12.995	-0.019	0.012
-650.814	-200.000	-0.049	-0.218
-649.799	-183.172	0.138	0.002
-648.784	-199.201	0.131	-0.001
-647.770	-142.906	-0.143	-0.014
-646.755	-176.534	0.007	0.000
-645.741	158.225	0.096	-0.133
-644.726	304.207	0.148	0.274
-643.711	407.654	-0.057	-0.121
-642.697	135.916	-0.161	0.211
-641.682	800.000	0.056	-0.232
-640.668	416.340	0.055	0.118
-639.653	94.154	0.102	-0.116
-638.638	7.733	-0.063	-0.047
-637.624	-107.558	-0.084	0.018
-636.609	628.432	0.076	-0.191
-635.595	258.423	0.065	-0.113
-634.580	-49.249	-0.238	-0.114
-633.565	185.252	-0.047	-0.070
-632.551	800.000	0.023	-0.084
-631.536	-19.993	-0.217	-0.134
-630.522	-200.000	-0.032	0.318
-629.507	120.038	0.254	0.316
-628.492	-174.920	-0.125	-0.004
-627.478	-74.149	0.228	-0.083
-626.463	-105.171	-0.194	0.044
-625.449	-116.997	-0.285	0.052
-624.434	-87.534	-0.180	-0.055
-623.419	-9.588	-0.067	0.045
-622.405	69.196	0.029	-0.030
-621.390	440.407	0.075	-0.164
-620.376	-197.033	0.246	-0.002
-619.361	-47.095	-0.314	0.154
-618.346	-31.945	0.028	0.015
-617.332	-57.411	0.309	-0.136
-616.317	36.249	0.149	-0.132
-615.303	236.661	0.057	0.094
-614.288	800.000	0.012	0.048
-613.273	19.364	0.188	0.151
-612.259	-11.114	-0.091	-0.060
-611.244	800.000	0.056	0.201
-610.230	-59.206	0.179	0.077
-609.215	800.000	0.079	-0.321
-608.201	-5.233	-0.208	-0.143
-607.186	-11.215	-0.219	-0.144
-606.171	5.413	-0.101	-0.075
-605.157	-200.000	-0.016	0.137
-604.142	800.000	-0.065	0.229
-603.128	-24.262	-0.333	0.199
-602.113	-97.619	-0.299	-0.078
-601.098	-60.791	-0.071	0.030
-600.084	400.664	-0.064	-0.134
-599.069	-66.956	-0.082	0.033
-598.055	61.688	0.248	0.247
-597.040	-200.000	0.006	0.355
-596.025	-96.363	-0.264	-0.070
-595.011	-200.000	0.053	0.326
-593.996	-58.878	0.207	0.090
-592.982	12.740	-0.260	0.201
-591.967	125.473	-0.099	-0.125
-590.952	-168.848	-0.673	-0.025
-589.938	-51.546	0.351	-0.164
-588.923	11.904	0.376	-0.289
-587.909	-113.296	-0.198	0.039
-586.894	254.851	-0.057	0.097
-585.879	-200.000	0.008	0.120
-584.865	305.347	-0.077	-0.143
-583.850	-200.000	-0.015	-0.138
-582.836	-177.779	-0.237	-0.006
-581.821	-124.682	-0.079	0.012
-580.806	800.000	-0.085	0.308
-579.792	-200.000	0.016	0.132
-578.777	147.866	-0.270	0.363
-577.763	157.103	-0.103	-0.142
-576.748	521.635	-0.056	-0.133
-575.733	-200.000	-0.006	0.240
-574.719	-0.171	0.119	-0.085
-573.704	-77.730	0.161	-0.056
-572.690	-64.708	0.190	-0.077
-571.675	-173.469	-0.203	0.006
-570.661	21.482	-0.040	-0.032
-569.646	800.000	0.033	0.132
-568.631	792.225	0.077	-0.213
-567.617	498.333	0.192	-0.442
-566.602	800.000	-0.092	-0.336
-565.588	-57.945	0.103	-0.045
-564.573	-66.180	0.062	0.025
-563.558	-200.000	0.051	-0.237
-562.544	73.197	-0.169	0.177
-561.529	-200.000	0.004	-0.103
-560.515	-200.000	0.037	-0.290
-559.500	335.656	0.159	-0.309
-558.485	-121.553	-0.443	-0.073
-557.471	8.459	0.078	-0.059
-556.456	129.237	-0.245	-0.313
-555.442	-21.113	-0.217	0.133
-554.427	-70.800	-0.217	-0.082
-553.412	209.587	0.173	-0.270
-552.398	-60.243	0.165	-0.070
-551.383	-130.610	0.069	-0.009
-550.369	525.148	0.060	-0.142
-549.354	800.000	0.073	-0.251
-548.339	54.456	0.271	0.260
-547.325	-81.737	-0.187	0.061
-546.310	-33.541	0.180	0.100
-545.296	-5.476	-0.329	0.225
-544.281	23.937	-0.108	-0.089
-543.266	-150.248	0.114	0.009
-542.252	131.370	-0.164	-0.210
-541.237	-81.088	0.259	0.086
-540.223	72.780	-0.089	-0.092
-539.208	-200.000	0.033	-0.339
-538.193	254.079	0.107	-0.182
-537.179	496.017	-0.083	0.191
-536.164	-31.866	0.171	-0.096
-535.150	-87.175	-0.311	-0.094
-534.135	-34.858	0.296	-0.161
-533.121	-200.000	-0.024	0.296
-532.106	-52.623	0.101	-0.047
-531.091	-200.000	-0.016	0.317
-530.077	-200.000	-0.010	0.244
-529.062	-90.210	-0.051	0.015
-528.048	-113.442	-0.450	0.088
-527.033	14.729	0.053	-0.042
-526.018	386.596	-0.087	0.180
-525.004	-94.193	0.104	-0.028
-523.989	-4.152	-0.120	-0.083
-522.975	-36.483	0.292	0.157
-521.960	-41.761	-0.271	-0.139
-520.945	800.000	0.078	-0.230
-519.931	-200.000	-0.002	0.035
-518.916	-21.352	-0.092	0.056
-517.902	-159.271	-0.054	0.003
-516.887	-200.000	-0.039	0.313
-515.872	-182.324	0.108	0.002
-514.858	-116.955	-0.262	-0.048
-513.843	-99.346	-0.344	-0.086
-512.829	104.627	0.227	-0.267
-511.814	143.069	-0.199	0.264
-510.799	65.872	-0.044	0.044
-509.785	224.281	-0.102	-0.164
-508.770	-62.579	0.081	-0.033
-507.756	-122.732	0.276	0.044
-506.741	444.133	0.090	0.197
-505.726	-133.153	0.155	-0.020
-504.712	-133.853	-0.369	-0.046
-503.697	-93.469	0.349	0.096
-502.683	-84.006	0.300	-0.095
-501.668	-200.000	-0.027	0.263
-500.653	164.755	0.121	0.170
-499.639	-200.000	0.004	-0.050
-498.624	-107.092	0.283	-0.062
-497.610	151.820	-0.185	-0.251
-496.595	36.554	-0.079	0.069
-495.581	-71.750	0.104	0.039
-494.566	115.727	-0.078	-0.095
-493.551	-55.099	-0.237	0.106
-492.537	-74.743	0.182	0.065
-491.522	-153.967	0.445	-0.030
-490.508	-155.401	0.177	-0.011
-489.493	724.190	0.160	-0.424
-488.478	-70.374	0.196	0.074
-487.464	-118.688	-0.207	-0.036
-486.449	-118.233	-0.246	0.044
-485.435	-28.961	-0.053	0.030
-484.420	-159.402	-0.322	-0.018
-483.405	-107.174	-0.196	-0.043
-482.391	256.221	0.174	-0.297
-481.376	-154.762	-0.246	0.016
-480.362	-102.764	-0.359	-0.085
-479.347	-69.520	-0.401	0.153
-478.332	-119.487	0.328	-0.057
-477.318	-39.691	0.282	0.147
-476.303	141.513	-0.155	0.205
-475.289	-27.092	0.153	0.089
-474.274	390.882	-0.091	-0.187
-473.259	250.379	0.118	0.199
-472.245	22.902	0.119	-0.097
-471.230	-183.422	0.176	-0.003
-470.216	-23.061	-0.243	0.146
-469.201	-200.000	-0.044	0.451
-468.186	92.313	-0.133	-0.150
-467.172	-200.000	-0.029	0.208
-466.157	317.583	0.058	-0.110
-465.143	85.918	0.072	-0.079
-464.128	114.786	-0.146	0.177
-463.113	-136.907	-0.519	-0.059
-462.099	800.000	0.025	-0.092
-461.084	-200.000	0.022	0.139
-460.070	800.000	0.012	0.043
-459.055	216.999	-0.032	-0.050
-458.040	105.342	-0.067	0.079
-457.026	-145.840	0.311	-0.028
-456.011	-200.000	-0.054	-0.282
-454.997	-174.922	-0.072	-0.002
-453.982	-102.572	-0.305	-0.073
-452.968	29.857	-0.306	-0.259
-451.953	-200.000	0.039	0.205
-450.938	-4.651	0.199	0.136
-449.924	-33.238	0.072	0.040
-448.909	-145.151	-0.432	-0.039
-447.895	-200.000	0.012	0.114
-446.880	-103.769	0.176	-0.041
-445.865	-114.117	-0.175	0.034
-444.851	-87.725	0.317	0.095
-443.836	800.000	0.116	0.379
-442.822	-84.693	0.321	0.101
-441.807	167.681	0.059	-0.083
-440.792	-179.690	-0.059	-0.001
-439.778	-200.000	0.019	-0.138
-438.763	50.118	0.259	-0.243
-437.749	-151.385	-0.375	-0.028
-436.734	-14.416	-0.103	0.066
-435.719	-94.286	-0.283	0.077
-434.705	-77.340	0.287	0.099
-433.690	-200.000	0.033	-0.205
-432.676	-200.000	0.049	-0.257
-431.661	611.150	-0.069	0.170
-430.646	-105.758	-0.189	0.042
-429.632	189.080	0.106	0.158
-428.617	-200.000	-0.017	0.183
-427.603	-200.000	-0.048	0.300
-426.588	-200.000	0.019	0.143
-425.573	-64.619	0.434	0.175
-424.559	-113.683	0.219	0.043
-423.544	62.128	0.121	-0.120
-422.530	-188.177	0.134	0.002
-421.515	-165.046	0.486	-0.021
-420.500	499.456	-0.175	-0.400
-419.486	4.290	0.030	0.022
-418.471	-200.000	0.034	0.152
-417.457	52.381	-0.131	0.124
-416.442	30.608	0.296	0.251
-415.428	-200.000	-0.002	0.272
-414.413	85.660	-0.214	0.233
-413.398	-147.437	-0.454	-0.038
-412.384	217.733	-0.091	-0.144
-411.369	800.000	0.041	0.174
-410.355	-120.645	0.106	0.018
-409.340	-125.740	-0.106	0.016
-408.325	-10.310	0.369	0.243
-407.311	-156.231	-0.330	-0.021
-406.296	-108.938	-0.022	0.005
-405.282	289.023	-0.082	0.147
-404.267	-30.144	0.265	0.149
-403.252	68.239	0.042	-0.043
-402.238	-0.608	0.217	-0.153
-401.223	-149.600	0.348	-0.027
-400.209	48.165	-0.081	0.075
-399.194	245.981	-0.118	-0.197
-398.179	610.116	0.135	0.335
-397.165	71.747	-0.073	-0.075
-396.150	116.396	-0.255	-0.310
-395.136	-55.884	0.293	0.130
-394.121	-150.669	0.550	-0.042
-393.106	164.301	-0.189	-0.264
-392.092	352.625	0.123	-0.242
-391.077	159.041	0.086	0.118
-390.063	-40.219	0.181	-0.094
-389.048	-200.000	0.040	-0.291
-388.033	24.920	-0.240	-0.197
-387.019	66.812	-0.120	0.121
-386.004	15.640	-0.038	-0.030
-384.990	51.384	0.079	0.074
-383.975	-116.511	0.194	-0.035
-382.960	608.651	0.205	-0.508
-381.946	-156.299	-0.059	-0.004
-380.931	123.884	0.194	-0.241
-379.917	800.000	-0.064	0.215
-378.902	32.762	-0.185	-0.159
-377.888	-155.910	-0.046	0.003
-376.873	-107.698	-0.314	0.068
-375.858	323.394	-0.042	0.079
-374.844	167.562	0.282	0.397
-373.829	-200.000	-0.006	-0.171
-372.815	-151.996	-0.038	-0.003
-371.800	90.725	0.131	0.145
-370.785	-200.000	-0.011	-0.111
-369.771	292.303	0.023	0.041
-368.756	-200.000	-0.053	-0.326
-367.742	-200.000	-0.044	0.229
-366.727	285.854	0.088	-0.157
-365.712	-117.431	0.179	-0.032
-364.698	-200.000	0.027	-0.378
-363.683	-144.989	0.506	0.046
-362.669	800.000	-0.145	-0.438
-361.654	-164.272	-0.181	0.008
-360.639	39.308	0.189	-0.168
-359.625	350.444	0.106	0.208
-358.610	-190.837	-0.273	0.003
-357.596	244.801	-0.141	-0.234
-356.581	143.320	0.136	0.180
-355.566	-40.891	0.224	0.115
-354.552	496.781	0.021	0.048
-353.537	255.613	-0.150	-0.255
-352.523	2.229	-0.081	-0.058
-351.508	-30.376	0.330	-0.186
-350.493	-95.283	0.246	-0.066
-349.479	264.961	-0.121	-0.209
-348.464	143.375	-0.126	0.166
-347.450	-200.000	0.010	-0.146
-346.435	170.775	0.073	-0.104
-345.420	800.000	0.041	0.120
-344.406	10.079	0.188	-0.142
-343.391	-200.000	0.093	-0.425
-342.377	800.000	-0.032	-0.112
-341.362	70.808	0.151	-0.155
-340.348	-47.412	0.136	-0.066
-339.333	74.630	-0.103	-0.108
-338.318	19.004	0.045	-0.036
-337.304	104.750	0.091	-0.107
-336.289	41.852	0.141	0.126
-335.275	-35.020	0.043	0.023
-334.260	79.822	-0.201	0.214
-333.245	396.585	0.303	-0.627
-332.231	-67.169	-0.177	-0.069
-331.216	297.626	-0.183	0.333
-330.202	87.261	0.087	-0.096
-329.187	-200.000	0.029	0.137
-328.172	-200.000	-0.033	0.181
-327.158	57.911	-0.253	0.246
-326.143	62.605	-0.258	-0.255
-325.129	-40.792	-0.103	0.053
-324.114	-200.000	0.008	-0.118
-323.099	-39.310	-0.413	-0.215
-322.085	126.008	0.152	0.190
-321.070	10.329	-0.211	0.159
-320.056	48.173	-0.109	-0.100
-319.041	-177.559	0.077	-0.002
-318.026	499.865	0.063	-0.144
-317.012	723.903	0.118	-0.311
-315.997	-200.000	0.005	-0.260
-314.983	800.000	-0.086	0.266
-313.968	-200.000	-0.012	-0.056
-312.953	-177.090	-0.165	0.004
-311.939	-104.118	0.122	-0.028
-310.924	-107.720	-0.424	-0.092
-309.910	-153.450	-0.135	0.009
-308.895	800.000	0.066	0.242
-307.880	92.400	0.133	0.148
-306.866	-29.617	-0.241	0.136
-305.851	-200.000	0.000	0.328
-304.837	-200.000	0.010	0.187
-303.822	-176.227	0.408	0.011
-302.807	-200.000	-0.011	0.196
-301.793	20.497	-0.173	-0.138
-300.778	28.968	0.200	0.168
-299.764	-84.936	0.178	-0.055
-298.749	-49.525	-0.222	0.105
-297.735	26.853	-0.177	0.146
-296.720	-200.000	-0.027	0.184
-295.705	800.000	-0.064	-0.229
-294.691	7.564	0.192	-0.142
-293.676	164.770	-0.216	0.302
-292.662	-200.000	-0.045	0.213
-291.647	-88.523	0.169	0.050
-290.632	-36.447	-0.187	0.100
-289.618	67.418	0.481	-0.485
-288.603	800.000	0.044	0.143
-287.589	800.000	0.025	-0.088
-286.574	118.241	-0.162	-0.198
-285.559	-200.000	0.005	-0.158
-284.545	246.664	0.084	-0.140
-283.530	-200.000	-0.050	0.219
-282.516	-132.392	0.165	0.021
-281.501	-72.394	0.274	0.100
-280.486	431.453	-0.122	-0.261
-279.472	100.259	-0.239	-0.274
-278.457	359.371	-0.185	-0.366
-277.443	151.852	-0.147	0.198
-276.428	286.425	-0.112	-0.200
-275.413	-200.000	-0.032	-0.205
-274.399	380.710	0.069	-0.140
-273.384	-38.045	0.078	0.041
-272.370	-53.497	0.159	-0.072
-271.355	167.737	-0.140	-0.197
-270.340	-200.000	-0.005	-0.062
-269.326	-86.516	-0.131	0.040
-268.311	77.586	0.302	0.318
-267.297	50.630	-0.297	0.278
-266.282	776.924	-0.105	0.283
-265.267	-116.513	0.393	-0.072
-264.253	800.000	-0.056	0.173
-263.238	800.000	-0.021	-0.086
-262.224	800.000	0.108	-0.315
-261.209	-64.649	0.118	-0.047
-260.195	15.644	-0.328	0.255
-259.180	84.429	-0.245	0.265
-258.165	800.000	-0.089	0.371
-257.151	-70.018	0.077	-0.029
-256.136	36.045	0.267	-0.232
-255.122	-25.839	-0.315	0.183
-254.107	195.805	0.019	-0.029
-253.092	578.305	0.129	0.312
-252.078	-66.976	-0.226	0.088
-251.063	338.940	-0.126	0.243
-250.049	83.730	0.108	-0.117
-249.034	-84.405	0.296	-0.092
-248.019	-93.174	-0.236	-0.065
-247.005	-200.000	-0.071	0.309
-245.990	-200.000	-0.009	0.158
-244.976	174.239	-0.075	-0.107
-243.961	-200.000	-0.001	0.078
-242.946	-37.287	0.226	-0.119
-241.932	-156.546	-0.246	0.015
-240.917	289.546	0.109	0.194
-239.903	79.737	-0.088	-0.093
-238.888	55.821	-0.221	0.211
-237.873	800.000	0.100	-0.362
-236.859	-153.029	0.132	-0.009
-235.844	131.675	-0.047	0.060
-234.830	187.385	-0.108	0.159
-233.815	-147.053	0.363	0.031
-232.800	-102.963	0.298	0.070
-231.786	-200.000	0.024	-0.235
-230.771	-143.988	0.345	-0.032
-229.757	59.064	-0.340	-0.329
-228.742	-178.215	0.152	-0.004
-227.727	800.000	-0.069	-0.237
-226.713	-200.000	-0.052	-0.249
-225.698	-154.260	-0.224	0.015
-224.684	26.121	0.084	0.070
-223.669	112.704	-0.109	0.131
-222.655	-86.679	0.286	-0.086
-221.640	27.158	0.103	-0.086
-220.625	48.361	-0.023	0.021
-219.611	-200.000	-0.075	0.326
-218.596	5.291	-0.315	0.229
-217.582	-127.235	0.460	0.066
-216.567	133.510	-0.234	-0.299
-215.552	24.564	0.176	0.144
-214.538	68.564	0.291	0.295
-213.523	262.781	0.161	0.275
-212.509	262.872	-0.090	-0.154
-211.494	-68.564	-0.456	-0.174
-210.479	-200.000	0.010	-0.173
-209.465	76.569	0.185	-0.194
-208.450	202.858	0.129	0.196
-207.436	-200.000	-0.023	0.138
-206.421	-200.000	0.006	0.037
-205.406	-10.423	0.104	0.068
-204.392	47.761	0.319	0.294
-203.377	-1.173	0.162	0.113
-202.363	800.000	-0.167	0.503
-201.348	5.596	0.218	-0.159
-200.333	-114.791	-0.243	0.046
-199.319	-19.314	-0.269	-0.164
-198.304	-142.239	-0.261	0.025
-197.290	-200.000	-0.024	-0.124
-196.275	800.000	-0.027	0.083
-195.260	-200.000	-0.010	0.122
-194.246	-76.722	-0.159	0.055
-193.231	341.941	0.043	-0.083
-192.217	167.862	-0.113	-0.158
-191.202	5.747	-0.271	0.198
-190.187	-103.000	-0.084	-0.020
-189.173	382.575	0.130	0.264
-188.158	-177.845	0.102	0.002
-187.144	-41.629	-0.096	-0.049
-186.129	800.000	-0.042	-0.121
-185.114	155.373	-0.134	0.181
-184.100	800.000	0.077	0.208
-183.085	-61.569	0.436	0.180
-182.071	95.486	-0.095	-0.107
-181.056	-200.000	-0.027	-0.182
-180.042	-200.000	-0.011	-0.181
-179.027	95.169	0.061	-0.069
-178.012	29.891	-0.154	0.129
-176.998	800.000	0.119	0.334
-175.983	166.074	0.139	0.193
-174.969	72.569	0.404	-0.415
-173.954	365.656	0.132	-0.261
-172.939	33.647	-0.195	0.167
-171.925	-21.383	-0.148	-0.089
-170.910	298.665	-0.064	-0.115
-169.896	125.445	0.099	-0.123
-168.881	-115.183	-0.525	0.098
-167.866	-134.558	0.144	0.017
-166.852	-147.193	0.229	-0.019
-165.837	-55.991	0.124	0.054
-164.823	-133.598	0.178	-0.022
-163.808	-86.336	-0.250	-0.076
-162.793	16.597	0.311	-0.242
-161.779	314.894	0.139	0.258
-160.764	800.000	0.072	-0.218
-159.750	100.493	-0.127	-0.145
-158.735	800.000	-0.025	0.089
-157.720	-20.981	-0.186	0.112
-156.706	-8.666	0.318	0.210
-155.691	-96.505	0.092	-0.024
-154.677	-200.000	0.000	0.041
-153.662	135.828	0.100	0.128
-152.647	-200.000	0.041	0.262
-151.633	-200.000	-0.023	0.129
-150.618	-6.744	0.277	0.185
-149.604	785.087	0.091	-0.246
-148.589	-77.545	-0.134	-0.046
-147.574	17.670	-0.181	0.142
-146.560	-80.670	0.213	0.070
-145.545	-200.000	-0.020	-0.259
-144.531	-200.000	-0.044	-0.198
-143.516	9.373	0.103	0.077
-142.502	-2.487	0.166	-0.115
-141.487	-30.179	-0.032	0.018
-140.472	800.000	-0.048	-0.181
-139.458	311.587	-0.068	-0.126
-138.443	595.385	0.087	0.212
-137.429	133.990	0.031	-0.040
-136.414	800.000	0.050	0.191
-135.399	484.869	0.045	0.100
-134.385	-3.168	-0.224	0.153
-133.370	599.527	-0.140	0.341
-132.356	-130.109	0.395	0.053
-131.341	323.733	0.150	0.281
-130.326	163.798	0.149	0.205
-129.312	109.624	0.120	-0.142
-128.297	87.425	0.082	0.089
-127.283	-200.000	0.005	0.173
-126.268	-131.675	0.400	0.052
-125.253	-59.724	0.051	-0.021
-124.239	351.026	-0.195	0.379
-123.224	176.335	-0.076	-0.108
-122.210	145.622	-0.142	0.186
-121.195	-75.017	0.267	0.094
-120.180	-47.276	0.405	0.194
-119.166	-56.659	-0.244	0.106
-118.151	488.442	0.072	0.161
-117.137	-72.088	0.166	-0.061
-116.122	-200.000	-0.038	0.164
-115.107	800.000	0.027	-0.094
-114.093	-200.000	-0.079	0.364
-113.078	345.115	-0.152	0.293
-112.064	-200.000	-0.002	0.063
-111.049	-200.000	0.005	-0.023
-110.034	-103.307	-0.315	-0.073
-109.020	-200.000	-0.049	-0.267
-108.005	177.283	-0.147	-0.210
-106.991	229.398	0.039	0.063
-105.976	-200.000	0.025	-0.377
-104.962	800.000	0.033	0.105
-103.947	-141.772	-0.085	-0.008
-102.932	-95.045	-0.299	0.079
-101.918	239.799	0.084	-0.138
-100.903	169.814	0.185	0.259
-99.889	-200.000	0.012	0.302
-98.874	-191.503	0.155	0.002
-97.859	23.580	0.362	-0.292
-96.845	86.451	0.057	0.062
-95.830	-43.350	0.066	-0.033
-94.816	73.983	0.040	-0.041
-93.801	84.994	-0.158	0.169
-92.786	800.000	0.065	0.199
-91.772	-95.976	0.067	0.018
-90.757	-132.607	-0.257	-0.032
-89.743	-200.000	-0.018	0.229
-88.728	93.820	0.160	0.178
-87.713	107.388	0.109	-0.127
-86.699	800.000	0.079	0.240
-85.684	-74.649	-0.176	-0.062
-84.670	-92.575	0.426	-0.117
-83.655	800.000	-0.039	0.129
-82.640	-200.000	-0.060	-0.304
-81.626	-147.643	0.109	-0.009
-80.611	529.318	0.103	-0.238
-79.597	-200.000	-0.024	0.215
-78.582	-22.656	0.213	0.126
-77.567	-57.619	0.059	-0.025
-76.553	301.946	-0.069	-0.125
-75.538	800.000	0.132	-0.498
-74.524	349.787	-0.035	0.067
-73.509	29.554	0.119	0.099
-72.494	50.856	-0.099	0.092
-71.480	360.427	-0.072	-0.142
-70.465	358.988	-0.100	0.197
-69.451	800.000	-0.058	0.169
-68.436	57.967	0.242	-0.233
-67.422	-150.350	0.125	0.009
-66.407	-200.000	0.016	0.111
-65.392	-187.087	0.083	-0.001
-64.378	-14.604	0.248	0.156
-63.363	-114.638	0.432	0.081
-62.349	101.522	-0.091	0.104
-61.334	159.142	-0.841	-1.145
-60.319	108.218	0.421	0.492
-59.305	800.000	-0.223	-0.737
-58.290	103.113	0.829	0.951
-57.276	244.430	0.917	1.509
-56.261	-200.000	105.595	616.396
-55.246	515.228	1495.569	3420.574
-54.232	178.708	2685.811	3843.898
-53.217	112.937	2153.109	2555.632
-52.203	41.870	1590.526	1412.649
-51.188	33.439	1326.131	1127.847
-50.173	30.216	1284.877	1074.085
-49.159	54.285	1339.043	1262.335
-48.144	54.963	1354.079	1280.461
-47.130	33.416	1309.561	1113.444
-46.115	30.044	1291.384	1078.354
-45.100	29.869	1286.628	1073.328
-44.086	29.762	1284.290	1070.714
-43.071	29.801	1281.332	1068.428
-42.057	29.730	1279.538	1066.484
-41.042	29.692	1277.988	1064.931
-40.027	29.752	1276.701	1064.161
-39.013	29.762	1274.709	1062.516
-37.998	29.685	1273.080	1060.675
-36.984	29.780	1271.451	1059.820
-35.969	29.864	1269.296	1058.461
-34.954	29.831	1267.768	1056.952
-33.940	29.866	1266.869	1056.363
-32.925	29.911	1265.523	1055.456
-31.911	29.987	1263.583	1054.228
-30.896	29.948	1262.385	1052.968
-29.881	29.985	1260.970	1051.952
-28.867	30.105	1259.089	1051.026
-27.852	29.977	1257.885	1049.251
-26.838	29.960	1256.248	1047.751
-25.823	29.878	1255.713	1046.796
-24.809	29.936	1254.042	1045.692
-23.794	29.846	1253.167	1044.412
-22.779	29.845	1251.991	1043.382
-21.765	30.012	1250.184	1042.774
-20.750	29.948	1249.068	1041.443
-19.736	29.859	1248.044	1040.047
-18.721	29.902	1246.130	1038.652
-17.706	29.803	1245.270	1037.340
-16.692	29.927	1243.743	1036.723
-15.677	29.784	1243.699	1035.843
-14.663	29.858	1242.313	1035.061
-13.648	29.834	1240.950	1033.754
-12.633	29.831	1239.812	1032.747
-11.619	29.794	1239.161	1031.956
-10.604	29.888	1238.056	1031.516
-9.590	29.826	1237.299	1030.504
-8.575	29.699	1237.020	1029.523
-7.560	29.747	1235.649	1028.608
-6.546	29.767	1234.788	1027.961
-5.531	29.808	1234.046	1027.527
-4.517	29.576	1233.616	1025.844
-3.502	29.796	1232.176	1025.822
-2.487	29.847	1231.255	1025.301
-1.473	29.830	1226.865	1021.510
-0.458	28.185	1212.555	1000.565
0.556	22.347	1195.188	962.255
1.571	18.676	1200.279	946.070
2.586	17.998	1214.160	953.146
3.600	17.678	1203.479	942.909
4.615	12.806	1133.409	862.490
5.629	4.007	1059.462	762.937
6.644	-0.061	1039.808	729.012
7.659	-0.345	1037.542	725.985
8.673	-0.423	1036.737	724.980
9.688	-0.400	1035.098	723.879
10.702	-0.179	1034.051	724.148
11.717	5.593	1041.506	757.282
12.731	14.517	1054.090	809.880
13.746	18.936	1059.107	835.174
14.761	19.676	1060.428	839.740
15.775	19.477	1060.229	838.540
16.790	19.502	1058.786	837.448
17.804	19.262	1058.398	835.900
18.819	19.441	1057.832	836.250
19.834	19.493	1057.424	836.103
20.848	19.500	1056.571	835.391
21.863	19.551	1056.248	835.305
22.877	19.568	1054.954	834.293
23.892	19.399	1054.865	833.330
24.907	19.459	1054.234	833.048
25.921	19.421	1053.121	831.912
26.936	19.521	1051.576	831.098
27.950	19.491	1049.670	829.374
28.965	19.276	1047.890	826.865
29.980	19.400	1045.815	825.745
30.994	19.543	1045.495	826.106
32.009	19.505	1044.264	824.877
33.023	19.344	1042.560	822.692
34.038	19.398	1042.155	822.557
35.053	19.542	1041.788	822.883
36.067	19.494	1040.656	821.686
37.082	19.528	1039.881	821.165
38.096	19.731	1039.079	821.422
39.111	19.748	1038.126	820.677
40.126	19.707	1036.657	819.245
41.140	19.349	1035.186	816.317
42.155	19.250	1033.348	814.328
43.169	19.178	1032.640	813.360
44.184	19.314	1031.292	812.868
45.199	19.100	1030.537	811.191
46.213	19.176	1029.640	810.772
47.228	19.325	1028.643	810.617
48.242	19.385	1027.477	809.904
49.257	19.460	1026.680	809.559
50.271	19.493	1026.090	809.173
51.286	19.525	1025.022	808.414
52.301	19.549	1024.024	807.664
53.315	19.423	1023.282	806.421
54.330	19.537	1022.122	805.968
55.344	19.463	1022.109	805.538
56.359	19.473	1020.557	804.292
57.374	19.312	1019.645	802.754
58.388	19.369	1019.295	802.673
59.403	19.314	1018.190	801.473
60.417	19.110	1017.428	799.857
61.432	19.320	1016.917	800.357
62.447	19.458	1015.878	800.108
63.461	19.269	1015.558	798.910
64.476	19.468	1013.896	798.454
65.490	19.361	1013.083	797.246
66.505	19.315	1012.699	796.664
67.520	19.469	1011.830	796.618
68.534	19.180	1010.753	794.370
69.549	18.826	1009.819	791.930
70.563	18.913	1008.974	791.601
71.578	18.921	1008.005	790.805
72.593	18.845	1007.124	789.698
73.607	18.994	1006.883	790.120
74.622	19.276	1006.244	790.845
75.636	19.274	1005.495	790.177
76.651	19.164	1004.658	788.944
77.666	18.929	1004.312	787.530
78.680	19.190	1003.368	787.914
79.695	19.294	1002.489	787.626
80.709	19.371	1001.683	787.274
81.724	19.393	1000.621	786.472
82.739	19.368	1000.145	785.915
83.753	19.718	999.489	786.924
84.768	19.822	999.105	787.024
85.782	19.888	997.956	786.349
86.797	19.768	996.649	784.704
87.812	19.655	996.011	783.620
88.826	19.660	995.252	782.978
89.841	19.660	994.457	782.285
90.855	19.885	992.945	782.039
91.870	19.765	992.380	780.983
92.884	19.651	991.397	779.627
93.899	19.509	990.301	778.056
94.914	19.796	989.249	778.453
95.928	19.692	988.255	777.134
96.943	19.416	987.139	774.951
97.957	19.182	986.163	773.064
98.972	19.021	984.592	771.043
99.987	19.135	984.454	771.377
101.001	19.391	983.657	771.832
102.016	19.475	982.303	771.075
103.030	19.482	981.110	770.101
104.045	19.250	980.683	768.665
105.060	19.147	979.443	767.162
106.074	19.373	978.721	767.536
107.089	19.675	978.144	768.361
108.103	19.505	977.008	766.642
109.118	19.501	975.622	765.473
110.133	19.333	975.218	764.344
111.147	19.194	974.062	762.751
112.162	19.119	972.649	761.249
113.176	19.275	972.330	761.621
114.191	19.195	971.226	760.334
115.206	18.975	970.094	758.411
116.220	18.918	969.482	757.612
117.235	19.224	968.468	758.099
118.249	19.100	967.567	756.784
119.264	19.032	967.138	756.081
120.279	19.041	966.563	755.606
121.293	19.271	965.336	755.588
122.308	19.186	964.653	754.615
123.322	19.099	963.541	753.295
124.337	18.999	961.765	751.405
125.352	18.529	959.998	747.907
126.366	18.401	959.145	746.620
127.381	19.196	959.049	749.941
128.395	19.464	958.695	750.763
129.410	19.723	957.586	750.955
130.424	19.679	956.133	749.560
131.439	19.524	955.881	748.623
132.454	19.641	954.459	747.951
133.468	19.500	953.610	746.610
134.483	19.646	953.212	746.861
135.497	19.839	952.166	746.810
136.512	19.771	951.841	746.194
137.527	19.726	950.768	745.092
138.541	19.783	950.038	744.702
139.556	19.840	949.277	744.286
140.570	19.815	948.318	743.358
141.585	19.679	947.162	741.803
142.600	19.756	946.140	741.266
143.614	19.923	945.714	741.584
144.629	20.092	944.865	741.575
145.643	19.903	943.593	739.704
146.658	19.826	941.842	737.936
147.673	19.725	940.594	736.464
148.687	19.654	940.170	735.764
149.702	19.688	939.137	735.036
150.716	19.653	938.439	734.275
151.731	19.761	937.961	734.296
152.746	19.957	937.078	734.371
153.760	19.979	936.811	734.189
154.775	19.924	935.978	733.237
155.789	19.881	934.991	732.220
156.804	19.973	933.968	731.743
157.819	19.862	933.726	731.016
158.833	19.884	933.238	730.663
159.848	20.091	931.519	730.128
160.862	19.824	930.109	727.834
161.877	20.108	929.347	728.365
162.892	20.035	928.834	727.595
163.906	20.042	927.537	726.543
164.921	19.994	926.722	725.638
165.935	20.166	925.389	725.250
166.950	19.949	924.834	723.843
167.964	20.079	923.928	723.612
168.979	19.706	923.151	721.386
169.994	19.890	921.908	721.115
171.008	19.863	922.135	721.119
172.023	19.898	920.869	720.208
173.037	19.766	919.767	718.735
174.052	19.722	918.566	717.551
175.067	19.773	917.933	717.204
176.081	19.857	917.386	717.060
177.096	19.727	916.827	716.023
178.110	19.504	915.935	714.339
179.125	19.391	915.417	713.407
180.140	19.475	915.004	713.367
181.154	19.506	914.537	713.066
182.169	19.844	914.055	714.023
183.183	20.060	913.319	714.278
184.198	19.878	912.724	712.997
185.213	19.946	911.865	712.546
186.227	19.971	911.427	712.242
187.242	19.888	910.662	711.239
188.256	20.041	909.763	711.104
189.271	20.038	909.195	710.584
190.286	19.854	907.713	708.609
191.300	19.306	906.621	705.450
192.315	18.650	905.390	701.748
193.329	18.449	905.329	700.817
194.344	19.451	905.294	704.827
195.359	19.897	905.122	706.448
196.373	20.035	904.664	706.591
197.388	19.644	904.027	704.438
198.402	19.721	902.972	703.868
199.417	19.873	902.447	704.014
200.432	19.577	901.329	701.875
201.446	19.386	900.785	700.615
202.461	19.391	900.207	700.125
203.475	18.599	898.485	695.511
204.490	18.037	897.071	692.082
205.504	18.930	897.709	696.131
206.519	19.530	897.652	698.454
207.534	19.594	896.993	698.137
208.548	19.999	896.378	699.230
209.563	19.589	895.686	696.977
210.577	19.771	895.157	697.237
211.592	20.102	894.804	698.235
212.607	20.056	893.675	697.107
213.621	20.087	893.518	697.045
214.636	20.026	892.700	696.100
215.650	20.042	891.795	695.398
216.665	20.258	890.924	695.524
217.680	20.057	889.975	693.918
218.694	19.602	888.940	691.225
219.709	19.470	888.676	690.431
220.723	19.741	888.201	691.087
221.738	19.786	887.601	690.738
222.753	19.739	887.271	690.231
223.767	19.992	886.371	690.480
224.782	20.038	886.280	690.533
225.796	20.194	885.390	690.397
226.811	19.485	884.045	686.470
227.826	18.888	882.892	683.139
228.840	19.169	882.235	683.687
229.855	19.146	881.646	683.080
230.869	18.850	880.473	680.937
231.884	19.323	880.468	682.746
232.899	19.964	880.367	685.147
233.913	19.755	879.603	683.664
234.928	19.853	879.642	684.020
235.942	19.857	878.534	683.116
236.957	19.538	877.190	680.750
237.972	19.667	876.747	680.855
238.986	19.639	876.565	680.543
240.001	19.625	875.882	679.897
241.015	19.760	875.226	679.862
242.030	19.852	874.611	679.682
243.045	19.959	873.947	679.526
244.059	20.082	873.736	679.786
245.074	19.847	872.427	677.788
246.088	19.501	871.941	675.993
247.103	19.876	871.164	676.800
248.117	20.127	871.701	678.137
249.132	20.506	870.827	678.881
250.147	20.451	870.041	677.992
251.161	20.696	869.360	678.358
252.176	20.605	868.804	677.508
253.190	20.759	868.117	677.513
254.205	20.917	867.656	677.707
255.220	20.740	867.210	676.610
256.234	20.587	866.100	675.091
257.249	20.522	865.617	674.402
258.263	20.688	864.994	674.501
259.278	20.683	864.259	673.847
260.293	20.716	863.535	673.350
261.307	20.597	863.004	672.420
262.322	20.334	862.142	670.669
263.336	19.570	860.148	666.116
264.351	18.596	858.350	660.913
265.366	18.808	858.105	661.483
266.380	19.884	858.763	666.073
267.395	20.246	858.596	667.278
268.409	20.205	857.763	666.414
269.424	20.538	857.291	667.266
270.439	20.668	856.499	667.089
271.453	20.476	856.031	665.930
272.468	20.687	855.605	666.349
273.482	20.871	854.781	666.352
274.497	20.579	853.676	664.317
275.512	20.151	853.218	662.265
276.526	20.673	852.556	663.685
277.541	20.728	852.430	663.738
278.555	20.242	851.718	661.272
279.570	20.118	850.946	660.144
280.585	20.336	850.137	660.286
281.599	20.394	849.150	659.682
282.614	19.877	848.261	656.973
283.628	19.889	847.612	656.457
284.643	20.196	847.064	657.137
285.657	19.799	846.297	654.981
286.672	19.518	845.404	653.169
287.687	20.027	845.657	655.232
288.701	20.062	845.249	654.992
289.716	19.722	844.489	653.058
290.730	19.722	843.704	652.395
291.745	19.492	842.359	650.428
292.760	19.708	842.850	651.566
293.774	20.742	842.685	655.275
294.789	21.089	842.294	656.217
295.803	21.146	841.599	655.832
296.818	20.981	841.296	654.918
297.833	20.750	839.861	652.878
298.847	20.588	839.220	651.716
299.862	20.824	839.122	652.466
300.876	21.095	838.931	653.272
301.891	20.924	838.162	651.978
302.906	20.539	836.956	649.544
303.920	20.710	836.551	649.811
304.935	20.936	836.649	650.674
305.949	20.958	835.995	650.189
306.964	20.792	834.982	648.723
307.979	20.816	834.537	648.413
308.993	21.116	834.855	649.718
310.008	21.379	833.632	649.685
311.022	21.014	832.882	647.687
312.037	20.976	831.897	646.723
313.052	20.686	831.395	645.200
314.066	19.918	830.094	641.291
315.081	19.496	829.571	639.265
316.095	20.520	829.425	642.888
317.110	20.820	829.378	643.904
318.125	20.053	828.000	639.943
319.139	19.089	826.276	635.000
320.154	18.973	826.237	634.486
321.168	19.803	826.802	637.926
322.183	20.525	826.551	640.340
323.197	20.805	825.966	640.858
324.212	20.998	825.974	641.518
325.227	20.959	825.388	640.864
326.241	20.841	824.503	639.685
327.256	20.913	823.870	639.402
328.270	20.800	823.109	638.340
329.285	20.387	822.584	636.365
330.300	20.380	821.491	635.438
331.314	20.666	821.473	636.412
332.329	21.046	821.237	637.564
333.343	21.014	820.506	636.823
334.358	21.023	820.218	636.574
335.373	21.100	819.929	636.574
336.387	21.332	820.000	637.420
337.402	21.332	819.582	637.040
338.416	21.213	819.137	636.203
339.431	21.430	818.800	636.675
340.446	21.531	818.242	636.552
341.460	21.372	818.092	635.802
342.475	21.154	817.755	634.689
343.489	21.345	817.519	635.147
344.504	21.543	816.896	635.325
345.519	21.568	816.891	635.356
346.533	21.691	816.089	635.122
347.548	21.702	815.823	634.899
348.562	21.726	815.185	634.433
349.577	21.707	814.539	633.803
350.592	21.773	813.943	633.523
351.606	21.708	812.762	632.312
352.621	21.772	811.977	631.879
353.635	21.452	811.248	630.102
354.650	20.886	809.881	626.949
355.665	20.027	808.529	622.760
356.679	20.350	808.658	623.965
357.694	20.804	808.018	625.045
358.708	20.852	807.400	624.683
359.723	21.178	807.203	625.646
360.738	21.452	807.251	626.609
361.752	21.600	806.459	626.467
362.767	21.929	806.192	627.380
363.781	22.023	805.805	627.361
364.796	22.035	805.402	627.033
365.810	22.036	804.843	626.547
366.825	21.776	804.818	625.544
367.840	21.625	803.836	624.189
368.854	21.454	802.940	622.828
369.869	21.426	802.571	622.387
370.883	21.328	802.457	621.894
371.898	21.325	801.623	621.182
372.913	21.425	801.407	621.317
373.927	21.648	801.102	621.817
374.942	21.771	800.662	621.857
375.956	21.769	800.388	621.579
376.971	21.929	799.604	621.485
377.986	22.090	799.145	621.642
379.000	22.033	798.586	620.949
380.015	21.850	798.092	619.863
381.029	21.883	797.654	619.587
382.044	22.042	797.236	619.769
383.059	21.966	796.630	618.975
384.073	21.993	796.038	618.553
385.088	22.156	795.623	618.750
386.102	21.752	794.925	616.733
387.117	21.875	794.232	616.574
388.132	21.516	793.338	614.564
389.146	21.090	792.291	612.204
390.161	21.361	792.552	613.302
391.175	21.856	792.072	614.611
392.190	21.408	791.130	612.258
393.205	20.169	789.067	606.278
394.219	18.718	787.962	600.303
395.234	18.979	787.241	600.615
396.248	20.526	788.839	607.188
397.263	21.927	789.295	612.379
398.278	21.722	789.316	611.626
399.292	21.517	788.300	610.070
400.307	21.500	788.048	609.760
401.321	21.733	787.307	609.945
402.336	21.848	787.360	610.331
403.350	22.240	787.469	611.727
404.365	22.525	786.833	612.168
405.380	22.642	786.656	612.385
406.394	22.769	785.843	612.136
407.409	22.521	785.639	611.066
408.423	22.493	785.290	610.642
409.438	22.673	784.755	610.794
410.453	22.760	784.175	610.589
411.467	22.615	783.738	609.694
412.482	22.686	783.613	609.790
413.496	22.816	783.237	609.892
414.511	22.694	782.726	609.019
415.526	22.672	781.793	608.162
416.540	22.557	781.630	607.587
417.555	22.309	780.979	606.170
418.569	22.497	780.243	606.195
419.584	22.459	779.587	605.499
420.599	22.208	779.472	604.495
421.613	158.819	1362.609	1797.524
422.628	137.255	1447.567	1797.588
