DTS Sentinel unit serial number:	SN413079Multiplexer serial number:	ORYXHardware model number:	OX4-SRSoftware version number:	ORYX F/W v4.00 Oryx Data Collector v3.7.2.0data status	okinstallation	princeton_trtdifferential loss correction	single-endedforward channel	channel 1reverse channel	N/Adate	2019/09/18time	02:46:35forward acquisition time	60.00reverse acquisition time	0.00gamma	496.2192k internal	0.2341k external	0.2341temperature offset calibration	0.9982default loss term (dB/km)	0.3790temperature slope calibration	1.0000multiplexer offset coefficient	1.0000multiplexer slope coefficient	1.0000fibre end	0.00T internal ref (°C)	22.78T ext. ref 1 (°C)	0.17T ext. ref 2 (°C)	16.66length (m)	temperature (°C)	Stokes	anti-Stokes-747.200	-70.120	0.371	0.142
-746.185	-200.000	0.004	0.194
-745.171	598.952	0.108	0.268
-744.156	-61.893	0.207	0.087
-743.142	-53.539	-0.162	0.074
-742.127	-200.000	-0.009	-0.071
-741.112	800.000	-0.013	-0.049
-740.098	2.879	-0.248	0.181
-739.083	3.024	0.167	-0.122
-738.069	-200.000	-0.003	0.254
-737.054	-200.000	-0.015	-0.198
-736.039	-77.787	-0.093	-0.032
-735.025	-30.179	-0.065	-0.037
-734.010	-15.906	-0.170	0.108
-732.996	800.000	0.148	0.416
-731.981	-200.000	-0.015	-0.254
-730.966	240.955	0.054	0.091
-729.952	800.000	-0.063	-0.180
-728.937	800.000	-0.038	-0.120
-727.923	307.342	-0.049	0.092
-726.908	206.402	-0.152	-0.237
-725.894	-145.521	-0.248	-0.022
-724.879	-200.000	-0.023	-0.412
-723.864	370.789	-0.076	-0.155
-722.850	379.643	0.136	0.278
-721.835	715.691	0.079	-0.210
-720.821	-200.000	0.040	-0.288
-719.806	62.743	0.175	0.175
-718.791	402.746	-0.109	0.229
-717.777	-200.000	0.001	-0.186
-716.762	-106.289	-0.383	-0.086
-715.748	-127.690	-0.167	-0.024
-714.733	133.416	0.106	-0.137
-713.718	-200.000	-0.024	-0.207
-712.704	28.943	-0.265	-0.225
-711.689	249.832	-0.160	0.272
-710.675	-200.000	0.039	-0.220
-709.660	12.502	0.225	0.174
-708.645	71.645	0.246	0.256
-707.631	-189.896	-0.288	-0.003
-706.616	-81.035	-0.238	0.079
-705.602	-56.675	0.105	0.046
-704.587	-39.938	0.275	-0.144
-703.572	0.953	-0.282	-0.202
-702.558	800.000	0.034	0.132
-701.543	-200.000	0.039	0.254
-700.529	-200.000	0.053	0.412
-699.514	2.991	0.074	0.053
-698.499	-200.000	0.017	-0.281
-697.485	240.273	-0.090	-0.151
-696.470	123.908	-0.120	0.151
-695.456	88.308	-0.183	-0.203
-694.441	-72.571	0.062	-0.023
-693.426	8.788	-0.192	-0.145
-692.412	414.632	-0.151	-0.322
-691.397	-119.831	-0.057	0.010
-690.383	-104.327	-0.118	0.027
-689.368	-154.399	0.058	0.004
-688.354	-198.781	0.237	0.001
-687.339	-0.202	0.143	-0.102
-686.324	77.737	-0.054	-0.058
-685.310	105.936	-0.183	0.217
-684.295	117.640	0.020	0.025
-683.281	800.000	-0.028	0.102
-682.266	-54.968	-0.171	-0.077
-681.251	217.923	0.021	0.034
-680.237	-22.913	-0.152	0.091
-679.222	153.099	0.064	-0.088
-678.208	-106.473	0.327	-0.073
-677.193	59.324	-0.172	-0.169
-676.178	92.135	0.112	-0.127
-675.164	266.009	0.135	-0.236
-674.149	89.908	0.015	0.017
-673.135	22.598	-0.049	0.040
-672.120	-4.260	-0.280	-0.194
-671.105	-52.335	0.033	-0.015
-670.091	-172.015	0.320	0.010
-669.076	125.373	-0.072	-0.091
-668.062	277.791	0.088	0.157
-667.047	800.000	-0.045	0.195
-666.032	236.116	-0.100	-0.165
-665.018	-74.233	0.211	-0.076
-664.003	800.000	-0.029	0.114
-662.989	-168.560	0.129	0.005
-661.974	-182.358	0.097	-0.002
-660.959	-150.670	-0.129	0.010
-659.945	122.600	0.103	-0.128
-658.930	-95.240	0.055	-0.015
-657.916	800.000	-0.092	-0.307
-656.901	-48.469	0.323	-0.155
-655.886	-200.000	0.057	-0.323
-654.872	-200.000	0.051	-0.255
-653.857	-93.074	-0.212	-0.059
-652.843	-162.193	0.398	-0.020
-651.828	-132.371	-0.362	-0.047
-650.814	1.107	0.135	0.097
-649.799	107.711	-0.152	0.181
-648.784	-178.618	-0.130	0.003
-647.770	-200.000	0.025	0.152
-646.755	-34.471	0.186	0.102
-645.741	-200.000	-0.018	0.176
-644.726	11.677	0.155	-0.119
-643.711	-200.000	0.043	0.194
-642.697	-114.635	-0.085	0.016
-641.682	686.781	-0.030	-0.079
-640.668	-200.000	0.030	-0.452
-639.653	153.523	-0.117	-0.160
-638.638	143.227	-0.180	-0.239
-637.624	-107.017	-0.112	0.025
-636.609	-200.000	-0.029	-0.222
-635.595	800.000	0.039	-0.109
-634.580	-19.111	-0.119	-0.074
-633.565	-152.543	-0.050	-0.004
-632.551	41.485	-0.243	-0.220
-631.536	33.526	-0.109	-0.095
-630.522	-185.808	0.051	0.001
-629.507	-154.844	-0.239	-0.016
-628.492	800.000	0.144	-0.429
-627.478	-66.569	-0.236	-0.094
-626.463	-200.000	-0.007	0.066
-625.449	-31.899	0.078	0.044
-624.434	-51.066	-0.159	0.074
-623.419	262.522	0.052	0.090
-622.405	279.910	0.112	-0.199
-621.390	-20.879	-0.313	0.191
-620.376	76.804	-0.171	-0.181
-619.361	-200.000	0.021	0.187
-618.346	377.968	-0.161	-0.328
-617.332	36.276	0.314	-0.276
-616.317	304.283	0.187	0.346
-615.303	78.225	-0.170	0.180
-614.288	-124.322	-0.131	-0.020
-613.273	110.133	0.158	0.189
-612.259	-1.244	-0.404	0.285
-611.244	661.708	0.083	0.214
-610.230	-121.126	-0.127	0.021
-609.215	-29.700	0.229	0.130
-608.201	445.736	0.164	-0.359
-607.186	649.653	0.062	-0.157
-606.171	-20.005	-0.180	0.110
-605.157	115.188	-0.087	-0.106
-604.142	-115.193	0.351	-0.066
-603.128	23.415	-0.117	-0.096
-602.113	42.013	-0.338	0.306
-601.098	572.043	0.074	-0.181
-600.084	-14.726	-0.106	0.068
-599.069	13.573	0.239	0.185
-598.055	-34.389	-0.199	-0.108
-597.040	-200.000	-0.033	-0.251
-596.025	135.194	-0.040	-0.052
-595.011	20.376	0.030	0.024
-593.996	722.606	0.031	0.082
-592.982	-18.932	0.055	0.034
-591.967	-74.056	0.051	0.019
-590.952	-200.000	0.002	0.026
-589.938	800.000	0.018	0.053
-588.923	-118.009	0.243	0.043
-587.909	406.737	-0.169	0.355
-586.894	384.865	-0.055	-0.113
-585.879	-96.131	-0.180	0.048
-584.865	72.712	-0.228	0.237
-583.850	800.000	0.074	0.258
-582.836	613.111	0.089	-0.223
-581.821	-200.000	-0.180	-0.001
-580.806	-180.781	0.270	0.005
-579.792	-42.190	-0.292	0.149
-578.777	-26.154	0.077	-0.045
-577.763	55.459	0.079	0.076
-576.748	-89.288	-0.107	0.031
-575.733	-42.059	-0.149	-0.076
-574.719	-80.348	-0.271	0.090
-573.704	-122.755	0.331	0.053
-572.690	426.745	-0.033	0.070
-571.675	-181.047	-0.164	0.003
-570.661	-166.235	0.078	-0.003
-569.646	44.065	-0.189	0.173
-568.631	-200.000	0.028	-0.208
-567.617	-89.165	-0.111	0.033
-566.602	-200.000	-0.002	-0.025
-565.588	-200.000	-0.047	0.231
-564.573	-97.231	0.162	0.042
-563.558	239.663	0.164	-0.272
-562.544	55.097	0.278	0.267
-561.529	-37.217	0.126	0.067
-560.515	-200.000	0.055	0.288
-559.500	-200.000	0.021	-0.124
-558.485	-174.924	-0.175	0.005
-557.471	-162.194	-0.220	-0.011
-556.456	33.085	-0.171	0.147
-555.442	-163.588	0.060	-0.003
-554.427	172.075	0.116	0.166
-553.412	127.771	-0.126	-0.159
-552.398	-83.621	0.071	0.023
-551.383	-188.111	-0.407	-0.005
-550.369	-53.702	-0.344	-0.156
-549.354	83.866	-0.165	0.180
-548.339	800.000	0.022	0.087
-547.325	429.438	0.123	-0.265
-546.310	381.713	0.179	0.366
-545.296	-50.538	0.188	-0.088
-544.281	-37.183	-0.218	-0.116
-543.266	-185.064	0.153	0.002
-542.252	475.980	0.048	0.107
-541.237	-200.000	-0.028	-0.216
-540.223	-200.000	0.002	0.028
-539.208	-100.174	-0.143	0.035
-538.193	-121.377	-0.227	-0.038
-537.179	-132.430	-0.259	-0.033
-536.164	10.230	-0.198	-0.150
-535.150	-131.271	0.276	-0.036
-534.135	800.000	-0.014	-0.041
-533.121	-200.000	0.033	0.222
-532.106	49.642	-0.149	-0.140
-531.091	-94.054	0.343	0.094
-530.077	557.784	0.250	0.598
-529.062	152.049	0.203	-0.275
-528.048	416.122	-0.066	0.140
-527.033	-19.412	0.121	-0.075
-526.018	-11.174	0.103	-0.067
-525.004	800.000	-0.035	0.136
-523.989	-18.739	0.157	-0.097
-522.975	228.103	0.084	0.136
-521.960	-200.000	0.063	-0.324
-520.945	-120.824	0.208	-0.035
-519.931	-200.000	-0.050	-0.409
-518.916	423.309	-0.126	0.270
-517.902	-200.000	-0.011	0.102
-516.887	-64.613	0.143	0.057
-515.872	-200.000	-0.016	0.123
-514.858	37.700	-0.280	-0.247
-513.843	-44.514	-0.044	-0.022
-512.829	-19.918	0.313	0.192
-511.814	-160.180	0.261	0.014
-510.799	-9.142	-0.274	0.182
-509.785	-15.497	-0.155	-0.099
-508.770	190.850	-0.045	-0.067
-507.756	-91.686	0.123	0.035
-506.741	-78.720	-0.281	-0.095
-505.726	-200.000	0.095	0.574
-504.712	800.000	0.032	0.114
-503.697	751.580	0.044	0.119
-502.683	-73.483	0.278	-0.101
-501.668	-106.241	-0.284	-0.063
-500.653	-64.623	-0.460	-0.185
-499.639	-200.000	-0.048	-0.454
-498.624	-187.443	-0.079	0.001
-497.610	-60.430	-0.057	-0.024
-496.595	-127.568	0.183	0.026
-495.581	45.752	0.194	0.178
-494.566	-65.456	-0.141	-0.056
-493.551	-200.000	0.001	-0.531
-492.537	-200.000	-0.027	-0.178
-491.522	-200.000	0.043	0.249
-490.508	726.738	0.073	0.194
-489.493	-200.000	-0.019	-0.316
-488.478	27.611	0.023	-0.019
-487.464	31.721	0.041	-0.035
-486.449	4.098	-0.136	-0.099
-485.435	800.000	-0.081	-0.334
-484.420	106.326	-0.273	0.321
-483.405	153.709	0.086	-0.118
-482.391	4.648	-0.156	0.114
-481.376	240.005	0.182	-0.300
-480.362	-74.932	-0.257	0.091
-479.347	-200.000	-0.003	0.097
-478.332	-135.195	-0.045	-0.005
-477.318	-200.000	0.035	-0.276
-476.303	380.756	-0.162	0.329
-475.289	588.975	0.093	0.227
-474.274	51.893	0.136	0.129
-473.259	-23.890	-0.321	-0.190
-472.245	-48.373	-0.049	-0.024
-471.230	-200.000	-0.085	-0.390
-470.216	126.429	0.189	0.237
-469.201	267.889	0.089	-0.154
-468.186	61.220	-0.204	-0.201
-467.172	-200.000	-0.006	0.158
-466.157	-97.124	0.222	0.057
-465.143	-53.730	-0.142	-0.064
-464.128	-200.000	-0.012	0.255
-463.113	-200.000	0.046	-0.335
-462.099	-150.170	-0.284	-0.022
-461.084	358.184	0.024	-0.047
-460.070	-61.965	0.275	0.114
-459.055	333.566	-0.030	0.057
-458.040	800.000	0.029	0.090
-457.026	72.448	-0.262	0.271
-456.011	-78.061	-0.444	-0.152
-454.997	-67.685	-0.111	-0.043
-453.982	800.000	-0.094	-0.354
-452.968	-22.579	-0.321	-0.192
-451.953	800.000	-0.130	-0.434
-450.938	-16.493	0.165	0.104
-449.924	56.561	0.076	-0.073
-448.909	231.379	-0.063	-0.102
-447.895	-62.572	-0.253	-0.104
-446.880	800.000	0.064	-0.232
-445.865	800.000	-0.080	0.265
-444.851	337.280	-0.091	0.175
-443.836	144.884	0.282	0.374
-442.822	-85.376	-0.283	0.087
-441.807	-200.000	-0.067	-0.303
-440.792	-198.270	-0.159	-0.001
-439.778	171.511	0.152	0.216
-438.763	-200.000	0.028	0.125
-437.749	118.421	0.220	0.269
-436.734	-29.554	0.217	-0.123
-435.719	-130.152	-0.041	0.006
-434.705	136.977	0.013	0.017
-433.690	-131.092	0.201	0.027
-432.676	-200.000	0.001	0.422
-431.661	-3.578	0.174	0.119
-430.646	94.638	-0.223	-0.251
-429.632	-10.138	0.259	-0.171
-428.617	72.930	-0.243	-0.252
-427.603	-135.320	-0.331	0.039
-426.588	-99.478	0.301	0.075
-425.573	335.693	0.085	-0.163
-424.559	603.292	0.163	-0.402
-423.544	163.090	-0.256	0.356
-422.530	292.379	0.074	0.133
-421.515	126.417	0.064	0.080
-420.500	-55.383	-0.497	-0.221
-419.486	-97.211	0.290	-0.075
-418.471	107.233	0.066	0.077
-417.457	180.827	-0.079	0.115
-416.442	-200.000	0.066	-0.337
-415.428	-200.000	-0.021	-0.398
-414.413	-200.000	0.035	-0.227
-413.398	34.668	0.098	0.085
-412.384	-10.133	0.176	0.115
-411.369	-11.721	0.289	-0.188
-410.355	92.602	0.243	-0.272
-409.340	-54.867	0.211	0.094
-408.325	95.916	0.112	0.127
-407.311	-81.012	-0.315	-0.103
-406.296	-106.900	0.195	-0.043
-405.282	-69.022	-0.080	0.031
-404.267	59.019	0.053	-0.051
-403.252	116.002	0.145	-0.175
-402.238	61.880	0.262	0.258
-401.223	193.410	-0.085	0.126
-400.209	-200.000	-0.044	0.214
-399.194	-83.071	-0.094	0.030
-398.179	800.000	0.063	0.247
-397.165	800.000	-0.058	0.221
-396.150	-116.629	-0.241	0.044
-395.136	-171.036	0.503	-0.017
-394.121	-200.000	-0.021	-0.204
-393.106	126.588	-0.176	-0.220
-392.092	323.734	0.137	-0.259
-391.077	632.923	-0.047	0.118
-390.063	-200.000	-0.017	-0.189
-389.048	290.198	0.252	0.452
-388.033	-54.493	0.301	-0.135
-387.019	-106.982	0.120	-0.026
-386.004	-200.000	0.024	-0.109
-384.990	-10.123	0.133	0.087
-383.975	-103.843	0.171	0.039
-382.960	-200.000	-0.031	-0.409
-381.946	46.148	0.157	0.144
-380.931	-200.000	0.097	-0.554
-379.917	-36.058	-0.075	-0.040
-378.902	158.575	0.021	-0.029
-377.888	8.125	0.107	0.079
-376.873	680.663	-0.126	-0.324
-375.858	410.734	0.168	-0.351
-374.844	-188.387	-0.252	0.003
-373.829	-200.000	-0.018	-0.300
-372.815	12.966	0.149	0.114
-371.800	800.000	0.046	-0.191
-370.785	-67.176	0.085	0.033
-369.771	800.000	0.126	-0.455
-368.756	93.204	0.134	0.150
-367.742	-52.098	-0.226	0.104
-366.727	-95.980	0.179	-0.047
-365.712	-124.214	0.160	-0.025
-364.698	-200.000	0.015	-0.101
-363.683	-139.859	0.182	-0.019
-362.669	-200.000	0.025	0.118
-361.654	491.879	0.038	-0.086
-360.639	-200.000	0.016	-0.242
-359.625	144.141	-0.127	-0.168
-358.610	-118.211	0.113	0.020
-357.596	116.895	-0.080	0.097
-356.581	203.950	0.136	-0.208
-355.566	-178.143	0.069	0.002
-354.552	-27.711	0.193	0.110
-353.537	56.246	-0.040	-0.038
-352.523	-49.272	-0.258	0.122
-351.508	27.466	-0.172	-0.143
-350.493	550.960	-0.120	-0.283
-349.479	-88.709	-0.106	-0.031
-348.464	-180.163	-0.300	0.006
-347.450	-148.910	-0.136	0.011
-346.435	352.306	0.080	-0.156
-345.420	800.000	-0.026	0.083
-344.406	-154.468	0.108	-0.007
-343.391	-47.600	0.132	-0.063
-342.377	56.697	0.230	-0.221
-341.362	97.326	0.112	0.127
-340.348	148.324	0.109	0.145
-339.333	35.362	-0.200	-0.173
-338.318	-200.000	0.057	0.304
-337.304	29.629	-0.048	-0.040
-336.289	-185.416	0.127	-0.002
-335.275	497.824	-0.137	0.310
-334.260	175.564	0.169	-0.242
-333.245	53.962	0.110	-0.105
-332.231	-40.143	-0.149	0.076
-331.216	-114.309	0.310	-0.059
-330.202	800.000	-0.067	0.221
-329.187	-160.011	-0.213	-0.011
-328.172	-90.455	-0.237	-0.068
-327.158	800.000	-0.071	0.203
-326.143	-200.000	0.071	-0.343
-325.129	421.630	-0.124	0.263
-324.114	-77.912	0.286	-0.097
-323.099	-97.931	-0.051	0.013
-322.085	83.784	-0.144	0.155
-321.070	163.350	0.215	-0.298
-320.056	-182.802	0.318	0.006
-319.041	173.643	0.125	0.178
-318.026	120.281	0.076	-0.093
-317.012	-117.692	0.097	0.017
-315.997	239.529	0.064	0.105
-314.983	800.000	-0.116	0.396
-313.968	-93.596	0.379	0.103
-312.953	64.769	-0.301	0.300
-311.939	-18.657	0.169	0.104
-310.924	-144.705	-0.453	0.041
-309.910	-180.745	0.104	0.002
-308.895	-29.635	0.215	-0.121
-307.880	-200.000	0.038	-0.304
-306.866	-41.399	-0.143	-0.072
-305.851	208.076	0.079	-0.121
-304.837	-130.210	-0.290	0.039
-303.822	-200.000	-0.036	-0.339
-302.807	272.062	-0.082	-0.142
-301.793	181.595	0.047	-0.069
-300.778	-139.274	-0.255	0.027
-299.764	39.805	0.055	0.049
-298.749	-68.009	0.277	-0.106
-297.735	-200.000	0.004	0.081
-296.720	-35.677	-0.236	-0.126
-295.705	-200.000	0.062	-0.305
-294.691	3.962	-0.273	-0.197
-293.676	800.000	0.038	-0.158
-292.662	72.711	0.072	-0.074
-291.647	404.337	0.133	0.275
-290.632	-112.280	-0.261	0.051
-289.618	-77.473	-0.358	-0.122
-288.603	-28.790	0.142	0.081
-287.589	-65.284	-0.089	0.035
-286.574	-105.839	-0.314	0.070
-285.559	30.946	-0.239	-0.202
-284.545	-14.018	0.121	0.077
-283.530	-146.556	-0.052	-0.004
-282.516	-200.000	0.013	-0.187
-281.501	151.830	0.013	-0.018
-280.486	-37.088	-0.339	0.179
-279.472	212.601	0.061	0.094
-278.457	303.041	0.217	0.396
-277.443	-181.006	-0.316	0.006
-276.428	-97.302	-0.421	0.108
-275.413	800.000	-0.106	0.313
-274.399	244.635	0.209	0.346
-273.384	285.562	-0.040	-0.070
-272.370	-120.371	-0.052	0.009
-271.355	-3.851	-0.021	0.015
-270.340	-17.595	0.301	-0.186
-269.326	524.507	0.053	0.122
-268.311	-4.125	-0.163	0.111
-267.297	95.987	0.143	0.161
-266.282	-110.834	0.193	0.039
-265.267	712.924	-0.085	-0.223
-264.253	287.568	-0.105	0.187
-263.238	-1.450	-0.179	-0.124
-262.224	-134.371	0.241	-0.029
-261.209	-200.000	-0.031	0.198
-260.195	-106.672	-0.307	-0.067
-259.180	142.596	-0.074	-0.097
-258.165	-31.383	0.239	0.132
-257.151	408.395	-0.116	0.241
-256.136	-97.375	0.073	-0.019
-255.122	-200.000	-0.009	-0.148
-254.107	230.191	0.043	-0.069
-253.092	-158.547	-0.264	0.015
-252.078	-200.000	-0.026	-0.147
-251.063	-200.000	0.014	-0.077
-250.049	-170.719	0.201	0.007
-249.034	-98.329	0.187	-0.047
-248.019	-43.587	-0.230	0.114
-247.005	154.448	-0.115	0.156
-245.990	-58.410	0.262	0.112
-244.976	800.000	0.059	-0.244
-243.961	-200.000	-0.017	0.101
-242.946	22.060	0.401	-0.322
-241.932	-41.475	-0.032	0.016
-240.917	-31.378	0.053	0.029
-239.903	-200.000	0.032	-0.375
-238.888	-65.089	-0.099	-0.039
-237.873	-200.000	-0.047	0.205
-236.859	3.987	-0.222	0.159
-235.844	104.251	-0.308	0.356
-234.830	105.405	0.139	-0.161
-233.815	-116.937	0.193	0.035
-232.800	530.189	0.150	0.348
-231.786	-200.000	0.005	-0.022
-230.771	800.000	0.085	-0.279
-229.757	-14.515	0.302	0.191
-228.742	58.413	-0.275	0.265
-227.727	699.720	0.107	0.275
-226.713	-54.241	0.060	-0.027
-225.698	-43.136	-0.246	-0.122
-224.684	-128.993	0.294	-0.041
-223.669	-52.226	0.168	0.076
-222.655	-25.163	0.328	0.191
-221.640	-200.000	-0.041	0.243
-220.625	-200.000	0.038	0.204
-219.611	5.340	0.384	0.278
-218.596	393.924	0.070	-0.144
-217.582	-200.000	-0.019	-0.197
-216.567	15.215	0.368	0.283
-215.552	-65.548	-0.179	-0.070
-214.538	11.611	-0.054	0.041
-213.523	800.000	0.068	0.263
-212.509	-116.715	-0.240	-0.043
-211.494	28.542	-0.092	0.077
-210.479	50.530	0.165	-0.153
-209.465	-43.107	0.301	-0.150
-208.450	-107.396	-0.182	0.039
-207.436	124.562	0.294	0.363
-206.421	250.946	-0.137	-0.229
-205.406	94.011	-0.077	0.086
-204.392	230.664	-0.065	-0.104
-203.377	30.759	-0.285	-0.239
-202.363	68.049	0.132	0.132
-201.348	-200.000	0.014	0.084
-200.333	247.646	-0.210	0.348
-199.319	-21.509	0.110	0.066
-198.304	198.507	-0.125	-0.187
-197.290	158.870	0.151	0.206
-196.275	75.338	0.088	0.091
-195.260	330.728	-0.057	0.109
-194.246	-129.277	0.233	0.032
-193.231	88.869	-0.152	0.166
-192.217	-112.831	-0.398	0.077
-191.202	-63.712	-0.166	-0.067
-190.187	-147.948	0.163	-0.013
-189.173	190.391	-0.090	-0.133
-188.158	-64.242	0.166	0.067
-187.144	-31.272	0.174	0.096
-186.129	4.933	-0.097	0.070
-185.114	-200.000	0.022	0.212
-184.100	-43.564	0.161	0.079
-183.085	280.065	-0.109	-0.191
-182.071	455.305	-0.025	0.055
-181.056	-63.764	0.103	0.042
-180.042	142.278	0.305	0.397
-179.027	-200.000	0.020	0.110
-178.012	143.191	0.032	-0.042
-176.998	-18.955	0.141	-0.086
-175.983	37.782	0.260	0.226
-174.969	-73.781	-0.187	-0.067
-173.954	-80.204	-0.259	0.085
-172.939	800.000	-0.019	0.078
-171.925	-18.191	0.182	-0.112
-170.910	91.075	-0.192	0.211
-169.896	527.513	-0.120	-0.278
-168.881	526.369	0.130	-0.301
-167.866	75.941	0.059	-0.062
-166.852	-200.000	-0.027	-0.244
-165.837	-200.000	-0.022	-0.101
-164.823	-93.915	0.438	-0.118
-163.808	330.701	0.101	0.191
-162.793	-12.700	0.227	-0.145
-161.779	-142.370	0.120	0.012
-160.764	800.000	0.126	-0.353
-159.750	338.321	-0.167	0.319
-158.735	800.000	0.032	0.132
-157.720	38.623	0.145	0.127
-156.706	349.416	0.060	0.116
-155.691	-101.532	0.057	0.014
-154.677	-200.000	0.015	0.122
-153.662	-188.296	-0.157	0.002
-152.647	-172.963	-0.148	-0.004
-151.633	767.533	-0.077	0.204
-150.618	-79.563	0.276	0.091
-149.604	800.000	-0.028	0.088
-148.589	102.509	-0.182	0.208
-147.574	138.730	-0.059	0.076
-146.560	312.712	0.134	0.247
-145.545	-14.718	-0.161	0.101
-144.531	112.754	-0.175	0.208
-143.516	-200.000	0.002	0.071
-142.502	232.332	-0.059	0.095
-141.487	-200.000	-0.010	0.071
-140.472	800.000	0.033	-0.137
-139.458	-200.000	0.005	0.248
-138.443	46.487	-0.120	0.109
-137.429	-200.000	-0.067	0.392
-136.414	-153.408	0.175	-0.012
-135.399	231.145	0.134	-0.214
-134.385	-87.845	0.160	0.047
-133.370	8.659	0.133	-0.098
-132.356	20.162	-0.278	0.219
-131.341	-200.000	-0.028	0.289
-130.326	-39.244	0.174	-0.090
-129.312	-95.926	-0.214	0.056
-128.297	-200.000	0.010	0.058
-127.283	257.041	0.077	-0.129
-126.268	-85.437	-0.324	0.099
-125.253	-200.000	0.110	0.500
-124.239	380.609	-0.167	0.335
-123.224	-139.203	-0.252	0.027
-122.210	308.467	-0.150	-0.273
-121.195	800.000	-0.067	0.215
-120.180	-124.762	0.192	0.029
-119.166	-68.423	0.174	-0.066
-118.151	48.439	0.155	-0.142
-117.137	-70.131	-0.358	0.133
-116.122	-117.675	0.466	0.082
-115.107	-35.050	-0.136	0.072
-114.093	800.000	-0.113	0.333
-113.078	76.342	0.198	0.205
-112.064	-95.439	-0.068	0.018
-111.049	-45.395	-0.166	-0.080
-110.034	56.287	-0.081	0.077
-109.020	621.475	-0.082	0.201
-108.005	-23.854	0.177	0.104
-106.991	-98.847	0.105	0.026
-105.976	800.000	-0.049	0.152
-104.962	800.000	-0.027	0.075
-103.947	111.960	0.290	0.342
-102.932	-58.272	-0.465	0.198
-101.918	314.572	0.235	0.432
-100.903	-4.784	0.236	-0.159
-99.889	110.489	-0.121	-0.142
-98.874	142.649	0.216	0.281
-97.859	373.866	-0.044	-0.087
-96.845	-107.901	0.420	0.089
-95.830	-32.447	-0.084	-0.046
-94.816	800.000	0.065	-0.234
-93.801	-0.439	-0.089	-0.062
-92.786	-107.597	-0.108	-0.023
-91.772	233.556	0.072	-0.115
-90.757	-20.665	0.314	-0.188
-89.743	-59.818	-0.201	0.084
-88.728	-1.734	0.215	-0.148
-87.713	-30.824	0.106	0.059
-86.699	-200.000	0.008	0.148
-85.684	529.900	0.096	0.221
-84.670	-83.787	-0.063	-0.020
-83.655	-200.000	0.008	-0.326
-82.640	206.681	-0.111	-0.169
-81.626	-148.662	0.378	-0.030
-80.611	-159.844	-0.061	0.003
-79.597	63.229	0.221	-0.216
-78.582	136.150	0.208	0.265
-77.567	190.976	-0.037	-0.054
-76.553	96.955	-0.160	0.179
-75.538	-200.000	0.044	-0.251
-74.524	-200.000	-0.006	0.148
-73.509	-187.467	0.570	-0.007
-72.494	58.531	-0.301	-0.288
-71.480	-200.000	0.043	0.211
-70.465	-101.677	0.253	0.060
-69.451	26.470	-0.173	0.141
-68.436	-87.117	-0.147	0.044
-67.422	-83.299	0.201	-0.063
-66.407	-200.000	-0.065	-0.323
-65.392	152.029	-0.057	-0.076
-64.378	-151.944	0.348	-0.025
-63.363	-115.406	0.130	-0.024
-62.349	194.142	0.139	0.205
-61.334	23.879	-1.161	-0.934
-60.319	162.827	0.543	0.744
-59.305	411.680	-0.694	-1.438
-58.290	454.993	0.793	1.715
-57.276	800.000	0.346	1.462
-56.261	-200.000	128.437	674.098
-55.246	403.918	1614.311	3315.961
-54.232	137.508	2769.019	3535.437
-53.217	95.533	2164.180	2407.942
-52.203	34.353	1592.281	1355.370
-51.188	26.075	1335.979	1087.508
-50.173	23.506	1298.789	1042.119
-49.159	51.757	1369.479	1270.816
-48.144	48.341	1380.212	1260.113
-47.130	26.259	1327.566	1081.592
-46.115	22.949	1308.712	1046.615
-45.100	22.704	1303.701	1041.124
-44.086	22.725	1300.446	1038.608
-43.071	22.658	1298.739	1036.807
-42.057	22.699	1296.689	1035.371
-41.042	22.692	1295.098	1034.020
-40.027	22.664	1294.031	1032.962
-39.013	22.786	1291.273	1031.431
-37.998	22.687	1289.903	1029.720
-36.984	22.735	1288.451	1028.799
-35.969	22.807	1285.905	1027.145
-34.954	22.798	1284.745	1026.125
-33.940	22.882	1283.547	1025.613
-32.925	22.771	1282.026	1023.715
-31.911	22.790	1281.088	1023.032
-30.896	22.935	1279.014	1022.175
-29.881	22.922	1277.756	1021.054
-28.867	22.895	1276.929	1020.196
-27.852	22.904	1275.292	1018.903
-26.838	22.915	1273.876	1017.794
-25.823	22.905	1272.674	1016.736
-24.809	22.935	1271.466	1015.904
-23.794	22.752	1270.394	1013.953
-22.779	22.830	1268.855	1013.131
-21.765	22.872	1267.409	1012.176
-20.750	22.957	1265.953	1011.463
-19.736	22.827	1264.395	1009.435
-18.721	22.788	1263.767	1008.668
-17.706	22.623	1262.540	1006.709
-16.692	22.702	1261.494	1006.288
-15.677	22.605	1260.478	1004.883
-14.663	22.707	1258.921	1004.183
-13.648	22.738	1258.464	1003.957
-12.633	22.741	1256.971	1002.740
-11.619	22.668	1256.813	1002.162
-10.604	22.754	1255.337	1001.429
-9.590	22.665	1254.985	1000.608
-8.575	22.702	1253.360	999.477
-7.560	22.732	1252.433	998.869
-6.546	22.781	1251.662	998.491
-5.531	22.669	1251.562	997.738
-4.517	22.638	1250.264	996.489
-3.502	22.703	1249.616	996.304
-2.487	22.705	1248.838	995.654
-1.473	22.681	1244.766	992.232
-0.458	21.153	1229.364	971.417
0.556	16.231	1214.623	935.715
1.571	12.907	1222.167	922.868
2.586	12.142	1237.909	930.338
3.600	12.178	1225.971	921.484
4.615	8.951	1154.236	850.402
5.629	3.001	1084.397	769.164
6.644	0.304	1068.193	744.295
7.659	0.115	1066.161	741.884
8.673	0.141	1064.925	741.085
9.688	0.131	1063.776	740.170
10.702	0.284	1061.634	739.367
11.717	3.884	1065.453	759.665
12.731	10.800	1074.382	800.118
13.746	15.487	1080.753	827.957
14.761	16.817	1081.667	835.147
15.775	15.982	1080.306	829.911
16.790	15.170	1077.899	823.995
17.804	14.309	1077.094	819.072
18.819	14.045	1075.167	816.237
19.834	13.943	1074.527	815.183
20.848	13.573	1073.428	812.461
21.863	13.486	1072.652	811.375
22.877	13.282	1071.861	809.706
23.892	13.142	1071.532	808.698
24.907	13.238	1070.600	808.394
25.921	13.165	1069.835	807.388
26.936	13.293	1068.801	807.162
27.950	13.433	1067.253	806.603
28.965	13.419	1066.182	805.655
29.980	13.358	1065.258	804.589
30.994	13.429	1064.411	804.223
32.009	13.448	1063.931	803.883
33.023	13.481	1062.470	802.864
34.038	13.342	1062.023	801.782
35.053	13.495	1060.601	801.381
36.067	13.433	1059.837	800.432
37.082	13.331	1059.122	799.327
38.096	13.406	1058.201	798.924
39.111	13.519	1057.050	798.531
40.126	13.307	1056.340	796.903
41.140	13.219	1055.169	795.525
42.155	13.255	1053.999	794.744
43.169	13.241	1052.968	793.830
44.184	13.337	1052.082	793.552
45.199	13.179	1051.148	792.022
46.213	13.249	1049.994	791.414
47.228	13.300	1049.211	791.001
48.242	13.323	1047.833	790.001
49.257	13.295	1047.174	789.302
50.271	13.422	1046.071	789.004
51.286	13.251	1045.538	787.718
52.301	13.293	1044.668	787.194
53.315	13.269	1043.344	786.010
54.330	13.268	1042.176	785.056
55.344	13.319	1041.307	784.574
56.359	13.151	1041.006	783.480
57.374	13.270	1039.434	782.791
58.388	13.216	1038.843	782.024
59.403	13.231	1037.719	781.181
60.417	13.307	1037.116	781.017
61.432	13.094	1036.690	779.618
62.447	13.056	1035.922	778.794
63.461	13.247	1034.411	778.487
64.476	13.274	1033.615	777.948
65.490	13.183	1033.083	777.048
66.505	13.219	1032.115	776.424
67.520	13.208	1031.577	775.895
68.534	13.092	1031.118	774.938
69.549	13.144	1029.959	774.243
70.563	13.268	1029.039	774.065
71.578	13.155	1028.128	772.780
72.593	13.043	1027.645	771.825
73.607	13.044	1027.074	771.335
74.622	13.067	1026.717	771.102
75.636	13.107	1025.479	770.295
76.651	13.118	1024.758	769.737
77.666	13.032	1024.287	768.912
78.680	13.195	1022.970	768.615
79.695	13.163	1022.520	768.060
80.709	13.285	1021.721	767.959
81.724	13.136	1021.409	766.965
82.739	13.293	1020.638	767.046
83.753	13.256	1019.765	766.148
84.768	13.320	1018.612	765.509
85.782	13.474	1017.650	765.431
86.797	13.473	1016.334	764.369
87.812	13.197	1016.323	763.022
88.826	13.464	1014.702	762.967
89.841	13.352	1014.042	761.889
90.855	13.313	1013.489	761.226
91.870	13.398	1012.871	761.082
92.884	13.378	1011.827	760.140
93.899	13.351	1010.768	759.152
94.914	13.521	1009.898	759.211
95.928	13.498	1009.200	758.517
96.943	13.412	1008.232	757.326
97.957	13.466	1006.957	756.551
98.972	13.352	1006.118	755.330
99.987	13.295	1005.836	754.795
101.001	13.374	1004.860	754.354
102.016	13.414	1003.761	753.644
103.030	13.526	1002.797	753.361
104.045	13.414	1002.527	752.584
105.060	13.478	1001.100	751.737
106.074	13.332	1000.422	750.500
107.089	13.242	999.551	749.371
108.103	13.284	998.186	748.473
109.118	13.091	998.168	747.518
110.133	13.312	996.282	747.038
111.147	13.204	996.089	746.342
112.162	13.220	995.135	745.630
113.176	13.364	994.542	745.772
114.191	13.314	993.479	744.681
115.206	13.297	992.910	744.115
116.220	13.325	991.954	743.457
117.235	13.324	991.423	742.987
118.249	13.339	990.096	741.994
119.264	13.411	989.409	741.736
120.279	13.232	988.471	740.170
121.293	13.369	987.474	739.969
122.308	13.318	987.017	739.332
123.322	13.302	985.994	738.428
124.337	13.330	984.777	737.578
125.352	13.276	983.752	736.504
126.366	13.325	982.572	735.773
127.381	13.232	981.970	734.846
128.395	13.272	981.082	734.293
129.410	13.255	979.886	733.258
130.424	13.433	978.628	733.037
131.439	13.382	978.380	732.564
132.454	13.283	977.634	731.500
133.468	13.263	976.831	730.747
134.483	13.268	976.239	730.261
135.497	13.335	974.939	729.517
136.512	13.397	974.072	729.078
137.527	13.388	973.322	728.416
138.541	13.363	972.741	727.803
139.556	13.386	972.106	727.367
140.570	13.377	971.403	726.736
141.585	13.661	969.923	726.810
142.600	13.528	968.788	725.314
143.614	13.521	968.640	725.108
144.629	13.520	967.703	724.336
145.643	13.594	966.871	723.977
146.658	13.667	966.111	723.661
147.673	13.614	964.942	722.490
148.687	13.550	963.812	721.301
149.702	13.453	963.243	720.390
150.716	13.441	962.643	719.823
151.731	13.496	962.233	719.695
152.746	13.547	961.371	719.208
153.760	13.536	960.567	718.495
154.775	13.616	960.028	718.374
155.789	13.591	959.179	717.568
156.804	13.576	958.654	717.045
157.819	13.718	957.841	716.986
158.833	13.656	957.597	716.471
159.848	13.778	956.346	716.002
160.862	13.576	955.748	714.618
161.877	13.534	954.680	713.576
162.892	13.654	953.126	712.868
163.906	13.568	952.688	712.108
164.921	13.678	951.678	711.761
165.935	13.734	950.949	711.392
166.950	13.669	950.185	710.479
167.964	13.608	949.235	709.444
168.979	13.553	948.510	708.607
169.994	13.648	947.592	708.264
171.008	13.768	947.034	708.295
172.023	13.728	946.049	707.323
173.037	13.711	945.403	706.708
174.052	13.738	944.677	706.217
175.067	13.836	944.034	706.090
176.081	13.772	943.783	705.568
177.096	13.744	943.271	705.004
178.110	13.720	942.363	704.162
179.125	13.691	942.097	703.776
180.140	13.779	941.051	703.307
181.154	13.758	940.830	702.990
182.169	13.800	940.288	702.701
183.183	13.865	939.801	702.549
184.198	13.825	938.896	701.641
185.213	13.902	938.083	701.299
186.227	14.014	937.285	701.110
187.242	13.920	937.139	700.544
188.256	14.025	936.046	700.109
189.271	14.046	935.300	699.575
190.286	13.831	934.577	698.070
191.300	13.697	933.925	696.957
192.315	13.775	933.714	697.065
193.329	13.904	932.632	696.739
194.344	13.669	932.380	695.502
195.359	13.889	931.477	695.688
196.373	13.926	931.029	695.446
197.388	13.986	930.470	695.218
198.402	14.070	930.209	695.316
199.417	14.271	928.989	695.182
200.432	14.251	928.629	694.766
201.446	14.046	928.797	693.975
202.461	14.147	928.221	693.902
203.475	14.173	927.361	693.309
204.490	14.302	925.922	692.707
205.504	14.259	925.670	692.278
206.519	14.119	924.610	690.842
207.534	14.120	924.196	690.476
208.548	14.197	923.512	690.226
209.563	14.254	922.971	689.997
210.577	14.414	921.614	689.580
211.592	14.347	921.403	689.087
212.607	14.292	921.055	688.539
213.621	14.230	920.337	687.683
214.636	14.281	919.598	687.280
215.650	14.321	918.820	686.803
216.665	14.487	918.203	686.964
217.680	14.367	917.358	685.779
218.694	14.494	916.715	685.758
219.709	14.388	916.341	684.984
220.723	14.263	915.785	683.995
221.738	14.564	914.255	684.026
222.753	14.395	914.251	683.268
223.767	14.368	913.557	682.578
224.782	14.452	913.538	682.847
225.796	14.540	912.394	682.293
226.811	14.671	911.933	682.421
227.826	14.461	910.998	680.805
228.840	14.609	910.001	680.605
229.855	14.504	909.491	679.735
230.869	14.555	908.874	679.422
231.884	14.521	908.074	678.624
232.899	14.529	907.416	678.103
233.913	14.509	906.567	677.329
234.928	14.429	906.329	676.765
235.942	14.580	905.403	676.626
236.957	14.509	905.183	676.113
237.972	14.559	904.605	675.826
238.986	14.696	903.609	675.575
240.001	14.585	903.060	674.657
241.015	14.654	902.189	674.227
242.030	14.633	902.184	674.077
243.045	14.632	901.458	673.473
244.059	14.742	900.487	673.130
245.074	14.733	899.890	672.588
246.088	14.710	899.567	672.196
247.103	14.708	898.703	671.483
248.117	14.770	898.248	671.333
249.132	14.814	897.555	670.932
250.147	14.922	896.550	670.553
251.161	14.950	896.331	670.441
252.176	14.992	895.588	669.996
253.190	14.976	894.400	668.984
254.205	15.090	893.939	669.034
255.220	15.061	893.319	668.396
256.234	14.993	892.976	667.809
257.249	15.128	891.945	667.516
258.263	15.164	891.348	667.153
259.278	15.055	890.568	666.076
260.293	15.127	890.353	666.143
261.307	15.099	889.781	665.547
262.322	15.056	888.827	664.604
263.336	15.312	887.960	664.911
264.351	15.176	887.672	664.098
265.366	15.196	886.643	663.348
266.380	15.256	886.295	663.267
267.395	15.178	885.696	662.451
268.409	15.326	884.690	662.224
269.424	15.381	883.858	661.760
270.439	15.198	883.502	660.715
271.453	15.316	882.720	660.533
272.468	15.193	882.085	659.518
273.482	15.252	881.739	659.432
274.497	15.261	880.936	658.808
275.512	15.339	880.316	658.594
276.526	15.253	880.101	658.035
277.541	15.321	879.874	658.076
278.555	15.473	878.721	657.751
279.570	15.544	877.941	657.388
280.585	15.371	877.631	656.419
281.599	15.580	876.292	656.175
282.614	15.551	875.846	655.673
283.628	15.306	875.709	654.555
284.643	15.377	875.118	654.332
285.657	15.497	874.066	653.954
286.672	15.501	873.590	653.554
287.687	15.485	872.823	652.861
288.701	15.478	872.270	652.364
289.716	15.615	871.867	652.535
290.730	15.548	870.915	651.508
291.745	15.656	870.948	651.891
292.760	15.592	870.589	651.318
293.774	15.604	869.449	650.453
294.789	15.754	868.760	650.459
295.803	15.562	868.101	649.169
296.818	15.608	867.453	648.804
297.833	15.635	866.536	648.166
298.847	15.714	866.012	648.018
299.862	15.726	865.772	647.830
300.876	15.578	865.405	646.926
301.891	15.849	864.332	647.111
302.906	15.900	863.634	646.725
303.920	15.797	863.255	645.990
304.935	15.944	862.958	646.274
305.949	15.893	861.739	645.106
306.964	16.025	861.443	645.336
307.979	15.958	861.135	644.789
308.993	15.863	860.583	643.958
310.008	16.047	859.759	643.985
311.022	15.957	859.419	643.331
312.037	15.921	858.679	642.583
313.052	15.835	858.101	641.765
314.066	15.734	857.760	641.067
315.081	15.957	856.721	641.085
316.095	15.985	856.326	640.837
317.110	16.053	855.141	640.151
318.125	15.926	855.018	639.524
319.139	15.933	854.649	639.217
320.154	16.017	854.717	639.530
321.168	16.049	853.662	638.804
322.183	15.939	853.378	638.118
323.197	15.923	852.650	637.457
324.212	15.948	852.368	637.286
325.227	15.886	851.678	636.477
326.241	16.046	851.115	636.606
327.256	16.014	850.523	635.985
328.270	16.061	849.615	635.426
329.285	15.977	849.329	634.841
330.300	16.233	848.360	635.025
331.314	16.146	847.913	634.306
332.329	16.192	847.933	634.439
333.343	16.237	846.895	633.775
334.358	16.070	846.929	633.118
335.373	16.248	846.199	633.183
336.387	16.089	846.361	632.652
337.402	16.156	845.971	632.556
338.416	16.346	845.106	632.563
339.431	16.390	845.065	632.640
340.446	16.364	844.532	632.089
341.460	16.528	843.806	632.105
342.475	16.417	843.705	631.555
343.489	16.572	843.472	631.906
344.504	16.473	842.735	630.927
345.519	16.390	842.735	630.564
346.533	16.494	841.761	630.167
347.548	16.545	841.473	630.084
348.562	16.369	840.901	628.943
349.577	16.451	840.125	628.613
350.592	16.482	839.467	628.183
351.606	16.457	838.913	627.618
352.621	16.481	838.188	627.108
353.635	16.424	837.626	626.422
354.650	16.391	837.277	625.983
355.665	16.540	836.167	625.649
356.679	16.675	835.590	625.660
357.694	16.522	835.275	624.803
358.708	16.577	834.795	624.592
359.723	16.573	834.192	624.071
360.738	16.634	833.375	623.631
361.752	16.565	833.167	623.164
362.767	16.542	832.558	622.570
363.781	16.691	831.636	622.374
364.796	16.667	831.499	622.128
365.810	16.803	831.409	622.504
366.825	16.874	830.553	622.068
367.840	16.826	830.166	621.548
368.854	16.729	829.338	620.519
369.869	16.862	829.167	620.824
370.883	16.915	828.669	620.587
371.898	16.855	828.244	619.996
372.913	16.989	827.786	620.090
373.927	16.976	827.087	619.463
374.942	16.944	827.103	619.304
375.956	17.044	826.590	619.227
376.971	16.902	826.263	618.411
377.986	17.028	825.565	618.292
379.000	17.049	825.106	617.971
380.015	17.023	824.891	617.659
381.029	16.922	824.246	616.756
382.044	17.136	823.134	616.646
383.059	16.994	823.135	616.076
384.073	17.025	822.388	615.576
385.088	17.066	821.849	615.265
386.102	16.926	821.417	614.380
387.117	16.981	820.704	613.992
388.132	17.046	820.343	613.903
389.146	17.145	819.499	613.574
390.161	17.162	818.921	613.148
391.175	17.214	818.767	613.166
392.190	17.132	818.584	612.681
393.205	17.327	817.843	612.775
394.219	17.089	817.235	611.406
395.234	17.093	817.166	611.316
396.248	17.045	816.688	610.733
397.263	17.152	816.290	610.766
398.278	17.251	815.721	610.640
399.292	17.077	815.530	609.821
400.307	17.119	814.858	609.414
401.321	17.167	814.519	609.276
402.336	17.266	813.772	609.021
403.350	17.407	813.339	609.148
404.365	17.386	812.706	608.544
405.380	17.392	812.208	608.137
406.394	17.416	812.015	608.026
407.409	17.406	811.446	607.508
408.423	17.482	811.311	607.627
409.438	17.391	810.806	606.871
410.453	17.465	810.185	606.614
411.467	17.508	809.541	606.233
412.482	17.584	809.534	606.444
413.496	17.443	809.130	605.585
414.511	17.511	808.853	605.567
415.526	17.483	808.318	605.014
416.540	17.574	807.671	604.800
417.555	17.562	807.133	604.298
418.569	17.632	806.444	603.979
419.584	17.680	806.321	604.001
420.599	17.583	806.152	603.480
421.613	113.954	1299.909	1488.182
422.628	98.395	1371.783	1488.258
