DTS Sentinel unit serial number:	SN413079Multiplexer serial number:	ORYXHardware model number:	OX4-SRSoftware version number:	ORYX F/W v4.00 Oryx Data Collector v3.7.2.0data status	okinstallation	princeton_trtdifferential loss correction	single-endedforward channel	channel 1reverse channel	N/Adate	2019/09/19time	00:22:35forward acquisition time	60.00reverse acquisition time	0.00gamma	496.2192k internal	0.2342k external	0.2342temperature offset calibration	1.0019default loss term (dB/km)	0.3790temperature slope calibration	1.0000multiplexer offset coefficient	1.0000multiplexer slope coefficient	1.0000fibre end	0.00T internal ref (°C)	22.62T ext. ref 1 (°C)	0.75T ext. ref 2 (°C)	15.64length (m)	temperature (°C)	Stokes	anti-Stokes-747.200	-200.000	-0.012	-0.136
-746.185	-181.234	0.181	0.004
-745.171	61.261	-0.056	0.056
-744.156	-87.665	-0.151	0.046
-743.142	0.966	0.068	-0.049
-742.127	-200.000	0.018	0.179
-741.112	-200.000	0.331	0.000
-740.098	800.000	-0.109	0.312
-739.083	466.948	0.075	-0.169
-738.069	-76.907	-0.208	-0.073
-737.054	-18.672	-0.319	0.199
-736.039	32.980	0.135	0.117
-735.025	-116.957	0.466	-0.085
-734.010	-200.000	0.004	-0.395
-732.996	-122.684	-0.150	-0.024
-731.981	163.302	0.093	-0.130
-730.966	-118.804	-0.063	0.011
-729.952	-200.000	-0.028	-0.169
-728.937	158.104	0.139	-0.193
-727.923	-130.400	-0.258	-0.035
-726.908	-113.667	0.109	0.021
-725.894	-163.065	-0.507	0.025
-724.879	-200.000	-0.052	0.562
-723.864	18.731	-0.103	-0.083
-722.850	-48.240	-0.344	0.166
-721.835	473.262	-0.162	-0.365
-720.821	627.927	0.106	0.268
-719.806	-200.000	0.058	-0.257
-718.791	-53.221	-0.347	0.159
-717.777	707.149	-0.089	-0.236
-716.762	-200.000	-0.070	-0.456
-715.748	800.000	0.081	0.249
-714.733	58.988	-0.231	0.228
-713.718	-58.885	0.149	0.064
-712.704	329.187	0.140	-0.269
-711.689	422.606	0.098	-0.209
-710.675	42.425	-0.142	-0.129
-709.660	-137.268	-0.044	-0.005
-708.645	-125.436	0.133	-0.020
-707.631	-149.709	0.012	0.001
-706.616	-200.000	0.002	0.299
-705.602	62.291	-0.096	0.096
-704.587	-125.783	-0.445	-0.067
-703.572	-200.000	-0.005	0.293
-702.558	-69.060	0.090	-0.035
-701.543	-160.756	0.333	-0.018
-700.529	40.984	-0.285	0.258
-699.514	211.300	0.155	-0.243
-698.499	112.250	0.160	0.194
-697.485	-32.690	0.215	-0.119
-696.470	114.592	0.121	0.147
-695.456	-65.390	-0.225	-0.090
-694.441	-200.000	0.041	0.325
-693.426	-75.429	0.050	0.018
-692.412	110.929	0.035	-0.042
-691.397	-200.000	-0.012	0.220
-690.383	-81.251	-0.381	0.126
-689.368	354.107	-0.034	0.068
-688.354	-108.547	-0.118	-0.025
-687.339	-117.031	-0.292	0.053
-686.324	-120.710	-0.238	-0.040
-685.310	-183.931	0.284	0.005
-684.295	-86.417	-0.159	-0.049
-683.281	130.215	-0.150	0.192
-682.266	-29.051	0.235	-0.135
-681.251	37.969	-0.092	0.082
-680.237	321.717	-0.076	-0.145
-679.222	-34.106	-0.295	-0.162
-678.208	183.924	-0.134	-0.198
-677.193	681.304	0.079	0.204
-676.178	-87.894	-0.236	-0.071
-675.164	79.212	0.055	-0.059
-674.149	1.579	0.161	-0.116
-673.135	-32.659	0.499	0.278
-672.120	172.754	0.093	-0.134
-671.105	800.000	-0.043	0.156
-670.091	-90.482	-0.214	-0.062
-669.076	128.900	-0.201	0.256
-668.062	106.582	0.106	-0.126
-667.047	23.429	-0.219	-0.180
-666.032	-39.340	0.416	-0.218
-665.018	72.644	0.197	0.205
-664.003	-97.698	-0.070	-0.018
-662.989	18.739	-0.083	-0.066
-661.974	800.000	-0.054	0.190
-660.959	-31.655	-0.026	-0.015
-659.945	-46.223	0.331	0.163
-658.930	9.467	-0.257	0.194
-657.916	491.829	-0.147	0.337
-656.901	523.760	0.149	0.350
-655.886	-10.956	-0.185	-0.122
-654.872	-189.716	-0.158	0.002
-653.857	366.777	-0.085	0.172
-652.843	-134.861	0.259	0.031
-651.828	-200.000	0.058	-0.266
-650.814	-8.591	-0.028	0.019
-649.799	-12.018	0.092	0.060
-648.784	-72.860	-0.170	-0.062
-647.770	-103.370	0.219	-0.051
-646.755	-49.272	-0.326	0.155
-645.741	0.746	0.074	-0.053
-644.726	-200.000	-0.002	0.080
-643.711	190.082	0.097	0.145
-642.697	0.334	0.162	0.115
-641.682	-200.000	0.061	-0.473
-640.668	125.193	0.172	0.216
-639.653	-200.000	-0.045	-0.283
-638.638	-200.000	-0.024	-0.354
-637.624	-200.000	-0.007	0.176
-636.609	-8.808	-0.047	0.032
-635.595	800.000	0.114	0.488
-634.580	600.383	-0.071	-0.177
-633.565	-41.489	-0.218	0.112
-632.551	212.880	0.079	-0.125
-631.536	92.995	0.196	0.221
-630.522	800.000	0.072	0.220
-629.507	-146.444	0.280	0.024
-628.492	-99.428	-0.247	0.062
-627.478	-111.254	0.088	-0.018
-626.463	30.521	-0.153	0.131
-625.449	120.857	-0.226	0.280
-624.434	-123.317	-0.311	-0.050
-623.419	478.019	0.113	-0.255
-622.405	-91.305	0.093	0.026
-621.390	-133.911	-0.357	-0.044
-620.376	-122.724	0.133	-0.022
-619.361	717.113	-0.044	-0.116
-618.346	800.000	-0.068	-0.194
-617.332	278.919	-0.097	-0.173
-616.317	-47.186	0.222	0.108
-615.303	99.268	0.113	0.130
-614.288	-200.000	0.047	0.247
-613.273	-50.627	0.214	-0.100
-612.259	-82.218	-0.141	0.046
-611.244	800.000	0.041	-0.117
-610.230	-200.000	-0.023	0.374
-609.215	476.274	-0.176	-0.396
-608.201	45.561	-0.179	0.165
-607.186	150.629	0.130	0.176
-606.171	87.780	0.158	0.174
-605.157	53.886	0.300	-0.287
-604.142	15.559	-0.185	-0.145
-603.128	800.000	0.101	-0.437
-602.113	-200.000	0.059	0.331
-601.098	9.914	0.047	0.036
-600.084	199.545	0.025	-0.039
-599.069	596.984	-0.010	-0.025
-598.055	-33.867	0.080	0.044
-597.040	-19.905	-0.210	0.129
-596.025	-22.652	-0.126	-0.076
-595.011	85.303	0.156	-0.171
-593.996	-200.000	0.015	0.065
-592.982	-15.047	0.112	-0.072
-591.967	-18.079	-0.184	0.115
-590.952	105.391	0.123	0.144
-589.938	-55.875	0.160	0.071
-588.923	-160.769	-0.148	-0.008
-587.909	-7.922	0.430	-0.289
-586.894	72.294	0.090	0.093
-585.879	-132.077	0.153	-0.020
-584.865	537.709	-0.020	0.048
-583.850	-77.798	-0.076	0.026
-582.836	131.131	-0.080	0.103
-581.821	30.169	0.173	-0.147
-580.806	-120.378	-0.096	-0.016
-579.792	635.578	-0.075	-0.189
-578.777	-104.033	0.144	0.033
-577.763	-102.461	-0.093	0.022
-576.748	64.200	0.134	0.135
-575.733	-123.228	0.030	-0.005
-574.719	-200.000	0.028	-0.185
-573.704	-200.000	0.025	-0.218
-572.690	-36.673	0.116	-0.062
-571.675	306.698	-0.095	0.176
-570.661	53.399	0.217	0.207
-569.646	454.073	-0.216	0.476
-568.631	451.985	0.153	0.336
-567.617	43.327	0.120	-0.109
-566.602	800.000	-0.039	-0.119
-565.588	278.027	-0.075	-0.132
-564.573	-57.952	0.087	-0.038
-563.558	16.863	0.305	0.240
-562.544	93.094	0.126	0.142
-561.529	-65.534	-0.351	-0.140
-560.515	800.000	0.036	0.139
-559.500	-200.000	0.015	0.155
-558.485	-62.405	-0.439	-0.182
-557.471	-56.210	-0.161	-0.071
-556.456	800.000	-0.054	-0.155
-555.442	-109.272	-0.062	-0.013
-554.427	-120.912	-0.213	-0.036
-553.412	800.000	-0.123	-0.415
-552.398	108.292	-0.088	0.104
-551.383	-30.862	0.366	0.205
-550.369	-114.292	-0.284	-0.054
-549.354	103.389	0.054	-0.063
-548.339	221.720	-0.033	0.052
-547.325	-106.208	-0.017	-0.004
-546.310	-77.450	0.149	-0.051
-545.296	-122.240	0.449	-0.073
-544.281	-167.096	-0.405	0.016
-543.266	-95.916	0.137	0.036
-542.252	251.343	-0.149	0.252
-541.237	-78.307	-0.409	-0.139
-540.223	-88.597	0.354	0.105
-539.208	-33.502	0.178	0.098
-538.193	-99.045	-0.111	-0.028
-537.179	63.465	0.216	0.216
-536.164	800.000	-0.037	0.118
-535.150	-69.157	0.271	-0.103
-534.135	519.475	0.019	-0.044
-533.121	577.959	0.070	-0.170
-532.106	-58.181	-0.196	-0.085
-531.091	-75.718	0.058	-0.021
-530.077	-200.000	-0.249	0.001
-529.062	-93.485	-0.171	-0.047
-528.048	-100.904	0.154	0.037
-527.033	75.934	0.118	-0.124
-526.018	373.610	0.099	0.199
-525.004	118.538	0.125	0.153
-523.989	-104.712	0.061	-0.014
-522.975	725.130	0.059	-0.155
-521.960	554.309	0.037	-0.089
-520.945	-105.257	0.299	-0.068
-519.931	338.275	-0.122	-0.236
-518.916	800.000	0.038	-0.151
-517.902	-103.252	0.209	-0.049
-516.887	87.069	0.062	0.068
-515.872	304.035	0.023	-0.042
-514.858	-166.133	0.228	-0.010
-513.843	-34.638	-0.269	-0.146
-512.829	161.551	0.043	-0.060
-511.814	-200.000	0.001	-0.123
-510.799	107.393	-0.027	0.032
-509.785	-107.014	0.053	-0.012
-508.770	-14.866	-0.463	-0.295
-507.756	34.979	-0.258	0.224
-506.741	70.021	0.210	-0.215
-505.726	449.116	-0.118	0.258
-504.712	-163.397	-0.094	-0.004
-503.697	36.625	-0.141	-0.123
-502.683	54.572	0.205	-0.196
-501.668	42.015	-0.101	-0.091
-500.653	195.809	-0.259	0.391
-499.639	176.754	-0.128	0.185
-498.624	-109.075	-0.118	0.025
-497.610	-129.623	-0.147	-0.020
-496.595	-115.045	-0.206	0.039
-495.581	-200.000	-0.018	0.270
-494.566	231.236	-0.215	-0.350
-493.551	64.811	-0.072	-0.072
-492.537	413.655	0.045	-0.095
-491.522	-12.091	-0.356	-0.231
-490.508	-120.701	0.110	0.018
-489.493	800.000	-0.064	0.239
-488.478	116.023	-0.185	0.225
-487.464	-144.780	0.326	-0.030
-486.449	40.276	-0.343	-0.306
-485.435	51.366	0.075	0.071
-484.420	493.891	-0.130	0.297
-483.405	112.213	-0.037	-0.044
-482.391	-200.000	-0.016	-0.290
-481.376	-7.134	-0.345	-0.232
-480.362	195.182	0.146	0.220
-479.347	-200.000	0.017	-0.194
-478.332	-97.787	-0.361	0.093
-477.318	180.866	-0.097	0.142
-476.303	-136.891	0.210	-0.024
-475.289	-200.000	0.143	0.000
-474.274	-146.524	-0.380	-0.033
-473.259	-82.032	-0.418	-0.135
-472.245	34.775	0.179	0.155
-471.230	-61.606	-0.216	-0.090
-470.216	-54.906	0.179	-0.080
-469.201	25.841	0.348	-0.288
-468.186	800.000	-0.099	-0.294
-467.172	746.832	0.060	0.161
-466.157	106.200	0.099	0.116
-465.143	800.000	0.114	-0.401
-464.128	-96.622	0.301	0.079
-463.113	-139.890	0.168	-0.018
-462.099	-200.000	0.001	0.297
-461.084	-44.642	-0.351	0.174
-460.070	-200.000	-0.005	0.055
-459.055	-32.117	-0.094	0.052
-458.040	-118.307	0.523	-0.092
-457.026	103.430	-0.240	0.279
-456.011	-69.651	-0.272	-0.103
-454.997	57.120	0.062	-0.060
-453.982	215.224	0.212	-0.333
-452.968	-200.000	-0.006	0.046
-451.953	800.000	-0.071	-0.262
-450.938	-75.422	-0.343	-0.121
-449.924	36.480	0.209	0.182
-448.909	58.930	0.054	0.052
-447.895	668.549	-0.014	-0.035
-446.880	800.000	0.065	0.181
-445.865	-2.239	0.234	-0.163
-444.851	474.622	0.157	-0.350
-443.836	-64.401	-0.084	-0.034
-442.822	559.431	0.103	-0.246
-441.807	-97.220	-0.283	-0.073
-440.792	-14.953	0.187	-0.119
-439.778	333.693	0.102	-0.195
-438.763	117.394	0.076	-0.092
-437.749	800.000	0.042	0.166
-436.734	-126.687	0.127	0.019
-435.719	800.000	-0.019	0.066
-434.705	-75.879	0.248	-0.087
-433.690	-102.065	0.335	0.080
-432.676	575.161	-0.066	-0.158
-431.661	4.939	-0.172	0.125
-430.646	-104.520	-0.093	0.021
-429.632	29.004	-0.141	0.119
-428.617	517.860	-0.021	0.049
-427.603	-122.481	-0.143	0.023
-426.588	-111.163	-0.307	0.062
-425.573	90.491	0.066	0.073
-424.559	127.795	0.248	0.312
-423.544	-200.000	0.009	0.092
-422.530	257.195	0.020	-0.034
-421.515	587.603	0.053	-0.128
-420.500	101.596	0.047	-0.055
-419.486	382.124	0.140	-0.284
-418.471	-100.667	-0.028	-0.007
-417.457	-21.712	0.024	0.015
-416.442	25.314	0.072	-0.059
-415.428	-119.420	0.272	-0.047
-414.413	142.882	0.023	-0.030
-413.398	800.000	-0.078	0.287
-412.384	291.088	0.116	-0.208
-411.369	-200.000	-0.023	0.273
-410.355	16.824	0.280	0.219
-409.340	-200.000	-0.081	-0.434
-408.325	-200.000	-0.003	0.301
-407.311	457.489	0.080	-0.177
-406.296	-28.283	0.306	0.175
-405.282	555.699	-0.204	-0.486
-404.267	-94.901	0.170	-0.045
-403.252	-159.028	-0.189	0.011
-402.238	800.000	0.026	-0.087
-401.223	-200.000	0.010	0.130
-400.209	-200.000	0.036	-0.220
-399.194	-200.000	-0.023	-0.122
-398.179	392.688	0.032	-0.066
-397.165	-119.343	-0.343	0.059
-396.150	-82.873	0.145	0.046
-395.136	-5.844	0.183	0.124
-394.121	-105.134	-0.363	-0.082
-393.106	-27.822	0.294	0.168
-392.092	-88.300	0.218	-0.065
-391.077	96.575	-0.161	-0.183
-390.063	-200.000	-0.021	0.321
-389.048	-197.767	-0.327	0.002
-388.033	-200.000	-0.002	0.371
-387.019	155.760	-0.171	-0.232
-386.004	-109.009	0.454	-0.096
-384.990	-41.705	-0.219	0.111
-383.975	-140.438	-0.156	0.016
-382.960	-136.091	0.096	-0.011
-381.946	91.896	-0.282	0.313
-380.931	510.922	-0.033	0.075
-379.917	-200.000	0.032	-0.186
-378.902	188.726	-0.190	-0.281
-377.888	788.702	0.082	0.222
-376.873	-105.796	-0.251	-0.056
-375.858	-168.239	-0.158	-0.006
-374.844	23.081	0.108	0.087
-373.829	-200.000	-0.022	-0.182
-372.815	243.081	-0.108	-0.178
-371.800	-52.229	-0.152	-0.070
-370.785	-54.521	-0.422	0.188
-369.771	39.463	-0.192	-0.170
-368.756	413.847	-0.041	0.086
-367.742	-57.035	-0.403	0.176
-366.727	405.938	0.032	0.066
-365.712	-200.000	0.004	-0.120
-364.698	52.600	0.246	-0.232
-363.683	-52.054	-0.093	0.043
-362.669	-200.000	0.005	0.232
-361.654	246.746	-0.200	0.333
-360.639	-93.946	0.171	-0.046
-359.625	-200.000	0.045	-0.279
-358.610	-158.033	0.274	0.016
-357.596	584.949	0.195	-0.474
-356.581	800.000	0.087	-0.305
-355.566	119.999	-0.209	0.256
-354.552	-20.356	-0.030	0.018
-353.537	-48.191	0.035	0.017
-352.523	7.456	-0.381	0.281
-351.508	-106.830	0.110	-0.024
-350.493	551.406	-0.030	0.070
-349.479	84.805	0.305	0.330
-348.464	-0.093	0.124	0.087
-347.450	-200.000	-0.003	0.031
-346.435	283.130	-0.131	-0.233
-345.420	-200.000	0.026	0.330
-344.406	-49.937	-0.325	-0.152
-343.391	-200.000	-0.022	-0.212
-342.377	-129.774	-0.185	-0.025
-341.362	800.000	-0.061	0.222
-340.348	-1.445	-0.320	-0.222
-339.333	800.000	-0.081	-0.242
-338.318	-200.000	-0.008	0.154
-337.304	800.000	0.070	0.202
-336.289	-101.281	0.349	0.084
-335.275	-200.000	0.037	-0.187
-334.260	87.155	0.309	0.337
-333.245	800.000	-0.019	-0.056
-332.231	41.026	0.307	-0.273
-331.216	-119.568	0.076	0.013
-330.202	-200.000	-0.000	0.510
-329.187	684.969	0.045	-0.115
-328.172	-200.000	-0.049	-0.220
-327.158	-12.533	-0.129	0.083
-326.143	-46.416	-0.318	-0.154
-325.129	-200.000	0.037	0.254
-324.114	-200.000	-0.011	-0.089
-323.099	202.934	-0.133	0.203
-322.085	142.335	0.061	0.079
-321.070	57.909	0.069	0.066
-320.056	-200.000	0.044	-0.299
-319.041	743.241	-0.188	-0.498
-318.026	-13.875	0.030	-0.019
-317.012	-76.855	0.151	0.052
-315.997	-134.768	-0.261	0.031
-314.983	137.534	0.160	-0.206
-313.968	211.523	0.055	0.085
-312.953	320.115	-0.157	0.294
-311.939	-114.386	0.299	0.057
-310.924	622.982	0.053	-0.133
-309.910	800.000	0.067	-0.249
-308.895	313.874	-0.036	0.067
-307.880	-167.092	-0.333	-0.013
-306.866	131.955	0.055	-0.070
-305.851	2.430	-0.269	-0.191
-304.837	800.000	-0.062	-0.226
-303.822	73.148	-0.083	-0.086
-302.807	-200.000	0.030	-0.286
-301.793	487.910	-0.092	-0.207
-300.778	-200.000	0.016	-0.315
-299.764	701.847	0.136	0.354
-298.749	68.184	0.046	0.047
-297.735	-80.609	-0.096	-0.031
-296.720	-74.998	0.093	-0.033
-295.705	-80.389	0.458	0.151
-294.691	36.675	0.514	-0.447
-293.676	596.223	-0.040	0.097
-292.662	-174.338	0.045	-0.001
-291.647	43.574	0.154	-0.139
-290.632	-118.659	0.184	-0.032
-289.618	185.233	0.195	-0.284
-288.603	198.931	-0.056	0.084
-287.589	639.488	-0.048	0.119
-286.574	569.250	0.152	0.365
-285.559	-31.234	0.085	-0.047
-284.545	-147.163	-0.264	0.022
-283.530	21.745	-0.117	0.093
-282.516	-40.152	-0.187	-0.096
-281.501	-54.056	0.138	-0.062
-280.486	306.994	0.121	0.221
-279.472	-200.000	-0.032	-0.231
-278.457	-200.000	0.023	0.193
-277.443	-200.000	0.020	0.334
-276.428	502.867	0.108	0.245
-275.413	-168.836	-0.657	-0.024
-274.399	47.413	0.256	-0.235
-273.384	-200.000	0.012	0.572
-272.370	30.676	-0.235	0.198
-271.355	-200.000	0.038	-0.196
-270.340	-115.641	-0.038	-0.007
-269.326	47.685	0.174	-0.160
-268.311	381.665	-0.057	-0.115
-267.297	800.000	0.117	0.326
-266.282	105.522	0.047	-0.055
-265.267	-17.723	0.085	-0.053
-264.253	-200.000	0.038	0.257
-263.238	-200.000	0.029	0.152
-262.224	-32.493	0.137	-0.075
-261.209	128.329	-0.064	0.081
-260.195	-7.118	0.066	0.044
-259.180	-127.913	-0.108	-0.015
-258.165	106.699	-0.304	0.354
-257.151	72.233	0.158	-0.161
-256.136	278.817	0.141	0.246
-255.122	332.922	0.162	-0.308
-254.107	-30.843	-0.073	0.041
-253.092	319.980	0.064	0.120
-252.078	508.172	0.094	0.215
-251.063	168.298	-0.147	0.206
-250.049	-200.000	-0.032	-0.147
-249.034	276.641	0.086	-0.151
-248.019	-200.000	0.017	0.192
-247.005	-200.000	0.008	-0.039
-245.990	44.375	-0.269	-0.243
-244.976	-200.000	0.061	0.514
-243.961	-23.904	0.313	-0.184
-242.946	166.729	0.064	0.089
-241.932	14.974	0.125	-0.096
-240.917	-200.000	0.026	-0.249
-239.903	477.929	-0.129	0.286
-238.888	196.466	0.140	0.209
-237.873	-121.036	0.337	-0.056
-236.859	800.000	0.068	-0.197
-235.844	219.846	0.321	0.506
-234.830	8.781	-0.079	0.059
-233.815	800.000	-0.065	0.185
-232.800	39.538	-0.083	-0.073
-231.786	305.479	-0.098	-0.179
-230.771	-65.458	0.256	0.101
-229.757	-200.000	0.029	-0.133
-228.742	-31.205	0.154	0.085
-227.727	97.502	0.154	0.174
-226.713	-73.921	0.328	-0.117
-225.698	209.450	-0.192	-0.296
-224.684	24.356	-0.226	0.183
-223.669	-124.689	0.223	-0.034
-222.655	-200.000	0.006	-0.139
-221.640	430.458	-0.181	-0.384
-220.625	393.449	0.079	0.162
-219.611	-88.755	0.289	0.084
-218.596	-78.188	-0.399	0.135
-217.582	-14.737	0.142	-0.090
-216.567	54.976	-0.072	-0.068
-215.552	-86.041	-0.252	0.077
-214.538	-84.812	0.121	0.037
-213.523	-65.941	-0.164	-0.064
-212.509	-147.676	0.251	0.021
-211.494	399.114	-0.155	0.318
-210.479	261.624	0.220	0.374
-209.465	-41.104	-0.087	0.044
-208.450	96.543	0.098	-0.110
-207.436	-200.000	-0.009	0.043
-206.421	800.000	-0.077	-0.222
-205.406	-29.304	0.128	0.072
-204.392	408.672	-0.131	0.272
-203.377	800.000	-0.067	-0.262
-202.363	-200.000	0.003	-0.018
-201.348	-44.123	-0.071	0.035
-200.333	106.440	-0.214	0.248
-199.319	-104.442	0.068	-0.015
-198.304	-46.093	0.290	0.140
-197.290	543.803	0.097	-0.227
-196.275	-157.173	-0.325	0.019
-195.260	-139.340	0.191	-0.020
-194.246	-115.997	0.331	-0.060
-193.231	125.676	-0.104	0.129
-192.217	17.687	-0.245	0.191
-191.202	18.997	-0.055	-0.043
-190.187	253.457	-0.049	0.083
-189.173	0.120	-0.126	-0.088
-188.158	-103.611	0.072	0.017
-187.144	-200.000	0.013	0.139
-186.129	14.014	-0.042	-0.032
-185.114	-158.732	0.146	0.008
-184.100	-200.000	-0.033	-0.179
-183.085	66.686	0.273	0.272
-182.071	800.000	0.116	-0.441
-181.056	-69.795	-0.072	-0.027
-180.042	7.111	-0.206	0.150
-179.027	-38.208	0.181	-0.094
-178.012	613.893	0.151	0.370
-176.998	-200.000	-0.042	0.238
-175.983	184.799	-0.110	0.160
-174.969	283.542	-0.147	-0.258
-173.954	-129.572	0.192	-0.026
-172.939	96.943	0.125	-0.141
-171.925	-106.524	-0.269	0.059
-170.910	-57.365	0.234	-0.101
-169.896	-119.097	-0.112	0.019
-168.881	33.709	-0.178	-0.151
-167.866	192.095	-0.165	-0.244
-166.852	-118.995	-0.392	-0.067
-165.837	169.839	-0.146	0.204
-164.823	-68.389	-0.282	0.107
-163.808	11.110	0.126	-0.094
-162.793	-61.824	-0.262	0.107
-161.779	-97.908	-0.160	-0.041
-160.764	9.110	-0.238	0.176
-159.750	-155.673	0.346	0.022
-158.735	-200.000	0.006	-0.093
-157.720	800.000	0.009	-0.038
-156.706	-200.000	-0.048	-0.231
-155.691	-64.660	0.228	0.090
-154.677	-200.000	-0.015	0.114
-153.662	631.944	-0.122	-0.302
-152.647	-200.000	-0.010	0.139
-151.633	470.562	0.055	-0.121
-150.618	216.152	-0.233	0.363
-149.604	24.219	0.122	-0.099
-148.589	-200.000	0.010	0.083
-147.574	-116.781	-0.219	-0.039
-146.560	-116.425	0.219	-0.040
-145.545	120.961	-0.069	-0.084
-144.531	-50.904	0.207	0.095
-143.516	624.817	-0.103	-0.254
-142.502	-145.698	-0.164	0.014
-141.487	-200.000	0.020	0.146
-140.472	-53.480	-0.223	-0.100
-139.458	-58.063	0.098	-0.042
-138.443	-200.000	0.002	-0.069
-137.429	-83.778	-0.120	0.037
-136.414	-83.566	0.188	-0.059
-135.399	570.792	0.170	0.406
-134.385	416.228	0.042	0.088
-133.370	-51.657	0.179	-0.082
-132.356	56.467	-0.335	-0.318
-131.341	-180.730	0.217	0.004
-130.326	383.779	-0.015	-0.031
-129.312	-100.115	0.108	0.026
-128.297	21.534	0.180	0.143
-127.283	-200.000	0.026	0.131
-126.268	-50.803	0.148	0.068
-125.253	-0.838	0.512	-0.355
-124.239	-5.098	-0.371	0.250
-123.224	8.799	0.241	0.178
-122.210	-158.884	-0.201	0.011
-121.195	212.998	0.096	0.148
-120.180	-4.654	-0.140	0.094
-119.166	366.049	-0.012	0.023
-118.151	156.382	-0.100	0.134
-117.137	33.169	-0.273	-0.232
-116.122	-200.000	-0.077	-0.450
-115.107	298.144	0.137	-0.246
-114.093	-88.982	-0.162	0.047
-113.078	-151.112	-0.198	-0.015
-112.064	-68.353	-0.136	-0.051
-111.049	28.075	0.147	0.121
-110.034	-200.000	0.020	0.094
-109.020	-18.594	-0.107	-0.065
-108.005	266.325	0.108	0.184
-106.991	-138.291	0.241	0.026
-105.976	179.800	0.173	-0.248
-104.962	800.000	0.136	-0.380
-103.947	57.172	0.096	0.092
-102.932	80.867	-0.240	0.253
-101.918	-109.516	-0.254	0.052
-100.903	-157.909	-0.175	0.010
-99.889	680.757	0.137	0.350
-98.874	444.578	-0.034	0.072
-97.859	-106.087	-0.079	0.017
-96.845	369.705	0.181	0.358
-95.830	112.569	-0.222	0.262
-94.816	-96.122	0.274	-0.071
-93.801	-200.000	0.039	-0.250
-92.786	-104.584	0.134	0.030
-91.772	-200.000	0.014	0.155
-90.757	-30.980	-0.126	0.070
-89.743	-107.970	-0.109	0.023
-88.728	651.704	-0.056	-0.141
-87.713	252.559	0.125	-0.208
-86.699	800.000	0.021	0.057
-85.684	148.948	0.156	-0.206
-84.670	4.324	0.205	-0.147
-83.655	-200.000	-0.054	-0.350
-82.640	15.297	-0.241	-0.185
-81.626	253.753	0.183	0.305
-80.611	-177.788	0.159	0.004
-79.597	84.489	-0.224	0.239
-78.582	800.000	-0.067	0.191
-77.567	-99.514	-0.102	-0.025
-76.553	489.319	-0.083	0.185
-75.538	49.489	-0.097	-0.089
-74.524	-200.000	0.034	-0.336
-73.509	-200.000	0.032	-0.438
-72.494	-43.725	-0.345	0.169
-71.480	-146.107	0.132	-0.011
-70.465	-63.873	-0.344	-0.137
-69.451	20.183	0.257	0.203
-68.436	-200.000	0.011	-0.285
-67.422	557.005	0.192	0.451
-66.407	590.150	0.044	-0.106
-65.392	-64.935	0.185	-0.073
-64.378	144.674	0.142	0.185
-63.363	-200.000	0.020	-0.160
-62.349	3.179	0.091	-0.065
-61.334	74.220	-1.016	-1.041
-60.319	41.688	0.877	0.775
-59.305	800.000	-0.359	-1.440
-58.290	461.699	0.494	1.074
-57.276	509.325	0.606	1.374
-56.261	-200.000	131.188	704.919
-55.246	382.329	1648.165	3302.877
-54.232	134.944	2794.347	3538.772
-53.217	94.991	2163.179	2400.695
-52.203	34.346	1589.503	1352.188
-51.188	25.873	1334.700	1084.638
-50.173	23.555	1296.925	1040.323
-49.159	52.530	1368.918	1274.185
-48.144	48.381	1379.668	1259.140
-47.130	26.005	1326.450	1078.550
-46.115	22.777	1307.058	1043.686
-45.100	22.541	1301.837	1038.086
-44.086	22.619	1299.114	1036.327
-43.071	22.471	1296.957	1033.699
-42.057	22.404	1294.725	1031.484
-41.042	22.468	1293.284	1030.673
-40.027	22.597	1291.290	1029.795
-39.013	22.551	1289.406	1027.983
-37.998	22.451	1288.207	1026.406
-36.984	22.562	1286.081	1025.313
-35.969	22.710	1284.239	1024.669
-34.954	22.516	1283.092	1022.588
-33.940	22.652	1281.239	1021.856
-32.925	22.611	1280.571	1021.043
-31.911	22.772	1278.387	1020.193
-30.896	22.739	1277.350	1019.138
-29.881	22.680	1276.454	1018.040
-28.867	22.742	1275.199	1017.357
-27.852	22.700	1273.626	1015.821
-26.838	22.915	1271.504	1015.322
-25.823	22.597	1271.224	1013.229
-24.809	22.793	1269.171	1012.681
-23.794	22.751	1267.961	1011.432
-22.779	22.693	1267.017	1010.308
-21.765	22.651	1265.642	1008.930
-20.750	22.782	1264.387	1008.637
-19.736	22.643	1263.203	1006.861
-18.721	22.732	1261.686	1006.118
-17.706	22.582	1260.347	1004.157
-16.692	22.600	1259.537	1003.575
-15.677	22.539	1258.731	1002.544
-14.663	22.556	1257.737	1001.808
-13.648	22.583	1256.370	1000.833
-12.633	22.519	1255.606	999.821
-11.619	22.566	1255.051	999.609
-10.604	22.487	1254.074	998.342
-9.590	22.468	1253.231	997.526
-8.575	22.514	1252.290	996.993
-7.560	22.615	1251.413	996.826
-6.546	22.632	1250.054	995.803
-5.531	22.571	1249.866	995.267
-4.517	22.575	1248.893	994.475
-3.502	22.522	1248.181	993.570
-2.487	22.653	1246.626	993.031
-1.473	22.511	1242.494	988.907
-0.458	20.612	1227.659	966.514
0.556	16.048	1211.438	928.326
1.571	12.241	1219.465	913.250
2.586	11.481	1234.542	920.176
3.600	11.652	1222.037	911.728
4.615	8.726	1152.194	844.140
5.629	3.268	1083.122	766.353
6.644	0.889	1066.935	743.165
7.659	0.686	1064.858	740.658
8.673	0.674	1064.521	740.298
9.688	0.751	1063.000	739.548
10.702	0.790	1060.988	738.278
11.717	4.214	1063.668	756.812
12.731	10.669	1072.895	795.007
13.746	15.694	1079.536	824.558
14.761	17.219	1081.152	833.205
15.775	16.506	1079.213	828.146
16.790	15.527	1077.109	821.672
17.804	14.990	1075.610	817.828
18.819	14.604	1074.470	815.007
19.834	14.447	1073.630	813.530
20.848	14.187	1072.574	811.392
21.863	13.789	1071.978	808.927
22.877	13.634	1071.431	807.688
23.892	13.695	1070.238	807.016
24.907	13.725	1069.489	806.524
25.921	13.764	1068.837	806.152
26.936	13.773	1068.128	805.591
27.950	13.801	1066.994	804.796
28.965	13.823	1066.089	804.150
29.980	13.792	1064.444	802.687
30.994	13.943	1063.246	802.444
32.009	13.859	1062.065	801.075
33.023	13.862	1061.542	800.627
34.038	13.855	1060.595	799.808
35.053	13.943	1059.469	799.309
36.067	13.867	1058.782	798.357
37.082	13.836	1057.869	797.449
38.096	13.962	1057.050	797.367
39.111	13.889	1055.955	796.117
40.126	13.781	1055.043	794.844
41.140	13.731	1053.965	793.721
42.155	13.718	1052.678	792.619
43.169	13.694	1052.189	792.065
44.184	13.675	1051.208	791.167
45.199	13.692	1049.844	790.152
46.213	13.707	1048.839	789.399
47.228	13.756	1048.066	788.979
48.242	13.753	1047.022	788.107
49.257	13.763	1045.625	787.035
50.271	13.773	1044.798	786.389
51.286	13.865	1043.444	785.737
52.301	13.881	1042.607	785.111
53.315	13.910	1041.852	784.612
54.330	13.745	1040.690	782.890
55.344	13.647	1040.295	782.061
56.359	13.719	1039.631	781.829
57.374	13.775	1038.737	781.354
58.388	13.615	1037.870	779.880
59.403	13.675	1037.163	779.560
60.417	13.764	1035.828	778.908
61.432	13.749	1034.923	778.087
62.447	13.642	1034.532	777.223
63.461	13.662	1033.629	776.570
64.476	13.635	1033.365	776.177
65.490	13.612	1032.409	775.281
66.505	13.584	1031.532	774.423
67.520	13.712	1030.762	774.374
68.534	13.727	1030.228	773.974
69.549	13.664	1029.578	773.123
70.563	13.587	1028.691	772.032
71.578	13.560	1027.361	770.840
72.593	13.548	1026.945	770.403
73.607	13.625	1026.303	770.209
74.622	13.647	1025.736	769.819
75.636	13.626	1024.894	769.023
76.651	13.635	1024.076	768.379
77.666	13.597	1023.751	767.893
78.680	13.566	1023.186	767.256
79.695	13.635	1022.299	766.843
80.709	13.622	1021.962	766.466
81.724	13.680	1020.956	765.908
82.739	13.860	1019.810	765.812
83.753	13.794	1019.518	765.219
84.768	13.825	1018.439	764.487
85.782	13.847	1017.732	763.988
86.797	13.831	1016.680	763.059
87.812	13.723	1015.952	761.946
88.826	13.818	1015.172	761.733
89.841	13.685	1014.212	760.334
90.855	13.819	1013.235	760.146
91.870	13.935	1012.249	759.872
92.884	13.914	1011.549	759.185
93.899	13.948	1010.690	758.626
94.914	13.930	1009.700	757.732
95.928	13.863	1009.619	757.301
96.943	13.882	1008.385	756.396
97.957	13.890	1007.610	755.781
98.972	13.870	1006.901	755.092
99.987	13.910	1005.439	754.110
101.001	13.885	1004.743	753.411
102.016	13.810	1003.712	752.231
103.030	13.866	1003.292	752.102
104.045	13.897	1002.020	751.222
105.060	13.743	1001.623	750.160
106.074	13.806	1000.792	749.758
107.089	13.667	999.665	748.219
108.103	13.812	998.516	747.948
109.118	13.766	997.607	746.994
110.133	13.746	996.379	745.916
111.147	13.879	995.805	746.018
112.162	13.838	995.273	745.372
113.176	13.922	994.229	744.902
114.191	13.876	993.934	744.405
115.206	13.909	992.810	743.646
116.220	13.812	992.313	742.773
117.235	13.890	991.014	742.086
118.249	13.864	990.307	741.375
119.264	13.755	990.054	740.632
120.279	13.890	989.076	740.436
121.293	13.787	987.988	739.097
122.308	13.802	987.382	738.646
123.322	13.853	986.263	737.969
124.337	13.771	985.005	736.599
125.352	13.793	983.957	735.847
126.366	13.938	982.408	735.268
127.381	13.759	981.753	733.922
128.395	13.874	980.901	733.727
129.410	13.924	979.991	733.200
130.424	13.838	979.248	732.203
131.439	13.829	978.182	731.300
132.454	13.963	977.644	731.422
133.468	13.861	977.247	730.610
134.483	13.954	975.526	729.670
135.497	13.865	974.912	728.756
136.512	13.878	973.979	728.053
137.527	13.866	973.546	727.611
138.541	13.820	972.848	726.821
139.556	13.839	972.177	726.341
140.570	13.801	971.673	725.733
141.585	13.951	970.206	725.230
142.600	14.013	969.377	724.814
143.614	14.061	968.669	724.431
144.629	14.005	967.762	723.443
145.643	14.055	966.747	722.838
146.658	14.049	965.494	721.811
147.673	13.966	964.919	720.956
148.687	14.016	964.387	720.712
149.702	13.994	963.409	719.825
150.716	14.084	962.500	719.468
151.731	14.037	961.968	718.807
152.746	13.911	961.162	717.596
153.760	14.089	960.414	717.743
154.775	14.042	959.896	717.090
155.789	14.143	959.413	717.098
156.804	14.061	958.578	716.060
157.819	14.184	957.797	715.942
158.833	14.287	956.865	715.625
159.848	14.245	956.070	714.784
160.862	14.222	955.348	714.086
161.877	14.174	954.437	713.132
162.892	14.153	953.868	712.558
163.906	14.198	952.324	711.532
164.921	14.129	951.857	710.826
165.935	14.292	950.597	710.519
166.950	14.146	950.039	709.413
167.964	14.140	948.993	708.545
168.979	14.323	948.223	708.685
169.994	14.284	947.734	708.093
171.008	14.167	947.229	707.155
172.023	14.324	946.165	706.964
173.037	14.488	945.125	706.822
174.052	14.274	944.901	705.682
175.067	14.185	944.292	704.789
176.081	14.272	944.262	705.072
177.096	14.342	943.062	704.410
178.110	14.321	942.578	703.897
179.125	14.261	941.950	703.114
180.140	14.249	941.793	702.881
181.154	14.473	940.841	703.053
182.169	14.377	940.734	702.508
183.183	14.297	940.257	701.754
184.198	14.582	938.384	701.490
185.213	14.513	938.301	701.077
186.227	14.429	937.818	700.300
187.242	14.377	937.106	699.490
188.256	14.541	936.488	699.654
189.271	14.447	935.632	698.558
190.286	14.323	935.147	697.617
191.300	14.328	934.651	697.205
192.315	14.315	933.737	696.408
193.329	14.264	933.153	695.696
194.344	14.426	932.471	695.805
195.359	14.422	931.788	695.216
196.373	14.527	931.196	695.151
197.388	14.487	930.599	694.474
198.402	14.579	930.285	694.562
199.417	14.656	929.672	694.365
200.432	14.612	928.901	693.545
201.446	14.590	928.874	693.372
202.461	14.750	928.219	693.486
203.475	14.714	927.354	692.628
204.490	14.741	926.569	692.091
205.504	14.745	925.981	691.607
206.519	14.693	925.267	690.800
207.534	14.598	924.698	689.921
208.548	14.704	923.732	689.577
209.563	14.728	923.164	689.189
210.577	14.722	922.312	688.468
211.592	14.730	921.753	688.024
212.607	14.812	920.795	687.586
213.621	14.910	919.790	687.178
214.636	14.922	919.455	686.914
215.650	14.842	919.108	686.264
216.665	14.994	918.005	686.003
217.680	14.776	917.921	684.988
218.694	14.817	916.848	684.292
219.709	15.032	915.916	684.416
220.723	14.940	915.828	683.914
221.738	14.931	915.034	683.226
222.753	14.968	914.100	682.616
223.767	15.059	913.648	682.591
224.782	15.073	912.555	681.769
225.796	15.192	912.067	681.830
226.811	15.010	911.795	680.828
227.826	15.036	910.874	680.183
228.840	14.983	910.532	679.651
229.855	15.011	909.381	678.849
230.869	15.073	908.342	678.263
231.884	15.141	907.591	677.916
232.899	14.875	907.843	676.971
233.913	14.974	907.067	676.731
234.928	14.952	906.281	675.993
235.942	15.027	905.974	676.009
236.957	15.052	904.853	675.212
237.972	15.112	904.519	675.146
238.986	15.146	903.510	674.470
240.001	14.968	903.317	673.551
241.015	15.089	902.836	673.619
242.030	15.206	901.718	673.198
243.045	15.252	901.038	672.813
244.059	15.218	900.545	672.249
245.074	15.187	900.041	671.691
246.088	15.228	899.409	671.321
247.103	15.317	898.511	670.949
248.117	15.257	898.384	670.553
249.132	15.403	897.561	670.463
250.147	15.401	897.043	670.010
251.161	15.518	896.120	669.726
252.176	15.559	895.471	669.345
253.190	15.487	894.973	668.629
254.205	15.674	894.325	668.830
255.220	15.379	893.745	667.164
256.234	15.583	892.840	667.238
257.249	15.625	892.053	666.761
258.263	15.579	891.490	666.097
259.278	15.556	890.931	665.530
260.293	15.601	890.044	664.986
261.307	15.632	889.822	664.884
262.322	15.773	889.203	664.918
263.336	15.588	888.609	663.686
264.351	15.757	887.457	663.433
265.366	15.754	886.945	662.980
266.380	15.832	886.285	662.735
267.395	15.727	885.941	662.005
268.409	15.721	884.754	661.036
269.424	15.790	883.824	660.555
270.439	15.822	883.232	660.180
271.453	15.703	882.840	659.361
272.468	15.817	882.159	659.238
273.482	15.743	881.836	658.653
274.497	15.700	881.489	658.166
275.512	15.805	880.503	657.783
276.526	15.734	880.368	657.344
277.541	15.801	879.970	657.250
278.555	15.919	878.709	656.711
279.570	16.017	878.221	656.672
280.585	15.978	877.383	655.834
281.599	15.985	876.762	655.338
282.614	15.820	876.252	654.258
283.628	15.969	875.782	654.430
284.643	15.862	875.010	653.380
285.657	15.907	874.456	653.080
286.672	15.995	873.683	652.787
287.687	16.138	872.810	652.629
288.701	15.949	872.554	651.652
289.716	16.063	871.875	651.525
290.730	16.022	871.464	651.002
291.745	16.103	870.673	650.669
292.760	16.154	869.776	650.134
293.774	16.208	869.284	649.918
294.789	16.184	868.744	649.365
295.803	16.172	868.097	648.777
296.818	16.230	866.872	648.028
297.833	16.106	867.003	647.592
298.847	16.227	865.830	647.124
299.862	16.174	865.215	646.402
300.876	16.209	865.219	646.482
301.891	16.383	864.179	646.314
302.906	16.237	863.739	645.370
303.920	16.405	863.143	645.511
304.935	16.353	862.688	644.912
305.949	16.465	861.793	644.614
306.964	16.368	861.294	643.813
307.979	16.523	860.901	644.053
308.993	16.427	860.413	643.264
310.008	16.450	860.022	643.004
311.022	16.640	858.854	642.796
312.037	16.400	858.922	641.877
313.052	16.446	858.027	641.328
314.066	16.405	857.631	640.817
315.081	16.383	857.134	640.309
316.095	16.474	856.300	639.973
317.110	16.500	855.652	639.532
318.125	16.418	855.454	639.014
319.139	16.481	854.915	638.795
320.154	16.515	854.317	638.418
321.168	16.631	853.988	638.556
322.183	16.445	853.335	637.308
323.197	16.556	852.597	637.119
324.212	16.527	852.377	636.791
325.227	16.581	851.642	636.386
326.241	16.662	850.695	635.929
327.256	16.612	850.286	635.377
328.270	16.489	850.133	634.745
329.285	16.513	849.261	634.130
330.300	16.666	848.484	634.066
331.314	16.697	847.972	633.742
332.329	16.656	847.464	633.152
333.343	16.553	847.670	632.867
334.358	16.628	846.539	632.247
335.373	16.750	846.190	632.385
336.387	16.780	846.118	632.386
337.402	16.687	845.900	631.820
338.416	16.817	845.161	631.698
339.431	16.727	844.925	631.130
340.446	16.732	844.707	630.930
341.460	16.807	844.266	630.825
342.475	16.998	843.634	631.005
343.489	17.085	842.643	630.532
344.504	16.925	842.823	630.017
345.519	17.037	842.436	630.086
346.533	16.925	841.814	629.151
347.548	16.824	841.483	628.473
348.562	16.943	840.997	628.497
349.577	16.890	840.160	627.617
350.592	16.995	839.633	627.559
351.606	16.963	838.906	626.840
352.621	16.999	838.037	626.270
353.635	16.913	837.436	625.446
354.650	17.051	836.437	625.155
355.665	17.068	835.905	624.762
356.679	17.108	835.440	624.508
357.694	17.027	835.146	623.937
358.708	17.115	834.664	623.843
359.723	17.238	833.792	623.588
360.738	17.120	833.318	622.745
361.752	17.123	832.729	622.260
362.767	17.153	832.086	621.836
363.781	17.134	831.920	621.587
364.796	17.222	831.234	621.340
365.810	17.271	830.709	621.073
366.825	17.325	830.080	620.745
367.840	17.316	829.871	620.498
368.854	17.217	829.389	619.725
369.869	17.371	829.011	619.946
370.883	17.313	828.499	619.300
371.898	17.494	828.188	619.669
372.913	17.479	827.560	619.090
373.927	17.480	827.095	618.691
374.942	17.487	826.892	618.512
375.956	17.516	826.460	618.239
376.971	17.575	825.863	617.950
377.986	17.615	825.184	617.535
379.000	17.745	824.834	617.687
380.015	17.602	824.300	616.717
381.029	17.693	823.601	616.467
382.044	17.500	823.103	615.341
383.059	17.607	822.450	615.187
384.073	17.685	822.134	615.178
385.088	17.839	821.627	615.297
386.102	17.577	821.034	613.855
387.117	17.576	820.547	613.432
388.132	17.692	819.885	613.302
389.146	17.711	819.444	612.985
390.161	17.836	818.780	612.885
391.175	17.787	818.558	612.488
392.190	17.717	817.715	611.552
393.205	17.688	817.661	611.353
394.219	17.720	817.151	611.032
395.234	17.525	817.041	610.198
396.248	17.599	816.331	609.877
397.263	17.664	815.953	609.775
398.278	17.624	815.501	609.238
399.292	17.773	815.223	609.509
400.307	17.617	815.100	608.808
401.321	17.623	814.324	608.196
402.336	17.821	813.675	608.361
403.350	17.900	813.237	608.261
404.365	17.857	812.608	607.586
405.380	17.897	812.165	607.343
406.394	17.836	812.101	607.024
407.409	17.975	811.301	606.868
408.423	18.030	810.993	606.779
409.438	18.058	810.497	606.454
410.453	18.097	809.956	606.133
411.467	18.114	809.630	605.895
412.482	18.034	809.273	605.290
413.496	18.124	809.050	605.388
414.511	18.183	808.441	605.088
415.526	18.162	808.223	604.798
416.540	18.033	807.724	603.915
417.555	18.173	806.978	603.798
418.569	18.108	806.990	603.525
419.584	18.007	806.768	602.948
420.599	18.222	805.922	603.018
421.613	116.016	1299.420	1491.454
422.628	100.291	1371.271	1491.515
