DTS Sentinel unit serial number:	SN413079Multiplexer serial number:	ORYXHardware model number:	OX4-SRSoftware version number:	ORYX F/W v4.00 Oryx Data Collector v3.7.2.0data status	okinstallation	princeton_trtdifferential loss correction	single-endedforward channel	channel 1reverse channel	N/Adate	2019/09/15time	09:30:35forward acquisition time	60.00reverse acquisition time	0.00gamma	496.2192k internal	0.2311k external	0.2311temperature offset calibration	0.9979default loss term (dB/km)	0.3790temperature slope calibration	1.0000multiplexer offset coefficient	1.0000multiplexer slope coefficient	1.0000fibre end	0.00T internal ref (°C)	33.75T ext. ref 1 (°C)	4.95T ext. ref 2 (°C)	30.17length (m)	temperature (°C)	Stokes	anti-Stokes-747.200	-200.000	0.039	-0.204
-746.185	105.707	-0.143	0.172
-745.171	-200.000	0.001	-0.231
-744.156	-140.543	-0.162	-0.017
-743.142	-19.994	-0.450	0.282
-742.127	224.102	-0.053	0.087
-741.112	796.586	0.062	-0.173
-740.098	-38.279	-0.381	0.205
-739.083	245.626	-0.098	-0.167
-738.069	2.949	-0.136	-0.100
-737.054	-200.000	0.017	-0.152
-736.039	336.612	-0.093	0.183
-735.025	-184.836	-0.427	-0.007
-734.010	-13.502	-0.166	-0.109
-732.996	-6.819	-0.460	0.317
-731.981	207.641	-0.169	-0.267
-730.966	-2.798	-0.136	0.096
-729.952	77.950	-0.287	-0.310
-728.937	-115.670	-0.163	-0.031
-727.923	175.148	0.136	-0.199
-726.908	669.444	0.038	-0.099
-725.894	18.271	-0.287	-0.232
-724.879	262.400	0.095	0.168
-723.864	73.413	-0.122	0.130
-722.850	-149.247	-0.294	-0.024
-721.835	133.699	-0.059	0.077
-720.821	48.222	-0.202	0.191
-719.806	-126.235	0.073	-0.011
-718.791	719.083	-0.169	0.455
-717.777	-200.000	0.006	0.052
-716.762	-200.000	0.007	0.074
-715.748	-153.385	0.196	0.014
-714.733	43.825	0.317	0.294
-713.718	8.774	-0.282	-0.216
-712.704	-41.725	-0.166	-0.086
-711.689	-24.454	0.077	-0.047
-710.675	800.000	0.039	0.122
-709.660	297.161	-0.082	-0.153
-708.645	-200.000	0.017	0.206
-707.631	-200.000	-0.036	-0.231
-706.616	-200.000	-0.108	0.510
-705.602	-146.275	0.085	0.008
-704.587	13.426	-0.215	0.169
-703.572	200.820	0.196	0.305
-702.558	45.103	0.312	-0.291
-701.543	17.305	-0.105	-0.084
-700.529	-107.229	0.113	0.025
-699.514	-200.000	0.004	-0.231
-698.499	800.000	-0.037	0.138
-697.485	252.479	-0.139	0.239
-696.470	-113.313	0.102	-0.020
-695.456	8.998	0.098	0.075
-694.441	195.812	0.285	-0.440
-693.426	-200.000	-0.035	-0.307
-692.412	81.541	-0.063	0.069
-691.397	419.453	-0.191	-0.414
-690.383	75.848	0.216	-0.232
-689.368	-200.000	-0.020	0.096
-688.354	-102.762	0.065	-0.016
-687.339	-148.104	0.232	-0.019
-686.324	-58.561	0.085	-0.037
-685.310	800.000	0.024	-0.090
-684.295	-200.000	0.013	-0.146
-683.281	-153.168	-0.255	-0.018
-682.266	227.812	0.074	-0.122
-681.251	8.361	-0.195	-0.149
-680.237	800.000	-0.072	-0.255
-679.222	-61.710	-0.186	0.079
-678.208	10.335	-0.094	0.073
-677.193	-162.070	-0.161	-0.008
-676.178	-173.505	0.114	-0.003
-675.164	720.952	-0.196	-0.527
-674.149	-66.442	-0.014	0.006
-673.135	-78.746	-0.023	0.008
-672.120	-200.000	-0.003	-0.116
-671.105	-200.000	0.020	0.177
-670.091	-174.545	-0.115	-0.003
-669.076	-64.674	-0.235	0.097
-668.062	-82.752	-0.242	0.079
-667.047	-200.000	-0.020	-0.411
-666.032	60.723	0.155	-0.156
-665.018	-200.000	-0.007	-0.075
-664.003	-32.805	-0.271	-0.153
-662.989	58.613	-0.166	-0.165
-661.974	56.524	0.119	-0.117
-660.959	191.395	0.060	0.092
-659.945	174.480	0.025	-0.036
-658.930	-85.916	-0.148	0.046
-657.916	-169.615	-0.179	-0.007
-656.901	6.562	0.118	-0.089
-655.886	109.129	-0.026	0.031
-654.872	-200.000	0.005	-0.193
-653.857	351.245	-0.028	-0.056
-652.843	-7.811	0.127	0.087
-651.828	-108.108	-0.216	-0.047
-650.814	-26.966	-0.157	-0.093
-649.799	-31.810	0.214	0.121
-648.784	-91.762	0.474	-0.136
-647.770	-200.000	0.020	-0.269
-646.755	153.347	-0.254	-0.351
-645.741	27.805	-0.362	-0.308
-644.726	800.000	0.050	-0.193
-643.711	800.000	-0.086	-0.250
-642.697	-46.879	-0.148	0.073
-641.682	-200.000	-0.037	0.164
-640.668	800.000	0.107	0.391
-639.653	800.000	0.115	-0.332
-638.638	82.015	0.101	0.111
-637.624	0.893	0.073	0.053
-636.609	-200.000	-0.035	0.210
-635.595	-182.610	0.101	0.002
-634.580	800.000	0.086	0.314
-633.565	83.500	0.119	-0.131
-632.551	-200.000	-0.003	-0.100
-631.536	-43.761	0.194	-0.099
-630.522	-34.709	0.102	-0.056
-629.507	532.740	-0.097	-0.233
-628.492	800.000	-0.046	-0.169
-627.478	-200.000	-0.009	-0.224
-626.463	-200.000	0.003	0.020
-625.449	-200.000	-0.008	0.138
-624.434	-82.851	0.356	0.116
-623.419	109.130	0.109	-0.132
-622.405	392.252	0.145	0.306
-621.390	61.306	0.240	0.241
-620.376	-177.628	0.496	-0.012
-619.361	800.000	0.104	0.297
-618.346	-200.000	0.028	0.281
-617.332	-200.000	0.008	0.132
-616.317	65.247	0.250	0.256
-615.303	800.000	0.019	0.074
-614.288	-58.404	-0.412	0.181
-613.273	608.373	0.069	0.174
-612.259	-200.000	0.013	-0.109
-611.244	8.815	-0.157	0.120
-610.230	-93.652	-0.248	0.069
-609.215	781.413	0.077	0.213
-608.201	35.521	-0.096	-0.085
-607.186	-70.804	0.207	-0.079
-606.171	-127.973	0.232	0.034
-605.157	-110.043	-0.120	-0.025
-604.142	-200.000	-0.021	0.261
-603.128	680.198	-0.080	0.210
-602.113	54.300	-0.180	-0.175
-601.098	-52.533	-0.134	-0.062
-600.084	127.980	0.128	0.164
-599.069	-200.000	-0.096	0.436
-598.055	66.967	0.111	-0.114
-597.040	-181.463	0.184	-0.004
-596.025	-35.831	0.312	-0.170
-595.011	-200.000	-0.034	-0.372
-593.996	-10.573	0.333	-0.222
-592.982	25.352	-0.344	-0.289
-591.967	-70.043	0.131	-0.050
-590.952	579.381	-0.046	-0.113
-589.938	800.000	0.079	-0.222
-588.923	-200.000	-0.013	-0.198
-587.909	-200.000	0.039	-0.336
-586.894	458.114	-0.124	0.278
-585.879	800.000	0.031	0.098
-584.865	12.437	0.123	-0.096
-583.850	-27.078	0.055	-0.032
-582.836	350.870	0.155	0.309
-581.821	58.894	-0.091	-0.091
-580.806	30.805	-0.214	0.185
-579.792	46.354	-0.112	-0.105
-578.777	9.231	0.154	-0.117
-577.763	-200.000	-0.018	-0.127
-576.748	49.947	0.142	-0.135
-575.733	-51.689	0.236	0.111
-574.719	800.000	0.064	0.205
-573.704	97.675	0.160	0.186
-572.690	-200.000	-0.015	0.291
-571.675	-188.283	-0.175	-0.002
-570.661	259.433	-0.021	0.036
-569.646	-48.783	-0.364	-0.176
-568.631	-7.286	-0.083	0.057
-567.617	111.095	0.177	0.215
-566.602	84.312	0.159	-0.175
-565.588	-0.589	-0.100	-0.071
-564.573	54.416	-0.054	-0.053
-563.558	800.000	0.054	0.158
-562.544	-39.367	0.359	0.190
-561.529	-130.626	0.056	-0.008
-560.515	-200.000	-0.019	-0.347
-559.500	-53.533	-0.420	0.194
-558.485	-200.000	0.010	0.099
-557.471	-66.007	-0.043	0.017
-556.456	-53.565	-0.327	-0.151
-555.442	124.250	-0.055	-0.069
-554.427	129.077	0.154	0.197
-553.412	418.692	-0.060	-0.130
-552.398	84.085	0.117	-0.129
-551.383	-200.000	0.012	-0.141
-550.369	-200.000	-0.004	0.200
-549.354	-200.000	-0.020	-0.140
-548.339	-122.132	-0.363	0.060
-547.325	-77.303	0.148	0.052
-546.310	800.000	-0.099	-0.299
-545.296	-101.971	-0.392	0.095
-544.281	74.929	-0.221	0.234
-543.266	331.056	0.083	-0.161
-542.252	-25.159	0.118	-0.070
-541.237	-102.698	0.151	0.036
-540.223	-59.954	-0.066	-0.029
-539.208	273.975	-0.057	0.102
-538.193	-200.000	-0.101	0.527
-537.179	487.367	-0.048	-0.111
-536.164	-95.857	0.097	0.026
-535.150	-200.000	0.005	0.080
-534.135	77.076	0.050	0.054
-533.121	-77.521	-0.075	-0.026
-532.106	-9.113	-0.120	0.081
-531.091	-145.756	-0.257	-0.023
-530.077	-75.065	-0.206	-0.074
-529.062	-161.464	-0.438	0.023
-528.048	-57.047	-0.323	0.143
-527.033	-77.072	-0.165	-0.058
-526.018	-90.741	-0.248	0.072
-525.004	-200.000	0.045	0.301
-523.989	800.000	-0.065	-0.195
-522.975	-57.797	0.016	0.007
-521.960	-200.000	-0.026	0.146
-520.945	196.606	-0.108	0.166
-519.931	242.366	0.177	-0.298
-518.916	342.504	0.159	0.313
-517.902	-200.000	0.032	-0.202
-516.887	295.242	0.185	-0.341
-515.872	-38.875	-0.359	0.191
-514.858	268.981	0.122	-0.216
-513.843	-102.369	0.264	0.064
-512.829	159.539	-0.055	-0.077
-511.814	-200.000	-0.028	-0.130
-510.799	-200.000	0.482	-0.000
-509.785	59.620	-0.103	0.102
-508.770	-200.000	0.050	-0.348
-507.756	134.917	0.158	-0.206
-506.741	-58.494	0.314	-0.137
-505.726	141.735	-0.126	-0.167
-504.712	237.561	-0.066	-0.110
-503.697	81.393	-0.105	-0.114
-502.683	331.532	-0.042	-0.082
-501.668	-0.376	0.139	-0.099
-500.653	162.346	0.015	-0.022
-499.639	-89.587	-0.330	-0.097
-498.624	87.402	-0.177	-0.197
-497.610	-41.960	-0.122	-0.063
-496.595	-59.105	0.190	-0.082
-495.581	132.407	-0.265	-0.343
-494.566	372.451	0.057	-0.116
-493.551	21.398	0.251	0.205
-492.537	-42.752	-0.158	0.081
-491.522	308.639	-0.107	0.200
-490.508	-200.000	-0.039	0.182
-489.493	590.084	-0.060	-0.148
-488.478	477.662	0.090	-0.204
-487.464	-123.581	0.118	-0.019
-486.449	-133.988	0.130	-0.016
-485.435	131.335	0.136	-0.176
-484.420	10.559	0.061	0.047
-483.405	-100.878	-0.310	0.077
-482.391	-200.000	0.023	-0.198
-481.376	64.801	0.385	-0.390
-480.362	45.787	-0.161	0.150
-479.347	79.123	0.059	-0.064
-478.332	-64.025	-0.255	-0.105
-477.318	-41.665	-0.255	0.132
-476.303	82.682	0.091	0.099
-475.289	-56.457	0.106	-0.047
-474.274	84.445	0.123	-0.136
-473.259	-44.953	0.206	-0.103
-472.245	78.347	0.025	0.026
-471.230	162.735	-0.158	-0.223
-470.216	22.266	-0.265	0.217
-469.201	-200.000	0.002	-0.133
-468.186	-45.908	-0.153	-0.076
-467.172	20.378	-0.119	-0.096
-466.157	-200.000	0.022	-0.116
-465.143	-60.379	-0.398	-0.170
-464.128	482.236	-0.057	0.130
-463.113	9.769	-0.246	0.187
-462.099	-143.924	-0.179	-0.017
-461.084	-136.144	-0.359	0.042
-460.070	-200.000	0.019	0.158
-459.055	-160.619	-0.259	-0.014
-458.040	800.000	0.045	0.185
-457.026	-200.000	-0.055	-0.275
-456.011	7.894	0.345	0.260
-454.997	800.000	-0.090	-0.322
-453.982	55.778	-0.203	-0.198
-452.968	66.472	-0.054	-0.055
-451.953	333.144	-0.146	-0.284
-450.938	93.978	0.220	-0.250
-449.924	-200.000	-0.056	-0.414
-448.909	-97.846	0.240	0.062
-447.895	466.045	0.156	0.351
-446.880	245.225	0.045	0.077
-445.865	90.247	0.044	0.049
-444.851	196.629	0.052	0.079
-443.836	-101.000	0.084	-0.021
-442.822	89.022	-0.103	-0.115
-441.807	750.246	-0.077	0.209
-440.792	-200.000	0.020	-0.162
-439.778	-200.000	-0.018	-0.105
-438.763	-39.687	-0.330	-0.173
-437.749	68.400	-0.099	0.102
-436.734	800.000	-0.048	-0.137
-435.719	-52.634	0.306	0.142
-434.705	-200.000	0.001	0.343
-433.690	8.651	-0.126	0.095
-432.676	-129.987	-0.159	0.022
-431.661	-200.000	-0.031	-0.176
-430.646	-58.329	0.181	0.079
-429.632	159.204	0.149	-0.208
-428.617	-3.124	0.080	0.056
-427.603	117.762	-0.096	0.119
-426.588	-200.000	0.015	0.368
-425.573	800.000	-0.123	0.356
-424.559	-33.470	0.102	0.056
-423.544	-61.751	-0.184	0.077
-422.530	75.429	-0.178	0.188
-421.515	256.710	-0.166	-0.285
-420.500	57.537	-0.069	-0.068
-419.486	-112.366	-0.176	0.035
-418.471	163.175	-0.193	0.272
-417.457	66.882	0.109	-0.112
-416.442	800.000	-0.044	-0.184
-415.428	-86.712	-0.134	-0.041
-414.413	-200.000	-0.004	-0.056
-413.398	58.973	-0.145	-0.143
-412.384	160.971	-0.051	-0.072
-411.369	800.000	-0.060	-0.227
-410.355	100.887	-0.131	0.153
-409.340	11.024	0.192	0.147
-408.325	125.783	-0.178	0.225
-407.311	-200.000	-0.048	0.420
-406.296	-200.000	-0.026	-0.223
-405.282	45.853	0.214	0.198
-404.267	-200.000	0.011	0.145
-403.252	-200.000	0.035	0.282
-402.238	-49.005	0.180	-0.086
-401.223	-148.342	0.128	-0.011
-400.209	-103.194	-0.319	0.076
-399.194	-200.000	-0.064	0.298
-398.179	-150.611	0.057	0.004
-397.165	21.792	0.051	0.041
-396.150	800.000	0.077	0.225
-395.136	-200.000	0.029	0.262
-394.121	800.000	-0.113	-0.371
-393.106	-142.790	0.338	0.033
-392.092	156.325	-0.091	0.126
-391.077	-200.000	-0.046	0.266
-390.063	197.793	-0.100	-0.153
-389.048	-130.482	0.283	-0.038
-388.033	252.532	-0.244	0.416
-387.019	71.390	0.149	-0.155
-386.004	-200.000	-0.003	0.068
-384.990	800.000	-0.156	-0.441
-383.975	-114.245	0.303	0.059
-382.960	-200.000	-0.056	0.432
-381.946	288.009	0.146	0.264
-380.931	134.473	-0.009	0.012
-379.917	-200.000	-0.003	0.153
-378.902	118.724	0.049	-0.060
-377.888	-120.670	0.270	0.046
-376.873	-200.000	0.049	-0.241
-375.858	132.750	-0.088	-0.113
-374.844	358.918	-0.159	0.317
-373.829	11.218	0.209	0.160
-372.815	-56.028	-0.330	-0.147
-371.800	-123.861	0.298	-0.047
-370.785	-38.535	0.057	-0.030
-369.771	-6.729	0.230	-0.157
-368.756	-160.463	0.363	-0.019
-367.742	3.814	-0.131	0.096
-366.727	-200.000	-0.024	0.146
-365.712	-128.698	0.184	-0.026
-364.698	-170.654	0.137	0.005
-363.683	-32.583	0.147	-0.082
-362.669	269.196	0.042	-0.074
-361.654	-79.149	-0.239	0.081
-360.639	37.082	-0.219	-0.193
-359.625	539.439	0.068	-0.161
-358.610	725.951	-0.047	0.125
-357.596	134.509	0.167	0.217
-356.581	-200.000	-0.038	-0.246
-355.566	-200.000	0.025	-0.236
-354.552	-109.919	0.415	0.087
-353.537	297.430	0.145	0.267
-352.523	-86.442	0.145	0.045
-351.508	-74.074	0.201	-0.073
-350.493	366.735	0.071	0.143
-349.479	-98.197	0.127	-0.033
-348.464	67.693	0.126	-0.129
-347.450	800.000	0.031	0.099
-346.435	-200.000	0.003	0.129
-345.420	800.000	-0.021	0.091
-344.406	-34.663	-0.392	-0.215
-343.391	160.441	0.168	-0.234
-342.377	22.525	0.183	0.150
-341.362	-91.681	-0.245	-0.070
-340.348	-118.931	0.351	-0.062
-339.333	306.644	-0.066	0.123
-338.318	149.472	0.219	0.297
-337.304	-61.411	0.141	-0.059
-336.289	-63.696	0.216	0.088
-335.275	13.762	0.121	-0.094
-334.260	-200.000	-0.018	-0.199
-333.245	-132.147	0.381	0.049
-332.231	-89.540	0.093	0.027
-331.216	-173.518	-0.175	-0.005
-330.202	-94.917	-0.176	0.048
-329.187	800.000	0.103	-0.299
-328.172	-34.102	0.203	0.111
-327.158	-20.015	-0.133	-0.082
-326.143	6.229	-0.233	0.173
-325.129	-15.300	-0.054	-0.035
-324.114	800.000	0.103	0.338
-323.099	800.000	-0.022	0.072
-322.085	302.515	-0.164	0.303
-321.070	62.401	-0.124	0.124
-320.056	-179.460	-0.128	0.003
-319.041	49.341	-0.091	0.086
-318.026	-112.642	-0.200	0.040
-317.012	64.448	-0.015	0.016
-315.997	-200.000	-0.010	-0.239
-314.983	32.820	0.090	-0.078
-313.968	48.366	-0.205	0.191
-312.953	513.033	0.048	0.111
-311.939	58.799	0.101	0.099
-310.924	74.794	0.163	0.171
-309.910	299.680	0.140	-0.257
-308.895	-73.388	0.125	-0.045
-307.880	300.092	0.054	-0.099
-306.866	147.805	0.104	-0.140
-305.851	7.292	-0.110	-0.082
-304.837	-40.165	-0.319	-0.166
-303.822	800.000	0.059	0.250
-302.807	800.000	0.036	0.126
-301.793	800.000	-0.118	0.352
-300.778	-200.000	0.026	0.139
-299.764	-44.641	-0.102	0.051
-298.749	211.550	0.145	0.227
-297.735	-104.552	-0.208	-0.048
-296.720	94.347	0.240	0.272
-295.705	-64.619	0.250	-0.101
-294.691	-15.826	-0.163	0.104
-293.676	-65.376	0.115	-0.046
-292.662	-200.000	-0.020	0.229
-291.647	-60.649	-0.106	0.045
-290.632	-3.488	-0.191	-0.132
-289.618	-27.094	-0.054	0.032
-288.603	-15.549	0.123	-0.078
-287.589	-135.467	0.300	-0.036
-286.574	8.269	0.280	-0.210
-285.559	-28.094	-0.251	0.145
-284.545	167.478	0.113	0.160
-283.530	-29.601	-0.302	-0.172
-282.516	14.831	0.177	-0.138
-281.501	800.000	0.097	0.294
-280.486	-200.000	-0.041	0.268
-279.472	-172.905	0.298	-0.009
-278.457	198.523	0.069	-0.106
-277.443	800.000	-0.053	-0.149
-276.428	-101.889	0.461	-0.111
-275.413	-80.508	-0.257	0.086
-274.399	800.000	0.021	-0.076
-273.384	-93.701	0.198	0.054
-272.370	142.612	0.088	-0.117
-271.355	-53.177	0.077	-0.035
-270.340	-200.000	0.001	0.172
-269.326	59.793	0.336	0.331
-268.311	-48.429	-0.086	-0.041
-267.297	309.826	-0.019	0.035
-266.282	-66.923	0.163	0.064
-265.267	143.312	-0.053	0.070
-264.253	-73.940	-0.222	0.080
-263.238	136.810	-0.159	-0.207
-262.224	436.594	0.115	0.250
-261.209	-100.585	-0.320	0.079
-260.195	-142.547	-0.180	0.018
-259.180	-200.000	0.032	-0.294
-258.165	800.000	0.011	0.036
-257.151	-182.970	0.091	0.002
-256.136	91.033	0.194	-0.217
-255.122	36.896	-0.035	-0.031
-254.107	-64.868	-0.288	0.116
-253.092	1.326	-0.246	-0.176
-252.078	77.397	-0.111	0.118
-251.063	-128.452	-0.127	-0.018
-250.049	10.242	0.117	-0.089
-249.034	146.153	0.103	-0.138
-248.019	-200.000	0.020	0.364
-247.005	-169.401	0.077	-0.003
-245.990	2.799	-0.212	-0.153
-244.976	-31.769	0.119	-0.066
-243.961	349.850	0.061	-0.120
-242.946	-29.486	-0.207	-0.118
-241.932	-200.000	-0.004	0.069
-240.917	-18.288	-0.036	0.023
-239.903	-81.262	0.204	-0.067
-238.888	800.000	-0.016	-0.050
-237.873	-107.705	0.009	0.002
-236.859	800.000	-0.026	-0.083
-235.844	210.883	-0.054	-0.085
-234.830	132.265	-0.102	-0.131
-233.815	-124.011	-0.334	0.052
-232.800	-200.000	-0.051	-0.248
-231.786	800.000	-0.047	-0.156
-230.771	-85.909	-0.188	0.058
-229.757	-200.000	0.103	0.000
-228.742	216.199	-0.058	0.092
-227.727	-114.500	0.129	0.025
-226.713	-9.167	0.073	0.048
-225.698	-142.276	-0.090	-0.009
-224.684	-159.293	-0.199	0.011
-223.669	-200.000	0.027	-0.230
-222.655	-73.461	-0.114	-0.042
-221.640	420.866	0.144	-0.308
-220.625	353.980	-0.170	-0.336
-219.611	-83.722	-0.220	-0.070
-218.596	-109.424	0.076	-0.016
-217.582	-60.072	-0.213	-0.091
-216.567	-97.893	-0.143	-0.037
-215.552	-200.000	-0.002	-0.183
-214.538	73.175	-0.138	-0.143
-213.523	-85.464	0.135	0.042
-212.509	390.409	0.089	-0.183
-211.494	83.216	-0.151	0.163
-210.479	248.724	0.108	0.181
-209.465	-112.359	-0.088	-0.018
-208.450	-45.058	-0.152	-0.075
-207.436	-166.184	0.160	-0.007
-206.421	38.932	-0.157	-0.139
-205.406	-200.000	-0.011	0.051
-204.392	-100.210	-0.217	-0.054
-203.377	384.214	0.089	-0.182
-202.363	-200.000	0.013	0.094
-201.348	-200.000	-0.068	-0.302
-200.333	562.055	-0.126	-0.304
-199.319	800.000	0.027	-0.083
-198.304	2.988	-0.069	-0.050
-197.290	36.892	0.152	-0.134
-196.275	-71.526	-0.069	0.026
-195.260	-200.000	0.005	-0.049
-194.246	55.380	0.207	0.199
-193.231	179.611	-0.188	0.273
-192.217	-70.964	0.260	-0.097
-191.202	-200.000	-0.002	-0.053
-190.187	-75.824	-0.202	0.071
-189.173	766.572	-0.027	0.074
-188.158	-200.000	0.030	-0.434
-187.144	48.721	0.192	0.179
-186.129	182.673	0.134	0.197
-185.114	-200.000	-0.005	0.098
-184.100	-7.715	0.262	-0.176
-183.085	544.654	0.060	-0.142
-182.071	-127.912	0.299	0.043
-181.056	-84.814	0.074	-0.023
-180.042	121.806	0.283	-0.351
-179.027	-81.932	0.146	0.047
-178.012	-72.873	0.273	0.100
-176.998	161.332	-0.152	0.212
-175.983	-65.227	-0.137	-0.055
-174.969	-200.000	-0.025	-0.376
-173.954	-200.000	0.025	0.478
-172.939	13.196	0.227	-0.174
-171.925	643.295	-0.080	-0.202
-170.910	179.021	-0.204	0.296
-169.896	87.251	-0.062	-0.068
-168.881	-61.006	0.420	0.176
-167.866	-200.000	-0.005	-0.143
-166.852	-200.000	-0.011	0.115
-165.837	-73.172	-0.328	-0.119
-164.823	36.771	0.147	0.129
-163.808	-52.968	0.205	0.094
-162.793	-16.828	-0.117	-0.073
-161.779	115.215	-0.083	-0.100
-160.764	800.000	-0.027	-0.084
-159.750	-140.762	-0.461	-0.047
-158.735	319.273	0.138	0.260
-157.720	4.790	-0.189	0.138
-156.706	800.000	-0.106	0.345
-155.691	-200.000	-0.034	0.228
-154.677	1.686	0.048	-0.034
-153.662	71.079	-0.304	-0.313
-152.647	642.576	0.045	0.114
-151.633	-200.000	0.028	0.188
-150.618	177.526	-0.036	0.052
-149.604	-144.979	-0.400	0.036
-148.589	270.322	0.121	0.212
-147.574	-200.000	-0.013	-0.093
-146.560	3.444	-0.308	-0.223
-145.545	-33.632	-0.183	-0.100
-144.531	59.876	0.112	-0.109
-143.516	245.474	0.038	-0.063
-142.502	144.603	-0.394	0.523
-141.487	381.976	0.037	-0.076
-140.472	-200.000	0.023	-0.116
-139.458	289.201	-0.097	-0.174
-138.443	-200.000	0.029	-0.189
-137.429	-200.000	0.059	-0.426
-136.414	-102.031	-0.218	-0.052
-135.399	-31.745	0.224	-0.125
-134.385	542.211	-0.185	0.436
-133.370	-25.862	0.294	-0.172
-132.356	190.023	0.047	0.070
-131.341	-94.997	-0.214	0.057
-130.326	-63.800	0.076	-0.031
-129.312	800.000	-0.100	-0.392
-128.297	1.938	0.076	-0.054
-127.283	-159.091	-0.305	-0.017
-126.268	-69.199	-0.225	0.086
-125.253	26.637	0.115	0.095
-124.239	-200.000	-0.018	0.179
-123.224	-171.916	-0.276	0.009
-122.210	-16.594	-0.344	0.216
-121.195	304.062	0.194	-0.357
-120.180	-200.000	0.022	-0.106
-119.166	-96.746	-0.280	0.073
-118.151	294.461	-0.033	0.060
-117.137	-200.000	-0.022	-0.128
-116.122	80.070	-0.135	-0.144
-115.107	-200.000	0.003	0.176
-114.093	-104.267	-0.170	-0.039
-113.078	-89.517	0.307	-0.089
-112.064	182.776	-0.088	0.129
-111.049	-200.000	0.105	-0.457
-110.034	-55.686	0.180	-0.080
-109.020	224.396	0.145	0.232
-108.005	118.629	0.013	-0.016
-106.991	158.716	0.084	0.116
-105.976	192.414	0.103	0.155
-104.962	-25.031	0.116	0.068
-103.947	83.370	0.213	0.229
-102.932	-200.000	-0.014	0.066
-101.918	-200.000	0.003	0.115
-100.903	408.733	-0.056	0.117
-99.889	800.000	-0.168	0.484
-98.874	31.646	0.123	0.105
-97.859	-124.238	0.305	0.047
-96.845	-200.000	0.002	-0.205
-95.830	103.350	0.139	0.161
-94.816	112.898	-0.144	-0.172
-93.801	622.021	0.075	0.186
-92.786	-200.000	0.008	0.084
-91.772	55.170	0.275	0.263
-90.757	60.155	-0.125	0.122
-89.743	191.958	-0.016	0.024
-88.728	461.348	0.107	-0.237
-87.713	-38.858	-0.515	-0.268
-86.699	-30.392	-0.121	-0.068
-85.684	103.104	0.180	-0.209
-84.670	94.333	0.053	0.060
-83.655	-55.450	0.053	-0.024
-82.640	-200.000	-0.040	0.335
-81.626	-3.348	0.200	-0.138
-80.611	-200.000	-0.016	0.243
-79.597	631.749	-0.116	0.291
-78.582	706.843	-0.047	0.123
-77.567	161.410	-0.091	-0.126
-76.553	-59.452	-0.291	-0.124
-75.538	-12.880	0.204	-0.131
-74.524	195.058	-0.085	-0.127
-73.509	505.649	0.131	-0.299
-72.494	221.519	0.125	0.199
-71.480	-54.130	0.165	-0.074
-70.465	-200.000	0.014	-0.121
-69.451	66.098	0.060	-0.060
-68.436	-200.000	-0.042	0.239
-67.422	-37.610	0.118	-0.062
-66.407	800.000	-0.061	0.245
-65.392	-200.000	0.001	0.051
-64.378	16.656	0.162	-0.127
-63.363	-200.000	-0.017	-0.265
-62.349	86.310	-0.085	0.092
-61.334	233.766	-0.760	-1.236
-60.319	-27.829	0.124	-0.071
-59.305	800.000	-0.395	-1.147
-58.290	147.909	0.578	0.770
-57.276	277.998	0.885	1.557
-56.261	-200.000	97.877	579.338
-55.246	615.787	1417.046	3511.097
-54.232	184.155	2624.004	3838.715
-53.217	119.606	2188.290	2678.299
-52.203	45.456	1633.923	1490.280
-51.188	37.147	1367.480	1196.270
-50.173	33.969	1324.474	1139.584
-49.159	56.522	1374.120	1320.429
-48.144	59.847	1391.697	1357.515
-47.130	37.748	1345.498	1180.495
-46.115	33.880	1328.559	1142.381
-45.100	33.718	1323.731	1137.213
-44.086	33.671	1320.902	1134.458
-43.071	33.735	1318.600	1132.817
-42.057	33.557	1316.284	1129.724
-41.042	33.695	1314.923	1129.332
-40.027	33.737	1313.335	1128.172
-39.013	33.728	1311.846	1126.798
-37.998	33.714	1309.733	1124.856
-36.984	33.701	1308.446	1123.628
-35.969	33.699	1306.290	1121.722
-34.954	33.833	1304.054	1120.547
-33.940	33.901	1303.146	1120.124
-32.925	33.882	1302.116	1119.078
-31.911	33.854	1300.095	1117.136
-30.896	33.885	1298.887	1116.231
-29.881	33.805	1297.770	1114.761
-28.867	33.891	1297.061	1114.613
-27.852	33.905	1294.690	1112.610
-26.838	33.824	1293.166	1110.784
-25.823	33.830	1291.795	1109.596
-24.809	33.786	1291.006	1108.619
-23.794	33.919	1288.794	1107.451
-22.779	33.818	1288.029	1106.160
-21.765	33.828	1286.826	1105.142
-20.750	33.892	1285.052	1103.947
-19.736	33.710	1284.330	1102.223
-18.721	33.778	1282.740	1101.211
-17.706	33.679	1281.948	1099.914
-16.692	33.750	1280.444	1098.993
-15.677	33.505	1280.358	1097.456
-14.663	33.673	1278.389	1096.694
-13.648	33.650	1277.359	1095.637
-12.633	33.641	1276.609	1094.899
-11.619	33.559	1275.954	1093.815
-10.604	33.753	1274.505	1093.648
-9.590	33.709	1273.656	1092.624
-8.575	33.608	1272.884	1091.340
-7.560	33.703	1271.756	1090.871
-6.546	33.683	1271.002	1090.066
-5.531	33.639	1270.410	1089.268
-4.517	33.772	1269.002	1088.777
-3.502	33.622	1268.498	1087.439
-2.487	33.621	1267.775	1086.773
-1.473	33.757	1263.372	1083.733
-0.458	32.507	1249.122	1064.406
0.556	27.945	1230.476	1026.738
1.571	24.013	1236.192	1009.165
2.586	23.115	1251.045	1016.044
3.600	22.252	1240.167	1002.204
4.615	17.121	1167.549	915.833
5.629	8.991	1092.002	815.328
6.644	5.300	1071.322	781.389
7.659	4.958	1068.592	777.622
8.673	4.781	1068.083	776.298
9.688	4.753	1066.669	775.063
10.702	5.035	1064.762	775.014
11.717	10.064	1071.840	805.200
12.731	17.239	1082.407	849.036
13.746	19.305	1083.278	859.964
14.761	18.001	1081.369	851.877
15.775	16.971	1079.343	845.075
16.790	15.805	1077.293	837.594
17.804	15.139	1075.823	833.065
18.819	14.825	1074.547	830.443
19.834	14.515	1073.514	828.034
20.848	14.310	1072.663	826.285
21.863	14.110	1071.867	824.609
22.877	13.908	1071.138	822.971
23.892	13.842	1070.575	822.139
24.907	13.832	1069.764	821.397
25.921	13.931	1068.855	821.114
26.936	13.886	1067.514	819.790
27.950	14.055	1065.785	819.224
28.965	14.205	1064.021	818.534
29.980	14.198	1062.372	817.157
30.994	14.273	1061.036	816.424
32.009	14.246	1060.491	815.803
33.023	14.105	1059.790	814.499
34.038	14.073	1058.230	813.073
35.053	14.136	1057.186	812.504
36.067	14.166	1056.596	812.126
37.082	14.029	1055.823	810.793
38.096	14.084	1054.537	810.001
39.111	14.067	1054.360	809.711
40.126	14.097	1052.924	808.682
41.140	13.910	1051.531	806.629
42.155	13.746	1050.878	805.262
43.169	13.820	1049.359	804.387
44.184	13.801	1048.398	803.487
45.199	13.833	1046.887	802.412
46.213	13.898	1046.274	802.184
47.228	14.042	1044.709	801.609
48.242	13.943	1043.991	800.510
49.257	13.993	1043.369	800.202
50.271	13.987	1042.518	799.453
51.286	14.058	1041.441	798.896
52.301	14.003	1040.021	797.472
53.315	14.096	1038.952	797.027
54.330	14.009	1038.150	795.924
55.344	13.955	1037.370	794.998
56.359	13.927	1036.479	794.112
57.374	13.881	1035.685	793.211
58.388	13.798	1034.917	792.158
59.403	13.836	1033.855	791.457
60.417	13.839	1032.881	790.654
61.432	13.830	1032.368	790.148
62.447	13.853	1031.362	789.416
63.461	13.703	1030.579	788.036
64.476	13.807	1029.610	787.719
65.490	13.811	1028.585	786.886
66.505	13.792	1028.149	786.393
67.520	13.789	1027.513	785.820
68.534	13.861	1026.651	785.434
69.549	13.841	1026.301	785.000
70.563	13.706	1025.482	783.667
71.578	13.537	1025.182	782.571
72.593	13.621	1023.689	781.757
73.607	13.677	1022.801	781.276
74.622	13.695	1022.230	780.855
75.636	13.706	1021.828	780.531
76.651	13.646	1020.994	779.542
77.666	13.722	1020.037	779.098
78.680	13.824	1019.186	778.858
79.695	13.712	1019.179	778.258
80.709	13.680	1018.473	777.500
81.724	13.851	1017.625	777.588
82.739	13.935	1016.881	777.342
83.753	14.028	1016.450	777.378
84.768	14.189	1015.126	777.049
85.782	14.095	1014.185	775.820
86.797	14.191	1013.152	775.411
87.812	13.978	1012.698	774.002
88.826	14.017	1011.734	773.379
89.841	14.140	1010.850	773.204
90.855	14.131	1009.799	772.292
91.870	14.168	1009.320	772.028
92.884	14.171	1008.181	771.104
93.899	14.226	1007.640	770.877
94.914	14.256	1006.620	770.167
95.928	14.068	1006.113	768.840
96.943	14.190	1004.719	768.272
97.957	14.068	1004.285	767.307
98.972	14.153	1003.310	766.887
99.987	14.198	1002.250	766.214
101.001	14.141	1001.571	765.366
102.016	14.093	1000.740	764.442
103.030	14.195	1000.157	764.401
104.045	14.105	999.688	763.561
105.060	14.135	998.084	762.405
106.074	14.033	996.981	761.027
107.089	13.953	995.902	759.773
108.103	13.890	995.031	758.751
109.118	13.947	994.068	758.209
110.133	13.860	993.229	757.104
111.147	13.882	992.585	756.650
112.162	13.862	991.564	755.710
113.176	14.055	990.521	755.730
114.191	14.009	990.314	755.295
115.206	14.027	989.737	754.871
116.220	14.017	988.550	753.853
117.235	13.889	987.944	752.742
118.249	13.909	987.211	752.210
119.264	13.917	986.167	751.381
120.279	14.006	985.331	751.080
121.293	13.840	985.050	750.050
122.308	14.016	983.574	749.655
123.322	13.940	982.892	748.724
124.337	13.850	981.746	747.380
125.352	13.854	980.924	746.709
126.366	13.881	979.804	745.910
127.381	13.865	978.809	745.016
128.395	13.905	978.014	744.525
129.410	13.920	977.174	743.884
130.424	14.107	976.036	743.789
131.439	13.922	975.882	742.779
132.454	14.091	974.611	742.500
133.468	13.992	974.225	741.699
134.483	14.043	972.935	740.877
135.497	14.114	972.257	740.614
136.512	14.122	971.276	739.837
137.527	14.144	970.183	739.033
138.541	14.048	969.979	738.388
139.556	14.204	969.313	738.507
140.570	14.239	968.179	737.734
141.585	14.274	967.691	737.451
142.600	14.319	966.521	736.692
143.614	14.348	965.878	736.267
144.629	14.313	965.388	735.676
145.643	14.228	964.472	734.533
146.658	14.223	963.314	733.566
147.673	14.143	962.606	732.609
148.687	14.137	961.408	731.606
149.702	14.007	961.041	730.692
150.716	14.144	959.573	730.114
151.731	14.197	959.358	730.118
152.746	14.196	958.761	729.594
153.760	14.356	957.837	729.525
154.775	14.184	957.611	728.535
155.789	14.205	957.343	728.359
156.804	14.270	956.287	727.775
157.819	14.434	955.373	727.733
158.833	14.447	954.955	727.406
159.848	14.418	953.943	726.444
160.862	14.382	953.191	725.651
161.877	14.360	952.011	724.592
162.892	14.241	950.730	723.036
163.906	14.098	950.500	722.177
164.921	14.229	949.391	721.839
165.935	14.341	948.092	721.270
166.950	14.475	947.146	721.069
167.964	14.292	946.768	719.927
168.979	14.263	945.917	719.091
169.994	14.349	944.597	718.393
171.008	14.316	944.416	718.049
172.023	14.356	943.675	717.595
173.037	14.416	942.929	717.223
174.052	14.467	942.023	716.692
175.067	14.243	941.669	715.393
176.081	14.351	940.932	715.233
177.096	14.290	940.467	714.555
178.110	14.208	940.113	713.873
179.125	14.391	939.139	713.852
180.140	14.447	938.776	713.755
181.154	14.499	938.747	713.893
182.169	14.591	937.655	713.389
183.183	14.581	937.313	713.026
184.198	14.600	936.307	712.278
185.213	14.496	936.004	711.542
186.227	14.597	934.943	711.103
187.242	14.687	934.536	711.112
188.256	14.717	933.908	710.699
189.271	14.656	932.684	709.445
190.286	14.445	932.252	708.159
191.300	14.327	931.052	706.684
192.315	14.321	930.533	706.199
193.329	14.297	929.963	705.606
194.344	14.438	929.261	705.607
195.359	14.478	928.838	705.391
196.373	14.602	928.395	705.518
197.388	14.598	928.132	705.238
198.402	14.759	927.353	705.263
199.417	14.804	926.792	704.964
200.432	14.868	925.985	704.556
201.446	14.851	926.070	704.490
202.461	14.785	925.520	703.732
203.475	15.018	924.573	703.927
204.490	14.799	923.370	702.028
205.504	14.831	922.777	701.652
206.519	14.880	921.480	700.807
207.534	14.809	921.164	700.207
208.548	14.812	920.688	699.798
209.563	14.928	919.994	699.695
210.577	14.975	919.523	699.470
211.592	14.842	918.993	698.450
212.607	15.049	918.041	698.528
213.621	14.921	917.504	697.521
214.636	15.046	916.567	697.269
215.650	15.016	916.053	696.692
216.665	14.907	915.928	696.081
217.680	15.177	914.391	695.974
218.694	15.120	913.728	695.173
219.709	15.050	913.370	694.548
220.723	15.131	912.738	694.342
221.738	15.108	911.843	693.503
222.753	15.002	911.275	692.572
223.767	15.067	910.885	692.484
224.782	15.276	910.299	692.840
225.796	15.294	909.651	692.358
226.811	15.228	909.457	691.877
227.826	15.192	908.288	690.781
228.840	15.148	907.373	689.842
229.855	15.088	906.645	688.981
230.869	15.113	905.863	688.426
231.884	15.076	905.424	687.882
232.899	15.153	904.742	687.616
233.913	15.145	903.611	686.665
234.928	15.050	903.271	685.957
235.942	15.006	902.813	685.367
236.957	15.030	902.446	685.127
237.972	15.090	901.582	684.653
238.986	15.084	900.781	683.961
240.001	15.155	900.185	683.738
241.015	15.247	899.433	683.482
242.030	15.232	899.313	683.268
243.045	15.140	898.949	682.559
244.059	15.294	898.042	682.433
245.074	15.334	897.464	682.099
246.088	15.444	896.459	681.722
247.103	15.417	895.912	681.135
248.117	15.433	895.872	681.110
249.132	15.645	894.934	681.196
250.147	15.654	894.630	680.938
251.161	15.601	893.891	680.103
252.176	15.711	892.883	679.718
253.190	15.596	892.814	679.142
254.205	15.836	891.199	678.822
255.220	15.819	890.902	678.469
256.234	15.708	890.617	677.742
257.249	15.667	890.367	677.327
258.263	15.698	889.291	676.572
259.278	15.768	888.414	676.126
260.293	15.784	887.954	675.784
261.307	15.997	887.103	675.930
262.322	15.873	887.012	675.305
263.336	15.858	886.093	674.483
264.351	15.990	885.323	674.367
265.366	15.801	885.076	673.363
266.380	15.967	884.060	673.194
267.395	15.847	883.534	672.253
268.409	15.897	882.679	671.745
269.424	15.937	881.829	671.197
270.439	15.941	881.157	670.642
271.453	15.903	880.498	669.930
272.468	15.823	879.929	669.119
273.482	15.913	879.329	668.960
274.497	15.704	878.801	667.669
275.512	15.761	878.627	667.703
276.526	15.888	878.016	667.685
277.541	15.968	877.210	667.331
278.555	16.017	876.622	667.018
279.570	16.095	875.835	666.668
280.585	15.981	875.522	665.919
281.599	16.015	874.563	665.268
282.614	16.010	873.888	664.676
283.628	15.999	873.052	663.937
284.643	16.085	872.749	663.987
285.657	16.033	871.991	663.145
286.672	16.181	871.368	663.195
287.687	16.120	870.864	662.515
288.701	16.152	870.280	662.135
289.716	16.167	869.584	661.605
290.730	16.111	868.956	660.851
291.745	16.070	868.741	660.468
292.760	16.214	868.024	660.430
293.774	16.358	867.353	660.421
294.789	16.250	866.540	659.324
295.803	16.197	866.048	658.685
296.818	16.230	865.100	658.034
297.833	16.202	864.534	657.437
298.847	16.387	863.767	657.514
299.862	16.312	863.229	656.755
300.876	16.284	863.019	656.430
301.891	16.325	862.455	656.099
302.906	16.345	862.101	655.851
303.920	16.650	861.577	656.576
304.935	16.458	860.794	655.176
305.949	16.437	860.435	654.765
306.964	16.399	859.678	653.983
307.979	16.358	859.313	653.491
308.993	16.531	858.316	653.343
310.008	16.600	857.642	653.037
311.022	16.480	857.251	652.220
312.037	16.540	856.583	651.884
313.052	16.297	856.247	650.636
314.066	16.350	855.488	650.205
315.081	16.424	854.821	649.924
316.095	16.468	854.303	649.642
317.110	16.424	853.605	648.884
318.125	16.527	853.161	648.886
319.139	16.367	853.044	648.125
320.154	16.438	852.363	647.823
321.168	16.427	851.955	647.415
322.183	16.438	851.289	646.893
323.197	16.569	850.596	646.809
324.212	16.579	849.986	646.325
325.227	16.430	849.780	645.546
326.241	16.510	848.778	645.031
327.256	16.530	848.173	644.592
328.270	16.595	847.859	644.544
329.285	16.468	847.417	643.665
330.300	16.625	846.484	643.495
331.314	16.682	845.995	643.283
332.329	16.673	845.697	642.967
333.343	16.673	845.392	642.679
334.358	16.619	844.759	641.934
335.373	16.704	844.291	641.845
336.387	16.675	844.379	641.744
337.402	16.787	843.834	641.698
338.416	16.848	843.751	641.810
339.431	16.965	843.433	641.954
340.446	16.895	842.796	641.148
341.460	17.077	842.055	641.215
342.475	17.114	841.819	641.119
343.489	16.966	841.658	640.380
344.504	17.110	840.819	640.226
345.519	17.053	840.503	639.715
346.533	17.162	839.738	639.489
347.548	17.036	839.200	638.548
348.562	16.860	838.902	637.602
349.577	17.021	837.979	637.449
350.592	16.835	837.670	636.458
351.606	16.825	836.852	635.744
352.621	16.811	836.439	635.319
353.635	17.023	835.446	635.303
354.650	17.020	834.881	634.806
355.665	17.042	833.989	634.157
356.679	17.088	833.633	634.000
357.694	17.152	832.935	633.652
358.708	17.197	832.174	633.184
359.723	17.053	831.759	632.275
360.738	17.083	831.258	631.949
361.752	17.262	830.247	631.794
362.767	17.209	830.175	631.482
363.781	17.363	829.376	631.391
364.796	17.437	829.201	631.479
365.810	17.402	828.972	631.119
366.825	17.406	828.448	630.678
367.840	17.574	827.798	630.749
368.854	17.414	827.486	629.865
369.869	17.344	827.052	629.220
370.883	17.427	826.638	629.154
371.898	17.532	826.158	629.122
372.913	17.578	825.771	628.940
373.927	17.528	825.345	628.376
374.942	17.657	824.917	628.471
375.956	17.495	824.510	627.508
376.971	17.709	823.955	627.820
377.986	17.625	823.471	627.085
379.000	17.644	822.921	626.679
380.015	17.691	822.632	626.576
381.029	17.544	822.130	625.598
382.044	17.813	820.924	625.615
383.059	17.765	820.523	625.077
384.073	17.753	820.299	624.806
385.088	17.559	819.871	623.716
386.102	17.628	818.850	623.135
387.117	17.591	818.270	622.505
388.132	17.530	817.913	621.953
389.146	17.627	817.413	621.874
390.161	17.611	817.283	621.662
391.175	17.684	816.695	621.424
392.190	17.772	815.706	620.938
393.205	17.756	815.437	620.618
394.219	17.662	815.082	619.953
395.234	17.722	814.770	619.880
396.248	17.537	814.310	618.799
397.263	17.573	813.687	618.404
398.278	17.583	813.460	618.213
399.292	17.708	813.112	618.349
400.307	17.548	812.625	617.343
401.321	17.683	812.356	617.573
402.336	17.755	811.668	617.256
403.350	17.701	811.452	616.841
404.365	17.763	810.907	616.596
405.380	17.866	810.540	616.633
406.394	17.969	809.693	616.309
407.409	17.971	809.300	615.960
408.423	17.876	809.433	615.666
409.438	18.032	808.911	615.777
410.453	18.042	808.289	615.286
411.467	18.196	807.501	615.183
412.482	17.941	807.302	614.061
413.496	18.310	806.916	615.040
414.511	18.160	806.639	614.233
415.526	18.265	806.297	614.294
416.540	18.131	805.577	613.212
417.555	18.193	805.039	612.973
418.569	18.341	804.454	613.002
419.584	18.169	804.581	612.428
420.599	18.155	804.088	611.947
421.613	153.645	1370.763	1791.389
422.628	133.250	1453.326	1791.479
