DTS Sentinel unit serial number:	SN413079Multiplexer serial number:	ORYXHardware model number:	OX4-SRSoftware version number:	ORYX F/W v4.00 Oryx Data Collector v3.7.2.0data status	okinstallation	princeton_trtdifferential loss correction	single-endedforward channel	channel 1reverse channel	N/Adate	2019/09/17time	00:30:35forward acquisition time	60.00reverse acquisition time	0.00gamma	496.2192k internal	0.2324k external	0.2324temperature offset calibration	0.9959default loss term (dB/km)	0.3790temperature slope calibration	1.0000multiplexer offset coefficient	1.0000multiplexer slope coefficient	1.0000fibre end	0.00T internal ref (°C)	29.48T ext. ref 1 (°C)	0.09T ext. ref 2 (°C)	23.80length (m)	temperature (°C)	Stokes	anti-Stokes-747.200	800.000	-0.037	-0.116
-746.185	-2.379	0.146	0.104
-745.171	25.759	-0.140	0.117
-744.156	59.228	-0.201	0.200
-743.142	66.185	0.255	0.262
-742.127	-54.658	-0.166	-0.076
-741.112	123.168	-0.136	-0.172
-740.098	63.153	0.243	0.246
-739.083	800.000	0.071	0.297
-738.069	149.446	-0.211	0.289
-737.054	800.000	-0.051	0.152
-736.039	-200.000	-0.004	0.237
-735.025	176.774	-0.193	0.284
-734.010	72.611	-0.098	0.103
-732.996	744.176	0.095	-0.257
-731.981	-200.000	-0.068	-0.411
-730.966	800.000	0.017	-0.058
-729.952	-16.399	-0.234	0.150
-728.937	421.384	-0.173	-0.374
-727.923	6.140	0.350	-0.262
-726.908	800.000	-0.076	-0.242
-725.894	-5.545	-0.135	0.094
-724.879	0.570	0.236	-0.170
-723.864	-158.188	-0.132	-0.008
-722.850	-200.000	-0.002	-0.195
-721.835	100.895	-0.052	-0.062
-720.821	240.474	0.066	0.111
-719.806	-88.941	-0.273	-0.082
-718.791	-124.610	0.144	0.022
-717.777	-31.544	0.141	0.080
-716.762	-28.859	0.034	0.020
-715.748	-72.742	0.210	0.078
-714.733	208.027	0.134	-0.211
-713.718	63.262	-0.212	-0.214
-712.704	-200.000	-0.234	-0.001
-711.689	147.439	0.053	-0.072
-710.675	85.297	0.041	-0.046
-709.660	18.104	-0.219	0.176
-708.645	-20.295	-0.257	-0.160
-707.631	52.554	0.081	-0.078
-706.616	-36.021	-0.313	0.171
-705.602	62.409	-0.208	-0.210
-704.587	510.039	-0.057	-0.135
-703.572	2.814	-0.045	-0.033
-702.558	-11.085	0.173	-0.115
-701.543	319.743	0.107	0.205
-700.529	800.000	-0.080	-0.246
-699.514	800.000	0.095	-0.412
-698.499	45.199	0.123	0.114
-697.485	-106.881	-0.075	0.017
-696.470	-63.094	0.153	0.064
-695.456	-117.015	-0.390	-0.072
-694.441	486.889	-0.153	0.352
-693.426	57.026	0.152	-0.149
-692.412	-200.000	-0.004	-0.132
-691.397	53.300	-0.235	-0.227
-690.383	296.255	0.017	-0.031
-689.368	488.431	0.023	0.054
-688.354	-150.798	-0.072	0.006
-687.339	-139.739	-0.197	-0.021
-686.324	353.246	-0.095	-0.189
-685.310	58.977	-0.170	-0.168
-684.295	300.578	0.141	0.262
-683.281	-98.176	0.179	0.046
-682.266	-94.729	0.131	0.036
-681.251	265.633	-0.095	-0.166
-680.237	800.000	-0.088	0.252
-679.222	-40.422	-0.107	-0.056
-678.208	-95.959	-0.206	0.055
-677.193	132.761	-0.010	0.013
-676.178	-28.278	-0.432	-0.251
-675.164	-21.329	-0.279	0.171
-674.149	-82.491	0.113	0.037
-673.135	52.884	0.179	0.172
-672.120	-103.620	-0.309	-0.073
-671.105	389.881	-0.217	0.454
-670.091	-65.201	-0.292	-0.119
-669.076	-24.782	0.163	-0.097
-668.062	133.293	0.118	-0.153
-667.047	112.255	0.039	-0.047
-666.032	-121.027	0.145	-0.024
-665.018	14.731	0.279	-0.220
-664.003	-29.667	-0.174	-0.100
-662.989	713.540	0.012	-0.032
-661.974	-109.080	-0.268	-0.057
-660.959	-121.561	0.225	-0.038
-659.945	800.000	-0.083	0.299
-658.930	211.666	0.139	0.220
-657.916	-200.000	-0.030	0.137
-656.901	799.760	-0.038	-0.106
-655.886	-102.489	-0.497	-0.120
-654.872	-16.867	0.113	-0.072
-653.857	141.369	-0.060	-0.080
-652.843	19.970	-0.064	-0.052
-651.828	-200.000	-0.022	-0.123
-650.814	206.709	-0.081	0.127
-649.799	-69.132	-0.177	-0.069
-648.784	117.120	0.165	0.204
-647.770	-125.144	-0.306	-0.047
-646.755	-22.915	-0.108	-0.065
-645.741	-109.625	0.274	0.058
-644.726	481.999	0.073	0.167
-643.711	-139.548	0.193	-0.021
-642.697	-200.000	-0.001	-0.059
-641.682	-200.000	0.023	0.104
-640.668	-39.281	-0.319	-0.169
-639.653	166.017	-0.117	-0.166
-638.638	115.083	0.135	0.166
-637.624	-7.591	-0.232	0.158
-636.609	15.959	0.089	-0.071
-635.595	-106.493	0.219	0.049
-634.580	-61.261	0.227	0.096
-633.565	800.000	-0.065	0.259
-632.551	-53.380	0.389	0.179
-631.536	53.700	-0.217	0.210
-630.522	6.336	0.252	-0.188
-629.507	9.204	-0.220	0.167
-628.492	68.038	0.111	0.114
-627.478	-200.000	-0.030	0.168
-626.463	-87.862	0.309	0.094
-625.449	162.570	0.118	0.166
-624.434	-66.010	-0.125	-0.050
-623.419	184.521	0.171	-0.255
-622.405	-41.066	0.050	-0.026
-621.390	14.026	0.171	0.134
-620.376	17.214	0.297	0.236
-619.361	-122.316	-0.484	-0.079
-618.346	-60.306	-0.217	-0.093
-617.332	85.025	0.259	0.285
-616.317	-200.000	-0.002	-0.080
-615.303	272.507	-0.094	-0.167
-614.288	-67.552	-0.556	-0.219
-613.273	-103.533	-0.373	0.088
-612.259	31.383	0.220	-0.190
-611.244	50.811	0.317	0.302
-610.230	49.899	-0.313	-0.296
-609.215	-95.961	0.118	0.032
-608.201	57.893	-0.119	-0.117
-607.186	190.488	-0.158	0.238
-606.171	565.451	-0.113	0.276
-605.157	-14.058	0.162	0.105
-604.142	176.639	0.094	0.137
-603.128	127.852	-0.360	-0.459
-602.113	-151.209	0.178	0.013
-601.098	-62.861	0.419	-0.174
-600.084	228.399	-0.192	-0.314
-599.069	-116.939	0.370	-0.068
-598.055	800.000	-0.006	-0.021
-597.040	800.000	-0.047	0.196
-596.025	240.334	-0.187	0.313
-595.011	-70.904	0.143	-0.054
-593.996	326.762	-0.173	-0.333
-592.982	-130.152	0.231	-0.032
-591.967	-22.886	0.123	0.074
-590.952	-200.000	-0.020	-0.267
-589.938	62.954	-0.138	-0.139
-588.923	800.000	-0.066	-0.250
-587.909	-104.877	0.220	0.051
-586.894	-146.655	-0.224	0.020
-585.879	-18.327	-0.452	0.283
-584.865	-122.613	-0.123	-0.020
-583.850	-72.231	-0.466	-0.173
-582.836	406.050	-0.090	-0.191
-581.821	16.939	0.291	-0.232
-580.806	-94.207	-0.204	-0.056
-579.792	251.514	0.082	-0.140
-578.777	-110.396	-0.170	0.035
-577.763	-200.000	0.042	0.268
-576.748	491.370	-0.038	-0.086
-575.733	-200.000	-0.048	-0.291
-574.719	51.725	0.158	-0.151
-573.704	145.256	-0.167	-0.225
-572.690	97.270	0.159	-0.183
-571.675	-200.000	0.014	-0.213
-570.661	-24.503	0.126	-0.075
-569.646	800.000	0.102	-0.380
-568.631	-200.000	0.014	-0.163
-567.617	-127.074	-0.246	0.036
-566.602	800.000	0.037	0.158
-565.588	-107.062	0.461	-0.102
-564.573	535.121	0.084	0.200
-563.558	764.093	-0.137	0.372
-562.544	-200.000	-0.004	-0.117
-561.529	17.224	-0.161	-0.128
-560.515	234.088	-0.194	-0.320
-559.500	-16.244	0.137	-0.087
-558.485	-90.659	0.414	0.120
-557.471	-60.318	0.027	0.012
-556.456	-32.811	0.221	-0.123
-555.442	14.495	-0.182	-0.142
-554.427	800.000	0.088	0.273
-553.412	98.184	-0.207	0.238
-552.398	255.306	0.156	0.269
-551.383	-200.000	-0.048	-0.284
-550.369	-102.607	-0.109	0.026
-549.354	-52.991	-0.094	0.043
-548.339	-200.000	-0.033	-0.284
-547.325	800.000	-0.041	-0.146
-546.310	76.585	0.134	-0.142
-545.296	-123.354	-0.172	0.027
-544.281	257.419	0.201	0.347
-543.266	-200.000	-0.010	-0.146
-542.252	486.771	-0.104	-0.238
-541.237	-200.000	-0.058	-0.387
-540.223	17.404	0.276	0.220
-539.208	286.647	0.073	-0.132
-538.193	-200.000	-0.019	-0.219
-537.179	372.463	0.082	-0.167
-536.164	9.544	0.057	-0.043
-535.150	-200.000	0.062	-0.280
-534.135	-132.151	0.149	-0.019
-533.121	-200.000	-0.018	-0.362
-532.106	-174.718	0.326	0.009
-531.091	-160.905	-0.144	-0.008
-530.077	-108.436	0.094	-0.020
-529.062	-87.657	0.245	-0.074
-528.048	-15.379	0.070	0.045
-527.033	-175.038	-0.148	0.004
-526.018	-130.378	0.027	-0.004
-525.004	-200.000	0.019	0.126
-523.989	-200.000	0.017	0.102
-522.975	93.620	-0.142	0.161
-521.960	40.634	0.143	0.129
-520.945	-200.000	-0.006	0.417
-519.931	-185.596	-0.189	0.003
-518.916	13.491	0.371	0.288
-517.902	516.806	0.051	0.118
-516.887	-200.000	-0.038	-0.308
-515.872	36.449	-0.197	0.174
-514.858	216.594	-0.064	-0.102
-513.843	102.549	0.054	-0.063
-512.829	-200.000	-0.019	0.245
-511.814	-200.000	0.037	0.356
-510.799	-62.433	-0.169	0.070
-509.785	-200.000	-0.044	-0.255
-508.770	37.126	-0.216	0.191
-507.756	354.387	0.062	-0.123
-506.741	75.646	-0.149	0.158
-505.726	800.000	-0.126	-0.426
-504.712	800.000	0.045	-0.174
-503.697	106.791	0.156	0.185
-502.683	114.496	-0.019	0.023
-501.668	800.000	-0.101	-0.404
-500.653	-200.000	0.012	-0.181
-499.639	4.055	-0.133	-0.097
-498.624	-71.018	0.244	-0.092
-497.610	-200.000	-0.070	0.316
-496.595	-107.771	-0.102	0.022
-495.581	-83.378	-0.119	-0.038
-494.566	18.680	-0.125	0.100
-493.551	-71.225	-0.388	-0.146
-492.537	546.647	0.202	-0.484
-491.522	-50.244	-0.175	0.083
-490.508	-200.000	0.049	-0.338
-489.493	-48.562	-0.273	0.131
-488.478	-152.535	0.208	-0.015
-487.464	-107.647	-0.466	0.102
-486.449	-200.000	-0.013	-0.174
-485.435	36.656	-0.147	-0.130
-484.420	-90.416	-0.193	-0.056
-483.405	800.000	-0.014	-0.057
-482.391	163.650	0.076	-0.107
-481.376	72.296	0.094	-0.097
-480.362	58.357	-0.242	-0.237
-479.347	-74.538	-0.168	0.061
-478.332	-200.000	0.008	-0.251
-477.318	99.039	0.044	-0.051
-476.303	-130.895	-0.136	0.018
-475.289	800.000	-0.043	-0.166
-474.274	195.874	-0.159	0.241
-473.259	55.044	0.090	-0.087
-472.245	-200.000	-0.003	0.219
-471.230	-83.177	-0.226	0.073
-470.216	800.000	0.170	0.479
-469.201	-150.465	-0.196	0.015
-468.186	-70.820	-0.285	-0.107
-467.172	-200.000	0.021	0.093
-466.157	-99.743	-0.184	-0.046
-465.143	93.131	-0.154	0.174
-464.128	-200.000	0.014	-0.172
-463.113	89.553	-0.165	0.184
-462.099	105.154	0.185	0.218
-461.084	363.289	0.070	-0.141
-460.070	708.732	0.056	-0.148
-459.055	-174.818	-0.139	0.004
-458.040	-68.080	0.139	0.054
-457.026	-32.128	-0.281	-0.157
-456.011	-169.439	-0.190	0.007
-454.997	-200.000	-0.055	-0.336
-453.982	96.073	-0.141	0.161
-452.968	-120.035	-0.240	0.041
-451.953	505.823	-0.167	-0.386
-450.938	800.000	0.067	-0.216
-449.924	604.757	0.038	-0.095
-448.909	-160.850	0.303	0.016
-447.895	-101.514	0.185	0.045
-446.880	512.150	-0.004	0.009
-445.865	-200.000	0.011	-0.340
-444.851	-12.761	0.152	0.099
-443.836	-68.071	0.144	0.056
-442.822	213.166	-0.121	-0.190
-441.807	13.770	-0.120	0.093
-440.792	3.021	0.136	0.099
-439.778	-200.000	-0.015	-0.264
-438.763	800.000	-0.075	0.209
-437.749	800.000	0.038	0.107
-436.734	-85.684	-0.319	-0.099
-435.719	800.000	0.114	0.367
-434.705	249.510	-0.112	0.189
-433.690	59.998	0.165	-0.162
-432.676	800.000	0.110	0.335
-431.661	-15.138	0.238	0.152
-430.646	-83.822	-0.063	-0.020
-429.632	637.028	-0.041	-0.105
-428.617	-100.185	0.033	0.008
-427.603	-52.465	-0.394	0.182
-426.588	-182.240	0.402	0.007
-425.573	-119.672	-0.122	0.021
-424.559	-200.000	0.001	0.175
-423.544	-200.000	0.031	0.309
-422.530	-86.218	-0.059	0.018
-421.515	-3.359	0.165	0.114
-420.500	-76.010	-0.247	0.087
-419.486	-21.628	-0.178	0.108
-418.471	-134.134	0.247	0.030
-417.457	56.168	-0.170	-0.164
-416.442	800.000	0.025	-0.073
-415.428	-18.069	0.171	-0.106
-414.413	178.832	0.134	-0.195
-413.398	-132.703	-0.184	0.023
-412.384	-116.149	0.234	-0.043
-411.369	800.000	0.101	0.319
-410.355	4.502	0.242	-0.177
-409.340	-17.209	-0.365	-0.229
-408.325	-121.189	0.196	0.033
-407.311	-75.548	0.226	0.080
-406.296	38.743	-0.145	-0.129
-405.282	141.514	-0.094	0.124
-404.267	-200.000	-0.021	0.337
-403.252	-200.000	-0.010	0.079
-402.238	3.202	-0.078	0.057
-401.223	459.945	-0.043	0.094
-400.209	-198.810	0.289	-0.002
-399.194	-168.712	-0.080	-0.003
-398.179	70.855	0.132	-0.136
-397.165	-33.999	-0.016	-0.009
-396.150	26.127	-0.149	-0.124
-395.136	71.934	-0.271	-0.280
-394.121	800.000	-0.057	-0.193
-393.106	748.956	0.069	0.185
-392.092	-200.000	-0.085	-0.000
-391.077	-173.491	-0.184	-0.006
-390.063	-200.000	-0.036	0.203
-389.048	-107.255	0.075	0.016
-388.033	159.246	0.176	-0.244
-387.019	-200.000	-0.003	0.015
-386.004	-85.081	0.121	-0.038
-384.990	138.810	0.362	-0.473
-383.975	350.877	-0.034	-0.067
-382.960	50.484	-0.114	-0.107
-381.946	-41.774	0.101	-0.051
-380.931	-200.000	-0.003	0.196
-379.917	203.099	0.112	-0.172
-378.902	136.432	-0.256	-0.332
-377.888	183.608	-0.077	0.114
-376.873	315.757	0.055	-0.103
-375.858	-128.071	0.282	-0.040
-374.844	67.331	0.140	0.142
-373.829	800.000	0.044	-0.176
-372.815	800.000	0.056	0.183
-371.800	-200.000	-0.016	-0.453
-370.785	57.027	0.291	-0.282
-369.771	30.386	0.335	-0.284
-368.756	65.614	-0.176	0.177
-367.742	75.155	-0.147	-0.154
-366.727	88.639	-0.167	0.184
-365.712	-200.000	-0.025	0.127
-364.698	505.517	-0.067	-0.155
-363.683	145.397	0.052	-0.069
-362.669	-35.104	0.144	0.078
-361.654	-200.000	0.024	-0.119
-360.639	-21.041	0.273	-0.166
-359.625	-200.000	-0.021	-0.167
-358.610	-140.795	-0.056	0.006
-357.596	242.564	-0.096	0.159
-356.581	-102.513	-0.522	0.124
-355.566	27.971	-0.152	0.128
-354.552	-200.000	0.003	0.030
-353.537	53.280	0.268	0.255
-352.523	485.275	-0.041	-0.094
-351.508	-200.000	-0.022	-0.219
-350.493	800.000	-0.023	-0.075
-349.479	-13.035	0.180	-0.116
-348.464	-53.568	-0.241	0.109
-347.450	-200.000	0.006	-0.111
-346.435	-77.318	0.035	0.012
-345.420	335.792	0.128	-0.246
-344.406	-200.000	-0.017	-0.177
-343.391	800.000	-0.122	0.361
-342.377	-74.843	0.147	-0.052
-341.362	800.000	0.042	0.137
-340.348	-110.220	0.140	0.029
-339.333	-31.308	0.282	0.158
-338.318	13.856	0.220	0.170
-337.304	-120.194	-0.313	0.053
-336.289	800.000	0.047	0.195
-335.275	28.931	-0.238	0.201
-334.260	-175.036	-0.305	0.008
-333.245	-136.113	0.157	0.018
-332.231	63.872	-0.201	0.201
-331.216	-63.313	-0.203	0.083
-330.202	-200.000	0.045	-0.638
-329.187	171.619	-0.041	0.059
-328.172	472.302	0.044	0.098
-327.158	91.116	0.039	0.044
-326.143	96.969	0.082	0.093
-325.129	-17.317	-0.228	-0.142
-324.114	800.000	-0.024	-0.089
-323.099	-39.934	-0.413	0.214
-322.085	-200.000	0.020	0.327
-321.070	3.780	-0.129	-0.093
-320.056	-156.939	0.139	0.008
-319.041	184.457	-0.124	0.183
-318.026	86.807	0.098	0.107
-317.012	257.237	-0.044	-0.075
-315.997	-181.600	-0.238	0.005
-314.983	800.000	-0.071	-0.259
-313.968	363.995	-0.095	0.190
-312.953	-66.122	-0.155	0.061
-311.939	149.387	0.036	0.048
-310.924	-122.195	-0.305	0.050
-309.910	-129.967	-0.197	-0.027
-308.895	-60.457	0.251	0.106
-307.880	-200.000	0.006	-0.051
-306.866	145.072	0.025	-0.033
-305.851	52.706	0.031	0.030
-304.837	800.000	-0.033	-0.106
-303.822	36.367	0.229	0.200
-302.807	800.000	0.095	0.290
-301.793	800.000	0.046	0.197
-300.778	-118.950	-0.168	0.029
-299.764	-15.103	0.298	0.189
-298.749	783.422	0.047	0.127
-297.735	58.757	-0.128	-0.125
-296.720	-200.000	0.018	-0.089
-295.705	-200.000	-0.013	0.071
-294.691	800.000	-0.021	0.086
-293.676	-200.000	-0.051	0.349
-292.662	-136.376	0.193	0.022
-291.647	381.634	0.046	0.095
-290.632	-64.711	-0.222	0.089
-289.618	-200.000	0.041	0.318
-288.603	323.424	0.099	0.187
-287.589	56.573	-0.167	-0.162
-286.574	-197.467	-0.450	-0.003
-285.559	800.000	-0.113	0.406
-284.545	-200.000	-0.044	0.202
-283.530	-200.000	0.027	-0.121
-282.516	-35.577	0.063	-0.034
-281.501	-200.000	0.020	-0.164
-280.486	103.958	0.185	-0.216
-279.472	-93.854	0.159	0.043
-278.457	-120.218	-0.136	-0.023
-277.443	-39.809	0.070	-0.036
-276.428	-105.236	-0.087	-0.020
-275.413	240.113	0.125	-0.206
-274.399	-24.115	-0.109	-0.064
-273.384	-68.855	0.134	0.051
-272.370	723.932	0.098	-0.259
-271.355	74.170	-0.196	-0.203
-270.340	243.557	0.042	0.070
-269.326	-1.392	0.195	0.136
-268.311	-57.639	-0.155	0.067
-267.297	161.935	0.041	0.056
-266.282	249.026	0.095	-0.159
-265.267	12.104	0.098	0.075
-264.253	-200.000	0.043	0.289
-263.238	-127.766	-0.312	0.045
-262.224	275.490	-0.094	0.166
-261.209	800.000	0.050	0.166
-260.195	73.883	-0.163	0.170
-259.180	-200.000	-0.017	-0.302
-258.165	-34.748	0.071	0.039
-257.151	-200.000	0.024	0.231
-256.136	124.271	0.110	-0.136
-255.122	-200.000	-0.020	-0.267
-254.107	-200.000	0.081	0.417
-253.092	-122.226	0.179	0.029
-252.078	269.715	-0.160	0.279
-251.063	-2.197	-0.142	0.099
-250.049	-112.787	0.507	-0.100
-249.034	-131.181	0.221	0.029
-248.019	-10.316	0.412	-0.271
-247.005	-0.489	-0.118	0.083
-245.990	24.014	-0.026	0.022
-244.976	800.000	0.038	0.142
-243.961	324.616	-0.069	0.130
-242.946	-19.585	-0.096	0.059
-241.932	177.189	0.157	0.226
-240.917	-200.000	-0.017	0.381
-239.903	-48.912	0.340	-0.161
-238.888	800.000	-0.121	-0.333
-237.873	481.483	-0.097	-0.218
-236.859	-200.000	0.429	-0.000
-235.844	202.541	0.085	0.130
-234.830	-103.523	0.218	0.051
-233.815	-53.429	-0.404	0.183
-232.800	16.721	-0.147	0.115
-231.786	9.867	-0.152	-0.114
-230.771	-104.640	0.223	0.051
-229.757	-23.220	0.090	-0.054
-228.742	-86.076	0.383	-0.117
-227.727	233.839	0.025	0.041
-226.713	170.742	0.129	0.183
-225.698	-161.944	0.115	-0.006
-224.684	112.145	0.346	0.414
-223.669	373.935	-0.229	0.461
-222.655	29.771	0.172	-0.145
-221.640	-80.581	-0.085	-0.028
-220.625	114.233	-0.184	-0.221
-219.611	142.674	-0.002	-0.002
-218.596	-120.621	0.148	-0.025
-217.582	-15.042	-0.142	-0.090
-216.567	-43.190	0.096	0.048
-215.552	-45.031	-0.133	0.065
-214.538	-61.738	-0.103	0.043
-213.523	108.634	-0.096	-0.113
-212.509	-62.999	-0.364	0.149
-211.494	-200.000	-0.078	-0.395
-210.479	82.848	0.192	-0.207
-209.465	179.796	-0.187	0.271
-208.450	-53.710	0.246	0.111
-207.436	-53.391	-0.224	0.101
-206.421	40.875	0.152	-0.135
-205.406	117.499	-0.136	0.165
-204.392	116.907	0.178	0.216
-203.377	-42.929	0.384	-0.193
-202.363	13.175	-0.428	-0.327
-201.348	-200.000	0.055	-0.250
-200.333	-200.000	-0.057	0.306
-199.319	-82.518	0.140	0.045
-198.304	-200.000	-0.001	0.179
-197.290	115.763	-0.038	0.046
-196.275	-200.000	-0.022	-0.153
-195.260	-200.000	0.293	0.000
-194.246	-79.696	-0.330	0.110
-193.231	2.280	0.172	-0.123
-192.217	-2.196	-0.123	-0.085
-191.202	627.255	0.033	0.082
-190.187	-200.000	0.005	0.256
-189.173	-157.601	-0.118	-0.007
-188.158	-46.224	0.274	0.133
-187.144	-78.288	0.103	0.035
-186.129	-11.423	0.249	0.162
-185.114	-177.989	-0.143	-0.003
-184.100	119.864	-0.111	-0.136
-183.085	40.218	-0.232	0.206
-182.071	7.289	0.175	0.129
-181.056	3.034	-0.312	-0.224
-180.042	-200.000	-0.049	-0.322
-179.027	-96.042	0.258	0.068
-178.012	279.176	-0.119	0.209
-176.998	659.077	0.017	0.044
-175.983	800.000	0.085	-0.235
-174.969	-98.492	0.135	-0.034
-173.954	800.000	-0.033	0.139
-172.939	74.691	0.037	-0.039
-171.925	-100.531	0.253	0.062
-170.910	-0.919	0.127	-0.089
-169.896	-200.000	-0.006	-0.289
-168.881	800.000	-0.010	0.039
-167.866	76.389	-0.227	0.238
-166.852	-154.851	-0.183	0.012
-165.837	-200.000	0.060	0.313
-164.823	-175.821	0.249	0.007
-163.808	278.436	0.157	-0.276
-162.793	213.154	-0.041	0.063
-161.779	-200.000	0.055	0.367
-160.764	-93.124	0.562	-0.154
-159.750	-110.732	0.067	0.014
-158.735	-200.000	0.030	-0.192
-157.720	-152.617	-0.173	0.012
-156.706	160.511	-0.059	-0.081
-155.691	33.251	0.225	0.193
-154.677	510.663	0.139	0.320
-153.662	-200.000	0.024	-0.268
-152.647	209.217	0.115	-0.178
-151.633	-200.000	0.032	-0.146
-150.618	-200.000	0.086	0.377
-149.604	230.113	-0.243	0.392
-148.589	-200.000	0.095	0.466
-147.574	103.709	0.232	0.268
-146.560	179.724	-0.105	0.152
-145.545	-200.000	0.098	-0.436
-144.531	-113.067	0.142	-0.028
-143.516	-200.000	0.007	-0.034
-142.502	149.882	0.057	0.076
-141.487	-80.350	-0.147	0.049
-140.472	800.000	-0.043	0.125
-139.458	-154.046	-0.342	-0.023
-138.443	-112.801	-0.152	-0.030
-137.429	27.680	0.125	0.104
-136.414	39.383	0.245	-0.216
-135.399	227.126	0.065	-0.105
-134.385	-200.000	0.023	-0.446
-133.370	-71.699	-0.022	0.008
-132.356	800.000	-0.039	-0.161
-131.341	-25.860	0.242	-0.140
-130.326	82.256	0.127	-0.136
-129.312	112.325	0.135	-0.161
-128.297	4.258	0.241	-0.174
-127.283	291.539	-0.162	-0.290
-126.268	11.066	0.071	0.053
-125.253	800.000	-0.061	0.219
-124.239	800.000	-0.049	0.136
-123.224	96.026	-0.145	0.163
-122.210	-17.405	-0.151	0.093
-121.195	282.828	0.158	0.280
-120.180	197.550	-0.088	-0.133
-119.166	-30.898	-0.158	-0.088
-118.151	800.000	0.090	-0.287
-117.137	130.961	-0.235	0.297
-116.122	-200.000	0.029	0.139
-115.107	-112.961	0.216	-0.042
-114.093	-200.000	0.023	-0.172
-113.078	-200.000	-0.004	-0.140
-112.064	-132.905	-0.164	0.021
-111.049	16.958	0.046	-0.036
-110.034	-200.000	-0.024	-0.394
-109.020	-200.000	0.041	0.214
-108.005	-122.799	-0.106	-0.017
-106.991	339.985	0.078	0.149
-105.976	-87.414	-0.140	0.042
-104.962	60.860	0.097	-0.095
-103.947	-200.000	0.048	0.263
-102.932	177.106	0.134	-0.192
-101.918	-129.117	-0.301	-0.041
-100.903	-48.152	0.130	-0.062
-99.889	-200.000	0.048	0.232
-98.874	6.308	-0.306	-0.223
-97.859	-140.790	0.237	-0.024
-96.845	-67.783	0.348	0.134
-95.830	-19.691	0.231	0.141
-94.816	-200.000	-0.010	0.301
-93.801	-73.064	-0.064	0.023
-92.786	-122.442	0.342	-0.055
-91.772	83.934	-0.259	0.279
-90.757	137.028	0.076	-0.098
-89.743	-200.000	0.026	-0.156
-88.728	-104.632	0.243	0.055
-87.713	471.556	-0.105	-0.232
-86.699	-37.169	0.109	-0.058
-85.684	-200.000	-0.036	0.238
-84.670	-54.594	-0.193	-0.086
-83.655	-157.628	-0.393	0.023
-82.640	122.986	0.051	0.063
-81.626	-73.775	-0.224	-0.080
-80.611	71.821	0.215	-0.219
-79.597	-200.000	-0.026	-0.145
-78.582	-167.394	-0.129	-0.005
-77.567	247.565	-0.117	-0.194
-76.553	-31.741	0.077	-0.043
-75.538	38.528	-0.055	-0.048
-74.524	-105.771	0.239	0.053
-73.509	417.772	0.162	-0.340
-72.494	404.695	-0.007	0.014
-71.480	-55.564	0.110	0.048
-70.465	-49.037	-0.098	-0.046
-69.451	-7.148	-0.324	0.216
-68.436	-59.029	0.103	0.044
-67.422	-200.000	0.012	0.418
-66.407	-58.661	0.112	-0.048
-65.392	-200.000	-0.033	-0.262
-64.378	-200.000	-0.020	0.176
-63.363	-134.742	-0.064	-0.008
-62.349	-13.902	0.035	0.022
-61.334	81.121	-0.754	-0.800
-60.319	242.348	0.286	0.469
-59.305	-200.000	-0.171	-0.991
-58.290	102.711	0.712	0.819
-57.276	327.418	0.838	1.578
-56.261	-200.000	108.963	595.649
-55.246	443.242	1488.426	3205.081
-54.232	146.319	2667.154	3517.268
-53.217	105.760	2154.221	2502.866
-52.203	40.720	1604.218	1420.816
-51.188	32.997	1345.654	1145.169
-50.173	29.975	1305.068	1092.780
-49.159	54.394	1359.962	1286.509
-48.144	54.585	1375.732	1302.526
-47.130	33.104	1329.807	1132.142
-46.115	29.625	1312.374	1096.645
-45.100	29.507	1307.712	1092.013
-44.086	29.358	1305.276	1089.051
-43.071	29.394	1302.181	1086.640
-42.057	29.363	1300.329	1084.872
-41.042	29.341	1298.790	1083.410
-40.027	29.456	1297.124	1082.653
-39.013	29.394	1294.946	1080.429
-37.998	29.318	1293.937	1079.103
-36.984	29.417	1291.908	1077.947
-35.969	29.429	1290.172	1076.523
-34.954	29.496	1288.646	1075.597
-33.940	29.454	1287.581	1074.423
-32.925	29.549	1286.170	1073.754
-31.911	29.659	1284.317	1072.802
-30.896	29.538	1283.401	1071.294
-29.881	29.572	1281.837	1070.144
-28.867	29.525	1280.240	1068.497
-27.852	29.695	1278.628	1068.091
-26.838	29.590	1277.773	1066.730
-25.823	29.555	1276.146	1065.125
-24.809	29.526	1275.180	1064.112
-23.794	29.565	1273.252	1062.681
-22.779	29.530	1272.186	1061.548
-21.765	29.599	1271.048	1060.955
-20.750	29.662	1269.754	1060.196
-19.736	29.531	1268.616	1058.448
-18.721	29.436	1267.223	1056.702
-17.706	29.450	1266.113	1055.815
-16.692	29.511	1265.173	1055.338
-15.677	29.397	1264.302	1053.916
-14.663	29.434	1263.062	1053.054
-13.648	29.453	1261.180	1051.551
-12.633	29.400	1260.867	1050.948
-11.619	29.420	1260.089	1050.370
-10.604	29.480	1258.822	1049.610
-9.590	29.446	1258.271	1048.916
-8.575	29.377	1257.104	1047.512
-7.560	29.373	1256.465	1046.919
-6.546	29.525	1255.300	1046.764
-5.531	29.396	1254.319	1045.177
-4.517	29.417	1253.436	1044.516
-3.502	29.438	1252.939	1044.182
-2.487	29.533	1251.751	1043.685
-1.473	29.351	1247.714	1039.250
-0.458	27.959	1232.816	1019.043
0.556	22.729	1216.469	982.198
1.571	19.257	1222.333	967.388
2.586	18.476	1237.112	974.558
3.600	18.240	1225.649	964.114
4.615	13.359	1153.148	881.068
5.629	4.507	1077.053	778.650
6.644	0.362	1057.791	744.223
7.659	0.019	1055.268	740.697
8.673	-0.018	1054.157	739.669
9.688	0.018	1052.742	738.786
10.702	0.151	1050.825	738.030
11.717	5.430	1057.345	768.532
12.731	13.831	1068.784	818.356
13.746	17.550	1072.535	839.524
14.761	16.901	1071.996	835.832
15.775	15.883	1069.789	829.026
16.790	14.917	1067.507	822.436
17.804	14.305	1065.961	818.165
18.819	13.858	1065.199	815.315
19.834	13.683	1063.704	813.236
20.848	13.436	1062.839	811.294
21.863	13.162	1062.540	809.653
22.877	13.142	1060.992	808.304
23.892	13.048	1060.526	807.416
24.907	12.993	1060.287	806.894
25.921	13.254	1058.806	806.970
26.936	13.028	1058.431	805.508
27.950	13.246	1057.614	805.882
28.965	13.170	1056.523	804.606
29.980	13.277	1054.886	803.812
30.994	13.301	1053.701	802.950
32.009	13.346	1053.163	802.690
33.023	13.388	1052.163	802.062
34.038	13.364	1051.102	801.062
35.053	13.324	1050.316	800.200
36.067	13.361	1048.910	799.236
37.082	13.178	1048.657	798.088
38.096	13.397	1047.300	798.045
39.111	13.323	1046.630	797.106
40.126	13.258	1045.755	796.056
41.140	13.166	1044.700	794.738
42.155	13.060	1043.850	793.512
43.169	13.094	1042.882	792.869
44.184	13.089	1041.828	791.976
45.199	12.988	1040.831	790.663
46.213	13.053	1039.827	790.139
47.228	13.136	1038.759	789.654
48.242	13.161	1037.813	788.986
49.257	13.035	1037.238	787.878
50.271	13.240	1035.577	787.524
51.286	13.184	1035.358	787.022
52.301	13.228	1034.138	786.231
53.315	13.227	1033.166	785.420
54.330	13.197	1032.117	784.411
55.344	13.214	1031.344	783.834
56.359	13.193	1030.500	783.025
57.374	13.029	1029.487	781.409
58.388	12.920	1028.693	780.219
59.403	12.974	1028.191	780.029
60.417	13.033	1027.050	779.373
61.432	12.949	1026.292	778.332
62.447	12.935	1025.596	777.668
63.461	12.920	1024.798	776.922
64.476	13.018	1023.550	776.371
65.490	12.985	1022.877	775.633
66.505	13.003	1022.626	775.459
67.520	12.970	1022.300	774.991
68.534	13.065	1021.102	774.458
69.549	13.038	1020.332	773.681
70.563	12.930	1019.564	772.525
71.578	13.091	1018.341	772.281
72.593	12.945	1018.084	771.335
73.607	12.938	1017.205	770.568
74.622	12.921	1016.421	769.826
75.636	12.931	1015.984	769.476
76.651	12.956	1015.135	768.880
77.666	12.902	1014.984	768.448
78.680	13.057	1013.661	768.098
79.695	13.054	1012.634	767.238
80.709	13.023	1012.591	766.994
81.724	13.043	1011.788	766.408
82.739	13.141	1011.289	766.417
83.753	13.209	1010.091	765.759
84.768	13.197	1009.338	765.062
85.782	13.382	1008.068	764.887
86.797	13.255	1007.661	763.925
87.812	13.215	1006.739	762.973
88.826	13.293	1005.828	762.575
89.841	13.201	1004.998	761.457
90.855	13.226	1004.403	761.052
91.870	13.284	1003.243	760.373
92.884	13.236	1002.515	759.534
93.899	13.303	1001.738	759.183
94.914	13.379	1000.896	758.829
95.928	13.307	999.966	757.725
96.943	13.296	999.006	756.881
97.957	13.293	998.205	756.192
98.972	13.358	997.378	755.798
99.987	13.300	996.507	754.807
101.001	13.372	995.353	754.192
102.016	13.295	994.607	753.209
103.030	13.266	993.890	752.469
104.045	13.231	993.403	751.876
105.060	13.311	992.285	751.324
106.074	13.205	991.332	750.058
107.089	13.098	990.221	748.664
108.103	13.112	989.187	747.881
109.118	13.045	988.258	746.809
110.133	13.119	987.310	746.360
111.147	13.094	986.531	745.593
112.162	13.164	985.730	745.234
113.176	13.115	985.494	744.770
114.191	13.213	984.480	744.381
115.206	13.166	983.676	743.497
116.220	13.095	982.788	742.439
117.235	13.249	981.675	742.225
118.249	13.128	981.026	741.125
119.264	13.091	980.353	740.382
120.279	13.157	979.559	740.013
121.293	13.075	978.715	738.944
122.308	12.995	977.897	737.906
123.322	13.087	976.639	737.301
124.337	13.041	975.906	736.476
125.352	13.101	974.613	735.703
126.366	13.049	973.920	734.881
127.381	13.108	972.786	734.226
128.395	13.093	971.708	733.280
129.410	13.135	970.960	732.836
130.424	13.165	970.207	732.335
131.439	13.233	969.623	732.133
132.454	13.140	968.776	731.018
133.468	13.207	967.721	730.451
134.483	13.250	966.712	729.814
135.497	13.268	965.785	729.131
136.512	13.269	965.117	728.565
137.527	13.317	964.078	727.929
138.541	13.229	963.611	727.127
139.556	13.234	963.006	726.627
140.570	13.335	961.912	726.179
141.585	13.295	961.143	725.359
142.600	13.436	959.968	725.025
143.614	13.466	959.294	724.584
144.629	13.347	958.950	723.741
145.643	13.323	958.120	722.943
146.658	13.351	956.776	721.989
147.673	13.453	955.895	721.706
148.687	13.198	955.050	719.892
149.702	13.334	954.008	719.633
150.716	13.315	953.501	719.104
151.731	13.398	952.516	718.659
152.746	13.324	952.437	718.215
153.760	13.370	951.680	717.782
154.775	13.339	951.349	717.333
155.789	13.401	950.512	716.909
156.804	13.359	950.009	716.280
157.819	13.499	948.707	715.844
158.833	13.442	948.446	715.335
159.848	13.597	947.446	715.189
160.862	13.569	946.490	714.284
161.877	13.496	945.368	713.059
162.892	13.490	944.445	712.273
163.906	13.345	944.112	711.335
164.921	13.419	943.412	711.062
165.935	13.527	942.102	710.475
166.950	13.521	940.970	709.532
167.964	13.417	940.752	708.860
168.979	13.454	939.406	707.940
169.994	13.584	938.420	707.691
171.008	13.543	937.909	707.068
172.023	13.571	937.166	706.565
173.037	13.587	936.791	706.287
174.052	13.582	936.098	705.683
175.067	13.464	935.832	704.918
176.081	13.518	934.782	704.294
177.096	13.379	934.180	703.186
178.110	13.493	933.694	703.244
179.125	13.556	933.109	703.005
180.140	13.593	932.658	702.764
181.154	13.626	931.763	702.163
182.169	13.651	931.550	702.048
183.183	13.758	930.541	701.678
184.198	13.799	929.593	701.074
185.213	13.705	929.337	700.423
186.227	13.746	928.345	699.785
187.242	13.822	927.810	699.642
188.256	13.779	927.575	699.222
189.271	13.765	926.823	698.533
190.286	13.664	925.641	697.156
191.300	13.550	925.318	696.371
192.315	13.496	925.028	695.865
193.329	13.548	924.037	695.275
194.344	13.650	923.407	695.166
195.359	13.658	923.114	694.921
196.373	13.698	922.798	694.789
197.388	13.842	921.906	694.658
198.402	14.074	921.166	695.008
199.417	13.902	920.808	693.957
200.432	13.979	920.327	693.858
201.446	14.035	919.868	693.682
202.461	13.955	919.327	692.877
203.475	13.961	918.771	692.424
204.490	13.773	918.237	691.176
205.504	13.990	917.141	691.194
206.519	13.842	916.536	690.063
207.534	14.019	915.750	690.142
208.548	13.997	915.012	689.433
209.563	14.091	914.086	689.065
210.577	13.884	914.050	688.119
211.592	14.029	913.045	687.904
212.607	14.143	912.411	687.835
213.621	14.050	911.813	686.940
214.636	14.081	911.131	686.493
215.650	14.143	910.507	686.218
216.665	14.135	909.491	685.356
217.680	14.246	908.829	685.254
218.694	14.230	908.008	684.512
219.709	14.320	907.103	684.138
220.723	14.232	906.899	683.560
221.738	14.157	906.150	682.630
222.753	14.312	905.368	682.616
223.767	14.352	905.035	682.467
224.782	14.288	904.310	681.598
225.796	14.284	904.192	681.430
226.811	14.399	903.086	681.008
227.826	14.320	902.595	680.254
228.840	14.323	901.645	679.490
229.855	14.333	900.974	678.968
230.869	14.388	900.206	678.550
231.884	14.284	899.212	677.320
232.899	14.261	898.503	676.630
233.913	14.332	897.810	676.336
234.928	14.315	897.281	675.812
235.942	14.179	897.231	675.164
236.957	14.385	896.135	675.114
237.972	14.509	895.429	675.022
238.986	14.289	894.827	673.618
240.001	14.351	894.538	673.591
241.015	14.330	893.897	672.964
242.030	14.597	892.738	673.110
243.045	14.453	892.508	672.299
244.059	14.481	892.046	672.004
245.074	14.491	891.280	671.404
246.088	14.564	890.843	671.312
247.103	14.515	889.962	670.390
248.117	14.695	889.650	670.820
249.132	14.757	888.949	670.480
250.147	14.749	888.046	669.710
251.161	14.799	887.285	669.276
252.176	14.794	886.697	668.753
253.190	14.790	886.606	668.610
254.205	14.838	885.972	668.263
255.220	14.861	885.072	667.618
256.234	14.841	884.450	667.011
257.249	14.932	883.738	666.774
258.263	14.914	883.030	666.111
259.278	14.969	882.361	665.766
260.293	15.025	881.577	665.338
261.307	15.100	881.194	665.287
262.322	14.913	880.848	664.228
263.336	15.126	879.874	664.277
264.351	15.029	879.119	663.266
265.366	15.037	878.411	662.701
266.380	14.986	878.450	662.473
267.395	14.891	877.765	661.521
268.409	14.975	876.752	661.032
269.424	15.049	875.749	660.511
270.439	14.962	875.041	659.574
271.453	14.928	874.904	659.279
272.468	15.015	874.525	659.276
273.482	15.007	873.761	658.609
274.497	15.065	872.717	657.995
275.512	15.209	872.355	658.228
276.526	15.117	871.952	657.505
277.541	15.238	871.188	657.346
278.555	15.233	870.824	656.993
279.570	15.231	870.036	656.333
280.585	15.295	869.066	655.791
281.599	15.190	868.579	654.956
282.614	15.216	868.135	654.664
283.628	15.280	867.259	654.198
284.643	15.168	867.074	653.560
285.657	15.234	865.992	652.947
286.672	15.246	865.631	652.661
287.687	15.205	864.812	651.828
288.701	15.218	864.323	651.450
289.716	15.419	863.658	651.675
290.730	15.335	863.407	651.102
291.745	15.365	862.790	650.694
292.760	15.320	862.544	650.277
293.774	15.362	861.834	649.845
294.789	15.393	860.639	649.008
295.803	15.398	860.000	648.490
296.818	15.399	859.520	648.072
297.833	15.226	858.899	646.880
298.847	15.459	858.469	647.395
299.862	15.509	857.679	646.936
300.876	15.482	857.055	646.306
301.891	15.541	856.518	646.070
302.906	15.456	856.395	645.591
303.920	15.709	855.418	645.772
304.935	15.772	854.802	645.488
305.949	15.598	854.362	644.434
306.964	15.649	853.675	644.052
307.979	15.665	852.975	643.531
308.993	15.678	852.898	643.464
310.008	15.802	851.600	642.903
311.022	15.559	851.267	641.668
312.037	15.691	850.753	641.724
313.052	15.681	850.226	641.234
314.066	15.708	849.819	640.973
315.081	15.704	849.360	640.556
316.095	15.609	848.570	639.541
317.110	15.675	847.758	639.121
318.125	15.655	847.457	638.763
319.139	15.603	847.172	638.293
320.154	15.663	846.451	637.921
321.168	15.658	846.303	637.734
322.183	15.806	845.589	637.700
323.197	15.791	845.109	637.228
324.212	15.738	844.381	636.421
325.227	15.651	843.813	635.608
326.241	15.811	842.807	635.396
327.256	15.686	843.035	635.041
328.270	15.903	841.891	634.942
329.285	15.779	841.823	634.365
330.300	15.910	840.967	634.159
331.314	15.764	840.419	633.138
332.329	15.810	840.009	632.950
333.343	15.837	839.467	632.586
334.358	15.997	839.155	632.896
335.373	15.943	838.936	632.469
336.387	15.985	838.208	632.024
337.402	15.968	838.340	632.004
338.416	15.985	838.059	631.800
339.431	16.063	837.595	631.686
340.446	16.168	836.972	631.556
341.460	16.060	836.975	631.094
342.475	16.171	836.433	631.045
343.489	16.113	835.998	630.446
344.504	16.315	835.184	630.529
345.519	16.289	834.982	630.225
346.533	16.300	834.297	629.692
347.548	16.233	833.833	629.037
348.562	16.257	832.893	628.363
349.577	16.141	832.838	627.834
350.592	16.216	832.000	627.423
351.606	16.037	831.603	626.405
352.621	16.117	830.735	625.994
353.635	16.200	830.137	625.795
354.650	16.162	829.836	625.371
355.665	16.384	828.762	625.327
356.679	16.341	828.113	624.623
357.694	16.416	827.260	624.202
358.708	16.393	826.759	623.684
359.723	16.342	826.749	623.433
360.738	16.349	825.658	622.581
361.752	16.419	825.433	622.614
362.767	16.482	824.777	622.297
363.781	16.483	824.257	621.851
364.796	16.637	823.979	622.153
365.810	16.384	823.762	621.004
366.825	16.548	823.093	621.049
367.840	16.661	822.412	620.894
368.854	16.485	822.463	620.232
369.869	16.495	821.917	619.803
370.883	16.697	821.209	619.955
371.898	16.638	821.214	619.686
372.913	16.768	820.358	619.460
373.927	16.706	819.958	618.878
374.942	16.669	819.648	618.454
375.956	16.713	819.398	618.372
376.971	16.748	818.952	618.107
377.986	16.769	818.515	617.798
379.000	16.889	817.786	617.629
380.015	16.809	817.371	616.971
381.029	16.876	816.214	616.286
382.044	16.827	816.277	616.104
383.059	17.027	815.453	616.152
384.073	16.879	814.844	615.102
385.088	16.846	814.155	614.406
386.102	16.758	813.972	613.895
387.117	16.900	813.257	613.815
388.132	16.821	812.519	612.918
389.146	16.679	812.390	612.252
390.161	16.782	812.012	612.287
391.175	16.920	811.362	612.242
392.190	16.744	811.169	611.404
393.205	16.876	810.487	611.315
394.219	16.890	810.302	611.170
395.234	16.930	809.493	610.651
396.248	16.807	809.195	609.930
397.263	16.808	808.722	609.523
398.278	16.908	808.173	609.414
399.292	17.030	807.703	609.443
400.307	16.930	807.429	608.825
401.321	16.916	806.885	608.310
402.336	16.989	806.544	608.259
403.350	16.955	806.119	607.765
404.365	16.936	805.624	607.269
405.380	17.168	804.822	607.439
406.394	17.227	804.251	607.167
407.409	17.173	804.022	606.746
408.423	17.153	803.875	606.511
409.438	17.273	803.233	606.402
410.453	17.284	802.876	606.118
411.467	17.274	802.336	605.622
412.482	17.252	802.028	605.256
413.496	17.314	801.931	605.349
414.511	17.320	801.687	605.135
415.526	17.412	800.665	604.634
416.540	17.279	800.336	603.862
417.555	17.445	799.643	603.875
418.569	17.392	799.202	603.300
419.584	17.472	799.066	603.427
420.599	17.531	798.487	603.146
421.613	108.984	1293.051	1469.465
422.628	93.700	1365.117	1469.535
