DTS Sentinel unit serial number:	SN413079Multiplexer serial number:	ORYXHardware model number:	OX4-SRSoftware version number:	ORYX F/W v4.00 Oryx Data Collector v3.7.2.0data status	okinstallation	princeton_trtdifferential loss correction	single-endedforward channel	channel 1reverse channel	N/Adate	2019/09/14time	15:22:35forward acquisition time	60.00reverse acquisition time	0.00gamma	496.2192k internal	0.2295k external	0.2295temperature offset calibration	1.0071default loss term (dB/km)	0.3790temperature slope calibration	1.0000multiplexer offset coefficient	1.0000multiplexer slope coefficient	1.0000fibre end	0.00T internal ref (°C)	39.06T ext. ref 1 (°C)	5.10T ext. ref 2 (°C)	33.77length (m)	temperature (°C)	Stokes	anti-Stokes-747.200	-78.412	0.251	0.088
-746.185	119.325	-0.077	0.098
-745.171	-101.980	-0.141	-0.035
-744.156	391.005	0.124	0.263
-743.142	104.830	-0.181	0.218
-742.127	247.025	-0.151	0.260
-741.112	-78.770	-0.213	-0.074
-740.098	41.522	0.155	0.143
-739.083	164.539	-0.143	-0.207
-738.069	-25.648	-0.102	0.062
-737.054	-107.667	0.115	0.026
-736.039	-197.906	0.115	0.001
-735.025	-89.449	0.311	-0.093
-734.010	800.000	0.075	-0.222
-732.996	-113.990	-0.504	0.100
-731.981	-100.437	-0.208	0.053
-730.966	230.825	-0.216	-0.362
-729.952	-200.000	0.008	-0.362
-728.937	213.614	-0.116	-0.188
-727.923	800.000	0.065	-0.203
-726.908	54.158	0.188	-0.185
-725.894	51.490	-0.093	-0.090
-724.879	-198.462	0.163	-0.001
-723.864	175.256	0.133	0.197
-722.850	198.013	-0.210	0.327
-721.835	46.750	0.106	0.101
-720.821	154.968	0.055	0.077
-719.806	6.984	-0.182	-0.138
-718.791	10.230	-0.136	0.106
-717.777	87.305	0.221	-0.250
-716.762	475.160	-0.193	-0.444
-715.748	62.705	-0.110	-0.112
-714.733	11.713	-0.187	-0.147
-713.718	800.000	0.075	0.308
-712.704	-111.236	-0.229	0.048
-711.689	-167.676	-0.446	0.018
-710.675	757.201	0.173	0.477
-709.660	274.732	-0.070	0.127
-708.645	800.000	-0.070	-0.208
-707.631	-104.826	-0.351	-0.082
-706.616	116.483	0.144	-0.181
-705.602	-80.964	-0.223	-0.075
-704.587	15.964	0.178	-0.143
-703.572	-98.962	0.163	0.042
-702.558	-16.490	-0.309	-0.200
-701.543	160.117	-0.038	-0.054
-700.529	-39.329	-0.201	0.107
-699.514	-200.000	0.011	-0.123
-698.499	-200.000	-0.059	0.263
-697.485	104.534	0.247	0.297
-696.470	153.933	-0.098	0.137
-695.456	5.853	-0.249	-0.188
-694.441	-62.298	-0.112	-0.048
-693.426	39.502	-0.262	-0.240
-692.412	-42.359	-0.148	0.077
-691.397	-34.335	-0.081	-0.045
-690.383	-200.000	-0.028	-0.309
-689.368	-17.432	0.080	0.051
-688.354	722.513	-0.100	-0.270
-687.339	-176.556	-0.171	-0.004
-686.324	-200.000	-0.065	-0.336
-685.310	244.260	0.129	0.221
-684.295	266.056	0.044	0.079
-683.281	-200.000	0.002	-0.230
-682.266	370.178	0.084	-0.173
-681.251	800.000	-0.055	-0.189
-680.237	-200.000	-0.068	-0.378
-679.222	164.332	-0.163	-0.234
-678.208	-26.424	0.071	-0.043
-677.193	20.927	0.024	0.020
-676.178	-135.933	-0.132	-0.016
-675.164	800.000	0.022	0.087
-674.149	-62.883	0.343	0.145
-673.135	382.086	0.124	0.259
-672.120	-200.000	0.006	0.152
-671.105	-49.412	-0.092	0.045
-670.091	-200.000	-0.054	0.415
-669.076	-200.000	0.012	0.133
-668.062	-147.005	0.565	0.049
-667.047	331.239	0.108	-0.213
-666.032	598.957	0.131	-0.332
-665.018	-166.902	0.262	0.011
-664.003	496.106	-0.079	-0.186
-662.989	228.130	-0.159	-0.264
-661.974	108.265	0.174	0.211
-660.959	-133.825	0.204	0.026
-659.945	800.000	0.040	-0.159
-658.930	106.849	-0.078	-0.095
-657.916	53.603	-0.124	-0.122
-656.901	-200.000	-0.005	-0.081
-655.886	-138.997	-0.205	0.023
-654.872	-200.000	-0.010	-0.112
-653.857	166.495	-0.069	-0.100
-652.843	-147.366	0.087	0.008
-651.828	242.112	-0.138	0.235
-650.814	97.589	-0.266	-0.312
-649.799	-200.000	-0.008	0.098
-648.784	49.321	-0.135	-0.130
-647.770	160.071	0.150	0.213
-646.755	-200.000	-0.017	0.178
-645.741	-152.842	0.026	-0.002
-644.726	-200.000	-0.013	0.191
-643.711	-200.000	-0.021	0.186
-642.697	-136.295	-0.161	0.019
-641.682	97.083	-0.183	-0.213
-640.668	591.714	0.085	-0.214
-639.653	800.000	0.034	0.129
-638.638	-73.052	0.194	0.072
-637.624	-128.311	0.172	-0.025
-636.609	193.548	-0.229	-0.352
-635.595	177.590	-0.095	-0.141
-634.580	25.673	0.221	-0.188
-633.565	575.593	0.068	-0.170
-632.551	318.668	-0.047	0.090
-631.536	66.582	-0.256	0.265
-630.522	800.000	0.101	-0.287
-629.507	-200.000	-0.001	0.144
-628.492	729.738	-0.032	-0.087
-627.478	137.925	0.176	0.235
-626.463	-111.704	-0.019	0.004
-625.449	71.403	-0.186	0.197
-624.434	-169.248	0.362	0.014
-623.419	206.696	0.088	-0.139
-622.405	601.619	0.004	-0.011
-621.390	-58.802	0.170	0.075
-620.376	-26.561	-0.223	-0.133
-619.361	-200.000	-0.019	-0.141
-618.346	-164.696	-0.497	0.023
-617.332	419.326	-0.093	-0.203
-616.317	24.510	0.096	-0.081
-615.303	541.615	-0.076	0.185
-614.288	-166.343	-0.351	-0.015
-613.273	159.617	-0.073	-0.103
-612.259	-200.000	-0.030	0.253
-611.244	-200.000	-0.005	0.126
-610.230	167.402	0.131	-0.190
-609.215	-200.000	-0.064	-0.365
-608.201	450.797	-0.228	-0.511
-607.186	800.000	-0.057	-0.223
-606.171	-200.000	0.039	0.218
-605.157	-29.131	-0.199	0.116
-604.142	-13.879	0.291	-0.191
-603.128	268.912	-0.162	-0.290
-602.113	-61.937	0.264	0.112
-601.098	205.542	0.174	-0.275
-600.084	800.000	-0.065	-0.191
-599.069	-200.000	0.013	-0.425
-598.055	92.878	-0.092	-0.105
-597.040	-200.000	-0.009	0.084
-596.025	-58.927	-0.185	0.081
-595.011	-83.729	-0.285	-0.092
-593.996	-200.000	-0.002	-0.176
-592.982	-115.068	0.147	0.028
-591.967	529.316	-0.108	-0.260
-590.952	-200.000	-0.003	-0.219
-589.938	73.141	0.133	-0.141
-588.923	-200.000	-0.001	-0.105
-587.909	800.000	0.059	0.194
-586.894	-116.108	0.408	-0.077
-585.879	1.117	0.205	0.149
-584.865	621.518	-0.073	-0.187
-583.850	800.000	0.063	-0.230
-582.836	-79.793	-0.280	0.096
-581.821	5.553	0.099	0.074
-580.806	122.725	0.295	-0.375
-579.792	-50.525	-0.153	0.073
-578.777	138.574	0.180	0.240
-577.763	36.758	-0.120	0.108
-576.748	-200.000	-0.006	0.231
-575.733	-149.342	-0.339	0.027
-574.719	147.025	-0.309	-0.422
-573.704	214.168	0.107	0.173
-572.690	800.000	0.136	0.413
-571.675	-118.581	0.226	0.041
-570.661	403.935	0.026	-0.056
-569.646	69.189	0.075	0.079
-568.631	-109.406	-0.414	0.089
-567.617	-2.471	0.187	-0.133
-566.602	649.815	-0.022	-0.056
-565.588	-200.000	-0.004	0.114
-564.573	261.853	-0.089	-0.156
-563.558	84.328	0.046	0.051
-562.544	-90.980	-0.224	-0.065
-561.529	-200.000	-0.011	-0.413
-560.515	-109.652	-0.118	-0.025
-559.500	800.000	-0.068	0.243
-558.485	800.000	0.082	-0.253
-557.471	-101.942	0.237	-0.058
-556.456	83.401	-0.083	-0.092
-555.442	-148.066	-0.112	-0.009
-554.427	132.623	0.142	-0.185
-553.412	130.913	-0.136	-0.177
-552.398	-137.952	0.269	-0.031
-551.383	55.224	-0.140	0.137
-550.369	42.037	-0.222	0.205
-549.354	-98.307	0.227	0.059
-548.339	-166.486	0.488	-0.021
-547.325	-200.000	0.009	-0.119
-546.310	69.515	0.175	0.183
-545.296	-138.031	0.198	0.022
-544.281	33.256	-0.145	0.128
-543.266	185.616	-0.169	-0.255
-542.252	800.000	0.034	-0.107
-541.237	-110.438	0.279	-0.059
-540.223	12.293	0.225	0.176
-539.208	213.819	0.076	-0.122
-538.193	-88.007	0.161	0.049
-537.179	66.689	-0.131	0.136
-536.164	-72.602	0.196	0.073
-535.150	593.056	0.049	-0.123
-534.135	-200.000	-0.032	-0.246
-533.121	-1.415	0.331	0.237
-532.106	32.068	-0.300	0.262
-531.091	-86.061	-0.344	0.108
-530.077	800.000	-0.056	0.179
-529.062	800.000	0.042	-0.147
-528.048	-90.244	0.142	-0.042
-527.033	91.429	0.168	-0.191
-526.018	409.944	0.037	-0.078
-525.004	800.000	-0.060	0.175
-523.989	459.474	0.194	0.437
-522.975	-200.000	-0.022	0.000
-521.960	128.283	-0.125	-0.161
-520.945	5.144	0.056	0.042
-519.931	-60.119	0.067	-0.029
-518.916	-155.020	-0.129	0.009
-517.902	251.860	0.079	-0.137
-516.887	-77.201	0.583	0.206
-515.872	65.485	-0.021	0.021
-514.858	800.000	-0.082	-0.297
-513.843	-160.130	-0.161	0.009
-512.829	16.059	-0.107	-0.085
-511.814	-174.596	0.305	-0.009
-510.799	800.000	0.051	0.203
-509.785	800.000	0.064	0.203
-508.770	123.715	-0.224	-0.284
-507.756	92.775	-0.109	0.125
-506.741	-200.000	-0.006	-0.122
-505.726	-38.079	0.382	0.205
-504.712	-21.194	-0.261	0.162
-503.697	-84.635	-0.352	-0.112
-502.683	121.576	-0.105	-0.133
-501.668	-15.925	0.205	0.132
-500.653	-145.201	-0.084	0.008
-499.639	697.928	-0.028	-0.076
-498.624	-56.151	0.561	-0.253
-497.610	97.531	0.112	-0.131
-496.595	-165.782	0.343	0.015
-495.581	800.000	0.106	0.357
-494.566	255.014	0.172	0.299
-493.551	-200.000	0.023	0.397
-492.537	-200.000	-0.019	0.155
-491.522	107.152	-0.273	0.328
-490.508	-100.682	0.287	0.072
-489.493	-120.050	-0.226	0.039
-488.478	541.097	-0.077	-0.185
-487.464	-118.305	0.126	0.023
-486.449	-200.000	-0.027	0.135
-485.435	127.258	-0.086	-0.111
-484.420	-6.476	-0.050	-0.035
-483.405	-54.412	-0.225	-0.103
-482.391	315.134	0.185	0.352
-481.376	-13.843	-0.114	-0.075
-480.362	-10.281	0.047	0.032
-479.347	-188.010	-0.050	-0.001
-478.332	-51.782	-0.191	0.090
-477.318	-140.582	-0.212	0.022
-476.303	303.428	-0.015	-0.029
-475.289	-200.000	-0.025	0.183
-474.274	18.976	0.096	0.078
-473.259	-200.000	0.032	0.157
-472.245	800.000	0.019	-0.074
-471.230	199.653	0.249	0.386
-470.216	800.000	0.035	0.131
-469.201	92.385	0.099	-0.113
-468.186	124.672	0.127	0.162
-467.172	800.000	0.079	0.241
-466.157	-194.631	0.293	0.002
-465.143	800.000	-0.016	-0.063
-464.128	800.000	-0.127	0.383
-463.113	96.387	0.070	-0.080
-462.099	-200.000	0.016	0.202
-461.084	10.345	-0.211	0.162
-460.070	-200.000	-0.001	0.170
-459.055	-129.298	0.215	0.030
-458.040	116.025	0.124	-0.153
-457.026	380.738	-0.047	0.098
-456.011	126.102	-0.273	-0.349
-454.997	225.545	-0.236	-0.386
-453.982	-200.000	-0.025	-0.527
-452.968	-163.438	0.298	-0.014
-451.953	-52.356	-0.246	0.115
-450.938	165.647	-0.170	0.243
-449.924	88.271	0.264	0.296
-448.909	-91.139	-0.025	-0.007
-447.895	-103.145	-0.230	-0.055
-446.880	115.927	-0.207	0.256
-445.865	250.793	-0.115	0.198
-444.851	141.488	-0.046	-0.061
-443.836	-60.294	-0.321	-0.138
-442.822	-93.035	-0.238	-0.067
-441.807	-5.589	0.124	0.086
-440.792	-129.655	-0.160	-0.022
-439.778	-143.980	0.353	0.034
-438.763	-174.699	0.091	0.003
-437.749	-78.429	0.223	0.077
-436.734	-200.000	-0.040	-0.277
-435.719	-108.098	-0.250	-0.055
-434.705	666.461	0.105	-0.275
-433.690	-200.000	-0.012	-0.075
-432.676	-200.000	-0.017	-0.319
-431.661	-134.613	0.191	-0.024
-430.646	-101.494	-0.177	-0.044
-429.632	183.292	0.144	0.215
-428.617	-0.368	0.064	-0.046
-427.603	-200.000	-0.048	0.226
-426.588	30.075	-0.097	-0.084
-425.573	-101.098	-0.370	0.092
-424.559	-61.938	0.135	0.057
-423.544	12.234	0.135	0.105
-422.530	800.000	0.053	0.198
-421.515	-49.856	-0.151	-0.073
-420.500	-9.240	0.246	-0.166
-419.486	327.139	0.129	-0.250
-418.471	-171.916	0.237	-0.008
-417.457	-57.503	-0.320	-0.142
-416.442	436.722	0.017	0.037
-415.428	-22.946	0.164	0.100
-414.413	220.793	0.160	-0.259
-413.398	-49.342	-0.348	0.168
-412.384	-55.104	-0.260	-0.118
-411.369	-71.204	0.178	0.068
-410.355	555.014	-0.018	0.043
-409.340	-33.496	0.379	0.211
-408.325	-200.000	0.010	0.110
-407.311	-200.000	0.009	0.374
-406.296	-108.657	0.079	0.017
-405.282	-14.141	0.139	0.090
-404.267	363.748	0.198	-0.401
-403.252	-132.465	-0.145	0.019
-402.238	41.180	-0.050	-0.045
-401.223	122.542	-0.232	-0.292
-400.209	132.449	0.117	0.153
-399.194	344.711	0.164	-0.325
-398.179	-85.788	-0.360	-0.112
-397.165	-184.734	0.430	0.007
-396.150	-22.592	0.199	0.121
-395.136	-106.824	0.214	0.048
-394.121	116.342	-0.025	-0.031
-393.106	800.000	-0.021	-0.062
-392.092	-200.000	-0.037	-0.353
-391.077	-200.000	-0.037	0.381
-390.063	96.332	-0.087	-0.100
-389.048	-32.061	-0.445	-0.251
-388.033	77.770	-0.269	-0.289
-387.019	-118.438	-0.172	0.031
-386.004	13.338	-0.263	0.206
-384.990	-25.943	0.312	-0.185
-383.975	430.956	0.159	-0.346
-382.960	-57.160	-0.304	0.135
-381.946	-143.676	-0.401	-0.038
-380.931	-128.027	-0.106	0.015
-379.917	-66.298	0.110	0.044
-378.902	-136.368	0.246	-0.029
-377.888	-34.599	-0.082	0.045
-376.873	-200.000	0.200	0.000
-375.858	559.357	0.179	0.435
-374.844	-200.000	-0.031	0.215
-373.829	-84.506	-0.311	-0.099
-372.815	37.725	0.184	-0.164
-371.800	459.940	0.112	-0.251
-370.785	-200.000	-0.031	0.188
-369.771	162.876	0.214	-0.303
-368.756	52.609	0.125	0.120
-367.742	-19.806	0.133	0.083
-366.727	-200.000	0.014	-0.118
-365.712	-84.940	-0.077	-0.024
-364.698	-49.644	0.139	-0.067
-363.683	-91.713	-0.236	-0.068
-362.669	-200.000	-0.023	0.150
-361.654	800.000	-0.038	-0.120
-360.639	-200.000	-0.037	0.241
-359.625	48.722	-0.252	0.238
-358.610	379.495	-0.097	-0.200
-357.596	74.376	-0.192	-0.204
-356.581	-123.233	0.286	0.046
-355.566	-200.000	-0.005	-0.173
-354.552	6.238	0.303	0.226
-353.537	369.598	0.106	-0.216
-352.523	-200.000	-0.003	0.263
-351.508	649.702	-0.175	-0.452
-350.493	-178.700	-0.568	-0.013
-349.479	52.827	-0.165	-0.159
-348.464	-25.771	-0.133	-0.079
-347.450	84.228	0.265	0.291
-346.435	-59.523	0.162	-0.070
-345.420	-96.290	0.150	0.040
-344.406	-200.000	-0.028	0.161
-343.391	478.412	0.232	0.529
-342.377	-124.500	0.193	0.030
-341.362	800.000	0.082	0.283
-340.348	-23.490	-0.286	-0.173
-339.333	-42.276	0.084	-0.043
-338.318	-200.000	-0.049	0.249
-337.304	-200.000	0.082	0.396
-336.289	-200.000	0.009	0.156
-335.275	106.551	-0.162	-0.194
-334.260	-200.000	0.059	0.279
-333.245	-49.912	-0.188	-0.090
-332.231	147.744	-0.077	-0.105
-331.216	-200.000	0.010	-0.127
-330.202	-95.934	0.189	0.051
-329.187	-200.000	0.008	-0.163
-328.172	-65.805	0.369	-0.148
-327.158	-63.203	-0.270	0.112
-326.143	11.075	0.236	0.182
-325.129	-200.000	0.024	-0.144
-324.114	261.819	-0.143	0.249
-323.099	-29.747	-0.260	0.149
-322.085	-200.000	0.042	-0.316
-321.070	-16.451	-0.050	0.032
-320.056	-175.401	-0.315	-0.009
-319.041	-140.057	0.295	0.031
-318.026	-85.880	0.157	-0.049
-317.012	-41.246	0.259	0.134
-315.997	51.836	-0.161	0.154
-314.983	93.101	0.273	0.310
-313.968	231.623	0.008	-0.014
-312.953	109.103	-0.180	-0.216
-311.939	47.270	-0.144	0.135
-310.924	-87.833	-0.071	0.022
-309.910	-77.230	0.343	-0.120
-308.895	-200.000	-0.043	-0.215
-307.880	-51.679	-0.239	-0.112
-306.866	800.000	-0.082	-0.292
-305.851	480.294	0.086	0.196
-304.837	-200.000	0.040	0.208
-303.822	-102.591	0.198	-0.048
-302.807	-89.090	0.399	-0.118
-301.793	-200.000	-0.008	-0.078
-300.778	-82.897	-0.259	0.084
-299.764	-115.522	-0.520	-0.098
-298.749	-200.000	0.031	0.198
-297.735	80.222	0.117	-0.127
-296.720	164.131	-0.149	0.210
-295.705	36.396	-0.128	-0.114
-294.691	-90.328	-0.372	-0.109
-293.676	-142.701	-0.278	-0.027
-292.662	-63.799	0.347	-0.143
-291.647	242.925	0.018	-0.031
-290.632	-200.000	-0.043	-0.227
-289.618	327.651	0.094	-0.182
-288.603	34.767	-0.141	0.124
-287.589	58.468	-0.156	-0.154
-286.574	-82.636	-0.165	-0.054
-285.559	-200.000	0.025	0.148
-284.545	-111.967	0.154	0.031
-283.530	-32.045	-0.154	-0.086
-282.516	-41.466	-0.186	-0.096
-281.501	-126.057	-0.214	0.032
-280.486	97.620	0.212	0.245
-279.472	-200.000	-0.008	0.287
-278.457	-102.105	0.358	-0.086
-277.443	-111.791	-0.302	-0.061
-276.428	503.913	-0.063	-0.147
-275.413	-95.893	-0.205	-0.055
-274.399	800.000	0.099	0.329
-273.384	133.913	-0.327	0.425
-272.370	-200.000	0.070	0.353
-271.355	448.689	0.118	-0.262
-270.340	135.235	-0.074	-0.096
-269.326	303.692	-0.066	-0.123
-268.311	523.958	0.105	-0.248
-267.297	-119.446	-0.302	-0.053
-266.282	-138.883	-0.096	-0.010
-265.267	800.000	0.134	0.532
-264.253	196.270	0.234	-0.358
-263.238	-167.324	-0.111	-0.004
-262.224	-76.390	-0.270	-0.095
-261.209	-200.000	0.031	-0.194
-260.195	105.619	-0.080	0.095
-259.180	283.812	0.206	-0.372
-258.165	-200.000	0.034	-0.236
-257.151	-74.358	-0.240	0.087
-256.136	714.651	-0.060	-0.160
-255.122	-200.000	0.012	0.286
-254.107	109.743	0.060	0.072
-253.092	-73.542	0.196	0.072
-252.078	800.000	0.064	0.226
-251.063	-200.000	-0.031	-0.232
-250.049	761.808	0.064	0.175
-249.034	71.421	0.230	0.240
-248.019	-81.426	0.161	0.053
-247.005	-195.866	0.400	-0.003
-245.990	733.510	0.019	-0.050
-244.976	-200.000	-0.031	0.157
-243.961	-55.627	0.223	0.100
-242.946	287.637	-0.197	0.357
-241.932	5.093	0.130	-0.096
-240.917	-65.087	0.006	0.002
-239.903	100.617	0.123	0.144
-238.888	100.742	0.273	-0.318
-237.873	-190.881	-0.076	-0.001
-236.859	-107.208	0.209	-0.046
-235.844	423.373	0.181	0.390
-234.830	-118.396	-0.350	0.062
-233.815	92.340	0.114	-0.129
-232.800	-70.564	-0.253	-0.096
-231.786	-200.000	-0.011	-0.091
-230.771	6.237	-0.233	0.173
-229.757	-85.156	-0.074	-0.023
-228.742	157.820	-0.065	-0.091
-227.727	-200.000	-0.028	0.191
-226.713	-8.652	-0.039	-0.026
-225.698	-200.000	-0.033	-0.155
-224.684	41.737	0.206	0.187
-223.669	111.265	-0.213	0.257
-222.655	-47.127	0.187	0.092
-221.640	-21.237	0.097	0.060
-220.625	-59.300	-0.274	-0.118
-219.611	-44.024	-0.073	0.037
-218.596	-114.836	-0.133	-0.025
-217.582	77.711	-0.339	0.362
-216.567	-120.300	-0.085	-0.014
-215.552	48.377	0.101	-0.095
-214.538	-200.000	-0.025	-0.163
-213.523	-82.352	0.191	-0.062
-212.509	-75.263	-0.162	0.058
-211.494	-200.000	0.008	0.114
-210.479	-122.463	0.212	0.035
-209.465	-44.516	0.088	-0.044
-208.450	111.717	-0.248	-0.299
-207.436	47.075	0.224	-0.209
-206.421	-108.133	0.270	0.059
-205.406	313.239	-0.082	-0.155
-204.392	-200.000	-0.023	-0.211
-203.377	-200.000	0.018	-0.278
-202.363	-98.083	-0.128	-0.033
-201.348	81.941	-0.195	-0.211
-200.333	-13.079	0.054	0.035
-199.319	800.000	-0.095	0.388
-198.304	-200.000	-0.011	-0.077
-197.290	-150.687	-0.145	-0.011
-196.275	800.000	0.081	0.351
-195.260	-200.000	-0.001	0.011
-194.246	-9.432	-0.182	-0.121
-193.231	-109.515	-0.215	0.046
-192.217	504.749	0.123	-0.284
-191.202	-60.007	-0.020	-0.008
-190.187	21.262	0.113	-0.092
-189.173	-200.000	0.016	0.215
-188.158	-36.860	-0.204	-0.109
-187.144	-200.000	0.044	-0.279
-186.129	-122.799	-0.098	-0.016
-185.114	-142.311	-0.159	0.016
-184.100	124.418	0.099	-0.124
-183.085	-88.710	0.157	-0.047
-182.071	-96.644	0.153	-0.040
-181.056	800.000	-0.034	0.122
-180.042	141.864	-0.106	-0.140
-179.027	34.477	0.315	0.275
-178.012	800.000	-0.073	-0.229
-176.998	20.399	-0.058	0.047
-175.983	50.278	-0.067	0.063
-174.969	-132.370	0.171	-0.022
-173.954	292.145	0.092	0.168
-172.939	-50.941	-0.224	0.105
-171.925	-186.418	0.106	-0.002
-170.910	60.444	0.138	-0.136
-169.896	-73.151	0.311	0.114
-168.881	26.828	-0.112	0.094
-167.866	-4.419	-0.147	-0.102
-166.852	800.000	-0.043	0.150
-165.837	160.387	0.087	0.121
-164.823	-16.355	0.300	0.190
-163.808	-200.000	-0.027	-0.163
-162.793	-149.086	0.151	0.012
-161.779	-200.000	0.089	0.396
-160.764	-14.975	0.287	0.184
-159.750	800.000	-0.097	-0.308
-158.735	105.155	-0.187	0.220
-157.720	45.585	0.115	0.106
-156.706	-74.386	0.327	-0.118
-155.691	-152.712	-0.358	-0.025
-154.677	-68.522	-0.234	-0.091
-153.662	-200.000	-0.002	-0.169
-152.647	-172.090	-0.178	0.006
-151.633	42.258	-0.115	-0.104
-150.618	190.320	0.227	-0.340
-149.604	266.288	-0.107	-0.187
-148.589	-200.000	0.014	0.096
-147.574	43.314	-0.110	0.100
-146.560	-200.000	0.032	0.295
-145.545	-37.037	0.280	-0.150
-144.531	-141.581	-0.210	-0.021
-143.516	84.839	0.272	0.298
-142.502	60.849	-0.086	-0.085
-141.487	-40.787	0.231	-0.120
-140.472	37.826	-0.203	0.180
-139.458	-96.368	-0.354	-0.094
-138.443	-33.635	-0.274	0.151
-137.429	-55.673	0.178	0.080
-136.414	-3.563	-0.142	-0.099
-135.399	-131.237	-0.299	0.040
-134.385	-117.446	0.143	0.026
-133.370	84.902	0.043	-0.047
-132.356	800.000	0.020	-0.062
-131.341	-128.080	0.077	-0.011
-130.326	467.748	-0.070	0.156
-129.312	-16.125	0.185	0.117
-128.297	-9.654	-0.040	0.027
-127.283	-200.000	0.035	-0.579
-126.268	76.455	-0.149	0.157
-125.253	128.191	-0.047	-0.059
-124.239	800.000	-0.089	0.279
-123.224	1.450	-0.032	0.023
-122.210	392.404	0.057	0.119
-121.195	-200.000	-0.053	0.254
-120.180	-200.000	-0.006	0.098
-119.166	-200.000	0.038	-0.228
-118.151	-169.730	0.105	0.004
-117.137	-94.468	-0.035	-0.009
-116.122	-57.510	-0.410	-0.180
-115.107	-136.079	0.306	-0.036
-114.093	-156.757	0.240	-0.015
-113.078	-114.336	-0.208	-0.040
-112.064	-200.000	-0.009	-0.094
-111.049	203.082	-0.137	0.211
-110.034	84.607	0.101	0.111
-109.020	-95.907	0.145	-0.039
-108.005	-200.000	0.004	0.264
-106.991	525.094	0.148	0.347
-105.976	497.827	-0.024	0.055
-104.962	92.873	-0.196	0.220
-103.947	-68.430	0.100	0.039
-102.932	-200.000	0.029	-0.320
-101.918	-200.000	-0.018	-0.190
-100.903	165.514	0.050	-0.070
-99.889	800.000	-0.077	0.224
-98.874	-200.000	-0.019	0.105
-97.859	520.264	0.123	0.287
-96.845	-58.161	0.249	-0.108
-95.830	-125.753	0.384	0.058
-94.816	-20.317	0.158	-0.097
-93.801	-146.207	-0.333	-0.029
-92.786	800.000	-0.035	-0.102
-91.772	-105.194	0.231	0.053
-90.757	-103.193	-0.184	-0.043
-89.743	800.000	-0.034	0.144
-88.728	56.360	0.017	0.017
-87.713	63.866	0.145	-0.145
-86.699	-53.180	-0.088	0.040
-85.684	-58.019	0.254	-0.111
-84.670	-200.000	0.033	0.225
-83.655	800.000	0.081	0.335
-82.640	52.766	0.304	0.289
-81.626	4.852	-0.386	-0.283
-80.611	100.104	0.085	-0.098
-79.597	-200.000	0.039	0.240
-78.582	-26.335	0.080	-0.047
-77.567	-26.712	-0.151	0.088
-76.553	-94.302	0.303	-0.083
-75.538	-200.000	0.053	-0.260
-74.524	-200.000	-0.121	0.000
-73.509	-200.000	0.029	0.284
-72.494	-71.740	0.253	-0.094
-71.480	-171.632	0.125	0.004
-70.465	606.965	0.053	-0.132
-69.451	-200.000	-0.016	0.244
-68.436	-12.185	-0.182	-0.118
-67.422	-131.176	-0.168	0.022
-66.407	169.794	-0.242	0.345
-65.392	131.873	-0.166	-0.213
-64.378	35.867	0.072	0.063
-63.363	-200.000	-0.001	-0.139
-62.349	800.000	0.086	0.350
-61.334	-19.322	-0.929	-0.573
-60.319	50.746	0.438	0.413
-59.305	-200.000	-0.139	-0.796
-58.290	221.073	0.528	0.844
-57.276	252.191	0.841	1.425
-56.261	-200.000	82.189	498.347
-55.246	556.008	1364.815	3271.125
-54.232	183.794	2589.082	3810.988
-53.217	120.466	2237.339	2765.205
-52.203	50.053	1689.366	1586.441
-51.188	42.509	1420.619	1285.955
-50.173	39.162	1376.487	1225.140
-49.159	57.183	1415.675	1374.054
-48.144	62.559	1434.843	1426.511
-47.130	42.868	1395.368	1265.155
-46.115	39.250	1377.934	1226.782
-45.100	39.016	1373.595	1221.418
-44.086	38.953	1371.056	1218.717
-43.071	38.823	1369.141	1216.163
-42.057	38.943	1366.386	1214.406
-41.042	38.949	1364.558	1212.773
-40.027	38.983	1363.358	1211.865
-39.013	38.942	1361.476	1209.892
-37.998	39.031	1359.852	1208.953
-36.984	38.970	1357.891	1206.788
-35.969	39.083	1356.138	1205.870
-34.954	39.164	1354.062	1204.476
-33.940	39.100	1353.125	1203.200
-32.925	39.212	1351.234	1202.159
-31.911	39.153	1349.669	1200.357
-30.896	39.217	1348.262	1199.446
-29.881	39.219	1346.728	1198.048
-28.867	39.147	1345.602	1196.560
-27.852	39.204	1343.863	1195.315
-26.838	39.152	1342.641	1193.866
-25.823	39.081	1341.260	1192.157
-24.809	39.091	1339.722	1190.806
-23.794	39.119	1338.064	1189.450
-22.779	39.137	1336.940	1188.516
-21.765	39.081	1335.429	1186.786
-20.750	39.156	1334.197	1186.096
-19.736	39.133	1332.627	1184.513
-18.721	39.013	1331.780	1182.990
-17.706	39.039	1330.549	1182.010
-16.692	39.010	1328.875	1180.303
-15.677	39.004	1328.512	1179.894
-14.663	39.031	1327.121	1178.776
-13.648	38.994	1326.029	1177.535
-12.633	38.898	1325.689	1176.611
-11.619	39.016	1324.133	1175.891
-10.604	39.073	1322.886	1175.075
-9.590	38.996	1321.935	1173.726
-8.575	39.010	1321.408	1173.295
-7.560	38.982	1320.175	1171.987
-6.546	38.936	1319.638	1171.189
-5.531	38.965	1318.489	1170.293
-4.517	39.076	1317.446	1169.982
-3.502	39.069	1316.495	1169.050
-2.487	39.085	1315.606	1168.311
-1.473	39.033	1311.220	1164.065
-0.458	37.647	1295.476	1141.918
0.556	33.784	1274.782	1095.196
1.571	29.212	1277.628	1071.035
2.586	27.726	1291.834	1074.111
3.600	26.039	1280.041	1054.356
4.615	19.469	1203.717	955.163
5.629	9.954	1122.463	841.272
6.644	5.184	1100.256	800.154
7.659	4.988	1097.236	796.884
8.673	5.123	1096.359	796.863
9.688	5.095	1095.247	795.844
10.702	5.208	1093.639	795.182
11.717	10.554	1101.162	827.927
12.731	18.891	1113.515	880.002
13.746	21.216	1115.667	893.538
14.761	19.837	1112.715	884.054
15.775	18.617	1110.829	876.247
16.790	17.584	1108.702	869.226
17.804	16.795	1107.177	863.931
18.819	16.605	1105.843	861.848
19.834	16.262	1105.101	859.444
20.848	16.039	1104.022	857.394
21.863	15.904	1102.925	855.782
22.877	15.752	1102.552	854.641
23.892	15.793	1101.923	854.287
24.907	15.735	1100.827	853.072
25.921	15.737	1099.538	852.003
26.936	15.823	1098.708	851.722
27.950	15.859	1096.581	850.180
28.965	15.796	1095.689	849.098
29.980	15.948	1094.003	848.480
30.994	16.035	1092.926	848.007
32.009	16.167	1091.867	847.775
33.023	16.029	1090.740	846.131
34.038	15.916	1089.497	844.526
35.053	15.857	1088.522	843.399
36.067	15.812	1087.826	842.559
37.082	15.818	1087.300	842.109
38.096	15.944	1086.378	841.948
39.111	15.952	1085.824	841.485
40.126	15.779	1083.968	839.112
41.140	15.738	1082.635	837.800
42.155	15.630	1081.632	836.413
43.169	15.453	1080.879	834.876
44.184	15.650	1079.279	834.541
45.199	15.577	1078.792	833.729
46.213	15.739	1077.457	833.429
47.228	15.862	1076.596	833.300
48.242	15.753	1075.582	831.899
49.257	15.794	1074.479	831.174
50.271	15.957	1073.484	831.135
51.286	15.895	1072.502	829.997
52.301	15.842	1071.907	829.204
53.315	15.878	1070.376	828.122
54.330	15.618	1069.921	826.417
55.344	15.661	1068.864	825.740
56.359	15.740	1067.560	825.049
57.374	15.607	1066.926	823.833
58.388	15.554	1065.989	822.778
59.403	15.550	1065.112	822.004
60.417	15.544	1064.504	821.436
61.432	15.494	1063.992	820.720
62.447	15.515	1063.274	820.198
63.461	15.384	1062.494	818.883
64.476	15.396	1061.370	818.004
65.490	15.399	1060.664	817.404
66.505	15.478	1059.844	817.085
67.520	15.529	1058.738	816.406
68.534	15.511	1058.225	815.853
69.549	15.517	1057.334	815.122
70.563	15.447	1056.429	814.011
71.578	15.230	1056.065	812.608
72.593	15.439	1054.792	812.569
73.607	15.401	1054.309	811.938
74.622	15.305	1054.040	811.198
75.636	15.360	1053.065	810.639
76.651	15.363	1052.717	810.317
77.666	15.369	1052.147	809.833
78.680	15.451	1051.002	809.277
79.695	15.472	1050.536	808.947
80.709	15.503	1049.837	808.486
81.724	15.662	1049.105	808.614
82.739	15.718	1048.225	808.137
83.753	15.849	1047.814	808.375
84.768	16.007	1046.412	807.979
85.782	15.987	1045.812	807.349
86.797	16.039	1044.937	806.852
87.812	15.903	1044.079	805.469
88.826	15.810	1043.014	804.130
89.841	16.039	1041.613	804.070
90.855	16.007	1041.233	803.553
91.870	15.915	1040.556	802.521
92.884	16.084	1039.375	802.346
93.899	16.037	1038.580	801.438
94.914	16.079	1037.733	800.915
95.928	15.993	1036.977	799.850
96.943	16.036	1035.587	798.913
97.957	16.040	1034.634	798.124
98.972	15.888	1034.325	797.097
99.987	15.950	1033.081	796.357
101.001	15.910	1032.183	795.408
102.016	15.902	1031.896	795.077
103.030	15.991	1030.895	794.656
104.045	15.953	1030.170	793.847
105.060	15.846	1028.989	792.364
106.074	15.820	1027.816	791.271
107.089	15.575	1027.027	789.441
108.103	15.571	1025.948	788.522
109.118	15.629	1024.825	787.860
110.133	15.567	1024.136	786.971
111.147	15.567	1023.083	786.092
112.162	15.659	1022.730	786.183
113.176	15.732	1021.254	785.320
114.191	15.771	1020.634	784.953
115.206	15.734	1019.957	784.191
116.220	15.708	1018.961	783.237
117.235	15.658	1018.199	782.348
118.249	15.696	1017.219	781.701
119.264	15.544	1016.602	780.453
120.279	15.632	1015.612	780.031
121.293	15.550	1014.761	778.927
122.308	15.498	1014.300	778.265
123.322	15.623	1012.460	777.365
124.337	15.530	1011.794	776.353
125.352	15.518	1010.748	775.427
126.366	15.583	1009.343	774.579
127.381	15.549	1008.332	773.579
128.395	15.585	1007.327	772.904
129.410	15.517	1006.871	772.175
130.424	15.698	1005.726	772.057
131.439	15.778	1004.912	771.733
132.454	15.709	1004.585	771.097
133.468	15.912	1003.348	771.007
134.483	15.797	1002.541	769.795
135.497	15.784	1001.714	769.033
136.512	15.864	1000.990	768.771
137.527	15.888	1000.013	768.064
138.541	15.935	999.188	767.579
139.556	15.924	998.591	767.001
140.570	15.877	998.716	766.814
141.585	16.002	997.278	766.210
142.600	16.062	996.508	765.823
143.614	16.121	995.602	765.328
144.629	16.197	995.048	765.178
145.643	16.117	993.516	763.570
146.658	16.086	992.492	762.575
147.673	15.922	991.788	761.228
148.687	15.879	991.085	760.425
149.702	15.943	989.697	759.581
150.716	15.876	988.608	758.375
151.731	15.738	988.328	757.474
152.746	15.730	987.621	756.827
153.760	15.870	986.924	756.856
154.775	15.938	986.339	756.647
155.789	16.096	985.400	756.571
156.804	16.053	984.721	755.787
157.819	16.095	984.015	755.366
158.833	16.159	983.524	755.210
159.848	16.211	982.633	754.694
160.862	16.238	981.115	753.579
161.877	16.056	980.183	751.985
162.892	15.773	979.596	750.205
163.906	15.832	978.193	749.326
164.921	15.787	977.792	748.755
165.935	15.918	977.009	748.672
166.950	16.108	975.465	748.267
167.964	16.009	974.595	747.093
168.979	15.912	973.898	746.064
169.994	16.006	972.725	745.515
171.008	16.041	972.384	745.343
172.023	16.115	971.509	744.930
173.037	16.269	970.962	745.124
174.052	16.160	970.237	744.025
175.067	15.888	969.662	742.318
176.081	15.883	968.569	741.394
177.096	15.862	968.224	740.971
178.110	15.915	967.786	740.805
179.125	16.018	967.087	740.657
180.140	16.009	966.668	740.228
181.154	16.193	965.998	740.459
182.169	16.263	965.372	740.221
183.183	16.359	964.747	740.095
184.198	16.308	964.043	739.269
185.213	16.265	963.256	738.412
186.227	16.304	962.637	738.039
187.242	16.400	961.871	737.809
188.256	16.514	961.553	737.997
189.271	16.346	960.772	736.599
190.286	16.114	959.988	734.923
191.300	15.996	958.809	733.438
192.315	15.997	957.945	732.719
193.329	15.965	957.552	732.214
194.344	15.910	957.183	731.627
195.359	16.201	956.488	732.297
196.373	16.263	955.722	731.913
197.388	16.377	955.648	732.286
198.402	16.510	955.010	732.309
199.417	16.469	954.464	731.646
200.432	16.765	953.443	732.078
201.446	16.719	953.531	731.882
202.461	16.701	952.665	731.074
203.475	16.628	951.858	730.077
204.490	16.512	951.451	729.202
205.504	16.392	950.435	727.839
206.519	16.413	949.609	727.232
207.534	16.310	949.069	726.312
208.548	16.467	948.398	726.408
209.563	16.474	947.268	725.509
210.577	16.446	946.773	724.945
211.592	16.763	945.896	725.569
212.607	16.952	944.508	725.247
213.621	16.729	944.648	724.338
214.636	16.683	943.464	723.171
215.650	16.611	943.048	722.477
216.665	16.872	942.064	722.776
217.680	16.904	941.660	722.535
218.694	16.944	941.201	722.290
219.709	16.811	940.339	720.998
220.723	16.882	939.891	720.895
221.738	16.904	938.882	720.149
222.753	16.804	938.603	719.449
223.767	16.760	937.834	718.606
224.782	16.955	937.140	718.840
225.796	16.924	937.047	718.573
226.811	16.894	935.925	717.522
227.826	16.781	935.174	716.404
228.840	16.696	934.611	715.550
229.855	16.689	933.716	714.772
230.869	16.871	932.822	714.794
231.884	16.766	932.280	713.872
232.899	16.754	931.465	713.135
233.913	16.622	930.801	712.006
234.928	16.734	930.212	711.966
235.942	16.667	929.512	711.086
236.957	16.675	929.265	710.867
237.972	16.749	928.328	710.397
238.986	16.717	927.533	709.589
240.001	16.731	927.048	709.215
241.015	16.804	926.444	708.997
242.030	17.019	925.627	709.209
243.045	16.905	925.166	708.315
244.059	16.919	924.601	707.878
245.074	17.051	924.020	707.922
246.088	17.045	923.393	707.355
247.103	17.032	922.828	706.805
248.117	17.107	922.534	706.830
249.132	17.297	921.922	707.088
250.147	17.436	921.127	706.995
251.161	17.395	920.561	706.325
252.176	17.422	919.925	705.888
253.190	17.414	919.371	705.365
254.205	17.419	918.711	704.819
255.220	17.528	917.665	704.405
256.234	17.550	916.990	703.915
257.249	17.516	916.595	703.411
258.263	17.404	916.173	702.560
259.278	17.529	915.267	702.318
260.293	17.602	914.699	702.123
261.307	17.696	914.098	701.985
262.322	17.550	913.259	700.679
263.336	17.692	912.727	700.791
264.351	17.619	911.881	699.781
265.366	17.665	911.425	699.556
266.380	17.636	910.354	698.556
267.395	17.522	909.746	697.558
268.409	17.598	909.019	697.252
269.424	17.651	908.105	696.704
270.439	17.563	907.535	695.846
271.453	17.579	906.539	695.087
272.468	17.529	906.151	694.525
273.482	17.563	905.968	694.461
274.497	17.526	905.372	693.790
275.512	17.435	904.931	693.023
276.526	17.695	904.277	693.517
277.541	17.731	903.697	693.157
278.555	17.731	903.741	693.131
279.570	17.826	902.344	692.382
280.585	17.861	901.770	692.024
281.599	17.579	901.128	690.325
282.614	17.727	900.179	690.138
283.628	17.725	899.736	689.731
284.643	17.670	898.924	688.824
285.657	17.741	898.407	688.651
286.672	17.674	897.747	687.816
287.687	17.815	897.207	687.908
288.701	17.824	896.507	687.348
289.716	17.763	895.828	686.523
290.730	17.845	895.579	686.601
291.745	17.988	894.417	686.221
292.760	17.844	894.367	685.546
293.774	18.074	893.494	685.740
294.789	18.022	892.733	684.885
295.803	17.811	892.243	683.605
296.818	17.967	891.240	683.398
297.833	17.876	890.731	682.585
298.847	17.967	890.030	682.350
299.862	17.873	889.615	681.597
300.876	18.029	888.799	681.531
301.891	18.108	888.359	681.449
302.906	18.103	888.011	681.103
303.920	18.199	887.748	681.223
304.935	18.335	886.797	680.973
305.949	18.276	886.049	680.105
306.964	18.203	885.496	679.329
307.979	18.269	884.397	678.689
308.993	18.313	884.211	678.660
310.008	18.265	883.843	678.128
311.022	18.204	883.347	677.446
312.037	18.232	882.609	676.932
313.052	18.143	881.459	675.638
314.066	18.035	881.124	674.894
315.081	18.031	880.502	674.341
316.095	18.217	879.697	674.401
317.110	18.008	879.574	673.422
318.125	18.214	878.737	673.534
319.139	18.067	878.503	672.714
320.154	18.068	878.298	672.503
321.168	18.081	877.556	671.924
322.183	18.198	876.537	671.544
323.197	18.258	876.206	671.466
324.212	18.187	875.886	670.886
325.227	18.257	875.012	670.428
326.241	18.173	874.607	669.732
327.256	18.188	874.020	669.281
328.270	18.196	873.702	669.009
329.285	18.243	872.760	668.412
330.300	18.129	872.465	667.682
331.314	18.205	871.786	667.403
332.329	18.309	871.082	667.208
333.343	18.334	870.649	666.916
334.358	18.274	870.462	666.478
335.373	18.382	870.025	666.504
336.387	18.516	869.349	666.449
337.402	18.473	869.665	666.468
338.416	18.539	869.170	666.284
339.431	18.671	868.808	666.459
340.446	18.529	868.416	665.550
341.460	18.660	867.934	665.627
342.475	18.719	867.400	665.391
343.489	18.718	866.944	664.978
344.504	18.785	866.540	664.869
345.519	18.767	865.930	664.271
346.533	18.909	865.291	664.271
347.548	18.701	864.717	662.969
348.562	18.588	864.065	661.972
349.577	18.597	863.507	661.520
350.592	18.738	862.651	661.352
351.606	18.612	861.892	660.225
352.621	18.593	861.492	659.789
353.635	18.632	860.516	659.132
354.650	18.661	860.103	658.870
355.665	18.771	859.643	658.881
356.679	18.762	858.807	658.148
357.694	18.728	858.016	657.350
358.708	18.771	857.829	657.315
359.723	18.740	857.206	656.659
360.738	18.830	856.479	656.391
361.752	18.909	855.691	656.029
362.767	18.955	855.171	655.746
363.781	19.087	854.737	655.858
364.796	19.120	854.486	655.735
365.810	18.995	854.265	655.030
366.825	19.175	853.606	655.152
367.840	19.215	853.086	654.848
368.854	19.192	852.801	654.484
369.869	19.106	852.314	653.726
370.883	19.004	852.194	653.187
371.898	19.056	851.600	652.875
372.913	19.170	851.158	652.908
373.927	19.203	850.507	652.477
374.942	19.264	849.804	652.108
375.956	19.348	849.288	651.974
376.971	19.291	848.709	651.258
377.986	19.363	848.683	651.450
379.000	19.232	848.353	650.647
380.015	19.315	847.906	650.557
381.029	19.337	847.338	650.147
382.044	19.398	846.734	649.856
383.059	19.429	846.084	649.416
384.073	19.449	844.972	648.579
385.088	19.230	844.438	647.290
386.102	19.306	843.947	647.141
387.117	19.312	843.552	646.807
388.132	19.256	842.882	646.023
389.146	19.318	842.190	645.667
390.161	19.486	841.962	646.065
391.175	19.297	841.431	644.895
392.190	19.251	840.711	644.111
393.205	19.250	840.221	643.678
394.219	19.281	839.965	643.539
395.234	19.270	839.724	643.255
396.248	19.232	838.786	642.339
397.263	19.361	838.050	642.200
398.278	19.255	837.880	641.619
399.292	19.227	837.771	641.374
400.307	19.248	837.002	640.806
401.321	19.237	836.670	640.453
402.336	19.287	836.251	640.262
403.350	19.462	835.766	640.485
404.365	19.357	835.813	640.075
405.380	19.609	834.682	640.086
406.394	19.569	834.376	639.646
407.409	19.565	833.985	639.276
408.423	19.772	833.670	639.742
409.438	19.731	833.079	639.082
410.453	19.681	832.949	638.738
411.467	19.830	832.134	638.607
412.482	19.825	831.890	638.346
413.496	19.856	831.560	638.151
414.511	19.905	831.226	638.018
415.526	19.971	830.428	637.594
416.540	19.832	830.284	636.914
417.555	19.975	829.508	636.789
418.569	19.905	829.126	636.182
419.584	19.853	828.729	635.630
420.599	19.710	828.637	634.976
421.613	149.981	1366.026	1763.469
422.628	130.825	1444.355	1763.575
