DTS Sentinel unit serial number:	SN413079Multiplexer serial number:	ORYXHardware model number:	OX4-SRSoftware version number:	ORYX F/W v4.00 Oryx Data Collector v3.7.2.0data status	okinstallation	princeton_trtdifferential loss correction	single-endedforward channel	channel 1reverse channel	N/Adate	2019/09/11time	22:44:11forward acquisition time	60.00reverse acquisition time	0.00gamma	496.2192k internal	0.2315k external	0.2315temperature offset calibration	1.0061default loss term (dB/km)	0.3790temperature slope calibration	1.0000multiplexer offset coefficient	1.0000multiplexer slope coefficient	1.0000fibre end	0.00T internal ref (°C)	34.81T ext. ref 1 (°C)	1.83T ext. ref 2 (°C)	28.90length (m)	temperature (°C)	Stokes	anti-Stokes-747.200	-164.334	0.183	0.008
-746.185	241.770	0.027	0.046
-745.171	245.393	-0.097	-0.166
-744.156	-85.526	-0.370	-0.117
-743.142	-3.073	-0.210	-0.149
-742.127	-51.916	-0.075	-0.036
-741.112	248.754	-0.114	-0.195
-740.098	39.588	0.176	-0.159
-739.083	243.884	-0.117	-0.199
-738.069	-200.000	0.044	-0.483
-737.054	25.683	-0.079	0.067
-736.039	-78.026	-0.216	0.075
-735.025	540.355	-0.084	-0.202
-734.010	27.805	0.085	-0.072
-732.996	16.637	-0.387	-0.309
-731.981	-97.995	-0.025	0.007
-730.966	-200.000	0.018	0.321
-729.952	800.000	0.083	-0.255
-728.937	-200.000	-0.008	0.168
-727.923	-132.414	-0.237	-0.031
-726.908	800.000	-0.088	-0.352
-725.894	-7.574	0.202	-0.139
-724.879	800.000	-0.138	-0.489
-723.864	-54.074	-0.085	-0.039
-722.850	-102.223	-0.086	-0.021
-721.835	800.000	-0.071	-0.286
-720.821	-200.000	0.050	-0.319
-719.806	84.047	-0.196	-0.217
-718.791	-10.888	-0.202	-0.135
-717.777	-58.317	-0.178	-0.078
-716.762	-150.330	0.336	-0.026
-715.748	-87.018	0.339	0.104
-714.733	-110.242	-0.085	0.018
-713.718	-139.546	-0.201	-0.022
-712.704	285.886	0.083	0.152
-711.689	599.695	0.062	0.155
-710.675	-118.529	0.203	-0.036
-709.660	-130.961	-0.194	-0.026
-708.645	-90.051	0.304	-0.090
-707.631	12.644	0.319	-0.249
-706.616	-62.564	0.316	0.133
-705.602	-133.797	0.218	0.027
-704.587	-127.476	0.351	-0.052
-703.572	-99.645	0.488	0.124
-702.558	-20.676	-0.256	-0.159
-701.543	-135.173	-0.294	0.036
-700.529	-44.594	-0.202	-0.102
-699.514	120.532	-0.106	0.134
-698.499	155.115	-0.137	-0.190
-697.485	800.000	-0.100	-0.342
-696.470	371.059	0.021	-0.044
-695.456	-200.000	-0.019	0.138
-694.441	-128.728	-0.318	-0.045
-693.426	-69.750	0.062	0.024
-692.412	148.269	0.097	0.132
-691.397	-186.879	-0.081	0.001
-690.383	40.676	-0.085	0.077
-689.368	800.000	0.065	0.248
-688.354	27.266	0.104	-0.088
-687.339	-123.290	-0.130	-0.021
-686.324	17.633	0.106	-0.085
-685.310	-79.070	0.161	-0.055
-684.295	291.823	0.095	0.175
-683.281	194.558	0.186	-0.286
-682.266	800.000	-0.118	-0.450
-681.251	149.664	0.081	0.110
-680.237	-9.279	-0.182	-0.123
-679.222	-158.706	-0.101	-0.006
-678.208	800.000	0.093	-0.338
-677.193	66.401	0.053	0.055
-676.178	352.390	-0.067	-0.135
-675.164	-200.000	0.035	-0.345
-674.149	800.000	-0.084	0.254
-673.135	326.857	-0.224	0.434
-672.120	103.171	-0.191	-0.226
-671.105	49.656	-0.182	0.173
-670.091	-33.327	-0.134	-0.075
-669.076	-120.720	-0.232	0.040
-668.062	14.020	-0.187	0.147
-667.047	-200.000	0.024	-0.135
-666.032	-29.265	-0.376	-0.217
-665.018	-153.975	-0.247	0.017
-664.003	213.564	0.172	-0.275
-662.989	176.108	0.128	0.187
-661.974	-96.155	-0.421	-0.113
-660.959	-10.283	0.102	0.069
-659.945	562.651	-0.073	-0.178
-658.930	-120.664	-0.076	0.013
-657.916	-128.049	-0.140	0.020
-656.901	-137.102	0.145	0.017
-655.886	-12.353	-0.110	-0.073
-654.872	95.555	-0.045	0.051
-653.857	26.037	0.117	-0.099
-652.843	-12.214	-0.144	-0.095
-651.828	-54.140	-0.206	-0.095
-650.814	-105.519	-0.133	0.030
-649.799	-104.425	0.299	-0.070
-648.784	17.324	-0.086	-0.069
-647.770	32.572	-0.306	-0.267
-646.755	783.254	-0.056	0.156
-645.741	506.850	-0.200	-0.468
-644.726	-29.392	-0.156	-0.090
-643.711	75.911	0.006	-0.006
-642.697	-200.000	0.026	-0.335
-641.682	-56.322	-0.198	0.089
-640.668	5.104	-0.371	-0.276
-639.653	-115.723	-0.187	0.035
-638.638	-120.621	-0.200	0.034
-637.624	-200.000	-0.001	-0.165
-636.609	-51.062	-0.106	-0.050
-635.595	-200.000	-0.019	-0.374
-634.580	-27.420	-0.243	-0.142
-633.565	285.268	0.114	-0.207
-632.551	800.000	-0.093	0.281
-631.536	-83.792	0.201	0.065
-630.522	-200.000	0.002	0.224
-629.507	36.644	0.151	0.134
-628.492	-200.000	0.326	-0.001
-627.478	-200.000	0.017	-0.278
-626.463	-62.688	-0.174	-0.073
-625.449	91.675	0.315	-0.358
-624.434	42.508	-0.134	-0.123
-623.419	-149.990	-0.153	0.012
-622.405	260.473	0.138	0.240
-621.390	-101.943	-0.063	0.015
-620.376	5.256	-0.224	-0.167
-619.361	-76.985	0.273	-0.096
-618.346	38.701	-0.094	-0.085
-617.332	19.751	0.253	-0.206
-616.317	800.000	0.079	-0.226
-615.303	-89.718	-0.112	0.033
-614.288	-138.863	-0.152	-0.017
-613.273	656.167	0.014	-0.037
-612.259	800.000	-0.050	-0.217
-611.244	130.554	-0.071	-0.092
-610.230	-106.071	-0.300	-0.068
-609.215	-200.000	0.008	0.156
-608.201	-83.557	0.262	0.084
-607.186	581.232	0.102	-0.251
-606.171	55.256	0.229	0.223
-605.157	723.331	0.075	-0.201
-604.142	118.235	-0.083	-0.103
-603.128	319.154	-0.109	-0.208
-602.113	-13.890	0.090	0.058
-601.098	-80.241	0.265	-0.089
-600.084	-83.638	-0.091	-0.029
-599.069	19.748	0.355	0.288
-598.055	-41.704	-0.072	-0.037
-597.040	-200.000	0.022	0.198
-596.025	-38.088	0.283	-0.151
-595.011	-28.080	-0.103	-0.060
-593.996	46.140	-0.207	-0.193
-592.982	-49.473	-0.153	-0.073
-591.967	71.285	0.048	-0.050
-590.952	-200.000	-0.014	-0.409
-589.938	225.379	0.120	0.196
-588.923	-122.114	-0.224	-0.037
-587.909	124.732	0.112	-0.142
-586.894	25.858	-0.063	-0.053
-585.879	-98.981	-0.316	-0.081
-584.865	-158.065	0.223	-0.013
-583.850	36.624	-0.145	-0.129
-582.836	-200.000	-0.062	-0.383
-581.821	-83.426	-0.318	-0.103
-580.806	101.255	0.107	0.125
-579.792	70.623	0.149	0.155
-578.777	-180.374	0.299	0.006
-577.763	-122.206	-0.104	0.017
-576.748	-85.930	-0.453	0.141
-575.733	800.000	0.073	0.302
-574.719	168.920	0.209	0.300
-573.704	-131.562	0.244	0.032
-572.690	800.000	-0.020	-0.063
-571.675	-200.000	-0.049	-0.299
-570.661	47.315	0.048	0.045
-569.646	-200.000	-0.017	-0.175
-568.631	-32.684	0.092	0.051
-567.617	33.228	0.118	0.103
-566.602	-85.365	0.040	0.012
-565.588	-168.262	-0.391	-0.015
-564.573	46.698	0.207	-0.193
-563.558	-121.826	-0.230	0.038
-562.544	-200.000	-0.017	0.106
-561.529	199.618	0.050	0.078
-560.515	800.000	0.050	-0.170
-559.500	443.455	0.067	-0.147
-558.485	-60.453	-0.346	0.148
-557.471	-33.297	-0.038	0.021
-556.456	255.864	0.015	-0.027
-555.442	267.320	-0.088	0.156
-554.427	-51.739	-0.333	-0.156
-553.412	334.399	-0.027	-0.053
-552.398	37.172	0.131	-0.116
-551.383	-53.659	-0.122	0.056
-550.369	-75.887	0.179	-0.064
-549.354	144.951	-0.189	0.255
-548.339	-127.449	-0.303	0.044
-547.325	-107.080	-0.081	0.018
-546.310	-98.413	0.407	0.105
-545.296	86.387	-0.132	-0.147
-544.281	-64.104	-0.268	0.110
-543.266	241.057	-0.073	0.123
-542.252	66.636	-0.148	0.151
-541.237	800.000	-0.147	0.410
-540.223	-41.680	-0.090	0.046
-539.208	-66.992	0.038	-0.015
-538.193	-94.565	-0.408	0.112
-537.179	-200.000	-0.012	0.085
-536.164	-96.104	-0.143	-0.038
-535.150	12.825	0.253	0.197
-534.135	-200.000	-0.041	0.241
-533.121	-128.378	0.131	-0.019
-532.106	-34.006	0.113	-0.062
-531.091	-79.570	0.592	-0.201
-530.077	-186.583	0.418	0.006
-529.062	138.169	-0.065	-0.086
-528.048	-2.653	-0.148	-0.104
-527.033	275.451	-0.170	-0.302
-526.018	41.187	-0.163	-0.148
-525.004	-200.000	-0.008	0.050
-523.989	-9.069	-0.231	0.155
-522.975	293.662	0.042	0.078
-521.960	-149.909	0.246	0.019
-520.945	128.372	0.146	0.187
-519.931	35.235	-0.028	0.025
-518.916	116.214	0.084	-0.103
-517.902	-200.000	0.014	0.082
-516.887	-24.259	0.148	0.088
-515.872	-112.959	-0.261	-0.052
-514.858	-200.000	-0.015	0.153
-513.843	-200.000	0.006	-0.068
-512.829	320.934	-0.067	-0.129
-511.814	-34.896	-0.140	-0.077
-510.799	-94.784	-0.071	0.019
-509.785	-200.000	0.025	0.110
-508.770	161.720	-0.055	-0.077
-507.756	180.462	-0.082	-0.120
-506.741	-78.405	0.073	0.025
-505.726	57.078	-0.139	-0.136
-504.712	720.180	0.071	0.188
-503.697	246.060	-0.078	0.133
-502.683	-128.747	-0.183	-0.026
-501.668	-200.000	0.059	0.258
-500.653	459.622	-0.139	-0.309
-499.639	-173.465	-0.270	0.008
-498.624	-48.473	-0.410	0.198
-497.610	56.766	0.268	-0.262
-496.595	269.269	-0.087	-0.154
-495.581	-71.004	0.034	0.013
-494.566	56.667	0.179	0.175
-493.551	-18.196	-0.052	-0.033
-492.537	659.720	0.076	0.196
-491.522	-31.061	-0.119	-0.067
-490.508	-20.902	0.330	-0.203
-489.493	127.486	0.150	-0.191
-488.478	-21.788	0.091	-0.055
-487.464	-200.000	-0.013	0.086
-486.449	63.200	-0.328	-0.329
-485.435	50.375	0.135	-0.128
-484.420	-75.525	0.127	-0.045
-483.405	50.766	-0.205	0.195
-482.391	414.976	-0.065	0.139
-481.376	494.339	0.145	-0.333
-480.362	0.586	0.482	-0.346
-479.347	-159.891	0.202	-0.011
-478.332	-104.643	0.160	0.037
-477.318	183.059	0.111	-0.164
-476.303	472.363	0.162	-0.366
-475.289	157.472	-0.131	0.182
-474.274	-3.434	0.313	-0.219
-473.259	-1.572	-0.396	-0.280
-472.245	800.000	0.070	0.198
-471.230	-200.000	0.016	-0.278
-470.216	-9.982	0.269	0.179
-469.201	-200.000	-0.012	0.000
-468.186	-132.390	0.159	-0.021
-467.172	800.000	0.041	0.145
-466.157	726.962	0.029	-0.076
-465.143	11.453	-0.177	-0.136
-464.128	-200.000	0.007	-0.084
-463.113	-109.789	0.179	0.038
-462.099	672.574	0.050	-0.131
-461.084	-57.551	0.467	0.205
-460.070	-200.000	-0.012	0.107
-459.055	-103.657	0.272	-0.064
-458.040	319.572	0.095	0.180
-457.026	63.498	0.212	-0.213
-456.011	-200.000	-0.007	0.149
-454.997	800.000	0.158	0.495
-453.982	-200.000	0.048	0.241
-452.968	-200.000	0.020	0.124
-451.953	729.491	-0.039	-0.105
-450.938	654.045	0.085	0.219
-449.924	-41.336	-0.189	-0.097
-448.909	-143.495	0.174	0.017
-447.895	10.070	0.120	-0.091
-446.880	-200.000	-0.018	0.124
-445.865	-15.455	-0.312	0.200
-444.851	110.452	0.250	0.301
-443.836	60.742	-0.188	0.187
-442.822	576.925	0.156	0.382
-441.807	212.410	0.044	-0.069
-440.792	-43.838	0.360	0.181
-439.778	17.759	-0.272	-0.216
-438.763	350.467	-0.089	0.177
-437.749	-144.900	-0.325	-0.030
-436.734	16.445	0.041	0.033
-435.719	-128.833	0.165	0.023
-434.705	-200.000	-0.009	0.145
-433.690	-200.000	-0.013	0.236
-432.676	124.441	-0.079	0.099
-431.661	-35.358	-0.317	-0.173
-430.646	-200.000	-0.010	0.056
-429.632	-28.162	0.070	0.041
-428.617	-93.858	-0.140	-0.038
-427.603	-200.000	-0.061	-0.419
-426.588	-80.989	0.154	-0.051
-425.573	-200.000	0.292	0.000
-424.559	800.000	-0.026	-0.079
-423.544	-16.975	-0.189	0.120
-422.530	-200.000	-0.007	0.368
-421.515	90.303	0.102	0.114
-420.500	-200.000	0.027	-0.253
-419.486	41.256	-0.197	-0.178
-418.471	289.709	-0.085	-0.154
-417.457	-79.890	-0.239	-0.080
-416.442	-86.313	0.295	-0.091
-415.428	-139.698	0.301	0.032
-414.413	-64.611	-0.237	0.096
-413.398	346.764	0.118	0.233
-412.384	-200.000	0.001	0.045
-411.369	800.000	0.061	-0.222
-410.355	-200.000	-0.084	-0.479
-409.340	35.148	0.134	-0.117
-408.325	161.230	-0.104	-0.146
-407.311	389.745	-0.038	0.079
-406.296	3.552	-0.130	0.095
-405.282	-200.000	0.037	-0.340
-404.267	564.310	-0.092	0.223
-403.252	144.718	0.166	0.222
-402.238	462.994	0.082	-0.183
-401.223	5.922	-0.252	0.187
-400.209	-89.647	-0.168	0.049
-399.194	65.067	-0.050	-0.051
-398.179	189.311	0.313	0.469
-397.165	-44.502	-0.285	-0.143
-396.150	-58.064	-0.251	-0.109
-395.136	800.000	-0.106	0.331
-394.121	115.239	0.137	0.168
-393.106	-136.506	0.260	-0.030
-392.092	-132.947	0.072	-0.009
-391.077	-185.321	-0.575	0.009
-390.063	43.294	-0.059	-0.054
-389.048	82.553	0.301	0.327
-388.033	11.466	0.088	-0.068
-387.019	142.047	0.077	0.103
-386.004	-200.000	0.017	-0.229
-384.990	-81.908	-0.091	-0.030
-383.975	-200.000	0.033	0.310
-382.960	-12.232	-0.068	0.044
-381.946	-7.053	0.043	-0.029
-380.931	167.958	0.142	0.201
-379.917	800.000	0.137	0.453
-378.902	280.906	0.090	0.160
-377.888	-200.000	0.007	-0.063
-376.873	-146.496	-0.097	0.008
-375.858	111.787	-0.056	-0.067
-374.844	39.949	0.137	0.123
-373.829	-190.079	-0.171	-0.002
-372.815	3.600	-0.104	-0.075
-371.800	-36.401	-0.191	0.103
-370.785	483.421	0.044	-0.100
-369.771	-6.184	-0.289	-0.197
-368.756	-150.696	0.147	-0.011
-367.742	-71.631	0.079	-0.030
-366.727	160.934	0.158	0.221
-365.712	381.158	-0.122	-0.251
-364.698	-19.069	0.252	0.156
-363.683	-200.000	0.030	-0.283
-362.669	239.303	-0.151	0.251
-361.654	29.772	0.125	0.106
-360.639	-168.409	0.421	0.016
-359.625	39.383	-0.145	-0.130
-358.610	5.115	0.049	-0.036
-357.596	48.581	-0.128	-0.120
-356.581	-173.332	0.198	-0.006
-355.566	800.000	0.069	0.241
-354.552	-200.000	0.014	0.284
-353.537	-68.920	0.261	0.100
-352.523	-66.575	0.286	0.113
-351.508	163.356	-0.041	0.058
-350.493	-108.666	0.078	-0.017
-349.479	-144.869	-0.226	-0.021
-348.464	324.280	-0.149	0.284
-347.450	71.728	-0.030	0.031
-346.435	-200.000	0.010	-0.068
-345.420	-75.951	0.303	-0.107
-344.406	178.849	-0.260	-0.379
-343.391	286.156	-0.090	0.162
-342.377	800.000	-0.041	0.157
-341.362	112.052	-0.044	-0.053
-340.348	109.874	-0.144	-0.172
-339.333	159.501	-0.099	0.137
-338.318	-200.000	-0.032	0.211
-337.304	484.870	0.107	-0.243
-336.289	256.322	-0.140	0.240
-335.275	-200.000	0.069	0.374
-334.260	-200.000	0.016	-0.094
-333.245	-161.336	-0.206	-0.011
-332.231	662.467	-0.106	0.272
-331.216	-41.344	-0.069	0.035
-330.202	-74.352	-0.140	-0.050
-329.187	-200.000	0.001	-0.142
-328.172	198.683	-0.105	-0.161
-327.158	-115.357	-0.457	-0.086
-326.143	456.840	0.090	-0.199
-325.129	-200.000	-0.035	0.194
-324.114	-149.320	0.261	-0.021
-323.099	-117.063	0.114	-0.021
-322.085	-24.169	-0.351	0.209
-321.070	-200.000	0.013	0.213
-320.056	23.129	0.208	-0.170
-319.041	-110.257	0.046	0.010
-318.026	405.729	0.121	-0.255
-317.012	-3.899	-0.096	0.067
-315.997	-200.000	-0.042	-0.325
-314.983	125.562	-0.160	-0.201
-313.968	800.000	0.101	-0.306
-312.953	-105.717	-0.405	0.091
-311.939	-84.198	0.249	0.079
-310.924	206.173	0.235	0.364
-309.910	55.166	0.149	0.144
-308.895	753.982	0.051	0.138
-307.880	-200.000	-0.001	0.092
-306.866	-97.612	-0.195	0.050
-305.851	-81.800	-0.077	-0.025
-304.837	-92.449	-0.233	0.065
-303.822	-165.583	0.386	0.017
-302.807	-104.000	0.123	-0.028
-301.793	28.124	-0.290	0.243
-300.778	800.000	0.169	-0.490
-299.764	-140.769	0.223	-0.023
-298.749	-150.616	0.217	0.017
-297.735	-73.005	0.333	0.122
-296.720	69.104	-0.146	-0.150
-295.705	445.086	0.083	-0.182
-294.691	-54.036	0.202	-0.091
-293.676	-200.000	0.016	-0.287
-292.662	87.178	0.081	-0.089
-291.647	-37.927	-0.172	0.091
-290.632	-152.883	-0.140	0.010
-289.618	-72.915	-0.222	-0.081
-288.603	4.066	-0.213	0.155
-287.589	800.000	0.085	0.340
-286.574	103.499	-0.077	-0.090
-285.559	-5.390	0.254	0.173
-284.545	-65.920	-0.175	-0.070
-283.530	305.987	0.124	0.229
-282.516	-86.859	-0.162	-0.049
-281.501	-103.104	-0.122	0.029
-280.486	-18.698	0.245	0.152
-279.472	-97.858	0.160	-0.041
-278.457	-200.000	-0.023	-0.323
-277.443	70.629	-0.084	0.087
-276.428	78.615	-0.113	0.120
-275.413	-200.000	0.020	0.148
-274.399	-200.000	-0.230	-0.001
-273.384	7.902	0.176	-0.131
-272.370	470.240	-0.125	0.278
-271.355	17.538	0.053	0.042
-270.340	426.363	-0.130	0.278
-269.326	-51.210	-0.044	-0.021
-268.311	800.000	-0.066	0.256
-267.297	314.047	0.212	0.397
-266.282	108.635	-0.222	0.264
-265.267	7.618	0.348	0.259
-264.253	459.993	0.178	0.394
-263.238	-30.512	-0.115	-0.065
-262.224	-4.192	-0.182	0.125
-261.209	-112.457	-0.155	-0.031
-260.195	-200.000	0.187	0.000
-259.180	-77.748	0.343	0.118
-258.165	157.855	0.130	0.179
-257.151	-200.000	-0.067	-0.380
-256.136	-149.797	0.156	-0.012
-255.122	-90.167	-0.171	0.049
-254.107	110.891	0.141	0.169
-253.092	-139.860	0.056	-0.006
-252.078	33.794	0.130	-0.112
-251.063	-61.250	-0.046	0.019
-250.049	800.000	-0.025	0.089
-249.034	-155.788	0.139	-0.009
-248.019	-200.000	-0.016	0.205
-247.005	-179.293	-0.225	-0.005
-245.990	-200.000	0.004	0.090
-244.976	-96.776	-0.015	0.004
-243.961	-200.000	0.051	-0.379
-242.946	52.611	0.153	-0.145
-241.932	230.033	-0.018	-0.029
-240.917	-200.000	-0.010	-0.272
-239.903	-123.072	0.115	0.018
-238.888	-89.810	-0.241	0.070
-237.873	-102.361	0.140	0.033
-236.859	67.604	-0.157	-0.159
-235.844	-76.767	0.189	-0.066
-234.830	96.627	-0.291	-0.331
-233.815	148.512	0.174	-0.234
-232.800	-200.000	0.009	0.124
-231.786	125.808	-0.109	0.136
-230.771	89.560	0.060	0.067
-229.757	-115.165	0.204	0.038
-228.742	-57.729	-0.116	-0.051
-227.727	119.391	0.183	0.225
-226.713	91.749	-0.027	-0.030
-225.698	-200.000	0.004	-0.338
-224.684	210.053	0.215	0.335
-223.669	43.058	0.091	0.083
-222.655	303.073	0.071	0.131
-221.640	1.759	0.079	0.057
-220.625	-22.415	0.143	0.086
-219.611	138.400	-0.177	-0.231
-218.596	595.231	0.113	-0.279
-217.582	-200.000	0.014	-0.097
-216.567	101.505	0.321	-0.371
-215.552	-200.000	0.004	-0.259
-214.538	-98.081	0.085	0.022
-213.523	-92.326	0.188	0.052
-212.509	-145.262	-0.204	-0.018
-211.494	-170.826	-0.060	-0.002
-210.479	-8.418	-0.118	-0.078
-209.465	81.372	0.150	0.160
-208.450	-42.360	-0.085	0.043
-207.436	-200.000	0.002	-0.048
-206.421	-108.972	0.123	0.026
-205.406	-20.660	0.145	0.088
-204.392	2.871	0.177	0.127
-203.377	33.944	-0.271	-0.234
-202.363	-200.000	0.001	0.012
-201.348	395.786	-0.235	0.487
-200.333	444.014	0.103	-0.223
-199.319	52.469	-0.412	-0.390
-198.304	-200.000	-0.005	-0.272
-197.290	169.675	0.097	-0.137
-196.275	633.187	-0.088	-0.221
-195.260	16.614	0.201	0.158
-194.246	-131.307	-0.034	-0.005
-193.231	-47.690	-0.083	0.040
-192.217	-92.783	-0.080	-0.022
-191.202	-200.000	-0.018	0.169
-190.187	423.980	0.176	-0.375
-189.173	-98.581	0.194	0.049
-188.158	800.000	0.023	0.079
-187.144	-117.783	-0.546	0.097
-186.129	-144.058	-0.395	-0.037
-185.114	-58.310	0.369	0.159
-184.100	-200.000	-0.011	0.066
-183.085	-119.336	0.191	0.033
-182.071	-200.000	0.097	0.532
-181.056	51.897	0.185	-0.175
-180.042	-200.000	0.048	0.326
-179.027	191.552	-0.138	-0.206
-178.012	263.818	0.133	0.229
-176.998	-109.288	-0.197	0.041
-175.983	696.162	0.051	-0.134
-174.969	-200.000	-0.039	-0.229
-173.954	-47.689	-0.078	-0.037
-172.939	-200.000	0.000	-0.217
-171.925	-95.211	-0.139	-0.037
-170.910	53.262	-0.162	0.154
-169.896	38.933	-0.121	0.107
-168.881	551.505	-0.099	0.235
-167.866	-200.000	0.014	0.078
-166.852	515.763	0.051	0.119
-165.837	573.248	-0.084	-0.203
-164.823	-200.000	-0.036	0.223
-163.808	-127.738	0.304	-0.044
-162.793	561.910	0.159	-0.382
-161.779	148.045	-0.114	0.153
-160.764	51.135	0.094	-0.088
-159.750	117.047	0.039	-0.048
-158.735	-108.080	0.222	-0.048
-157.720	539.873	0.041	-0.096
-156.706	800.000	-0.068	0.219
-155.691	24.064	-0.200	-0.163
-154.677	-39.568	-0.289	-0.150
-153.662	-36.321	-0.188	0.100
-152.647	74.592	0.137	0.142
-151.633	-117.006	-0.304	-0.055
-150.618	-31.727	0.179	-0.099
-149.604	-105.675	0.316	0.071
-148.589	-29.700	-0.315	0.178
-147.574	-200.000	-0.014	-0.321
-146.560	-88.922	0.127	0.037
-145.545	-70.514	-0.430	0.161
-144.531	-200.000	0.017	-0.164
-143.516	-180.436	0.299	-0.006
-142.502	3.428	0.148	-0.106
-141.487	-4.717	-0.139	-0.095
-140.472	-93.440	0.082	0.023
-139.458	313.055	-0.169	-0.314
-138.443	-64.267	0.102	0.041
-137.429	-200.000	-0.045	0.229
-136.414	800.000	0.019	0.069
-135.399	148.480	-0.195	-0.260
-134.385	800.000	0.019	-0.061
-133.370	-65.457	0.104	0.041
-132.356	-16.617	-0.220	0.138
-131.341	-200.000	0.053	-0.250
-130.326	93.037	-0.037	0.041
-129.312	105.479	0.133	0.155
-128.297	-200.000	0.293	-0.000
-127.283	-200.000	0.008	-0.044
-126.268	29.340	-0.171	0.143
-125.253	-166.421	-0.399	-0.017
-124.239	-200.000	0.011	-0.136
-123.224	-158.237	0.264	0.015
-122.210	87.843	0.216	-0.237
-121.195	800.000	-0.029	-0.085
-120.180	-43.578	0.172	-0.086
-119.166	66.902	-0.073	-0.073
-118.151	-144.200	0.128	-0.012
-117.137	22.403	-0.097	-0.079
-116.122	-127.310	0.032	0.005
-115.107	-200.000	-0.035	-0.332
-114.093	49.941	0.120	-0.111
-113.078	788.399	0.075	-0.202
-112.064	-80.382	0.255	0.084
-111.049	72.539	-0.118	-0.121
-110.034	-73.210	0.057	-0.021
-109.020	101.908	-0.048	-0.055
-108.005	-200.000	0.018	0.131
-106.991	-96.649	0.138	-0.036
-105.976	-85.228	0.177	0.055
-104.962	136.197	-0.189	-0.243
-103.947	800.000	0.117	0.367
-102.932	144.904	-0.137	-0.181
-101.918	27.463	-0.156	0.129
-100.903	508.109	0.046	-0.106
-99.889	-200.000	0.003	0.228
-98.874	260.612	0.115	-0.196
-97.859	15.220	-0.139	0.107
-96.845	21.539	0.106	-0.085
-95.830	249.907	-0.062	0.104
-94.816	34.020	0.094	-0.081
-93.801	-200.000	-0.035	0.217
-92.786	-126.553	-0.099	-0.014
-91.772	-200.000	-0.060	0.424
-90.757	-46.424	-0.071	-0.034
-89.743	396.344	-0.154	-0.317
-88.728	307.803	0.094	-0.174
-87.713	-120.306	-0.138	0.023
-86.699	-200.000	0.010	-0.320
-85.684	19.934	0.114	-0.091
-84.670	-170.914	-0.178	-0.006
-83.655	-95.135	0.416	0.111
-82.640	-32.708	-0.269	0.148
-81.626	-147.392	0.385	-0.032
-80.611	-63.748	-0.266	0.108
-79.597	-200.000	0.034	-0.248
-78.582	-158.224	-0.186	-0.011
-77.567	-122.245	0.307	-0.050
-76.553	-200.000	-0.027	0.219
-75.538	347.589	0.154	-0.299
-74.524	9.758	0.088	-0.066
-73.509	800.000	-0.036	0.115
-72.494	-158.257	0.321	0.019
-71.480	4.376	-0.146	0.105
-70.465	490.780	0.075	0.168
-69.451	-184.556	-0.184	-0.003
-68.436	66.101	0.038	-0.039
-67.422	63.995	0.027	-0.027
-66.407	-42.872	0.149	0.075
-65.392	10.832	-0.150	-0.113
-64.378	92.593	0.166	-0.185
-63.363	-200.000	-0.031	0.183
-62.349	8.460	0.261	0.194
-61.334	79.954	-0.912	-0.967
-60.319	800.000	0.114	0.369
-59.305	-200.000	-0.220	-0.981
-58.290	-200.000	0.261	1.151
-57.276	800.000	0.529	1.670
-56.261	-200.000	97.478	592.790
-55.246	570.372	1379.264	3309.627
-54.232	154.251	2580.729	3492.344
-53.217	116.821	2158.326	2612.633
-52.203	46.776	1615.362	1479.866
-51.188	38.375	1352.132	1187.926
-50.173	34.961	1310.147	1130.860
-49.159	58.392	1359.251	1314.624
-48.144	62.676	1377.672	1358.074
-47.130	38.608	1331.845	1171.310
-46.115	34.897	1313.909	1133.542
-45.100	34.709	1309.112	1128.251
-44.086	34.661	1306.710	1125.855
-43.071	34.607	1304.353	1123.458
-42.057	34.556	1302.279	1121.332
-41.042	34.725	1300.767	1120.972
-40.027	34.721	1299.241	1119.590
-39.013	34.755	1296.877	1117.712
-37.998	34.740	1295.545	1116.430
-36.984	34.775	1293.862	1115.138
-35.969	34.763	1291.845	1113.285
-34.954	34.909	1289.732	1112.273
-33.940	34.843	1289.168	1111.359
-32.925	34.921	1287.545	1110.364
-31.911	34.953	1286.056	1109.225
-30.896	35.019	1284.387	1108.125
-29.881	34.955	1283.682	1107.102
-28.867	34.875	1282.454	1105.533
-27.852	34.887	1280.274	1103.679
-26.838	34.946	1279.456	1103.270
-25.823	34.900	1278.027	1101.733
-24.809	34.903	1276.561	1100.442
-23.794	34.913	1274.942	1099.060
-22.779	35.011	1273.831	1098.617
-21.765	34.802	1272.963	1096.627
-20.750	34.902	1271.097	1095.548
-19.736	34.884	1269.750	1094.246
-18.721	34.832	1269.088	1093.333
-17.706	34.835	1267.922	1092.298
-16.692	34.707	1266.369	1090.192
-15.677	34.675	1265.357	1089.090
-14.663	34.664	1264.384	1088.147
-13.648	34.679	1263.435	1087.374
-12.633	34.668	1262.991	1086.883
-11.619	34.835	1261.655	1086.645
-10.604	34.762	1260.585	1085.261
-9.590	34.748	1259.632	1084.318
-8.575	34.704	1258.608	1083.148
-7.560	34.766	1257.690	1082.666
-6.546	34.648	1257.275	1081.597
-5.531	34.669	1256.605	1081.096
-4.517	34.651	1255.050	1079.612
-3.502	34.685	1254.768	1079.519
-2.487	34.658	1253.807	1078.500
-1.473	34.719	1249.839	1075.387
-0.458	33.241	1234.641	1054.041
0.556	29.717	1216.286	1014.288
1.571	26.074	1220.486	997.606
2.586	25.086	1236.209	1004.828
3.600	24.235	1225.271	991.122
4.615	17.620	1152.037	897.091
5.629	6.949	1073.145	782.986
6.644	2.222	1050.946	743.758
7.659	1.766	1048.560	739.789
8.673	1.690	1047.547	738.641
9.688	1.622	1046.211	737.303
10.702	2.104	1044.955	738.684
11.717	8.998	1054.857	779.192
12.731	19.082	1069.910	839.687
13.746	24.045	1075.221	868.048
14.761	24.795	1075.682	872.004
15.775	24.755	1075.495	871.581
16.790	24.682	1074.447	870.297
17.804	24.506	1073.859	868.887
18.819	24.463	1073.917	868.646
19.834	24.758	1072.845	869.137
20.848	24.840	1072.629	869.284
21.863	24.809	1071.938	868.499
22.877	24.647	1071.458	867.244
23.892	24.712	1070.704	866.872
24.907	24.726	1070.181	866.442
25.921	24.604	1069.066	864.870
26.936	24.737	1067.393	864.086
27.950	24.627	1066.055	862.394
28.965	24.549	1064.259	860.488
29.980	24.620	1062.701	859.493
30.994	24.649	1061.992	858.985
32.009	24.812	1060.776	858.708
33.023	24.621	1059.510	856.691
34.038	24.677	1058.830	856.332
35.053	24.771	1058.197	856.195
36.067	24.719	1057.481	855.293
37.082	24.804	1056.826	855.091
38.096	24.933	1056.013	854.975
39.111	25.003	1054.959	854.382
40.126	24.912	1053.698	852.852
41.140	24.506	1052.206	849.637
42.155	24.346	1050.716	847.594
43.169	24.426	1049.829	847.187
44.184	24.477	1048.480	846.264
45.199	24.210	1048.400	844.859
46.213	24.227	1047.550	844.179
47.228	24.612	1046.626	845.181
48.242	24.582	1045.572	844.115
49.257	24.681	1045.278	844.270
50.271	24.658	1044.570	843.516
51.286	24.860	1043.418	843.461
52.301	24.914	1042.645	843.016
53.315	24.792	1041.655	841.566
54.330	24.643	1041.273	840.485
55.344	24.718	1040.106	839.821
56.359	24.589	1039.022	838.265
57.374	24.423	1038.324	836.852
58.388	24.454	1037.693	836.414
59.403	24.581	1036.233	835.755
60.417	24.421	1035.449	834.300
61.432	24.508	1035.089	834.346
62.447	24.568	1034.226	833.855
63.461	24.549	1033.248	832.903
64.476	24.440	1032.464	831.688
65.490	24.426	1031.581	830.841
66.505	24.453	1030.979	830.406
67.520	24.514	1030.156	829.953
68.534	24.255	1029.334	828.015
69.549	23.902	1028.091	825.306
70.563	23.930	1027.629	824.989
71.578	23.932	1026.739	824.215
72.593	23.855	1025.927	823.130
73.607	24.058	1025.209	823.420
74.622	24.329	1024.967	824.405
75.636	24.297	1024.067	823.461
76.651	24.098	1022.916	821.545
77.666	23.980	1022.716	820.770
78.680	24.104	1021.991	820.684
79.695	24.218	1021.546	820.780
80.709	24.341	1020.497	820.430
81.724	24.295	1019.661	819.476
82.739	24.333	1019.308	819.292
83.753	24.760	1018.444	820.484
84.768	25.101	1017.483	821.199
85.782	25.072	1017.129	820.710
86.797	24.987	1015.788	819.167
87.812	24.832	1014.896	817.668
88.826	24.940	1013.936	817.315
89.841	24.887	1013.726	816.831
90.855	25.032	1012.162	816.160
91.870	25.105	1011.031	815.507
92.884	24.873	1010.185	813.699
93.899	24.873	1009.076	812.732
94.914	25.032	1008.454	812.882
95.928	24.796	1007.159	810.695
96.943	24.535	1006.051	808.552
97.957	24.340	1004.869	806.646
98.972	24.284	1003.602	805.306
99.987	24.609	1002.871	806.115
101.001	24.686	1002.744	806.290
102.016	24.659	1001.765	805.309
103.030	24.575	1000.841	804.117
104.045	24.452	999.839	802.689
105.060	24.360	998.564	801.179
106.074	24.421	998.158	801.054
107.089	24.794	997.592	802.207
108.103	24.695	996.427	800.753
109.118	24.541	995.038	798.879
110.133	24.519	994.105	797.960
111.147	24.318	992.731	795.889
112.162	24.144	991.868	794.350
113.176	24.442	991.711	795.482
114.191	24.168	990.880	793.526
115.206	24.029	989.909	792.060
116.220	24.033	988.846	791.156
117.235	24.142	988.108	790.978
118.249	24.236	987.209	790.607
119.264	23.943	986.640	788.784
120.279	24.179	985.634	788.954
121.293	24.213	984.687	788.276
122.308	24.245	983.793	787.635
123.322	24.090	982.830	786.108
124.337	24.000	981.573	784.636
125.352	23.501	980.289	781.344
126.366	23.410	979.155	779.969
127.381	24.269	979.137	783.662
128.395	24.660	978.391	784.714
129.410	24.758	977.732	784.544
130.424	24.762	976.794	783.740
131.439	24.655	975.804	782.411
132.454	24.655	975.011	781.704
133.468	24.612	974.320	780.893
134.483	24.738	973.600	780.799
135.497	24.871	972.749	780.627
136.512	24.873	971.923	779.904
137.527	25.138	970.404	779.769
138.541	24.903	970.607	778.839
139.556	25.015	969.973	778.749
140.570	24.978	968.834	777.604
141.585	25.072	967.962	777.243
142.600	24.962	966.691	775.679
143.614	25.174	966.226	776.153
144.629	25.256	965.282	775.680
145.643	24.946	964.441	773.598
146.658	24.906	962.342	771.672
147.673	24.943	961.748	771.290
148.687	24.821	960.631	769.799
149.702	24.773	959.499	768.618
150.716	24.703	958.751	767.650
151.731	24.857	958.315	767.895
152.746	25.020	957.527	767.894
153.760	24.984	957.185	767.398
154.775	25.199	956.603	767.781
155.789	25.169	955.693	766.857
156.804	25.037	954.771	765.485
157.819	25.184	954.146	765.542
158.833	25.208	953.467	765.035
159.848	25.130	952.725	764.037
160.862	25.160	951.258	762.923
161.877	25.020	950.530	761.676
162.892	24.968	949.824	760.821
163.906	25.056	948.106	759.750
164.921	25.077	947.487	759.278
165.935	25.144	946.528	758.725
166.950	25.160	945.621	757.999
167.964	25.186	944.571	757.201
168.979	24.942	943.593	755.319
169.994	24.854	943.129	754.508
171.008	25.057	942.496	754.791
172.023	25.098	941.476	754.079
173.037	25.080	940.302	752.997
174.052	24.824	939.187	750.963
175.067	24.814	939.017	750.720
176.081	25.001	938.290	750.857
177.096	24.839	937.788	749.711
178.110	24.602	936.090	747.293
179.125	24.378	935.721	745.997
180.140	24.530	935.596	746.469
181.154	24.598	935.736	746.797
182.169	24.970	935.032	747.720
183.183	25.077	934.794	747.914
184.198	25.081	933.536	746.856
185.213	24.964	932.792	745.709
186.227	25.175	932.242	746.079
187.242	25.109	931.640	745.258
188.256	25.035	931.134	744.477
189.271	25.108	930.181	743.957
190.286	24.826	929.383	742.082
191.300	24.149	927.495	737.705
192.315	23.392	925.916	733.255
193.329	23.458	925.897	733.447
194.344	24.461	926.114	737.700
195.359	24.886	925.911	739.230
196.373	25.173	925.096	739.697
197.388	24.905	925.280	738.671
198.402	25.014	924.145	738.153
199.417	25.006	923.757	737.744
200.432	24.710	922.484	735.445
201.446	24.609	921.770	734.396
202.461	24.657	921.606	734.397
203.475	23.782	919.512	729.073
204.490	23.050	918.127	724.910
205.504	23.981	918.493	728.951
206.519	24.643	918.472	731.582
207.534	24.635	917.959	731.076
208.548	24.944	918.003	732.311
209.563	24.810	916.807	730.744
210.577	24.796	916.171	730.113
211.592	25.284	915.790	731.738
212.607	25.222	914.890	730.699
213.621	25.164	914.332	729.952
214.636	25.203	913.731	729.570
215.650	25.087	912.910	728.378
216.665	25.266	912.205	728.476
217.680	25.103	911.899	727.505
218.694	24.922	909.894	725.109
219.709	24.658	909.762	723.872
220.723	24.922	909.559	724.714
221.738	24.911	909.352	724.439
222.753	24.932	908.260	723.594
223.767	25.106	907.742	723.819
224.782	25.396	907.686	724.879
225.796	25.296	907.073	723.921
226.811	24.391	905.781	719.180
227.826	23.907	904.221	715.930
228.840	24.134	903.889	716.516
229.855	24.224	903.216	716.284
230.869	23.876	901.950	713.819
231.884	24.279	902.065	715.465
232.899	24.930	902.039	717.992
233.913	24.937	901.528	717.550
234.928	24.981	900.708	717.011
235.942	24.883	900.049	716.028
236.957	24.648	899.166	714.323
237.972	24.457	898.935	713.314
238.986	24.684	898.530	713.838
240.001	24.598	897.757	712.814
241.015	24.789	896.748	712.714
242.030	24.933	896.771	713.241
243.045	25.072	896.170	713.255
244.059	25.165	895.716	713.197
245.074	24.930	894.849	711.513
246.088	24.718	893.586	709.603
247.103	25.018	893.293	710.496
248.117	25.491	893.474	712.454
249.132	25.653	893.157	712.782
250.147	25.773	892.605	712.753
251.161	25.982	892.316	713.285
252.176	25.826	891.611	712.044
253.190	25.941	890.747	711.742
254.205	26.071	890.526	712.017
255.220	25.965	890.277	711.337
256.234	25.981	888.976	710.295
257.249	25.600	888.972	708.730
258.263	25.720	887.878	708.267
259.278	25.833	887.043	707.983
260.293	25.797	886.557	707.389
261.307	25.689	886.062	706.510
262.322	25.779	884.924	705.890
263.336	24.721	883.261	700.361
264.351	23.877	881.110	695.295
265.366	23.843	881.155	695.135
266.380	25.049	881.470	700.036
267.395	25.432	881.717	701.667
268.409	25.436	880.587	700.724
269.424	25.640	880.628	701.486
270.439	25.712	879.424	700.746
271.453	25.762	879.270	700.756
272.468	25.781	878.936	700.501
273.482	25.975	878.355	700.730
274.497	25.592	876.978	698.086
275.512	25.204	875.814	695.594
276.526	25.512	876.329	697.133
277.541	25.885	875.548	697.898
278.555	25.548	874.700	695.856
279.570	25.438	874.106	694.896
280.585	25.674	873.963	695.631
281.599	25.490	872.793	693.928
282.614	24.924	871.530	690.680
283.628	24.857	871.601	690.416
284.643	25.313	870.824	691.497
285.657	24.918	870.179	689.406
286.672	24.539	869.285	687.175
287.687	25.097	869.287	689.262
288.701	25.366	868.451	689.572
289.716	24.916	867.569	687.087
290.730	24.944	867.020	686.698
291.745	24.557	865.834	684.214
292.760	24.897	865.940	685.538
293.774	26.021	866.202	689.989
294.789	26.409	865.759	691.059
295.803	26.301	865.643	690.493
296.818	26.336	865.075	690.111
297.833	25.850	863.344	686.819
298.847	25.773	862.758	685.996
299.862	25.930	863.120	686.824
300.876	26.298	862.399	687.588
301.891	26.195	861.907	686.745
302.906	25.603	861.007	683.717
303.920	25.620	860.896	683.631
304.935	26.160	860.202	685.071
305.949	26.113	859.793	684.508
306.964	25.872	858.720	682.680
307.979	26.057	858.337	683.015
308.993	26.452	857.865	684.074
310.008	26.416	857.481	683.570
311.022	26.158	856.578	681.814
312.037	25.904	856.179	680.479
313.052	25.695	855.024	678.711
314.066	24.881	853.737	674.564
315.081	24.477	852.845	672.277
316.095	25.335	853.707	676.131
317.110	25.936	852.891	677.686
318.125	25.082	851.485	673.299
319.139	24.057	849.807	668.071
320.154	24.029	849.452	667.626
321.168	24.947	849.979	671.424
322.183	25.629	850.533	674.361
323.197	25.818	849.775	674.409
324.212	25.969	849.872	674.990
325.227	26.009	848.984	674.376
326.241	25.834	848.135	672.989
327.256	25.782	847.751	672.431
328.270	25.770	846.723	671.509
329.285	25.624	845.691	670.087
330.300	25.327	845.269	668.588
331.314	25.527	845.326	669.318
332.329	25.949	845.031	670.595
333.343	25.974	844.970	670.580
334.358	26.146	844.006	670.397
335.373	26.201	843.753	670.340
336.387	26.380	843.775	670.962
337.402	26.480	843.687	671.205
338.416	26.382	843.200	670.392
339.431	26.579	842.926	670.848
340.446	26.749	842.554	671.120
341.460	26.683	841.856	670.261
342.475	26.438	841.690	669.162
343.489	26.292	841.597	668.490
344.504	26.744	841.017	669.640
345.519	26.901	840.662	669.877
346.533	27.035	839.843	669.660
347.548	26.911	839.181	668.616
348.562	26.895	838.748	668.154
349.577	26.805	838.327	667.427
350.592	26.714	838.269	666.988
351.606	26.817	836.923	666.236
352.621	26.689	836.336	665.240
353.635	26.590	835.465	664.125
354.650	25.962	833.966	660.576
355.665	25.112	832.105	655.933
356.679	25.550	832.171	657.530
357.694	25.856	831.730	658.241
358.708	25.837	831.502	657.933
359.723	26.259	831.287	659.247
360.738	26.557	830.977	660.029
361.752	26.602	830.370	659.651
362.767	27.005	829.999	660.767
363.781	27.060	829.997	660.906
364.796	27.369	829.541	661.608
365.810	27.282	829.165	660.935
366.825	27.351	828.443	660.549
367.840	27.011	827.707	658.671
368.854	26.662	826.782	656.612
369.869	26.680	826.358	656.283
370.883	26.742	825.724	655.944
371.898	26.450	825.675	654.790
372.913	26.556	825.200	654.739
373.927	26.590	825.274	654.864
374.942	26.898	824.831	655.566
375.956	26.914	824.322	655.163
376.971	27.072	823.891	655.332
377.986	27.329	823.323	655.748
379.000	27.289	822.743	655.086
380.015	27.151	821.809	653.787
381.029	27.173	821.422	653.499
382.044	27.227	821.043	653.335
383.059	27.165	820.741	652.815
384.073	27.159	820.018	652.160
385.088	27.264	819.588	652.138
386.102	26.939	819.170	650.580
387.117	26.902	818.137	649.571
388.132	26.607	816.666	647.293
389.146	26.275	815.828	645.385
390.161	26.561	816.000	646.486
391.175	27.002	815.894	647.916
392.190	26.689	814.418	645.574
393.205	25.200	812.410	638.630
394.219	23.715	810.824	632.045
395.234	23.725	810.547	631.810
396.248	25.225	812.235	638.412
397.263	26.790	812.860	644.412
398.278	26.670	812.612	643.731
399.292	26.388	811.926	642.131
400.307	26.435	811.246	641.703
401.321	26.628	811.163	642.263
402.336	27.071	810.992	643.641
403.350	27.500	810.821	644.968
404.365	27.530	810.957	645.125
405.380	27.998	810.164	646.092
406.394	27.965	810.026	645.811
407.409	27.927	809.190	644.951
408.423	27.718	809.183	644.151
409.438	27.828	808.477	643.921
410.453	27.865	808.069	643.670
411.467	27.976	807.402	643.470
412.482	27.843	807.066	642.678
413.496	28.032	806.995	643.231
414.511	28.053	805.989	642.447
415.526	27.874	806.200	641.928
416.540	27.844	805.447	641.166
417.555	27.527	804.479	639.226
418.569	27.644	804.397	639.514
419.584	27.618	803.553	638.697
420.599	27.552	802.910	637.897
421.613	108.531	1281.060	1444.333
422.628	93.636	1350.730	1444.439
