DTS Sentinel unit serial number:	SN413079Multiplexer serial number:	ORYXHardware model number:	OX4-SRSoftware version number:	ORYX F/W v4.00 Oryx Data Collector v3.7.2.0data status	okinstallation	princeton_trtdifferential loss correction	single-endedforward channel	channel 1reverse channel	N/Adate	2019/09/11time	19:24:11forward acquisition time	60.00reverse acquisition time	0.00gamma	496.2192k internal	0.2295k external	0.2295temperature offset calibration	1.0021default loss term (dB/km)	0.3790temperature slope calibration	1.0000multiplexer offset coefficient	1.0000multiplexer slope coefficient	1.0000fibre end	0.00T internal ref (°C)	40.80T ext. ref 1 (°C)	1.30T ext. ref 2 (°C)	33.03length (m)	temperature (°C)	Stokes	anti-Stokes-747.200	123.877	-0.080	0.103
-746.185	800.000	0.007	-0.021
-745.171	-138.462	0.413	0.046
-744.156	53.315	0.068	0.066
-743.142	-155.732	-0.122	-0.008
-742.127	-200.000	0.018	0.153
-741.112	-136.520	-0.275	0.033
-740.098	-67.568	0.075	0.030
-739.083	-75.603	0.108	-0.039
-738.069	117.086	-0.149	0.187
-737.054	-34.785	-0.048	0.027
-736.039	149.442	-0.028	-0.039
-735.025	-58.437	-0.164	0.073
-734.010	-200.000	-0.008	-0.045
-732.996	-156.378	0.179	0.011
-731.981	-64.175	0.001	-0.001
-730.966	743.963	-0.080	-0.221
-729.952	-28.972	-0.135	-0.079
-728.937	3.839	-0.092	-0.069
-727.923	-87.152	-0.353	-0.110
-726.908	293.224	-0.172	0.321
-725.894	-200.000	-0.007	0.266
-724.879	131.329	0.058	0.076
-723.864	234.547	0.149	-0.250
-722.850	-64.377	-0.190	0.079
-721.835	800.000	0.053	-0.174
-720.821	181.427	0.132	0.198
-719.806	627.739	-0.044	0.114
-718.791	-200.000	-0.030	-0.227
-717.777	-176.289	-0.417	0.011
-716.762	459.925	0.217	-0.493
-715.748	28.232	0.072	-0.062
-714.733	-57.622	-0.291	-0.130
-713.718	150.766	0.122	0.169
-712.704	-110.594	0.093	0.020
-711.689	-122.250	0.091	-0.015
-710.675	36.990	0.036	0.033
-709.660	-4.221	-0.327	0.231
-708.645	87.814	-0.081	0.092
-707.631	-162.617	0.141	0.007
-706.616	800.000	-0.047	-0.180
-705.602	-200.000	0.052	-0.390
-704.587	-2.580	-0.250	-0.179
-703.572	551.203	-0.042	-0.104
-702.558	748.032	-0.052	0.144
-701.543	-32.820	0.145	-0.082
-700.529	-95.580	-0.162	0.044
-699.514	-97.904	0.433	-0.114
-698.499	-200.000	0.018	0.371
-697.485	-151.504	0.221	0.017
-696.470	-32.758	-0.237	0.134
-695.456	-200.000	0.001	0.156
-694.441	-59.663	0.156	0.068
-693.426	-91.014	-0.018	-0.005
-692.412	-200.000	-0.053	0.329
-691.397	-55.008	-0.168	0.077
-690.383	800.000	-0.083	-0.346
-689.368	800.000	-0.103	0.388
-688.354	226.610	0.155	0.257
-687.339	690.485	-0.076	0.204
-686.324	80.213	-0.089	-0.098
-685.310	-152.627	0.249	-0.018
-684.295	231.239	0.024	0.041
-683.281	-137.584	0.169	-0.019
-682.266	84.089	-0.211	-0.235
-681.251	800.000	0.119	0.339
-680.237	-161.277	0.311	-0.016
-679.222	708.071	-0.073	0.197
-678.208	800.000	-0.051	0.152
-677.193	-132.932	-0.413	-0.054
-676.178	199.025	0.116	0.182
-675.164	15.385	-0.134	-0.107
-674.149	-31.948	0.170	-0.097
-673.135	-39.734	0.106	-0.057
-672.120	-14.359	0.062	0.041
-671.105	93.507	-0.122	-0.141
-670.091	-200.000	0.000	0.149
-669.076	16.566	-0.054	0.043
-668.062	247.046	-0.237	-0.408
-667.047	331.095	0.195	0.383
-666.032	200.580	0.131	0.206
-665.018	180.449	-0.112	-0.168
-664.003	212.833	0.123	-0.198
-662.989	-42.201	0.499	0.260
-661.974	560.431	-0.014	0.034
-660.959	69.504	0.121	-0.127
-659.945	800.000	-0.116	0.356
-658.930	-131.683	0.351	-0.047
-657.916	58.187	0.158	0.158
-656.901	169.953	-0.240	0.350
-655.886	-114.682	-0.219	-0.043
-654.872	-68.551	-0.359	-0.142
-653.857	470.112	0.054	0.123
-652.843	-33.019	-0.120	-0.068
-651.828	-85.784	-0.218	-0.069
-650.814	253.168	-0.097	0.169
-649.799	800.000	-0.096	-0.404
-648.784	-38.735	-0.301	0.162
-647.770	800.000	0.075	-0.292
-646.755	-79.847	-0.099	-0.034
-645.741	-200.000	-0.038	0.200
-644.726	-1.093	0.145	0.105
-643.711	-13.376	-0.230	0.152
-642.697	-200.000	0.045	0.334
-641.682	-94.952	-0.143	0.040
-640.668	-7.643	0.436	-0.300
-639.653	-200.000	0.023	0.109
-638.638	37.119	0.042	0.038
-637.624	-129.274	0.166	-0.024
-636.609	276.187	0.071	-0.128
-635.595	800.000	0.070	-0.283
-634.580	-133.821	-0.327	-0.041
-633.565	-80.376	-0.578	-0.197
-632.551	-103.420	-0.273	0.065
-631.536	-83.290	-0.050	0.016
-630.522	51.071	0.175	-0.169
-629.507	-109.868	0.037	-0.008
-628.492	-61.830	-0.168	-0.072
-627.478	-25.079	0.112	-0.068
-626.463	-83.254	0.427	-0.140
-625.449	-185.747	-0.231	-0.004
-624.434	-200.000	0.008	-0.208
-623.419	-63.085	-0.136	-0.057
-622.405	-200.000	-0.039	-0.288
-621.390	800.000	0.114	-0.382
-620.376	800.000	0.007	-0.024
-619.361	66.657	-0.066	-0.068
-618.346	-125.248	0.421	-0.065
-617.332	-114.300	-0.152	0.030
-616.317	-128.722	0.209	0.030
-615.303	215.245	0.106	-0.171
-614.288	-111.956	0.058	0.012
-613.273	-120.740	-0.294	0.051
-612.259	158.203	0.186	0.262
-611.244	569.716	-0.172	0.425
-610.230	429.123	-0.158	-0.347
-609.215	-93.005	-0.418	0.119
-608.201	180.498	-0.181	0.270
-607.186	-136.981	-0.352	0.041
-606.171	95.803	0.424	-0.493
-605.157	456.760	-0.262	-0.592
-604.142	511.764	0.118	-0.280
-603.128	530.211	0.061	0.146
-602.113	-14.776	0.141	-0.092
-601.098	-27.194	-0.126	-0.075
-600.084	89.776	0.151	0.172
-599.069	-106.287	-0.205	0.047
-598.055	-109.561	0.166	-0.036
-597.040	-200.000	-0.049	-0.373
-596.025	-200.000	-0.056	0.270
-595.011	-110.123	0.326	0.069
-593.996	-136.922	-0.256	0.030
-592.982	-104.094	-0.197	-0.047
-591.967	-86.717	0.267	-0.083
-590.952	800.000	0.172	-0.541
-589.938	88.113	-0.043	0.048
-588.923	1.572	0.140	-0.103
-587.909	-111.011	-0.230	0.048
-586.894	-80.983	0.106	0.036
-585.879	800.000	0.011	-0.050
-584.865	615.750	-0.067	0.171
-583.850	-61.079	-0.054	0.023
-582.836	-141.094	0.205	0.021
-581.821	800.000	-0.031	0.109
-580.806	800.000	0.031	-0.122
-579.792	439.746	-0.042	-0.094
-578.777	-200.000	0.028	0.317
-577.763	26.373	-0.138	-0.118
-576.748	-77.370	0.211	-0.074
-575.733	-200.000	0.006	-0.117
-574.719	-27.174	-0.116	0.069
-573.704	-69.452	-0.115	-0.045
-572.690	-78.927	0.340	-0.118
-571.675	-43.690	0.235	0.120
-570.661	351.168	-0.048	-0.097
-569.646	100.371	-0.173	0.204
-568.631	800.000	-0.035	-0.099
-567.617	-200.000	0.007	-0.177
-566.602	-108.626	0.603	-0.131
-565.588	417.336	-0.093	-0.201
-564.573	108.470	-0.086	-0.105
-563.558	-200.000	0.028	0.162
-562.544	140.738	0.112	0.150
-561.529	800.000	-0.091	0.342
-560.515	-73.811	-0.164	0.061
-559.500	-114.552	0.111	0.022
-558.485	800.000	0.023	0.090
-557.471	-40.619	-0.154	0.081
-556.456	95.046	-0.063	-0.073
-555.442	241.024	0.163	-0.276
-554.427	-200.000	0.004	0.189
-553.412	-9.758	-0.051	0.035
-552.398	-53.392	0.286	-0.133
-551.383	-186.401	0.032	-0.000
-550.369	668.777	-0.045	0.118
-549.354	-103.173	-0.152	-0.037
-548.339	-72.819	-0.363	0.136
-547.325	73.034	-0.094	-0.100
-546.310	259.072	-0.007	0.012
-545.296	614.900	-0.099	-0.252
-544.281	14.905	-0.103	-0.082
-543.266	-200.000	-0.023	0.293
-542.252	-147.267	0.039	-0.003
-541.237	483.069	0.074	0.170
-540.223	373.033	0.078	0.162
-539.208	-25.611	-0.041	0.025
-538.193	512.822	-0.079	0.188
-537.179	557.294	-0.049	-0.120
-536.164	310.867	-0.214	0.407
-535.150	-109.880	-0.124	0.026
-534.135	46.509	0.094	0.089
-533.121	-200.000	-0.001	-0.126
-532.106	92.590	0.090	0.103
-531.091	800.000	-0.095	0.319
-530.077	217.196	0.096	-0.155
-529.062	-200.000	0.001	0.161
-528.048	469.548	-0.117	0.266
-527.033	-200.000	-0.014	-0.114
-526.018	800.000	-0.038	-0.165
-525.004	-145.658	-0.185	-0.017
-523.989	726.314	-0.055	-0.149
-522.975	-200.000	-0.015	0.214
-521.960	423.029	0.035	0.076
-520.945	776.186	-0.135	-0.373
-519.931	1.609	-0.321	-0.234
-518.916	68.044	-0.063	0.066
-517.902	-118.240	-0.137	-0.025
-516.887	-85.495	-0.229	-0.072
-515.872	800.000	-0.058	-0.236
-514.858	39.414	-0.061	0.056
-513.843	-140.362	0.243	0.026
-512.829	-31.592	-0.130	0.074
-511.814	-48.437	0.087	-0.042
-510.799	412.330	0.060	-0.128
-509.785	-31.721	-0.024	0.014
-508.770	-130.519	0.322	-0.044
-507.756	28.711	-0.114	0.098
-506.741	-57.973	-0.196	0.087
-505.726	800.000	-0.146	-0.413
-504.712	-160.737	0.125	-0.007
-503.697	11.045	0.173	0.134
-502.683	43.767	-0.200	0.186
-501.668	-200.000	0.040	0.241
-500.653	-69.380	0.146	0.057
-499.639	-200.000	0.020	-0.175
-498.624	130.874	-0.072	0.093
-497.610	-117.941	-0.259	-0.047
-496.595	214.551	0.065	-0.105
-495.581	-89.592	0.098	-0.029
-494.566	-200.000	-0.043	-0.295
-493.551	-83.856	0.178	0.057
-492.537	135.248	-0.082	-0.108
-491.522	-200.000	-0.008	-0.456
-490.508	800.000	0.064	0.227
-489.493	425.795	0.180	0.394
-488.478	-77.550	-0.357	0.125
-487.464	-53.460	0.195	0.090
-486.449	-102.065	-0.099	-0.024
-485.435	-47.379	-0.263	0.129
-484.420	118.188	0.436	0.544
-483.405	-77.550	0.228	-0.080
-482.391	228.293	-0.131	-0.216
-481.376	77.777	-0.147	-0.159
-480.362	254.087	-0.116	0.201
-479.347	800.000	0.062	-0.187
-478.332	194.447	-0.073	-0.111
-477.318	230.544	-0.200	0.331
-476.303	232.869	0.188	0.313
-475.289	42.067	0.136	-0.125
-474.274	-170.606	0.152	0.005
-473.259	-200.000	-0.009	0.084
-472.245	800.000	0.022	0.088
-471.230	-133.284	-0.120	-0.015
-470.216	36.053	-0.209	-0.186
-469.201	212.431	-0.092	0.146
-468.186	-123.937	0.317	-0.050
-467.172	-200.000	0.019	0.180
-466.157	-56.394	0.168	0.076
-465.143	-9.917	0.060	0.040
-464.128	252.282	-0.049	0.085
-463.113	-200.000	-0.030	-0.182
-462.099	-82.551	-0.307	-0.101
-461.084	325.252	-0.121	0.234
-460.070	170.627	0.114	0.165
-459.055	-63.533	0.068	0.028
-458.040	454.779	0.110	0.247
-457.026	-118.669	0.130	-0.023
-456.011	-12.052	0.072	-0.048
-454.997	-60.107	0.128	0.055
-453.982	-121.176	-0.239	-0.040
-452.968	66.678	0.199	-0.204
-451.953	-60.445	-0.188	0.081
-450.938	263.611	-0.214	0.375
-449.924	360.551	-0.136	0.274
-448.909	170.386	-0.190	-0.275
-447.895	800.000	0.078	-0.226
-446.880	800.000	-0.047	0.177
-445.865	-174.072	0.295	0.009
-444.851	800.000	0.042	0.130
-443.836	-101.207	-0.059	0.015
-442.822	-149.173	-0.189	-0.015
-441.807	14.252	0.182	-0.144
-440.792	-35.884	-0.189	0.103
-439.778	-200.000	-0.010	-0.245
-438.763	800.000	0.114	0.376
-437.749	65.674	0.077	-0.079
-436.734	-100.118	0.104	-0.026
-435.719	7.024	0.115	-0.087
-434.705	-32.237	0.277	-0.156
-433.690	31.777	0.177	-0.154
-432.676	800.000	0.028	-0.089
-431.661	108.348	0.123	-0.148
-430.646	-134.141	0.138	-0.017
-429.632	-14.792	-0.187	-0.121
-428.617	-0.589	-0.279	-0.200
-427.603	-200.000	-0.040	-0.222
-426.588	-53.128	-0.049	-0.023
-425.573	800.000	0.049	-0.159
-424.559	208.894	-0.238	-0.376
-423.544	-13.072	-0.094	-0.062
-422.530	61.577	-0.258	0.259
-421.515	-200.000	0.061	0.350
-420.500	729.306	-0.065	-0.174
-419.486	800.000	0.034	0.137
-418.471	-180.723	-0.117	0.002
-417.457	54.842	-0.085	-0.083
-416.442	-200.000	-0.006	0.047
-415.428	-55.538	-0.075	0.034
-414.413	342.742	0.106	0.209
-413.398	-200.000	-0.002	-0.211
-412.384	-200.000	-0.045	0.229
-411.369	-136.140	-0.199	-0.023
-410.355	58.475	0.221	0.219
-409.340	165.733	-0.074	0.106
-408.325	134.556	0.158	0.207
-407.311	-91.278	0.158	-0.046
-406.296	-200.000	0.024	-0.151
-405.282	-112.126	0.311	-0.063
-404.267	-200.000	-0.032	-0.196
-403.252	29.868	0.236	-0.203
-402.238	-39.849	-0.127	0.067
-401.223	42.416	-0.149	0.137
-400.209	-38.919	-0.105	-0.056
-399.194	304.011	-0.159	-0.298
-398.179	46.643	-0.105	0.099
-397.165	-200.000	-0.032	-0.235
-396.150	43.948	0.098	-0.090
-395.136	26.017	0.107	0.090
-394.121	120.201	0.199	-0.249
-393.106	703.885	0.143	0.380
-392.092	10.109	0.137	-0.105
-391.077	124.090	-0.166	-0.210
-390.063	800.000	-0.033	0.126
-389.048	-81.340	-0.523	0.174
-388.033	2.052	0.308	0.224
-387.019	-158.429	0.386	0.023
-386.004	31.342	0.150	0.130
-384.990	-47.553	0.182	0.089
-383.975	41.169	-0.062	0.056
-382.960	-143.432	-0.544	-0.052
-381.946	800.000	0.106	0.403
-380.931	33.612	0.149	0.130
-379.917	274.405	0.130	0.232
-378.902	308.959	-0.090	0.170
-377.888	681.332	0.024	-0.062
-376.873	-8.462	0.016	-0.011
-375.858	-166.459	0.159	0.007
-374.844	759.010	0.041	-0.111
-373.829	-1.276	-0.106	0.075
-372.815	43.266	0.114	0.105
-371.800	-113.155	-0.075	-0.015
-370.785	691.743	0.070	0.184
-369.771	725.799	0.033	0.088
-368.756	68.239	-0.088	0.091
-367.742	-30.547	-0.203	-0.116
-366.727	138.843	-0.094	0.125
-365.712	-93.382	0.147	0.041
-364.698	-200.000	0.012	-0.059
-363.683	-200.000	0.016	0.181
-362.669	800.000	0.008	0.031
-361.654	-200.000	-0.061	-0.385
-360.639	-200.000	0.009	0.073
-359.625	-150.009	0.070	0.006
-358.610	-41.175	0.262	-0.136
-357.596	307.450	-0.201	-0.377
-356.581	319.132	0.160	-0.305
-355.566	731.291	0.049	-0.133
-354.552	-103.704	0.276	-0.065
-353.537	269.333	-0.065	0.116
-352.523	800.000	-0.067	0.272
-351.508	11.243	-0.252	0.194
-350.493	-200.000	0.036	0.242
-349.479	98.407	0.076	0.088
-348.464	-119.186	0.202	0.035
-347.450	-130.016	-0.282	0.039
-346.435	-2.908	-0.121	-0.085
-345.420	81.998	0.163	0.178
-344.406	800.000	-0.060	0.190
-343.391	193.627	0.205	0.313
-342.377	-98.838	0.058	0.015
-341.362	107.810	-0.146	-0.175
-340.348	45.364	0.221	0.205
-339.333	-200.000	-0.018	0.087
-338.318	662.649	0.098	-0.255
-337.304	-30.892	0.120	0.068
-336.289	-200.000	-0.028	-0.154
-335.275	111.610	-0.056	0.068
-334.260	238.991	0.110	0.185
-333.245	214.518	-0.161	-0.256
-332.231	0.762	-0.123	0.089
-331.216	-112.560	-0.048	0.010
-330.202	-200.000	0.015	-0.100
-329.187	386.809	0.189	-0.392
-328.172	147.127	0.023	0.031
-327.158	64.098	-0.092	-0.093
-326.143	91.095	-0.035	-0.039
-325.129	-200.000	0.111	0.000
-324.114	247.839	-0.113	-0.193
-323.099	800.000	0.058	0.204
-322.085	800.000	0.160	0.474
-321.070	8.067	0.134	0.101
-320.056	-11.398	-0.097	0.064
-319.041	730.742	0.065	-0.174
-318.026	429.943	0.076	-0.166
-317.012	362.346	0.106	0.214
-315.997	-200.000	-0.004	-0.198
-314.983	95.659	0.305	0.350
-313.968	-200.000	-0.005	0.184
-312.953	-75.256	0.054	0.019
-311.939	46.761	0.114	-0.107
-310.924	-105.256	0.067	0.015
-309.910	-200.000	-0.031	0.274
-308.895	800.000	-0.092	0.281
-307.880	-7.363	0.113	-0.077
-306.866	35.642	0.100	-0.088
-305.851	240.987	-0.049	-0.082
-304.837	-64.423	0.249	-0.102
-303.822	311.092	0.212	0.398
-302.807	800.000	-0.145	0.468
-301.793	-21.310	0.116	-0.071
-300.778	258.130	-0.081	-0.140
-299.764	255.067	0.152	-0.262
-298.749	21.422	0.282	0.230
-297.735	-30.620	0.170	0.096
-296.720	621.741	-0.097	-0.244
-295.705	-84.918	-0.208	0.065
-294.691	33.754	0.247	0.215
-293.676	238.061	-0.158	0.263
-292.662	-200.000	-0.023	0.227
-291.647	113.373	0.062	-0.075
-290.632	-50.096	0.301	-0.143
-289.618	527.789	-0.144	-0.342
-288.603	-156.580	0.167	0.010
-287.589	-137.065	-0.284	0.033
-286.574	-63.167	-0.332	0.137
-285.559	-49.975	0.273	0.130
-284.545	-19.273	0.178	0.111
-283.530	800.000	-0.059	0.247
-282.516	311.423	0.146	0.274
-281.501	-91.525	-0.250	-0.072
-280.486	800.000	0.104	-0.334
-279.472	110.598	-0.160	-0.193
-278.457	-200.000	-0.033	-0.183
-277.443	30.909	-0.269	-0.232
-276.428	297.550	0.127	-0.234
-275.413	-125.564	0.096	-0.015
-274.399	308.792	0.095	-0.177
-273.384	199.157	-0.073	-0.112
-272.370	-200.000	-0.050	0.246
-271.355	167.325	0.095	0.136
-270.340	-200.000	-0.015	0.247
-269.326	-32.553	0.006	0.003
-268.311	36.409	-0.020	-0.018
-267.297	71.161	-0.034	-0.035
-266.282	51.743	-0.157	0.150
-265.267	-72.085	0.441	0.164
-264.253	-200.000	-0.032	-0.352
-263.238	-181.406	-0.149	0.003
-262.224	58.373	0.158	-0.156
-261.209	-161.527	-0.224	0.012
-260.195	449.083	0.031	-0.069
-259.180	731.850	-0.088	0.235
-258.165	146.476	-0.178	-0.240
-257.151	-174.509	0.020	0.001
-256.136	105.308	-0.077	-0.091
-255.122	61.135	0.145	-0.145
-254.107	-200.000	-0.015	0.314
-253.092	-95.384	0.497	-0.134
-252.078	-149.005	0.359	0.029
-251.063	90.445	-0.195	0.219
-250.049	-26.866	0.247	0.145
-249.034	161.881	-0.062	-0.087
-248.019	286.123	-0.190	0.344
-247.005	800.000	0.026	0.109
-245.990	-103.783	0.200	-0.047
-244.976	-200.000	-0.016	0.254
-243.961	5.065	-0.113	0.083
-242.946	-181.674	-0.282	0.005
-241.932	141.790	0.109	-0.145
-240.917	-46.480	-0.496	0.244
-239.903	-35.152	-0.305	0.167
-238.888	-22.921	0.071	0.043
-237.873	-92.704	-0.066	-0.019
-236.859	-200.000	0.061	-0.376
-235.844	-81.718	-0.320	0.105
-234.830	112.651	-0.117	-0.142
-233.815	-200.000	-0.031	0.172
-232.800	93.594	-0.142	0.161
-231.786	38.771	0.061	0.055
-230.771	30.035	-0.252	-0.215
-229.757	321.495	0.084	0.160
-228.742	186.340	-0.077	0.115
-227.727	800.000	0.057	0.194
-226.713	-18.850	0.070	0.044
-225.698	-200.000	0.020	-0.127
-224.684	800.000	-0.040	0.145
-223.669	-145.219	0.217	-0.020
-222.655	81.976	0.244	-0.265
-221.640	-120.203	-0.200	0.034
-220.625	393.820	0.046	0.097
-219.611	-67.138	0.209	0.082
-218.596	18.853	-0.079	-0.063
-217.582	-110.472	-0.061	0.013
-216.567	192.579	-0.205	-0.310
-215.552	-133.498	0.095	-0.012
-214.538	-200.000	0.017	0.250
-213.523	-200.000	0.056	0.527
-212.509	-143.736	0.175	0.017
-211.494	-200.000	-0.028	-0.183
-210.479	-200.000	-0.028	0.280
-209.465	-48.537	0.138	0.067
-208.450	-200.000	0.002	0.028
-207.436	-116.299	-0.040	-0.007
-206.421	-124.995	0.367	-0.057
-205.406	-200.000	-0.036	-0.331
-204.392	-178.362	-0.139	0.003
-203.377	-200.000	0.039	-0.198
-202.363	581.715	0.109	-0.268
-201.348	174.433	0.132	0.191
-200.333	-200.000	-0.049	0.296
-199.319	126.011	0.114	-0.145
-198.304	-62.878	-0.385	-0.159
-197.290	-200.000	0.021	-0.187
-196.275	143.332	0.180	0.240
-195.260	-15.894	0.074	-0.047
-194.246	800.000	-0.034	0.128
-193.231	-200.000	-0.063	-0.287
-192.217	800.000	-0.012	0.042
-191.202	-48.540	-0.090	0.044
-190.187	-200.000	-0.018	-0.338
-189.173	800.000	0.066	-0.183
-188.158	-200.000	-0.011	-0.093
-187.144	-117.241	0.062	-0.011
-186.129	800.000	-0.056	-0.242
-185.114	-200.000	0.026	-0.162
-184.100	800.000	-0.058	0.168
-183.085	-22.113	0.046	0.028
-182.071	-200.000	0.018	0.158
-181.056	-89.437	-0.132	-0.039
-180.042	179.588	-0.085	-0.124
-179.027	-156.354	0.130	-0.008
-178.012	256.755	0.087	0.150
-176.998	-12.863	0.088	0.057
-175.983	-200.000	0.038	-0.380
-174.969	-98.856	-0.157	-0.040
-173.954	-20.763	-0.189	-0.116
-172.939	48.917	-0.191	0.179
-171.925	-100.304	-0.095	0.024
-170.910	800.000	-0.067	-0.283
-169.896	781.038	-0.047	-0.129
-168.881	-178.391	-0.183	-0.004
-167.866	-61.546	0.204	0.086
-166.852	-92.342	-0.098	-0.028
-165.837	-167.216	0.133	-0.005
-164.823	511.412	-0.028	-0.066
-163.808	5.749	0.185	-0.137
-162.793	346.904	-0.099	-0.194
-161.779	78.560	0.264	-0.282
-160.764	758.519	0.044	-0.118
-159.750	-1.318	-0.174	0.122
-158.735	-200.000	0.006	-0.212
-157.720	347.809	0.131	0.257
-156.706	514.122	-0.072	0.167
-155.691	-200.000	-0.010	0.180
-154.677	-200.000	0.002	-0.294
-153.662	-18.757	-0.171	-0.106
-152.647	156.215	0.071	-0.098
-151.633	95.948	-0.191	-0.217
-150.618	3.378	-0.144	-0.104
-149.604	14.491	0.236	0.184
-148.589	704.384	0.096	-0.253
-147.574	-122.121	-0.256	0.042
-146.560	-28.188	0.427	-0.247
-145.545	510.990	0.025	-0.059
-144.531	800.000	0.023	-0.063
-143.516	-200.000	0.061	0.344
-142.502	800.000	-0.112	0.339
-141.487	800.000	-0.047	-0.160
-140.472	800.000	-0.084	0.303
-139.458	218.774	0.029	-0.046
-138.443	0.872	0.229	-0.164
-137.429	99.010	0.116	0.134
-136.414	36.989	0.099	-0.088
-135.399	-86.927	0.312	0.095
-134.385	-118.121	0.124	0.022
-133.370	135.271	-0.038	0.050
-132.356	192.847	0.142	0.213
-131.341	-150.082	0.254	0.020
-130.326	-200.000	0.050	-0.248
-129.312	800.000	-0.043	0.163
-128.297	-169.863	0.575	-0.021
-127.283	-101.356	0.140	0.034
-126.268	371.615	-0.190	0.385
-125.253	133.338	-0.296	0.382
-124.239	800.000	0.075	-0.263
-123.224	800.000	-0.069	-0.213
-122.210	53.285	-0.124	-0.118
-121.195	-122.892	0.175	-0.028
-120.180	-111.866	0.084	0.017
-119.166	-1.801	-0.176	-0.124
-118.151	359.155	0.071	-0.141
-117.137	-11.753	-0.360	-0.235
-116.122	-200.000	-0.003	-0.130
-115.107	-105.135	-0.030	0.007
-114.093	4.721	-0.138	-0.101
-113.078	-43.844	0.303	-0.152
-112.064	619.270	0.023	0.056
-111.049	-9.396	0.455	-0.303
-110.034	62.185	0.298	-0.297
-109.020	-185.390	0.192	0.003
-108.005	-123.167	-0.061	0.010
-106.991	-200.000	-0.013	-0.252
-105.976	-14.106	0.204	0.131
-104.962	-53.456	-0.231	0.106
-103.947	-16.135	-0.150	0.095
-102.932	2.507	-0.176	0.127
-101.918	132.945	-0.035	-0.046
-100.903	44.377	0.139	0.127
-99.889	121.801	0.142	-0.177
-98.874	-200.000	-0.028	-0.208
-97.859	800.000	-0.107	0.409
-96.845	51.647	-0.132	0.125
-95.830	800.000	-0.070	-0.199
-94.816	8.012	-0.093	0.070
-93.801	-200.000	0.007	0.042
-92.786	-83.746	0.140	-0.045
-91.772	-81.940	0.194	0.063
-90.757	669.707	0.122	-0.314
-89.743	157.070	0.001	0.001
-88.728	-43.291	0.242	0.122
-87.713	8.962	0.127	-0.096
-86.699	-124.713	0.044	0.007
-85.684	-200.000	0.002	-0.061
-84.670	800.000	-0.119	-0.366
-83.655	-59.223	-0.179	-0.077
-82.640	-109.188	0.132	0.028
-81.626	-200.000	-0.061	0.282
-80.611	-52.210	-0.235	-0.109
-79.597	-119.223	-0.437	-0.076
-78.582	65.160	0.199	-0.200
-77.567	-77.758	0.155	-0.053
-76.553	-171.925	-0.294	-0.010
-75.538	559.629	0.059	-0.143
-74.524	43.672	0.052	0.048
-73.509	793.851	0.016	-0.043
-72.494	92.792	0.242	0.272
-71.480	-200.000	0.021	0.424
-70.465	-54.043	0.129	0.058
-69.451	800.000	0.061	0.193
-68.436	398.956	-0.228	0.475
-67.422	-28.266	0.132	0.076
-66.407	314.316	0.199	0.373
-65.392	138.212	0.125	-0.163
-64.378	-112.311	-0.210	0.042
-63.363	70.470	-0.106	0.109
-62.349	800.000	-0.112	0.429
-61.334	68.777	-0.831	-0.849
-60.319	91.957	0.400	0.448
-59.305	-200.000	-0.044	-0.909
-58.290	215.465	0.552	0.872
-57.276	388.189	0.769	1.584
-56.261	-200.000	77.970	507.639
-55.246	523.672	1317.358	3081.874
-54.232	150.668	2537.760	3431.744
-53.217	116.327	2208.981	2694.048
-52.203	52.124	1669.297	1583.119
-51.188	44.376	1399.476	1278.682
-50.173	40.947	1354.366	1216.485
-49.159	59.453	1390.467	1363.609
-48.144	65.976	1409.968	1422.927
-47.130	44.956	1371.560	1256.549
-46.115	40.924	1354.726	1216.474
-45.100	40.645	1350.278	1210.727
-44.086	40.560	1347.977	1208.100
-43.071	40.685	1345.247	1206.363
-42.057	40.659	1342.736	1203.906
-41.042	40.546	1341.521	1202.085
-40.027	40.652	1339.879	1201.210
-39.013	40.627	1338.043	1199.366
-37.998	40.732	1335.582	1197.745
-36.984	40.725	1334.498	1196.684
-35.969	40.798	1332.187	1195.001
-34.954	40.881	1330.178	1193.648
-33.940	40.950	1328.957	1192.919
-32.925	40.797	1328.185	1191.261
-31.911	40.932	1326.830	1190.811
-30.896	40.953	1324.685	1188.960
-29.881	40.944	1323.806	1188.073
-28.867	40.763	1322.419	1185.704
-27.852	40.947	1320.795	1185.296
-26.838	40.863	1319.206	1183.321
-25.823	40.838	1318.129	1182.162
-24.809	40.810	1316.703	1180.665
-23.794	40.870	1315.190	1179.622
-22.779	40.894	1314.101	1178.737
-21.765	40.885	1312.890	1177.554
-20.750	40.828	1311.205	1175.656
-19.736	40.849	1309.636	1174.330
-18.721	40.769	1308.390	1172.691
-17.706	40.778	1307.198	1171.632
-16.692	40.817	1305.855	1170.612
-15.677	40.770	1305.090	1169.603
-14.663	40.820	1303.776	1168.670
-13.648	40.620	1303.006	1166.757
-12.633	40.696	1301.814	1166.094
-11.619	40.771	1301.112	1165.855
-10.604	40.796	1300.052	1165.004
-9.590	40.792	1298.801	1163.815
-8.575	40.680	1298.320	1162.683
-7.560	40.753	1297.390	1162.228
-6.546	40.762	1296.283	1161.246
-5.531	40.624	1295.742	1159.910
-4.517	40.639	1294.665	1158.985
-3.502	40.841	1293.102	1158.716
-2.487	40.751	1292.798	1157.874
-1.473	40.733	1288.272	1153.674
-0.458	38.858	1271.612	1127.940
0.556	33.442	1250.162	1077.591
1.571	28.716	1252.846	1052.796
2.586	27.455	1267.145	1057.400
3.600	26.185	1257.135	1041.631
4.615	18.698	1180.796	937.563
5.629	7.147	1098.308	812.980
6.644	1.677	1074.834	767.990
7.659	1.358	1071.887	764.210
8.673	1.104	1070.883	762.155
9.688	1.063	1069.149	760.645
10.702	1.524	1067.952	762.037
11.717	8.582	1078.530	805.145
12.731	18.931	1093.703	868.970
13.746	23.517	1098.823	896.191
14.761	23.924	1099.256	898.522
15.775	23.934	1098.502	897.874
16.790	23.755	1097.975	896.463
17.804	23.610	1097.580	895.332
18.819	23.754	1096.540	895.130
19.834	23.849	1096.036	895.118
20.848	23.908	1096.089	895.376
21.863	23.876	1095.027	894.270
22.877	23.702	1094.821	893.145
23.892	23.759	1093.709	892.446
24.907	23.878	1092.976	892.365
25.921	23.846	1091.596	891.002
26.936	23.885	1090.416	890.155
27.950	23.639	1089.932	888.447
28.965	23.579	1087.561	886.137
29.980	23.686	1085.700	885.076
30.994	23.884	1085.219	885.592
32.009	23.847	1084.014	884.347
33.023	23.604	1082.966	882.205
34.038	23.613	1082.256	881.594
35.053	23.800	1081.158	881.552
36.067	23.838	1080.451	881.086
37.082	23.930	1079.460	880.654
38.096	24.075	1079.213	881.092
39.111	24.031	1078.461	880.183
40.126	23.929	1076.902	878.329
41.140	23.586	1074.996	875.005
42.155	23.431	1073.326	872.805
43.169	23.431	1072.533	872.086
44.184	23.472	1071.544	871.403
45.199	23.498	1070.682	870.753
46.213	23.499	1070.079	870.193
47.228	23.566	1068.985	869.554
48.242	23.585	1068.550	869.216
49.257	23.734	1067.722	869.192
50.271	23.904	1067.051	869.401
51.286	23.826	1066.058	868.136
52.301	23.869	1065.108	867.493
53.315	23.748	1064.153	866.050
54.330	23.798	1063.090	865.351
55.344	23.739	1062.300	864.344
56.359	23.727	1061.497	863.558
57.374	23.504	1060.495	861.581
58.388	23.579	1059.702	861.223
59.403	23.584	1058.703	860.361
60.417	23.387	1057.671	858.492
61.432	23.343	1057.578	858.130
62.447	23.520	1056.576	858.095
63.461	23.653	1056.284	858.425
64.476	23.641	1054.689	856.994
65.490	23.542	1053.816	855.735
66.505	23.574	1053.302	855.393
67.520	23.572	1052.508	854.662
68.534	23.457	1051.048	852.849
69.549	23.147	1050.324	850.696
70.563	23.059	1049.876	849.836
71.578	23.053	1048.660	848.748
72.593	22.988	1047.748	847.624
73.607	23.009	1047.406	847.372
74.622	23.463	1047.080	849.208
75.636	23.419	1046.172	848.187
76.651	23.365	1044.997	846.897
77.666	23.226	1044.281	845.579
78.680	23.383	1043.801	845.865
79.695	23.413	1043.065	845.338
80.709	23.303	1042.216	844.052
81.724	23.317	1041.734	843.653
82.739	23.468	1040.868	843.595
83.753	23.794	1040.811	845.025
84.768	24.044	1039.846	845.353
85.782	24.228	1038.878	845.367
86.797	24.121	1037.834	843.934
87.812	23.882	1037.027	842.070
88.826	24.009	1036.288	841.999
89.841	24.110	1035.310	841.605
90.855	24.136	1033.888	840.497
91.870	24.100	1033.201	839.696
92.884	23.905	1032.203	837.891
93.899	23.902	1030.903	836.749
94.914	24.004	1030.316	836.679
95.928	23.830	1029.093	834.795
96.943	23.647	1027.760	832.780
97.957	23.399	1026.781	830.750
98.972	23.297	1025.579	829.226
99.987	23.391	1025.163	829.257
101.001	23.727	1024.471	830.192
102.016	23.748	1022.976	829.008
103.030	23.784	1021.861	828.196
104.045	23.604	1021.175	826.732
105.060	23.360	1020.438	824.923
106.074	23.605	1019.523	825.252
107.089	23.893	1019.043	826.127
108.103	23.780	1017.673	824.419
109.118	23.491	1016.838	822.331
110.133	23.578	1015.748	821.780
111.147	23.300	1014.394	819.324
112.162	23.149	1013.849	818.115
113.176	23.481	1012.988	818.881
114.191	23.352	1012.364	817.710
115.206	23.130	1010.749	815.308
116.220	23.172	1009.790	814.655
117.235	23.299	1009.428	814.877
118.249	23.184	1008.550	813.565
119.264	23.072	1007.860	812.425
120.279	23.210	1007.526	812.719
121.293	23.243	1006.227	811.749
122.308	23.315	1005.263	811.227
123.322	23.238	1004.390	810.099
124.337	23.186	1002.828	808.531
125.352	22.590	1001.443	804.622
126.366	22.630	1000.468	803.950
127.381	23.288	1000.617	806.998
128.395	23.636	1000.075	808.076
129.410	23.924	998.531	808.066
130.424	23.763	997.991	806.823
131.439	23.754	996.976	805.893
132.454	23.719	996.328	805.137
133.468	23.677	995.355	804.091
134.483	23.798	994.668	804.013
135.497	23.949	993.764	803.893
136.512	24.101	993.180	804.035
137.527	24.058	992.196	802.976
138.541	24.165	991.197	802.575
139.556	24.075	990.547	801.577
140.570	24.157	989.616	801.119
141.585	24.079	988.714	799.969
142.600	24.065	987.455	798.816
143.614	24.257	986.943	799.193
144.629	24.320	986.361	798.931
145.643	24.225	984.837	797.200
146.658	24.014	983.565	795.157
147.673	23.960	982.754	794.193
148.687	23.902	981.065	792.498
149.702	23.794	980.645	791.609
150.716	23.749	979.550	790.453
151.731	23.894	978.998	790.581
152.746	24.104	978.337	790.914
153.760	24.129	977.736	790.469
154.775	24.168	977.310	790.223
155.789	24.044	976.131	788.653
156.804	24.087	975.623	788.361
157.819	24.235	974.499	788.038
158.833	24.363	973.562	787.780
159.848	24.258	972.867	786.683
160.862	24.132	971.526	784.971
161.877	24.081	970.775	784.072
162.892	24.174	969.927	783.728
163.906	24.185	968.435	782.502
164.921	24.036	967.866	781.315
165.935	24.237	966.410	780.953
166.950	24.113	966.088	780.083
167.964	24.306	964.581	779.640
168.979	24.107	963.958	778.197
169.994	23.843	963.140	776.315
171.008	24.150	962.852	777.354
172.023	24.156	961.929	776.568
173.037	23.901	960.778	774.457
174.052	23.789	959.801	773.114
175.067	23.978	958.822	773.082
176.081	24.005	958.422	772.808
177.096	23.940	957.987	772.103
178.110	23.669	956.968	770.038
179.125	23.480	955.833	768.238
180.140	23.535	955.415	768.075
181.154	23.756	955.185	768.778
182.169	24.015	955.160	769.809
183.183	24.207	955.050	770.484
184.198	23.994	954.207	768.814
185.213	24.041	952.924	767.915
186.227	24.148	952.453	767.929
187.242	24.105	951.891	767.225
188.256	24.158	950.998	766.665
189.271	24.193	950.215	766.117
190.286	23.918	949.098	763.967
191.300	23.311	947.930	760.351
192.315	22.603	945.951	755.664
193.329	22.422	945.443	754.416
194.344	23.462	946.075	759.309
195.359	24.003	945.700	761.257
196.373	24.107	945.401	761.392
197.388	24.017	944.796	760.453
198.402	23.975	944.278	759.790
199.417	24.050	942.994	759.010
200.432	23.772	942.420	757.298
201.446	23.636	941.269	755.726
202.461	23.522	941.625	755.457
203.475	22.791	939.046	750.217
204.490	22.035	937.588	745.776
205.504	22.907	938.321	749.999
206.519	23.611	938.313	752.912
207.534	23.788	937.554	752.988
208.548	24.008	937.527	753.833
209.563	23.853	936.825	752.545
210.577	23.777	936.004	751.498
211.592	24.255	935.593	753.122
212.607	24.173	934.788	752.057
213.621	24.318	933.591	751.642
214.636	24.272	933.398	751.223
215.650	24.107	932.615	749.835
216.665	24.356	931.663	750.051
217.680	24.295	930.618	748.886
218.694	23.783	929.917	746.106
219.709	23.627	929.287	744.881
220.723	23.815	929.205	745.536
221.738	23.933	928.485	745.389
222.753	24.024	927.967	745.287
223.767	24.102	927.334	745.038
224.782	24.327	927.204	745.810
225.796	24.230	926.705	744.937
226.811	23.656	924.831	740.970
227.826	23.042	923.773	737.496
228.840	23.258	922.878	737.618
229.855	23.216	922.452	737.037
230.869	22.919	920.960	734.544
231.884	23.443	921.277	736.911
232.899	24.052	921.254	739.357
233.913	23.910	920.433	738.045
234.928	23.927	919.770	737.516
235.942	23.951	919.156	737.058
236.957	23.628	918.169	734.867
237.972	23.524	918.000	734.234
238.986	23.681	917.542	734.453
240.001	23.697	916.523	733.637
241.015	23.785	916.216	733.693
242.030	24.143	915.666	734.662
243.045	24.072	915.467	734.147
244.059	24.190	914.857	734.078
245.074	24.025	913.751	732.446
246.088	23.626	912.809	729.984
247.103	23.815	912.844	730.726
248.117	24.285	912.943	732.674
249.132	24.662	912.154	733.520
250.147	24.715	911.947	733.508
251.161	24.965	911.210	733.876
252.176	24.777	910.588	732.540
253.190	24.872	910.464	732.762
254.205	25.136	909.326	732.860
255.220	25.094	908.563	732.011
256.234	25.018	907.588	730.852
257.249	24.714	907.691	729.627
258.263	24.783	906.383	728.794
259.278	24.950	906.011	729.111
260.293	24.970	905.629	728.818
261.307	24.909	904.493	727.594
262.322	24.582	903.895	725.719
263.336	24.002	901.557	721.426
264.351	22.912	899.701	715.465
265.366	23.126	899.339	715.980
266.380	24.174	899.985	720.672
267.395	24.516	900.226	722.186
268.409	24.486	899.314	721.268
269.424	24.791	898.928	722.126
270.439	24.805	898.320	721.632
271.453	24.829	897.906	721.334
272.468	24.885	897.641	721.283
273.482	24.969	896.954	721.002
274.497	24.434	895.820	717.877
275.512	24.204	894.900	716.150
276.526	24.674	894.858	717.944
277.541	24.784	894.503	718.037
278.555	24.533	893.352	716.042
279.570	24.375	892.769	714.877
280.585	24.572	892.321	715.245
281.599	24.599	891.054	714.273
282.614	23.901	890.088	710.647
283.628	23.818	890.006	710.190
284.643	24.224	889.454	711.306
285.657	24.037	887.988	709.326
286.672	23.737	887.107	707.367
287.687	24.204	887.465	709.448
288.701	24.295	886.825	709.237
289.716	24.041	885.570	707.159
290.730	24.041	884.841	706.515
291.745	23.723	883.961	704.489
292.760	24.003	883.900	705.488
293.774	24.856	884.588	709.357
294.789	25.327	883.743	710.482
295.803	25.440	883.294	710.504
296.818	25.372	882.795	709.772
297.833	24.897	881.680	706.937
298.847	24.693	881.085	705.593
299.862	24.985	881.099	706.695
300.876	25.321	880.778	707.697
301.891	25.324	879.681	706.766
302.906	24.797	878.767	703.895
303.920	24.933	878.295	703.990
304.935	25.269	878.279	705.236
305.949	25.193	877.709	704.419
306.964	24.906	877.001	702.661
307.979	24.862	876.834	702.294
308.993	25.327	876.523	703.805
310.008	25.385	875.615	703.240
311.022	25.134	875.016	701.714
312.037	25.026	874.024	700.437
313.052	24.730	873.423	698.733
314.066	23.789	872.145	693.977
315.081	23.648	870.727	692.239
316.095	24.506	870.850	695.620
317.110	24.886	871.034	697.186
318.125	24.023	869.845	692.811
319.139	23.061	868.275	687.760
320.154	23.073	867.706	687.297
321.168	23.854	868.240	690.693
322.183	24.488	868.473	693.281
323.197	24.743	867.979	693.814
324.212	25.110	867.592	694.868
325.227	24.933	866.968	693.621
326.241	24.953	866.097	692.940
327.256	24.838	865.512	691.967
328.270	24.623	864.884	690.572
329.285	24.523	863.722	689.197
330.300	24.346	863.180	688.020
331.314	24.625	862.977	688.874
332.329	24.924	863.026	690.005
333.343	25.154	862.733	690.593
334.358	25.084	862.213	689.850
335.373	25.093	861.951	689.613
336.387	25.404	861.890	690.698
337.402	25.518	861.931	691.110
338.416	25.456	861.388	690.372
339.431	25.703	860.655	690.674
340.446	25.643	860.368	690.153
341.460	25.574	859.953	689.494
342.475	25.532	859.320	688.761
343.489	25.523	859.027	688.433
344.504	25.879	858.773	689.529
345.519	25.981	858.458	689.605
346.533	25.949	857.791	688.887
347.548	25.835	857.722	688.335
348.562	25.870	856.913	687.760
349.577	25.786	856.203	686.810
350.592	25.893	855.206	686.354
351.606	25.905	854.430	685.719
352.621	25.724	853.791	684.454
353.635	25.457	853.373	683.047
354.650	24.884	851.472	679.289
355.665	23.976	849.937	674.566
356.679	24.469	850.037	676.452
357.694	24.931	849.473	677.694
358.708	24.919	848.761	677.018
359.723	25.333	848.607	678.400
360.738	25.583	848.529	679.222
361.752	25.707	848.048	679.248
362.767	25.989	847.531	679.837
363.781	26.270	847.304	680.651
364.796	26.255	847.213	680.460
365.810	26.294	846.734	680.163
366.825	26.318	846.164	679.735
367.840	25.998	845.268	677.756
368.854	25.612	844.130	675.331
369.869	25.709	843.695	675.289
370.883	25.804	843.689	675.581
371.898	25.523	843.038	673.945
372.913	25.778	842.490	674.403
373.927	25.849	842.299	674.456
374.942	25.911	842.319	674.644
375.956	25.981	841.498	674.190
376.971	26.100	840.640	673.886
377.986	26.297	840.768	674.667
379.000	26.186	840.121	673.673
380.015	25.948	839.758	672.435
381.029	26.134	839.032	672.487
382.044	26.274	838.143	672.234
383.059	26.244	838.038	671.981
384.073	26.296	837.212	671.450
385.088	26.387	836.401	671.080
386.102	25.927	835.975	668.971
387.117	25.968	835.369	668.581
388.132	25.588	834.414	666.350
389.146	25.209	833.367	664.051
390.161	25.574	833.045	665.086
391.175	25.975	832.999	666.471
392.190	25.805	831.806	664.830
393.205	24.377	829.862	657.956
394.219	22.904	828.088	651.067
395.234	22.716	828.046	650.282
396.248	24.327	828.979	656.899
397.263	25.683	829.830	662.510
398.278	25.746	829.866	662.713
399.292	25.570	829.151	661.434
400.307	25.529	828.524	660.725
401.321	25.710	827.909	660.841
402.336	26.091	827.855	662.138
403.350	26.470	827.919	663.519
404.365	26.714	827.780	664.245
405.380	26.832	827.591	664.468
406.394	26.911	826.955	664.187
407.409	26.828	826.365	663.351
408.423	26.850	825.692	662.832
409.438	26.931	825.648	663.035
410.453	27.097	825.139	663.172
411.467	26.917	824.789	662.175
412.482	26.899	824.261	661.628
413.496	26.871	823.795	661.092
414.511	27.004	823.132	660.986
415.526	27.002	822.965	660.788
416.540	26.807	822.587	659.717
417.555	26.517	821.698	657.890
418.569	26.613	821.056	657.667
419.584	26.487	820.437	656.656
420.599	26.451	820.036	656.147
421.613	95.935	1266.172	1383.689
422.628	82.733	1331.173	1383.826
