DTS Sentinel unit serial number:	SN413079Multiplexer serial number:	ORYXHardware model number:	OX4-SRSoftware version number:	ORYX F/W v4.00 Oryx Data Collector v3.7.2.0data status	okinstallation	princeton_trtdifferential loss correction	single-endedforward channel	channel 1reverse channel	N/Adate	2019/09/10time	19:48:11forward acquisition time	60.00reverse acquisition time	0.00gamma	496.2192k internal	0.2322k external	0.2322temperature offset calibration	0.9934default loss term (dB/km)	0.3790temperature slope calibration	1.0000multiplexer offset coefficient	1.0000multiplexer slope coefficient	1.0000fibre end	0.00T internal ref (°C)	32.94T ext. ref 1 (°C)	-0.31T ext. ref 2 (°C)	25.69length (m)	temperature (°C)	Stokes	anti-Stokes-747.200	-127.609	0.106	0.015
-746.185	-12.977	-0.159	0.105
-745.171	1.005	-0.176	-0.127
-744.156	-60.047	0.295	0.127
-743.142	-171.295	0.079	0.003
-742.127	614.208	-0.185	0.469
-741.112	61.399	-0.078	0.079
-740.098	223.944	-0.069	0.113
-739.083	78.403	-0.164	0.177
-738.069	800.000	-0.111	0.446
-737.054	246.664	0.131	0.223
-736.039	-62.737	-0.118	-0.049
-735.025	-164.880	-0.272	0.012
-734.010	-8.199	-0.304	0.207
-732.996	-200.000	0.015	0.174
-731.981	-200.000	0.014	0.259
-730.966	63.024	-0.247	-0.250
-729.952	4.655	0.170	0.126
-728.937	-62.766	-0.446	-0.186
-727.923	-25.460	-0.224	-0.133
-726.908	-200.000	-0.027	-0.333
-725.894	46.673	-0.412	0.387
-724.879	72.634	-0.121	0.127
-723.864	21.651	-0.233	-0.192
-722.850	-200.000	-0.043	-0.370
-721.835	453.806	0.054	0.122
-720.821	-58.195	-0.183	-0.080
-719.806	17.367	-0.129	0.104
-718.791	318.826	-0.060	-0.115
-717.777	-144.621	-0.197	-0.018
-716.762	-131.487	-0.173	0.023
-715.748	644.417	-0.065	0.167
-714.733	-110.687	-0.305	0.064
-713.718	460.929	0.032	-0.072
-712.704	-137.199	0.171	0.020
-711.689	9.958	0.115	0.088
-710.675	-200.000	0.016	0.181
-709.660	318.881	-0.016	0.031
-708.645	-200.000	0.056	-0.430
-707.631	-65.505	-0.263	0.107
-706.616	-118.805	-0.259	0.046
-705.602	800.000	0.033	0.140
-704.587	-92.185	0.067	0.019
-703.572	-151.200	-0.328	0.025
-702.558	-200.000	-0.026	0.173
-701.543	-50.965	0.197	0.093
-700.529	123.309	0.084	0.106
-699.514	99.230	-0.078	0.091
-698.499	800.000	-0.053	-0.199
-697.485	800.000	-0.057	-0.212
-696.470	-200.000	0.016	-0.198
-695.456	800.000	0.104	-0.311
-694.441	-11.847	-0.156	0.103
-693.426	-92.617	0.186	-0.052
-692.412	300.127	-0.090	0.167
-691.397	-93.355	-0.147	0.041
-690.383	-200.000	-0.011	-0.381
-689.368	-200.000	0.015	-0.118
-688.354	-126.434	-0.147	-0.022
-687.339	-130.491	-0.347	-0.047
-686.324	18.997	0.095	0.077
-685.310	800.000	-0.062	0.188
-684.295	171.653	-0.037	-0.053
-683.281	90.496	-0.249	-0.281
-682.266	319.564	-0.056	-0.107
-681.251	-200.000	-0.015	-0.236
-680.237	800.000	-0.011	-0.045
-679.222	-33.549	-0.283	0.158
-678.208	56.134	0.043	0.042
-677.193	-79.278	-0.075	-0.026
-676.178	66.066	-0.088	0.090
-675.164	-200.000	-0.787	-0.004
-674.149	-200.000	-0.014	-0.467
-673.135	-200.000	-0.033	0.173
-672.120	-120.724	-0.102	-0.017
-671.105	13.321	0.321	-0.251
-670.091	800.000	0.100	-0.282
-669.076	-156.982	-0.371	0.023
-668.062	-98.580	-0.312	-0.080
-667.047	800.000	0.046	-0.145
-666.032	424.641	0.169	-0.367
-665.018	-61.912	-0.290	-0.122
-664.003	-108.820	-0.148	-0.032
-662.989	-19.115	0.275	-0.172
-661.974	-2.231	0.055	-0.039
-660.959	-200.000	-0.178	-0.001
-659.945	122.435	-0.249	-0.313
-658.930	-59.491	-0.132	-0.057
-657.916	-200.000	0.037	-0.216
-656.901	-3.189	0.293	0.206
-655.886	282.854	0.087	0.157
-654.872	157.539	0.023	-0.033
-653.857	800.000	0.037	-0.149
-652.843	-200.000	0.020	0.097
-651.828	-19.180	-0.241	-0.150
-650.814	-163.361	-0.149	-0.007
-649.799	-20.038	0.266	0.165
-648.784	-200.000	0.012	-0.214
-647.770	-200.000	0.084	-0.377
-646.755	123.394	-0.205	-0.258
-645.741	432.221	0.095	-0.208
-644.726	-200.000	0.067	-0.298
-643.711	205.383	0.139	-0.218
-642.697	-41.658	0.286	0.148
-641.682	69.398	-0.189	0.196
-640.668	-93.532	0.308	0.086
-639.653	-200.000	0.060	0.374
-638.638	-127.560	0.262	0.038
-637.624	-52.102	-0.148	-0.069
-636.609	800.000	-0.039	-0.154
-635.595	-200.000	-0.010	-0.334
-634.580	362.689	-0.102	0.206
-633.565	-159.450	0.217	0.012
-632.551	-200.000	0.010	-0.217
-631.536	72.300	0.111	-0.116
-630.522	-49.964	0.252	0.120
-629.507	-200.000	-0.007	-0.206
-628.492	411.479	0.034	-0.072
-627.478	300.701	0.045	0.083
-626.463	-88.028	-0.170	-0.051
-625.449	-23.234	-0.223	-0.135
-624.434	800.000	-0.061	-0.176
-623.419	-152.194	0.181	0.013
-622.405	59.143	0.214	-0.211
-621.390	314.880	0.153	0.289
-620.376	-200.000	0.005	-0.073
-619.361	-118.240	-0.164	-0.029
-618.346	-19.647	0.392	0.244
-617.332	-200.000	-0.030	-0.496
-616.317	-36.289	0.426	-0.231
-615.303	-48.503	0.078	-0.038
-614.288	-3.715	0.330	0.230
-613.273	123.252	0.168	0.211
-612.259	-100.061	-0.252	0.063
-611.244	75.174	-0.323	-0.342
-610.230	-200.000	-0.050	0.509
-609.215	462.278	0.094	-0.211
-608.201	-38.835	-0.242	0.128
-607.186	-107.081	0.129	-0.029
-606.171	800.000	0.040	0.144
-605.157	282.419	0.125	-0.225
-604.142	-148.855	-0.267	-0.022
-603.128	39.722	-0.096	-0.086
-602.113	785.147	0.091	-0.251
-601.098	-200.000	0.007	-0.088
-600.084	207.493	-0.202	-0.317
-599.069	386.474	-0.113	0.234
-598.055	-200.000	-0.032	-0.226
-597.040	-200.000	0.052	0.362
-596.025	-135.759	0.045	0.005
-595.011	27.396	-0.227	-0.191
-593.996	-200.000	0.032	-0.256
-592.982	-93.067	-0.228	-0.064
-591.967	-174.635	0.186	0.005
-590.952	654.548	-0.087	-0.225
-589.938	176.263	-0.385	0.562
-588.923	-54.407	-0.165	-0.075
-587.909	-48.827	-0.021	0.010
-586.894	-92.307	-0.213	0.060
-585.879	-200.000	0.112	0.644
-584.865	-51.134	0.410	0.193
-583.850	115.799	-0.122	-0.150
-582.836	-27.041	0.305	0.179
-581.821	176.066	0.249	-0.364
-580.806	-26.076	0.197	-0.116
-579.792	92.895	-0.117	0.132
-578.777	264.648	-0.075	0.131
-577.763	41.382	-0.240	0.218
-576.748	-72.685	-0.424	-0.157
-575.733	-200.000	0.014	-0.327
-574.719	20.464	-0.228	0.185
-573.704	-200.000	-0.028	0.260
-572.690	-114.011	0.138	0.027
-571.675	138.978	0.111	-0.147
-570.661	601.442	-0.049	0.121
-569.646	800.000	0.028	-0.113
-568.631	-81.393	-0.192	0.064
-567.617	242.536	-0.148	0.249
-566.602	-200.000	-0.008	0.153
-565.588	-200.000	-0.000	0.279
-564.573	394.346	-0.141	0.295
-563.558	-200.000	-0.025	0.229
-562.544	-100.012	0.103	0.026
-561.529	226.438	-0.120	0.195
-560.515	77.946	0.199	-0.213
-559.500	-151.006	0.219	0.017
-558.485	415.574	-0.015	-0.031
-557.471	-37.774	-0.346	0.184
-556.456	-49.540	-0.106	0.050
-555.442	270.617	0.158	-0.278
-554.427	-129.799	-0.108	-0.015
-553.412	-200.000	0.057	-0.260
-552.398	-145.995	0.409	-0.036
-551.383	-200.000	0.031	-0.162
-550.369	-200.000	0.071	0.000
-549.354	-78.789	-0.105	-0.036
-548.339	-200.000	0.023	-0.484
-547.325	-200.000	0.045	-0.438
-546.310	-111.630	0.306	0.062
-545.296	-78.841	0.147	0.050
-544.281	-179.659	0.628	0.014
-543.266	-95.371	-0.206	-0.055
-542.252	169.227	0.045	0.064
-541.237	-200.000	0.015	-0.429
-540.223	-9.485	-0.262	-0.175
-539.208	64.445	-0.209	-0.211
-538.193	680.527	-0.037	-0.096
-537.179	-200.000	0.001	0.337
-536.164	-91.601	-0.211	-0.060
-535.150	342.553	-0.209	-0.410
-534.135	-49.813	-0.117	0.056
-533.121	-80.731	0.390	-0.130
-532.106	-117.376	0.293	-0.053
-531.091	-200.000	0.003	-0.181
-530.077	590.982	0.207	0.511
-529.062	800.000	-0.072	0.250
-528.048	-31.259	-0.360	0.203
-527.033	308.911	0.043	-0.081
-526.018	392.276	0.104	0.217
-525.004	800.000	-0.063	0.242
-523.989	-37.517	0.175	-0.094
-522.975	1.317	-0.091	-0.066
-521.960	392.790	0.184	0.382
-520.945	479.237	-0.083	-0.189
-519.931	3.055	0.277	0.202
-518.916	-64.857	0.173	-0.070
-517.902	19.655	0.045	0.036
-516.887	-200.000	-0.040	0.178
-515.872	16.763	-0.247	0.196
-514.858	-95.538	-0.460	0.124
-513.843	109.702	-0.206	-0.247
-512.829	444.678	0.017	0.036
-511.814	-200.000	-0.057	-0.291
-510.799	-200.000	0.010	-0.220
-509.785	9.873	0.200	0.152
-508.770	-1.771	0.248	-0.175
-507.756	631.241	0.179	-0.452
-506.741	29.581	-0.102	-0.087
-505.726	-88.207	-0.208	0.062
-504.712	-69.496	-0.156	0.060
-503.697	92.483	0.256	-0.289
-502.683	4.499	0.123	-0.091
-501.668	494.318	-0.088	0.203
-500.653	-136.161	0.045	-0.005
-499.639	612.759	-0.028	-0.071
-498.624	245.394	-0.153	-0.258
-497.610	11.646	-0.376	0.289
-496.595	-1.375	0.142	-0.100
-495.581	44.484	0.107	-0.098
-494.566	-81.436	-0.235	-0.077
-493.551	57.501	-0.161	-0.158
-492.537	800.000	-0.103	0.309
-491.522	800.000	0.070	0.202
-490.508	591.185	-0.114	0.282
-489.493	13.141	0.183	0.141
-488.478	-108.742	-0.146	-0.031
-487.464	-200.000	0.037	-0.211
-486.449	-200.000	0.017	0.102
-485.435	-103.298	0.295	0.070
-484.420	-109.327	-0.222	-0.047
-483.405	-93.998	-0.139	0.038
-482.391	433.153	0.091	0.197
-481.376	-200.000	0.013	0.309
-480.362	138.134	0.127	-0.167
-479.347	328.062	-0.259	-0.498
-478.332	-20.555	0.122	-0.075
-477.318	140.171	-0.056	-0.074
-476.303	-21.078	0.102	0.063
-475.289	800.000	0.076	0.273
-474.274	67.150	0.125	-0.127
-473.259	177.691	-0.236	-0.344
-472.245	-26.405	-0.140	-0.082
-471.230	-91.743	0.116	0.033
-470.216	-158.119	0.141	0.008
-469.201	-59.365	-0.103	-0.044
-468.186	41.768	-0.119	-0.108
-467.172	-200.000	0.000	-0.180
-466.157	49.815	-0.212	0.200
-465.143	-72.991	-0.129	-0.047
-464.128	-159.974	0.102	-0.006
-463.113	-160.411	-0.357	-0.019
-462.099	-88.535	0.358	0.107
-461.084	800.000	0.041	-0.178
-460.070	-69.450	0.335	-0.128
-459.055	-169.032	0.239	0.009
-458.040	152.177	-0.216	-0.294
-457.026	31.100	-0.344	0.295
-456.011	-40.277	0.287	0.149
-454.997	61.703	-0.179	0.177
-453.982	200.701	-0.137	-0.210
-452.968	93.599	-0.105	0.118
-451.953	-59.591	0.073	0.031
-450.938	-154.510	0.243	-0.016
-449.924	-200.000	-0.049	-0.303
-448.909	268.453	-0.019	-0.033
-447.895	775.594	-0.078	-0.214
-446.880	-4.694	0.103	-0.071
-445.865	-49.056	-0.128	-0.061
-444.851	230.507	0.082	0.135
-443.836	-200.000	0.054	0.491
-442.822	-86.352	0.071	0.022
-441.807	800.000	-0.061	-0.197
-440.792	-50.366	0.140	0.066
-439.778	800.000	-0.082	0.252
-438.763	-22.129	-0.134	-0.081
-437.749	138.315	0.111	-0.145
-436.734	800.000	-0.069	-0.251
-435.719	-145.675	0.301	0.027
-434.705	-122.763	0.222	0.036
-433.690	14.931	-0.237	-0.185
-432.676	-90.833	0.207	-0.059
-431.661	-200.000	0.007	0.217
-430.646	-7.123	0.079	-0.054
-429.632	-113.061	0.119	0.023
-428.617	-199.210	0.113	-0.001
-427.603	85.777	0.138	-0.151
-426.588	776.451	0.088	-0.239
-425.573	332.880	-0.050	0.097
-424.559	2.519	-0.260	0.188
-423.544	-17.564	0.166	0.104
-422.530	-7.380	-0.223	0.151
-421.515	50.885	0.078	0.073
-420.500	-126.676	0.253	-0.037
-419.486	-26.081	0.136	0.080
-418.471	75.822	0.204	0.215
-417.457	-42.670	-0.098	-0.050
-416.442	155.642	0.160	0.220
-415.428	532.697	-0.085	0.200
-414.413	62.456	0.122	-0.122
-413.398	800.000	-0.014	-0.042
-412.384	-86.926	-0.213	-0.065
-411.369	-104.853	0.223	-0.051
-410.355	-69.795	-0.063	0.024
-409.340	-200.000	0.016	0.109
-408.325	-95.669	-0.132	-0.035
-407.311	-200.000	-0.015	0.115
-406.296	-18.709	-0.243	0.151
-405.282	-200.000	-0.076	0.373
-404.267	-199.363	-0.140	0.001
-403.252	-161.472	-0.216	0.011
-402.238	800.000	0.102	-0.323
-401.223	470.829	0.090	0.201
-400.209	-200.000	-0.052	-0.254
-399.194	176.312	-0.215	-0.312
-398.179	-128.968	-0.203	-0.028
-397.165	363.369	0.094	-0.188
-396.150	800.000	-0.023	-0.088
-395.136	800.000	0.015	0.042
-394.121	-37.287	-0.130	0.069
-393.106	500.753	-0.154	-0.354
-392.092	573.915	-0.095	0.232
-391.077	25.884	-0.454	0.377
-390.063	-200.000	-0.027	0.133
-389.048	-130.913	0.092	-0.012
-388.033	170.614	-0.105	-0.149
-387.019	210.871	0.116	-0.181
-386.004	-71.258	0.105	-0.039
-384.990	565.374	0.107	-0.258
-383.975	-200.000	-0.008	0.041
-382.960	-200.000	0.027	-0.202
-381.946	-200.000	0.029	0.148
-380.931	-200.000	0.066	0.330
-379.917	23.104	0.150	0.123
-378.902	-92.765	-0.155	0.043
-377.888	335.249	-0.094	-0.182
-376.873	109.852	0.155	-0.185
-375.858	257.749	0.139	-0.238
-374.844	155.494	-0.034	0.046
-373.829	-0.904	0.106	0.075
-372.815	-21.619	0.354	-0.215
-371.800	5.742	-0.267	0.197
-370.785	123.174	0.100	-0.125
-369.771	-155.127	-0.260	0.017
-368.756	-39.562	-0.164	-0.085
-367.742	109.568	-0.207	0.247
-366.727	-140.212	0.220	0.023
-365.712	-200.000	0.042	0.322
-364.698	303.927	-0.117	0.216
-363.683	-87.161	0.221	-0.067
-362.669	40.193	0.118	0.106
-361.654	800.000	0.017	-0.048
-360.639	557.408	-0.073	0.174
-359.625	-87.024	-0.214	-0.065
-358.610	1.456	0.113	-0.081
-357.596	30.246	-0.280	-0.238
-356.581	-200.000	-0.013	-0.234
-355.566	336.087	0.119	-0.230
-354.552	-21.063	0.343	-0.209
-353.537	165.231	-0.080	0.113
-352.523	-146.716	-0.311	-0.027
-351.508	-114.831	-0.161	-0.030
-350.493	598.951	0.044	-0.108
-349.479	-200.000	-0.014	0.093
-348.464	75.830	-0.095	0.100
-347.450	590.209	0.125	0.308
-346.435	120.660	0.235	0.290
-345.420	-94.012	-0.216	0.059
-344.406	-64.128	-0.225	-0.091
-343.391	141.538	0.144	-0.190
-342.377	99.581	-0.145	0.167
-341.362	800.000	-0.028	0.116
-340.348	510.658	-0.124	0.288
-339.333	121.864	-0.363	0.450
-338.318	800.000	-0.060	0.233
-337.304	129.323	-0.158	-0.201
-336.289	42.826	0.204	-0.185
-335.275	-74.000	-0.055	0.020
-334.260	-83.797	-0.044	0.014
-333.245	48.898	0.300	-0.280
-332.231	-122.751	-0.589	-0.095
-331.216	-200.000	-0.041	0.260
-330.202	-22.438	-0.296	-0.178
-329.187	-110.299	-0.076	-0.016
-328.172	-112.825	-0.095	0.019
-327.158	-73.715	0.280	0.101
-326.143	312.079	-0.157	0.293
-325.129	-61.245	0.276	0.116
-324.114	-105.297	-0.268	0.061
-323.099	20.826	-0.203	-0.164
-322.085	800.000	-0.009	-0.030
-321.070	-200.000	-0.030	0.186
-320.056	208.064	0.175	0.271
-319.041	800.000	-0.021	0.071
-318.026	24.924	-0.120	-0.099
-317.012	19.016	0.230	0.183
-315.997	-37.117	-0.030	0.016
-314.983	-134.167	-0.098	0.012
-313.968	-97.110	0.127	0.033
-312.953	145.909	-0.299	0.398
-311.939	-200.000	-0.013	0.107
-310.924	505.272	0.059	0.136
-309.910	800.000	-0.148	-0.461
-308.895	-13.755	0.165	0.106
-307.880	-58.684	-0.073	0.031
-306.866	800.000	-0.027	0.113
-305.851	17.472	-0.221	0.174
-304.837	-200.000	-0.001	-0.169
-303.822	-24.748	0.153	0.090
-302.807	101.937	-0.221	-0.256
-301.793	292.552	-0.158	0.286
-300.778	-118.570	-0.105	-0.018
-299.764	645.561	0.068	-0.173
-298.749	-200.000	0.018	0.253
-297.735	107.388	0.167	0.197
-296.720	-95.739	-0.200	-0.053
-295.705	26.910	-0.092	-0.077
-294.691	-59.833	-0.209	0.089
-293.676	-137.702	-0.066	0.007
-292.662	-151.371	-0.309	0.023
-291.647	292.249	-0.163	-0.295
-290.632	-72.487	0.079	0.029
-289.618	156.622	0.072	0.098
-288.603	6.341	0.191	0.141
-287.589	69.641	-0.153	0.157
-286.574	800.000	-0.151	-0.506
-285.559	800.000	-0.087	-0.268
-284.545	203.882	0.056	-0.086
-283.530	-1.016	0.379	-0.266
-282.516	574.401	0.046	-0.112
-281.501	-200.000	-0.060	-0.322
-280.486	-200.000	0.057	-0.276
-279.472	205.783	0.115	-0.177
-278.457	268.440	-0.057	0.098
-277.443	-121.699	-0.180	0.030
-276.428	-200.000	0.002	-0.019
-275.413	1.443	0.208	0.148
-274.399	-78.961	-0.302	-0.102
-273.384	800.000	0.068	-0.196
-272.370	-19.539	0.060	-0.037
-271.355	-3.290	0.231	-0.160
-270.340	-152.630	0.357	0.025
-269.326	-79.578	-0.341	0.114
-268.311	52.374	0.103	0.097
-267.297	-200.000	-0.001	0.404
-266.282	800.000	0.022	0.085
-265.267	-114.671	-0.219	-0.042
-264.253	800.000	0.061	0.222
-263.238	-83.995	0.153	0.048
-262.224	-129.921	0.249	0.034
-261.209	-110.495	-0.192	0.039
-260.195	66.768	-0.123	-0.124
-259.180	10.175	-0.192	0.145
-258.165	-124.523	0.366	-0.056
-257.151	-200.000	0.018	0.124
-256.136	-200.000	-0.023	-0.172
-255.122	-127.269	0.202	0.029
-254.107	-153.365	-0.140	0.010
-253.092	-172.010	0.186	-0.006
-252.078	196.829	0.106	0.160
-251.063	800.000	0.106	-0.402
-250.049	62.035	0.126	0.125
-249.034	-200.000	-0.003	-0.023
-248.019	800.000	-0.087	-0.346
-247.005	-98.689	0.109	0.027
-245.990	245.405	0.139	0.232
-244.976	487.314	-0.151	0.342
-243.961	800.000	-0.069	-0.202
-242.946	169.447	0.078	-0.110
-241.932	-120.652	0.028	-0.005
-240.917	800.000	0.094	0.272
-239.903	-195.769	0.103	0.001
-238.888	-200.000	0.094	0.518
-237.873	800.000	0.054	0.197
-236.859	-93.781	0.150	0.041
-235.844	472.526	-0.044	-0.099
-234.830	-119.425	-0.052	-0.009
-233.815	-200.000	-0.012	-0.238
-232.800	-82.442	0.069	-0.022
-231.786	156.506	0.172	0.235
-230.771	180.721	-0.172	-0.251
-229.757	84.681	0.102	0.111
-228.742	-127.500	0.250	-0.036
-227.727	-171.136	-0.364	0.012
-226.713	64.783	0.091	0.091
-225.698	-74.023	-0.070	0.025
-224.684	-37.000	0.125	0.066
-223.669	-105.932	0.236	-0.053
-222.655	72.524	0.088	-0.090
-221.640	57.443	0.104	0.101
-220.625	-63.440	-0.255	-0.104
-219.611	-160.274	0.200	-0.011
-218.596	109.602	0.052	0.062
-217.582	-200.000	-0.019	-0.138
-216.567	152.000	0.354	0.477
-215.552	34.910	-0.161	-0.140
-214.538	800.000	-0.015	-0.050
-213.523	112.018	-0.039	-0.047
-212.509	-200.000	-0.038	0.225
-211.494	-94.808	0.366	0.098
-210.479	15.338	-0.446	-0.346
-209.465	-104.179	0.114	0.026
-208.450	372.255	-0.103	0.208
-207.436	108.452	-0.263	-0.311
-206.421	232.041	-0.072	0.116
-205.406	-115.805	-0.185	0.034
-204.392	-56.890	-0.079	0.035
-203.377	-88.785	-0.169	-0.050
-202.363	513.702	0.063	0.146
-201.348	159.110	0.065	0.090
-200.333	225.544	0.129	0.207
-199.319	525.541	0.091	0.212
-198.304	488.817	-0.070	0.157
-197.290	55.889	0.168	0.161
-196.275	60.813	-0.413	-0.405
-195.260	-68.231	0.192	-0.074
-194.246	7.044	0.125	0.092
-193.231	246.510	-0.059	-0.098
-192.217	122.725	-0.141	0.175
-191.202	80.384	0.099	-0.105
-190.187	532.770	-0.077	-0.181
-189.173	439.446	-0.025	-0.054
-188.158	800.000	-0.022	0.065
-187.144	-140.449	-0.257	-0.026
-186.129	42.642	0.265	0.238
-185.114	-0.585	0.218	0.153
-184.100	-41.549	0.236	0.120
-183.085	-200.000	-0.015	-0.213
-182.071	101.368	-0.126	-0.145
-181.056	-99.602	0.250	0.062
-180.042	-200.000	-0.022	-0.334
-179.027	-97.505	0.174	0.045
-178.012	800.000	-0.047	0.185
-176.998	562.121	-0.030	0.071
-175.983	-155.364	-0.253	-0.016
-174.969	-64.916	-0.218	-0.087
-173.954	-63.277	0.295	0.120
-172.939	281.951	-0.098	-0.174
-171.925	-13.571	0.073	0.047
-170.910	458.051	0.122	-0.268
-169.896	-112.917	0.282	0.055
-168.881	-94.577	-0.237	0.064
-167.866	-14.157	0.284	-0.181
-166.852	-200.000	0.010	-0.045
-165.837	8.552	0.189	-0.141
-164.823	166.668	-0.079	0.111
-163.808	1.946	-0.172	0.122
-162.793	800.000	0.063	0.265
-161.779	-200.000	0.053	0.323
-160.764	-176.956	0.030	-0.001
-159.750	205.182	-0.053	0.081
-158.735	-90.603	-0.153	0.044
-157.720	-200.000	-0.049	-0.280
-156.706	-121.168	-0.093	-0.015
-155.691	53.676	-0.148	-0.141
-154.677	143.156	0.122	0.160
-153.662	103.411	0.021	0.024
-152.647	-200.000	0.002	-0.121
-151.633	-86.959	0.152	-0.046
-150.618	800.000	0.026	-0.074
-149.604	-109.418	0.092	0.019
-148.589	53.444	0.147	-0.139
-147.574	-97.750	-0.419	0.107
-146.560	-54.677	-0.182	0.081
-145.545	-24.367	0.136	-0.080
-144.531	-32.722	-0.117	0.064
-143.516	-33.426	-0.168	-0.092
-142.502	19.841	-0.021	-0.016
-141.487	800.000	0.040	0.170
-140.472	300.881	-0.054	0.098
-139.458	-44.206	0.345	0.170
-138.443	-124.109	-0.259	0.040
-137.429	70.466	-0.124	-0.127
-136.414	-78.232	0.324	0.110
-135.399	12.654	-0.077	0.059
-134.385	72.670	-0.260	0.268
-133.370	-31.202	0.229	-0.127
-132.356	-200.000	-0.012	-0.243
-131.341	-88.514	0.148	0.043
-130.326	76.180	-0.257	0.269
-129.312	800.000	0.070	-0.228
-128.297	-111.624	-0.649	-0.130
-127.283	247.016	0.106	-0.176
-126.268	33.631	-0.055	-0.047
-125.253	-19.073	-0.201	0.123
-124.239	-10.515	0.045	-0.029
-123.224	-145.825	-0.042	0.004
-122.210	-167.201	0.070	0.003
-121.195	167.472	-0.161	0.226
-120.180	-138.969	0.219	-0.023
-119.166	-14.971	0.127	-0.080
-118.151	-45.380	0.029	0.014
-117.137	70.335	-0.113	0.115
-116.122	-159.437	0.189	-0.010
-115.107	154.927	-0.036	0.048
-114.093	-25.801	-0.197	-0.114
-113.078	800.000	0.039	-0.131
-112.064	193.300	0.105	-0.157
-111.049	335.205	-0.166	0.317
-110.034	111.666	0.151	0.179
-109.020	-64.571	0.261	-0.104
-108.005	648.623	0.105	0.264
-106.991	-102.661	-0.123	-0.029
-105.976	-200.000	-0.005	0.182
-104.962	-200.000	0.011	0.138
-103.947	-57.948	-0.252	-0.108
-102.932	109.588	0.151	-0.178
-101.918	800.000	0.009	0.030
-100.903	800.000	0.120	0.369
-99.889	56.140	-0.251	0.240
-98.874	335.024	-0.199	0.380
-97.859	-200.000	0.007	-0.256
-96.845	343.840	-0.056	-0.108
-95.830	-93.844	-0.270	-0.073
-94.816	124.958	-0.070	0.087
-93.801	156.950	0.099	0.135
-92.786	-200.000	0.013	-0.304
-91.772	-130.930	0.299	-0.039
-90.757	-83.461	-0.335	0.106
-89.743	-78.444	-0.079	-0.027
-88.728	-50.041	-0.305	-0.142
-87.713	678.551	-0.144	0.368
-86.699	5.676	0.054	0.039
-85.684	-104.262	-0.032	-0.007
-84.670	-200.000	-0.012	0.176
-83.655	800.000	0.090	0.253
-82.640	-76.288	-0.141	-0.049
-81.626	264.067	0.034	-0.059
-80.611	-62.641	-0.154	-0.063
-79.597	120.446	-0.052	-0.063
-78.582	203.101	-0.099	0.151
-77.567	543.627	-0.125	-0.293
-76.553	-114.642	0.141	-0.026
-75.538	30.128	0.084	0.070
-74.524	-185.576	-0.132	-0.002
-73.509	-200.000	0.013	-0.114
-72.494	-118.738	-0.137	-0.024
-71.480	-94.943	0.072	0.019
-70.465	130.612	-0.057	0.072
-69.451	27.756	-0.129	-0.107
-68.436	-53.150	-0.352	0.159
-67.422	-11.474	0.160	-0.104
-66.407	171.765	-0.041	-0.058
-65.392	311.933	-0.179	-0.329
-64.378	-181.681	0.178	0.003
-63.363	325.561	0.086	0.162
-62.349	-200.000	-0.001	0.090
-61.334	38.003	-0.910	-0.796
-60.319	60.559	0.607	0.592
-59.305	346.410	-0.522	-1.010
-58.290	269.756	0.511	0.883
-57.276	517.408	0.699	1.609
-56.261	-200.000	100.958	616.275
-55.246	596.694	1431.374	3486.022
-54.232	185.064	2631.805	3839.278
-53.217	116.999	2167.923	2618.012
-52.203	44.592	1618.651	1462.818
-51.188	36.381	1356.379	1176.006
-50.173	33.221	1314.753	1121.177
-49.159	55.494	1364.768	1298.800
-48.144	57.417	1380.811	1325.610
-47.130	36.527	1336.263	1159.254
-46.115	33.194	1318.928	1124.400
-45.100	33.000	1313.859	1118.881
-44.086	32.704	1312.008	1115.512
-43.071	32.629	1309.800	1113.144
-42.057	32.673	1307.548	1111.448
-41.042	32.797	1305.716	1110.576
-40.027	32.843	1304.166	1109.487
-39.013	32.775	1302.893	1107.958
-37.998	32.871	1300.942	1106.819
-36.984	32.934	1299.063	1105.546
-35.969	32.910	1297.219	1103.791
-34.954	32.922	1295.402	1102.271
-33.940	32.849	1294.777	1101.267
-32.925	33.034	1292.785	1100.608
-31.911	33.093	1291.287	1099.630
-30.896	33.056	1289.789	1098.098
-29.881	33.061	1288.465	1096.959
-28.867	32.998	1287.245	1095.511
-27.852	33.028	1285.726	1094.344
-26.838	33.088	1284.012	1093.191
-25.823	33.066	1282.765	1091.957
-24.809	32.983	1281.117	1090.036
-23.794	33.101	1280.149	1089.848
-22.779	33.022	1278.948	1088.328
-21.765	32.957	1277.709	1086.858
-20.750	33.078	1275.797	1085.884
-19.736	32.978	1275.332	1084.869
-18.721	32.874	1274.281	1083.332
-17.706	32.978	1272.568	1082.434
-16.692	32.906	1271.691	1081.229
-15.677	32.868	1270.649	1080.085
-14.663	32.896	1269.104	1078.888
-13.648	32.949	1268.396	1078.545
-12.633	32.819	1267.268	1076.802
-11.619	32.897	1266.178	1076.277
-10.604	32.850	1265.679	1075.542
-9.590	32.912	1264.438	1074.799
-8.575	32.849	1263.778	1073.837
-7.560	32.836	1262.374	1072.529
-6.546	32.857	1261.813	1072.129
-5.531	32.805	1261.485	1071.510
-4.517	32.891	1260.077	1070.761
-3.502	32.896	1259.631	1070.366
-2.487	32.806	1258.577	1068.918
-1.473	32.776	1254.453	1065.203
-0.458	31.212	1238.639	1043.005
0.556	25.068	1220.527	1001.947
1.571	21.041	1224.998	982.885
2.586	20.205	1239.526	989.685
3.600	19.801	1229.212	979.078
4.615	14.349	1156.716	892.132
5.629	4.595	1079.699	783.684
6.644	-0.002	1058.787	745.675
7.659	-0.383	1056.417	742.058
8.673	-0.441	1055.099	740.777
9.688	-0.403	1053.415	739.719
10.702	0.000	1051.910	740.583
11.717	6.126	1060.525	776.932
12.731	15.218	1073.520	831.690
13.746	18.635	1077.051	851.339
14.761	18.309	1076.826	849.469
15.775	18.116	1076.285	848.011
16.790	17.795	1075.321	845.585
17.804	17.877	1074.247	845.068
18.819	17.849	1074.432	845.000
19.834	17.981	1073.380	844.753
20.848	17.866	1072.872	843.710
21.863	17.920	1072.378	843.516
22.877	17.814	1071.777	842.443
23.892	17.786	1071.112	841.709
24.907	17.848	1070.448	841.415
25.921	17.864	1069.392	840.590
26.936	17.841	1067.914	839.240
27.950	18.038	1065.756	838.440
28.965	17.746	1063.932	835.499
29.980	17.826	1062.377	834.594
30.994	18.050	1061.335	834.798
32.009	17.971	1059.814	833.143
33.023	17.812	1058.240	831.055
34.038	17.881	1057.526	830.757
35.053	17.923	1057.098	830.555
36.067	18.095	1055.964	830.423
37.082	18.096	1055.179	829.736
38.096	18.265	1054.288	829.785
39.111	18.234	1053.631	829.041
40.126	18.111	1052.300	827.325
41.140	17.898	1050.199	824.575
42.155	17.652	1049.109	822.458
43.169	17.753	1047.831	821.869
44.184	17.785	1046.742	821.099
45.199	17.717	1045.785	819.947
46.213	17.732	1044.652	819.056
47.228	17.675	1043.758	818.010
48.242	17.742	1042.697	817.429
49.257	17.824	1042.007	817.208
50.271	17.893	1041.097	816.750
51.286	17.944	1040.100	816.142
52.301	18.029	1038.685	815.363
53.315	17.956	1037.631	814.118
54.330	17.891	1037.068	813.294
55.344	17.992	1036.160	812.991
56.359	17.871	1035.398	811.746
57.374	17.777	1034.487	810.514
58.388	17.952	1033.282	810.327
59.403	17.711	1032.823	808.752
60.417	17.625	1031.779	807.453
61.432	17.844	1030.898	807.732
62.447	17.743	1030.446	806.827
63.461	17.851	1029.689	806.674
64.476	17.878	1027.920	805.346
65.490	17.762	1027.740	804.583
66.505	17.881	1026.629	804.204
67.520	17.745	1026.797	803.623
68.534	17.786	1025.069	802.392
69.549	17.523	1024.040	800.281
70.563	17.539	1023.029	799.494
71.578	17.504	1022.507	798.851
72.593	17.425	1021.579	797.684
73.607	17.359	1021.194	797.004
74.622	17.722	1020.846	798.364
75.636	17.652	1019.772	797.128
76.651	17.682	1018.613	796.291
77.666	17.609	1017.978	795.383
78.680	17.656	1017.399	795.080
79.695	17.768	1016.745	795.019
80.709	17.701	1016.438	794.395
81.724	17.767	1015.266	793.718
82.739	17.807	1014.169	792.978
83.753	18.032	1013.540	793.456
84.768	18.145	1012.481	793.085
85.782	18.161	1011.581	792.385
86.797	18.034	1010.496	790.874
87.812	18.038	1009.374	789.945
88.826	18.169	1008.268	789.616
89.841	18.266	1007.408	789.318
90.855	18.029	1006.785	787.670
91.870	17.972	1005.645	786.446
92.884	18.102	1004.217	785.854
93.899	18.106	1003.375	785.147
94.914	18.164	1002.834	784.917
95.928	18.102	1001.584	783.588
96.943	17.944	999.970	781.531
97.957	17.711	999.074	779.696
98.972	17.540	997.643	777.730
99.987	17.790	996.868	778.198
101.001	17.928	996.591	778.540
102.016	17.933	995.291	777.480
103.030	17.845	994.648	776.509
104.045	17.652	993.715	774.834
105.060	17.580	992.302	773.339
106.074	17.678	992.066	773.531
107.089	18.211	991.249	775.242
108.103	18.050	990.130	773.568
109.118	17.877	989.024	771.854
110.133	17.958	988.066	771.403
111.147	17.827	986.566	769.574
112.162	17.636	985.769	768.023
113.176	17.733	985.291	768.017
114.191	17.600	984.430	766.682
115.206	17.465	983.088	764.963
116.220	17.483	982.403	764.444
117.235	17.644	981.356	764.283
118.249	17.694	980.295	763.613
119.264	17.649	979.760	762.927
120.279	17.810	978.553	762.637
121.293	17.620	978.557	761.724
122.308	17.686	977.387	761.040
123.322	17.795	975.890	760.296
124.337	17.701	974.583	758.789
125.352	17.165	972.967	755.084
126.366	17.220	971.672	754.257
127.381	17.806	971.162	756.391
128.395	18.008	970.675	756.840
129.410	18.069	969.753	756.323
130.424	18.136	968.122	755.281
131.439	18.167	967.242	754.666
132.454	18.011	966.594	753.405
133.468	17.876	966.109	752.366
134.483	18.035	965.780	752.743
135.497	18.178	964.362	752.201
136.512	18.174	963.463	751.416
137.527	18.374	962.136	751.190
138.541	18.127	961.821	749.795
139.556	18.282	960.799	749.611
140.570	18.247	959.692	748.530
141.585	18.205	959.318	747.987
142.600	18.219	957.967	746.927
143.614	18.391	957.188	747.004
144.629	18.486	956.257	746.627
145.643	18.371	955.086	745.144
146.658	18.124	954.344	743.425
147.673	18.058	953.032	742.050
148.687	18.129	951.437	741.052
149.702	18.062	950.502	739.969
150.716	18.139	949.584	739.522
151.731	18.183	949.168	739.324
152.746	18.309	948.797	739.510
153.760	18.380	948.366	739.418
154.775	18.370	947.575	738.693
155.789	18.418	946.182	737.746
156.804	18.256	945.811	736.696
157.819	18.435	944.749	736.571
158.833	18.395	943.989	735.745
159.848	18.358	942.911	734.681
160.862	18.299	941.449	733.222
161.877	18.496	940.662	733.387
162.892	18.439	939.879	732.469
163.906	18.396	938.988	731.527
164.921	18.410	938.028	730.773
165.935	18.581	936.811	730.490
166.950	18.532	936.026	729.603
167.964	18.410	935.585	728.675
168.979	18.211	934.204	726.693
169.994	18.352	933.118	726.382
171.008	18.369	933.215	726.465
172.023	18.383	931.590	725.191
173.037	18.334	930.197	723.837
174.052	18.087	929.602	722.267
175.067	18.333	929.062	722.824
176.081	18.319	929.205	722.812
177.096	18.175	928.501	721.592
178.110	18.065	926.724	719.685
179.125	17.862	926.317	718.448
180.140	18.039	925.418	718.433
181.154	18.206	925.041	718.776
182.169	18.316	924.995	719.139
183.183	18.460	924.278	719.126
184.198	18.319	923.343	717.740
185.213	18.368	922.611	717.313
186.227	18.409	921.853	716.832
187.242	18.476	921.125	716.484
188.256	18.392	920.301	715.428
189.271	18.510	919.804	715.472
190.286	18.162	918.816	713.189
191.300	17.798	917.614	710.677
192.315	17.238	915.764	706.853
193.329	17.090	916.086	706.423
194.344	17.905	916.111	709.767
195.359	18.366	915.639	711.257
196.373	18.574	914.598	711.247
197.388	18.253	914.002	709.388
198.402	18.185	913.135	708.372
199.417	18.314	912.242	708.152
200.432	17.924	911.455	705.867
201.446	17.810	911.029	705.001
202.461	17.845	910.070	704.341
203.475	16.985	908.503	699.521
204.490	16.470	907.571	696.622
205.504	17.365	907.786	700.410
206.519	17.950	907.400	702.458
207.534	18.053	907.028	702.533
208.548	18.504	906.463	703.883
209.563	18.217	905.959	702.254
210.577	18.184	905.284	701.532
211.592	18.510	904.569	702.253
212.607	18.280	903.850	700.688
213.621	18.355	903.369	700.561
214.636	18.443	902.627	700.282
215.650	18.379	901.247	698.890
216.665	18.614	900.663	699.332
217.680	18.518	899.902	698.291
218.694	17.855	898.922	694.770
219.709	18.021	898.072	694.729
220.723	18.265	897.963	695.573
221.738	18.382	897.278	695.453
222.753	18.269	896.748	694.527
223.767	18.389	896.171	694.501
224.782	18.644	895.878	695.248
225.796	18.521	894.936	693.957
226.811	17.939	893.390	690.345
227.826	17.581	892.145	687.877
228.840	17.645	891.985	687.952
229.855	17.832	891.039	687.915
230.869	17.487	889.885	685.575
231.884	17.667	890.440	686.664
232.899	18.385	890.183	689.297
233.913	18.384	889.333	688.575
234.928	18.367	888.493	687.795
235.942	18.373	887.873	687.277
236.957	18.176	886.786	685.587
237.972	18.027	886.580	684.769
238.986	18.225	885.586	684.731
240.001	18.502	884.845	685.206
241.015	18.304	884.499	684.087
242.030	18.416	883.828	683.956
243.045	18.582	883.484	684.289
244.059	18.741	882.766	684.308
245.074	18.322	881.906	681.910
246.088	18.137	880.550	680.065
247.103	18.217	880.601	680.364
248.117	18.730	880.287	682.098
249.132	18.829	879.845	682.092
250.147	18.912	878.555	681.358
251.161	19.047	878.291	681.631
252.176	18.951	877.569	680.630
253.190	19.137	876.592	680.544
254.205	19.273	876.268	680.771
255.220	19.339	875.686	680.518
256.234	19.138	874.522	678.761
257.249	19.104	874.222	678.334
258.263	18.960	873.241	676.947
259.278	19.174	872.684	677.299
260.293	19.119	872.142	676.601
261.307	18.926	871.628	675.383
262.322	18.798	870.391	673.862
263.336	18.044	868.438	669.339
264.351	17.035	866.551	663.880
265.366	17.278	866.051	664.387
266.380	18.250	867.274	669.072
267.395	18.855	867.142	671.273
268.409	18.649	866.087	669.594
269.424	18.854	865.634	669.984
270.439	18.888	865.082	669.629
271.453	18.997	864.506	669.547
272.468	19.327	863.753	670.188
273.482	19.245	863.095	669.302
274.497	18.829	862.015	666.789
275.512	18.626	861.042	665.190
276.526	18.943	860.901	666.252
277.541	19.063	860.550	666.386
278.555	18.841	859.165	664.398
279.570	18.662	858.276	662.961
280.585	18.816	858.051	663.321
281.599	18.885	857.010	662.724
282.614	18.394	856.347	660.261
283.628	18.414	855.319	659.487
284.643	18.847	854.949	660.811
285.657	18.271	853.855	657.690
286.672	18.174	853.257	656.801
287.687	18.921	852.897	659.329
288.701	18.757	852.461	658.307
289.716	18.277	851.833	655.924
290.730	18.297	850.914	655.238
291.745	18.165	849.751	653.779
292.760	18.242	850.188	654.351
293.774	19.328	850.330	658.552
294.789	19.494	849.379	658.391
295.803	19.582	849.545	658.798
296.818	19.592	848.420	657.903
297.833	19.156	847.336	655.347
298.847	19.171	846.702	654.855
299.862	19.578	846.448	656.148
300.876	19.605	845.978	655.829
301.891	19.427	845.288	654.561
302.906	18.936	844.037	651.671
303.920	19.018	843.487	651.503
304.935	19.450	843.398	653.010
305.949	19.309	842.965	652.083
306.964	19.133	842.577	651.059
307.979	19.291	842.201	651.311
308.993	19.674	841.527	652.175
310.008	19.484	841.321	651.243
311.022	19.397	840.219	650.002
312.037	19.417	839.218	649.247
313.052	19.192	838.580	647.847
314.066	18.567	837.107	644.306
315.081	18.180	836.529	642.350
316.095	18.821	837.222	645.233
317.110	19.169	836.954	646.277
318.125	18.692	835.363	643.206
319.139	17.761	833.781	638.448
320.154	17.714	833.591	638.069
321.168	18.628	833.684	641.503
322.183	19.199	833.964	643.795
323.197	19.197	833.410	643.304
324.212	19.435	833.212	643.982
325.227	19.578	832.226	643.697
326.241	19.365	831.947	642.630
327.256	19.357	831.118	641.902
328.270	19.302	830.214	640.943
329.285	19.082	829.542	639.552
330.300	19.026	828.674	638.616
331.314	18.986	828.780	638.493
332.329	19.504	828.073	639.812
333.343	19.560	827.638	639.629
334.358	19.456	827.805	639.314
335.373	19.540	827.445	639.292
336.387	19.785	826.992	639.792
337.402	19.712	826.916	639.406
338.416	19.747	825.966	638.744
339.431	19.817	825.672	638.719
340.446	19.963	825.901	639.379
341.460	19.738	824.875	637.697
342.475	19.477	824.390	636.304
343.489	19.629	823.918	636.443
344.504	19.993	823.241	637.206
345.519	19.986	823.611	637.408
346.533	20.170	822.688	637.315
347.548	20.255	822.196	637.190
348.562	20.215	821.757	636.647
349.577	20.179	821.330	636.128
350.592	20.235	820.691	635.780
351.606	20.396	819.564	635.439
352.621	20.093	819.062	633.887
353.635	19.887	818.189	632.402
354.650	19.550	816.722	629.984
355.665	18.592	815.298	625.338
356.679	18.862	815.528	626.442
357.694	19.324	814.759	627.480
358.708	19.255	814.198	626.741
359.723	19.633	814.222	628.080
360.738	19.848	814.004	628.635
361.752	19.949	813.438	628.512
362.767	20.231	812.982	629.125
363.781	20.378	812.471	629.207
364.796	20.410	812.073	628.958
365.810	20.542	811.586	629.005
366.825	20.385	811.155	628.047
367.840	20.166	810.412	626.625
368.854	20.020	809.124	625.045
369.869	19.911	809.093	624.572
370.883	20.023	808.975	624.830
371.898	19.769	808.068	623.161
372.913	19.936	807.774	623.479
373.927	20.068	807.525	623.708
374.942	20.226	806.890	623.731
375.956	20.237	806.747	623.604
376.971	20.361	806.186	623.561
377.986	20.512	805.771	623.724
379.000	20.313	805.433	622.695
380.015	20.142	804.897	621.614
381.029	20.316	804.469	621.849
382.044	20.314	803.662	621.165
383.059	20.329	803.182	620.794
384.073	20.457	802.781	620.887
385.088	20.563	802.111	620.691
386.102	20.518	801.528	620.023
387.117	20.397	800.796	618.972
388.132	20.040	799.479	616.628
389.146	19.609	798.936	614.620
390.161	19.714	798.916	614.926
391.175	20.310	798.277	616.495
392.190	20.050	797.087	614.602
393.205	18.741	795.767	608.891
394.219	17.638	794.281	603.793
395.234	17.553	794.794	603.826
396.248	19.211	795.463	610.162
397.263	20.337	795.793	614.349
398.278	20.330	795.318	613.900
399.292	20.179	794.760	612.884
400.307	20.106	794.321	612.233
401.321	20.088	794.054	611.909
402.336	20.341	793.827	612.571
403.350	20.817	793.359	613.837
404.365	20.866	793.231	613.855
405.380	21.056	792.726	614.078
406.394	21.026	792.366	613.639
407.409	21.175	791.608	613.524
408.423	21.035	791.261	612.706
409.438	21.021	791.286	612.624
410.453	21.171	790.684	612.628
411.467	21.149	790.256	612.166
412.482	21.186	789.502	611.658
413.496	21.262	789.218	611.649
414.511	21.140	789.303	611.232
415.526	21.112	788.636	610.567
416.540	21.004	787.749	609.445
417.555	20.723	786.852	607.720
418.569	20.774	786.687	607.715
419.584	20.840	786.031	607.383
420.599	20.550	785.902	606.221
421.613	156.596	1361.413	1792.679
422.628	135.497	1445.256	1792.780
