DTS Sentinel unit serial number:	SN413079Multiplexer serial number:	ORYXHardware model number:	OX4-SRSoftware version number:	ORYX F/W v4.00 Oryx Data Collector v3.7.2.0data status	okinstallation	princeton_trtdifferential loss correction	single-endedforward channel	channel 1reverse channel	N/Adate	2019/09/10time	23:32:11forward acquisition time	60.00reverse acquisition time	0.00gamma	496.2192k internal	0.2331k external	0.2331temperature offset calibration	0.9936default loss term (dB/km)	0.3790temperature slope calibration	1.0000multiplexer offset coefficient	1.0000multiplexer slope coefficient	1.0000fibre end	0.00T internal ref (°C)	29.69T ext. ref 1 (°C)	-0.32T ext. ref 2 (°C)	23.13length (m)	temperature (°C)	Stokes	anti-Stokes-747.200	120.954	-0.244	-0.306
-746.185	-41.622	-0.131	-0.068
-745.171	442.695	0.067	-0.148
-744.156	-200.000	0.045	0.270
-743.142	222.516	0.089	-0.144
-742.127	-20.065	0.047	-0.029
-741.112	800.000	0.091	-0.333
-740.098	159.807	0.038	0.053
-739.083	800.000	0.021	-0.060
-738.069	-20.212	0.132	0.082
-737.054	800.000	-0.056	-0.177
-736.039	-153.352	-0.307	0.022
-735.025	-200.000	0.034	0.181
-734.010	-86.610	-0.082	-0.025
-732.996	-132.179	-0.319	-0.042
-731.981	-200.000	-0.026	-0.148
-730.966	131.670	-0.259	0.335
-729.952	-99.267	0.068	0.017
-728.937	-60.516	-0.320	-0.137
-727.923	714.638	-0.051	0.135
-726.908	489.856	-0.084	0.193
-725.894	-176.845	0.321	-0.008
-724.879	57.131	0.178	-0.174
-723.864	114.318	0.260	-0.319
-722.850	694.504	-0.098	-0.258
-721.835	-72.167	0.275	-0.103
-720.821	-200.000	0.023	-0.419
-719.806	-200.000	-0.011	0.349
-718.791	-38.821	0.259	-0.137
-717.777	-200.000	-0.001	0.037
-716.762	395.125	-0.130	-0.272
-715.748	744.119	-0.097	0.262
-714.733	-173.016	-0.296	-0.009
-713.718	800.000	0.128	-0.422
-712.704	-134.209	0.138	0.017
-711.689	337.093	0.129	-0.253
-710.675	-123.805	0.170	0.027
-709.660	12.361	0.184	0.142
-708.645	23.593	0.152	0.125
-707.631	-54.308	-0.124	-0.057
-706.616	-200.000	-0.038	0.241
-705.602	800.000	-0.051	0.160
-704.587	-34.894	0.185	0.101
-703.572	-87.451	-0.557	-0.170
-702.558	-200.000	0.026	0.317
-701.543	-130.817	0.045	0.006
-700.529	-39.006	0.064	-0.034
-699.514	-173.131	-0.087	-0.003
-698.499	76.972	0.206	0.219
-697.485	103.355	-0.072	0.084
-696.470	122.886	0.277	-0.348
-695.456	-151.077	0.248	-0.019
-694.441	380.802	0.086	-0.178
-693.426	-132.906	-0.088	0.011
-692.412	61.316	-0.082	0.082
-691.397	-12.424	-0.296	-0.194
-690.383	-7.826	-0.330	-0.224
-689.368	-200.000	-0.022	0.367
-688.354	85.055	-0.073	0.081
-687.339	23.163	0.148	-0.122
-686.324	-105.843	-0.287	0.065
-685.310	258.341	0.125	-0.216
-684.295	220.280	-0.219	-0.353
-683.281	-200.000	-0.016	0.214
-682.266	270.894	-0.092	0.163
-681.251	-200.000	0.002	0.073
-680.237	499.664	0.197	-0.455
-679.222	-157.330	-0.120	-0.007
-678.208	-200.000	-0.047	-0.238
-677.193	-19.005	0.257	0.160
-676.178	-173.484	-0.058	-0.002
-675.164	75.451	0.208	-0.220
-674.149	56.006	-0.253	-0.246
-673.135	-104.230	-0.137	0.032
-672.120	24.190	-0.010	-0.008
-671.105	-200.000	-0.015	0.249
-670.091	-35.939	-0.334	-0.181
-669.076	-85.408	-0.155	-0.049
-668.062	38.936	0.052	-0.046
-667.047	-56.352	-0.099	-0.044
-666.032	800.000	0.032	0.119
-665.018	205.874	-0.069	0.108
-664.003	-108.175	0.035	-0.008
-662.989	-12.557	0.089	-0.059
-661.974	183.900	0.045	-0.067
-660.959	386.749	0.012	-0.026
-659.945	296.186	0.134	0.245
-658.930	92.484	-0.257	0.291
-657.916	-156.815	-0.412	0.025
-656.901	62.091	-0.165	-0.165
-655.886	-147.033	0.302	-0.026
-654.872	259.286	0.132	-0.228
-653.857	-25.230	-0.267	-0.159
-652.843	-200.000	0.003	0.145
-651.828	-173.155	-0.103	0.003
-650.814	56.246	-0.136	-0.133
-649.799	-62.357	0.106	0.044
-648.784	-140.870	0.147	-0.015
-647.770	140.838	0.131	0.174
-646.755	-200.000	0.001	-0.096
-645.741	-36.484	-0.092	-0.050
-644.726	-132.348	0.130	-0.017
-643.711	39.784	0.068	-0.061
-642.697	146.692	0.146	0.197
-641.682	-29.398	-0.389	-0.223
-640.668	51.568	-0.132	0.126
-639.653	749.610	-0.069	0.188
-638.638	38.490	-0.057	0.051
-637.624	-37.859	-0.176	-0.094
-636.609	24.469	-0.368	0.305
-635.595	-200.000	-0.021	0.195
-634.580	-200.000	-0.005	-0.381
-633.565	126.087	0.080	-0.102
-632.551	800.000	-0.038	-0.131
-631.536	157.131	0.159	-0.221
-630.522	-8.559	0.168	-0.113
-629.507	-132.545	-0.093	0.012
-628.492	-83.754	-0.434	0.139
-627.478	-157.743	0.291	-0.017
-626.463	89.753	0.321	0.359
-625.449	-200.000	-0.051	0.321
-624.434	722.240	0.066	0.175
-623.419	336.707	-0.130	-0.252
-622.405	-200.000	0.017	0.144
-621.390	-73.400	0.263	-0.096
-620.376	83.811	-0.259	0.283
-619.361	-138.241	0.359	-0.040
-618.346	111.864	-0.119	-0.144
-617.332	371.869	-0.066	0.134
-616.317	249.883	-0.193	0.327
-615.303	199.103	-0.086	0.132
-614.288	80.093	-0.294	0.317
-613.273	-200.000	0.000	0.040
-612.259	800.000	0.051	0.143
-611.244	-118.913	0.024	0.004
-610.230	800.000	0.003	0.008
-609.215	-49.551	-0.309	-0.147
-608.201	85.470	0.024	-0.026
-607.186	574.911	-0.103	0.252
-606.171	-200.000	0.025	0.321
-605.157	-57.405	0.157	-0.069
-604.142	384.807	-0.023	0.048
-603.128	-73.348	-0.071	-0.026
-602.113	132.060	0.067	0.087
-601.098	-9.182	-0.315	0.211
-600.084	268.542	-0.179	-0.315
-599.069	-200.000	-0.043	0.305
-598.055	-31.803	0.082	0.046
-597.040	-148.840	0.103	0.008
-596.025	209.149	0.116	-0.181
-595.011	66.203	0.033	0.034
-593.996	-200.000	0.036	0.223
-592.982	800.000	-0.008	0.029
-591.967	-80.389	0.101	0.034
-590.952	-92.542	0.187	-0.052
-589.938	4.234	0.198	0.145
-588.923	-119.028	0.375	-0.066
-587.909	306.314	-0.113	-0.211
-586.894	327.432	-0.132	-0.254
-585.879	139.285	-0.148	-0.194
-584.865	-61.292	-0.352	-0.148
-583.850	-84.600	-0.152	-0.048
-582.836	-128.912	-0.067	0.009
-581.821	77.862	-0.101	0.108
-580.806	41.735	-0.251	-0.228
-579.792	-52.563	0.114	0.053
-578.777	-195.104	-0.210	-0.002
-577.763	94.212	-0.222	-0.252
-576.748	-200.000	-0.014	0.205
-575.733	152.898	0.100	0.136
-574.719	-200.000	-0.011	-0.340
-573.704	-175.879	0.021	0.001
-572.690	-40.874	-0.247	-0.128
-571.675	456.753	-0.070	0.156
-570.661	297.511	0.171	-0.313
-569.646	-105.925	-0.305	-0.069
-568.631	-200.000	-0.010	-0.358
-567.617	-148.674	0.109	0.009
-566.602	-200.000	0.010	0.051
-565.588	612.692	-0.081	0.202
-564.573	125.800	-0.077	-0.098
-563.558	65.924	0.112	-0.114
-562.544	576.903	0.073	0.179
-561.529	65.459	-0.131	0.132
-560.515	-79.445	0.148	-0.050
-559.500	681.777	0.058	-0.151
-558.485	743.281	0.133	0.358
-557.471	-102.318	0.161	-0.038
-556.456	-2.513	-0.332	-0.232
-555.442	-192.786	-0.166	-0.002
-554.427	800.000	0.026	0.110
-553.412	-87.834	-0.205	-0.062
-552.398	800.000	0.053	0.158
-551.383	-33.267	-0.217	0.120
-550.369	88.498	-0.094	-0.104
-549.354	-15.069	0.060	-0.038
-548.339	-200.000	0.034	-0.688
-547.325	362.765	-0.007	-0.015
-546.310	-80.956	0.072	-0.024
-545.296	42.980	0.070	0.064
-544.281	-115.825	0.192	-0.036
-543.266	-133.895	0.237	-0.029
-542.252	313.996	0.140	-0.262
-541.237	-47.897	0.279	-0.135
-540.223	-105.156	-0.304	-0.069
-539.208	-96.446	0.089	0.024
-538.193	50.834	-0.191	0.181
-537.179	419.417	0.188	0.402
-536.164	30.974	-0.120	0.103
-535.150	-200.000	0.040	-0.252
-534.135	106.144	-0.195	0.230
-533.121	-67.498	-0.070	0.027
-532.106	-62.393	-0.300	0.125
-531.091	81.502	-0.037	0.040
-530.077	-135.876	-0.026	-0.003
-529.062	-200.000	0.015	-0.129
-528.048	-112.253	-0.324	-0.065
-527.033	-200.000	-0.007	0.137
-526.018	-43.362	-0.203	-0.102
-525.004	-43.022	0.174	-0.088
-523.989	800.000	-0.096	-0.336
-522.975	29.182	0.239	-0.202
-521.960	219.518	-0.127	-0.202
-520.945	28.142	0.229	-0.193
-519.931	249.893	-0.057	-0.096
-518.916	-200.000	0.031	-0.336
-517.902	17.905	-0.308	-0.244
-516.887	256.515	0.048	0.082
-515.872	32.101	0.068	0.059
-514.858	171.285	0.269	0.385
-513.843	-200.000	-0.001	0.321
-512.829	89.913	-0.056	-0.063
-511.814	79.542	-0.124	-0.133
-510.799	115.806	0.235	-0.287
-509.785	171.071	0.042	0.060
-508.770	148.621	-0.134	0.181
-507.756	800.000	0.197	0.643
-506.741	-200.000	0.034	0.464
-505.726	-88.731	0.132	0.039
-504.712	14.876	-0.226	0.176
-503.697	142.911	-0.161	-0.214
-502.683	-200.000	-0.001	-0.244
-501.668	-182.462	-0.245	0.004
-500.653	-93.746	0.218	-0.060
-499.639	58.170	-0.167	0.163
-498.624	73.743	-0.073	0.076
-497.610	-93.814	0.372	0.102
-496.595	-9.394	0.399	-0.265
-495.581	-63.909	0.105	0.043
-494.566	217.056	-0.053	0.084
-493.551	-91.226	-0.109	-0.031
-492.537	-23.748	-0.286	-0.171
-491.522	-32.974	-0.195	-0.108
-490.508	-200.000	-0.041	0.457
-489.493	70.748	0.225	0.232
-488.478	800.000	0.043	-0.173
-487.464	509.135	-0.117	0.270
-486.449	129.812	-0.195	-0.249
-485.435	418.343	0.114	-0.242
-484.420	-42.115	0.064	-0.033
-483.405	464.085	0.033	0.073
-482.391	-26.192	0.130	0.076
-481.376	-102.163	0.060	-0.014
-480.362	-200.000	0.022	0.206
-479.347	-200.000	-0.004	-0.136
-478.332	487.172	-0.087	0.197
-477.318	-200.000	-0.011	-0.445
-476.303	237.941	-0.079	0.130
-475.289	53.546	0.220	-0.210
-474.274	281.013	-0.116	-0.206
-473.259	-200.000	0.487	-0.002
-472.245	-183.890	0.152	-0.003
-471.230	22.793	-0.263	-0.215
-470.216	-40.259	0.243	-0.126
-469.201	354.421	0.101	-0.201
-468.186	-183.843	-0.169	-0.003
-467.172	-34.241	-0.343	-0.188
-466.157	574.960	-0.118	-0.287
-465.143	-200.000	-0.020	0.117
-464.128	285.424	0.061	0.109
-463.113	-34.550	-0.388	-0.211
-462.099	-77.708	0.088	-0.030
-461.084	-200.000	-0.067	-0.334
-460.070	-200.000	-0.010	-0.077
-459.055	-78.285	-0.228	0.078
-458.040	-60.609	-0.195	0.082
-457.026	29.357	-0.112	-0.095
-456.011	179.068	0.379	-0.551
-454.997	-43.040	0.222	0.112
-453.982	-125.301	-0.018	0.003
-452.968	-200.000	0.000	0.079
-451.953	454.283	0.079	-0.175
-450.938	-92.578	-0.286	-0.080
-449.924	-200.000	0.030	-0.211
-448.909	-76.271	0.039	-0.014
-447.895	29.507	0.248	-0.209
-446.880	-62.961	-0.390	-0.161
-445.865	-52.276	0.363	-0.167
-444.851	-159.172	0.148	-0.008
-443.836	-131.111	-0.184	0.024
-442.822	85.714	0.050	0.055
-441.807	-6.926	-0.178	0.120
-440.792	220.387	0.151	0.240
-439.778	-7.334	0.198	-0.134
-438.763	-200.000	0.342	0.002
-437.749	-200.000	0.025	0.251
-436.734	362.321	0.121	-0.242
-435.719	61.572	-0.140	0.139
-434.705	139.653	-0.167	0.218
-433.690	-102.709	0.259	0.061
-432.676	-200.000	-0.052	0.235
-431.661	-123.793	-0.098	0.015
-430.646	-141.617	0.369	-0.037
-429.632	-120.577	-0.272	0.046
-428.617	800.000	-0.089	-0.312
-427.603	-19.332	0.193	-0.119
-426.588	-200.000	-0.018	-0.164
-425.573	-93.053	-0.114	0.031
-424.559	31.266	0.011	-0.009
-423.544	-200.000	-0.011	-0.093
-422.530	-200.000	-0.008	-0.239
-421.515	242.627	0.132	-0.220
-420.500	-101.554	0.258	-0.062
-419.486	-76.436	-0.226	-0.079
-418.471	358.331	0.087	0.172
-417.457	710.779	-0.110	0.289
-416.442	18.228	-0.119	-0.094
-415.428	-95.195	-0.095	0.025
-414.413	277.174	0.090	-0.160
-413.398	353.419	-0.068	0.135
-412.384	-48.483	0.218	-0.104
-411.369	-13.756	-0.281	0.180
-410.355	-35.217	0.129	-0.070
-409.340	-131.958	-0.231	-0.030
-408.325	271.409	0.111	0.194
-407.311	19.482	0.246	0.196
-406.296	-200.000	-0.069	0.399
-405.282	-136.306	0.254	0.029
-404.267	3.757	0.343	-0.248
-403.252	287.123	-0.070	-0.126
-402.238	-22.524	-0.262	-0.157
-401.223	800.000	0.030	-0.103
-400.209	-61.377	-0.289	0.121
-399.194	-2.765	-0.127	0.088
-398.179	800.000	0.063	0.193
-397.165	-74.274	-0.013	0.005
-396.150	305.167	-0.059	0.110
-395.136	-100.081	-0.383	0.095
-394.121	-200.000	0.006	0.204
-393.106	-200.000	0.055	0.271
-392.092	32.371	0.135	-0.116
-391.077	-99.158	-0.230	-0.058
-390.063	184.142	-0.129	0.190
-389.048	-200.000	-0.010	0.324
-388.033	800.000	0.054	-0.207
-387.019	800.000	0.063	0.198
-386.004	-200.000	-0.004	0.122
-384.990	41.140	-0.232	-0.208
-383.975	59.510	-0.062	0.060
-382.960	116.484	0.240	-0.292
-381.946	12.539	0.125	-0.095
-380.931	775.178	-0.064	-0.175
-379.917	-200.000	-0.025	-0.199
-378.902	-91.179	0.096	-0.027
-377.888	-200.000	0.021	-0.201
-376.873	308.234	0.053	-0.098
-375.858	-150.810	0.149	0.011
-374.844	44.580	0.153	0.140
-373.829	-52.161	-0.158	-0.073
-372.815	47.770	-0.217	0.201
-371.800	800.000	-0.081	0.315
-370.785	485.412	-0.081	-0.183
-369.771	96.624	0.106	0.120
-368.756	-102.913	-0.160	-0.038
-367.742	107.732	-0.172	-0.203
-366.727	800.000	0.110	0.330
-365.712	150.467	-0.112	-0.151
-364.698	-106.474	-0.293	0.065
-363.683	123.700	0.248	-0.308
-362.669	177.180	0.090	0.130
-361.654	-62.582	0.318	0.131
-360.639	-121.705	0.262	0.043
-359.625	-104.578	0.150	0.034
-358.610	80.217	-0.239	0.254
-357.596	600.077	0.130	0.320
-356.581	426.149	-0.083	-0.178
-355.566	-178.623	-0.210	0.005
-354.552	506.784	-0.046	-0.105
-353.537	45.806	0.050	-0.046
-352.523	35.229	0.448	-0.389
-351.508	-44.276	-0.063	-0.031
-350.493	104.389	0.223	0.260
-349.479	-127.708	0.061	0.009
-348.464	-94.633	0.251	0.068
-347.450	800.000	0.045	0.169
-346.435	-93.780	0.124	-0.034
-345.420	-97.458	0.283	0.073
-344.406	-122.223	-0.075	0.012
-343.391	-148.817	0.222	-0.018
-342.377	-108.538	-0.234	0.050
-341.362	-200.000	-0.015	0.143
-340.348	-156.813	-0.203	-0.012
-339.333	800.000	0.055	0.187
-338.318	800.000	-0.038	-0.105
-337.304	-23.848	0.195	0.115
-336.289	175.592	-0.149	-0.213
-335.275	-139.181	-0.206	0.022
-334.260	-200.000	0.023	-0.369
-333.245	-151.299	0.445	0.033
-332.231	317.491	0.146	0.274
-331.216	384.547	-0.071	-0.144
-330.202	-13.600	-0.145	-0.093
-329.187	-33.990	0.023	-0.012
-328.172	-21.211	0.164	0.099
-327.158	-55.265	-0.199	0.089
-326.143	112.689	0.078	0.094
-325.129	-138.848	0.295	-0.032
-324.114	-200.000	-0.048	-0.260
-323.099	26.105	0.112	-0.093
-322.085	168.726	0.061	-0.086
-321.070	-200.000	-0.012	-0.073
-320.056	565.616	-0.042	-0.101
-319.041	-200.000	-0.022	0.129
-318.026	-156.704	0.136	0.008
-317.012	107.808	0.088	0.104
-315.997	133.647	0.300	0.384
-314.983	-200.000	0.008	0.072
-313.968	278.081	-0.097	0.171
-312.953	800.000	-0.054	0.191
-311.939	18.848	-0.058	0.046
-310.924	-200.000	-0.042	-0.188
-309.910	-72.149	-0.253	-0.093
-308.895	386.009	0.077	0.157
-307.880	273.091	-0.176	-0.307
-306.866	-128.360	-0.164	-0.023
-305.851	-109.072	0.452	-0.095
-304.837	-200.000	-0.044	0.513
-303.822	134.076	0.062	-0.079
-302.807	-88.745	-0.197	0.058
-301.793	127.079	0.231	0.289
-300.778	265.214	0.096	-0.166
-299.764	800.000	-0.085	-0.342
-298.749	-3.121	-0.103	0.071
-297.735	80.241	0.067	0.071
-296.720	67.939	-0.257	0.260
-295.705	-200.000	-0.048	0.317
-294.691	-116.201	0.070	-0.013
-293.676	-200.000	0.032	0.418
-292.662	694.359	-0.127	0.330
-291.647	800.000	-0.063	-0.209
-290.632	-36.390	-0.053	0.028
-289.618	800.000	-0.067	-0.253
-288.603	800.000	-0.025	0.104
-287.589	-126.595	-0.159	-0.023
-286.574	-49.985	0.136	0.064
-285.559	122.874	0.182	0.225
-284.545	703.299	0.135	0.352
-283.530	-76.392	0.194	-0.067
-282.516	-55.994	-0.353	0.156
-281.501	73.097	0.044	0.045
-280.486	11.790	-0.196	-0.149
-279.472	-11.802	-0.314	0.204
-278.457	243.022	-0.080	0.132
-277.443	-140.808	-0.249	0.025
-276.428	-55.533	0.088	-0.039
-275.413	25.852	-0.404	-0.333
-274.399	-187.995	-0.143	0.002
-273.384	6.370	0.211	0.155
-272.370	-2.476	0.166	0.115
-271.355	59.238	-0.197	0.192
-270.340	-114.411	0.390	0.074
-269.326	-4.551	0.128	0.087
-268.311	335.949	0.101	-0.193
-267.297	-154.544	-0.160	0.011
-266.282	800.000	0.060	-0.235
-265.267	800.000	-0.019	0.062
-264.253	800.000	0.033	-0.141
-263.238	16.332	-0.248	-0.194
-262.224	-91.680	0.287	-0.081
-261.209	478.200	-0.115	0.258
-260.195	-79.138	0.552	-0.185
-259.180	-115.344	0.309	-0.058
-258.165	-48.471	0.250	-0.119
-257.151	800.000	-0.072	0.310
-256.136	-138.845	-0.407	-0.044
-255.122	-13.368	0.119	-0.076
-254.107	-68.894	0.324	-0.124
-253.092	-200.000	-0.015	0.117
-252.078	-134.874	-0.280	0.033
-251.063	15.690	0.174	0.135
-250.049	800.000	0.046	-0.168
-249.034	-109.372	0.201	-0.042
-248.019	115.665	0.134	-0.161
-247.005	-71.202	0.174	-0.064
-245.990	-8.350	-0.059	-0.039
-244.976	40.357	-0.218	0.194
-243.961	-24.276	-0.213	-0.125
-242.946	-147.566	0.481	-0.040
-241.932	-200.000	-0.127	0.000
-240.917	-200.000	0.054	0.293
-239.903	-176.218	-0.220	0.006
-238.888	261.731	0.135	-0.231
-237.873	800.000	0.088	0.347
-236.859	800.000	-0.061	0.235
-235.844	800.000	-0.104	0.294
-234.830	795.767	0.144	-0.391
-233.815	418.957	0.126	-0.265
-232.800	-98.601	-0.117	-0.029
-231.786	219.854	0.033	0.052
-230.771	-23.349	0.298	-0.176
-229.757	-200.000	-0.066	0.425
-228.742	301.390	-0.104	0.189
-227.727	-200.000	-0.015	-0.146
-226.713	631.094	0.116	-0.289
-225.698	132.087	-0.185	0.235
-224.684	267.825	-0.116	-0.201
-223.669	-31.181	-0.227	-0.126
-222.655	-200.000	-0.022	-0.187
-221.640	72.175	0.031	0.032
-220.625	800.000	0.052	-0.224
-219.611	80.599	-0.212	0.225
-218.596	112.559	0.068	-0.082
-217.582	-192.834	0.269	0.002
-216.567	169.160	0.128	0.180
-215.552	-19.428	-0.111	-0.068
-214.538	30.949	-0.362	-0.306
-213.523	444.574	0.088	-0.190
-212.509	-114.136	0.193	-0.037
-211.494	45.786	0.069	-0.063
-210.479	334.140	0.104	-0.199
-209.465	-81.182	-0.087	0.028
-208.450	30.218	-0.101	-0.085
-207.436	-200.000	0.001	-0.083
-206.421	-48.559	0.178	0.084
-205.406	308.784	-0.092	0.170
-204.392	-107.770	-0.214	-0.046
-203.377	656.405	0.033	-0.083
-202.363	800.000	-0.079	-0.263
-201.348	-200.000	-0.000	-0.231
-200.333	-134.431	0.246	0.030
-199.319	131.053	0.072	-0.091
-198.304	800.000	-0.065	0.192
-197.290	-168.208	0.246	0.009
-196.275	-135.212	0.216	-0.026
-195.260	800.000	-0.120	0.422
-194.246	28.978	-0.346	0.289
-193.231	-200.000	-0.038	0.215
-192.217	-76.712	-0.166	-0.057
-191.202	800.000	0.148	0.636
-190.187	-154.735	0.278	-0.018
-189.173	262.777	0.076	-0.130
-188.158	26.193	-0.253	0.208
-187.144	-133.472	0.291	-0.036
-186.129	-81.952	-0.276	-0.089
-185.114	-96.708	0.172	0.045
-184.100	3.353	-0.331	-0.237
-183.085	-129.443	0.132	-0.018
-182.071	-22.354	0.153	-0.091
-181.056	318.501	-0.122	-0.227
-180.042	64.318	0.141	0.139
-179.027	-200.000	0.065	-0.302
-178.012	800.000	0.066	-0.239
-176.998	-138.680	-0.200	-0.022
-175.983	-200.000	0.023	-0.489
-174.969	-121.957	0.148	0.024
-173.954	-34.449	0.071	0.038
-172.939	-200.000	-0.012	-0.141
-171.925	324.824	0.119	-0.224
-170.910	109.460	-0.158	-0.186
-169.896	254.063	-0.114	-0.192
-168.881	-9.662	0.055	-0.036
-167.866	-171.007	-0.165	-0.006
-166.852	-32.560	0.241	-0.132
-165.837	66.493	0.109	-0.110
-164.823	686.626	-0.140	0.361
-163.808	1.870	-0.114	0.081
-162.793	-200.000	-0.010	0.299
-161.779	-32.822	0.047	-0.025
-160.764	30.239	0.100	0.084
-159.750	354.531	-0.082	-0.159
-158.735	180.663	-0.129	0.186
-157.720	387.241	-0.185	0.377
-156.706	-122.110	-0.114	-0.018
-155.691	-200.000	0.047	0.251
-154.677	406.459	0.122	0.254
-153.662	-200.000	0.006	-0.109
-152.647	218.258	0.091	-0.143
-151.633	-37.415	-0.126	-0.066
-150.618	-200.000	0.013	-0.257
-149.604	-200.000	-0.009	-0.059
-148.589	800.000	0.087	-0.356
-147.574	-4.264	-0.067	0.046
-146.560	69.715	-0.180	0.182
-145.545	-68.012	-0.016	-0.006
-144.531	-114.603	0.229	-0.043
-143.516	-48.492	-0.136	0.064
-142.502	-200.000	-0.031	-0.166
-141.487	-200.000	-0.046	-0.239
-140.472	800.000	-0.013	-0.044
-139.458	26.074	0.189	0.155
-138.443	-200.000	-0.027	-0.222
-137.429	65.212	0.158	-0.157
-136.414	170.406	0.129	0.181
-135.399	360.582	0.084	0.166
-134.385	-125.597	-0.049	0.007
-133.370	800.000	-0.035	-0.129
-132.356	165.789	-0.145	0.202
-131.341	-200.000	-0.045	0.218
-130.326	-200.000	-0.010	-0.066
-129.312	-5.702	0.094	0.063
-128.297	29.017	0.166	0.138
-127.283	-200.000	0.015	0.162
-126.268	413.184	0.009	-0.019
-125.253	-135.396	0.253	0.030
-124.239	156.423	-0.107	0.145
-123.224	462.945	-0.064	-0.140
-122.210	-45.142	0.236	-0.115
-121.195	-105.453	0.025	0.005
-120.180	-200.000	-0.037	0.170
-119.166	527.477	0.049	-0.114
-118.151	-113.012	-0.128	-0.025
-117.137	-79.983	-0.114	0.038
-116.122	-200.000	0.001	0.079
-115.107	-106.967	0.300	-0.065
-114.093	55.064	-0.071	-0.067
-113.078	-200.000	-0.006	-0.208
-112.064	60.077	-0.261	0.253
-111.049	-200.000	-0.019	0.197
-110.034	-152.999	-0.226	0.016
-109.020	62.921	-0.239	0.235
-108.005	-28.176	0.248	0.141
-106.991	-26.847	0.243	-0.140
-105.976	-193.279	0.220	-0.002
-104.962	6.385	-0.204	0.149
-103.947	-10.901	-0.145	0.094
-102.932	-200.000	0.036	-0.172
-101.918	0.561	0.323	0.227
-100.903	800.000	0.071	0.246
-99.889	294.544	-0.086	0.154
-98.874	-200.000	0.004	0.116
-97.859	407.256	-0.100	-0.206
-96.845	509.064	-0.105	0.238
-95.830	568.987	0.028	0.068
-94.816	33.957	-0.027	-0.023
-93.801	-98.702	0.400	-0.100
-92.786	-200.000	-0.008	-0.074
-91.772	800.000	-0.059	-0.191
-90.757	-87.510	-0.154	0.046
-89.743	-107.904	-0.398	0.085
-88.728	200.956	-0.127	-0.191
-87.713	-200.000	0.013	0.069
-86.699	-16.807	-0.217	0.134
-85.684	-49.802	-0.237	-0.110
-84.670	-11.217	0.138	-0.089
-83.655	-200.000	-0.012	-0.105
-82.640	-200.000	-0.077	0.339
-81.626	-126.335	0.157	-0.023
-80.611	154.101	0.082	-0.110
-79.597	25.498	0.049	-0.040
-78.582	113.150	0.289	0.344
-77.567	-114.034	-0.110	0.021
-76.553	-40.631	-0.100	-0.051
-75.538	-105.868	-0.229	0.051
-74.524	583.364	-0.046	-0.112
-73.509	-103.432	0.030	0.007
-72.494	71.744	0.048	-0.049
-71.480	-200.000	0.057	0.403
-70.465	800.000	-0.052	0.206
-69.451	432.264	-0.070	0.148
-68.436	800.000	0.065	-0.192
-67.422	-58.557	0.325	-0.138
-66.407	-184.084	0.171	0.003
-65.392	-165.088	0.119	-0.005
-64.378	53.047	0.076	-0.072
-63.363	-200.000	-0.012	-0.202
-62.349	122.226	0.040	0.049
-61.334	-9.309	-1.169	-0.765
-60.319	-33.616	0.630	0.341
-59.305	-200.000	-0.153	-1.314
-58.290	800.000	0.411	1.150
-57.276	800.000	0.517	1.415
-56.261	-200.000	105.863	621.150
-55.246	523.564	1499.174	3451.826
-54.232	178.272	2689.937	3846.116
-53.217	113.545	2154.740	2563.005
-52.203	41.645	1593.308	1413.669
-51.188	33.285	1328.378	1128.957
-50.173	29.982	1287.230	1074.807
-49.159	54.963	1340.846	1268.128
-48.144	55.190	1356.686	1284.396
-47.130	33.303	1311.454	1114.500
-46.115	29.817	1293.607	1078.997
-45.100	29.619	1288.789	1073.787
-44.086	29.608	1286.346	1071.641
-43.071	29.596	1283.963	1069.546
-42.057	29.480	1281.850	1067.075
-41.042	29.542	1280.329	1066.123
-40.027	29.558	1278.843	1064.935
-39.013	29.642	1276.767	1063.646
-37.998	29.531	1275.420	1061.846
-36.984	29.662	1273.342	1060.822
-35.969	29.643	1271.445	1059.096
-34.954	29.749	1269.767	1058.259
-33.940	29.784	1268.400	1057.277
-32.925	29.803	1267.452	1056.554
-31.911	29.772	1266.026	1055.149
-30.896	29.669	1264.720	1053.431
-29.881	29.857	1263.020	1053.040
-28.867	29.809	1261.209	1051.216
-27.852	29.837	1259.735	1050.110
-26.838	29.915	1258.500	1049.477
-25.823	29.779	1257.781	1048.067
-24.809	29.894	1256.011	1047.203
-23.794	29.698	1255.317	1045.473
-22.779	29.789	1253.851	1044.726
-21.765	29.773	1252.306	1043.307
-20.750	29.756	1250.964	1042.050
-19.736	29.613	1250.169	1040.542
-18.721	29.589	1248.878	1039.291
-17.706	29.710	1247.730	1038.971
-16.692	29.633	1246.556	1037.522
-15.677	29.554	1245.485	1036.146
-14.663	29.696	1244.150	1035.789
-13.648	29.580	1243.246	1034.345
-12.633	29.655	1242.301	1033.939
-11.619	29.562	1241.351	1032.590
-10.604	29.702	1240.003	1032.208
-9.590	29.570	1239.429	1030.952
-8.575	29.595	1238.631	1030.388
-7.560	29.613	1237.570	1029.563
-6.546	29.636	1236.456	1028.723
-5.531	29.523	1236.100	1027.759
-4.517	29.705	1235.189	1027.974
-3.502	29.530	1234.809	1026.642
-2.487	29.656	1233.496	1026.207
-1.473	29.537	1229.623	1022.288
-0.458	28.047	1214.693	1001.678
0.556	22.309	1196.973	963.603
1.571	18.725	1201.624	947.515
2.586	18.003	1215.912	954.662
3.600	17.801	1205.331	945.151
4.615	12.803	1135.494	864.162
5.629	4.137	1061.212	764.931
6.644	-0.088	1041.461	730.126
7.659	-0.297	1039.062	727.369
8.673	-0.481	1037.813	725.537
9.688	-0.423	1036.333	724.722
10.702	-0.210	1034.908	724.686
11.717	5.411	1042.569	757.265
12.731	14.428	1055.629	810.723
13.746	19.006	1060.447	836.672
14.761	19.779	1061.429	841.133
15.775	19.787	1060.820	840.615
16.790	19.466	1060.184	838.480
17.804	19.450	1059.504	837.789
18.819	19.606	1058.827	837.938
19.834	19.590	1058.491	837.519
20.848	19.677	1058.126	837.579
21.863	19.506	1057.844	836.450
22.877	19.495	1056.831	835.521
23.892	19.451	1056.394	834.892
24.907	19.698	1055.190	835.057
25.921	19.656	1053.782	833.670
26.936	19.514	1053.206	832.454
27.950	19.496	1051.274	830.765
28.965	19.340	1049.261	828.355
29.980	19.460	1047.615	827.555
30.994	19.541	1047.001	827.385
32.009	19.526	1045.843	826.325
33.023	19.465	1044.322	824.762
34.038	19.511	1043.652	824.377
35.053	19.604	1042.932	824.181
36.067	19.673	1041.853	823.585
37.082	19.794	1040.881	823.318
38.096	19.921	1039.764	822.967
39.111	19.908	1039.400	822.545
40.126	19.922	1037.252	820.834
41.140	19.312	1036.676	817.418
42.155	19.229	1034.965	815.601
43.169	19.336	1034.013	815.286
44.184	19.389	1032.770	814.485
45.199	19.228	1031.706	812.811
46.213	19.340	1030.647	812.435
47.228	19.394	1029.996	812.103
48.242	19.567	1028.436	811.614
49.257	19.588	1028.261	811.502
50.271	19.617	1027.425	810.910
51.286	19.701	1026.269	810.320
52.301	19.609	1025.598	809.286
53.315	19.554	1024.680	808.234
54.330	19.507	1023.899	807.323
55.344	19.652	1023.006	807.229
56.359	19.678	1021.785	806.312
57.374	19.492	1020.858	804.645
58.388	19.602	1020.094	804.485
59.403	19.384	1019.676	803.067
60.417	19.350	1018.576	801.969
61.432	19.324	1017.978	801.307
62.447	19.507	1017.417	801.646
63.461	19.516	1016.233	800.682
64.476	19.364	1015.372	799.231
65.490	19.345	1014.525	798.406
66.505	19.485	1013.888	798.479
67.520	19.494	1013.740	798.335
68.534	19.325	1012.235	796.301
69.549	18.974	1011.159	793.762
70.563	18.996	1010.511	793.283
71.578	19.043	1009.273	792.460
72.593	18.859	1008.526	790.954
73.607	19.194	1007.625	791.719
74.622	19.402	1007.185	792.257
75.636	19.179	1007.306	791.261
76.651	19.178	1005.948	790.116
77.666	19.136	1005.295	789.341
78.680	19.140	1004.519	788.683
79.695	19.299	1003.723	788.713
80.709	19.405	1002.731	788.350
81.724	19.422	1002.116	787.873
82.739	19.338	1001.901	787.251
83.753	19.685	1001.001	788.060
84.768	19.867	1000.074	788.086
85.782	20.021	998.585	787.547
86.797	19.815	997.953	786.040
87.812	19.761	997.148	785.090
88.826	19.864	996.171	784.719
89.841	19.928	995.387	784.325
90.855	19.998	994.177	783.618
91.870	19.857	993.511	782.385
92.884	19.786	992.020	780.820
93.899	19.756	991.312	780.060
94.914	19.960	990.600	780.351
95.928	19.696	989.165	777.964
96.943	19.366	988.266	775.703
97.957	19.202	987.055	773.947
98.972	19.186	985.454	772.550
99.987	19.330	985.584	773.231
101.001	19.548	984.577	773.347
102.016	19.437	983.619	772.030
103.030	19.499	981.861	770.860
104.045	19.316	981.298	769.534
105.060	19.260	979.965	768.171
106.074	19.434	979.552	768.552
107.089	19.753	979.245	769.667
108.103	19.621	977.955	767.994
109.118	19.395	976.942	766.128
110.133	19.500	975.845	765.668
111.147	19.293	974.456	763.590
112.162	19.144	973.572	762.173
113.176	19.396	973.182	762.916
114.191	19.222	972.014	761.161
115.206	18.930	971.175	759.148
116.220	18.960	970.252	758.493
117.235	19.186	969.234	758.623
118.249	19.111	968.043	757.296
119.264	18.992	967.591	756.353
120.279	19.142	966.558	756.137
121.293	19.146	966.141	755.762
122.308	19.291	964.974	755.416
123.322	19.209	963.573	753.896
124.337	19.103	962.408	752.451
125.352	18.696	960.371	749.017
126.366	18.781	959.052	748.293
127.381	19.322	959.627	751.035
128.395	19.626	959.188	751.949
129.410	19.749	958.291	751.712
130.424	19.578	957.347	750.162
131.439	19.705	955.730	749.380
132.454	19.602	955.101	748.374
133.468	19.702	953.918	747.811
134.483	19.680	953.580	747.388
135.497	19.781	952.954	747.267
136.512	19.948	951.630	746.885
137.527	19.908	951.160	746.275
138.541	19.951	950.356	745.764
139.556	19.870	949.587	744.748
140.570	19.802	948.841	743.804
141.585	19.869	947.452	742.933
142.600	19.743	946.363	741.477
143.614	20.165	945.707	742.703
144.629	19.966	945.116	741.320
145.643	19.929	943.683	739.974
146.658	19.785	942.813	738.611
147.673	19.907	941.144	737.757
148.687	19.748	940.483	736.498
149.702	19.670	939.491	735.326
150.716	19.649	938.618	734.485
151.731	19.765	938.187	734.577
152.746	20.131	937.127	735.235
153.760	19.981	936.954	734.396
154.775	19.996	936.087	733.716
155.789	19.914	935.049	732.491
156.804	20.040	934.322	732.392
157.819	20.115	933.412	731.929
158.833	20.167	932.569	731.424
159.848	20.116	931.543	730.337
160.862	19.948	930.428	728.694
161.877	20.060	929.911	728.695
162.892	20.092	929.218	728.220
163.906	20.032	928.059	726.996
164.921	20.105	926.764	726.223
165.935	20.086	926.341	725.750
166.950	20.053	925.405	724.815
167.964	19.982	924.371	723.640
168.979	19.813	923.166	721.929
169.994	19.825	922.520	721.408
171.008	20.124	922.042	722.219
172.023	20.094	921.051	721.254
173.037	19.868	919.502	719.038
174.052	19.732	918.691	717.776
175.067	19.875	918.760	718.359
176.081	19.978	917.946	718.088
177.096	19.907	917.286	717.212
178.110	19.671	916.093	715.238
179.125	19.463	915.302	713.699
180.140	19.563	914.941	713.769
181.154	19.576	914.900	713.725
182.169	19.965	914.709	715.119
183.183	20.025	914.277	714.968
184.198	19.986	913.215	713.912
185.213	19.858	912.645	712.878
186.227	20.009	911.688	712.687
187.242	20.034	911.017	712.202
188.256	19.997	910.033	711.218
189.271	20.017	909.465	710.792
190.286	19.771	908.030	708.604
191.300	19.262	906.915	705.586
192.315	18.672	905.406	701.936
193.329	18.549	905.088	701.124
194.344	19.510	905.214	705.089
195.359	20.100	904.866	707.161
196.373	20.094	904.245	706.590
197.388	19.876	904.008	705.452
198.402	19.749	903.351	704.360
199.417	19.856	902.904	704.386
200.432	19.574	901.577	702.143
201.446	19.422	901.084	701.081
202.461	19.422	900.116	700.265
203.475	18.549	898.687	695.552
204.490	18.068	897.021	692.251
205.504	18.914	897.851	696.258
206.519	19.503	897.593	698.382
207.534	19.679	896.895	698.489
208.548	20.003	896.944	699.773
209.563	19.721	895.785	697.671
210.577	19.919	895.031	697.819
211.592	20.104	895.210	698.644
212.607	20.048	893.878	697.315
213.621	20.108	893.495	697.197
214.636	20.092	892.883	696.593
215.650	20.063	891.712	695.503
216.665	20.342	890.783	695.834
217.680	20.062	890.290	694.265
218.694	19.540	889.346	691.378
219.709	19.468	888.820	690.618
220.723	19.881	888.180	691.715
221.738	19.782	887.927	691.059
222.753	19.949	886.930	690.888
223.767	19.942	886.918	690.790
224.782	20.197	886.152	691.146
225.796	20.191	885.262	690.369
226.811	19.474	884.317	686.718
227.826	18.949	882.960	683.520
228.840	19.027	882.352	683.296
229.855	19.213	881.532	683.340
230.869	18.843	880.574	681.069
231.884	19.146	880.952	682.504
232.899	20.026	879.989	685.181
233.913	19.967	879.832	684.761
234.928	19.982	879.072	684.169
235.942	19.905	878.482	683.349
236.957	19.495	877.730	681.085
237.972	19.645	876.883	680.957
238.986	19.760	876.213	680.829
240.001	19.885	875.553	680.748
241.015	19.903	875.289	680.554
242.030	19.968	874.897	680.444
243.045	20.050	873.979	679.990
244.059	20.178	873.472	680.037
245.074	19.950	872.478	678.313
246.088	19.625	871.585	676.285
247.103	19.719	871.646	676.641
248.117	20.385	871.178	678.823
249.132	20.589	870.402	678.956
250.147	20.470	869.857	678.005
251.161	20.669	869.588	678.511
252.176	20.547	869.229	677.697
253.190	20.708	868.222	677.475
254.205	20.945	867.750	677.971
255.220	20.963	867.127	677.493
256.234	20.676	866.641	675.939
257.249	20.607	865.464	674.695
258.263	20.635	865.342	674.648
259.278	20.683	864.708	674.281
260.293	20.748	863.767	673.739
261.307	20.642	862.795	672.510
262.322	20.434	861.953	670.989
263.336	19.790	860.010	666.936
264.351	18.728	858.222	661.404
265.366	18.925	857.802	661.778
266.380	19.984	858.916	666.660
267.395	20.425	858.399	667.895
268.409	20.349	857.435	666.794
269.424	20.452	857.505	667.186
270.439	20.490	856.811	666.729
271.453	20.549	856.007	666.272
272.468	20.881	855.573	667.146
273.482	20.798	855.199	666.478
274.497	20.487	853.659	664.031
275.512	20.171	852.733	662.047
276.526	20.653	852.682	663.788
277.541	20.710	852.120	663.510
278.555	20.439	851.434	661.885
279.570	20.314	850.380	660.531
280.585	20.384	850.031	660.466
281.599	20.425	849.373	660.054
282.614	19.908	848.089	657.033
283.628	19.900	847.699	656.644
284.643	20.289	847.386	657.817
285.657	19.892	846.144	655.292
286.672	19.626	845.446	653.688
287.687	20.331	844.754	655.762
288.701	20.191	844.776	655.189
289.716	19.879	843.579	653.025
290.730	19.820	843.225	652.473
291.745	19.675	842.485	651.295
292.760	19.888	842.092	651.734
293.774	20.820	842.613	655.591
294.789	21.101	842.170	656.248
295.803	21.290	841.291	656.214
296.818	21.292	840.453	655.507
297.833	20.828	839.511	652.977
298.847	20.591	839.074	651.692
299.862	21.028	839.043	653.246
300.876	21.294	838.504	653.764
301.891	21.059	837.665	652.176
302.906	20.477	836.765	649.243
303.920	20.720	836.551	649.924
304.935	21.063	836.479	651.093
305.949	20.984	835.696	650.131
306.964	20.752	834.849	648.550
307.979	20.909	834.404	648.733
308.993	21.288	833.697	649.533
310.008	21.239	833.096	648.825
311.022	20.953	832.791	647.468
312.037	20.871	831.856	646.382
313.052	20.734	831.213	645.315
314.066	19.803	830.248	641.061
315.081	19.648	829.012	639.478
316.095	20.527	829.515	643.061
317.110	20.773	829.436	643.853
318.125	20.117	827.518	639.885
319.139	19.213	826.110	635.407
320.154	19.200	825.968	635.195
321.168	19.917	826.665	638.320
322.183	20.613	826.444	640.658
323.197	20.611	826.350	640.521
324.212	21.020	825.819	641.557
325.227	20.904	824.971	640.415
326.241	20.746	824.216	639.193
327.256	20.713	823.784	638.677
328.270	20.714	822.981	638.004
329.285	20.608	822.220	636.971
330.300	20.394	821.488	635.563
331.314	20.493	821.278	635.706
332.329	20.939	821.215	637.231
333.343	21.174	820.235	637.273
334.358	20.932	820.191	636.299
335.373	21.027	819.757	636.252
336.387	21.444	819.434	637.465
337.402	21.539	819.272	637.630
338.416	21.336	818.966	636.595
339.431	21.490	818.653	636.857
340.446	21.491	818.507	636.691
341.460	21.291	817.859	635.402
342.475	21.139	817.373	634.417
343.489	21.299	817.360	634.932
344.504	21.462	816.839	635.063
345.519	21.744	815.882	635.285
346.533	21.781	815.808	635.304
347.548	21.761	815.131	634.648
348.562	21.776	815.142	634.655
349.577	21.674	814.610	633.815
350.592	21.565	814.024	632.909
351.606	21.728	812.848	632.529
352.621	21.493	812.093	631.039
353.635	21.628	811.271	630.829
354.650	20.909	809.602	626.888
355.665	20.142	808.272	623.048
356.679	20.456	808.207	624.072
357.694	20.892	807.671	625.166
358.708	20.785	807.132	624.313
359.723	21.192	807.172	625.745
360.738	21.466	806.892	626.456
361.752	21.506	806.221	626.024
362.767	21.840	806.077	627.048
363.781	22.006	805.813	627.381
364.796	21.997	805.328	626.918
365.810	22.082	804.910	626.840
366.825	22.077	804.193	626.209
367.840	21.808	803.554	624.698
368.854	21.515	802.676	622.914
369.869	21.517	802.190	622.490
370.883	21.491	801.937	622.147
371.898	21.439	801.170	621.313
372.913	21.413	801.274	621.243
373.927	21.641	800.837	621.662
374.942	21.739	800.595	621.765
375.956	21.632	799.986	620.859
376.971	21.960	799.194	621.350
377.986	22.031	799.393	621.702
379.000	22.061	798.510	621.067
380.015	21.988	797.890	620.271
381.029	21.881	797.673	619.669
382.044	22.147	797.126	620.128
383.059	22.117	796.193	619.241
384.073	22.065	795.907	618.782
385.088	22.231	795.015	618.616
386.102	21.782	794.586	616.648
387.117	22.024	793.998	616.988
388.132	21.618	792.832	614.604
389.146	21.195	792.149	612.537
390.161	21.271	792.116	612.723
391.175	21.704	792.042	614.131
392.190	21.475	790.569	612.132
393.205	20.277	788.620	606.384
394.219	18.928	787.181	600.516
395.234	19.010	787.180	600.747
396.248	20.614	788.436	607.260
397.263	21.901	788.885	612.043
398.278	21.761	788.661	611.329
399.292	21.619	788.035	610.295
400.307	21.578	787.680	609.823
401.321	21.573	787.395	609.530
402.336	22.007	787.017	610.694
403.350	22.437	786.721	611.903
404.365	22.522	786.743	612.164
405.380	22.763	786.222	612.538
406.394	22.714	785.903	612.065
407.409	22.779	785.371	611.824
408.423	22.626	784.785	610.785
409.438	22.782	784.377	610.952
410.453	22.885	783.686	610.715
411.467	22.793	783.113	609.895
412.482	22.707	783.276	609.672
413.496	22.863	782.878	609.848
414.511	22.754	782.580	609.186
415.526	22.946	781.817	609.198
416.540	22.685	781.452	607.962
417.555	22.385	780.867	606.419
418.569	22.396	780.131	605.832
419.584	22.440	779.642	605.549
420.599	22.297	778.836	604.379
421.613	159.394	1361.990	1799.668
422.628	137.767	1446.957	1799.755
