DTS Sentinel unit serial number:	SN413079Multiplexer serial number:	ORYXHardware model number:	OX4-SRSoftware version number:	ORYX F/W v4.00 Oryx Data Collector v3.7.2.0data status	okinstallation	princeton_trtdifferential loss correction	single-endedforward channel	channel 1reverse channel	N/Adate	2019/09/11time	18:16:11forward acquisition time	60.00reverse acquisition time	0.00gamma	496.2192k internal	0.2290k external	0.2290temperature offset calibration	0.9994default loss term (dB/km)	0.3790temperature slope calibration	1.0000multiplexer offset coefficient	1.0000multiplexer slope coefficient	1.0000fibre end	0.00T internal ref (°C)	44.00T ext. ref 1 (°C)	1.14T ext. ref 2 (°C)	39.06length (m)	temperature (°C)	Stokes	anti-Stokes-747.200	483.004	-0.068	0.158
-746.185	184.336	-0.200	0.303
-745.171	-200.000	-0.026	0.157
-744.156	-200.000	-0.029	0.258
-743.142	-143.220	0.118	-0.012
-742.127	-200.000	0.043	0.461
-741.112	800.000	0.166	0.543
-740.098	800.000	-0.219	0.735
-739.083	-200.000	0.001	0.005
-738.069	-140.052	0.300	-0.032
-737.054	271.659	-0.195	0.351
-736.039	-2.496	-0.116	0.083
-735.025	-17.230	0.290	0.187
-734.010	-100.935	-0.089	0.023
-732.996	-43.530	-0.186	0.096
-731.981	185.050	0.064	-0.098
-730.966	490.135	0.144	-0.337
-729.952	800.000	0.039	-0.124
-728.937	146.767	-0.147	-0.202
-727.923	-60.653	-0.261	-0.113
-726.908	-200.000	0.014	0.084
-725.894	121.637	-0.247	0.316
-724.879	-171.210	-0.072	-0.002
-723.864	113.056	0.103	-0.128
-722.850	88.676	-0.060	-0.068
-721.835	800.000	0.084	-0.286
-720.821	422.689	-0.108	-0.237
-719.806	-121.657	-0.282	0.048
-718.791	45.378	0.200	-0.188
-717.777	498.355	0.165	-0.389
-716.762	-142.913	0.133	0.013
-715.748	-53.242	-0.206	0.097
-714.733	-77.687	-0.157	0.056
-713.718	23.104	-0.282	0.237
-712.704	189.067	0.109	-0.167
-711.689	-65.963	-0.265	-0.108
-710.675	-84.749	-0.131	0.042
-709.660	-35.562	-0.182	0.101
-708.645	-91.840	0.124	0.036
-707.631	-91.329	0.339	-0.099
-706.616	328.857	0.103	0.203
-705.602	152.791	-0.098	-0.138
-704.587	724.996	0.039	0.106
-703.572	800.000	-0.026	0.082
-702.558	800.000	0.100	-0.380
-701.543	-200.000	-0.019	-0.249
-700.529	-200.000	-0.080	0.414
-699.514	560.440	-0.139	0.343
-698.499	-125.279	-0.244	-0.038
-697.485	-200.000	-0.015	-0.219
-696.470	800.000	0.068	-0.266
-695.456	-100.263	0.154	-0.039
-694.441	-48.855	0.353	-0.173
-693.426	-20.132	0.240	0.151
-692.412	-42.301	0.347	0.181
-691.397	800.000	0.015	-0.048
-690.383	0.300	-0.088	0.064
-689.368	25.783	-0.126	0.107
-688.354	800.000	0.042	-0.128
-687.339	-100.635	0.358	0.090
-686.324	-163.873	-0.190	0.009
-685.310	-200.000	0.005	-0.113
-684.295	170.984	0.084	-0.123
-683.281	57.332	0.211	-0.211
-682.266	101.166	0.249	0.296
-681.251	-85.479	-0.178	-0.057
-680.237	102.294	-0.155	-0.186
-679.222	4.414	0.221	0.166
-678.208	-200.000	0.035	0.183
-677.193	-200.000	-0.004	0.045
-676.178	-89.013	-0.271	-0.082
-675.164	-144.606	-0.162	-0.015
-674.149	44.201	0.284	0.266
-673.135	249.170	0.140	0.242
-672.120	800.000	-0.061	-0.234
-671.105	-68.055	0.224	0.089
-670.091	437.763	-0.063	0.141
-669.076	-200.000	-0.001	-0.209
-668.062	800.000	-0.080	0.254
-667.047	108.244	0.062	-0.076
-666.032	800.000	-0.111	0.345
-665.018	-87.733	0.309	-0.095
-664.003	800.000	0.053	-0.212
-662.989	-35.564	0.274	-0.152
-661.974	-87.804	0.163	0.050
-660.959	-77.164	-0.233	-0.083
-659.945	-98.430	0.260	0.068
-658.930	202.761	0.144	-0.227
-657.916	143.780	0.062	-0.084
-656.901	60.416	0.079	-0.080
-655.886	-97.343	0.375	-0.100
-654.872	-200.000	-0.033	-0.250
-653.857	-147.247	-0.090	-0.008
-652.843	-80.581	0.307	-0.104
-651.828	-101.559	0.278	0.069
-650.814	-55.155	-0.270	0.124
-649.799	660.750	-0.129	0.340
-648.784	-200.000	-0.019	0.256
-647.770	-49.148	0.092	0.045
-646.755	461.782	-0.095	0.216
-645.741	130.404	0.150	0.196
-644.726	-200.000	0.037	-0.201
-643.711	800.000	0.115	-0.374
-642.697	800.000	-0.036	-0.118
-641.682	654.896	0.076	0.200
-640.668	201.210	-0.200	0.313
-639.653	-98.893	-0.230	0.060
-638.638	53.903	0.082	0.081
-637.624	213.071	0.054	-0.088
-636.609	-111.604	0.250	0.052
-635.595	-142.133	-0.131	0.013
-634.580	99.707	-0.177	0.208
-633.565	-141.019	-0.351	0.037
-632.551	-10.039	-0.140	0.095
-631.536	-30.944	-0.116	0.067
-630.522	15.337	-0.136	0.109
-629.507	-97.751	0.201	0.053
-628.492	16.186	-0.066	-0.053
-627.478	-200.000	0.005	0.101
-626.463	-72.592	-0.476	0.179
-625.449	77.533	-0.204	0.221
-624.434	-159.167	0.225	-0.013
-623.419	133.670	0.107	-0.142
-622.405	-200.000	-0.009	0.135
-621.390	-48.729	0.256	-0.125
-620.376	-74.852	-0.042	-0.015
-619.361	-200.000	-0.001	0.121
-618.346	-70.371	0.233	0.090
-617.332	239.523	-0.085	-0.144
-616.317	135.890	-0.347	-0.461
-615.303	-169.694	0.308	-0.011
-614.288	-18.050	-0.384	0.245
-613.273	-140.417	0.316	-0.034
-612.259	188.352	-0.105	-0.161
-611.244	452.498	-0.060	0.134
-610.230	800.000	-0.111	-0.474
-609.215	107.207	0.235	0.285
-608.201	55.092	0.263	-0.259
-607.186	-79.508	0.382	-0.132
-606.171	-96.590	-0.164	0.044
-605.157	-121.048	0.290	-0.050
-604.142	-116.333	-0.368	-0.069
-603.128	-200.000	0.021	-0.381
-602.113	-115.336	0.206	0.040
-601.098	-92.861	0.234	-0.067
-600.084	-84.311	0.172	-0.055
-599.069	-12.374	0.344	-0.229
-598.055	800.000	-0.063	0.196
-597.040	159.923	-0.171	0.243
-596.025	-101.920	-0.096	-0.024
-595.011	73.895	0.058	0.062
-593.996	800.000	0.013	0.044
-592.982	-98.612	-0.101	0.026
-591.967	271.685	-0.074	-0.133
-590.952	78.300	0.230	-0.250
-589.938	-22.272	-0.140	-0.086
-588.923	-175.412	-0.142	-0.004
-587.909	-200.000	-0.014	0.113
-586.894	-54.761	0.145	-0.067
-585.879	-77.134	-0.310	-0.110
-584.865	-88.968	-0.223	-0.067
-583.850	-103.650	0.088	-0.021
-582.836	800.000	0.091	-0.375
-581.821	499.888	0.057	-0.134
-580.806	217.306	-0.245	0.397
-579.792	-141.938	-0.112	0.011
-578.777	63.606	-0.119	-0.121
-577.763	800.000	0.057	0.196
-576.748	257.553	0.136	-0.238
-575.733	-200.000	0.019	0.264
-574.719	800.000	0.055	-0.195
-573.704	24.811	-0.166	-0.140
-572.690	-105.837	0.156	0.036
-571.675	22.878	0.187	0.156
-570.661	-200.000	0.014	0.113
-569.646	-91.386	0.273	-0.079
-568.631	-10.642	0.246	0.166
-567.617	361.019	-0.117	0.238
-566.602	-61.755	-0.289	-0.123
-565.588	97.932	-0.239	-0.280
-564.573	800.000	0.057	0.168
-563.558	-109.226	0.221	-0.048
-562.544	-91.150	-0.340	0.099
-561.529	-200.000	0.010	-0.273
-560.515	88.424	0.109	0.124
-559.500	500.525	-0.087	0.204
-558.485	39.467	-0.177	0.161
-557.471	-200.000	-0.006	0.261
-556.456	-75.561	-0.110	0.040
-555.442	-47.858	0.109	-0.054
-554.427	-76.312	0.477	-0.171
-553.412	-19.609	0.080	0.050
-552.398	800.000	0.084	-0.276
-551.383	-102.698	0.071	-0.017
-550.369	-16.382	0.219	-0.141
-549.354	-200.000	0.012	0.295
-548.339	800.000	0.019	0.069
-547.325	-164.241	-0.315	-0.015
-546.310	107.485	-0.164	0.199
-545.296	-21.756	-0.183	-0.113
-544.281	-200.000	-0.004	0.196
-543.266	289.916	0.039	-0.072
-542.252	-112.647	0.268	-0.054
-541.237	-113.536	0.110	-0.022
-540.223	-80.560	-0.290	0.098
-539.208	463.648	-0.060	-0.136
-538.193	-200.000	0.002	0.107
-537.179	-21.780	-0.111	0.069
-536.164	-59.376	-0.400	0.175
-535.150	-6.816	-0.066	-0.045
-534.135	-8.823	-0.104	-0.071
-533.121	361.443	0.152	0.309
-532.106	-200.000	-0.034	-0.529
-531.091	297.340	0.096	0.180
-530.077	-22.580	0.040	-0.025
-529.062	-77.492	-0.430	-0.151
-528.048	-135.603	-0.029	0.003
-527.033	150.972	-0.120	0.165
-526.018	-65.480	-0.214	-0.087
-525.004	-200.000	-0.018	-0.088
-523.989	-52.059	-0.057	-0.027
-522.975	171.912	-0.173	-0.253
-521.960	-22.527	0.133	-0.082
-520.945	-131.497	0.107	-0.014
-519.931	-134.120	-0.101	-0.013
-518.916	-18.929	-0.185	0.117
-517.902	52.981	-0.208	0.202
-516.887	640.108	-0.098	-0.254
-515.872	-99.136	-0.236	0.061
-514.858	289.455	-0.086	-0.159
-513.843	-88.565	-0.111	0.034
-512.829	-46.604	0.192	0.096
-511.814	-194.242	-0.185	0.002
-510.799	131.526	-0.119	-0.155
-509.785	-87.008	0.205	0.063
-508.770	304.853	0.066	0.125
-507.756	5.835	0.143	-0.107
-506.741	-55.528	0.097	-0.044
-505.726	-44.362	0.060	-0.030
-504.712	245.870	0.130	0.222
-503.697	-145.111	-0.215	-0.020
-502.683	800.000	0.048	0.170
-501.668	-86.237	-0.249	0.078
-500.653	-200.000	-0.021	0.182
-499.639	381.750	0.265	0.553
-498.624	1.491	0.166	0.121
-497.610	-200.000	0.043	-0.341
-496.595	800.000	-0.058	-0.204
-495.581	-9.950	0.233	-0.157
-494.566	-3.421	-0.063	0.045
-493.551	-67.828	-0.340	-0.135
-492.537	54.764	0.398	-0.390
-491.522	-90.977	0.125	0.037
-490.508	-96.910	-0.136	-0.036
-489.493	26.406	0.064	0.054
-488.478	40.254	0.237	0.216
-487.464	46.460	0.241	0.227
-486.449	636.320	-0.164	0.423
-485.435	166.053	0.059	0.085
-484.420	-200.000	0.031	-0.165
-483.405	-70.351	0.076	0.029
-482.391	-91.976	0.065	-0.019
-481.376	214.744	0.211	0.339
-480.362	151.723	-0.046	0.064
-479.347	154.554	-0.179	-0.250
-478.332	-200.000	0.074	-0.364
-477.318	800.000	-0.064	0.271
-476.303	800.000	-0.050	0.214
-475.289	278.197	0.131	-0.237
-474.274	300.490	0.037	-0.068
-473.259	-129.684	0.286	-0.040
-472.245	362.851	-0.104	-0.211
-471.230	74.044	0.226	0.240
-470.216	-32.411	-0.272	0.154
-469.201	-200.000	-0.022	-0.147
-468.186	-49.065	-0.167	0.081
-467.172	442.622	0.090	0.201
-466.157	357.567	0.134	0.270
-465.143	15.386	-0.261	0.207
-464.128	-178.831	-0.410	0.009
-463.113	-200.000	-0.011	0.090
-462.099	85.479	-0.262	-0.291
-461.084	-103.953	-0.418	-0.099
-460.070	87.017	0.250	0.280
-459.055	-169.126	0.290	-0.011
-458.040	-192.009	-0.201	-0.002
-457.026	15.450	-0.208	0.165
-456.011	14.402	-0.173	-0.136
-454.997	-200.000	-0.001	0.214
-453.982	-99.046	0.331	-0.085
-452.968	-13.650	0.186	-0.122
-451.953	-44.746	-0.293	0.148
-450.938	-5.565	-0.197	0.137
-449.924	334.689	0.108	-0.211
-448.909	-200.000	0.014	0.180
-447.895	124.559	0.140	0.178
-446.880	-132.846	-0.117	-0.015
-445.865	-41.418	-0.168	0.088
-444.851	-200.000	0.013	0.073
-443.836	-14.270	0.075	-0.049
-442.822	47.275	0.141	0.133
-441.807	46.921	0.187	-0.176
-440.792	-200.000	-0.038	-0.187
-439.778	800.000	-0.073	-0.257
-438.763	257.922	-0.195	0.339
-437.749	-66.557	0.198	0.079
-436.734	-38.131	-0.182	0.097
-435.719	484.655	0.027	-0.062
-434.705	376.181	-0.116	-0.240
-433.690	800.000	-0.040	0.153
-432.676	-54.336	0.157	-0.072
-431.661	32.762	-0.113	0.099
-430.646	-85.944	-0.507	-0.159
-429.632	-152.544	0.224	-0.016
-428.617	-85.051	0.123	-0.039
-427.603	165.260	-0.177	-0.253
-426.588	-31.626	-0.082	0.047
-425.573	800.000	0.056	-0.248
-424.559	-191.030	-0.221	-0.002
-423.544	-46.367	0.080	0.040
-422.530	-200.000	0.005	-0.095
-421.515	-98.114	0.251	-0.065
-420.500	-77.877	-0.115	0.040
-419.486	-59.084	-0.073	-0.032
-418.471	173.482	-0.062	-0.091
-417.457	337.897	0.172	-0.339
-416.442	800.000	-0.079	-0.314
-415.428	67.707	-0.164	-0.170
-414.413	800.000	-0.077	0.247
-413.398	189.166	0.078	-0.119
-412.384	-129.577	-0.100	-0.014
-411.369	138.645	-0.264	0.350
-410.355	-169.324	0.216	0.008
-409.340	14.075	-0.213	-0.168
-408.325	-11.044	0.202	-0.135
-407.311	-200.000	0.024	0.202
-406.296	340.301	-0.153	0.302
-405.282	37.196	0.107	0.096
-404.267	-86.007	-0.173	0.054
-403.252	95.913	-0.173	0.200
-402.238	-104.359	0.157	-0.037
-401.223	-200.000	-0.019	0.192
-400.209	-24.225	0.295	-0.178
-399.194	155.967	-0.168	0.235
-398.179	-63.297	-0.137	-0.057
-397.165	-200.000	0.003	0.097
-396.150	-107.223	0.201	-0.045
-395.136	24.427	0.148	0.124
-394.121	-200.000	0.012	-0.093
-393.106	-98.322	-0.174	0.045
-392.092	-200.000	-0.004	-0.230
-391.077	-86.205	-0.263	-0.082
-390.063	-143.137	0.235	0.023
-389.048	-63.432	-0.085	0.035
-388.033	-2.690	-0.185	0.130
-387.019	-200.000	0.013	-0.064
-386.004	190.059	-0.006	-0.010
-384.990	-59.096	0.161	0.070
-383.975	-200.000	0.041	0.289
-382.960	95.670	0.157	-0.181
-381.946	800.000	-0.086	-0.294
-380.931	-200.000	0.009	0.141
-379.917	29.026	0.217	0.186
-378.902	24.748	0.212	0.177
-377.888	183.819	-0.074	0.110
-376.873	-46.091	-0.197	0.098
-375.858	800.000	-0.054	-0.172
-374.844	-200.000	-0.035	0.333
-373.829	-200.000	-0.010	-0.132
-372.815	201.747	-0.055	0.086
-371.800	121.515	-0.124	-0.156
-370.785	328.476	0.055	0.106
-369.771	-200.000	-0.028	-0.213
-368.756	66.974	-0.120	-0.124
-367.742	-141.996	-0.379	0.038
-366.727	-163.532	-0.105	0.005
-365.712	21.022	-0.310	-0.253
-364.698	-153.060	0.196	0.014
-363.683	529.746	0.134	-0.320
-362.669	145.395	-0.172	0.232
-361.654	-200.000	0.046	0.233
-360.639	-123.008	0.343	-0.056
-359.625	111.369	-0.132	-0.161
-358.610	-200.000	0.041	-0.392
-357.596	76.821	0.257	0.275
-356.581	611.206	0.017	-0.043
-355.566	-20.509	0.247	-0.153
-354.552	-200.000	0.018	0.198
-353.537	120.131	-0.130	0.163
-352.523	-136.594	0.204	0.024
-351.508	199.720	-0.057	0.088
-350.493	-134.739	-0.315	-0.039
-349.479	3.819	-0.119	0.088
-348.464	-54.727	0.153	-0.070
-347.450	-200.000	0.003	-0.214
-346.435	-117.579	-0.553	0.101
-345.420	-200.000	-0.011	0.191
-344.406	-37.923	0.074	0.040
-343.391	-167.677	-0.635	0.025
-342.377	-200.000	-0.006	0.038
-341.362	-79.728	0.057	0.019
-340.348	-3.459	0.076	0.053
-339.333	522.706	-0.086	-0.204
-338.318	800.000	-0.005	0.020
-337.304	463.297	0.090	-0.202
-336.289	425.059	0.125	-0.270
-335.275	125.527	0.160	-0.204
-334.260	48.479	0.105	-0.099
-333.245	-177.325	-0.294	0.007
-332.231	249.609	0.129	0.221
-331.216	-90.141	0.278	-0.082
-330.202	-83.727	0.196	0.063
-329.187	662.041	0.043	0.111
-328.172	-138.237	0.160	-0.018
-327.158	108.536	-0.069	0.083
-326.143	800.000	-0.100	0.301
-325.129	-200.000	0.011	-0.054
-324.114	-200.000	-0.033	-0.262
-323.099	-200.000	0.027	0.128
-322.085	-95.663	0.112	-0.030
-321.070	-28.512	-0.030	0.017
-320.056	-200.000	0.013	-0.137
-319.041	-92.558	0.469	-0.133
-318.026	68.430	0.157	-0.162
-317.012	6.066	0.081	0.060
-315.997	249.334	0.100	-0.171
-314.983	56.715	0.140	0.137
-313.968	-125.765	0.042	0.006
-312.953	452.559	-0.104	0.232
-311.939	49.767	-0.262	0.248
-310.924	482.237	0.066	-0.151
-309.910	57.073	0.283	-0.278
-308.895	-89.473	-0.339	0.100
-307.880	77.061	0.276	0.296
-306.866	-173.878	0.292	-0.009
-305.851	212.119	-0.154	-0.245
-304.837	-200.000	0.012	-0.075
-303.822	-200.000	0.006	-0.388
-302.807	377.081	0.106	-0.217
-301.793	345.049	-0.019	0.037
-300.778	-131.020	-0.472	0.063
-299.764	497.449	0.043	0.100
-298.749	800.000	0.172	0.488
-297.735	-54.892	0.173	0.079
-296.720	41.842	-0.036	0.033
-295.705	-98.728	0.286	-0.073
-294.691	-200.000	-0.023	0.163
-293.676	800.000	-0.116	-0.324
-292.662	-200.000	0.070	-0.362
-291.647	96.907	0.145	-0.168
-290.632	46.607	-0.142	0.132
-289.618	629.254	-0.096	-0.243
-288.603	261.392	-0.102	-0.178
-287.589	10.395	-0.134	0.102
-286.574	-12.822	-0.221	-0.145
-285.559	523.419	0.066	0.155
-284.545	-11.644	-0.031	-0.021
-283.530	258.235	-0.088	-0.152
-282.516	-104.700	-0.391	0.091
-281.501	800.000	-0.064	0.202
-280.486	-97.844	0.159	0.041
-279.472	-140.488	0.131	-0.014
-278.457	121.672	0.245	-0.307
-277.443	-172.850	-0.397	0.012
-276.428	256.663	0.114	0.196
-275.413	-200.000	-0.015	-0.163
-274.399	724.736	0.054	0.144
-273.384	11.221	-0.244	0.188
-272.370	66.797	0.061	0.062
-271.355	-146.190	0.282	-0.025
-270.340	-57.430	-0.383	-0.169
-269.326	-200.000	-0.028	0.265
-268.311	-69.326	0.332	0.128
-267.297	-66.999	0.231	0.092
-266.282	361.386	-0.165	-0.333
-265.267	-172.388	0.110	0.004
-264.253	-154.066	0.169	-0.012
-263.238	-168.605	0.429	0.016
-262.224	-164.552	-0.083	-0.004
-261.209	-200.000	0.027	-0.367
-260.195	-53.254	0.219	0.101
-259.180	213.891	0.123	-0.196
-258.165	70.836	0.091	-0.095
-257.151	-9.004	-0.073	-0.049
-256.136	-151.057	-0.217	-0.016
-255.122	-200.000	-0.036	0.214
-254.107	-38.448	0.258	0.137
-253.092	193.034	0.037	0.057
-252.078	118.034	0.208	-0.257
-251.063	-200.000	0.007	0.069
-250.049	-35.890	-0.261	-0.142
-249.034	-60.165	0.138	-0.059
-248.019	-34.197	-0.103	-0.057
-247.005	-56.067	0.150	0.067
-245.990	-200.000	-0.019	0.183
-244.976	564.073	-0.073	-0.179
-243.961	-42.564	-0.117	0.060
-242.946	800.000	-0.050	-0.200
-241.932	111.642	0.078	0.095
-240.917	81.310	-0.132	-0.143
-239.903	-200.000	-0.025	-0.209
-238.888	-115.261	0.207	-0.039
-237.873	71.939	-0.149	0.156
-236.859	-161.557	-0.300	-0.015
-235.844	-22.955	0.214	0.130
-234.830	800.000	0.058	0.251
-233.815	-135.442	-0.202	0.024
-232.800	-200.000	-0.018	0.161
-231.786	-200.000	0.028	0.133
-230.771	-132.662	0.277	-0.036
-229.757	111.282	-0.267	-0.323
-228.742	-94.763	-0.084	0.023
-227.727	36.956	0.076	0.067
-226.713	-112.769	0.089	0.018
-225.698	-0.258	-0.095	0.068
-224.684	-65.338	-0.159	-0.064
-223.669	800.000	-0.087	-0.266
-222.655	-155.740	0.185	-0.012
-221.640	425.730	0.052	0.113
-220.625	800.000	0.122	0.436
-219.611	-55.173	0.273	0.123
-218.596	748.873	0.129	-0.350
-217.582	572.136	-0.092	-0.226
-216.567	-129.561	-0.068	0.009
-215.552	26.505	0.350	-0.294
-214.538	633.127	-0.135	0.344
-213.523	-200.000	-0.001	0.022
-212.509	-70.951	0.354	-0.134
-211.494	452.659	0.123	-0.273
-210.479	-200.000	0.012	-0.093
-209.465	-200.000	0.012	-0.060
-208.450	-200.000	0.004	0.226
-207.436	260.584	0.089	-0.155
-206.421	-11.444	-0.328	-0.216
-205.406	-52.235	0.191	0.089
-204.392	737.519	0.079	0.214
-203.377	-114.355	-0.253	-0.049
-202.363	-200.000	-0.032	-0.409
-201.348	-33.907	-0.286	-0.158
-200.333	-15.843	0.157	-0.100
-199.319	-21.828	0.132	0.081
-198.304	-112.512	0.291	0.058
-197.290	51.269	-0.089	0.085
-196.275	-9.201	0.159	0.106
-195.260	625.401	0.088	0.223
-194.246	-200.000	0.001	0.114
-193.231	-8.717	-0.220	0.148
-192.217	571.308	-0.054	0.132
-191.202	28.583	-0.146	-0.124
-190.187	-166.134	-0.280	-0.012
-189.173	-128.622	0.452	0.064
-188.158	27.686	0.115	-0.097
-187.144	-39.392	-0.182	-0.096
-186.129	-14.830	-0.088	-0.057
-185.114	-16.473	0.248	-0.158
-184.100	116.857	0.052	0.063
-183.085	36.088	0.087	0.077
-182.071	800.000	0.041	0.159
-181.056	-39.794	0.231	-0.121
-180.042	35.312	-0.174	-0.153
-179.027	800.000	-0.034	0.130
-178.012	-123.752	0.387	-0.061
-176.998	-95.998	-0.236	0.063
-175.983	-74.888	-0.256	-0.092
-174.969	339.833	-0.119	0.233
-173.954	346.193	0.128	-0.253
-172.939	107.588	0.182	-0.217
-171.925	289.914	-0.068	0.124
-170.910	-98.871	0.111	0.028
-169.896	800.000	-0.068	-0.205
-168.881	-200.000	-0.014	0.359
-167.866	79.950	0.124	0.134
-166.852	-137.267	0.243	-0.028
-165.837	-75.603	-0.181	-0.064
-164.823	-108.715	0.501	0.108
-163.808	-115.308	-0.098	0.018
-162.793	-128.253	-0.189	0.027
-161.779	-159.726	0.100	-0.006
-160.764	-21.425	-0.383	-0.234
-159.750	-168.745	0.320	0.012
-158.735	232.577	-0.079	0.130
-157.720	-78.392	0.205	-0.070
-156.706	800.000	-0.021	0.062
-155.691	33.623	0.183	0.159
-154.677	800.000	0.017	-0.058
-153.662	800.000	-0.034	-0.114
-152.647	800.000	-0.057	0.186
-151.633	800.000	0.059	-0.201
-150.618	-200.000	-0.066	0.322
-149.604	43.278	0.303	0.277
-148.589	-107.500	-0.160	-0.035
-147.574	-31.976	-0.175	-0.098
-146.560	35.266	0.264	-0.231
-145.545	255.041	-0.090	-0.154
-144.531	282.150	-0.157	0.282
-143.516	91.920	-0.157	0.177
-142.502	-37.394	-0.111	0.059
-141.487	573.706	0.074	-0.180
-140.472	-159.860	-0.167	-0.009
-139.458	25.043	0.292	-0.242
-138.443	-88.805	-0.354	0.105
-137.429	-104.767	0.199	-0.046
-136.414	-141.512	0.193	-0.020
-135.399	800.000	0.046	0.162
-134.385	-132.378	-0.329	0.042
-133.370	-200.000	0.048	-0.215
-132.356	-100.102	0.458	0.114
-131.341	441.828	0.072	0.159
-130.326	218.372	-0.255	0.406
-129.312	657.955	-0.159	0.408
-128.297	800.000	0.042	0.129
-127.283	-110.693	0.364	-0.075
-126.268	17.841	0.193	0.154
-125.253	123.871	0.081	-0.102
-124.239	-109.953	-0.145	-0.030
-123.224	800.000	-0.080	0.231
-122.210	-195.372	0.106	0.001
-121.195	12.088	0.241	-0.185
-120.180	800.000	0.130	0.385
-119.166	800.000	0.043	-0.150
-118.151	-90.444	-0.132	0.038
-117.137	-88.812	0.148	0.044
-116.122	632.789	-0.083	0.209
-115.107	72.385	-0.155	0.161
-114.093	-60.191	0.457	-0.195
-113.078	-200.000	-0.011	0.186
-112.064	719.144	-0.163	0.433
-111.049	-200.000	0.037	-0.166
-110.034	-20.253	-0.126	-0.078
-109.020	-9.650	-0.057	-0.038
-108.005	-112.130	0.092	-0.018
-106.991	479.793	-0.043	0.097
-105.976	-34.948	0.381	0.208
-104.962	800.000	0.018	0.049
-103.947	-102.118	0.201	0.048
-102.932	-71.686	0.162	0.060
-101.918	-137.111	0.256	-0.029
-100.903	711.303	-0.118	0.312
-99.889	296.913	0.104	0.190
-98.874	-200.000	-0.011	-0.177
-97.859	-64.223	-0.316	-0.129
-96.845	581.366	0.040	0.098
-95.830	-97.798	0.178	0.046
-94.816	-200.000	0.005	-0.147
-93.801	23.486	0.044	0.036
-92.786	-117.862	-0.196	-0.035
-91.772	-200.000	0.009	0.167
-90.757	198.485	-0.098	0.149
-89.743	-34.439	-0.064	-0.035
-88.728	-41.798	-0.262	0.134
-87.713	800.000	-0.070	0.203
-86.699	-121.576	0.192	-0.032
-85.684	-200.000	0.002	0.145
-84.670	-40.721	-0.156	-0.081
-83.655	133.347	0.071	-0.092
-82.640	-200.000	0.012	-0.150
-81.626	800.000	-0.131	-0.388
-80.611	-200.000	-0.054	-0.413
-79.597	461.260	0.105	-0.234
-78.582	-42.206	-0.230	0.117
-77.567	29.400	-0.220	0.186
-76.553	-74.900	-0.161	0.058
-75.538	-109.053	-0.289	-0.061
-74.524	745.606	-0.115	0.308
-73.509	-189.123	0.170	-0.002
-72.494	-26.439	0.305	0.179
-71.480	-96.718	0.153	0.040
-70.465	-60.184	-0.200	0.085
-69.451	536.094	-0.062	-0.146
-68.436	800.000	0.076	-0.275
-67.422	176.447	-0.089	-0.129
-66.407	339.704	0.123	0.239
-65.392	-46.032	-0.240	-0.118
-64.378	94.672	0.170	-0.193
-63.363	-200.000	-0.013	-0.265
-62.349	264.214	0.162	-0.280
-61.334	17.283	-0.773	-0.612
-60.319	-76.186	0.231	0.081
-59.305	800.000	-0.169	-0.582
-58.290	-37.852	0.528	0.280
-57.276	693.365	0.621	1.624
-56.261	-200.000	71.333	527.484
-55.246	609.197	1269.375	3160.265
-54.232	147.905	2489.873	3347.441
-53.217	123.677	2223.740	2781.976
-52.203	57.206	1668.370	1622.827
-51.188	48.369	1385.312	1292.949
-50.173	44.365	1336.625	1223.411
-49.159	61.837	1368.422	1358.835
-48.144	70.629	1387.612	1431.039
-47.130	48.513	1350.987	1261.585
-46.115	44.169	1335.006	1220.557
-45.100	43.994	1330.227	1215.091
-44.086	43.911	1327.700	1212.237
-43.071	43.855	1324.783	1209.192
-42.057	43.831	1322.949	1207.329
-41.042	43.813	1321.345	1205.712
-40.027	43.841	1319.893	1204.505
-39.013	43.942	1317.895	1203.230
-37.998	43.881	1316.250	1201.324
-36.984	43.926	1314.295	1199.756
-35.969	44.031	1312.385	1198.585
-34.954	44.070	1310.839	1197.358
-33.940	44.111	1309.675	1196.489
-32.925	44.068	1308.160	1194.801
-31.911	44.105	1306.629	1193.572
-30.896	44.083	1305.286	1192.169
-29.881	44.214	1303.572	1191.327
-28.867	44.069	1302.496	1189.445
-27.852	44.092	1300.786	1187.972
-26.838	44.144	1299.343	1186.912
-25.823	44.105	1297.873	1185.290
-24.809	44.117	1296.728	1184.271
-23.794	44.165	1294.815	1182.758
-22.779	44.093	1293.801	1181.366
-21.765	44.165	1292.600	1180.640
-20.750	44.098	1291.235	1178.955
-19.736	44.024	1289.675	1177.057
-18.721	43.904	1288.869	1175.574
-17.706	43.860	1287.348	1173.890
-16.692	43.972	1285.971	1173.233
-15.677	44.008	1284.714	1172.250
-14.663	43.877	1284.060	1170.847
-13.648	43.882	1283.316	1170.153
-12.633	43.923	1281.750	1168.917
-11.619	43.957	1281.232	1168.594
-10.604	43.896	1280.604	1167.618
-9.590	43.935	1279.191	1166.510
-8.575	43.853	1278.351	1165.225
-7.560	43.884	1277.413	1164.504
-6.546	43.871	1276.773	1163.799
-5.531	43.930	1275.374	1162.819
-4.517	44.018	1274.241	1162.244
-3.502	43.947	1273.543	1161.154
-2.487	43.996	1272.906	1160.809
-1.473	44.048	1268.699	1157.222
-0.458	42.879	1253.979	1137.149
0.556	37.882	1233.156	1092.659
1.571	33.259	1234.829	1068.026
2.586	31.805	1249.244	1072.082
3.600	30.075	1238.042	1052.559
4.615	21.273	1160.302	939.283
5.629	7.869	1075.167	803.063
6.644	1.678	1049.988	753.606
7.659	1.089	1046.950	748.455
8.673	0.934	1045.812	746.807
9.688	0.862	1044.221	745.254
10.702	1.262	1043.202	746.426
11.717	8.681	1054.412	791.160
12.731	19.592	1069.509	856.841
13.746	23.487	1073.940	879.675
14.761	23.601	1073.811	880.057
15.775	23.673	1073.278	879.900
16.790	23.335	1072.435	877.457
17.804	23.380	1071.474	876.818
18.819	23.381	1071.456	876.727
19.834	23.391	1070.917	876.259
20.848	23.497	1070.111	876.045
21.863	23.434	1070.160	875.698
22.877	23.390	1069.224	874.639
23.892	23.204	1068.674	873.191
24.907	23.395	1068.126	873.612
25.921	23.328	1066.944	872.234
26.936	23.361	1065.510	871.146
27.950	23.375	1063.630	869.602
28.965	23.299	1061.832	867.684
29.980	23.226	1060.814	866.415
30.994	23.392	1059.898	866.406
32.009	23.428	1058.565	865.412
33.023	23.308	1057.236	863.663
34.038	23.368	1056.754	863.486
35.053	23.458	1055.900	863.154
36.067	23.506	1055.036	862.601
37.082	23.544	1054.059	861.912
38.096	23.746	1053.777	862.587
39.111	23.730	1053.352	862.084
40.126	23.641	1051.531	860.086
41.140	23.253	1050.084	856.952
42.155	23.098	1048.323	854.687
43.169	23.182	1047.429	854.290
44.184	23.242	1046.315	853.597
45.199	23.082	1045.600	852.163
46.213	23.147	1044.579	851.567
47.228	23.256	1044.098	851.628
48.242	23.338	1043.033	851.077
49.257	23.315	1042.469	850.429
50.271	23.468	1041.740	850.496
51.286	23.495	1040.923	849.883
52.301	23.623	1039.833	849.530
53.315	23.537	1038.645	848.072
54.330	23.383	1037.776	846.553
55.344	23.383	1037.305	846.094
56.359	23.435	1036.129	845.308
57.374	23.227	1035.165	843.457
58.388	23.262	1034.124	842.700
59.403	23.122	1033.399	841.368
60.417	22.928	1032.555	839.685
61.432	23.172	1031.837	840.184
62.447	23.280	1031.419	840.282
63.461	23.210	1030.615	839.221
64.476	23.098	1029.582	837.774
65.490	23.101	1028.344	836.706
66.505	23.080	1028.005	836.261
67.520	23.192	1027.497	836.301
68.534	22.935	1026.520	834.218
69.549	22.731	1025.567	832.406
70.563	22.781	1024.077	831.363
71.578	22.753	1023.452	830.646
72.593	22.637	1022.515	829.269
73.607	22.674	1022.355	829.240
74.622	22.897	1022.032	829.953
75.636	22.987	1021.156	829.589
76.651	22.922	1020.200	828.433
77.666	22.793	1019.131	826.887
78.680	22.854	1018.800	826.833
79.695	22.865	1018.125	826.264
80.709	23.133	1017.146	826.647
81.724	22.914	1016.167	824.758
82.739	23.163	1015.620	825.401
83.753	23.458	1014.938	826.147
84.768	23.687	1014.650	826.910
85.782	23.913	1013.166	826.674
86.797	23.789	1012.545	825.519
87.812	23.679	1011.227	823.862
88.826	23.710	1010.632	823.447
89.841	23.712	1009.850	822.748
90.855	23.782	1008.966	822.280
91.870	23.566	1008.359	820.714
92.884	23.709	1006.438	819.735
93.899	23.472	1005.790	818.043
94.914	23.755	1004.990	818.626
95.928	23.507	1004.003	816.606
96.943	23.121	1003.384	814.254
97.957	23.124	1001.399	812.584
98.972	22.980	1000.219	810.894
99.987	23.284	999.688	811.788
101.001	23.418	999.132	811.876
102.016	23.334	998.369	810.799
103.030	23.330	997.142	809.711
104.045	23.155	996.414	808.250
105.060	23.033	995.154	806.603
106.074	23.263	994.098	806.724
107.089	23.575	993.759	807.796
108.103	23.445	992.815	806.367
109.118	23.178	991.638	804.127
110.133	23.165	990.556	803.119
111.147	22.923	989.772	801.314
112.162	22.949	988.204	800.094
113.176	23.183	987.923	800.853
114.191	23.001	986.831	799.074
115.206	22.816	985.950	797.451
116.220	22.711	985.055	796.185
117.235	22.901	984.253	796.322
118.249	22.801	983.820	795.451
119.264	22.703	982.796	794.113
120.279	22.807	981.908	793.795
121.293	22.912	981.246	793.658
122.308	22.960	980.424	793.138
123.322	22.817	979.097	791.357
124.337	22.640	977.974	789.583
125.352	22.357	975.971	786.634
126.366	22.230	974.985	785.203
127.381	22.802	975.629	788.205
128.395	23.370	975.089	790.234
129.410	23.455	974.318	789.920
130.424	23.558	972.961	789.205
131.439	23.481	972.045	788.050
132.454	23.408	971.446	787.170
133.468	23.422	970.479	786.381
134.483	23.535	969.752	786.221
135.497	23.689	969.347	786.505
136.512	23.685	968.482	785.717
137.527	23.780	967.288	785.101
138.541	23.830	966.602	784.692
139.556	23.881	965.666	784.090
140.570	23.978	964.825	783.766
141.585	23.867	964.264	782.750
142.600	23.678	963.371	781.125
143.614	23.925	962.658	781.562
144.629	24.141	961.803	781.750
145.643	23.848	960.509	779.343
146.658	23.747	959.325	777.870
147.673	23.641	958.193	776.421
148.687	23.603	956.939	775.170
149.702	23.477	956.140	773.905
150.716	23.466	955.393	773.182
151.731	23.653	954.545	773.245
152.746	23.747	954.370	773.442
153.760	23.849	953.718	773.291
154.775	23.882	953.304	773.029
155.789	23.786	951.904	771.410
156.804	23.795	951.157	770.776
157.819	23.885	950.362	770.449
158.833	24.015	949.582	770.314
159.848	23.983	948.595	769.307
160.862	23.722	947.844	767.501
161.877	23.807	946.440	766.665
162.892	23.812	945.607	765.942
163.906	23.852	944.476	765.133
164.921	23.722	943.681	763.861
165.935	23.913	942.559	763.706
166.950	23.914	941.530	762.809
167.964	23.774	941.106	761.797
168.979	23.656	939.695	760.081
169.994	23.576	938.887	759.017
171.008	23.898	938.273	759.831
172.023	23.924	937.670	759.386
173.037	23.708	936.680	757.596
174.052	23.565	935.538	755.998
175.067	23.506	935.332	755.513
176.081	23.631	934.783	755.532
177.096	23.625	934.059	754.857
178.110	23.290	933.235	752.701
179.125	23.127	932.386	751.259
180.140	23.154	931.769	750.808
181.154	23.293	931.914	751.448
182.169	23.595	931.644	752.444
183.183	23.886	930.942	753.044
184.198	23.604	930.059	751.071
185.213	23.632	929.393	750.584
186.227	23.792	928.662	750.602
187.242	23.886	927.586	750.062
188.256	23.859	927.229	749.593
189.271	23.899	926.705	749.271
190.286	23.645	925.499	747.161
191.300	23.135	923.972	743.719
192.315	22.251	922.339	738.631
193.329	22.261	921.817	738.187
194.344	23.041	922.724	742.122
195.359	23.520	922.805	744.135
196.373	23.741	922.105	744.429
197.388	23.603	921.442	743.252
198.402	23.630	921.078	743.005
199.417	23.676	920.147	742.382
200.432	23.463	918.966	740.471
201.446	23.322	918.536	739.470
202.461	23.378	917.911	739.135
203.475	22.444	916.406	733.968
204.490	21.748	914.577	729.542
205.504	22.570	914.975	733.215
206.519	23.263	914.792	735.885
207.534	23.310	914.529	735.805
208.548	23.687	914.478	737.262
209.563	23.431	913.440	735.302
210.577	23.449	912.872	734.852
211.592	23.975	912.083	736.329
212.607	23.842	911.516	735.259
213.621	23.934	910.795	734.989
214.636	23.911	910.201	734.353
215.650	23.891	909.111	733.323
216.665	24.043	908.628	733.495
217.680	23.742	908.461	732.056
218.694	23.488	906.746	729.565
219.709	23.292	906.313	728.346
220.723	23.757	905.804	729.781
221.738	23.715	905.215	729.071
222.753	23.550	904.837	728.026
223.767	23.686	904.303	728.089
224.782	23.964	903.953	728.882
225.796	24.110	902.856	728.528
226.811	23.339	901.737	724.411
227.826	22.712	900.665	720.926
228.840	22.844	899.842	720.741
229.855	23.051	899.340	721.118
230.869	22.615	898.175	718.347
231.884	22.862	898.542	719.583
232.899	23.698	898.740	723.083
233.913	23.696	897.630	722.115
234.928	23.610	897.223	721.378
235.942	23.556	896.836	720.781
236.957	23.335	896.054	719.192
237.972	23.228	895.709	718.418
238.986	23.334	894.976	718.197
240.001	23.287	894.315	717.414
241.015	23.511	893.806	717.847
242.030	23.622	893.172	717.724
243.045	23.666	892.875	717.600
244.059	23.856	892.086	717.669
245.074	23.641	891.245	716.061
246.088	23.344	890.134	713.907
247.103	23.579	890.094	714.759
248.117	24.150	890.181	717.067
249.132	24.292	889.788	717.256
250.147	24.476	888.729	717.078
251.161	24.529	889.006	717.453
252.176	24.637	887.823	716.865
253.190	24.687	887.665	716.879
254.205	24.808	887.190	716.913
255.220	24.787	886.392	716.120
256.234	24.619	885.593	714.743
257.249	24.556	884.743	713.738
258.263	24.460	884.136	712.804
259.278	24.657	883.484	713.001
260.293	24.720	882.826	712.660
261.307	24.554	882.301	711.511
262.322	24.338	881.559	709.991
263.336	23.651	879.901	705.859
264.351	22.669	877.582	700.041
265.366	22.688	877.122	699.687
266.380	23.792	877.746	704.506
267.395	24.199	877.677	706.000
268.409	24.161	877.253	705.445
269.424	24.461	876.009	705.570
270.439	24.353	875.702	704.830
271.453	24.492	875.384	705.062
272.468	24.692	874.908	705.405
273.482	24.761	874.386	705.194
274.497	24.356	873.388	702.732
275.512	23.972	872.315	700.297
276.526	24.302	872.696	701.837
277.541	24.568	872.198	702.424
278.555	24.298	871.484	700.723
279.570	24.125	870.557	699.236
280.585	24.429	869.888	699.830
281.599	24.180	869.255	698.286
282.614	23.700	867.623	695.032
283.628	23.544	867.653	694.385
284.643	24.019	867.254	695.864
285.657	23.659	866.182	693.534
286.672	23.364	864.915	691.308
287.687	23.918	864.897	693.392
288.701	24.087	864.563	693.724
289.716	23.691	863.724	691.446
290.730	23.736	862.781	690.806
291.745	23.437	862.211	689.124
292.760	23.613	862.355	689.864
293.774	24.678	862.662	694.185
294.789	25.126	861.941	695.280
295.803	25.096	861.629	694.854
296.818	25.134	861.006	694.436
297.833	24.505	859.632	690.832
298.847	24.428	858.850	689.845
299.862	24.685	859.004	690.903
300.876	24.844	858.842	691.323
301.891	24.908	857.896	690.749
302.906	24.515	856.795	688.286
303.920	24.608	856.396	688.263
304.935	25.050	856.155	689.710
305.949	24.935	855.643	688.796
306.964	24.646	854.825	686.965
307.979	24.641	854.537	686.654
308.993	25.201	854.354	688.595
310.008	25.043	853.873	687.540
311.022	24.830	852.932	685.905
312.037	24.650	851.895	684.321
313.052	24.513	850.935	682.969
314.066	23.667	849.695	678.678
315.081	23.275	848.951	676.527
316.095	24.044	849.303	679.686
317.110	24.689	848.937	681.793
318.125	23.974	847.610	677.944
319.139	22.842	846.000	672.287
320.154	22.710	845.813	671.580
321.168	23.656	846.282	675.492
322.183	24.292	846.117	677.719
323.197	24.502	845.904	678.285
324.212	24.579	845.828	678.459
325.227	24.752	845.195	678.547
326.241	24.584	844.182	677.039
327.256	24.546	843.681	676.433
328.270	24.452	843.014	675.482
329.285	24.161	842.144	673.623
330.300	24.171	841.130	672.790
331.314	24.341	841.096	673.348
332.329	24.576	841.510	674.504
333.343	24.889	840.402	674.738
334.358	24.827	839.891	674.035
335.373	24.906	840.298	674.600
336.387	25.060	840.059	674.928
337.402	25.274	839.764	675.437
338.416	25.303	839.169	675.006
339.431	25.401	838.756	674.982
340.446	25.594	838.369	675.335
341.460	25.421	837.861	674.219
342.475	25.143	837.597	672.904
343.489	25.089	837.504	672.567
344.504	25.351	837.048	673.123
345.519	25.604	836.469	673.546
346.533	25.664	836.149	673.454
347.548	25.550	835.587	672.514
348.562	25.631	834.803	672.126
349.577	25.578	834.109	671.309
350.592	25.608	833.339	670.744
351.606	25.608	832.755	670.213
352.621	25.439	832.104	669.002
353.635	25.382	831.502	668.246
354.650	24.757	830.206	664.824
355.665	23.836	828.421	659.916
356.679	24.082	828.444	660.790
357.694	24.627	827.878	662.299
358.708	24.423	827.619	661.279
359.723	25.076	826.886	663.050
360.738	25.185	826.608	663.173
361.752	25.371	826.356	663.601
362.767	25.778	825.930	664.700
363.781	25.887	825.641	664.813
364.796	25.883	825.444	664.581
365.810	25.968	824.941	664.428
366.825	25.775	824.806	663.552
367.840	25.888	823.488	662.847
368.854	25.390	822.497	660.162
369.869	25.350	822.573	660.016
370.883	25.237	822.183	659.228
371.898	25.331	821.395	658.886
372.913	25.435	821.216	659.063
373.927	25.423	820.903	658.710
374.942	25.693	820.117	659.009
375.956	25.545	820.114	658.410
376.971	25.916	819.420	659.149
377.986	26.080	819.183	659.502
379.000	25.947	818.882	658.713
380.015	25.863	818.064	657.689
381.029	25.849	817.462	657.098
382.044	25.896	817.244	657.037
383.059	25.775	817.005	656.344
384.073	25.921	816.346	656.287
385.088	25.986	815.471	655.763
386.102	25.732	814.705	654.166
387.117	25.630	814.172	653.310
388.132	25.230	813.064	650.913
389.146	24.820	812.068	648.571
390.161	25.254	811.969	650.007
391.175	25.612	812.326	651.534
392.190	25.358	810.964	649.463
393.205	24.107	808.825	643.177
394.219	22.686	807.259	636.750
395.234	22.400	807.146	635.571
396.248	23.963	808.169	641.968
397.263	25.629	808.708	648.347
398.278	25.521	808.565	647.786
399.292	25.239	807.904	646.184
400.307	25.257	807.463	645.840
401.321	25.418	807.254	646.193
402.336	25.738	806.875	646.985
403.350	26.218	806.752	648.553
404.365	26.355	806.948	649.143
405.380	26.579	806.563	649.580
406.394	26.789	805.915	649.754
407.409	26.647	805.359	648.739
408.423	26.731	804.665	648.423
409.438	26.731	804.496	648.230
410.453	26.815	804.090	648.145
411.467	26.552	803.736	646.862
412.482	26.547	803.385	646.506
413.496	26.819	802.604	646.789
414.511	26.680	802.491	646.148
415.526	26.827	802.078	646.280
416.540	26.588	801.081	644.569
417.555	26.369	800.587	643.334
418.569	26.377	800.281	643.062
419.584	26.310	800.133	642.647
420.599	26.075	799.532	641.274
421.613	83.717	1239.470	1299.376
422.628	71.268	1303.586	1299.487
