DTS Sentinel unit serial number:	SN413079Multiplexer serial number:	ORYXHardware model number:	OX4-SRSoftware version number:	ORYX F/W v4.00 Oryx Data Collector v3.7.2.0data status	okinstallation	princeton_trtdifferential loss correction	single-endedforward channel	channel 1reverse channel	N/Adate	2019/09/13time	06:26:36forward acquisition time	60.00reverse acquisition time	0.00gamma	496.2192k internal	0.2335k external	0.2335temperature offset calibration	1.0164default loss term (dB/km)	0.3790temperature slope calibration	1.0000multiplexer offset coefficient	1.0000multiplexer slope coefficient	1.0000fibre end	0.00T internal ref (°C)	26.06T ext. ref 1 (°C)	4.09T ext. ref 2 (°C)	20.66length (m)	temperature (°C)	Stokes	anti-Stokes-747.200	-113.264	0.264	0.052
-746.185	-80.546	-0.167	0.056
-745.171	30.623	-0.126	0.108
-744.156	58.237	-0.268	0.264
-743.142	-200.000	-0.010	0.544
-742.127	-124.447	-0.054	-0.009
-741.112	19.464	0.257	-0.208
-740.098	-200.000	-0.043	0.423
-739.083	-63.392	0.482	0.199
-738.069	-127.245	-0.169	0.025
-737.054	338.987	0.077	0.150
-736.039	-43.321	-0.320	-0.162
-735.025	800.000	0.038	0.135
-734.010	392.554	0.017	0.035
-732.996	3.405	-0.445	-0.325
-731.981	50.628	-0.212	-0.201
-730.966	-113.735	-0.208	0.041
-729.952	98.719	-0.130	0.150
-728.937	-200.000	0.020	0.136
-727.923	-17.713	-0.337	0.213
-726.908	-68.287	-0.077	-0.030
-725.894	-200.000	-0.054	-0.292
-724.879	-200.000	-0.043	0.276
-723.864	348.331	0.015	0.029
-722.850	128.826	-0.059	-0.076
-721.835	119.775	-0.086	0.106
-720.821	-69.864	0.235	-0.090
-719.806	-200.000	-0.008	-0.135
-718.791	421.807	-0.110	-0.236
-717.777	-200.000	0.012	0.102
-716.762	-200.000	0.040	-0.179
-715.748	28.112	-0.209	-0.177
-714.733	-200.000	-0.067	-0.000
-713.718	-28.177	-0.522	0.303
-712.704	-200.000	-0.070	-0.383
-711.689	302.476	-0.169	0.315
-710.675	-200.000	-0.051	-0.251
-709.660	800.000	0.060	-0.213
-708.645	-56.603	0.146	-0.065
-707.631	-161.423	-0.348	-0.018
-706.616	94.721	-0.185	0.211
-705.602	776.203	0.083	0.228
-704.587	-160.583	0.287	-0.015
-703.572	-71.337	-0.115	-0.043
-702.558	137.989	-0.087	-0.114
-701.543	-200.000	-0.029	0.199
-700.529	800.000	0.004	0.014
-699.514	-189.621	-0.215	0.002
-698.499	311.345	-0.102	-0.192
-697.485	-71.906	-0.428	-0.160
-696.470	-47.349	0.105	0.051
-695.456	15.446	-0.233	0.183
-694.441	-29.432	0.196	-0.112
-693.426	268.944	-0.166	-0.291
-692.412	113.524	0.120	-0.147
-691.397	57.996	-0.133	0.131
-690.383	112.921	-0.205	-0.249
-689.368	800.000	0.043	-0.165
-688.354	-200.000	-0.014	-0.111
-687.339	-3.456	-0.341	-0.238
-686.324	800.000	0.018	0.056
-685.310	800.000	0.019	0.073
-684.295	-113.409	-0.305	-0.060
-683.281	-92.919	-0.185	-0.052
-682.266	-123.710	-0.349	0.055
-681.251	277.725	-0.057	-0.102
-680.237	-200.000	0.053	-0.240
-679.222	-18.972	-0.171	-0.106
-678.208	274.292	-0.030	0.054
-677.193	800.000	0.054	0.164
-676.178	-66.302	-0.209	0.083
-675.164	4.951	0.112	-0.082
-674.149	-17.897	0.062	-0.039
-673.135	-98.601	-0.224	0.057
-672.120	184.506	-0.129	-0.192
-671.105	800.000	-0.045	0.187
-670.091	-3.532	-0.088	0.062
-669.076	-200.000	-0.045	0.360
-668.062	-107.512	0.234	-0.051
-667.047	222.567	-0.120	0.194
-666.032	-67.248	-0.153	-0.060
-665.018	-70.853	-0.173	0.065
-664.003	-200.000	0.079	0.354
-662.989	156.524	-0.085	0.117
-661.974	-200.000	-0.050	-0.243
-660.959	150.470	-0.147	-0.200
-659.945	71.372	-0.036	-0.037
-658.930	-91.160	0.139	-0.040
-657.916	-84.486	0.072	-0.023
-656.901	-200.000	0.043	-0.326
-655.886	-120.088	-0.280	-0.048
-654.872	-42.665	0.082	0.042
-653.857	-200.000	0.002	-0.137
-652.843	800.000	0.009	-0.038
-651.828	-75.785	-0.057	0.020
-650.814	134.578	-0.083	-0.107
-649.799	21.161	0.111	-0.090
-648.784	34.669	-0.181	0.158
-647.770	800.000	0.069	-0.198
-646.755	-200.000	-0.033	0.149
-645.741	66.933	0.187	-0.191
-644.726	25.763	0.084	-0.070
-643.711	-106.239	0.145	0.033
-642.697	9.398	0.453	0.343
-641.682	7.176	0.346	-0.259
-640.668	800.000	0.052	0.171
-639.653	-60.963	-0.127	0.054
-638.638	82.508	-0.250	0.272
-637.624	76.861	-0.070	-0.075
-636.609	800.000	-0.029	0.114
-635.595	44.106	-0.174	-0.159
-634.580	-66.029	0.186	0.074
-633.565	-154.035	-0.449	0.031
-632.551	30.838	-0.146	-0.125
-631.536	-200.000	0.035	-0.314
-630.522	-27.609	-0.181	0.105
-629.507	-85.751	-0.260	0.081
-628.492	-36.389	0.226	0.122
-627.478	-200.000	0.023	0.372
-626.463	-54.352	-0.174	-0.079
-625.449	-0.227	-0.104	0.074
-624.434	5.637	-0.105	-0.078
-623.419	703.010	-0.045	0.117
-622.405	800.000	0.120	0.416
-621.390	14.999	0.170	-0.133
-620.376	199.308	0.223	-0.341
-619.361	-12.996	-0.100	-0.065
-618.346	-158.537	0.330	-0.019
-617.332	104.593	0.125	0.147
-616.317	-15.997	-0.112	0.071
-615.303	-110.514	-0.334	0.069
-614.288	-200.000	0.063	-0.554
-613.273	-200.000	0.020	0.131
-612.259	800.000	0.151	-0.485
-611.244	246.950	-0.054	0.091
-610.230	-200.000	-0.000	-0.122
-609.215	33.286	-0.099	-0.086
-608.201	-131.823	0.270	0.035
-607.186	-72.899	-0.119	-0.044
-606.171	800.000	-0.061	-0.225
-605.157	153.732	-0.026	0.036
-604.142	-19.956	-0.043	0.026
-603.128	59.265	0.219	-0.215
-602.113	-200.000	-0.001	0.084
-601.098	-79.170	0.252	-0.086
-600.084	800.000	-0.059	0.188
-599.069	4.670	-0.115	0.084
-598.055	-56.346	0.431	-0.191
-597.040	-200.000	-0.005	-0.044
-596.025	-103.101	-0.221	0.052
-595.011	218.278	0.172	-0.274
-593.996	668.305	0.191	0.494
-592.982	-200.000	-0.036	0.172
-591.967	-200.000	-0.002	0.184
-590.952	-200.000	-0.027	-0.377
-589.938	94.381	-0.238	-0.270
-588.923	800.000	0.071	-0.305
-587.909	22.180	0.047	0.038
-586.894	33.313	-0.169	-0.146
-585.879	800.000	0.025	-0.109
-584.865	302.318	-0.097	-0.178
-583.850	-41.104	-0.194	-0.100
-582.836	168.320	0.074	-0.105
-581.821	-38.576	0.172	-0.091
-580.806	-200.000	0.029	0.174
-579.792	-144.975	0.224	-0.020
-578.777	-200.000	-0.022	0.377
-577.763	171.252	-0.145	-0.207
-576.748	271.908	0.200	-0.352
-575.733	-200.000	-0.070	-0.363
-574.719	781.122	-0.052	-0.143
-573.704	800.000	0.062	-0.197
-572.690	-170.978	0.168	0.006
-571.675	-200.000	0.034	0.214
-570.661	28.437	0.143	0.120
-569.646	271.468	-0.062	-0.109
-568.631	-106.474	0.260	-0.058
-567.617	-46.895	0.383	-0.187
-566.602	7.356	-0.172	-0.128
-565.588	-57.895	-0.082	-0.036
-564.573	-200.000	-0.030	-0.331
-563.558	800.000	-0.023	0.094
-562.544	374.307	0.046	0.093
-561.529	260.081	-0.127	-0.219
-560.515	-23.795	-0.058	0.035
-559.500	-200.000	-0.014	-0.073
-558.485	340.719	0.019	-0.036
-557.471	-102.451	-0.564	0.135
-556.456	411.924	0.100	-0.212
-555.442	57.226	0.216	0.210
-554.427	-41.639	0.181	0.093
-553.412	2.786	-0.086	0.062
-552.398	-200.000	-0.325	0.001
-551.383	-200.000	-0.003	0.174
-550.369	-137.563	-0.156	-0.018
-549.354	-192.647	0.247	-0.002
-548.339	132.180	0.136	0.174
-547.325	157.466	-0.091	0.125
-546.310	-23.848	0.209	0.125
-545.296	39.104	-0.172	0.153
-544.281	20.507	-0.034	0.027
-543.266	316.256	0.092	-0.174
-542.252	-75.375	-0.341	-0.121
-541.237	144.607	0.094	0.126
-540.223	41.830	-0.406	0.367
-539.208	504.468	-0.095	0.220
-538.193	519.113	0.055	-0.128
-537.179	138.537	-0.157	-0.205
-536.164	148.357	0.211	0.284
-535.150	356.574	-0.026	0.052
-534.135	-83.400	0.134	-0.043
-533.121	-200.000	-0.024	-0.184
-532.106	-200.000	-0.030	0.211
-531.091	13.941	0.086	-0.067
-530.077	-105.901	0.281	0.063
-529.062	-76.808	0.210	-0.073
-528.048	28.701	0.219	-0.184
-527.033	-130.127	0.128	0.017
-526.018	-119.733	0.101	-0.017
-525.004	64.157	0.418	0.419
-523.989	-172.685	-0.454	0.014
-522.975	-72.665	0.257	0.094
-521.960	381.088	-0.086	-0.175
-520.945	-73.776	-0.101	0.037
-519.931	-37.195	-0.225	0.120
-518.916	59.943	-0.126	-0.124
-517.902	-48.951	0.182	-0.087
-516.887	-200.000	-0.074	-0.494
-515.872	12.014	0.076	0.058
-514.858	417.674	-0.189	-0.402
-513.843	-100.743	-0.156	0.038
-512.829	-87.877	0.174	0.052
-511.814	-124.205	0.187	0.029
-510.799	367.116	-0.099	0.200
-509.785	15.487	0.148	-0.116
-508.770	42.673	-0.190	-0.172
-507.756	-90.248	-0.152	-0.044
-506.741	800.000	-0.042	-0.158
-505.726	6.101	-0.392	0.289
-504.712	-200.000	-0.017	0.134
-503.697	-108.876	-0.286	-0.061
-502.683	117.024	0.123	-0.150
-501.668	-83.246	0.275	-0.088
-500.653	-70.722	-0.104	0.039
-499.639	-200.000	-0.026	-0.225
-498.624	-108.047	-0.322	-0.070
-497.610	-154.507	0.452	-0.030
-496.595	334.915	0.170	-0.327
-495.581	800.000	0.156	0.480
-494.566	-100.763	0.073	-0.018
-493.551	-14.622	0.317	0.203
-492.537	219.957	0.104	-0.166
-491.522	-29.861	0.052	0.030
-490.508	-200.000	-0.075	0.376
-489.493	-76.961	0.315	0.109
-488.478	800.000	0.078	-0.330
-487.464	-15.054	-0.082	-0.052
-486.449	36.017	-0.073	0.064
-485.435	-2.557	0.133	0.092
-484.420	800.000	-0.043	-0.117
-483.405	-123.984	-0.317	0.050
-482.391	532.620	-0.112	0.263
-481.376	-139.051	-0.132	-0.014
-480.362	-200.000	-0.022	0.157
-479.347	-200.000	0.027	0.245
-478.332	800.000	-0.080	-0.253
-477.318	139.715	-0.155	0.203
-476.303	-178.443	0.349	-0.008
-475.289	-200.000	-0.026	-0.190
-474.274	-134.920	0.426	0.051
-473.259	501.695	-0.074	0.170
-472.245	-138.747	-0.191	0.021
-471.230	433.790	0.068	-0.146
-470.216	800.000	-0.079	0.238
-469.201	-200.000	0.002	-0.143
-468.186	585.142	-0.033	-0.079
-467.172	-13.522	0.055	0.036
-466.157	-140.467	0.147	0.015
-465.143	-139.892	-0.133	-0.014
-464.128	-200.000	0.288	-0.001
-463.113	52.248	0.234	-0.222
-462.099	-177.059	-0.344	0.009
-461.084	-58.084	0.146	-0.063
-460.070	12.322	-0.081	-0.062
-459.055	94.379	0.115	-0.130
-458.040	-107.375	-0.236	-0.051
-457.026	154.696	0.111	0.151
-456.011	-200.000	-0.034	-0.372
-454.997	6.822	0.403	-0.298
-453.982	800.000	-0.064	0.207
-452.968	-200.000	-0.198	0.001
-451.953	-200.000	0.005	0.086
-450.938	-200.000	0.020	0.125
-449.924	466.952	0.055	-0.122
-448.909	14.954	-0.228	-0.178
-447.895	-46.835	-0.331	-0.161
-446.880	-200.000	0.021	-0.101
-445.865	-200.000	-0.014	-0.120
-444.851	-106.447	0.183	-0.041
-443.836	110.734	-0.158	0.188
-442.822	-183.936	0.441	0.007
-441.807	-53.508	0.464	0.211
-440.792	210.217	-0.156	-0.243
-439.778	146.653	0.101	-0.134
-438.763	202.664	0.178	0.272
-437.749	-143.635	0.187	0.018
-436.734	-34.815	-0.361	-0.196
-435.719	-45.029	-0.232	0.114
-434.705	-98.962	-0.263	0.066
-433.690	-86.292	-0.143	-0.044
-432.676	-200.000	0.006	-0.078
-431.661	18.782	-0.104	0.083
-430.646	-52.775	-0.128	-0.059
-429.632	800.000	-0.043	0.165
-428.617	-26.775	0.317	-0.184
-427.603	25.259	-0.216	0.178
-426.588	52.319	0.312	0.296
-425.573	800.000	-0.030	-0.094
-424.559	-64.053	0.121	0.049
-423.544	-177.141	0.556	0.014
-422.530	192.971	0.023	-0.035
-421.515	-114.568	-0.308	0.059
-420.500	774.950	-0.189	-0.510
-419.486	-131.466	-0.225	-0.029
-418.471	775.267	0.071	-0.193
-417.457	-1.312	0.329	0.231
-416.442	-200.000	0.065	0.426
-415.428	-200.000	0.065	0.413
-414.413	136.699	0.142	-0.183
-413.398	800.000	0.024	-0.099
-412.384	552.330	0.069	0.163
-411.369	22.453	0.383	-0.310
-410.355	-157.681	0.155	0.009
-409.340	-40.813	0.253	0.130
-408.325	636.973	-0.084	0.212
-407.311	55.121	-0.087	0.083
-406.296	730.165	-0.026	0.069
-405.282	-89.136	0.086	-0.025
-404.267	-136.090	0.098	-0.011
-403.252	800.000	0.106	0.371
-402.238	-83.139	0.162	0.052
-401.223	800.000	0.085	0.349
-400.209	370.378	0.090	-0.181
-399.194	309.256	-0.181	0.335
-398.179	800.000	0.035	0.099
-397.165	-44.761	0.411	-0.203
-396.150	11.069	-0.313	0.237
-395.136	-152.416	0.230	-0.016
-394.121	-40.341	-0.247	-0.127
-393.106	47.410	0.310	-0.286
-392.092	-67.867	0.238	-0.092
-391.077	486.093	-0.148	-0.333
-390.063	800.000	-0.123	0.362
-389.048	-13.863	0.168	-0.108
-388.033	800.000	-0.070	0.259
-387.019	35.203	-0.093	0.081
-386.004	26.384	-0.198	0.164
-384.990	-107.813	-0.263	-0.057
-383.975	91.876	0.192	0.214
-382.960	330.921	0.089	-0.169
-381.946	-200.000	0.006	-0.126
-380.931	76.894	-0.059	0.062
-379.917	54.099	0.121	0.115
-378.902	-200.000	-0.001	-0.132
-377.888	50.381	-0.222	0.208
-376.873	228.103	0.163	0.263
-375.858	800.000	-0.088	0.277
-374.844	800.000	0.060	0.199
-373.829	-44.155	0.141	0.070
-372.815	-90.833	-0.226	-0.064
-371.800	-200.000	0.189	0.001
-370.785	75.293	-0.225	-0.235
-369.771	314.092	-0.133	-0.248
-368.756	71.230	-0.163	0.168
-367.742	800.000	0.054	-0.163
-366.727	-200.000	0.025	-0.212
-365.712	483.188	0.139	-0.312
-364.698	108.948	0.284	0.337
-363.683	-155.607	-0.158	0.010
-362.669	-200.000	-0.018	-0.181
-361.654	-110.011	-0.552	-0.114
-360.639	-134.065	0.185	0.023
-359.625	800.000	0.056	-0.193
-358.610	-120.020	0.398	0.068
-357.596	162.588	-0.036	0.050
-356.581	219.250	-0.067	-0.105
-355.566	-176.999	-0.080	-0.002
-354.552	-200.000	0.032	0.246
-353.537	82.989	0.051	-0.055
-352.523	-97.544	0.194	-0.050
-351.508	48.734	-0.114	0.106
-350.493	238.304	-0.235	-0.387
-349.479	-22.458	0.367	0.219
-348.464	161.538	-0.045	0.063
-347.450	-111.703	-0.426	-0.085
-346.435	8.657	-0.077	-0.057
-345.420	800.000	0.048	0.160
-344.406	144.436	-0.085	-0.112
-343.391	451.112	0.093	-0.203
-342.377	800.000	-0.054	-0.159
-341.362	90.460	-0.113	-0.125
-340.348	60.182	-0.321	-0.314
-339.333	371.956	0.048	0.097
-338.318	800.000	0.024	0.092
-337.304	800.000	-0.040	0.148
-336.289	547.703	-0.079	-0.188
-335.275	-200.000	0.052	-0.229
-334.260	580.091	0.075	-0.181
-333.245	-147.238	-0.255	0.021
-332.231	145.209	0.142	-0.188
-331.216	800.000	0.065	0.211
-330.202	747.377	0.067	-0.179
-329.187	-90.999	-0.108	-0.031
-328.172	-60.083	0.169	-0.071
-327.158	-200.000	0.018	-0.196
-326.143	-200.000	-0.003	-0.061
-325.129	800.000	-0.071	0.253
-324.114	244.811	-0.192	0.319
-323.099	-98.637	0.215	0.054
-322.085	-77.122	0.099	0.034
-321.070	-149.588	0.033	-0.003
-320.056	-63.974	-0.204	0.082
-319.041	301.641	0.128	0.234
-318.026	800.000	0.062	-0.180
-317.012	-24.344	-0.192	-0.113
-315.997	188.653	-0.081	-0.120
-314.983	-80.361	-0.153	0.050
-313.968	-10.404	-0.207	-0.136
-312.953	-43.805	-0.090	-0.045
-311.939	-200.000	0.024	0.329
-310.924	688.056	0.098	0.252
-309.910	-181.906	-0.061	0.001
-308.895	-36.956	0.184	0.097
-307.880	41.037	0.089	-0.079
-306.866	152.723	0.109	0.146
-305.851	739.540	-0.110	0.293
-304.837	-23.181	0.048	-0.028
-303.822	-200.000	-0.110	0.611
-302.807	126.382	0.144	-0.179
-301.793	-56.346	-0.037	-0.016
-300.778	43.733	0.243	0.219
-299.764	-18.478	0.122	-0.075
-298.749	-200.000	0.016	0.296
-297.735	77.853	-0.098	0.103
-296.720	393.094	0.034	-0.070
-295.705	667.457	0.019	-0.048
-294.691	-10.580	-0.395	-0.258
-293.676	174.601	0.094	0.134
-292.662	800.000	0.113	0.376
-291.647	-37.477	-0.173	0.091
-290.632	-155.091	-0.123	0.008
-289.618	800.000	-0.035	0.128
-288.603	-39.155	-0.179	0.093
-287.589	800.000	-0.115	-0.313
-286.574	164.297	0.026	-0.036
-285.559	-42.020	-0.220	-0.111
-284.545	800.000	-0.067	0.188
-283.530	22.033	0.317	-0.255
-282.516	132.988	-0.075	-0.096
-281.501	-115.428	-0.224	-0.042
-280.486	-146.092	0.200	-0.017
-279.472	-7.098	0.262	-0.175
-278.457	800.000	-0.075	-0.228
-277.443	800.000	-0.116	-0.371
-276.428	-69.763	-0.196	-0.074
-275.413	178.400	0.107	0.154
-274.399	-176.258	-0.071	-0.002
-273.384	-50.140	-0.346	0.161
-272.370	30.882	-0.087	0.073
-271.355	-200.000	0.022	-0.130
-270.340	-162.618	0.255	-0.012
-269.326	-12.844	0.123	-0.079
-268.311	-95.533	0.210	-0.056
-267.297	-137.992	-0.314	-0.034
-266.282	177.340	0.160	-0.230
-265.267	800.000	0.068	-0.187
-264.253	-200.000	-0.001	-0.063
-263.238	-178.744	0.074	-0.002
-262.224	-142.295	-0.240	-0.023
-261.209	254.754	0.114	0.192
-260.195	-118.531	0.268	-0.047
-259.180	800.000	-0.017	-0.070
-258.165	-58.454	-0.102	0.044
-257.151	430.517	0.068	0.144
-256.136	293.426	0.087	-0.156
-255.122	-200.000	-0.012	0.583
-254.107	740.747	-0.124	-0.328
-253.092	-61.108	-0.344	-0.143
-252.078	-146.941	0.313	0.027
-251.063	-52.928	0.082	0.037
-250.049	-15.639	-0.203	0.128
-249.034	387.942	0.042	0.087
-248.019	-131.872	0.107	0.014
-247.005	-200.000	-0.039	0.181
-245.990	53.483	-0.179	0.169
-244.976	395.928	0.087	0.179
-243.961	800.000	0.039	0.131
-242.946	245.511	-0.209	0.346
-241.932	-200.000	-0.007	-0.124
-240.917	100.499	0.021	-0.024
-239.903	-55.497	-0.121	-0.053
-238.888	-200.000	0.011	-0.235
-237.873	-200.000	0.031	0.225
-236.859	-130.213	-0.206	0.028
-235.844	158.578	0.148	0.203
-234.830	433.960	-0.074	0.159
-233.815	-200.000	-0.007	-0.107
-232.800	-119.196	-0.189	-0.032
-231.786	328.306	-0.097	0.184
-230.771	308.751	0.099	-0.182
-229.757	173.359	-0.083	0.118
-228.742	18.988	0.233	-0.184
-227.727	-140.915	-0.447	-0.045
-226.713	36.629	0.168	-0.146
-225.698	-200.000	-0.006	0.079
-224.684	91.801	0.133	-0.147
-223.669	-200.000	0.019	0.333
-222.655	137.321	-0.132	-0.170
-221.640	-126.937	-0.420	0.061
-220.625	-7.011	-0.112	0.075
-219.611	531.199	-0.175	-0.407
-218.596	45.178	-0.091	-0.083
-217.582	-200.000	-0.025	-0.239
-216.567	-79.954	-0.271	-0.090
-215.552	-84.810	0.252	0.078
-214.538	800.000	0.054	0.198
-213.523	97.727	-0.284	0.322
-212.509	-200.000	-0.070	0.376
-211.494	303.285	-0.174	-0.317
-210.479	-187.634	-0.174	-0.002
-209.465	800.000	-0.021	-0.065
-208.450	658.454	-0.060	0.152
-207.436	47.476	-0.205	-0.188
-206.421	48.692	-0.352	-0.325
-205.406	114.047	0.166	0.198
-204.392	800.000	0.053	-0.165
-203.377	-0.034	0.225	-0.158
-202.363	-130.875	-0.050	-0.007
-201.348	-127.256	-0.236	-0.034
-200.333	-54.521	0.090	-0.040
-199.319	129.834	-0.209	0.263
-198.304	180.161	-0.098	-0.142
-197.290	-122.162	0.304	-0.049
-196.275	35.819	0.255	0.220
-195.260	147.716	-0.237	-0.314
-194.246	-116.690	-0.029	0.005
-193.231	680.314	0.038	0.098
-192.217	-47.768	0.334	0.159
-191.202	-49.659	-0.211	0.099
-190.187	-178.122	0.094	0.002
-189.173	-200.000	-0.027	-0.199
-188.158	1.244	-0.120	-0.085
-187.144	-200.000	-0.024	0.148
-186.129	-200.000	0.041	0.267
-185.114	-73.529	-0.244	0.088
-184.100	-163.914	-0.088	-0.004
-183.085	-200.000	0.018	-0.117
-182.071	108.503	0.123	-0.144
-181.056	332.671	-0.124	-0.234
-180.042	-132.852	-0.355	-0.044
-179.027	372.274	0.092	0.183
-178.012	-117.186	-0.280	0.050
-176.998	-83.374	0.279	-0.088
-175.983	131.987	0.061	-0.078
-174.969	-50.640	0.014	0.006
-173.954	800.000	-0.092	0.341
-172.939	-200.000	-0.017	0.140
-171.925	-119.609	-0.241	0.041
-170.910	-92.551	0.176	0.048
-169.896	397.881	0.108	0.223
-168.881	-200.000	0.020	0.125
-167.866	137.379	-0.038	-0.048
-166.852	-89.239	0.526	-0.152
-165.837	-50.470	0.106	-0.049
-164.823	111.969	-0.142	0.169
-163.808	209.680	-0.177	-0.273
-162.793	-1.294	-0.059	-0.041
-161.779	33.383	0.122	0.104
-160.764	-66.196	-0.237	-0.093
-159.750	-144.096	0.186	-0.017
-158.735	-155.305	-0.067	0.004
-157.720	23.126	0.070	0.056
-156.706	335.343	0.078	-0.148
-155.691	800.000	0.021	-0.085
-154.677	287.132	0.103	0.183
-153.662	-200.000	0.022	0.254
-152.647	-200.000	0.299	0.000
-151.633	777.328	-0.114	0.305
-150.618	-26.490	-0.071	-0.041
-149.604	35.752	-0.083	-0.072
-148.589	-200.000	0.012	0.115
-147.574	-32.104	-0.119	-0.065
-146.560	299.197	0.124	0.225
-145.545	-55.605	0.138	-0.060
-144.531	-200.000	0.006	-0.041
-143.516	517.751	-0.045	-0.104
-142.502	547.814	-0.139	0.326
-141.487	119.831	0.042	-0.051
-140.472	120.464	-0.140	0.170
-139.458	2.685	-0.026	0.019
-138.443	91.497	0.058	-0.064
-137.429	-119.112	0.079	0.013
-136.414	-200.000	0.013	0.119
-135.399	-135.151	-0.085	0.010
-134.385	4.901	0.034	-0.025
-133.370	715.677	0.092	-0.238
-132.356	-50.839	0.297	-0.137
-131.341	-155.910	0.193	-0.012
-130.326	-200.000	-0.012	-0.080
-129.312	536.723	-0.033	-0.076
-128.297	800.000	0.030	-0.118
-127.283	-56.487	-0.277	0.121
-126.268	-78.653	-0.063	-0.021
-125.253	104.512	0.161	0.186
-124.239	-200.000	-0.058	0.350
-123.224	-131.023	-0.151	0.020
-122.210	71.133	0.021	-0.022
-121.195	-29.306	-0.249	-0.140
-120.180	33.379	0.035	0.030
-119.166	720.412	0.123	0.320
-118.151	51.248	0.227	0.211
-117.137	-16.134	0.297	-0.185
-116.122	-13.361	-0.277	-0.176
-115.107	688.857	0.127	0.326
-114.093	270.952	0.135	0.234
-113.078	242.323	0.144	0.236
-112.064	128.037	-0.209	0.260
-111.049	-97.709	-0.213	-0.054
-110.034	-200.000	0.063	-0.338
-109.020	-65.387	0.400	-0.158
-108.005	237.649	0.160	0.260
-106.991	-79.872	-0.386	0.127
-105.976	-82.010	0.161	-0.051
-104.962	-42.351	-0.191	0.096
-103.947	173.186	-0.139	-0.196
-102.932	-200.000	-0.007	-0.041
-101.918	800.000	0.073	0.308
-100.903	609.457	-0.028	0.069
-99.889	-33.000	0.195	-0.106
-98.874	-108.525	-0.143	-0.030
-97.859	-92.184	-0.320	0.089
-96.845	-131.694	0.147	-0.019
-95.830	343.935	-0.087	-0.167
-94.816	493.411	0.103	-0.232
-93.801	23.789	0.200	-0.161
-92.786	15.562	0.345	-0.265
-91.772	-1.055	0.112	-0.078
-90.757	332.759	-0.112	0.212
-89.743	781.272	0.134	0.359
-88.728	800.000	0.045	0.159
-87.713	-130.495	-0.114	-0.015
-86.699	-78.001	-0.214	-0.072
-85.684	-6.378	0.075	0.050
-84.670	-200.000	0.021	0.000
-83.655	38.736	-0.278	0.243
-82.640	-200.000	-0.034	0.172
-81.626	137.687	-0.149	0.191
-80.611	-185.043	0.534	-0.008
-79.597	800.000	-0.131	0.364
-78.582	41.790	0.303	0.269
-77.567	-147.047	0.197	-0.017
-76.553	86.978	-0.019	-0.020
-75.538	283.367	0.083	0.145
-74.524	-64.625	-0.128	-0.051
-73.509	-1.555	-0.387	0.267
-72.494	-129.453	0.059	0.008
-71.480	13.517	-0.274	0.208
-70.465	-85.962	-0.223	0.067
-69.451	800.000	0.067	0.270
-68.436	-65.313	-0.258	-0.102
-67.422	83.451	0.136	0.145
-66.407	177.628	0.147	0.210
-65.392	-112.545	-0.273	-0.053
-64.378	800.000	0.041	-0.133
-63.363	-200.000	0.054	0.267
-62.349	800.000	-0.102	0.339
-61.334	66.258	-0.935	-0.929
-60.319	19.634	0.660	0.519
-59.305	288.292	-0.556	-0.984
-58.290	303.842	0.674	1.223
-57.276	800.000	0.440	1.754
-56.261	-200.000	118.256	644.484
-55.246	480.957	1556.461	3454.044
-54.232	173.566	2722.955	3842.087
-53.217	103.861	2154.280	2475.236
-52.203	37.684	1586.305	1377.170
-51.188	29.435	1329.592	1105.098
-50.173	26.473	1291.484	1056.120
-49.159	52.156	1350.727	1258.806
-48.144	50.871	1363.788	1263.262
-47.130	29.435	1317.398	1094.786
-46.115	26.032	1299.973	1060.298
-45.100	25.967	1294.437	1055.363
-44.086	25.823	1292.068	1052.550
-43.071	25.742	1290.226	1050.530
-42.057	25.898	1287.403	1049.104
-41.042	25.921	1286.148	1048.173
-40.027	25.966	1284.712	1047.220
-39.013	25.941	1282.333	1045.093
-37.998	25.979	1280.608	1043.869
-36.984	25.986	1278.911	1042.484
-35.969	26.116	1277.046	1041.670
-34.954	26.192	1275.090	1040.472
-33.940	26.017	1274.151	1038.658
-32.925	26.070	1272.850	1037.860
-31.911	26.133	1271.274	1036.894
-30.896	26.221	1269.452	1035.874
-29.881	26.178	1268.508	1034.817
-28.867	26.160	1267.416	1033.779
-27.852	26.297	1265.509	1032.967
-26.838	26.129	1264.549	1031.182
-25.823	26.153	1263.231	1030.202
-24.809	26.190	1261.537	1028.996
-23.794	26.049	1260.742	1027.499
-22.779	26.097	1259.315	1026.570
-21.765	26.163	1257.904	1025.754
-20.750	26.169	1256.744	1024.801
-19.736	26.099	1255.144	1023.061
-18.721	25.986	1253.938	1021.396
-17.706	25.965	1253.272	1020.693
-16.692	26.065	1251.511	1019.786
-15.677	26.090	1250.962	1019.436
-14.663	26.085	1249.465	1018.152
-13.648	26.015	1248.100	1016.605
-12.633	25.995	1247.503	1015.962
-11.619	26.056	1246.383	1015.353
-10.604	25.859	1245.837	1013.761
-9.590	25.992	1245.069	1013.841
-8.575	25.982	1244.287	1013.112
-7.560	25.956	1243.797	1012.524
-6.546	25.935	1242.574	1011.371
-5.531	26.021	1241.443	1010.895
-4.517	26.033	1240.702	1010.317
-3.502	26.053	1239.583	1009.475
-2.487	26.127	1238.229	1008.749
-1.473	25.971	1234.563	1004.850
-0.458	24.482	1219.885	984.659
0.556	22.724	1203.181	947.478
1.571	19.059	1209.118	932.249
2.586	18.138	1223.760	938.404
3.600	17.901	1212.106	928.094
4.615	13.978	1141.558	853.877
5.629	7.223	1071.173	768.484
6.644	4.327	1053.865	742.164
7.659	4.123	1051.553	739.500
8.673	3.973	1050.040	737.655
9.688	3.927	1048.677	736.413
10.702	4.379	1046.749	737.141
11.717	8.638	1052.463	761.397
12.731	16.256	1062.988	805.429
13.746	21.300	1068.895	833.971
14.761	22.244	1069.944	839.220
15.775	21.600	1068.111	834.643
16.790	20.462	1066.949	828.237
17.804	19.941	1065.046	824.208
18.819	19.701	1064.634	822.672
19.834	19.602	1063.898	821.563
20.848	19.540	1062.911	820.430
21.863	19.452	1062.563	819.674
22.877	19.337	1061.741	818.419
23.892	19.157	1061.166	817.051
24.907	19.141	1060.008	816.009
25.921	19.208	1059.046	815.516
26.936	19.206	1057.545	814.279
27.950	19.310	1056.091	813.577
28.965	19.323	1054.890	812.638
29.980	19.422	1053.888	812.266
30.994	19.630	1052.499	812.101
32.009	19.530	1052.003	811.176
33.023	19.566	1050.797	810.343
34.038	19.487	1049.738	809.085
35.053	19.297	1048.717	807.336
36.067	19.342	1047.766	806.744
37.082	19.287	1047.259	806.023
38.096	19.479	1046.862	806.542
39.111	19.563	1045.930	806.147
40.126	19.376	1044.566	804.150
41.140	19.043	1042.697	801.093
42.155	18.744	1041.845	798.973
43.169	18.863	1040.287	798.262
44.184	18.733	1039.583	797.050
45.199	18.801	1038.875	796.750
46.213	19.030	1038.160	797.192
47.228	19.414	1036.695	797.774
48.242	19.348	1036.425	797.188
49.257	19.300	1035.307	796.040
50.271	19.356	1034.622	795.700
51.286	19.389	1034.030	795.327
52.301	19.341	1033.071	794.296
53.315	19.154	1031.625	792.253
54.330	19.039	1030.537	790.820
55.344	19.102	1029.221	790.031
56.359	18.979	1028.669	788.971
57.374	18.921	1028.431	788.452
58.388	18.819	1027.225	786.989
59.403	18.764	1026.159	785.855
60.417	18.795	1025.436	785.372
61.432	18.739	1024.681	784.470
62.447	18.565	1024.106	783.166
63.461	18.598	1023.293	782.623
64.476	18.686	1021.912	781.898
65.490	18.587	1021.133	780.782
66.505	18.658	1021.036	780.966
67.520	18.672	1020.029	780.187
68.534	18.632	1019.641	779.641
69.549	18.621	1018.575	778.705
70.563	18.564	1017.539	777.589
71.578	18.262	1016.620	775.448
72.593	18.244	1015.770	774.648
73.607	18.166	1015.835	774.277
74.622	18.314	1015.333	774.497
75.636	18.487	1014.310	774.429
76.651	18.441	1013.646	773.647
77.666	18.518	1012.841	773.311
78.680	18.492	1012.230	772.660
79.695	18.533	1012.002	772.599
80.709	18.682	1011.285	772.656
81.724	18.834	1010.463	772.640
82.739	18.904	1009.990	772.528
83.753	19.292	1009.747	774.015
84.768	19.722	1008.414	774.852
85.782	19.714	1008.281	774.646
86.797	19.654	1007.107	773.407
87.812	19.530	1005.622	771.642
88.826	19.298	1005.076	770.121
89.841	19.523	1004.475	770.594
90.855	19.624	1003.395	770.148
91.870	19.643	1002.695	769.629
92.884	19.725	1001.486	768.996
93.899	19.648	1000.646	767.941
94.914	19.697	1000.086	767.662
95.928	19.654	998.979	766.554
96.943	19.460	998.455	765.225
97.957	19.481	997.564	764.566
98.972	19.517	996.450	763.803
99.987	19.641	995.435	763.508
101.001	19.487	994.638	762.146
102.016	19.503	993.616	761.369
103.030	19.426	993.704	761.028
104.045	19.500	992.164	760.105
105.060	19.318	991.202	758.505
106.074	19.016	990.240	756.373
107.089	18.919	988.855	754.821
108.103	18.614	988.242	752.949
109.118	18.675	987.410	752.517
110.133	18.523	986.627	751.187
111.147	18.543	985.430	750.297
112.162	18.773	984.231	750.321
113.176	18.933	984.079	750.838
114.191	18.958	983.703	750.594
115.206	18.781	982.420	748.778
116.220	18.797	982.213	748.623
117.235	18.795	980.976	747.605
118.249	18.810	979.813	746.718
119.264	18.631	979.223	745.422
120.279	18.630	978.417	744.741
121.293	18.611	977.550	743.932
122.308	18.428	976.889	742.568
123.322	18.268	975.713	740.919
124.337	18.423	974.142	740.330
125.352	18.457	972.855	739.432
126.366	18.430	972.282	738.816
127.381	18.477	971.493	738.354
128.395	18.542	970.048	737.469
129.410	18.447	969.964	736.930
130.424	18.684	969.489	737.524
131.439	18.958	968.478	737.863
132.454	18.865	967.888	736.951
133.468	18.818	967.007	736.014
134.483	18.803	966.625	735.596
135.497	18.883	965.806	735.248
136.512	18.918	964.511	734.346
137.527	19.046	963.726	734.231
138.541	18.930	963.145	733.227
139.556	19.028	962.503	733.093
140.570	19.202	961.997	733.383
141.585	19.489	960.783	733.613
142.600	19.251	960.643	732.430
143.614	19.596	959.848	733.225
144.629	19.611	959.221	732.742
145.643	19.464	958.099	731.198
146.658	19.330	956.597	729.420
147.673	19.183	955.538	727.927
148.687	18.963	954.632	726.241
149.702	19.002	953.773	725.690
150.716	18.853	953.399	724.712
151.731	18.950	952.129	724.091
152.746	18.967	951.678	723.757
153.760	18.947	951.074	723.147
154.775	19.115	950.726	723.527
155.789	19.316	949.579	723.434
156.804	19.327	948.939	722.928
157.819	19.401	948.604	722.920
158.833	19.416	948.502	722.840
159.848	19.649	947.462	722.957
160.862	19.461	946.079	721.054
161.877	19.088	944.902	718.538
162.892	18.895	943.747	716.791
163.906	18.962	942.551	716.095
164.921	19.027	942.019	715.900
165.935	18.999	941.189	715.090
166.950	19.157	940.498	715.158
167.964	19.196	939.638	714.602
168.979	19.107	938.469	713.281
169.994	19.121	937.287	712.376
171.008	19.205	936.866	712.339
172.023	19.382	936.800	712.961
173.037	19.550	935.961	712.952
174.052	19.399	934.936	711.485
175.067	19.032	934.302	709.427
176.081	18.887	933.516	708.169
177.096	18.865	933.075	707.680
178.110	18.962	932.609	707.663
179.125	19.174	931.670	707.761
180.140	19.213	931.328	707.601
181.154	19.365	931.273	708.119
182.169	19.575	930.866	708.611
183.183	19.590	930.297	708.176
184.198	19.499	929.583	707.195
185.213	19.504	928.692	706.474
186.227	19.547	928.387	706.357
187.242	19.605	927.462	705.828
188.256	19.888	927.249	706.757
189.271	19.774	926.395	705.580
190.286	19.366	925.129	702.891
191.300	18.990	923.727	700.232
192.315	18.790	922.980	698.790
193.329	18.818	922.730	698.655
194.344	19.158	922.269	699.623
195.359	19.147	921.751	699.125
196.373	19.333	921.406	699.556
197.388	19.614	920.806	700.180
198.402	19.729	920.979	700.716
199.417	19.753	920.817	700.628
200.432	19.950	919.992	700.735
201.446	20.039	919.657	700.775
202.461	20.092	919.184	700.567
203.475	19.900	917.988	698.821
204.490	19.555	917.310	696.848
205.504	19.541	916.330	695.986
206.519	19.708	914.837	695.466
207.534	19.554	914.680	694.664
208.548	19.575	913.913	694.105
209.563	19.505	913.711	693.607
210.577	19.659	913.338	693.880
211.592	19.922	912.627	694.334
212.607	20.102	911.622	694.229
213.621	19.833	911.322	692.862
214.636	19.909	910.346	692.364
215.650	20.022	909.438	692.064
216.665	20.122	908.992	692.061
217.680	19.997	908.609	691.210
218.694	20.087	907.845	690.929
219.709	19.950	907.683	690.195
220.723	20.009	906.337	689.348
221.738	19.965	905.812	688.711
222.753	19.991	905.166	688.264
223.767	19.926	905.332	688.070
224.782	20.292	904.619	688.920
225.796	20.239	903.994	688.175
226.811	20.099	903.046	686.834
227.826	19.842	902.424	685.283
228.840	19.930	901.278	684.701
229.855	19.942	900.487	684.089
230.869	19.943	899.757	683.475
231.884	19.727	899.366	682.264
232.899	19.752	898.046	681.304
233.913	19.597	897.947	680.557
234.928	19.631	896.998	679.912
235.942	19.597	896.538	679.370
236.957	19.393	896.298	678.326
237.972	19.649	895.730	678.840
238.986	19.632	894.832	678.035
240.001	19.768	893.961	677.846
241.015	19.701	894.093	677.624
242.030	19.843	893.312	677.527
243.045	19.876	892.844	677.244
244.059	20.023	892.237	677.297
245.074	20.018	891.795	676.881
246.088	20.079	891.028	676.477
247.103	20.248	890.720	676.844
248.117	20.382	890.531	677.162
249.132	20.545	890.235	677.514
250.147	20.862	889.788	678.348
251.161	20.922	889.320	678.163
252.176	20.891	888.709	677.516
253.190	20.981	888.368	677.548
254.205	21.021	887.190	676.745
255.220	21.001	886.593	676.150
256.234	20.988	885.986	675.577
257.249	20.959	884.971	674.633
258.263	20.924	884.467	674.055
259.278	20.853	884.002	673.363
260.293	21.040	883.692	673.791
261.307	21.101	882.875	673.346
262.322	21.044	882.748	672.967
263.336	20.961	882.025	672.039
264.351	21.006	880.938	671.325
265.366	21.125	880.156	671.127
266.380	21.073	879.307	670.219
267.395	20.925	878.686	669.118
268.409	20.802	878.116	668.152
269.424	20.888	877.206	667.732
270.439	20.741	876.761	666.772
271.453	20.715	875.742	665.836
272.468	20.750	875.520	665.743
273.482	20.662	874.673	664.705
274.497	20.664	874.044	664.176
275.512	20.827	873.545	664.358
276.526	20.713	873.143	663.559
277.541	20.695	873.235	663.501
278.555	21.035	872.160	663.920
279.570	21.225	871.633	664.183
280.585	21.220	870.830	663.495
281.599	21.055	870.123	662.270
282.614	20.746	869.653	660.682
283.628	20.785	868.800	660.123
284.643	20.795	868.253	659.685
285.657	20.833	867.723	659.369
286.672	20.929	867.083	659.188
287.687	20.908	866.697	658.757
288.701	20.918	865.849	658.091
289.716	21.008	865.455	658.075
290.730	20.915	864.919	657.255
291.745	20.973	864.522	657.115
292.760	21.055	864.183	657.109
293.774	21.266	863.468	657.302
294.789	21.163	862.402	656.045
295.803	21.031	861.399	654.728
296.818	20.927	861.324	654.224
297.833	20.765	860.395	652.851
298.847	20.946	859.970	653.148
299.862	21.066	859.311	653.040
300.876	21.127	859.170	653.103
301.891	21.277	858.371	652.999
302.906	21.395	858.048	653.135
303.920	21.467	857.750	653.120
304.935	21.550	857.453	653.148
305.949	21.491	856.317	652.005
306.964	21.315	855.281	650.504
307.979	21.223	855.055	649.930
308.993	21.425	854.833	650.457
310.008	21.545	854.066	650.259
311.022	21.290	853.558	648.871
312.037	21.193	852.419	647.585
313.052	20.956	851.986	646.321
314.066	20.811	851.002	644.979
315.081	20.909	850.592	644.976
316.095	21.003	850.068	644.870
317.110	20.861	849.358	643.750
318.125	20.834	848.813	643.180
319.139	20.953	848.365	643.221
320.154	20.983	848.083	643.061
321.168	21.000	847.832	642.875
322.183	21.140	846.720	642.493
323.197	21.143	846.657	642.398
324.212	21.185	845.825	641.864
325.227	21.111	845.159	641.032
326.241	21.056	844.730	640.447
327.256	20.991	844.072	639.654
328.270	20.945	843.758	639.188
329.285	20.827	843.129	638.226
330.300	21.108	842.173	638.471
331.314	21.040	841.925	637.978
332.329	21.330	841.473	638.639
333.343	21.349	841.673	638.804
334.358	21.387	841.062	638.423
335.373	21.339	840.403	637.693
336.387	21.410	840.632	638.067
337.402	21.578	840.263	638.343
338.416	21.783	839.661	638.577
339.431	21.909	839.380	638.764
340.446	21.960	838.859	638.497
341.460	22.004	838.687	638.470
342.475	21.985	838.383	638.113
343.489	22.093	837.988	638.150
344.504	22.190	837.296	637.918
345.519	22.287	836.621	637.698
346.533	21.996	836.481	636.480
347.548	21.829	835.871	635.355
348.562	21.654	834.718	633.788
349.577	21.692	833.986	633.316
350.592	21.430	833.500	631.944
351.606	21.278	832.680	630.716
352.621	21.325	831.882	630.226
353.635	21.502	831.415	630.453
354.650	21.637	831.013	630.580
355.665	21.720	830.305	630.283
356.679	21.820	830.081	630.418
357.694	21.843	828.812	629.481
358.708	21.797	828.271	628.849
359.723	21.869	827.879	628.754
360.738	21.728	827.574	627.964
361.752	21.760	827.254	627.779
362.767	22.085	826.435	628.263
363.781	22.082	826.143	627.976
364.796	22.249	825.779	628.240
365.810	22.488	825.463	628.797
366.825	22.429	825.210	628.337
367.840	22.165	825.076	627.239
368.854	22.197	823.946	626.440
369.869	22.308	822.893	625.978
370.883	22.260	822.679	625.590
371.898	22.216	822.788	625.461
372.913	22.393	822.101	625.511
373.927	22.203	821.504	624.326
374.942	22.267	821.384	624.407
375.956	22.363	820.958	624.368
376.971	22.595	820.555	624.828
377.986	22.648	820.441	624.876
379.000	22.568	819.859	624.094
380.015	22.622	819.202	623.730
381.029	22.394	818.476	622.317
382.044	22.603	818.128	622.735
383.059	22.660	817.092	622.090
384.073	22.343	816.542	620.500
385.088	22.172	816.008	619.436
386.102	22.177	814.728	618.428
387.117	22.063	814.798	618.024
388.132	22.176	813.991	617.757
389.146	22.242	813.493	617.557
390.161	22.407	813.416	618.022
391.175	22.397	812.886	617.528
392.190	22.357	811.834	616.536
393.205	22.048	811.590	615.211
394.219	22.199	810.910	615.171
395.234	22.262	810.291	614.868
396.248	22.070	809.682	613.680
397.263	21.955	809.555	613.129
398.278	21.977	809.131	612.831
399.292	21.955	808.717	612.384
400.307	21.924	808.516	612.071
401.321	22.033	807.669	611.755
402.336	22.110	807.550	611.877
403.350	22.351	807.113	612.333
404.365	22.279	807.066	611.991
405.380	22.625	806.665	612.835
406.394	22.686	805.958	612.458
407.409	22.765	805.783	612.543
408.423	22.852	805.429	612.521
409.438	22.927	805.195	612.550
410.453	22.882	804.859	612.085
411.467	22.783	804.625	611.511
412.482	23.090	803.719	611.829
413.496	23.218	803.395	611.970
414.511	23.027	803.112	611.041
415.526	22.926	802.957	610.519
416.540	22.870	802.174	609.678
417.555	22.918	801.975	609.638
418.569	23.068	800.938	609.313
419.584	23.131	800.463	609.113
420.599	23.029	800.049	608.393
421.613	165.742	1371.206	1797.751
422.628	144.055	1454.396	1797.826
