DTS Sentinel unit serial number:	SN413079Multiplexer serial number:	ORYXHardware model number:	OX4-SRSoftware version number:	ORYX F/W v4.00 Oryx Data Collector v3.7.2.0data status	okinstallation	princeton_trtdifferential loss correction	single-endedforward channel	channel 1reverse channel	N/Adate	2019/09/13time	15:06:35forward acquisition time	60.00reverse acquisition time	0.00gamma	496.2192k internal	0.2302k external	0.2302temperature offset calibration	1.0161default loss term (dB/km)	0.3790temperature slope calibration	1.0000multiplexer offset coefficient	1.0000multiplexer slope coefficient	1.0000fibre end	0.00T internal ref (°C)	35.62T ext. ref 1 (°C)	4.71T ext. ref 2 (°C)	30.92length (m)	temperature (°C)	Stokes	anti-Stokes-747.200	154.791	-0.206	0.288
-746.185	153.254	-0.135	0.188
-745.171	-84.630	-0.311	0.100
-744.156	-200.000	0.010	0.167
-743.142	-88.144	0.214	-0.065
-742.127	12.362	0.166	0.130
-741.112	9.028	0.259	-0.199
-740.098	92.725	0.164	-0.189
-739.083	425.165	0.102	0.224
-738.069	134.435	0.116	0.153
-737.054	110.158	-0.243	-0.297
-736.039	-110.420	-0.547	0.116
-735.025	800.000	0.185	0.547
-734.010	-67.094	-0.237	-0.095
-732.996	800.000	-0.078	-0.253
-731.981	-22.187	-0.259	-0.160
-730.966	-99.854	0.173	0.044
-729.952	-168.092	0.303	-0.012
-728.937	-45.172	-0.110	-0.056
-727.923	121.360	0.191	0.242
-726.908	284.863	0.111	0.203
-725.894	540.216	0.050	0.122
-724.879	4.436	-0.112	-0.084
-723.864	-164.243	-0.285	-0.013
-722.850	469.695	0.057	0.130
-721.835	-200.000	-0.013	0.247
-720.821	660.257	0.116	0.304
-719.806	-200.000	-0.005	0.129
-718.791	-36.879	-0.089	0.049
-717.777	2.566	-0.177	0.131
-716.762	113.045	-0.180	-0.222
-715.748	-21.802	0.173	-0.107
-714.733	-5.219	-0.037	0.026
-713.718	-79.501	0.127	-0.044
-712.704	-119.729	0.061	-0.011
-711.689	-132.938	0.214	-0.028
-710.675	218.888	-0.084	-0.136
-709.660	44.464	-0.106	0.099
-708.645	-65.548	0.264	-0.108
-707.631	-200.000	-0.050	-0.287
-706.616	456.097	0.077	0.174
-705.602	0.831	0.026	0.019
-704.587	-98.113	-0.248	0.065
-703.572	800.000	0.082	-0.325
-702.558	-108.993	-0.347	-0.075
-701.543	-200.000	0.038	0.177
-700.529	107.276	-0.119	-0.144
-699.514	-200.000	-0.005	0.099
-698.499	-62.412	-0.064	-0.027
-697.485	-30.582	-0.196	0.113
-696.470	-200.000	0.007	0.386
-695.456	-200.000	0.028	0.178
-694.441	-104.932	0.303	0.071
-693.426	800.000	-0.042	-0.130
-692.412	98.124	0.045	-0.053
-691.397	-16.799	0.114	0.073
-690.383	234.524	-0.086	-0.144
-689.368	-158.481	-0.189	-0.011
-688.354	-200.000	0.005	-0.119
-687.339	138.853	0.162	-0.217
-686.324	153.155	0.132	0.184
-685.310	800.000	0.060	0.187
-684.295	800.000	0.032	-0.092
-683.281	213.912	-0.118	0.189
-682.266	465.672	0.127	-0.290
-681.251	31.832	0.236	-0.207
-680.237	-191.852	0.070	-0.001
-679.222	-76.136	-0.110	-0.040
-678.208	136.827	-0.101	-0.135
-677.193	12.569	-0.246	0.193
-676.178	-143.222	-0.151	0.015
-675.164	77.433	-0.038	-0.041
-674.149	124.212	-0.186	-0.238
-673.135	-200.000	-0.001	-0.071
-672.120	-200.000	0.037	-0.167
-671.105	8.514	0.149	-0.114
-670.091	-200.000	0.030	0.173
-669.076	71.024	-0.058	0.061
-668.062	59.481	0.111	0.111
-667.047	38.223	-0.105	-0.095
-666.032	-84.765	-0.069	-0.022
-665.018	-40.438	0.136	-0.072
-664.003	800.000	0.048	0.162
-662.989	800.000	0.056	-0.211
-661.974	800.000	-0.056	-0.168
-660.959	87.644	0.094	-0.106
-659.945	-78.450	-0.306	-0.106
-658.930	-200.000	-0.041	0.296
-657.916	-72.293	0.177	0.067
-656.901	-200.000	0.060	0.387
-655.886	60.191	0.242	0.243
-654.872	800.000	0.046	0.134
-653.857	15.794	0.112	-0.089
-652.843	19.574	-0.158	-0.129
-651.828	223.487	0.086	0.141
-650.814	800.000	-0.071	0.286
-649.799	81.556	-0.145	0.160
-648.784	0.085	-0.267	0.194
-647.770	-200.000	-0.071	-0.490
-646.755	359.313	-0.111	-0.225
-645.741	-46.229	0.105	-0.053
-644.726	268.582	-0.077	-0.138
-643.711	397.129	0.225	-0.477
-642.697	-200.000	-0.058	-0.293
-641.682	-36.978	0.179	0.098
-640.668	80.035	-0.030	0.033
-639.653	234.278	0.143	0.239
-638.638	41.647	-0.122	0.112
-637.624	-91.592	-0.185	0.054
-636.609	81.615	0.327	-0.359
-635.595	800.000	0.016	-0.054
-634.580	-75.140	-0.164	-0.060
-633.565	-200.000	-0.000	-0.311
-632.551	290.370	0.167	0.307
-631.536	-80.880	0.059	0.020
-630.522	-79.975	0.128	0.044
-629.507	-71.131	0.202	-0.077
-628.492	-89.262	-0.198	0.059
-627.478	-200.000	0.013	-0.688
-626.463	800.000	0.101	-0.340
-625.449	39.531	-0.251	-0.228
-624.434	-59.742	-0.403	-0.175
-623.419	129.297	0.119	0.154
-622.405	429.458	-0.039	0.085
-621.390	-200.000	-0.006	-0.090
-620.376	-200.000	0.012	0.271
-619.361	-97.278	-0.386	0.102
-618.346	-200.000	-0.041	0.348
-617.332	158.409	0.130	-0.182
-616.317	137.884	0.136	0.181
-615.303	309.972	-0.085	0.161
-614.288	-70.052	-0.242	0.093
-613.273	-200.000	-0.030	-0.279
-612.259	800.000	-0.078	-0.293
-611.244	205.173	-0.038	-0.060
-610.230	800.000	-0.049	-0.166
-609.215	-200.000	0.040	0.219
-608.201	636.858	-0.018	0.046
-607.186	361.458	0.090	-0.183
-606.171	-200.000	-0.003	-0.062
-605.157	-60.689	-0.186	-0.080
-604.142	62.078	-0.093	-0.094
-603.128	-200.000	0.007	0.073
-602.113	-138.002	0.120	-0.014
-601.098	-67.081	0.251	-0.100
-600.084	-41.346	0.114	0.060
-599.069	-78.200	0.194	0.068
-598.055	-200.000	0.101	-0.478
-597.040	-200.000	-0.059	-0.365
-596.025	25.609	-0.199	-0.168
-595.011	-153.762	-0.326	-0.023
-593.996	-51.124	-0.245	-0.116
-592.982	166.719	0.099	0.143
-591.967	-57.101	-0.253	-0.113
-590.952	770.562	0.091	-0.251
-589.938	296.999	-0.094	-0.175
-588.923	34.404	-0.210	0.186
-587.909	-62.808	0.168	0.070
-586.894	134.050	-0.118	0.155
-585.879	-200.000	-0.013	-0.109
-584.865	477.346	-0.045	0.103
-583.850	-180.408	0.388	0.008
-582.836	800.000	-0.042	-0.156
-581.821	-200.000	0.002	-0.149
-580.806	-33.625	0.213	-0.119
-579.792	-161.682	-0.313	0.016
-578.777	314.757	0.113	-0.216
-577.763	-200.000	0.004	-0.160
-576.748	479.489	-0.093	-0.213
-575.733	-200.000	-0.022	-0.149
-574.719	-73.083	-0.154	0.057
-573.704	-69.490	-0.137	-0.053
-572.690	-5.357	0.452	-0.314
-571.675	31.755	-0.190	0.165
-570.661	7.129	0.347	0.262
-569.646	161.150	-0.105	0.149
-568.631	-200.000	0.004	-0.146
-567.617	-47.460	-0.106	0.052
-566.602	423.542	-0.062	0.135
-565.588	-65.913	0.243	-0.098
-564.573	198.899	-0.061	-0.095
-563.558	-200.000	-0.039	0.175
-562.544	-173.716	-0.087	-0.003
-561.529	-200.000	0.038	0.312
-560.515	297.498	0.162	-0.301
-559.500	-200.000	0.009	0.225
-558.485	107.779	-0.184	-0.222
-557.471	32.508	0.078	-0.068
-556.456	138.683	-0.089	-0.118
-555.442	800.000	0.030	0.088
-554.427	-101.000	-0.387	-0.096
-553.412	265.489	0.181	-0.319
-552.398	-200.000	0.042	-0.272
-551.383	-95.831	0.327	0.088
-550.369	-147.305	0.034	-0.003
-549.354	126.268	-0.105	0.134
-548.339	-24.730	-0.207	-0.124
-547.325	-111.727	-0.155	0.032
-546.310	241.747	0.105	0.178
-545.296	473.933	0.078	-0.178
-544.281	-117.278	0.174	-0.032
-543.266	-103.494	0.378	0.090
-542.252	-200.000	-0.043	-0.294
-541.237	88.265	0.181	0.203
-540.223	-89.558	0.030	-0.009
-539.208	-20.473	-0.128	-0.080
-538.193	-130.601	-0.056	-0.008
-537.179	800.000	0.019	0.053
-536.164	800.000	0.021	0.083
-535.150	229.535	0.028	0.047
-534.135	46.652	-0.156	-0.146
-533.121	1.207	-0.238	-0.173
-532.106	45.800	-0.134	0.125
-531.091	80.309	-0.116	-0.126
-530.077	-60.893	0.248	0.106
-529.062	-57.579	0.185	-0.082
-528.048	-72.622	-0.093	0.035
-527.033	-17.854	0.101	-0.064
-526.018	-86.417	-0.237	-0.074
-525.004	-95.416	0.108	-0.029
-523.989	80.563	-0.183	0.199
-522.975	29.849	-0.297	0.256
-521.960	-114.896	-0.208	-0.040
-520.945	45.883	-0.071	-0.066
-519.931	-91.648	0.710	0.204
-518.916	-15.552	-0.049	-0.031
-517.902	-200.000	0.028	0.200
-516.887	-200.000	-0.056	0.395
-515.872	-54.940	0.052	0.024
-514.858	-106.709	0.126	-0.028
-513.843	11.028	-0.207	-0.160
-512.829	800.000	0.059	0.187
-511.814	27.889	-0.097	-0.083
-510.799	2.259	0.196	-0.143
-509.785	476.061	-0.168	0.384
-508.770	-200.000	-0.015	-0.266
-507.756	36.681	0.105	0.094
-506.741	800.000	0.070	-0.200
-505.726	-37.148	0.063	-0.034
-504.712	567.308	-0.038	-0.094
-503.697	436.841	0.079	0.174
-502.683	299.972	0.145	-0.270
-501.668	-136.724	0.158	-0.018
-500.653	-20.403	-0.127	-0.079
-499.639	163.868	-0.181	-0.257
-498.624	800.000	0.049	-0.138
-497.610	-200.000	-0.026	0.314
-496.595	23.999	0.089	0.074
-495.581	-200.000	0.013	0.070
-494.566	202.703	0.098	-0.153
-493.551	-200.000	0.007	-0.092
-492.537	-200.000	0.026	0.186
-491.522	800.000	-0.043	-0.165
-490.508	42.045	-0.213	0.195
-489.493	-112.000	-0.275	-0.056
-488.478	-200.000	-0.030	0.175
-487.464	674.345	-0.105	0.275
-486.449	576.209	0.106	-0.262
-485.435	-79.740	-0.189	0.064
-484.420	182.919	0.164	0.245
-483.405	90.837	0.155	0.175
-482.391	110.101	0.129	-0.156
-481.376	800.000	0.076	-0.252
-480.362	-9.651	-0.083	0.056
-479.347	325.707	-0.101	0.196
-478.332	-89.501	-0.169	-0.050
-477.318	-145.301	0.135	-0.012
-476.303	1.102	0.128	-0.093
-475.289	-100.399	0.349	-0.087
-474.274	-200.000	-0.039	-0.297
-473.259	625.102	0.110	0.281
-472.245	289.974	-0.068	-0.124
-471.230	320.967	-0.039	0.074
-470.216	-153.516	-0.404	0.028
-469.201	115.514	-0.145	-0.179
-468.186	-128.099	-0.133	0.019
-467.172	-60.163	0.066	0.028
-466.157	4.740	-0.225	-0.166
-465.143	800.000	0.085	-0.343
-464.128	10.763	-0.129	0.099
-463.113	-37.780	-0.140	0.075
-462.099	-24.107	-0.157	0.095
-461.084	-200.000	0.002	0.042
-460.070	-160.130	-0.657	-0.036
-459.055	-94.832	-0.323	0.088
-458.040	-77.016	0.432	-0.152
-457.026	39.304	-0.065	0.059
-456.011	2.390	-0.310	-0.226
-454.997	-149.593	-0.189	0.015
-453.982	-93.757	-0.335	-0.093
-452.968	-146.208	0.177	0.016
-451.953	-6.239	-0.064	0.044
-450.938	-200.000	-0.001	-0.355
-449.924	-200.000	-0.028	-0.155
-448.909	222.362	-0.153	0.248
-447.895	69.848	0.138	-0.143
-446.880	800.000	-0.110	0.394
-445.865	-171.064	-0.156	0.005
-444.851	-200.000	-0.010	-0.197
-443.836	61.526	-0.193	0.194
-442.822	-134.927	-0.173	-0.021
-441.807	751.182	-0.048	0.132
-440.792	440.749	-0.075	0.165
-439.778	96.054	-0.111	-0.128
-438.763	471.099	0.067	0.152
-437.749	-44.660	0.152	0.076
-436.734	-27.160	-0.091	-0.053
-435.719	-27.642	-0.313	-0.183
-434.705	800.000	0.020	-0.075
-433.690	-173.643	0.123	-0.004
-432.676	305.382	0.037	0.068
-431.661	17.091	-0.180	-0.144
-430.646	-131.395	0.156	-0.021
-429.632	54.593	0.110	-0.107
-428.617	800.000	-0.096	-0.387
-427.603	-122.800	0.513	-0.083
-426.588	-200.000	0.011	0.061
-425.573	71.207	0.162	0.170
-424.559	-200.000	-0.038	-0.230
-423.544	-81.270	0.160	-0.053
-422.530	170.377	-0.288	-0.415
-421.515	-77.892	-0.109	-0.038
-420.500	204.400	-0.074	0.115
-419.486	-200.000	-0.010	0.330
-418.471	21.016	0.149	-0.122
-417.457	-200.000	-0.019	-0.142
-416.442	248.981	0.037	0.062
-415.428	596.428	0.010	0.024
-414.413	-123.596	-0.534	-0.085
-413.398	-52.907	0.266	-0.123
-412.384	199.005	-0.080	0.124
-411.369	-105.410	0.321	-0.073
-410.355	-200.000	-0.026	-0.264
-409.340	-18.338	0.096	0.061
-408.325	48.977	0.189	0.179
-407.311	800.000	-0.036	-0.114
-406.296	800.000	-0.098	-0.369
-405.282	-200.000	0.018	-0.135
-404.267	363.431	-0.116	-0.234
-403.252	119.651	0.157	-0.196
-402.238	349.658	-0.086	0.170
-401.223	-2.715	-0.126	0.089
-400.209	-32.459	-0.106	-0.059
-399.194	43.540	-0.019	0.017
-398.179	141.052	0.068	-0.091
-397.165	-82.152	0.216	-0.071
-396.150	-200.000	0.068	-0.406
-395.136	27.188	0.202	-0.170
-394.121	40.637	-0.406	0.368
-393.106	-184.207	0.241	-0.004
-392.092	-169.194	0.273	0.010
-391.077	213.676	0.098	0.156
-390.063	27.295	-0.088	0.074
-389.048	-79.237	0.166	-0.057
-388.033	99.847	-0.046	-0.053
-387.019	229.228	0.114	-0.187
-386.004	-200.000	-0.035	0.487
-384.990	62.320	-0.081	-0.082
-383.975	629.741	0.142	0.360
-382.960	93.194	-0.168	0.191
-381.946	283.451	-0.108	-0.195
-380.931	800.000	-0.126	0.495
-379.917	-71.053	0.269	-0.102
-378.902	306.241	0.006	-0.012
-377.888	-93.562	0.137	-0.038
-376.873	-32.253	0.241	-0.135
-375.858	-117.595	0.275	0.050
-374.844	-106.071	-0.347	0.078
-373.829	120.411	0.025	0.032
-372.815	800.000	-0.059	-0.181
-371.800	-200.000	0.020	0.282
-370.785	800.000	-0.077	0.222
-369.771	-176.511	0.145	0.004
-368.756	-86.308	-0.195	0.060
-367.742	22.329	-0.207	-0.170
-366.727	72.588	-0.214	0.225
-365.712	-162.578	0.139	0.007
-364.698	86.786	0.185	0.205
-363.683	164.834	0.067	0.095
-362.669	30.465	-0.045	0.039
-361.654	446.521	-0.049	-0.108
-360.639	-21.279	-0.067	0.041
-359.625	-200.000	0.017	-0.222
-358.610	-43.335	0.173	0.088
-357.596	36.575	-0.115	-0.102
-356.581	606.936	0.045	0.113
-355.566	-17.763	-0.218	0.137
-354.552	-16.226	0.144	0.092
-353.537	-144.853	0.085	0.008
-352.523	717.828	0.018	-0.049
-351.508	-200.000	0.015	-0.084
-350.493	199.198	0.077	-0.119
-349.479	-99.663	-0.192	0.048
-348.464	241.336	0.066	0.111
-347.450	185.636	0.110	0.164
-346.435	800.000	-0.078	-0.299
-345.420	-16.811	0.182	0.115
-344.406	-200.000	-0.024	0.129
-343.391	-24.159	0.064	-0.038
-342.377	-64.242	0.453	-0.185
-341.362	0.846	0.170	-0.122
-340.348	163.351	0.131	0.184
-339.333	-127.285	0.076	-0.011
-338.318	18.033	-0.341	0.272
-337.304	-200.000	-0.014	0.430
-336.289	-11.406	-0.247	-0.163
-335.275	-16.885	0.327	-0.207
-334.260	-138.615	-0.322	-0.035
-333.245	-43.376	0.067	-0.034
-332.231	-118.749	-0.281	0.050
-331.216	-162.285	0.367	-0.018
-330.202	-200.000	0.011	0.215
-329.187	109.929	0.181	-0.218
-328.172	42.634	-0.086	-0.078
-327.158	-3.209	0.075	0.052
-326.143	78.047	-0.228	-0.244
-325.129	800.000	0.027	-0.092
-324.114	-82.582	0.124	-0.040
-323.099	237.109	0.083	0.137
-322.085	-63.767	-0.206	0.085
-321.070	-33.531	-0.194	-0.107
-320.056	-200.000	0.028	-0.406
-319.041	-55.899	0.327	0.146
-318.026	800.000	-0.116	0.332
-317.012	26.257	-0.055	-0.046
-315.997	-48.152	0.347	-0.168
-314.983	-16.482	0.361	-0.229
-313.968	-170.686	0.334	0.012
-312.953	194.416	-0.112	0.171
-311.939	-0.608	-0.170	0.121
-310.924	-75.314	-0.072	0.026
-309.910	372.223	0.056	0.114
-308.895	115.132	0.170	0.209
-307.880	143.673	0.131	0.175
-306.866	800.000	0.089	0.339
-305.851	-122.054	0.111	-0.018
-304.837	-153.652	-0.326	0.022
-303.822	33.679	0.332	-0.289
-302.807	-200.000	0.097	-0.472
-301.793	-45.178	-0.183	0.091
-300.778	89.888	-0.091	-0.102
-299.764	800.000	-0.008	-0.024
-298.749	-16.640	-0.180	-0.114
-297.735	800.000	-0.059	0.186
-296.720	800.000	0.096	0.365
-295.705	-200.000	-0.024	0.318
-294.691	-1.953	0.184	0.129
-293.676	-200.000	-0.043	-0.279
-292.662	-200.000	-0.020	-0.229
-291.647	43.445	0.249	-0.228
-290.632	800.000	-0.038	-0.109
-289.618	-100.689	0.133	0.033
-288.603	-106.673	-0.143	-0.032
-287.589	164.009	-0.111	0.157
-286.574	-41.319	-0.180	0.093
-285.559	-66.630	0.194	-0.077
-284.545	-200.000	-0.104	-0.000
-283.530	-79.673	-0.282	0.095
-282.516	64.495	0.078	-0.079
-281.501	-159.959	0.212	0.012
-280.486	-200.000	0.071	-0.342
-279.472	-76.624	0.312	0.109
-278.457	-79.398	0.214	-0.073
-277.443	73.910	0.171	0.179
-276.428	36.944	0.329	0.292
-275.413	61.361	-0.322	0.320
-274.399	800.000	0.031	-0.120
-273.384	151.653	0.054	-0.074
-272.370	800.000	-0.041	0.159
-271.355	-200.000	-0.009	-0.148
-270.340	-43.132	0.124	0.063
-269.326	-200.000	-0.014	-0.088
-268.311	-200.000	-0.016	0.212
-267.297	334.227	0.093	0.180
-266.282	-200.000	0.010	0.252
-265.267	-79.744	0.182	-0.061
-264.253	467.144	0.068	-0.152
-263.238	-16.501	-0.181	0.115
-262.224	-83.522	-0.153	-0.049
-261.209	800.000	-0.032	0.123
-260.195	-161.751	-0.416	-0.021
-259.180	-102.096	0.293	0.071
-258.165	143.309	-0.046	-0.061
-257.151	800.000	-0.020	0.076
-256.136	-186.594	-0.139	0.002
-255.122	800.000	-0.108	0.371
-254.107	-200.000	0.049	-0.367
-253.092	1.542	-0.031	0.023
-252.078	800.000	0.050	0.201
-251.063	-200.000	-0.036	0.373
-250.049	-10.361	0.133	0.088
-249.034	-29.189	0.106	-0.061
-248.019	-76.124	-0.161	0.057
-247.005	238.095	-0.028	0.047
-245.990	-61.083	0.252	0.107
-244.976	-72.487	-0.175	0.065
-243.961	800.000	-0.095	-0.285
-242.946	96.396	0.243	0.278
-241.932	-156.896	0.096	-0.006
-240.917	-200.000	-0.009	-0.089
-239.903	66.497	-0.170	0.173
-238.888	-200.000	-0.027	-0.122
-237.873	-200.000	0.003	-0.145
-236.859	-120.961	0.317	0.053
-235.844	800.000	0.018	0.054
-234.830	-200.000	0.007	0.294
-233.815	285.225	-0.061	0.109
-232.800	800.000	-0.145	0.458
-231.786	614.797	-0.027	-0.068
-230.771	8.845	0.074	-0.056
-229.757	800.000	-0.037	-0.154
-228.742	620.497	-0.098	-0.247
-227.727	-15.856	-0.125	0.080
-226.713	93.141	0.155	-0.175
-225.698	-107.965	0.362	0.079
-224.684	12.526	0.244	-0.188
-223.669	800.000	0.078	0.259
-222.655	316.975	0.129	-0.243
-221.640	-200.000	0.030	-0.342
-220.625	103.275	0.185	0.217
-219.611	490.543	-0.208	0.476
-218.596	-200.000	0.013	-0.092
-217.582	689.869	0.068	0.177
-216.567	800.000	0.041	-0.150
-215.552	154.144	0.109	0.149
-214.538	800.000	0.018	-0.059
-213.523	20.115	0.019	-0.015
-212.509	800.000	0.071	0.203
-211.494	296.519	0.107	-0.196
-210.479	-200.000	-0.047	-0.249
-209.465	80.614	-0.158	0.169
-208.450	-118.380	-0.257	-0.045
-207.436	21.128	-0.345	0.279
-206.421	123.333	0.040	-0.050
-205.406	-200.000	0.043	0.232
-204.392	632.248	0.050	0.128
-203.377	304.316	0.018	0.033
-202.363	-200.000	0.010	0.179
-201.348	-200.000	-0.007	0.372
-200.333	-154.914	0.291	-0.019
-199.319	58.503	0.074	-0.072
-198.304	-200.000	-0.016	-0.272
-197.290	-200.000	0.038	0.168
-196.275	-48.712	-0.072	-0.034
-195.260	-200.000	-0.003	0.053
-194.246	181.753	-0.155	0.227
-193.231	718.165	0.110	0.293
-192.217	708.074	0.019	0.049
-191.202	-153.516	0.252	0.017
-190.187	32.876	-0.268	-0.232
-189.173	72.590	-0.082	0.085
-188.158	69.791	-0.172	0.177
-187.144	-200.000	0.046	0.203
-186.129	-111.728	-0.331	0.067
-185.114	112.368	-0.168	0.203
-184.100	110.054	-0.213	0.255
-183.085	77.370	-0.125	0.133
-182.071	-178.117	-0.416	-0.010
-181.056	60.211	-0.114	0.113
-180.042	800.000	-0.131	0.387
-179.027	23.863	-0.176	-0.145
-178.012	-106.409	-0.085	-0.019
-176.998	-85.366	0.208	0.065
-175.983	13.753	-0.250	-0.194
-174.969	-200.000	0.010	-0.068
-173.954	-93.971	0.386	0.106
-172.939	-116.001	-0.305	0.057
-171.925	800.000	-0.044	-0.150
-170.910	-200.000	-0.005	0.068
-169.896	154.332	-0.043	0.059
-168.881	74.740	0.090	-0.095
-167.866	-159.126	-0.145	0.008
-166.852	71.706	-0.230	0.238
-165.837	800.000	0.008	0.026
-164.823	-55.500	-0.045	-0.020
-163.808	266.139	0.104	0.180
-162.793	66.086	-0.102	-0.103
-161.779	-95.836	0.146	-0.039
-160.764	-71.908	0.104	-0.039
-159.750	121.259	0.243	-0.302
-158.735	-42.916	0.329	0.166
-157.720	-24.253	0.175	0.104
-156.706	-200.000	-0.003	0.106
-155.691	70.979	0.158	-0.164
-154.677	-62.219	0.344	0.143
-153.662	-60.354	0.427	0.181
-152.647	249.726	-0.085	0.143
-151.633	-149.173	0.138	0.011
-150.618	800.000	-0.068	-0.274
-149.604	-129.817	0.291	0.040
-148.589	13.974	-0.361	0.280
-147.574	-200.000	0.025	0.246
-146.560	-100.203	0.081	-0.020
-145.545	-200.000	-0.037	-0.191
-144.531	70.958	-0.091	0.094
-143.516	189.940	-0.134	0.200
-142.502	-119.433	-0.143	0.025
-141.487	-120.408	-0.217	0.037
-140.472	-28.584	0.226	-0.129
-139.458	-28.571	0.199	0.114
-138.443	-200.000	-0.023	-0.133
-137.429	-64.296	0.087	-0.035
-136.414	-16.378	-0.488	-0.308
-135.399	-106.903	-0.294	0.065
-134.385	-66.951	0.165	-0.065
-133.370	33.311	-0.063	0.055
-132.356	38.483	-0.235	0.209
-131.341	-10.303	0.445	-0.294
-130.326	475.111	0.102	0.229
-129.312	-200.000	-0.055	0.255
-128.297	-11.255	0.013	-0.009
-127.283	-200.000	-0.047	0.269
-126.268	199.397	0.122	0.186
-125.253	800.000	-0.096	-0.287
-124.239	-133.625	-0.077	0.010
-123.224	10.008	-0.291	0.220
-122.210	-86.677	0.131	0.040
-121.195	800.000	0.029	0.080
-120.180	-52.517	0.260	-0.120
-119.166	-103.829	0.305	0.071
-118.151	25.598	0.311	0.258
-117.137	-200.000	0.018	0.112
-116.122	32.812	0.062	-0.054
-115.107	504.210	0.063	-0.146
-114.093	-105.503	0.308	-0.069
-113.078	278.006	-0.063	-0.112
-112.064	-183.822	0.209	-0.004
-111.049	800.000	-0.038	0.155
-110.034	479.755	0.065	-0.146
-109.020	-80.062	-0.259	0.086
-108.005	118.601	0.174	0.214
-106.991	112.189	-0.375	0.451
-105.976	65.945	0.042	0.042
-104.962	-110.126	0.213	-0.044
-103.947	30.420	-0.220	-0.187
-102.932	-113.939	-0.329	-0.064
-101.918	197.665	0.084	-0.127
-100.903	-98.221	-0.145	0.037
-99.889	-200.000	0.044	-0.437
-98.874	589.839	0.045	-0.110
-97.859	-104.723	0.444	0.102
-96.845	-169.818	0.237	-0.008
-95.830	-200.000	0.008	-0.091
-94.816	800.000	0.062	-0.174
-93.801	25.654	0.119	0.099
-92.786	316.344	-0.111	0.208
-91.772	-106.899	-0.132	0.029
-90.757	44.829	-0.110	0.100
-89.743	-88.814	0.143	0.042
-88.728	-200.000	0.010	-0.192
-87.713	-99.099	-0.305	-0.077
-86.699	800.000	-0.105	-0.435
-85.684	-200.000	-0.006	0.071
-84.670	-93.189	-0.202	0.056
-83.655	800.000	-0.059	0.173
-82.640	-29.011	0.123	0.070
-81.626	41.326	0.083	0.074
-80.611	-49.352	0.338	-0.160
-79.597	-200.000	-0.018	-0.154
-78.582	-200.000	0.071	0.347
-77.567	800.000	-0.015	-0.064
-76.553	4.595	-0.241	-0.175
-75.538	67.165	0.208	0.211
-74.524	372.908	-0.183	-0.369
-73.509	800.000	-0.066	0.248
-72.494	-200.000	-0.005	0.072
-71.480	288.520	0.040	-0.072
-70.465	98.473	-0.189	0.216
-69.451	-95.133	-0.118	-0.032
-68.436	-200.000	-0.021	-0.098
-67.422	57.255	0.051	0.049
-66.407	-200.000	0.003	0.042
-65.392	-200.000	0.000	0.341
-64.378	708.405	-0.143	0.376
-63.363	143.775	0.065	-0.086
-62.349	-101.189	0.378	0.092
-61.334	31.851	-1.138	-0.973
-60.319	394.185	0.418	0.864
-59.305	800.000	-0.293	-0.914
-58.290	48.582	0.704	0.654
-57.276	800.000	0.657	1.842
-56.261	-200.000	93.553	551.245
-55.246	613.199	1383.304	3435.744
-54.232	185.543	2601.934	3834.391
-53.217	122.353	2198.910	2725.999
-52.203	47.427	1648.110	1523.825
-51.188	39.189	1381.263	1225.962
-50.173	35.893	1337.719	1167.319
-49.159	56.688	1385.561	1337.820
-48.144	60.986	1403.951	1382.009
-47.130	39.464	1359.056	1207.744
-46.115	35.731	1341.431	1169.384
-45.100	35.557	1336.490	1163.980
-44.086	35.513	1334.108	1161.594
-43.071	35.454	1331.565	1158.977
-42.057	35.466	1329.715	1157.389
-41.042	35.520	1327.620	1155.847
-40.027	35.502	1326.215	1154.469
-39.013	35.531	1324.283	1152.917
-37.998	35.529	1322.441	1151.252
-36.984	35.642	1320.177	1149.912
-35.969	35.664	1318.315	1148.379
-34.954	35.646	1316.783	1146.892
-33.940	35.767	1315.397	1146.360
-32.925	35.740	1314.292	1145.190
-31.911	35.689	1313.099	1143.801
-30.896	35.628	1311.494	1141.995
-29.881	35.651	1310.389	1141.125
-28.867	35.814	1308.373	1140.292
-27.852	35.771	1306.823	1138.640
-26.838	35.760	1305.576	1137.441
-25.823	35.742	1304.272	1136.155
-24.809	35.723	1302.513	1134.464
-23.794	35.745	1301.111	1133.328
-22.779	35.819	1299.724	1132.510
-21.765	35.649	1299.343	1131.137
-20.750	35.684	1297.423	1129.622
-19.736	35.627	1296.016	1128.022
-18.721	35.549	1294.990	1126.622
-17.706	35.670	1293.480	1125.974
-16.692	35.593	1292.419	1124.557
-15.677	35.614	1290.972	1123.372
-14.663	35.570	1290.194	1122.395
-13.648	35.463	1289.151	1120.817
-12.633	35.481	1288.040	1119.917
-11.619	35.575	1287.110	1119.607
-10.604	35.592	1286.270	1118.933
-9.590	35.482	1285.189	1117.307
-8.575	35.454	1284.480	1116.486
-7.560	35.595	1283.195	1116.142
-6.546	35.551	1282.629	1115.351
-5.531	35.482	1281.217	1113.678
-4.517	35.585	1280.440	1113.557
-3.502	35.492	1280.060	1112.638
-2.487	35.558	1278.616	1111.726
-1.473	35.566	1274.407	1108.065
-0.458	34.054	1259.131	1086.112
0.556	31.917	1238.950	1041.547
1.571	27.413	1242.463	1019.259
2.586	25.863	1255.725	1021.273
3.600	24.182	1243.728	1001.979
4.615	18.171	1170.529	911.008
5.629	9.344	1093.660	806.992
6.644	5.007	1072.656	770.041
7.659	4.675	1069.462	766.046
8.673	4.595	1068.235	764.707
9.688	4.564	1066.812	763.465
10.702	5.306	1065.817	766.328
11.717	10.869	1074.603	800.018
12.731	19.394	1085.681	850.408
13.746	22.364	1089.445	867.951
14.761	21.925	1088.303	864.803
15.775	21.043	1086.231	858.738
16.790	19.908	1084.484	851.698
17.804	19.254	1082.585	846.919
18.819	18.972	1081.129	844.319
19.834	18.698	1080.768	842.622
20.848	18.589	1079.951	841.371
21.863	18.529	1078.823	840.126
22.877	18.333	1078.249	838.645
23.892	18.247	1077.521	837.583
24.907	18.175	1076.777	836.580
25.921	18.274	1075.602	836.075
26.936	18.217	1074.441	834.818
27.950	18.389	1073.085	834.532
28.965	18.505	1071.285	833.624
29.980	18.562	1070.160	832.948
30.994	18.610	1068.775	832.030
32.009	18.647	1068.236	831.717
33.023	18.613	1067.083	830.581
34.038	18.630	1065.661	829.484
35.053	18.505	1064.549	827.942
36.067	18.454	1064.046	827.228
37.082	18.380	1063.517	826.387
38.096	18.631	1062.403	826.660
39.111	18.614	1061.760	826.005
40.126	18.538	1060.310	824.439
41.140	18.154	1059.171	821.635
42.155	18.015	1058.259	820.189
43.169	18.102	1056.584	819.231
44.184	18.008	1056.046	818.293
45.199	18.046	1054.832	817.460
46.213	18.156	1053.896	817.189
47.228	18.382	1053.085	817.566
48.242	18.466	1051.897	816.975
49.257	18.356	1051.083	815.744
50.271	18.417	1050.466	815.482
51.286	18.379	1049.517	814.494
52.301	18.481	1048.482	814.105
53.315	18.256	1048.048	812.626
54.330	18.214	1046.468	811.131
55.344	18.049	1045.554	809.569
56.359	18.197	1044.856	809.657
57.374	18.110	1044.031	808.533
58.388	18.031	1042.884	807.201
59.403	18.036	1042.266	806.677
60.417	18.070	1041.114	805.872
61.432	17.849	1040.658	804.409
62.447	17.829	1039.740	803.535
63.461	17.795	1038.763	802.547
64.476	17.745	1037.836	801.524
65.490	17.797	1036.738	800.850
66.505	17.825	1036.314	800.581
67.520	17.930	1035.560	800.422
68.534	17.856	1035.137	799.676
69.549	17.856	1034.568	799.168
70.563	17.775	1033.396	797.810
71.578	17.538	1032.172	795.687
72.593	17.679	1031.260	795.575
73.607	17.753	1030.702	795.418
74.622	17.712	1030.081	794.676
75.636	17.690	1029.848	794.324
76.651	17.749	1029.017	793.886
77.666	17.577	1028.640	792.726
78.680	17.709	1027.711	792.555
79.695	17.773	1026.886	792.145
80.709	17.864	1026.962	792.555
81.724	18.104	1025.959	792.826
82.739	18.094	1025.228	792.144
83.753	18.357	1024.774	792.941
84.768	18.498	1024.135	793.029
85.782	18.794	1022.927	793.392
86.797	18.518	1022.348	791.598
87.812	18.396	1021.328	790.174
88.826	18.459	1020.198	789.520
89.841	18.490	1019.138	788.771
90.855	18.467	1018.891	788.406
91.870	18.694	1017.601	788.380
92.884	18.562	1017.165	787.367
93.899	18.649	1015.616	786.497
94.914	18.599	1015.331	785.978
95.928	18.690	1014.476	785.664
96.943	18.547	1013.244	783.985
97.957	18.502	1012.263	782.952
98.972	18.425	1011.857	782.216
99.987	18.494	1010.778	781.631
101.001	18.541	1009.770	780.994
102.016	18.502	1008.897	780.071
103.030	18.681	1008.129	780.221
104.045	18.663	1007.681	779.724
105.060	18.485	1006.684	778.076
106.074	18.182	1005.295	775.559
107.089	17.881	1004.593	773.586
108.103	17.950	1003.344	772.870
109.118	17.907	1002.227	771.746
110.133	17.827	1001.646	770.868
111.147	17.810	1000.595	769.915
112.162	17.949	999.905	769.943
113.176	18.124	999.221	770.136
114.191	18.125	998.621	769.608
115.206	18.078	997.692	768.613
116.220	18.032	996.687	767.565
117.235	18.032	995.529	766.609
118.249	18.007	994.598	765.708
119.264	17.992	993.770	764.936
120.279	17.931	992.835	763.876
121.293	17.819	992.618	763.139
122.308	17.742	991.513	761.880
123.322	17.730	990.635	761.086
124.337	17.792	989.444	760.380
125.352	17.651	988.386	758.869
126.366	17.799	987.347	758.665
127.381	17.828	986.309	757.927
128.395	17.689	985.601	756.698
129.410	17.866	984.738	756.754
130.424	18.019	983.889	756.713
131.439	18.022	983.589	756.430
132.454	18.143	982.573	756.116
133.468	18.061	982.325	755.495
134.483	18.314	980.799	755.371
135.497	18.284	980.003	754.561
136.512	18.264	979.084	753.697
137.527	18.254	978.559	753.184
138.541	18.301	977.571	752.562
139.556	18.212	977.095	751.740
140.570	18.296	976.246	751.388
141.585	18.643	975.851	752.539
142.600	18.585	975.020	751.577
143.614	18.645	973.914	750.920
144.629	18.719	973.209	750.636
145.643	18.670	972.330	749.675
146.658	18.449	971.106	747.701
147.673	18.401	970.105	746.656
148.687	18.135	968.942	744.536
149.702	18.128	968.203	743.870
150.716	18.250	966.994	743.409
151.731	18.170	966.771	742.822
152.746	18.316	965.848	742.680
153.760	18.261	965.359	742.002
154.775	18.465	964.555	742.200
155.789	18.518	964.088	742.004
156.804	18.424	963.068	740.748
157.819	18.526	962.868	740.968
158.833	18.678	962.295	741.120
159.848	18.694	961.346	740.391
160.862	18.676	960.389	739.513
161.877	18.361	958.746	736.827
162.892	18.241	957.464	735.260
163.906	18.175	956.933	734.504
164.921	18.107	956.155	733.549
165.935	18.303	955.247	733.631
166.950	18.337	954.443	733.094
167.964	18.315	953.880	732.502
168.979	18.274	952.562	731.251
169.994	18.288	952.026	730.833
171.008	18.459	951.515	731.105
172.023	18.500	950.782	730.651
173.037	18.649	949.884	730.531
174.052	18.557	949.151	729.514
175.067	18.366	948.266	727.954
176.081	18.300	947.423	726.963
177.096	18.198	947.647	726.638
178.110	18.325	946.590	726.301
179.125	18.266	946.143	725.643
180.140	18.313	945.651	725.402
181.154	18.436	945.380	725.650
182.169	18.626	944.893	726.016
183.183	18.847	943.821	726.061
184.198	18.721	943.168	724.966
185.213	18.638	942.351	723.920
186.227	18.718	942.107	724.009
187.242	18.777	941.361	723.621
188.256	18.873	941.284	723.900
189.271	18.942	939.624	722.850
190.286	18.605	939.345	721.157
191.300	18.210	937.724	718.189
192.315	18.014	937.084	716.812
193.329	18.156	936.988	717.271
194.344	18.422	936.211	717.728
195.359	18.519	935.635	717.630
196.373	18.473	935.350	717.154
197.388	18.736	934.813	717.778
198.402	18.889	934.304	717.965
199.417	19.030	934.011	718.265
200.432	18.955	933.682	717.632
201.446	18.974	933.309	717.365
202.461	19.341	932.365	718.102
203.475	19.189	931.873	717.027
204.490	18.974	930.651	715.131
205.504	18.790	930.195	713.953
206.519	18.721	929.179	712.823
207.534	18.743	928.505	712.334
208.548	18.911	927.841	712.458
209.563	18.773	927.526	711.580
210.577	18.840	926.833	711.262
211.592	19.090	926.037	711.622
212.607	19.212	925.337	711.526
213.621	19.126	924.590	710.535
214.636	19.095	923.565	709.558
215.650	19.024	923.092	708.837
216.665	19.005	922.757	708.437
217.680	19.198	922.147	708.702
218.694	19.330	920.992	708.295
219.709	19.132	920.725	707.213
220.723	19.186	919.959	706.782
221.738	19.160	919.161	706.000
222.753	19.089	919.019	705.538
223.767	19.202	918.311	705.395
224.782	19.409	917.739	705.741
225.796	19.393	917.524	705.447
226.811	19.307	916.219	704.030
227.826	19.054	915.780	702.598
228.840	19.079	915.166	702.168
229.855	19.056	914.275	701.329
230.869	19.160	913.350	700.977
231.884	19.078	912.327	699.798
232.899	19.059	911.361	698.918
233.913	18.812	910.960	697.548
234.928	18.793	910.337	696.929
235.942	18.863	909.736	696.693
236.957	18.846	909.070	696.053
237.972	18.928	908.569	695.939
238.986	19.009	907.939	695.723
240.001	18.902	907.548	694.928
241.015	19.059	906.355	694.589
242.030	19.158	906.291	694.876
243.045	19.280	905.528	694.722
244.059	19.184	904.999	693.867
245.074	19.183	904.431	693.367
246.088	19.247	904.026	693.250
247.103	19.259	903.637	692.943
248.117	19.572	902.966	693.623
249.132	19.777	902.774	694.236
250.147	19.922	901.992	694.155
251.161	20.043	901.172	693.946
252.176	20.023	900.456	693.255
253.190	20.006	900.198	692.928
254.205	19.973	899.685	692.340
255.220	20.026	898.756	691.775
256.234	19.919	898.526	691.107
257.249	20.033	897.470	690.690
258.263	19.784	896.930	689.220
259.278	19.987	896.394	689.557
260.293	20.035	895.889	689.299
261.307	20.109	894.929	688.795
262.322	20.218	894.632	688.935
263.336	20.282	893.750	688.452
264.351	20.321	892.723	687.754
265.366	20.195	892.445	686.978
266.380	20.148	892.010	686.395
267.395	19.902	891.467	684.943
268.409	19.849	890.262	683.749
269.424	20.137	889.218	684.025
270.439	19.966	888.454	682.699
271.453	19.760	888.227	681.653
272.468	19.726	887.669	681.030
273.482	19.858	887.303	681.210
274.497	19.971	886.266	680.799
275.512	19.972	885.783	680.371
276.526	20.046	885.542	680.417
277.541	20.052	885.095	680.036
278.555	20.190	884.513	680.070
279.570	20.319	884.339	680.381
280.585	20.264	883.044	679.110
281.599	20.061	882.082	677.517
282.614	19.965	881.362	676.528
283.628	20.130	880.389	676.364
284.643	20.073	880.064	675.834
285.657	20.014	879.810	675.349
286.672	19.995	879.039	674.621
287.687	20.065	878.625	674.520
288.701	20.027	878.288	674.050
289.716	20.126	877.201	673.542
290.730	20.123	876.926	673.259
291.745	20.180	876.142	672.819
292.760	20.262	875.804	672.817
293.774	20.273	875.596	672.643
294.789	20.325	874.223	671.729
295.803	20.273	873.318	670.774
296.818	20.108	873.017	669.847
297.833	20.144	872.465	669.499
298.847	20.128	871.527	668.662
299.862	20.471	870.975	669.500
300.876	20.375	870.544	668.738
301.891	20.481	870.317	668.914
302.906	20.485	869.982	668.614
303.920	20.564	869.564	668.537
304.935	20.746	868.727	668.534
305.949	20.515	868.031	667.052
306.964	20.600	867.064	666.575
307.979	20.584	866.919	666.342
308.993	20.656	866.112	665.938
310.008	20.671	865.547	665.502
311.022	20.612	864.925	664.742
312.037	20.416	864.684	663.749
313.052	20.274	863.452	662.200
314.066	20.309	862.723	661.718
315.081	20.211	862.375	661.020
316.095	20.387	861.376	660.864
317.110	20.337	861.013	660.337
318.125	20.344	860.427	659.855
319.139	20.235	860.073	659.110
320.154	20.423	859.643	659.437
321.168	20.199	859.570	658.472
322.183	20.425	858.433	658.401
323.197	20.488	858.219	658.417
324.212	20.405	857.702	657.649
325.227	20.354	856.806	656.708
326.241	20.372	856.174	656.234
327.256	20.461	855.780	656.213
328.270	20.358	855.357	655.441
329.285	20.299	854.643	654.610
330.300	20.327	853.717	653.952
331.314	20.510	853.452	654.378
332.329	20.637	853.087	654.518
333.343	20.668	852.821	654.372
334.358	20.618	852.650	653.998
335.373	20.614	852.312	653.666
336.387	20.584	851.906	653.183
337.402	20.708	851.592	653.350
338.416	20.854	851.370	653.670
339.431	20.949	850.887	653.595
340.446	21.050	850.342	653.500
341.460	20.960	850.170	652.970
342.475	21.106	849.830	653.199
343.489	21.185	849.492	653.177
344.504	21.279	848.969	653.071
345.519	21.279	848.351	652.536
346.533	21.327	847.736	652.183
347.548	21.081	846.692	650.408
348.562	20.931	846.122	649.353
349.577	20.803	845.859	648.616
350.592	20.772	844.769	647.606
351.606	20.763	844.355	647.198
352.621	20.850	843.478	646.792
353.635	20.837	843.088	646.390
354.650	20.870	842.116	645.706
355.665	21.049	841.774	646.052
356.679	21.135	841.269	645.927
357.694	21.049	840.698	645.113
358.708	20.933	839.921	644.031
359.723	20.941	839.588	643.748
360.738	21.004	838.880	643.379
361.752	21.100	838.491	643.379
362.767	21.126	837.773	642.868
363.781	21.328	837.800	643.573
364.796	21.390	837.327	643.382
365.810	21.565	836.772	643.541
366.825	21.503	836.738	643.230
367.840	21.371	835.928	642.067
368.854	21.340	835.174	641.315
369.869	21.295	834.619	640.668
370.883	21.371	834.322	640.661
371.898	21.425	833.992	640.550
372.913	21.561	833.741	640.798
373.927	21.468	832.995	639.830
374.942	21.577	832.638	639.896
375.956	21.639	832.796	640.189
376.971	21.779	831.679	639.784
377.986	21.798	831.240	639.460
379.000	21.712	830.724	638.691
380.015	21.766	830.192	638.423
381.029	21.734	829.648	637.832
382.044	21.696	829.159	637.260
383.059	21.870	828.398	637.252
384.073	21.625	827.884	635.909
385.088	21.468	827.078	634.664
386.102	21.471	826.345	634.059
387.117	21.347	825.920	633.228
388.132	21.588	825.003	633.340
389.146	21.548	824.702	632.906
390.161	21.647	824.242	632.856
391.175	21.896	823.772	633.337
392.190	21.682	823.429	632.246
393.205	21.517	822.981	631.252
394.219	21.664	822.273	631.182
395.234	21.402	821.914	629.908
396.248	21.202	821.484	628.800
397.263	21.223	821.134	628.552
398.278	21.341	820.613	628.524
399.292	21.369	819.880	628.006
400.307	21.359	819.525	627.644
401.321	21.272	819.263	627.074
402.336	21.430	818.523	627.019
403.350	21.516	818.676	627.389
404.365	21.765	818.150	627.822
405.380	21.784	817.505	627.341
406.394	21.917	817.035	627.398
407.409	21.850	816.939	627.032
408.423	22.017	816.665	627.362
409.438	22.053	816.235	627.107
410.453	22.054	815.913	626.805
411.467	22.020	815.360	626.205
412.482	22.300	814.440	626.439
413.496	22.229	814.219	625.963
414.511	22.362	813.619	625.916
415.526	22.143	813.912	625.309
416.540	22.201	813.179	624.898
417.555	22.160	812.514	624.185
418.569	22.107	812.406	623.858
419.584	22.084	811.942	623.365
420.599	22.354	811.293	623.768
421.613	158.276	1369.313	1786.782
422.628	137.726	1450.625	1786.910
