DTS Sentinel unit serial number:	SN413079Multiplexer serial number:	ORYXHardware model number:	OX4-SRSoftware version number:	ORYX F/W v4.00 Oryx Data Collector v3.7.2.0data status	okinstallation	princeton_trtdifferential loss correction	single-endedforward channel	channel 1reverse channel	N/Adate	2019/09/12time	05:52:11forward acquisition time	60.00reverse acquisition time	0.00gamma	496.2192k internal	0.2321k external	0.2321temperature offset calibration	1.0042default loss term (dB/km)	0.3790temperature slope calibration	1.0000multiplexer offset coefficient	1.0000multiplexer slope coefficient	1.0000fibre end	0.00T internal ref (°C)	32.06T ext. ref 1 (°C)	1.57T ext. ref 2 (°C)	27.51length (m)	temperature (°C)	Stokes	anti-Stokes-747.200	5.564	0.163	0.122
-746.185	800.000	-0.088	0.319
-745.171	-154.853	0.312	-0.021
-744.156	22.492	-0.561	0.464
-743.142	-52.001	0.171	0.080
-742.127	-98.031	-0.136	0.035
-741.112	-12.483	-0.138	0.091
-740.098	-64.822	-0.173	-0.071
-739.083	63.529	0.095	-0.096
-738.069	-200.000	0.020	0.407
-737.054	-46.740	-0.247	-0.122
-736.039	-157.918	-0.399	-0.024
-735.025	101.164	0.253	-0.298
-734.010	800.000	-0.062	0.231
-732.996	72.739	-0.293	0.309
-731.981	-80.881	-0.301	-0.101
-730.966	7.637	-0.260	0.197
-729.952	800.000	-0.098	0.383
-728.937	-144.097	-0.332	0.031
-727.923	789.089	-0.163	0.453
-726.908	-67.742	-0.378	0.149
-725.894	22.826	-0.217	-0.180
-724.879	-200.000	0.015	-0.220
-723.864	-200.000	0.003	-0.049
-722.850	-72.397	0.298	0.112
-721.835	800.000	0.097	0.419
-720.821	-18.101	-0.184	-0.116
-719.806	268.996	0.152	0.269
-718.791	-81.087	-0.351	0.117
-717.777	518.924	-0.045	0.105
-716.762	53.851	-0.100	0.097
-715.748	-200.000	-0.027	-0.134
-714.733	64.813	0.126	-0.129
-713.718	-98.950	-0.625	-0.160
-712.704	-13.292	0.379	-0.249
-711.689	7.425	0.104	-0.078
-710.675	-167.682	0.318	0.013
-709.660	-11.950	0.208	-0.138
-708.645	-200.000	-0.001	0.019
-707.631	-159.983	0.354	-0.020
-706.616	-200.000	0.011	-0.208
-705.602	-200.000	0.030	0.395
-704.587	8.295	-0.115	0.087
-703.572	-89.965	0.215	0.063
-702.558	374.742	0.116	0.238
-701.543	386.899	0.141	-0.293
-700.529	-106.875	0.187	-0.042
-699.514	-41.904	0.120	-0.062
-698.499	530.572	-0.050	-0.120
-697.485	800.000	0.097	0.308
-696.470	-16.958	0.272	-0.174
-695.456	91.770	-0.062	-0.070
-694.441	-7.879	-0.078	0.053
-693.426	296.484	-0.128	-0.237
-692.412	-196.960	0.300	-0.002
-691.397	252.386	-0.097	0.167
-690.383	196.515	-0.036	0.055
-689.368	67.957	0.166	0.171
-688.354	800.000	-0.039	0.149
-687.339	210.938	-0.092	0.146
-686.324	-200.000	-0.005	0.075
-685.310	-200.000	-0.001	0.224
-684.295	800.000	-0.098	-0.326
-683.281	102.330	-0.331	-0.390
-682.266	800.000	-0.076	0.254
-681.251	-200.000	-0.024	0.130
-680.237	-200.000	0.002	-0.308
-679.222	169.095	0.081	0.116
-678.208	-200.000	-0.019	0.218
-677.193	6.208	-0.031	0.023
-676.178	-25.645	-0.298	-0.177
-675.164	-16.318	-0.157	-0.100
-674.149	800.000	0.015	-0.059
-673.135	-5.576	0.120	0.083
-672.120	-93.238	-0.385	-0.108
-671.105	-120.581	-0.152	-0.026
-670.091	202.462	-0.110	-0.171
-669.076	-200.000	0.041	-0.204
-668.062	85.921	-0.180	0.199
-667.047	800.000	-0.072	0.235
-666.032	-87.869	0.207	-0.063
-665.018	-30.662	0.327	-0.187
-664.003	507.503	0.060	-0.140
-662.989	217.066	0.081	-0.130
-661.974	-161.225	0.172	0.009
-660.959	-200.000	-0.028	0.191
-659.945	174.306	0.093	0.136
-658.930	-200.000	-0.017	-0.247
-657.916	-200.000	-0.041	-0.208
-656.901	79.734	-0.081	0.087
-655.886	-200.000	-0.028	-0.270
-654.872	27.272	0.101	0.085
-653.857	72.979	-0.038	-0.040
-652.843	-135.596	0.040	-0.005
-651.828	-200.000	0.014	0.158
-650.814	-200.000	-0.019	-0.112
-649.799	-80.366	-0.157	-0.053
-648.784	-103.550	-0.069	0.016
-647.770	-155.629	0.185	0.012
-646.755	106.047	0.241	-0.287
-645.741	205.570	0.033	-0.052
-644.726	-200.000	0.011	0.110
-643.711	-55.968	-0.139	-0.063
-642.697	800.000	0.168	0.515
-641.682	221.874	-0.225	0.364
-640.668	333.450	-0.083	-0.161
-639.653	-106.510	-0.261	0.059
-638.638	-5.722	-0.360	-0.249
-637.624	48.698	-0.186	0.176
-636.609	800.000	0.039	-0.166
-635.595	119.437	-0.035	-0.044
-634.580	146.928	-0.182	-0.246
-633.565	-200.000	0.006	-0.415
-632.551	152.955	-0.091	-0.126
-631.536	-92.228	0.262	-0.074
-630.522	408.801	-0.054	0.115
-629.507	-91.305	0.091	-0.026
-628.492	333.157	0.066	0.128
-627.478	-69.495	-0.048	0.018
-626.463	-154.031	-0.251	0.017
-625.449	-186.155	0.068	0.001
-624.434	20.228	0.106	-0.087
-623.419	119.421	0.176	-0.219
-622.405	418.809	-0.069	-0.148
-621.390	800.000	-0.104	0.415
-620.376	-197.229	0.173	-0.001
-619.361	142.347	0.063	-0.084
-618.346	45.494	0.166	-0.154
-617.332	207.107	-0.081	-0.127
-616.317	-8.465	0.178	0.120
-615.303	800.000	-0.034	-0.107
-614.288	105.013	0.041	-0.049
-613.273	-86.566	-0.167	-0.052
-612.259	-83.423	-0.400	0.129
-611.244	800.000	-0.105	-0.355
-610.230	697.438	-0.148	-0.392
-609.215	800.000	0.030	-0.101
-608.201	-42.771	-0.153	0.078
-607.186	-136.151	0.307	0.036
-606.171	38.873	-0.179	0.160
-605.157	-88.849	0.087	-0.026
-604.142	-200.000	-0.012	-0.471
-603.128	-155.154	-0.229	-0.015
-602.113	64.182	0.145	-0.146
-601.098	105.496	-0.115	0.136
-600.084	40.560	0.023	-0.021
-599.069	-43.723	0.073	-0.037
-598.055	482.899	-0.073	0.166
-597.040	800.000	-0.071	0.206
-596.025	800.000	0.066	-0.260
-595.011	16.094	-0.118	-0.093
-593.996	215.431	0.241	0.384
-592.982	43.465	-0.115	0.106
-591.967	-200.000	0.021	-0.097
-590.952	-200.000	0.015	-0.124
-589.938	-200.000	0.006	0.394
-588.923	303.923	-0.183	0.340
-587.909	25.700	-0.111	0.093
-586.894	94.914	0.218	0.250
-585.879	152.822	-0.199	-0.273
-584.865	-164.116	-0.325	0.015
-583.850	226.080	-0.159	0.259
-582.836	240.741	0.200	-0.336
-581.821	800.000	-0.072	0.257
-580.806	600.063	0.043	0.107
-579.792	-32.506	0.211	-0.118
-578.777	800.000	0.014	-0.046
-577.763	90.870	-0.086	0.096
-576.748	800.000	0.047	0.143
-575.733	244.157	0.124	0.209
-574.719	800.000	-0.006	0.023
-573.704	-192.693	-0.200	-0.002
-572.690	10.413	0.187	-0.143
-571.675	192.391	0.088	0.134
-570.661	-200.000	-0.005	0.207
-569.646	88.900	-0.090	-0.101
-568.631	-86.104	0.201	-0.062
-567.617	-74.002	0.057	-0.021
-566.602	94.449	0.203	-0.232
-565.588	-129.299	0.135	0.019
-564.573	1.646	-0.276	0.200
-563.558	-200.000	0.029	0.191
-562.544	-200.000	0.006	0.071
-561.529	-106.770	0.112	0.025
-560.515	800.000	-0.108	0.316
-559.500	-179.942	0.212	0.005
-558.485	-85.968	0.059	-0.018
-557.471	149.589	-0.210	-0.286
-556.456	-25.403	0.300	0.178
-555.442	17.615	-0.173	-0.138
-554.427	-37.423	0.084	-0.045
-553.412	142.700	0.150	-0.201
-552.398	-1.640	0.223	-0.158
-551.383	-200.000	-0.019	-0.325
-550.369	38.033	0.287	-0.256
-549.354	-19.934	-0.403	0.249
-548.339	197.213	-0.099	-0.151
-547.325	36.492	-0.315	0.279
-546.310	-33.287	-0.233	-0.129
-545.296	-82.825	0.184	0.059
-544.281	33.033	-0.132	0.115
-543.266	-80.116	-0.505	0.170
-542.252	-104.895	0.424	0.098
-541.237	253.536	-0.052	0.089
-540.223	278.142	0.119	-0.212
-539.208	-105.572	-0.180	-0.041
-538.193	-200.000	0.005	0.150
-537.179	49.249	-0.079	0.075
-536.164	-95.271	-0.093	-0.025
-535.150	195.971	-0.191	-0.292
-534.135	71.976	0.133	0.139
-533.121	-100.485	-0.459	-0.114
-532.106	-200.000	0.111	-0.502
-531.091	800.000	0.070	-0.229
-530.077	110.313	-0.278	-0.335
-529.062	207.886	0.064	-0.101
-528.048	63.390	0.130	0.131
-527.033	617.746	0.147	0.370
-526.018	800.000	-0.021	0.077
-525.004	-200.000	-0.015	-0.094
-523.989	43.947	0.161	0.147
-522.975	-63.883	0.126	-0.051
-521.960	-119.470	-0.054	0.009
-520.945	-23.275	0.175	0.106
-519.931	800.000	0.080	0.239
-518.916	82.300	-0.161	-0.175
-517.902	41.053	-0.207	-0.188
-516.887	402.724	-0.119	-0.250
-515.872	-85.499	-0.055	0.017
-514.858	-200.000	-0.028	-0.486
-513.843	-200.000	0.084	-0.000
-512.829	-200.000	0.050	0.715
-511.814	-2.628	-0.166	0.116
-510.799	-118.995	0.166	-0.029
-509.785	-63.637	0.111	0.045
-508.770	707.966	0.107	-0.284
-507.756	-200.000	-0.014	-0.205
-506.741	800.000	0.056	0.168
-505.726	-80.432	0.254	-0.085
-504.712	-95.749	0.156	-0.042
-503.697	-200.000	-0.007	0.260
-502.683	582.117	-0.087	-0.214
-501.668	800.000	0.048	-0.207
-500.653	277.118	-0.089	-0.159
-499.639	800.000	-0.057	0.160
-498.624	-200.000	-0.021	0.121
-497.610	242.233	-0.084	-0.141
-496.595	187.596	0.167	-0.249
-495.581	-1.170	-0.161	-0.114
-494.566	57.498	-0.206	0.201
-493.551	489.076	-0.071	-0.162
-492.537	22.759	0.095	0.078
-491.522	0.193	-0.227	-0.162
-490.508	8.075	0.366	0.275
-489.493	694.056	0.057	0.149
-488.478	-141.003	0.248	0.025
-487.464	94.782	0.084	-0.096
-486.449	206.460	-0.157	-0.244
-485.435	-52.624	0.140	-0.065
-484.420	-98.065	0.396	-0.102
-483.405	-76.136	0.287	0.101
-482.391	11.267	0.184	-0.141
-481.376	800.000	-0.090	-0.278
-480.362	107.562	-0.160	-0.190
-479.347	-55.498	-0.117	-0.053
-478.332	90.831	-0.199	0.223
-477.318	74.403	0.190	0.200
-476.303	546.586	-0.173	-0.415
-475.289	75.293	-0.152	-0.160
-474.274	41.775	-0.160	-0.145
-473.259	51.858	-0.055	-0.052
-472.245	-1.754	-0.298	-0.210
-471.230	1.058	0.080	0.057
-470.216	17.533	0.103	-0.082
-469.201	-127.615	-0.571	0.083
-468.186	42.764	0.186	0.169
-467.172	-112.917	0.207	-0.041
-466.157	-184.565	0.106	0.002
-465.143	29.244	0.060	-0.051
-464.128	-21.188	-0.175	0.107
-463.113	-73.227	-0.320	-0.117
-462.099	-108.973	0.081	-0.017
-461.084	44.750	-0.077	-0.071
-460.070	-165.958	-0.325	-0.014
-459.055	-18.016	0.227	0.142
-458.040	800.000	0.120	-0.376
-457.026	-200.000	-0.002	-0.173
-456.011	-141.736	0.235	0.024
-454.997	-117.843	0.083	0.015
-453.982	800.000	-0.131	-0.451
-452.968	8.180	-0.019	0.014
-451.953	41.772	0.113	-0.102
-450.938	-4.554	0.275	0.190
-449.924	-72.613	-0.422	0.156
-448.909	-137.305	-0.197	-0.022
-447.895	-141.662	0.101	0.010
-446.880	-101.595	-0.357	-0.087
-445.865	12.386	0.227	-0.175
-444.851	800.000	0.074	-0.298
-443.836	89.438	0.166	-0.185
-442.822	169.209	0.057	0.081
-441.807	-200.000	-0.002	0.066
-440.792	-44.684	-0.212	-0.106
-439.778	-131.342	0.032	-0.004
-438.763	-200.000	-0.057	-0.263
-437.749	-200.000	0.006	0.095
-436.734	52.815	0.064	0.061
-435.719	-200.000	-0.035	0.336
-434.705	-99.005	0.203	-0.051
-433.690	417.448	-0.071	-0.151
-432.676	67.064	-0.309	0.315
-431.661	-80.388	-0.248	0.083
-430.646	-106.104	0.132	-0.030
-429.632	-30.871	-0.024	-0.014
-428.617	-172.510	-0.278	-0.009
-427.603	-60.053	-0.065	0.028
-426.588	-34.829	0.122	-0.066
-425.573	-200.000	0.018	0.127
-424.559	337.522	-0.063	0.123
-423.544	-116.520	-0.353	0.065
-422.530	-200.000	-0.053	0.735
-421.515	-200.000	-0.020	0.263
-420.500	367.842	-0.070	0.142
-419.486	178.362	0.059	0.085
-418.471	-130.825	-0.124	0.017
-417.457	31.448	0.236	0.203
-416.442	314.006	-0.151	0.284
-415.428	-200.000	-0.019	0.158
-414.413	185.033	-0.218	-0.322
-413.398	800.000	0.137	0.520
-412.384	-75.194	-0.218	-0.078
-411.369	-75.839	0.201	-0.071
-410.355	91.179	0.089	-0.100
-409.340	800.000	-0.043	0.129
-408.325	-88.732	0.208	0.062
-407.311	-200.000	0.011	-0.231
-406.296	800.000	-0.110	-0.316
-405.282	800.000	-0.016	-0.054
-404.267	-17.549	-0.135	-0.084
-403.252	486.394	-0.087	0.199
-402.238	111.901	-0.162	0.195
-401.223	-200.000	0.022	-0.301
-400.209	-14.776	0.064	0.041
-399.194	-113.320	-0.138	-0.027
-398.179	-200.000	0.076	-0.451
-397.165	-24.005	-0.380	0.227
-396.150	-101.812	0.095	0.023
-395.136	-157.387	-0.251	-0.015
-394.121	-174.298	-0.109	-0.003
-393.106	-163.752	0.185	-0.009
-392.092	385.580	-0.069	-0.142
-391.077	-8.983	-0.429	0.287
-390.063	129.106	-0.049	0.062
-389.048	-12.753	-0.027	0.018
-388.033	311.432	-0.051	-0.095
-387.019	-200.000	-0.045	0.436
-386.004	-70.727	-0.299	0.113
-384.990	155.735	0.253	-0.348
-383.975	-135.706	0.280	0.033
-382.960	-159.198	0.118	-0.007
-381.946	-200.000	-0.000	-0.016
-380.931	-39.474	0.094	0.049
-379.917	-126.346	-0.302	0.045
-378.902	209.923	0.147	-0.229
-377.888	-43.686	0.436	0.219
-376.873	207.843	-0.172	0.267
-375.858	-65.169	-0.215	-0.086
-374.844	-72.938	-0.155	0.057
-373.829	-43.592	0.292	0.147
-372.815	-200.000	0.023	-0.171
-371.800	-11.025	-0.175	0.115
-370.785	79.543	0.128	-0.137
-369.771	585.813	0.130	-0.317
-368.756	-200.000	0.021	0.305
-367.742	-4.640	-0.123	-0.084
-366.727	21.268	-0.063	-0.051
-365.712	484.702	0.149	-0.338
-364.698	-182.825	0.253	0.005
-363.683	-200.000	0.092	-0.460
-362.669	-175.636	-0.300	-0.008
-361.654	-200.000	-0.051	-0.225
-360.639	-200.000	0.002	0.450
-359.625	-65.176	0.202	0.081
-358.610	-102.411	0.379	0.090
-357.596	-200.000	0.001	-0.244
-356.581	-167.813	0.294	0.012
-355.566	224.559	0.080	0.129
-354.552	-200.000	0.011	0.133
-353.537	-71.907	-0.232	0.086
-352.523	-129.689	-0.019	-0.003
-351.508	-186.018	0.362	0.005
-350.493	155.470	-0.061	0.083
-349.479	15.987	0.190	0.149
-348.464	167.779	-0.046	0.065
-347.450	-200.000	-0.005	0.324
-346.435	1.817	0.145	0.104
-345.420	-124.097	0.111	-0.017
-344.406	-96.812	-0.051	-0.013
-343.391	-53.550	-0.357	0.162
-342.377	-32.604	0.148	0.082
-341.362	800.000	-0.027	0.095
-340.348	-200.000	0.022	-0.110
-339.333	800.000	0.079	0.280
-338.318	800.000	0.089	-0.325
-337.304	-200.000	0.002	-0.047
-336.289	671.396	-0.113	0.293
-335.275	146.260	0.138	-0.185
-334.260	-200.000	0.015	0.135
-333.245	-13.839	0.197	0.127
-332.231	-9.522	-0.150	0.099
-331.216	-54.708	-0.319	-0.143
-330.202	141.286	-0.177	0.233
-329.187	-200.000	0.010	0.588
-328.172	-200.000	0.032	-0.280
-327.158	-200.000	0.006	0.329
-326.143	119.005	-0.118	-0.145
-325.129	176.427	0.147	-0.212
-324.114	-51.833	0.160	-0.074
-323.099	99.518	-0.206	0.237
-322.085	800.000	-0.048	-0.179
-321.070	-136.796	0.102	0.012
-320.056	113.779	-0.111	-0.134
-319.041	252.848	-0.074	0.125
-318.026	-29.118	-0.104	0.059
-317.012	-200.000	-0.046	-0.205
-315.997	124.293	-0.170	0.212
-314.983	702.108	0.081	0.212
-313.968	-6.281	0.229	-0.155
-312.953	-125.938	-0.196	-0.029
-311.939	-83.233	0.264	-0.084
-310.924	81.520	0.130	0.140
-309.910	-103.203	-0.125	0.029
-308.895	-200.000	0.000	-0.054
-307.880	-200.000	-0.043	0.340
-306.866	104.850	-0.089	-0.105
-305.851	-136.962	0.226	0.026
-304.837	330.955	-0.087	-0.166
-303.822	35.427	0.177	0.154
-302.807	-42.560	-0.201	-0.101
-301.793	-200.000	-0.068	-0.444
-300.778	383.553	-0.059	0.121
-299.764	-200.000	0.087	-0.515
-298.749	800.000	0.033	-0.132
-297.735	-200.000	0.057	0.431
-296.720	-74.780	0.047	0.017
-295.705	76.189	0.088	-0.092
-294.691	800.000	-0.071	-0.286
-293.676	-39.491	0.613	-0.319
-292.662	-28.855	0.134	-0.076
-291.647	-108.315	0.327	0.070
-290.632	-104.665	-0.267	-0.061
-289.618	-134.053	0.372	0.046
-288.603	-101.327	0.503	0.122
-287.589	-200.000	0.000	-0.253
-286.574	202.723	-0.172	-0.264
-285.559	644.779	-0.121	0.306
-284.545	-84.673	0.081	0.025
-283.530	315.397	0.040	-0.075
-282.516	-8.611	0.269	-0.179
-281.501	-69.295	0.072	0.027
-280.486	177.211	-0.063	-0.091
-279.472	800.000	0.096	0.320
-278.457	-129.632	-0.170	0.023
-277.443	534.527	-0.067	0.158
-276.428	203.720	-0.141	-0.216
-275.413	-2.414	-0.213	0.148
-274.399	-79.850	0.385	-0.129
-273.384	-17.858	-0.051	0.032
-272.370	-28.205	0.238	0.136
-271.355	354.064	-0.147	0.289
-270.340	-200.000	-0.007	-0.143
-269.326	-200.000	-0.063	0.382
-268.311	-52.604	0.364	-0.167
-267.297	800.000	-0.187	-0.582
-266.282	-200.000	-0.052	-0.261
-265.267	-10.121	0.185	-0.122
-264.253	34.494	0.347	-0.300
-263.238	-71.758	-0.305	-0.113
-262.224	-70.724	-0.430	0.161
-261.209	800.000	-0.136	-0.461
-260.195	227.245	0.103	-0.166
-259.180	148.879	0.035	-0.046
-258.165	584.673	0.086	-0.210
-257.151	-0.212	-0.063	0.045
-256.136	-48.106	0.496	-0.238
-255.122	-128.597	-0.177	-0.025
-254.107	115.087	0.148	-0.179
-253.092	-41.619	-0.316	-0.161
-252.078	-200.000	0.023	0.199
-251.063	336.755	0.087	0.167
-250.049	800.000	-0.030	-0.102
-249.034	433.534	0.135	0.290
-248.019	-117.655	0.172	-0.031
-247.005	153.012	0.076	-0.103
-245.990	-8.370	-0.201	0.134
-244.976	-111.453	-0.081	-0.016
-243.961	102.781	0.165	-0.192
-242.946	-141.201	-0.163	0.016
-241.932	-183.412	-0.205	0.004
-240.917	-17.101	0.232	-0.145
-239.903	678.784	-0.146	0.377
-238.888	-200.000	0.014	0.293
-237.873	800.000	0.106	0.321
-236.859	720.254	-0.053	-0.140
-235.844	-53.860	0.238	0.108
-234.830	-84.034	0.164	0.052
-233.815	-200.000	0.006	-0.054
-232.800	-86.799	0.234	0.071
-231.786	160.154	0.098	0.135
-230.771	262.742	0.082	-0.142
-229.757	143.606	0.097	-0.128
-228.742	-200.000	-0.005	0.118
-227.727	-91.287	0.014	-0.004
-226.713	-19.965	-0.225	0.137
-225.698	-200.000	-0.050	0.279
-224.684	508.479	-0.068	0.158
-223.669	-200.000	-0.072	0.351
-222.655	233.684	0.169	0.276
-221.640	195.425	-0.129	0.194
-220.625	272.318	-0.089	-0.156
-219.611	19.575	-0.042	0.034
-218.596	-92.356	-0.050	-0.014
-217.582	292.590	-0.033	0.059
-216.567	-118.325	0.376	0.066
-215.552	51.359	0.261	-0.245
-214.538	-200.000	0.012	-0.270
-213.523	-200.000	-0.044	-0.371
-212.509	-171.085	-0.281	-0.009
-211.494	171.946	-0.116	0.164
-210.479	-150.687	0.241	0.018
-209.465	184.903	-0.054	-0.080
-208.450	210.790	0.148	-0.230
-207.436	-82.733	-0.141	-0.045
-206.421	72.080	-0.066	-0.068
-205.406	-200.000	0.044	0.468
-204.392	-200.000	-0.039	-0.177
-203.377	210.416	-0.072	0.112
-202.363	473.628	-0.115	0.257
-201.348	299.625	0.026	0.047
-200.333	129.858	0.067	0.085
-199.319	-99.546	-0.143	0.035
-198.304	-120.646	-0.164	0.027
-197.290	-5.210	-0.211	0.144
-196.275	149.100	0.041	-0.055
-195.260	-120.080	-0.137	0.023
-194.246	23.254	0.106	-0.086
-193.231	-131.872	-0.161	0.021
-192.217	-21.567	0.299	0.180
-191.202	89.929	0.191	-0.211
-190.187	187.054	-0.050	-0.074
-189.173	-117.800	0.104	0.019
-188.158	95.664	0.120	0.135
-187.144	80.281	-0.315	0.336
-186.129	-25.492	-0.042	0.025
-185.114	-53.170	0.158	-0.072
-184.100	81.457	-0.207	0.221
-183.085	565.327	0.053	0.127
-182.071	98.441	0.230	0.262
-181.056	187.236	-0.147	0.217
-180.042	-85.512	0.061	0.019
-179.027	-200.000	-0.045	0.336
-178.012	-177.117	0.238	0.006
-176.998	800.000	0.135	0.466
-175.983	800.000	0.070	-0.246
-174.969	33.562	0.291	0.250
-173.954	-84.796	0.237	-0.074
-172.939	-200.000	0.019	-0.088
-171.925	-69.845	0.055	0.021
-170.910	-41.030	-0.281	-0.144
-169.896	227.889	-0.109	-0.176
-168.881	12.684	-0.294	-0.224
-167.866	-200.000	-0.040	-0.327
-166.852	-127.057	0.291	-0.042
-165.837	82.615	0.115	0.123
-164.823	800.000	-0.044	-0.126
-163.808	-85.348	-0.212	0.065
-162.793	18.859	-0.133	0.105
-161.779	708.837	0.047	0.123
-160.764	167.654	-0.076	-0.107
-159.750	-200.000	0.008	-0.232
-158.735	800.000	0.077	0.254
-157.720	222.844	0.065	0.103
-156.706	296.457	0.070	0.128
-155.691	383.891	-0.089	-0.181
-154.677	-97.530	0.174	-0.045
-153.662	395.084	-0.091	0.187
-152.647	376.644	-0.061	0.124
-151.633	-143.953	0.145	-0.013
-150.618	800.000	0.058	-0.226
-149.604	-102.289	0.055	-0.013
-148.589	590.529	0.123	0.300
-147.574	258.471	-0.067	-0.114
-146.560	571.870	0.052	-0.126
-145.545	310.851	-0.116	0.215
-144.531	48.333	-0.113	-0.105
-143.516	10.390	-0.234	0.176
-142.502	-146.766	0.112	-0.010
-141.487	-13.611	-0.268	0.171
-140.472	149.429	0.275	0.367
-139.458	-67.071	0.318	0.124
-138.443	389.502	-0.130	0.266
-137.429	119.089	0.290	0.354
-136.414	-200.000	-0.017	-0.092
-135.399	-37.099	0.115	0.061
-134.385	59.249	0.245	0.239
-133.370	-138.253	-0.327	0.036
-132.356	-125.062	-0.132	0.020
-131.341	107.542	0.022	-0.025
-130.326	-168.713	0.041	-0.002
-129.312	93.535	-0.142	0.159
-128.297	-123.009	-0.147	-0.023
-127.283	82.252	0.077	-0.083
-126.268	-40.024	0.257	0.132
-125.253	138.950	0.117	0.152
-124.239	-200.000	0.019	-0.223
-123.224	575.457	0.093	0.224
-122.210	-200.000	0.027	-0.202
-121.195	142.710	0.063	-0.082
-120.180	518.290	-0.137	0.317
-119.166	-200.000	-0.065	0.331
-118.151	286.177	0.102	0.182
-117.137	29.859	-0.103	0.086
-116.122	-192.888	0.495	0.004
-115.107	800.000	0.050	-0.174
-114.093	433.180	0.014	-0.030
-113.078	-160.318	0.449	0.024
-112.064	317.176	-0.121	0.225
-111.049	-161.552	-0.119	0.006
-110.034	-200.000	0.020	-0.209
-109.020	800.000	0.029	-0.084
-108.005	-149.391	0.290	-0.023
-106.991	24.952	-0.042	-0.034
-105.976	-200.000	-0.024	0.287
-104.962	235.474	-0.027	-0.044
-103.947	-136.334	0.147	0.017
-102.932	-81.620	-0.209	0.068
-101.918	-200.000	0.031	-0.138
-100.903	-200.000	0.001	-0.143
-99.889	10.345	-0.159	-0.119
-98.874	-1.566	0.272	0.189
-97.859	134.826	0.012	0.015
-96.845	-3.979	-0.028	0.019
-95.830	-83.574	-0.193	0.061
-94.816	-200.000	-0.012	-0.252
-93.801	47.466	0.222	-0.204
-92.786	-200.000	0.002	-0.301
-91.772	225.381	-0.171	-0.273
-90.757	750.772	0.057	-0.151
-89.743	-200.000	-0.008	-0.061
-88.728	552.988	-0.243	0.576
-87.713	-189.507	0.081	-0.001
-86.699	402.286	-0.125	-0.258
-85.684	-79.270	0.280	0.094
-84.670	321.213	-0.058	-0.109
-83.655	-200.000	-0.001	0.252
-82.640	401.257	0.047	0.098
-81.626	-58.117	-0.072	-0.031
-80.611	83.588	-0.075	-0.081
-79.597	-137.089	-0.200	0.023
-78.582	800.000	-0.046	0.143
-77.567	62.766	-0.047	-0.046
-76.553	135.002	0.227	0.290
-75.538	483.775	0.082	-0.183
-74.524	366.877	0.132	0.263
-73.509	437.725	0.119	0.255
-72.494	216.523	-0.166	0.260
-71.480	-43.483	0.096	0.048
-70.465	-200.000	0.025	-0.162
-69.451	-83.220	-0.142	0.045
-68.436	-115.169	-0.316	0.059
-67.422	71.864	0.279	0.285
-66.407	-200.000	0.014	0.159
-65.392	126.659	0.154	0.192
-64.378	-16.400	0.126	0.078
-63.363	-200.000	0.005	0.067
-62.349	-200.000	0.046	0.320
-61.334	-15.568	-1.147	-0.720
-60.319	-26.497	0.643	0.371
-59.305	-200.000	-0.153	-0.913
-58.290	261.612	0.675	1.150
-57.276	324.398	0.844	1.587
-56.261	-200.000	95.475	594.815
-55.246	566.223	1370.155	3270.862
-54.232	161.183	2549.698	3506.991
-53.217	113.465	2142.032	2558.671
-52.203	44.076	1603.547	1446.521
-51.188	35.568	1341.150	1158.728
-50.173	32.434	1299.668	1104.483
-49.159	54.262	1347.338	1275.859
-48.144	56.670	1362.912	1304.914
-47.130	35.761	1321.811	1142.986
-46.115	32.281	1304.585	1107.586
-45.100	32.075	1299.796	1102.269
-44.086	31.912	1297.577	1099.390
-43.071	31.919	1294.993	1097.197
-42.057	31.867	1293.039	1095.190
-41.042	31.902	1291.333	1093.906
-40.027	32.012	1289.773	1093.185
-39.013	32.057	1287.689	1091.634
-37.998	32.106	1285.873	1090.336
-36.984	32.005	1284.722	1088.734
-35.969	31.988	1282.572	1086.768
-34.954	32.097	1280.541	1085.637
-33.940	32.018	1279.734	1084.450
-32.925	32.200	1278.100	1084.071
-31.911	32.119	1276.639	1082.326
-30.896	32.152	1274.871	1080.971
-29.881	32.191	1273.511	1080.002
-28.867	32.131	1272.526	1078.778
-27.852	32.137	1271.015	1077.487
-26.838	32.301	1269.170	1076.823
-25.823	32.164	1268.288	1075.245
-24.809	32.069	1267.239	1073.770
-23.794	32.114	1265.810	1072.776
-22.779	32.216	1264.168	1071.921
-21.765	32.229	1262.938	1070.913
-20.750	32.172	1261.578	1069.392
-19.736	32.068	1260.407	1067.765
-18.721	31.961	1259.492	1066.338
-17.706	32.045	1258.043	1065.549
-16.692	32.033	1256.712	1064.306
-15.677	32.004	1256.005	1063.504
-14.663	32.015	1254.860	1062.552
-13.648	31.902	1253.774	1060.950
-12.633	31.969	1252.406	1060.131
-11.619	32.010	1251.808	1059.817
-10.604	31.988	1250.817	1058.807
-9.590	31.979	1250.073	1058.088
-8.575	31.967	1249.102	1057.156
-7.560	32.016	1247.951	1056.413
-6.546	31.944	1247.261	1055.386
-5.531	31.978	1246.152	1054.598
-4.517	31.970	1245.417	1053.887
-3.502	31.975	1244.675	1053.247
-2.487	31.970	1243.593	1052.257
-1.473	31.995	1239.216	1048.655
-0.458	30.682	1224.977	1029.306
0.556	27.243	1207.553	993.160
1.571	23.741	1213.533	978.731
2.586	22.973	1228.646	986.548
3.600	22.355	1218.069	974.548
4.615	16.115	1144.188	882.790
5.629	5.964	1068.145	774.210
6.644	1.903	1047.868	739.766
7.659	1.590	1045.037	736.188
8.673	1.344	1044.436	734.509
9.688	1.425	1043.014	733.840
10.702	1.603	1041.094	733.279
11.717	7.650	1049.918	768.754
12.731	17.832	1064.649	829.193
13.746	23.529	1071.551	862.275
14.761	24.727	1073.122	869.289
15.775	24.840	1072.645	869.376
16.790	24.537	1071.698	867.059
17.804	24.601	1070.825	866.585
18.819	24.790	1070.720	867.340
19.834	24.908	1070.114	867.346
20.848	24.867	1069.891	866.891
21.863	24.794	1069.542	866.177
22.877	24.802	1068.544	865.330
23.892	24.697	1067.758	864.111
24.907	24.677	1067.203	863.487
25.921	24.609	1066.632	862.622
26.936	24.637	1065.241	861.554
27.950	24.681	1063.289	860.114
28.965	24.650	1061.634	858.549
29.980	24.581	1060.153	856.943
30.994	24.870	1058.943	857.274
32.009	24.827	1058.136	856.340
33.023	24.662	1057.084	854.623
34.038	24.589	1056.365	853.618
35.053	24.816	1055.805	854.172
36.067	24.880	1054.923	853.690
37.082	24.919	1054.049	853.093
38.096	25.077	1053.586	853.395
39.111	25.085	1053.029	852.905
40.126	24.912	1051.379	850.670
41.140	24.600	1049.811	847.849
42.155	24.384	1048.357	845.576
43.169	24.376	1047.679	844.915
44.184	24.433	1046.629	844.265
45.199	24.374	1045.535	843.027
46.213	24.479	1044.885	842.924
47.228	24.645	1043.833	842.784
48.242	24.696	1043.174	842.420
49.257	24.686	1042.366	841.643
50.271	24.724	1042.100	841.534
51.286	24.783	1041.224	841.029
52.301	24.770	1040.078	839.970
53.315	24.861	1038.604	839.132
54.330	24.712	1038.189	838.022
55.344	24.726	1037.710	837.629
56.359	24.820	1036.612	837.108
57.374	24.513	1035.493	834.693
58.388	24.605	1034.847	834.528
59.403	24.632	1033.690	833.650
60.417	24.328	1033.068	831.657
61.432	24.484	1032.437	831.800
62.447	24.578	1032.163	831.945
63.461	24.502	1031.651	831.104
64.476	24.498	1029.953	829.642
65.490	24.456	1029.252	828.813
66.505	24.599	1028.168	828.530
67.520	24.601	1028.187	828.482
68.534	24.289	1027.114	826.095
69.549	23.981	1025.805	823.546
70.563	24.126	1024.739	823.287
71.578	24.078	1023.936	822.347
72.593	23.876	1022.990	820.581
73.607	24.047	1022.719	821.082
74.622	24.522	1021.712	822.390
75.636	24.382	1021.786	821.731
76.651	24.200	1020.671	819.922
77.666	24.210	1020.225	819.538
78.680	24.291	1019.325	819.114
79.695	24.197	1019.590	818.822
80.709	24.383	1018.491	818.722
81.724	24.422	1017.407	817.956
82.739	24.477	1016.670	817.543
83.753	24.819	1016.157	818.625
84.768	25.127	1015.154	819.151
85.782	25.122	1014.794	818.764
86.797	25.040	1013.853	817.561
87.812	24.853	1012.593	815.620
88.826	25.015	1011.888	815.717
89.841	25.060	1010.909	815.061
90.855	25.086	1009.677	814.115
91.870	25.007	1009.430	813.482
92.884	24.929	1008.137	812.017
93.899	24.740	1007.278	810.393
94.914	25.021	1006.549	811.010
95.928	24.876	1005.335	809.302
96.943	24.799	1003.784	807.634
97.957	24.466	1002.607	805.117
98.972	24.251	1001.657	803.312
99.987	24.594	1001.235	804.448
101.001	24.823	1000.655	804.942
102.016	24.696	999.825	803.633
103.030	24.787	998.539	802.937
104.045	24.557	997.916	801.332
105.060	24.402	997.223	800.011
106.074	24.575	996.373	800.032
107.089	24.936	995.928	801.217
108.103	24.554	995.427	799.039
109.118	24.456	993.317	796.835
110.133	24.572	992.117	796.320
111.147	24.337	991.100	794.384
112.162	24.136	990.790	793.171
113.176	24.535	989.696	793.999
114.191	24.446	989.291	793.209
115.206	24.137	987.994	790.728
116.220	24.022	987.434	789.700
117.235	24.322	986.392	790.126
118.249	24.304	985.480	789.246
119.264	24.112	984.822	787.801
120.279	24.185	984.302	787.635
121.293	24.185	983.565	786.978
122.308	24.239	982.407	786.221
123.322	24.167	981.387	785.015
124.337	23.991	980.409	783.388
125.352	23.509	978.879	779.977
126.366	23.522	977.611	778.955
127.381	24.316	977.531	782.309
128.395	24.658	977.510	783.722
129.410	24.727	976.719	783.319
130.424	24.741	975.349	782.213
131.439	24.840	974.268	781.713
132.454	24.727	973.687	780.680
133.468	24.571	972.517	778.993
134.483	24.706	972.363	779.391
135.497	25.062	971.128	779.880
136.512	25.107	970.349	779.384
137.527	24.940	969.436	777.853
138.541	25.007	968.789	777.558
139.556	25.032	968.131	777.071
140.570	25.104	967.283	776.630
141.585	25.090	966.424	775.813
142.600	25.039	965.200	774.543
143.614	25.153	965.134	774.913
144.629	25.228	964.299	774.496
145.643	25.151	962.566	772.704
146.658	24.954	961.337	770.800
147.673	24.872	960.525	769.729
148.687	24.720	959.380	768.091
149.702	24.695	958.536	767.240
150.716	24.718	957.654	766.565
151.731	24.838	957.238	766.677
152.746	25.111	955.938	766.740
153.760	25.052	955.952	766.431
154.775	25.226	955.220	766.515
155.789	25.055	954.572	765.198
156.804	25.123	953.545	764.597
157.819	25.351	952.663	764.794
158.833	25.286	951.889	763.831
159.848	25.236	950.797	762.671
160.862	25.156	949.636	761.333
161.877	25.164	948.579	760.456
162.892	25.187	947.793	759.853
163.906	25.091	946.623	758.444
164.921	24.965	945.944	757.298
165.935	25.301	944.916	757.827
166.950	25.245	943.759	756.595
167.964	24.949	943.905	755.397
168.979	25.029	941.705	753.908
169.994	24.999	941.278	753.371
171.008	25.246	940.736	753.911
172.023	25.236	939.647	752.928
173.037	25.052	938.856	751.456
174.052	24.826	937.898	749.676
175.067	24.793	937.427	749.097
176.081	24.922	937.159	749.355
177.096	24.936	936.294	748.657
178.110	24.801	935.111	747.082
179.125	24.403	934.524	744.885
180.140	24.459	934.406	744.958
181.154	24.803	934.029	746.024
182.169	25.053	933.841	746.851
183.183	25.146	933.625	747.001
184.198	25.022	932.635	745.628
185.213	25.029	931.724	744.862
186.227	25.040	931.266	744.474
187.242	25.144	930.388	744.137
188.256	25.279	929.712	744.092
189.271	25.229	928.882	743.153
190.286	24.955	927.734	741.037
191.300	24.319	926.629	737.459
192.315	23.432	925.192	732.586
193.329	23.559	924.139	732.213
194.344	24.515	924.995	736.773
195.359	25.044	924.699	738.652
196.373	25.000	924.654	738.369
197.388	24.917	923.771	737.256
198.402	25.058	923.005	737.163
199.417	24.987	922.997	736.799
200.432	24.824	921.627	734.969
201.446	24.599	920.915	733.413
202.461	24.778	920.294	733.588
203.475	23.800	918.435	728.034
204.490	23.055	917.174	723.922
205.504	23.977	917.864	728.178
206.519	24.532	917.325	729.955
207.534	24.705	917.217	730.512
208.548	25.077	916.979	731.779
209.563	24.798	915.773	729.611
210.577	24.747	915.398	729.042
211.592	25.295	915.031	730.919
212.607	25.262	913.786	729.722
213.621	25.176	913.677	729.221
214.636	25.214	912.933	728.717
215.650	25.044	912.468	727.591
216.665	25.312	911.708	728.010
217.680	25.183	910.980	726.841
218.694	24.660	909.830	723.743
219.709	24.645	909.304	723.197
220.723	24.867	908.661	723.521
221.738	25.167	908.219	724.318
222.753	25.043	907.532	723.206
223.767	25.101	907.559	723.398
224.782	25.225	907.009	723.395
225.796	25.290	906.321	723.044
226.811	24.588	904.760	718.910
227.826	23.924	903.275	714.997
228.840	24.254	902.755	715.849
229.855	24.222	902.357	715.342
230.869	23.828	901.386	712.929
231.884	24.449	900.950	715.008
232.899	24.994	901.450	717.526
233.913	24.896	900.684	716.461
234.928	25.074	899.821	716.420
235.942	24.899	899.109	715.092
236.957	24.682	898.116	713.374
237.972	24.487	897.906	712.364
238.986	24.784	897.361	713.056
240.001	24.655	896.754	711.997
241.015	24.809	896.252	712.145
242.030	24.957	895.873	712.369
243.045	25.116	895.571	712.700
244.059	25.129	895.184	712.382
245.074	24.844	894.220	710.420
246.088	24.610	893.372	708.754
247.103	24.981	893.179	710.011
248.117	25.318	893.444	711.492
249.132	25.726	892.276	712.116
250.147	25.906	891.891	712.457
251.161	26.128	891.171	712.696
252.176	25.867	890.863	711.353
253.190	26.140	890.069	711.736
254.205	26.196	890.068	711.890
255.220	26.113	889.418	710.981
256.234	25.996	888.125	709.423
257.249	26.003	887.396	708.808
258.263	25.913	887.009	708.083
259.278	26.103	886.375	708.258
260.293	26.049	885.767	707.497
261.307	25.810	885.020	705.905
262.322	25.768	884.198	705.021
263.336	24.915	882.413	700.201
264.351	23.783	880.705	694.361
265.366	24.104	880.348	695.273
266.380	25.132	880.903	699.663
267.395	25.533	880.890	701.155
268.409	25.394	880.296	700.078
269.424	25.706	879.473	700.576
270.439	25.693	879.022	700.104
271.453	25.846	878.318	700.076
272.468	25.917	878.394	700.352
273.482	25.988	877.661	699.981
274.497	25.555	876.656	697.440
275.512	24.999	876.070	694.754
276.526	25.566	875.887	696.746
277.541	25.733	875.317	696.877
278.555	25.537	874.396	695.322
279.570	25.254	874.153	693.977
280.585	25.627	872.954	694.402
281.599	25.530	872.169	693.341
282.614	24.951	870.935	690.070
283.628	24.969	870.798	689.970
284.643	25.425	870.395	691.343
285.657	24.884	869.224	688.273
286.672	24.606	868.319	686.429
287.687	25.393	868.076	689.196
288.701	25.348	867.774	688.722
289.716	25.032	866.614	686.532
290.730	24.840	866.544	685.678
291.745	24.632	865.345	683.873
292.760	24.977	865.359	685.145
293.774	26.017	865.668	689.304
294.789	26.335	865.152	690.049
295.803	26.388	864.364	689.558
296.818	26.339	864.091	689.094
297.833	25.907	862.919	686.455
298.847	25.720	862.643	685.463
299.862	25.946	862.376	686.051
300.876	26.285	861.938	686.928
301.891	26.289	860.656	685.861
302.906	25.848	860.152	683.728
303.920	25.937	860.214	684.052
304.935	26.412	859.513	685.237
305.949	26.172	858.886	683.766
306.964	25.987	858.064	682.350
307.979	26.109	857.346	682.182
308.993	26.379	857.751	683.465
310.008	26.364	857.071	682.806
311.022	26.067	856.291	681.004
312.037	26.012	855.761	680.312
313.052	25.701	855.024	678.493
314.066	24.781	853.216	673.539
315.081	24.585	852.573	672.232
316.095	25.375	853.039	675.515
317.110	25.877	852.791	677.144
318.125	25.150	851.106	673.021
319.139	24.045	849.619	667.642
320.154	24.062	849.239	667.346
321.168	24.948	850.052	671.251
322.183	25.474	849.929	673.065
323.197	25.686	849.729	673.642
324.212	26.022	849.301	674.499
325.227	26.010	848.635	673.863
326.241	25.838	847.708	672.428
327.256	25.743	847.589	671.918
328.270	25.700	846.801	671.073
329.285	25.474	845.984	669.525
330.300	25.255	844.889	667.786
331.314	25.553	844.555	668.570
332.329	25.964	844.915	670.323
333.343	26.090	844.685	670.551
334.358	26.102	843.912	669.922
335.373	26.209	843.827	670.193
336.387	26.494	843.755	671.132
337.402	26.383	843.734	670.645
338.416	26.679	842.732	670.886
339.431	26.632	842.789	670.697
340.446	26.594	842.646	670.385
341.460	26.718	841.743	670.063
342.475	26.293	841.610	668.329
343.489	26.665	840.995	669.153
344.504	26.759	840.940	669.399
345.519	26.869	840.524	669.416
346.533	27.017	839.893	669.397
347.548	27.038	839.288	668.935
348.562	26.932	838.436	667.807
349.577	26.848	838.095	667.166
350.592	26.956	837.253	666.834
351.606	26.723	836.804	665.559
352.621	26.818	835.744	665.007
353.635	26.575	835.103	663.547
354.650	25.991	833.211	659.852
355.665	25.166	831.734	655.607
356.679	25.583	831.926	657.225
357.694	25.818	831.659	657.814
358.708	25.854	831.199	657.524
359.723	26.286	831.209	659.050
360.738	26.562	830.629	659.536
361.752	26.646	830.233	659.468
362.767	26.876	829.869	659.958
363.781	27.301	829.281	660.976
364.796	27.247	829.186	660.649
365.810	27.376	828.765	660.722
366.825	27.327	828.434	660.223
367.840	26.935	827.621	658.094
368.854	26.546	826.924	656.074
369.869	26.600	825.804	655.322
370.883	26.715	825.886	655.745
371.898	26.549	825.166	654.515
372.913	26.641	825.466	655.027
373.927	26.808	824.786	655.033
374.942	26.918	824.016	654.762
375.956	27.062	823.983	655.197
376.971	27.103	823.510	654.909
377.986	27.304	823.141	655.283
379.000	27.145	822.558	654.188
380.015	27.068	821.835	653.279
381.029	27.036	821.784	653.067
382.044	27.273	821.127	653.336
383.059	27.146	820.378	652.226
384.073	27.391	819.798	652.587
385.088	27.255	819.291	651.637
386.102	27.007	818.245	649.860
387.117	26.975	817.713	649.266
388.132	26.688	816.324	647.081
389.146	26.229	815.521	644.750
390.161	26.561	815.987	646.245
391.175	26.995	815.558	647.398
392.190	26.486	814.893	644.996
393.205	25.169	812.557	638.409
394.219	23.672	810.763	631.620
395.234	23.804	810.515	631.840
396.248	25.411	812.027	638.682
397.263	26.900	812.730	644.473
398.278	26.721	812.372	643.496
399.292	26.577	811.861	642.522
400.307	26.540	811.105	641.735
401.321	26.585	811.012	641.766
402.336	27.065	810.841	643.274
403.350	27.455	810.527	644.348
404.365	27.638	810.557	644.962
405.380	27.754	810.357	645.156
406.394	28.025	810.005	645.777
407.409	27.932	809.280	644.812
408.423	27.896	808.903	644.327
409.438	28.056	808.337	644.383
410.453	27.989	808.347	644.099
411.467	27.842	807.728	643.032
412.482	27.802	807.259	642.461
413.496	27.887	807.285	642.722
414.511	27.980	806.375	642.270
415.526	27.962	805.812	641.701
416.540	27.871	805.106	640.763
417.555	27.695	804.376	639.509
418.569	27.551	804.226	638.827
419.584	27.634	803.576	638.545
420.599	27.437	802.971	637.319
421.613	110.336	1286.678	1459.056
422.628	95.199	1357.160	1459.158
