DTS Sentinel unit serial number:	SN413079Multiplexer serial number:	ORYXHardware model number:	OX4-SRSoftware version number:	ORYX F/W v4.00 Oryx Data Collector v3.7.2.0data status	okinstallation	princeton_trtdifferential loss correction	single-endedforward channel	channel 1reverse channel	N/Adate	2019/09/17time	00:58:35forward acquisition time	60.00reverse acquisition time	0.00gamma	496.2192k internal	0.2324k external	0.2324temperature offset calibration	0.9957default loss term (dB/km)	0.3790temperature slope calibration	1.0000multiplexer offset coefficient	1.0000multiplexer slope coefficient	1.0000fibre end	0.00T internal ref (°C)	29.44T ext. ref 1 (°C)	0.11T ext. ref 2 (°C)	24.10length (m)	temperature (°C)	Stokes	anti-Stokes-747.200	-85.057	0.189	0.060
-746.185	-36.105	0.164	0.089
-745.171	203.028	-0.097	0.152
-744.156	16.992	-0.190	0.152
-743.142	-64.977	-0.207	0.084
-742.127	100.847	0.151	0.177
-741.112	13.859	0.101	0.079
-740.098	530.525	0.254	0.606
-739.083	-200.000	-0.017	0.380
-738.069	-200.000	-0.022	0.192
-737.054	-144.884	0.287	0.027
-736.039	800.000	-0.094	0.290
-735.025	-200.000	0.038	0.262
-734.010	66.492	-0.159	-0.163
-732.996	800.000	-0.163	-0.457
-731.981	-200.000	-0.038	-0.227
-730.966	800.000	0.066	0.202
-729.952	778.251	0.037	0.101
-728.937	-138.274	-0.309	0.035
-727.923	800.000	0.068	-0.276
-726.908	54.307	-0.285	-0.277
-725.894	-200.000	-0.024	-0.289
-724.879	-40.338	-0.179	-0.094
-723.864	-200.000	-0.003	-0.160
-722.850	-118.417	0.234	0.042
-721.835	-200.000	-0.010	-0.209
-720.821	193.735	0.178	-0.272
-719.806	144.279	0.040	0.054
-718.791	62.073	0.126	-0.127
-717.777	800.000	-0.108	-0.344
-716.762	93.274	0.052	0.059
-715.748	-24.579	0.230	0.138
-714.733	-34.364	0.130	-0.072
-713.718	107.688	-0.315	-0.378
-712.704	-130.514	-0.174	0.024
-711.689	-55.774	0.167	0.075
-710.675	253.621	-0.131	-0.226
-709.660	135.934	-0.158	0.208
-708.645	399.906	-0.049	-0.103
-707.631	-16.522	0.017	0.011
-706.616	463.203	-0.064	-0.145
-705.602	70.976	-0.142	-0.149
-704.587	-136.508	-0.203	-0.024
-703.572	-200.000	0.036	-0.221
-702.558	-162.205	-0.258	0.013
-701.543	90.051	-0.189	0.212
-700.529	19.355	0.138	-0.112
-699.514	-123.611	-0.318	0.051
-698.499	800.000	-0.118	-0.392
-697.485	-95.459	0.130	0.035
-696.470	18.329	-0.066	-0.053
-695.456	129.376	-0.243	0.313
-694.441	800.000	-0.100	0.390
-693.426	73.487	0.185	0.195
-692.412	-96.477	0.135	0.036
-691.397	19.093	0.109	-0.088
-690.383	66.934	-0.218	0.224
-689.368	132.921	-0.187	-0.243
-688.354	800.000	-0.123	-0.518
-687.339	-104.958	-0.117	0.027
-686.324	-57.969	-0.338	0.148
-685.310	308.822	0.067	-0.126
-684.295	-60.530	-0.242	-0.104
-683.281	-200.000	-0.010	-0.288
-682.266	800.000	0.037	0.151
-681.251	-200.000	0.219	-0.001
-680.237	-200.000	0.073	0.375
-679.222	-8.526	-0.159	0.108
-678.208	-176.523	-0.299	-0.008
-677.193	-196.260	-0.075	-0.001
-676.178	325.887	-0.075	-0.144
-675.164	82.804	0.160	-0.175
-674.149	2.938	0.060	-0.044
-673.135	-113.853	0.380	0.074
-672.120	-54.136	-0.287	-0.131
-671.105	-200.000	-0.002	-0.206
-670.091	800.000	-0.203	-0.583
-669.076	210.240	0.095	0.149
-668.062	-148.098	-0.098	-0.008
-667.047	175.586	-0.148	0.216
-666.032	-200.000	0.026	-0.203
-665.018	-200.000	0.001	-0.252
-664.003	-109.121	0.043	0.009
-662.989	-101.184	-0.220	-0.054
-661.974	213.171	0.058	0.093
-660.959	60.933	-0.125	-0.125
-659.945	347.608	-0.086	0.170
-658.930	-70.708	0.063	-0.024
-657.916	373.855	0.170	-0.349
-656.901	800.000	0.040	0.122
-655.886	-172.188	-0.403	0.013
-654.872	126.712	0.345	-0.439
-653.857	-199.984	-0.379	0.002
-652.843	32.891	-0.156	0.136
-651.828	-67.328	-0.094	0.037
-650.814	114.351	-0.336	-0.411
-649.799	102.574	-0.180	-0.211
-648.784	800.000	-0.075	-0.232
-647.770	-120.259	-0.125	-0.021
-646.755	61.164	-0.172	-0.172
-645.741	-110.903	-0.121	0.025
-644.726	-53.814	0.363	0.166
-643.711	67.900	0.287	-0.295
-642.697	-52.562	-0.195	0.090
-641.682	800.000	0.071	-0.235
-640.668	-34.395	0.126	0.069
-639.653	-48.902	-0.107	-0.051
-638.638	-200.000	0.065	0.350
-637.624	201.159	0.013	-0.020
-636.609	-17.183	-0.118	-0.075
-635.595	-169.135	-0.090	0.003
-634.580	76.555	0.071	-0.076
-633.565	33.649	-0.200	0.174
-632.551	76.477	0.128	0.137
-631.536	229.917	-0.080	0.131
-630.522	-40.897	-0.112	0.058
-629.507	800.000	-0.030	0.094
-628.492	49.171	0.204	-0.193
-627.478	-114.596	-0.268	-0.052
-626.463	800.000	0.072	-0.224
-625.449	-90.122	0.064	-0.019
-624.434	345.100	0.042	-0.082
-623.419	-200.000	-0.030	-0.211
-622.405	-28.260	-0.322	0.187
-621.390	62.797	-0.245	0.246
-620.376	-42.664	0.218	-0.111
-619.361	2.976	-0.328	-0.240
-618.346	800.000	0.063	0.218
-617.332	72.378	0.096	0.100
-616.317	104.829	-0.087	0.103
-615.303	-79.588	-0.361	-0.122
-614.288	792.405	0.070	0.194
-613.273	-145.857	0.320	-0.029
-612.259	-70.684	-0.140	-0.053
-611.244	127.670	-0.112	-0.143
-610.230	-64.598	0.116	0.047
-609.215	179.981	0.255	-0.375
-608.201	-133.672	-0.095	-0.012
-607.186	800.000	0.072	-0.232
-606.171	26.845	0.262	-0.220
-605.157	306.463	0.084	0.157
-604.142	132.398	0.165	0.213
-603.128	102.350	-0.200	0.234
-602.113	-63.581	-0.080	-0.033
-601.098	-51.771	-0.311	-0.145
-600.084	24.799	-0.044	0.036
-599.069	169.830	0.199	-0.285
-598.055	800.000	0.067	-0.222
-597.040	703.949	-0.066	0.175
-596.025	177.883	-0.171	0.250
-595.011	-51.842	0.032	-0.015
-593.996	800.000	0.064	0.188
-592.982	-82.727	-0.430	0.140
-591.967	158.241	-0.051	-0.071
-590.952	-55.901	-0.282	0.126
-589.938	-106.530	-0.291	0.065
-588.923	-49.704	-0.415	-0.198
-587.909	-53.601	0.086	-0.040
-586.894	66.548	-0.208	0.212
-585.879	17.228	0.159	-0.126
-584.865	246.720	0.111	0.189
-583.850	-200.000	0.016	0.105
-582.836	800.000	-0.056	-0.175
-581.821	-200.000	0.027	-0.181
-580.806	800.000	0.036	0.152
-579.792	800.000	0.078	0.326
-578.777	-200.000	-0.017	0.092
-577.763	90.964	0.221	-0.248
-576.748	68.400	-0.033	0.034
-575.733	-115.457	0.248	0.047
-574.719	-200.000	0.020	0.147
-573.704	-170.183	0.203	0.007
-572.690	-200.000	0.013	0.318
-571.675	-200.000	0.016	0.209
-570.661	-42.019	0.228	-0.117
-569.646	800.000	-0.104	-0.413
-568.631	-67.956	0.255	-0.100
-567.617	-66.778	-0.167	0.066
-566.602	66.175	-0.165	-0.168
-565.588	123.940	0.191	-0.241
-564.573	49.208	-0.240	-0.226
-563.558	800.000	-0.046	0.195
-562.544	26.527	0.153	-0.128
-561.529	-200.000	-0.007	-0.072
-560.515	800.000	-0.055	0.177
-559.500	-200.000	0.016	0.128
-558.485	-97.740	0.187	-0.049
-557.471	-147.452	0.148	0.013
-556.456	-101.968	0.089	-0.022
-555.442	139.896	-0.145	-0.192
-554.427	-200.000	0.004	-0.292
-553.412	-200.000	0.042	0.269
-552.398	22.703	0.092	-0.075
-551.383	-131.567	-0.305	-0.040
-550.369	12.803	0.256	-0.198
-549.354	800.000	0.032	-0.116
-548.339	-35.153	0.346	-0.189
-547.325	348.191	-0.038	-0.075
-546.310	-200.000	0.030	0.219
-545.296	15.011	-0.199	-0.156
-544.281	-200.000	0.044	0.461
-543.266	-70.935	-0.268	0.101
-542.252	-200.000	0.029	0.306
-541.237	325.013	0.079	0.151
-540.223	-28.020	-0.128	0.074
-539.208	12.198	-0.114	0.088
-538.193	-200.000	0.015	0.103
-537.179	800.000	0.104	-0.292
-536.164	800.000	0.033	0.141
-535.150	-32.780	0.089	0.049
-534.135	-127.431	0.357	0.052
-533.121	8.406	0.100	0.075
-532.106	103.245	-0.250	0.294
-531.091	100.803	-0.013	-0.015
-530.077	-21.783	-0.157	-0.096
-529.062	245.640	-0.159	-0.267
-528.048	-122.982	-0.167	0.027
-527.033	-200.000	-0.008	-0.100
-526.018	-200.000	-0.036	-0.180
-525.004	-165.670	0.211	-0.009
-523.989	55.571	-0.148	0.144
-522.975	-36.984	-0.045	0.024
-521.960	266.488	-0.185	0.324
-520.945	-78.663	0.228	-0.078
-519.931	-104.418	-0.114	0.026
-518.916	-200.000	-0.010	0.220
-517.902	-53.974	-0.110	-0.050
-516.887	262.666	0.130	-0.225
-515.872	-59.995	0.246	-0.105
-514.858	-128.110	0.206	-0.029
-513.843	194.362	0.233	-0.354
-512.829	-22.242	-0.111	0.067
-511.814	48.113	0.091	0.085
-510.799	551.273	-0.071	0.170
-509.785	-136.518	0.174	-0.020
-508.770	800.000	0.023	0.079
-507.756	800.000	-0.079	0.292
-506.741	172.507	-0.151	-0.218
-505.726	110.119	-0.151	-0.182
-504.712	26.292	-0.126	-0.105
-503.697	-134.754	-0.224	-0.027
-502.683	-87.595	-0.180	0.054
-501.668	-165.230	-0.514	0.023
-500.653	49.328	0.118	0.111
-499.639	743.272	0.064	0.171
-498.624	571.547	-0.110	-0.267
-497.610	24.938	-0.105	0.087
-496.595	-107.471	-0.165	0.036
-495.581	800.000	0.070	-0.200
-494.566	327.199	0.131	-0.251
-493.551	-200.000	-0.016	-0.119
-492.537	-200.000	-0.040	-0.329
-491.522	-78.089	0.176	-0.061
-490.508	-200.000	0.018	-0.122
-489.493	-40.891	0.313	0.162
-488.478	800.000	0.077	-0.259
-487.464	599.193	-0.047	-0.117
-486.449	616.065	0.106	0.266
-485.435	380.972	-0.143	0.293
-484.420	279.783	-0.060	-0.107
-483.405	-200.000	-0.015	0.124
-482.391	-200.000	-0.015	-0.110
-481.376	-145.744	0.160	-0.014
-480.362	57.395	-0.045	0.044
-479.347	-84.136	0.248	-0.079
-478.332	-135.308	-0.024	0.003
-477.318	-111.088	0.087	0.018
-476.303	87.376	-0.194	-0.214
-475.289	57.930	0.082	-0.080
-474.274	800.000	0.027	0.081
-473.259	-12.707	-0.060	0.039
-472.245	156.529	0.206	0.284
-471.230	-79.328	0.043	-0.015
-470.216	-200.000	0.001	0.389
-469.201	-200.000	0.067	-0.452
-468.186	-8.405	0.138	0.092
-467.172	-52.889	0.305	0.140
-466.157	11.606	-0.056	0.043
-465.143	-43.166	-0.283	-0.143
-464.128	16.177	0.200	0.157
-463.113	-135.111	-0.117	0.014
-462.099	-32.641	0.249	-0.138
-461.084	-47.347	-0.121	-0.059
-460.070	-200.000	-0.027	0.199
-459.055	-116.744	-0.082	-0.015
-458.040	-200.000	-0.009	0.132
-457.026	8.514	0.113	-0.085
-456.011	282.198	0.101	-0.180
-454.997	-200.000	-0.008	0.188
-453.982	16.421	0.308	0.243
-452.968	-86.039	0.139	0.043
-451.953	89.372	-0.187	0.208
-450.938	800.000	-0.023	0.078
-449.924	97.039	0.179	-0.205
-448.909	-53.486	-0.271	0.124
-447.895	-200.000	0.007	-0.148
-446.880	-160.848	-0.106	0.006
-445.865	-0.817	-0.035	0.025
-444.851	3.115	0.206	0.149
-443.836	594.422	-0.095	-0.234
-442.822	29.664	-0.149	0.127
-441.807	450.127	-0.057	-0.124
-440.792	-122.875	-0.210	-0.034
-439.778	-200.000	-0.015	0.252
-438.763	-112.192	0.133	0.027
-437.749	-200.000	-0.010	-0.238
-436.734	81.806	-0.175	0.189
-435.719	41.665	-0.102	0.092
-434.705	171.971	0.111	0.159
-433.690	800.000	-0.128	0.479
-432.676	784.413	0.088	-0.242
-431.661	-88.918	0.407	0.120
-430.646	-29.593	-0.325	0.185
-429.632	-96.554	0.290	-0.076
-428.617	-46.662	0.097	0.047
-427.603	-154.644	0.263	-0.017
-426.588	507.095	0.087	0.201
-425.573	97.135	-0.045	0.051
-424.559	-148.614	0.175	0.014
-423.544	262.552	-0.066	0.113
-422.530	-114.110	0.148	0.029
-421.515	-200.000	-0.034	0.397
-420.500	800.000	0.111	0.343
-419.486	4.124	-0.198	0.145
-418.471	-97.256	-0.317	0.082
-417.457	145.628	0.083	0.111
-416.442	-200.000	-0.041	0.283
-415.428	-162.682	0.338	0.017
-414.413	216.973	-0.087	0.137
-413.398	13.244	-0.270	-0.208
-412.384	-70.067	-0.264	0.100
-411.369	138.340	0.083	-0.108
-410.355	-174.271	-0.245	0.007
-409.340	45.860	-0.029	0.027
-408.325	-37.316	-0.229	0.122
-407.311	23.726	-0.458	0.375
-406.296	514.816	-0.009	0.021
-405.282	-104.831	0.058	-0.013
-404.267	-9.344	-0.237	-0.158
-403.252	114.919	-0.234	-0.284
-402.238	-143.029	0.178	-0.017
-401.223	-122.171	-0.404	-0.066
-400.209	123.488	-0.206	0.257
-399.194	-200.000	0.082	-0.449
-398.179	-136.996	-0.331	-0.038
-397.165	800.000	0.019	-0.078
-396.150	373.268	-0.090	-0.182
-395.136	-28.161	0.177	0.102
-394.121	561.131	-0.046	-0.112
-393.106	564.236	-0.054	-0.130
-392.092	-34.799	0.061	0.033
-391.077	94.868	0.094	-0.107
-390.063	-152.523	0.087	0.006
-389.048	-200.000	-0.043	-0.444
-388.033	154.151	0.135	0.185
-387.019	31.052	0.069	-0.059
-386.004	100.461	-0.185	-0.213
-384.990	-0.605	0.091	-0.064
-383.975	374.590	-0.075	0.151
-382.960	-109.033	-0.119	0.025
-381.946	800.000	-0.204	-0.639
-380.931	-30.470	0.110	-0.062
-379.917	-44.325	0.157	0.078
-378.902	637.689	0.043	0.109
-377.888	69.995	-0.184	0.189
-376.873	-128.910	0.217	0.030
-375.858	54.138	0.245	0.235
-374.844	-101.583	-0.085	-0.021
-373.829	69.260	0.245	-0.251
-372.815	253.779	-0.089	0.151
-371.800	-17.571	0.349	0.218
-370.785	-146.520	-0.095	-0.008
-369.771	504.293	0.074	0.169
-368.756	-19.219	-0.251	0.155
-367.742	-200.000	-0.034	-0.277
-366.727	-42.989	-0.128	0.065
-365.712	-200.000	0.029	-0.159
-364.698	315.415	-0.155	0.292
-363.683	149.985	-0.021	-0.029
-362.669	-136.314	0.300	0.035
-361.654	-84.995	-0.167	-0.052
-360.639	-105.332	-0.238	-0.054
-359.625	-200.000	-0.001	-0.100
-358.610	645.054	0.084	-0.212
-357.596	800.000	0.067	-0.238
-356.581	17.758	-0.083	-0.066
-355.566	-93.415	0.148	-0.041
-354.552	70.310	0.166	0.171
-353.537	63.218	0.314	0.312
-352.523	-111.383	0.114	0.023
-351.508	58.673	-0.064	-0.063
-350.493	228.382	-0.064	0.104
-349.479	-21.436	0.409	0.248
-348.464	255.352	-0.248	-0.422
-347.450	-200.000	-0.011	-0.212
-346.435	-9.325	-0.061	-0.041
-345.420	800.000	0.115	-0.351
-344.406	-131.355	-0.235	-0.031
-343.391	-200.000	0.028	-0.245
-342.377	-200.000	0.034	-0.393
-341.362	800.000	0.084	0.263
-340.348	630.148	0.037	0.093
-339.333	82.374	-0.062	-0.067
-338.318	-59.991	0.024	-0.010
-337.304	88.996	-0.136	0.151
-336.289	800.000	0.027	0.086
-335.275	134.156	-0.113	0.145
-334.260	-55.894	0.159	0.070
-333.245	-108.268	0.178	-0.038
-332.231	-147.005	0.341	0.029
-331.216	-120.183	0.175	-0.030
-330.202	800.000	0.066	0.210
-329.187	-31.700	-0.106	-0.059
-328.172	217.541	0.246	0.389
-327.158	-200.000	-0.034	-0.177
-326.143	-153.314	-0.453	0.031
-325.129	-21.207	0.144	0.088
-324.114	435.514	-0.089	0.193
-323.099	-30.251	0.086	0.048
-322.085	-193.661	0.096	0.001
-321.070	454.673	-0.105	-0.232
-320.056	-200.000	0.065	-0.309
-319.041	-121.759	0.085	-0.014
-318.026	54.993	-0.023	0.022
-317.012	800.000	-0.045	0.125
-315.997	-47.818	-0.249	-0.120
-314.983	-88.281	0.186	-0.055
-313.968	-84.358	0.334	-0.105
-312.953	-87.670	-0.221	-0.066
-311.939	-67.821	-0.228	0.089
-310.924	-120.137	0.465	0.079
-309.910	800.000	0.093	-0.286
-308.895	10.487	-0.033	0.025
-307.880	149.225	0.073	-0.098
-306.866	-40.411	0.038	-0.020
-305.851	19.030	-0.063	-0.050
-304.837	-144.310	0.117	0.011
-303.822	-168.253	-0.219	0.008
-302.807	93.022	-0.132	-0.148
-301.793	-200.000	0.015	-0.120
-300.778	248.164	0.075	-0.127
-299.764	-21.881	0.338	0.204
-298.749	24.932	0.186	0.153
-297.735	53.215	-0.267	-0.253
-296.720	800.000	-0.048	-0.135
-295.705	69.190	-0.026	0.027
-294.691	-200.000	0.032	0.178
-293.676	-63.871	-0.197	0.080
-292.662	69.242	-0.201	0.205
-291.647	-157.654	-0.360	0.021
-290.632	20.848	-0.277	-0.223
-289.618	-61.351	0.230	-0.096
-288.603	800.000	-0.062	0.215
-287.589	800.000	-0.085	0.241
-286.574	207.420	0.076	0.117
-285.559	-200.000	0.058	-0.274
-284.545	212.159	0.011	-0.017
-283.530	800.000	0.109	0.305
-282.516	99.047	0.372	-0.426
-281.501	269.645	0.005	-0.010
-280.486	-23.406	-0.224	-0.134
-279.472	0.754	0.141	0.100
-278.457	-18.530	0.284	0.176
-277.443	-30.539	0.124	-0.070
-276.428	34.960	-0.191	-0.166
-275.413	-200.000	-0.021	0.146
-274.399	379.097	-0.105	0.213
-273.384	234.565	-0.257	0.420
-272.370	-61.635	0.294	-0.122
-271.355	800.000	0.041	-0.122
-270.340	-175.337	0.236	-0.006
-269.326	183.364	-0.114	0.166
-268.311	323.646	0.257	0.486
-267.297	12.205	-0.064	0.049
-266.282	-84.318	-0.165	-0.052
-265.267	-69.049	-0.372	-0.142
-264.253	21.782	-0.316	0.255
-263.238	-200.000	-0.028	-0.243
-262.224	251.580	0.064	0.108
-261.209	-31.161	-0.234	0.130
-260.195	312.895	0.218	0.406
-259.180	128.972	-0.163	-0.206
-258.165	-103.215	0.078	0.018
-257.151	-59.277	-0.307	0.131
-256.136	-51.215	0.294	-0.136
-255.122	-200.000	-0.053	-0.317
-254.107	-200.000	0.070	0.353
-253.092	-29.658	0.397	0.225
-252.078	-93.319	-0.221	0.061
-251.063	58.308	0.227	-0.221
-250.049	-33.500	0.088	-0.048
-249.034	248.603	0.033	-0.056
-248.019	-200.000	0.026	0.321
-247.005	67.778	0.167	-0.169
-245.990	-69.726	0.243	0.092
-244.976	39.957	0.135	0.120
-243.961	-200.000	-0.013	-0.121
-242.946	-79.903	0.193	-0.064
-241.932	-180.340	-0.372	0.008
-240.917	-55.030	0.481	-0.214
-239.903	-71.177	-0.187	-0.070
-238.888	-200.000	-0.056	0.340
-237.873	-10.903	0.256	-0.167
-236.859	-19.727	-0.284	-0.174
-235.844	113.582	-0.275	-0.331
-234.830	800.000	0.070	0.194
-233.815	-159.325	-0.133	0.007
-232.800	69.284	-0.187	0.190
-231.786	-14.204	-0.273	-0.174
-230.771	-103.342	0.065	0.015
-229.757	-200.000	-0.014	-0.148
-228.742	-25.386	0.063	0.037
-227.727	-9.604	-0.283	0.187
-226.713	523.100	0.081	0.189
-225.698	-200.000	-0.014	-0.239
-224.684	468.614	0.089	-0.197
-223.669	-40.632	0.069	0.035
-222.655	-200.000	-0.029	0.154
-221.640	-7.571	0.104	-0.069
-220.625	541.414	0.092	-0.217
-219.611	-74.278	0.120	-0.043
-218.596	-80.663	-0.165	-0.054
-217.582	-155.796	0.220	0.014
-216.567	18.959	0.205	-0.162
-215.552	44.168	0.071	-0.064
-214.538	-200.000	0.015	-0.081
-213.523	-40.530	0.079	0.040
-212.509	800.000	-0.026	0.090
-211.494	-200.000	0.019	-0.087
-210.479	-17.896	0.293	-0.182
-209.465	36.158	-0.078	0.068
-208.450	-200.000	-0.034	0.354
-207.436	100.834	-0.179	0.206
-206.421	115.124	0.091	0.110
-205.406	-24.328	-0.310	0.183
-204.392	800.000	-0.044	0.158
-203.377	-10.757	-0.324	-0.212
-202.363	-80.247	0.341	0.113
-201.348	-116.144	0.077	0.014
-200.333	189.686	0.059	0.087
-199.319	573.148	-0.026	-0.063
-198.304	-60.021	0.218	-0.092
-197.290	409.771	0.179	0.375
-196.275	-137.385	-0.128	-0.014
-195.260	-183.628	0.164	0.003
-194.246	800.000	0.043	-0.160
-193.231	-15.400	-0.136	0.086
-192.217	332.553	-0.063	0.121
-191.202	-200.000	-0.057	-0.361
-190.187	-200.000	0.004	0.103
-189.173	-14.424	0.405	-0.257
-188.158	419.668	-0.130	-0.275
-187.144	47.656	0.102	0.094
-186.129	303.961	-0.050	0.091
-185.114	-75.626	-0.271	-0.095
-184.100	-200.000	-0.016	-0.157
-183.085	-32.563	0.255	-0.140
-182.071	63.508	-0.106	0.105
-181.056	22.014	0.146	0.118
-180.042	465.549	0.135	0.299
-179.027	169.592	-0.191	-0.269
-178.012	-64.944	-0.046	0.018
-176.998	-75.792	0.202	-0.071
-175.983	-9.417	0.036	-0.024
-174.969	40.505	0.271	-0.241
-173.954	-94.912	0.150	0.040
-172.939	533.553	0.218	-0.510
-171.925	151.668	0.218	-0.293
-170.910	-134.157	0.100	-0.012
-169.896	247.784	-0.112	-0.187
-168.881	11.938	-0.152	0.116
-167.866	10.841	-0.128	0.096
-166.852	357.115	-0.135	0.266
-165.837	719.879	-0.088	0.232
-164.823	-6.403	0.215	0.145
-163.808	111.850	-0.261	-0.311
-162.793	-200.000	-0.026	0.155
-161.779	-102.129	-0.306	0.073
-160.764	6.529	-0.221	-0.162
-159.750	-53.132	-0.266	-0.121
-158.735	-43.442	0.378	-0.189
-157.720	-120.591	-0.294	0.049
-156.706	26.182	0.105	-0.087
-155.691	552.395	-0.062	-0.148
-154.677	36.119	0.265	-0.230
-153.662	63.386	-0.117	-0.116
-152.647	-62.570	0.110	-0.045
-151.633	-200.000	-0.103	0.458
-150.618	686.031	-0.071	0.183
-149.604	-114.283	0.376	0.071
-148.589	-162.557	-0.133	0.006
-147.574	49.287	-0.087	-0.080
-146.560	304.619	-0.118	-0.216
-145.545	800.000	0.136	0.398
-144.531	176.505	0.176	0.252
-143.516	-22.159	-0.196	-0.117
-142.502	-13.891	0.276	0.176
-141.487	118.403	-0.218	-0.265
-140.472	54.771	-0.211	-0.200
-139.458	-130.691	0.199	0.026
-138.443	-22.178	0.357	-0.214
-137.429	213.281	0.063	-0.098
-136.414	-54.798	0.255	0.114
-135.399	28.113	0.053	-0.044
-134.385	150.167	-0.205	0.275
-133.370	-151.802	-0.475	-0.034
-132.356	192.720	0.174	0.258
-131.341	277.967	-0.106	0.185
-130.326	-142.554	0.313	0.030
-129.312	-30.651	-0.273	0.152
-128.297	-200.000	-0.007	-0.087
-127.283	-48.027	0.132	0.063
-126.268	86.375	-0.161	0.175
-125.253	-66.551	0.388	0.152
-124.239	800.000	0.071	0.224
-123.224	35.236	0.133	-0.115
-122.210	254.984	0.050	-0.084
-121.195	307.438	0.093	0.171
-120.180	-34.610	-0.470	-0.253
-119.166	-89.899	-0.198	0.057
-118.151	-58.651	0.381	-0.163
-117.137	278.818	-0.128	0.224
-116.122	800.000	-0.018	0.057
-115.107	-20.275	-0.072	-0.044
-114.093	800.000	-0.073	-0.311
-113.078	134.515	0.202	-0.258
-112.064	-155.489	0.064	-0.004
-111.049	64.311	-0.043	-0.043
-110.034	-125.151	0.318	-0.048
-109.020	141.477	-0.214	0.279
-108.005	-200.000	0.001	0.081
-106.991	-200.000	0.010	-0.365
-105.976	233.686	0.226	-0.367
-104.962	-200.000	-0.018	-0.253
-103.947	-200.000	0.002	-0.162
-102.932	-114.453	-0.133	0.025
-101.918	-200.000	0.031	-0.231
-100.903	800.000	0.110	-0.337
-99.889	323.014	-0.089	-0.166
-98.874	-200.000	0.050	0.271
-97.859	800.000	0.026	-0.096
-96.845	420.809	-0.151	-0.319
-95.830	689.043	-0.160	-0.411
-94.816	-165.113	-0.104	-0.005
-93.801	-14.022	-0.162	-0.103
-92.786	41.788	-0.078	0.069
-91.772	-62.176	0.209	0.086
-90.757	94.701	0.134	-0.150
-89.743	321.461	0.053	-0.099
-88.728	-200.000	0.005	0.115
-87.713	718.108	-0.102	-0.267
-86.699	84.040	-0.190	-0.204
-85.684	6.995	-0.135	0.099
-84.670	148.653	-0.149	-0.198
-83.655	14.522	-0.155	0.119
-82.640	-14.984	0.389	0.245
-81.626	52.172	0.260	-0.244
-80.611	167.587	0.069	-0.097
-79.597	-200.000	0.002	0.176
-78.582	-9.893	-0.182	-0.119
-77.567	-123.834	0.193	-0.030
-76.553	800.000	0.035	-0.124
-75.538	118.270	0.170	-0.206
-74.524	-200.000	-0.001	-0.008
-73.509	-67.930	-0.109	0.042
-72.494	513.074	-0.035	-0.080
-71.480	800.000	0.055	-0.164
-70.465	-107.046	0.261	-0.057
-69.451	500.437	-0.049	-0.112
-68.436	-98.762	-0.132	-0.033
-67.422	49.916	-0.179	0.166
-66.407	800.000	0.063	0.181
-65.392	-43.694	0.065	0.032
-64.378	131.926	0.289	-0.366
-63.363	759.267	0.081	0.217
-62.349	178.143	-0.150	0.215
-61.334	56.259	-0.976	-0.931
-60.319	59.277	0.386	0.374
-59.305	-200.000	-0.263	-1.257
-58.290	97.295	0.873	0.985
-57.276	800.000	0.367	1.332
-56.261	-200.000	109.288	594.719
-55.246	442.421	1488.174	3202.664
-54.232	146.061	2668.099	3516.694
-53.217	105.755	2156.132	2505.564
-52.203	40.721	1605.440	1422.197
-51.188	32.932	1346.383	1145.636
-50.173	29.859	1305.713	1092.869
-49.159	54.484	1360.644	1287.958
-48.144	54.440	1375.611	1301.808
-47.130	33.171	1330.209	1133.121
-46.115	29.621	1312.432	1096.905
-45.100	29.361	1307.776	1091.431
-44.086	29.385	1305.354	1089.506
-43.071	29.293	1303.244	1087.157
-42.057	29.240	1300.979	1084.917
-41.042	29.257	1299.262	1083.540
-40.027	29.310	1297.537	1082.370
-39.013	29.280	1296.054	1080.914
-37.998	29.348	1294.108	1079.648
-36.984	29.482	1291.951	1078.589
-35.969	29.454	1290.567	1077.225
-34.954	29.525	1288.241	1075.653
-33.940	29.490	1287.679	1074.939
-32.925	29.436	1286.548	1073.636
-31.911	29.523	1284.524	1072.411
-30.896	29.503	1283.353	1071.277
-29.881	29.578	1282.063	1070.590
-28.867	29.488	1280.700	1068.888
-27.852	29.491	1279.417	1067.794
-26.838	29.483	1277.778	1066.336
-25.823	29.595	1276.298	1065.705
-24.809	29.485	1275.814	1064.627
-23.794	29.531	1274.074	1063.396
-22.779	29.554	1272.657	1062.303
-21.765	29.532	1271.448	1061.124
-20.750	29.447	1270.340	1059.669
-19.736	29.411	1268.739	1058.086
-18.721	29.485	1267.257	1057.232
-17.706	29.382	1266.492	1055.965
-16.692	29.349	1265.583	1054.974
-15.677	29.402	1264.494	1054.324
-14.663	29.401	1263.335	1053.314
-13.648	29.321	1261.955	1051.664
-12.633	29.318	1261.421	1051.162
-11.619	29.508	1259.748	1050.808
-10.604	29.532	1259.000	1050.278
-9.590	29.341	1258.475	1048.709
-8.575	29.460	1257.098	1048.199
-7.560	29.304	1257.040	1047.220
-6.546	29.350	1255.818	1046.422
-5.531	29.307	1255.082	1045.527
-4.517	29.349	1253.990	1044.811
-3.502	29.373	1253.166	1044.218
-2.487	29.391	1252.092	1043.385
-1.473	29.275	1248.265	1039.501
-0.458	27.862	1233.726	1019.469
0.556	22.902	1216.508	983.587
1.571	19.306	1223.150	968.694
2.586	18.574	1238.040	976.240
3.600	18.326	1226.717	965.823
4.615	13.386	1153.578	881.893
5.629	4.462	1078.162	779.538
6.644	0.399	1057.750	744.678
7.659	0.138	1055.645	741.844
8.673	0.050	1054.502	740.540
9.688	-0.146	1053.283	738.654
10.702	0.202	1051.704	739.191
11.717	5.421	1058.103	769.349
12.731	13.820	1069.725	819.351
13.746	17.536	1073.023	840.173
14.761	17.055	1071.520	836.554
15.775	15.922	1070.229	829.888
16.790	14.816	1068.400	822.953
17.804	14.247	1066.539	818.651
18.819	13.839	1065.470	815.754
19.834	13.660	1064.239	813.860
20.848	13.461	1063.254	812.060
21.863	13.132	1062.900	810.102
22.877	12.972	1062.131	808.660
23.892	13.049	1061.038	808.133
24.907	12.996	1060.447	807.354
25.921	13.072	1059.553	806.973
26.936	13.077	1058.823	806.370
27.950	13.052	1057.836	805.427
28.965	13.308	1056.629	805.683
29.980	13.327	1055.063	804.506
30.994	13.332	1054.380	803.942
32.009	13.363	1053.068	803.022
33.023	13.283	1052.618	802.219
34.038	13.312	1051.428	801.382
35.053	13.201	1050.945	800.402
36.067	13.170	1049.798	799.309
37.082	13.244	1048.846	798.874
38.096	13.223	1048.047	798.092
39.111	13.197	1047.761	797.675
40.126	13.185	1046.484	796.575
41.140	13.025	1045.275	794.815
42.155	12.971	1044.101	793.595
43.169	12.934	1043.160	792.628
44.184	12.829	1042.737	791.735
45.199	13.007	1041.065	791.247
46.213	13.073	1040.171	790.815
47.228	13.173	1039.193	790.477
48.242	13.148	1038.492	789.754
49.257	13.068	1037.340	788.430
50.271	13.136	1036.508	788.052
51.286	13.116	1035.526	787.138
52.301	13.205	1034.760	786.911
53.315	13.103	1033.687	785.540
54.330	12.961	1033.538	784.683
55.344	13.153	1031.575	784.033
56.359	13.166	1031.039	783.617
57.374	12.997	1030.019	781.971
58.388	13.075	1029.155	781.617
59.403	12.952	1028.695	780.614
60.417	13.002	1027.767	780.078
61.432	12.961	1027.235	779.414
62.447	12.830	1026.635	778.270
63.461	12.932	1025.246	777.629
64.476	12.970	1024.231	776.969
65.490	13.032	1023.563	776.686
66.505	12.975	1022.749	775.730
67.520	12.883	1022.989	775.412
68.534	12.902	1022.072	774.736
69.549	12.881	1020.970	773.734
70.563	12.958	1020.017	773.305
71.578	12.936	1019.178	772.497
72.593	12.908	1018.366	771.684
73.607	12.839	1017.802	770.866
74.622	12.867	1017.080	770.381
75.636	12.917	1016.810	770.342
76.651	12.825	1015.510	768.859
77.666	12.856	1015.294	768.775
78.680	12.861	1014.506	768.133
79.695	13.019	1013.512	768.046
80.709	12.941	1013.195	767.377
81.724	13.049	1011.920	766.843
82.739	12.943	1012.125	766.439
83.753	13.198	1010.812	766.562
84.768	13.162	1010.439	766.043
85.782	13.236	1009.279	765.437
86.797	13.251	1007.975	764.450
87.812	13.013	1007.717	763.084
88.826	13.156	1006.503	762.761
89.841	13.171	1005.664	762.127
90.855	13.126	1004.841	761.229
91.870	13.282	1003.885	761.152
92.884	13.239	1002.964	760.189
93.899	13.216	1002.040	759.316
94.914	13.340	1001.267	759.236
95.928	13.214	1000.612	758.091
96.943	13.255	999.451	757.335
97.957	13.086	999.081	756.213
98.972	13.208	998.196	756.034
99.987	13.256	996.865	755.177
101.001	13.285	995.793	754.432
102.016	13.253	995.268	753.818
103.030	13.135	994.377	752.540
104.045	13.130	993.645	751.896
105.060	13.091	992.992	751.159
106.074	13.096	991.871	750.270
107.089	13.025	990.674	748.975
108.103	13.013	989.762	748.166
109.118	13.207	988.842	748.282
110.133	13.128	988.046	747.257
111.147	13.085	987.116	746.290
112.162	13.115	986.652	746.011
113.176	13.201	985.731	745.635
114.191	13.125	984.957	744.643
115.206	13.125	984.379	744.138
116.220	13.196	983.166	743.475
117.235	13.197	982.250	742.721
118.249	13.152	981.448	741.845
119.264	13.221	980.712	741.534
120.279	13.107	980.098	740.491
121.293	13.109	979.337	739.862
122.308	13.085	977.913	738.614
123.322	13.111	977.228	738.147
124.337	13.110	976.482	737.512
125.352	13.057	975.361	736.365
126.366	13.057	974.554	735.692
127.381	12.975	973.516	734.477
128.395	13.062	972.580	734.091
129.410	13.035	971.538	733.123
130.424	13.066	970.915	732.724
131.439	13.105	970.063	732.190
132.454	13.213	968.895	731.723
133.468	13.158	968.272	730.941
134.483	13.260	967.110	730.454
135.497	13.315	966.160	729.912
136.512	13.243	965.370	728.935
137.527	13.243	964.613	728.296
138.541	13.184	964.456	727.855
139.556	13.245	963.227	727.133
140.570	13.216	962.731	726.564
141.585	13.244	961.816	725.931
142.600	13.418	960.771	725.842
143.614	13.482	959.903	725.404
144.629	13.380	959.553	724.626
145.643	13.373	958.305	723.589
146.658	13.365	957.565	722.933
147.673	13.158	956.873	721.441
148.687	13.259	955.720	720.953
149.702	13.141	954.900	719.753
150.716	13.145	954.381	719.318
151.731	13.251	953.747	719.237
152.746	13.305	952.598	718.543
153.760	13.320	952.015	718.103
154.775	13.399	951.697	718.142
155.789	13.420	950.902	717.569
156.804	13.333	950.053	716.489
157.819	13.337	949.616	716.113
158.833	13.440	948.839	715.910
159.848	13.461	948.287	715.522
160.862	13.514	946.857	714.606
161.877	13.375	945.942	713.252
162.892	13.253	945.567	712.382
163.906	13.308	944.470	711.729
164.921	13.374	944.007	711.603
165.935	13.350	942.733	710.474
166.950	13.429	941.637	709.925
167.964	13.424	940.911	709.294
168.979	13.451	940.110	708.741
169.994	13.441	939.077	707.860
171.008	13.409	938.761	707.420
172.023	13.460	937.868	706.903
173.037	13.485	937.282	706.505
174.052	13.488	936.403	705.794
175.067	13.448	935.412	704.814
176.081	13.322	935.482	704.268
177.096	13.441	934.514	703.980
178.110	13.520	933.811	703.728
179.125	13.540	933.518	703.526
180.140	13.550	932.851	703.007
181.154	13.410	932.677	702.217
182.169	13.658	932.096	702.769
183.183	13.611	930.772	701.511
184.198	13.645	930.281	701.221
185.213	13.696	929.681	700.922
186.227	13.832	929.022	700.938
187.242	13.620	928.660	699.709
188.256	13.840	927.824	699.946
189.271	13.724	926.884	698.683
190.286	13.584	926.602	697.821
191.300	13.515	925.420	696.580
192.315	13.406	925.220	695.910
193.329	13.694	924.113	696.223
194.344	13.577	923.975	695.566
195.359	13.702	923.175	695.428
196.373	13.736	922.863	695.272
197.388	13.804	922.535	695.252
198.402	13.818	921.735	694.646
199.417	13.890	921.138	694.433
200.432	13.874	920.809	694.058
201.446	13.975	920.078	693.865
202.461	14.031	919.639	693.709
203.475	14.064	919.152	693.416
204.490	13.868	918.101	691.746
205.504	13.817	917.447	690.979
206.519	13.833	916.503	690.276
207.534	13.962	915.659	690.113
208.548	13.971	915.231	689.766
209.563	13.885	914.846	689.060
210.577	13.912	913.855	688.365
211.592	13.985	913.470	688.314
212.607	14.066	912.721	688.027
213.621	14.068	912.030	687.453
214.636	14.086	911.222	686.857
215.650	14.141	910.247	686.286
216.665	14.174	909.866	686.075
217.680	14.230	909.156	685.709
218.694	14.142	908.353	684.683
219.709	14.289	908.025	684.979
220.723	14.124	907.337	683.719
221.738	14.328	906.507	683.874
222.753	14.175	906.188	682.944
223.767	14.380	905.548	683.239
224.782	14.216	905.072	682.149
225.796	14.355	904.190	681.994
226.811	14.231	903.769	681.107
227.826	14.248	902.851	680.426
228.840	14.183	902.504	679.836
229.855	14.305	901.405	679.447
230.869	14.196	900.595	678.335
231.884	14.192	899.851	677.697
232.899	14.352	898.910	677.581
233.913	14.280	898.453	676.880
234.928	14.255	898.054	676.419
235.942	14.197	897.309	675.563
236.957	14.101	896.777	674.713
237.972	14.296	896.302	675.089
238.986	14.189	895.352	673.879
240.001	14.325	894.840	673.983
241.015	14.301	894.246	673.378
242.030	14.287	893.724	672.871
243.045	14.420	892.686	672.564
244.059	14.462	892.431	672.485
245.074	14.508	891.825	672.155
246.088	14.409	891.122	671.165
247.103	14.596	890.575	671.447
248.117	14.510	890.037	670.634
249.132	14.597	889.622	670.613
250.147	14.726	888.981	670.589
251.161	14.502	888.390	669.184
252.176	14.704	887.780	669.476
253.190	14.655	886.688	668.396
254.205	14.908	886.083	668.894
255.220	14.774	885.355	667.748
256.234	14.773	884.995	667.415
257.249	14.910	884.236	667.332
258.263	14.886	883.389	666.538
259.278	14.880	883.077	666.218
260.293	14.897	882.309	665.648
261.307	14.916	881.620	665.144
262.322	14.913	881.040	664.634
263.336	14.992	880.495	664.481
264.351	14.929	879.995	663.793
265.366	14.978	878.852	663.067
266.380	14.974	878.738	662.907
267.395	15.036	877.879	662.444
268.409	15.020	877.162	661.781
269.424	14.979	876.354	660.951
270.439	15.013	875.428	660.330
271.453	15.035	875.039	660.064
272.468	14.955	874.708	659.441
273.482	15.029	873.984	659.127
274.497	15.017	873.294	658.501
275.512	15.121	872.848	658.518
276.526	15.075	872.422	657.957
277.541	15.122	871.886	657.679
278.555	15.183	871.269	657.396
279.570	15.031	870.764	656.358
280.585	15.261	869.640	656.353
281.599	15.301	868.449	655.552
282.614	15.076	868.644	654.762
283.628	15.176	867.863	654.506
284.643	15.158	866.976	653.709
285.657	15.216	866.820	653.760
286.672	15.320	865.767	653.314
287.687	15.407	864.966	652.989
288.701	15.164	864.840	651.892
289.716	15.162	864.378	651.480
290.730	15.366	863.928	651.873
291.745	15.260	863.211	650.866
292.760	15.344	862.459	650.567
293.774	15.419	861.631	650.175
294.789	15.236	861.436	649.262
295.803	15.252	860.889	648.851
296.818	15.236	860.248	648.251
297.833	15.316	859.550	647.975
298.847	15.404	858.794	647.688
299.862	15.373	858.240	647.092
300.876	15.415	857.577	646.697
301.891	15.432	857.142	646.377
302.906	15.574	856.357	646.276
303.920	15.751	855.778	646.463
304.935	15.553	855.474	645.413
305.949	15.534	854.594	644.620
306.964	15.596	853.988	644.345
307.979	15.646	853.555	644.151
308.993	15.657	853.049	643.756
310.008	15.586	852.297	642.858
311.022	15.592	851.983	642.589
312.037	15.647	851.326	642.244
313.052	15.538	850.762	641.347
314.066	15.508	850.310	640.835
315.081	15.656	849.512	640.740
316.095	15.524	849.259	639.990
317.110	15.515	848.911	639.636
318.125	15.540	847.882	638.902
319.139	15.608	847.589	638.880
320.154	15.545	847.435	638.470
321.168	15.593	847.061	638.316
322.183	15.690	846.095	637.897
323.197	15.684	845.606	637.450
324.212	15.698	844.922	636.932
325.227	15.641	844.601	636.416
326.241	15.634	844.055	635.921
327.256	15.762	843.157	635.675
328.270	15.641	842.704	634.818
329.285	15.698	841.942	634.402
330.300	15.631	841.742	633.944
331.314	15.697	841.119	633.668
332.329	15.839	840.548	633.715
333.343	15.787	840.086	633.117
334.358	15.872	839.475	632.921
335.373	15.668	839.624	632.208
336.387	15.793	839.328	632.398
337.402	15.859	838.964	632.316
338.416	15.876	838.769	632.179
339.431	16.012	838.234	632.228
340.446	15.865	837.808	631.300
341.460	16.003	837.296	631.376
342.475	16.050	836.795	631.118
343.489	16.112	836.214	630.857
344.504	16.183	835.698	630.676
345.519	16.162	835.477	630.374
346.533	16.151	834.819	629.783
347.548	16.164	834.270	629.359
348.562	16.046	834.287	628.879
349.577	16.119	833.313	628.359
350.592	16.100	832.650	627.735
351.606	16.075	831.940	627.048
352.621	16.126	831.170	626.603
353.635	16.174	830.829	626.468
354.650	16.279	829.801	626.029
355.665	16.179	829.583	625.437
356.679	16.291	828.507	624.987
357.694	16.316	828.062	624.687
358.708	16.345	827.232	624.112
359.723	16.344	826.965	623.853
360.738	16.332	825.963	622.998
361.752	16.362	825.634	622.806
362.767	16.450	825.323	622.840
363.781	16.355	824.801	622.040
364.796	16.418	824.656	622.106
365.810	16.435	824.182	621.756
366.825	16.533	823.810	621.782
367.840	16.510	823.208	621.190
368.854	16.490	822.555	620.569
369.869	16.522	822.337	620.466
370.883	16.469	821.648	619.696
371.898	16.500	821.782	619.856
372.913	16.544	821.125	619.467
373.927	16.604	820.231	618.959
374.942	16.623	819.788	618.640
375.956	16.623	819.689	618.509
376.971	16.750	819.113	618.483
377.986	16.807	818.643	618.282
379.000	16.831	818.114	617.914
380.015	16.787	817.613	617.321
381.029	16.829	817.112	617.041
382.044	16.779	816.520	616.358
383.059	16.826	816.035	616.108
384.073	16.872	815.295	615.662
385.088	16.811	814.607	614.865
386.102	16.782	814.147	614.360
387.117	16.684	813.705	613.616
388.132	16.938	812.703	613.725
389.146	16.798	812.502	613.013
390.161	16.820	812.280	612.872
391.175	16.803	811.744	612.352
392.190	16.782	811.263	611.859
393.205	16.879	810.653	611.693
394.219	16.883	810.442	611.496
395.234	16.760	810.245	610.848
396.248	16.773	809.561	610.327
397.263	16.838	809.121	610.175
398.278	16.790	808.522	609.497
399.292	16.831	808.213	609.355
400.307	16.741	808.005	608.822
401.321	16.856	807.406	608.730
402.336	16.852	807.049	608.393
403.350	16.867	806.584	608.043
404.365	16.956	805.869	607.766
405.380	17.108	805.434	607.930
406.394	17.121	804.678	607.354
407.409	17.203	804.135	607.183
408.423	17.187	803.951	606.932
409.438	17.104	804.196	606.768
410.453	17.294	803.342	606.747
411.467	17.256	802.687	606.063
412.482	17.353	802.159	605.954
413.496	17.369	802.211	605.998
414.511	17.348	801.786	605.550
415.526	17.318	801.486	605.161
416.540	17.247	800.660	604.234
417.555	17.396	800.044	604.245
418.569	17.336	799.835	603.819
419.584	17.430	799.509	603.853
420.599	17.298	799.185	603.085
421.613	108.896	1292.387	1468.860
422.628	93.664	1364.222	1468.964
