DTS Sentinel unit serial number:	SN413079Multiplexer serial number:	ORYXHardware model number:	OX4-SRSoftware version number:	ORYX F/W v4.00 Oryx Data Collector v3.7.2.0data status	okinstallation	princeton_trtdifferential loss correction	single-endedforward channel	channel 1reverse channel	N/Adate	2019/09/16time	16:06:35forward acquisition time	60.00reverse acquisition time	0.00gamma	496.2192k internal	0.2293k external	0.2293temperature offset calibration	0.9953default loss term (dB/km)	0.3790temperature slope calibration	1.0000multiplexer offset coefficient	1.0000multiplexer slope coefficient	1.0000fibre end	0.00T internal ref (°C)	40.87T ext. ref 1 (°C)	14.93T ext. ref 2 (°C)	35.02length (m)	temperature (°C)	Stokes	anti-Stokes-747.200	-179.252	0.085	0.002
-746.185	-200.000	-0.015	0.125
-745.171	25.888	-0.102	0.087
-744.156	-200.000	-0.007	0.105
-743.142	-29.955	-0.289	0.168
-742.127	-99.192	0.576	0.149
-741.112	50.931	-0.152	0.147
-740.098	190.241	-0.210	0.323
-739.083	-200.000	-0.034	0.211
-738.069	-200.000	-0.016	0.285
-737.054	-8.925	-0.119	-0.082
-736.039	27.290	-0.019	0.016
-735.025	-69.573	-0.075	0.030
-734.010	74.288	-0.182	-0.196
-732.996	-29.857	-0.189	0.110
-731.981	-116.112	-0.099	-0.019
-730.966	106.235	-0.145	0.175
-729.952	-200.000	0.048	-0.245
-728.937	-83.328	-0.182	0.060
-727.923	800.000	-0.103	0.349
-726.908	-200.000	-0.020	-0.452
-725.894	-200.000	0.000	-0.243
-724.879	76.554	0.140	-0.152
-723.864	-49.172	-0.246	-0.120
-722.850	-200.000	-0.032	-0.160
-721.835	-200.000	-0.071	0.349
-720.821	-48.157	0.056	-0.028
-719.806	-115.593	-0.328	0.063
-718.791	-115.464	-0.167	-0.032
-717.777	-15.031	-0.243	-0.159
-716.762	-94.357	0.288	-0.080
-715.748	180.126	0.093	0.140
-714.733	-85.827	0.369	0.117
-713.718	-200.000	0.011	-0.174
-712.704	-68.897	0.233	-0.092
-711.689	108.051	-0.239	-0.291
-710.675	116.274	-0.111	0.139
-709.660	56.022	0.212	-0.211
-708.645	58.038	-0.190	0.190
-707.631	-52.326	0.171	0.081
-706.616	-102.809	-0.082	0.020
-705.602	-86.989	0.120	0.037
-704.587	800.000	0.045	0.139
-703.572	800.000	-0.035	-0.125
-702.558	16.588	-0.142	-0.115
-701.543	439.967	-0.075	-0.167
-700.529	53.692	-0.085	-0.084
-699.514	800.000	0.010	-0.043
-698.499	63.678	0.169	0.173
-697.485	800.000	0.051	0.214
-696.470	-120.643	-0.219	0.038
-695.456	800.000	-0.100	0.412
-694.441	82.561	-0.140	-0.155
-693.426	-93.600	-0.330	0.093
-692.412	-110.653	0.115	0.024
-691.397	-11.535	-0.134	0.090
-690.383	-8.866	0.189	-0.129
-689.368	255.090	-0.286	-0.500
-688.354	-34.935	0.173	0.096
-687.339	-163.126	-0.183	0.009
-686.324	-200.000	0.001	0.125
-685.310	97.990	-0.225	-0.265
-684.295	800.000	-0.022	0.093
-683.281	-200.000	-0.034	0.158
-682.266	-28.187	-0.163	-0.096
-681.251	-161.779	0.333	0.017
-680.237	622.217	-0.069	0.177
-679.222	-145.379	-0.151	-0.014
-678.208	70.479	-0.371	-0.391
-677.193	-200.000	0.035	-0.350
-676.178	392.619	-0.109	0.232
-675.164	-200.000	0.000	0.410
-674.149	-136.447	-0.197	0.023
-673.135	82.172	-0.063	-0.070
-672.120	17.026	-0.283	0.229
-671.105	-104.656	-0.266	0.063
-670.091	34.678	-0.033	-0.030
-669.076	171.273	-0.072	0.105
-668.062	800.000	0.103	-0.294
-667.047	-200.000	-0.024	-0.254
-666.032	800.000	0.076	0.232
-665.018	-107.263	-0.088	-0.020
-664.003	338.900	0.152	-0.303
-662.989	-95.909	-0.213	0.058
-661.974	-9.575	0.237	-0.161
-660.959	107.991	-0.230	-0.280
-659.945	-99.152	0.242	-0.063
-658.930	-200.000	-0.021	0.103
-657.916	255.925	-0.120	-0.210
-656.901	-62.129	-0.067	0.029
-655.886	110.943	-0.123	-0.151
-654.872	-149.709	-0.144	-0.012
-653.857	-200.000	0.062	0.361
-652.843	-19.728	0.084	0.053
-651.828	-0.297	-0.152	-0.110
-650.814	-138.700	-0.182	0.020
-649.799	-200.000	-0.029	-0.304
-648.784	83.915	-0.152	-0.169
-647.770	800.000	0.008	0.028
-646.755	-110.927	-0.182	0.038
-645.741	400.485	0.090	-0.192
-644.726	-197.086	-0.373	0.002
-643.711	41.731	0.153	-0.142
-642.697	800.000	-0.043	-0.145
-641.682	146.614	-0.117	-0.160
-640.668	436.446	0.090	-0.199
-639.653	-200.000	0.033	-0.180
-638.638	263.513	0.169	-0.299
-637.624	-119.550	-0.123	0.022
-636.609	800.000	0.091	-0.321
-635.595	217.797	0.073	0.119
-634.580	566.434	0.199	0.492
-633.565	-16.106	0.139	-0.090
-632.551	221.533	0.053	0.086
-631.536	13.869	-0.208	-0.165
-630.522	-26.620	0.134	0.080
-629.507	-68.968	0.251	-0.098
-628.492	316.439	0.089	-0.171
-627.478	-42.800	-0.054	0.028
-626.463	150.247	-0.118	0.163
-625.449	327.660	-0.191	-0.373
-624.434	-200.000	0.002	-0.290
-623.419	45.702	-0.172	-0.162
-622.405	-117.808	0.150	0.027
-621.390	-72.463	-0.270	-0.102
-620.376	-200.000	-0.020	0.121
-619.361	-200.000	0.003	0.124
-618.346	-103.393	0.112	-0.027
-617.332	-200.000	0.283	-0.001
-616.317	277.785	0.065	0.117
-615.303	388.328	0.162	0.341
-614.288	-125.933	-0.136	0.021
-613.273	787.759	-0.076	0.213
-612.259	114.523	-0.033	-0.042
-611.244	-176.733	-0.057	0.001
-610.230	-200.000	0.089	0.481
-609.215	170.222	0.154	0.224
-608.201	-200.000	0.005	0.305
-607.186	308.796	0.230	0.437
-606.171	24.341	-0.306	0.258
-605.157	44.751	-0.263	-0.246
-604.142	-200.000	-0.000	-0.290
-603.128	-200.000	0.018	-0.098
-602.113	-200.000	-0.001	0.015
-601.098	-121.909	-0.156	0.026
-600.084	-200.000	-0.017	0.144
-599.069	20.362	-0.166	0.137
-598.055	627.401	0.011	-0.028
-597.040	800.000	0.082	-0.278
-596.025	317.581	-0.046	-0.088
-595.011	398.911	0.072	-0.154
-593.996	-62.927	0.108	0.046
-592.982	-101.415	-0.140	0.035
-591.967	-200.000	-0.030	0.174
-590.952	800.000	-0.063	-0.234
-589.938	-173.838	-0.318	-0.010
-588.923	-119.582	-0.073	0.013
-587.909	-200.000	0.058	0.380
-586.894	499.968	0.047	-0.109
-585.879	-200.000	-0.041	-0.378
-584.865	88.870	0.121	-0.137
-583.850	-200.000	-0.002	-0.065
-582.836	-69.777	0.116	0.045
-581.821	-66.627	0.100	0.040
-580.806	800.000	-0.019	-0.077
-579.792	-80.278	-0.119	0.041
-578.777	-96.690	-0.057	-0.015
-577.763	122.691	0.066	-0.083
-576.748	-77.830	0.084	-0.030
-575.733	529.847	-0.144	-0.345
-574.719	126.699	-0.126	0.162
-573.704	-119.591	-0.224	-0.039
-572.690	101.098	-0.205	-0.242
-571.675	21.907	0.162	-0.134
-570.661	-92.445	0.085	-0.024
-569.646	90.038	-0.200	0.228
-568.631	800.000	-0.145	0.430
-567.617	-68.651	-0.188	-0.074
-566.602	591.205	0.136	-0.341
-565.588	77.574	0.336	0.364
-564.573	-53.680	0.273	0.127
-563.558	-85.607	0.136	-0.043
-562.544	216.857	0.081	0.131
-561.529	-200.000	0.025	-0.132
-560.515	-96.382	-0.012	-0.003
-559.500	800.000	0.103	-0.360
-558.485	-90.617	0.288	-0.084
-557.471	-150.850	0.042	-0.003
-556.456	235.092	0.131	-0.220
-555.442	-104.613	-0.275	0.064
-554.427	-183.966	0.113	0.002
-553.412	800.000	-0.031	-0.117
-552.398	-200.000	-0.003	0.244
-551.383	-145.821	-0.234	0.021
-550.369	230.204	0.231	0.384
-549.354	-155.192	0.010	0.001
-548.339	-86.912	-0.072	-0.022
-547.325	10.735	0.227	0.176
-546.310	800.000	-0.055	-0.161
-545.296	-90.540	0.024	0.007
-544.281	-59.356	0.163	0.071
-543.266	549.198	-0.072	0.175
-542.252	-155.741	-0.222	0.014
-541.237	-200.000	-0.007	0.214
-540.223	-1.428	-0.070	0.050
-539.208	360.374	0.122	0.247
-538.193	51.240	-0.102	0.098
-537.179	-115.839	-0.025	-0.005
-536.164	-200.000	0.005	0.237
-535.150	468.140	0.092	-0.211
-534.135	800.000	-0.092	0.336
-533.121	-200.000	-0.013	-0.157
-532.106	-87.407	0.369	-0.113
-531.091	325.627	-0.187	-0.364
-530.077	-1.441	0.066	0.047
-529.062	118.173	-0.126	-0.157
-528.048	-200.000	0.065	-0.382
-527.033	27.234	0.196	-0.167
-526.018	-200.000	-0.039	-0.224
-525.004	-43.788	0.099	-0.051
-523.989	29.916	-0.110	-0.095
-522.975	-116.014	-0.223	-0.042
-521.960	192.237	-0.122	-0.186
-520.945	139.434	0.158	-0.211
-519.931	-38.068	-0.191	-0.103
-518.916	-89.300	-0.497	0.148
-517.902	800.000	0.107	0.321
-516.887	-7.593	-0.237	-0.163
-515.872	-123.518	0.296	-0.048
-514.858	83.957	0.133	0.147
-513.843	124.997	0.072	-0.092
-512.829	59.348	-0.118	-0.118
-511.814	434.182	-0.046	-0.101
-510.799	110.216	-0.154	-0.188
-509.785	-52.946	-0.316	-0.147
-508.770	-10.696	0.166	0.111
-507.756	-200.000	0.001	0.341
-506.741	773.469	0.178	0.491
-505.726	-17.353	-0.245	-0.157
-504.712	800.000	0.101	-0.423
-503.697	-176.396	-0.293	0.008
-502.683	-137.842	-0.037	-0.004
-501.668	-105.236	0.285	0.066
-500.653	-31.242	0.033	-0.019
-499.639	6.788	-0.148	0.111
-498.624	800.000	0.106	-0.341
-497.610	-63.291	-0.112	0.047
-496.595	474.149	0.046	0.106
-495.581	-13.366	0.483	-0.317
-494.566	-200.000	0.026	0.127
-493.551	-44.081	0.204	-0.104
-492.537	-200.000	-0.063	-0.279
-491.522	300.690	0.198	-0.370
-490.508	167.420	-0.065	-0.093
-489.493	145.029	0.217	0.294
-488.478	95.253	-0.178	0.206
-487.464	-22.421	-0.261	0.160
-486.449	-200.000	-0.037	0.220
-485.435	5.000	-0.289	0.215
-484.420	553.727	-0.031	-0.075
-483.405	315.085	-0.157	0.300
-482.391	143.716	0.254	-0.343
-481.376	73.554	0.049	-0.052
-480.362	-127.554	-0.185	0.027
-479.347	800.000	0.048	-0.158
-478.332	634.309	0.123	-0.317
-477.318	800.000	0.096	0.273
-476.303	-84.627	0.286	0.091
-475.289	462.367	0.142	0.320
-474.274	271.537	0.066	-0.117
-473.259	-98.132	-0.238	0.062
-472.245	379.788	0.198	0.411
-471.230	160.020	0.045	0.063
-470.216	-200.000	0.050	0.256
-469.201	179.794	-0.155	0.229
-468.186	720.198	-0.073	0.196
-467.172	800.000	0.071	0.209
-466.157	-200.000	-0.010	0.169
-465.143	-66.131	-0.158	0.064
-464.128	445.168	0.040	0.088
-463.113	-72.186	-0.179	-0.067
-462.099	254.285	0.060	0.104
-461.084	-23.164	0.301	-0.183
-460.070	354.105	0.138	0.277
-459.055	-8.610	0.188	-0.128
-458.040	354.125	-0.085	0.171
-457.026	-200.000	-0.020	0.181
-456.011	800.000	0.072	-0.287
-454.997	65.978	0.126	-0.129
-453.982	-133.657	0.295	0.037
-452.968	721.946	0.124	-0.333
-451.953	242.789	-0.084	-0.142
-450.938	-80.236	0.320	0.108
-449.924	-92.015	-0.385	-0.110
-448.909	-172.168	0.205	-0.007
-447.895	-106.333	-0.427	0.097
-446.880	205.182	-0.236	-0.370
-445.865	800.000	0.042	-0.121
-444.851	97.685	-0.147	0.171
-443.836	81.196	-0.247	-0.269
-442.822	-200.000	0.022	0.126
-441.807	-54.480	0.116	0.053
-440.792	569.874	-0.065	0.160
-439.778	-51.058	0.155	0.074
-438.763	162.249	-0.074	-0.105
-437.749	517.243	-0.065	0.153
-436.734	185.975	0.132	0.198
-435.719	-110.139	-0.183	0.039
-434.705	160.328	0.130	0.183
-433.690	8.428	0.170	0.130
-432.676	-104.289	0.212	-0.050
-431.661	-200.000	0.015	-0.076
-430.646	-183.977	-0.254	0.004
-429.632	5.708	-0.202	0.151
-428.617	-200.000	-0.030	-0.138
-427.603	109.346	0.059	-0.072
-426.588	211.054	-0.111	0.177
-425.573	27.684	-0.063	-0.053
-424.559	-130.225	0.067	0.009
-423.544	-121.202	-0.069	0.012
-422.530	56.321	0.170	-0.167
-421.515	169.108	-0.297	-0.429
-420.500	-200.000	0.001	-0.136
-419.486	-101.446	0.117	-0.029
-418.471	-176.642	-0.184	0.005
-417.457	146.477	-0.021	0.028
-416.442	0.704	-0.382	0.276
-415.428	-101.701	0.231	-0.057
-414.413	-86.385	-0.300	-0.093
-413.398	-92.457	0.183	0.052
-412.384	67.878	0.173	-0.178
-411.369	255.623	0.131	-0.227
-410.355	354.082	-0.066	-0.133
-409.340	800.000	0.023	0.093
-408.325	666.726	-0.079	0.207
-407.311	33.178	0.267	-0.233
-406.296	-24.852	-0.323	0.194
-405.282	-40.352	-0.109	-0.057
-404.267	141.875	0.066	0.088
-403.252	4.261	-0.366	0.271
-402.238	-56.862	-0.320	-0.143
-401.223	402.131	-0.170	-0.360
-400.209	-200.000	-0.012	0.127
-399.194	25.017	-0.174	0.145
-398.179	-111.999	0.321	0.065
-397.165	-99.859	0.237	0.060
-396.150	-58.611	-0.278	0.122
-395.136	16.206	-0.308	-0.245
-394.121	282.826	-0.059	0.106
-393.106	-104.357	-0.097	0.023
-392.092	-200.000	-0.002	-0.272
-391.077	59.168	0.226	0.224
-390.063	600.594	0.076	0.189
-389.048	-200.000	0.005	0.066
-388.033	-92.510	-0.098	0.028
-387.019	-107.188	-0.288	-0.064
-386.004	145.307	-0.194	-0.262
-384.990	-200.000	-0.017	-0.113
-383.975	-200.000	-0.031	0.211
-382.960	306.087	0.149	0.280
-381.946	11.145	0.056	-0.043
-380.931	10.948	-0.066	0.051
-379.917	-155.899	0.238	-0.015
-378.902	800.000	-0.065	0.279
-377.888	-94.933	0.234	0.064
-376.873	-200.000	-0.041	0.254
-375.858	417.346	0.081	-0.175
-374.844	-50.745	-0.080	0.038
-373.829	-200.000	-0.034	0.174
-372.815	-68.872	0.102	0.040
-371.800	-71.505	-0.056	-0.021
-370.785	800.000	0.070	0.197
-369.771	-68.055	0.269	0.106
-368.756	224.201	-0.108	-0.176
-367.742	-11.152	0.196	-0.130
-366.727	-61.125	-0.277	0.118
-365.712	-200.000	0.020	0.375
-364.698	-200.000	-0.003	0.226
-363.683	485.874	0.029	0.066
-362.669	-183.294	0.147	-0.003
-361.654	-200.000	0.043	-0.216
-360.639	800.000	0.116	0.390
-359.625	239.879	0.118	0.198
-358.610	-46.656	-0.185	0.091
-357.596	-17.721	-0.163	-0.103
-356.581	-200.000	-0.020	-0.212
-355.566	7.143	-0.192	-0.144
-354.552	-200.000	-0.015	-0.160
-353.537	-200.000	-0.007	-0.056
-352.523	-71.985	-0.416	0.156
-351.508	-8.546	-0.091	0.062
-350.493	16.812	0.149	0.119
-349.479	800.000	0.049	0.184
-348.464	71.668	-0.099	0.103
-347.450	-184.891	-0.316	-0.005
-346.435	63.509	0.067	0.067
-345.420	16.244	0.068	0.054
-344.406	-21.967	0.318	-0.195
-343.391	800.000	-0.003	-0.014
-342.377	311.376	0.191	-0.361
-341.362	-2.936	0.153	0.107
-340.348	-33.517	-0.163	-0.091
-339.333	-55.066	0.076	-0.035
-338.318	800.000	-0.048	-0.148
-337.304	645.381	-0.085	-0.219
-336.289	-34.997	0.174	0.096
-335.275	17.707	0.199	-0.160
-334.260	-200.000	0.029	0.171
-333.245	800.000	0.076	-0.222
-332.231	346.721	0.037	-0.073
-331.216	262.371	0.217	0.379
-330.202	-127.881	0.143	0.021
-329.187	-1.519	-0.157	0.111
-328.172	68.926	-0.275	0.285
-327.158	-82.229	0.035	-0.011
-326.143	-94.658	0.038	0.010
-325.129	153.753	-0.070	-0.097
-324.114	47.555	0.083	0.077
-323.099	-150.728	0.388	-0.030
-322.085	81.786	0.239	0.260
-321.070	85.231	-0.134	-0.148
-320.056	800.000	0.020	0.057
-319.041	-171.875	-0.213	-0.007
-318.026	-69.985	0.221	-0.085
-317.012	180.301	0.153	-0.226
-315.997	-200.000	0.021	-0.175
-314.983	475.578	0.195	0.444
-313.968	-200.000	0.145	0.001
-312.953	-77.316	0.217	0.076
-311.939	607.826	-0.122	0.306
-310.924	89.301	-0.045	0.051
-309.910	138.281	0.021	0.028
-308.895	-200.000	-0.027	0.330
-307.880	-120.058	0.170	0.029
-306.866	-102.233	0.178	-0.043
-305.851	-58.780	-0.079	0.034
-304.837	-44.078	-0.379	0.191
-303.822	-70.191	0.070	0.027
-302.807	-75.771	0.488	-0.174
-301.793	73.903	-0.261	-0.275
-300.778	59.962	-0.227	-0.226
-299.764	271.532	0.038	-0.066
-298.749	-133.169	0.153	0.019
-297.735	-92.618	0.164	-0.046
-296.720	-145.817	0.173	-0.015
-295.705	61.719	0.297	-0.297
-294.691	1.774	0.323	0.234
-293.676	-44.199	0.198	0.100
-292.662	-200.000	0.001	-0.269
-291.647	-124.117	-0.319	-0.050
-290.632	-120.657	-0.136	0.023
-289.618	-200.000	0.024	-0.253
-288.603	-34.015	-0.130	0.072
-287.589	252.226	0.167	0.285
-286.574	-142.959	0.267	0.026
-285.559	-57.186	0.134	-0.059
-284.545	-80.260	-0.085	0.029
-283.530	139.218	-0.116	0.154
-282.516	800.000	-0.053	-0.168
-281.501	201.459	0.142	-0.220
-280.486	503.547	0.037	0.086
-279.472	-75.029	-0.333	-0.120
-278.457	-200.000	-0.030	0.354
-277.443	-100.787	-0.075	-0.019
-276.428	-143.452	0.161	0.015
-275.413	-33.697	-0.304	0.168
-274.399	-80.982	-0.103	-0.034
-273.384	187.555	-0.019	0.029
-272.370	-200.000	-0.061	0.292
-271.355	122.153	0.191	0.239
-270.340	800.000	-0.093	0.281
-269.326	-200.000	-0.009	0.283
-268.311	-37.740	0.208	-0.111
-267.297	-16.234	-0.095	-0.060
-266.282	800.000	0.099	-0.314
-265.267	-65.501	0.291	0.117
-264.253	128.703	0.074	0.095
-263.238	-41.092	0.106	0.055
-262.224	16.151	0.061	0.048
-261.209	79.249	0.062	-0.067
-260.195	-116.998	-0.262	0.048
-259.180	-38.994	0.294	-0.155
-258.165	165.828	-0.074	0.105
-257.151	-200.000	-0.039	-0.232
-256.136	800.000	0.036	0.153
-255.122	-149.728	-0.219	-0.017
-254.107	-152.932	0.136	-0.010
-253.092	80.312	-0.257	-0.278
-252.078	-171.134	-0.162	-0.005
-251.063	14.272	0.108	0.084
-250.049	65.607	-0.199	-0.202
-249.034	-87.210	-0.359	0.109
-248.019	39.618	-0.154	-0.139
-247.005	514.329	0.113	-0.264
-245.990	-25.615	-0.244	-0.144
-244.976	-38.416	-0.182	-0.096
-243.961	54.653	-0.179	0.173
-242.946	533.515	0.065	-0.154
-241.932	-2.539	-0.155	0.109
-240.917	800.000	0.076	-0.286
-239.903	-43.371	-0.258	-0.131
-238.888	-43.534	-0.066	-0.033
-237.873	441.323	-0.059	0.130
-236.859	289.303	0.123	-0.223
-235.844	-77.899	-0.205	0.071
-234.830	206.894	0.080	0.125
-233.815	127.708	0.277	-0.353
-232.800	-200.000	0.030	0.157
-231.786	-82.738	-0.278	0.090
-230.771	-135.387	-0.343	0.041
-229.757	342.955	0.093	0.182
-228.742	634.762	0.104	0.264
-227.727	392.959	0.113	-0.236
-226.713	-54.753	-0.099	0.045
-225.698	152.551	-0.192	-0.264
-224.684	-139.640	-0.300	0.032
-223.669	800.000	-0.116	-0.392
-222.655	123.438	-0.192	-0.241
-221.640	-124.415	-0.252	-0.039
-220.625	12.678	0.116	0.090
-219.611	800.000	-0.135	-0.525
-218.596	-200.000	0.019	0.087
-217.582	-200.000	-0.002	-0.028
-216.567	-137.399	0.198	-0.023
-215.552	-200.000	-0.032	-0.180
-214.538	-141.291	0.106	-0.011
-213.523	800.000	-0.030	0.087
-212.509	31.905	0.210	0.181
-211.494	-107.593	-0.280	-0.061
-210.479	377.821	0.105	-0.215
-209.465	-88.218	0.156	0.047
-208.450	-200.000	0.021	0.194
-207.436	-141.615	-0.138	0.014
-206.421	96.988	-0.052	-0.060
-205.406	56.492	-0.249	0.243
-204.392	-107.163	0.310	0.069
-203.377	-42.614	0.208	-0.106
-202.363	-200.000	0.072	-0.363
-201.348	8.332	0.196	0.147
-200.333	800.000	0.043	-0.138
-199.319	-102.300	-0.330	0.079
-198.304	63.552	-0.231	-0.232
-197.290	-2.488	-0.140	-0.098
-196.275	33.320	0.260	-0.226
-195.260	-191.090	-0.100	0.001
-194.246	408.994	-0.175	0.372
-193.231	-160.823	-0.258	0.014
-192.217	-101.968	-0.065	0.016
-191.202	-168.836	0.095	-0.004
-190.187	-164.538	0.132	-0.006
-189.173	-50.011	0.240	0.114
-188.158	-42.299	0.254	0.130
-187.144	89.658	0.232	-0.259
-186.129	359.374	0.028	-0.057
-185.114	-98.341	0.253	-0.065
-184.100	3.981	0.098	0.072
-183.085	-34.710	-0.116	0.063
-182.071	184.794	0.162	0.240
-181.056	-126.865	-0.109	-0.016
-180.042	256.377	-0.022	-0.037
-179.027	-42.446	0.396	-0.202
-178.012	5.660	0.099	-0.073
-176.998	-41.105	0.081	0.042
-175.983	-122.099	0.223	0.037
-174.969	150.000	0.178	-0.242
-173.954	-97.012	0.198	0.052
-172.939	4.170	0.139	0.102
-171.925	-200.000	0.045	-0.232
-170.910	800.000	0.075	0.253
-169.896	-100.577	-0.217	-0.054
-168.881	210.071	0.221	0.347
-167.866	-147.625	0.087	-0.007
-166.852	800.000	0.078	-0.266
-165.837	-200.000	-0.064	0.302
-164.823	-110.609	0.082	-0.017
-163.808	800.000	-0.082	0.325
-162.793	-200.000	0.003	0.039
-161.779	-32.656	-0.114	-0.063
-160.764	186.850	-0.055	-0.083
-159.750	-24.734	-0.057	-0.034
-158.735	-22.894	0.114	0.069
-157.720	-90.728	0.196	-0.057
-156.706	-29.914	-0.211	-0.120
-155.691	-200.000	0.008	-0.119
-154.677	-2.636	-0.317	0.222
-153.662	21.289	-0.130	-0.105
-152.647	7.286	0.038	-0.028
-151.633	53.225	-0.101	0.097
-150.618	-200.000	0.050	0.264
-149.604	13.784	0.146	0.113
-148.589	-50.899	0.330	-0.155
-147.574	-93.771	-0.141	-0.039
-146.560	800.000	0.043	-0.131
-145.545	-138.924	-0.236	-0.026
-144.531	800.000	0.109	-0.451
-143.516	35.446	-0.018	0.016
-142.502	-200.000	0.064	-0.330
-141.487	-80.996	-0.020	0.007
-140.472	279.082	-0.185	0.329
-139.458	195.535	-0.086	-0.131
-138.443	800.000	0.116	-0.321
-137.429	139.080	0.086	0.112
-136.414	800.000	-0.057	-0.196
-135.399	58.556	0.163	-0.159
-134.385	321.546	0.038	-0.073
-133.370	-38.895	-0.193	0.102
-132.356	268.504	0.035	0.061
-131.341	114.732	-0.105	0.128
-130.326	-23.457	-0.139	0.083
-129.312	-99.772	-0.201	-0.050
-128.297	261.307	-0.132	0.228
-127.283	-200.000	0.063	0.371
-126.268	60.033	0.203	0.200
-125.253	-52.394	-0.195	0.090
-124.239	318.552	0.034	0.064
-123.224	205.473	-0.080	0.125
-122.210	626.032	0.105	0.264
-121.195	-114.762	0.134	-0.026
-120.180	-200.000	-0.000	0.128
-119.166	0.579	-0.107	0.077
-118.151	-200.000	0.017	0.108
-117.137	-52.002	0.405	0.188
-116.122	-200.000	-0.063	0.320
-115.107	305.954	-0.052	0.097
-114.093	161.592	-0.069	0.096
-113.078	-200.000	0.068	-0.421
-112.064	-163.520	-0.223	0.011
-111.049	86.498	0.043	-0.047
-110.034	-38.742	0.115	-0.061
-109.020	94.005	0.061	-0.069
-108.005	155.603	0.122	0.168
-106.991	680.995	-0.120	0.312
-105.976	-53.317	0.057	0.026
-104.962	297.791	0.116	-0.212
-103.947	4.264	-0.114	-0.083
-102.932	484.934	-0.065	-0.147
-101.918	-83.778	0.235	0.075
-100.903	800.000	-0.040	-0.159
-99.889	742.150	0.131	0.351
-98.874	-36.068	0.117	0.063
-97.859	424.779	0.131	0.281
-96.845	503.161	-0.133	0.306
-95.830	800.000	-0.063	0.256
-94.816	-95.729	-0.099	0.027
-93.801	800.000	-0.057	0.221
-92.786	70.248	-0.207	-0.213
-91.772	328.502	-0.199	0.382
-90.757	-71.708	0.177	-0.066
-89.743	-120.310	0.120	0.020
-88.728	-42.053	-0.304	0.155
-87.713	609.449	0.109	0.273
-86.699	-87.090	-0.393	0.119
-85.684	-137.684	0.240	-0.027
-84.670	800.000	0.043	0.126
-83.655	-200.000	0.007	-0.339
-82.640	800.000	-0.058	-0.173
-81.626	108.568	0.129	-0.154
-80.611	606.833	0.036	-0.088
-79.597	62.218	0.221	-0.219
-78.582	-200.000	0.032	0.207
-77.567	-15.316	-0.112	0.072
-76.553	152.140	-0.059	-0.081
-75.538	-93.005	-0.061	0.017
-74.524	659.628	0.108	-0.276
-73.509	-200.000	0.031	0.251
-72.494	-150.227	-0.093	-0.007
-71.480	800.000	-0.064	0.197
-70.465	680.332	-0.062	-0.160
-69.451	150.187	-0.200	0.270
-68.436	58.878	-0.167	0.163
-67.422	-3.044	0.290	-0.202
-66.407	686.032	-0.096	0.251
-65.392	22.158	-0.425	0.346
-64.378	-183.775	-0.127	-0.002
-63.363	20.691	0.167	-0.135
-62.349	-80.374	0.260	0.087
-61.334	133.316	-0.760	-0.978
-60.319	-61.189	0.271	0.114
-59.305	-200.000	-0.147	-0.865
-58.290	92.067	0.707	0.793
-57.276	-200.000	0.214	1.282
-56.261	-200.000	77.365	524.612
-55.246	537.047	1305.676	3088.336
-54.232	150.711	2529.631	3423.627
-53.217	117.450	2222.626	2722.597
-52.203	52.580	1676.239	1594.250
-51.188	44.548	1403.733	1284.583
-50.173	40.970	1358.143	1220.899
-49.159	59.642	1393.879	1369.097
-48.144	66.143	1412.935	1427.980
-47.130	45.049	1374.520	1260.745
-46.115	41.041	1358.059	1221.065
-45.100	40.753	1353.461	1215.119
-44.086	40.669	1351.086	1212.429
-43.071	40.674	1348.953	1210.492
-42.057	40.663	1346.271	1207.975
-41.042	40.630	1344.633	1206.253
-40.027	40.759	1342.920	1205.453
-39.013	40.744	1341.265	1203.826
-37.998	40.890	1338.952	1202.591
-36.984	40.781	1337.492	1200.570
-35.969	40.966	1335.504	1199.857
-34.954	40.919	1334.396	1198.531
-33.940	40.905	1332.554	1196.739
-32.925	40.870	1331.828	1195.832
-31.911	40.896	1330.066	1194.357
-30.896	40.965	1328.255	1193.101
-29.881	40.933	1326.966	1191.700
-28.867	40.998	1325.541	1190.766
-27.852	40.975	1323.985	1189.180
-26.838	40.992	1322.239	1187.665
-25.823	40.906	1321.609	1186.544
-24.809	40.972	1319.958	1185.405
-23.794	40.954	1318.159	1183.636
-22.779	40.966	1317.057	1182.669
-21.765	40.982	1315.547	1181.366
-20.750	40.896	1314.163	1179.561
-19.736	40.808	1312.648	1177.634
-18.721	40.846	1311.664	1176.928
-17.706	40.763	1310.660	1175.492
-16.692	40.866	1309.181	1174.727
-15.677	40.705	1308.414	1173.041
-14.663	40.900	1307.116	1172.984
-13.648	40.833	1306.753	1172.214
-12.633	40.787	1305.289	1170.585
-11.619	40.747	1304.445	1169.544
-10.604	40.934	1303.216	1169.494
-9.590	40.885	1302.203	1168.254
-8.575	40.871	1301.507	1167.498
-7.560	40.863	1300.574	1166.572
-6.546	40.861	1299.663	1165.695
-5.531	40.827	1298.878	1164.744
-4.517	40.758	1298.467	1163.924
-3.502	40.906	1296.887	1163.329
-2.487	40.819	1296.020	1161.995
-1.473	40.768	1292.086	1158.127
-0.458	39.349	1276.278	1135.728
0.556	33.174	1255.356	1088.607
1.571	28.504	1258.914	1064.557
2.586	26.830	1273.789	1067.203
3.600	25.844	1263.370	1052.622
4.615	22.814	1194.520	978.402
5.629	17.884	1121.523	892.809
6.644	15.145	1100.547	861.957
7.659	14.931	1097.784	858.619
8.673	14.791	1096.523	856.837
9.688	14.854	1094.855	855.780
10.702	15.062	1093.633	855.816
11.717	18.184	1097.495	874.750
12.731	21.265	1101.315	893.505
13.746	19.977	1098.181	884.308
14.761	17.738	1094.825	870.116
15.775	16.606	1091.982	862.018
16.790	15.400	1090.287	854.463
17.804	14.625	1088.439	849.000
18.819	14.192	1087.300	845.834
19.834	13.794	1086.168	842.860
20.848	13.551	1084.877	840.547
21.863	13.377	1084.128	839.013
22.877	13.176	1083.331	837.303
23.892	13.119	1083.212	836.845
24.907	13.181	1081.953	836.116
25.921	13.205	1081.341	835.687
26.936	13.334	1079.578	834.903
27.950	13.345	1078.588	834.120
28.965	13.408	1076.396	832.668
29.980	13.450	1075.112	831.810
30.994	13.492	1073.711	830.865
32.009	13.429	1072.929	829.869
33.023	13.373	1071.962	828.768
34.038	13.358	1070.650	827.607
35.053	13.370	1069.757	826.906
36.067	13.269	1068.752	825.546
37.082	13.301	1067.946	825.014
38.096	13.375	1067.219	824.747
39.111	13.378	1066.918	824.455
40.126	13.431	1064.970	823.140
41.140	13.212	1064.153	821.349
42.155	13.256	1062.856	820.493
43.169	13.130	1061.852	819.023
44.184	13.094	1060.917	818.050
45.199	13.049	1059.985	817.037
46.213	13.132	1058.828	816.481
47.228	13.220	1057.475	815.800
48.242	13.294	1056.448	815.302
49.257	13.291	1055.481	814.466
50.271	13.223	1054.686	813.448
51.286	13.436	1053.731	813.687
52.301	13.363	1052.136	812.027
53.315	13.233	1051.598	810.899
54.330	13.251	1050.390	809.984
55.344	13.127	1049.817	808.865
56.359	13.253	1048.446	808.353
57.374	13.188	1047.834	807.494
58.388	13.110	1046.595	806.087
59.403	13.070	1046.551	805.784
60.417	13.137	1045.264	805.047
61.432	13.106	1044.546	804.274
62.447	12.997	1044.196	803.399
63.461	13.181	1042.525	802.941
64.476	13.053	1041.346	801.340
65.490	12.999	1040.982	800.724
66.505	13.110	1040.271	800.644
67.520	13.053	1039.687	799.848
68.534	13.080	1038.877	799.289
69.549	13.009	1038.534	798.608
70.563	13.093	1037.333	798.021
71.578	13.073	1036.117	796.919
72.593	13.112	1035.555	796.605
73.607	13.025	1035.092	795.756
74.622	13.083	1034.397	795.431
75.636	12.960	1033.834	794.337
76.651	13.072	1032.929	794.108
77.666	13.134	1032.237	793.807
78.680	12.922	1031.749	792.342
79.695	13.152	1031.010	792.807
80.709	13.111	1030.254	791.959
81.724	13.067	1029.634	791.200
82.739	13.201	1028.606	790.983
83.753	13.194	1028.443	790.754
84.768	13.311	1027.255	790.331
85.782	13.380	1026.490	790.001
86.797	13.317	1025.542	788.902
87.812	13.344	1024.815	788.402
88.826	13.317	1023.511	787.202
89.841	13.330	1022.864	786.696
90.855	13.323	1022.063	785.973
91.870	13.482	1021.325	786.092
92.884	13.494	1020.537	785.472
93.899	13.326	1019.824	784.059
94.914	13.462	1018.530	783.638
95.928	13.436	1017.888	782.951
96.943	13.278	1017.009	781.459
97.957	13.283	1016.320	780.884
98.972	13.452	1015.213	780.761
99.987	13.385	1014.121	779.538
101.001	13.409	1013.428	779.050
102.016	13.277	1012.505	777.652
103.030	13.493	1011.332	777.697
104.045	13.491	1010.594	777.050
105.060	13.291	1009.825	775.454
106.074	13.360	1008.948	775.033
107.089	13.218	1008.221	773.742
108.103	13.206	1006.975	772.659
109.118	13.230	1005.914	771.891
110.133	13.181	1005.303	771.122
111.147	13.279	1003.906	770.441
112.162	13.292	1003.177	769.873
113.176	13.218	1003.148	769.441
114.191	13.231	1002.174	768.687
115.206	13.325	1000.975	768.133
116.220	13.324	1000.066	767.363
117.235	13.277	999.242	766.444
118.249	13.242	998.321	765.511
119.264	13.193	997.189	764.348
120.279	13.317	997.035	764.735
121.293	13.285	995.764	763.542
122.308	13.254	995.128	762.845
123.322	13.216	994.205	761.894
124.337	13.164	993.165	760.790
125.352	13.233	992.004	760.155
126.366	13.150	990.952	758.897
127.381	13.191	990.242	758.475
128.395	13.269	989.245	758.003
129.410	13.390	988.107	757.615
130.424	13.329	987.363	756.702
131.439	13.361	986.532	756.144
132.454	13.495	985.546	755.931
133.468	13.388	985.033	754.982
134.483	13.387	984.106	754.201
135.497	13.347	983.336	753.365
136.512	13.456	982.190	752.915
137.527	13.492	981.628	752.579
138.541	13.419	980.774	751.527
139.556	13.483	980.070	751.212
140.570	13.557	979.664	751.168
141.585	13.639	978.174	750.333
142.600	13.539	977.967	749.653
143.614	13.566	976.995	748.965
144.629	13.702	975.932	748.699
145.643	13.518	975.123	747.181
146.658	13.635	973.560	746.446
147.673	13.566	973.154	745.755
148.687	13.472	972.199	744.534
149.702	13.513	971.446	744.079
150.716	13.386	970.943	743.056
151.731	13.519	969.821	742.730
152.746	13.462	969.363	742.056
153.760	13.425	968.414	741.101
154.775	13.499	968.230	741.224
155.789	13.517	967.648	740.792
156.804	13.666	966.625	740.608
157.819	13.521	965.986	739.406
158.833	13.538	965.405	738.973
159.848	13.633	964.538	738.666
160.862	13.600	963.566	737.709
161.877	13.370	962.593	735.877
162.892	13.543	961.332	735.618
163.906	13.499	960.536	734.748
164.921	13.400	959.865	733.728
165.935	13.538	958.742	733.417
166.950	13.578	957.984	732.949
167.964	13.526	957.315	732.145
168.979	13.580	956.251	731.504
169.994	13.597	955.330	730.809
171.008	13.632	954.803	730.495
172.023	13.561	954.354	729.774
173.037	13.675	953.472	729.536
174.052	13.643	952.965	728.942
175.067	13.594	952.367	728.205
176.081	13.623	951.632	727.708
177.096	13.577	950.953	726.921
178.110	13.551	950.479	726.381
179.125	13.607	949.779	726.028
180.140	13.621	949.366	725.708
181.154	13.778	948.899	725.977
182.169	13.794	948.340	725.554
183.183	13.829	947.643	725.110
184.198	13.909	946.537	724.545
185.213	13.865	945.847	723.763
186.227	13.819	945.392	723.152
187.242	13.826	944.693	722.584
188.256	13.881	944.050	722.268
189.271	13.894	942.937	721.408
190.286	13.841	942.106	720.476
191.300	13.750	941.372	719.457
192.315	13.628	940.917	718.517
193.329	13.604	940.611	718.116
194.344	13.830	939.650	718.298
195.359	13.773	939.358	717.764
196.373	13.907	938.515	717.637
197.388	13.953	938.179	717.512
198.402	14.049	937.748	717.534
199.417	14.148	937.246	717.512
200.432	13.950	936.483	716.015
201.446	14.216	935.945	716.685
202.461	14.122	935.382	715.787
203.475	14.087	935.020	715.293
204.490	14.116	934.021	714.593
205.504	14.069	933.445	713.885
206.519	14.123	932.323	713.196
207.534	14.086	931.967	712.702
208.548	14.083	930.950	711.846
209.563	14.132	930.806	711.883
210.577	14.147	929.602	710.963
211.592	14.381	928.829	711.309
212.607	14.441	928.026	710.888
213.621	14.265	927.611	709.756
214.636	14.175	927.142	708.953
215.650	14.294	926.085	708.587
216.665	14.412	925.737	708.762
217.680	14.329	924.988	707.772
218.694	14.316	924.420	707.217
219.709	14.263	923.858	706.502
220.723	14.238	922.896	705.599
221.738	14.447	921.796	705.578
222.753	14.340	921.507	704.844
223.767	14.505	920.962	705.062
224.782	14.473	920.575	704.566
225.796	14.419	920.557	704.262
226.811	14.410	919.516	703.366
227.826	14.416	918.400	702.475
228.840	14.406	917.689	701.827
229.855	14.403	916.914	701.159
230.869	14.305	916.632	700.469
231.884	14.410	915.662	700.109
232.899	14.438	914.687	699.420
233.913	14.442	914.179	698.983
234.928	14.315	913.496	697.869
235.942	14.373	913.142	697.779
236.957	14.393	912.701	697.465
237.972	14.374	911.872	696.687
238.986	14.484	911.063	696.471
240.001	14.471	910.289	695.763
241.015	14.491	909.709	695.339
242.030	14.549	909.063	695.026
243.045	14.537	908.517	694.499
244.059	14.629	907.746	694.229
245.074	14.708	907.109	694.011
246.088	14.621	906.644	693.229
247.103	14.563	906.544	692.851
248.117	14.706	905.259	692.403
249.132	14.786	905.140	692.579
250.147	14.895	904.224	692.271
251.161	14.986	903.227	691.822
252.176	14.874	903.229	691.299
253.190	14.827	902.420	690.424
254.205	14.976	901.923	690.599
255.220	14.982	901.465	690.210
256.234	14.941	900.295	689.084
257.249	14.925	899.599	688.426
258.263	14.993	898.688	687.946
259.278	14.959	898.375	687.507
260.293	14.914	897.871	686.877
261.307	15.091	897.319	687.119
262.322	15.098	896.751	686.651
263.336	15.041	896.128	685.882
264.351	15.116	895.154	685.379
265.366	15.151	894.538	684.993
266.380	15.195	893.864	684.597
267.395	15.246	893.010	684.090
268.409	15.177	892.135	683.077
269.424	15.091	891.759	682.377
270.439	15.150	890.578	681.653
271.453	15.088	890.021	680.914
272.468	15.093	889.793	680.701
273.482	15.038	889.289	680.033
274.497	15.046	888.430	679.345
275.512	15.132	888.214	679.472
276.526	15.191	887.414	679.038
277.541	15.197	886.725	678.475
278.555	15.239	886.370	678.311
279.570	15.462	885.463	678.462
280.585	15.387	884.644	677.470
281.599	15.352	884.241	676.961
282.614	15.359	883.402	676.288
283.628	15.373	883.084	676.040
284.643	15.376	882.378	675.452
285.657	15.376	881.659	674.842
286.672	15.404	881.242	674.574
287.687	15.338	880.537	673.709
288.701	15.310	880.095	673.199
289.716	15.406	879.525	673.090
290.730	15.472	879.055	672.937
291.745	15.476	878.147	672.197
292.760	15.541	877.462	671.873
293.774	15.687	876.932	671.991
294.789	15.554	876.347	670.951
295.803	15.531	875.569	670.203
296.818	15.513	874.863	669.532
297.833	15.640	873.983	669.307
298.847	15.556	873.320	668.404
299.862	15.695	872.860	668.549
300.876	15.572	872.554	667.766
301.891	15.629	871.854	667.397
302.906	15.635	871.295	666.933
303.920	15.818	871.004	667.379
304.935	15.759	870.318	666.558
305.949	15.710	869.488	665.670
306.964	15.687	869.104	665.228
307.979	15.842	868.270	665.144
308.993	15.816	867.784	664.608
310.008	15.950	866.939	664.429
311.022	15.767	866.373	663.217
312.037	15.795	866.127	663.080
313.052	15.677	865.552	662.115
314.066	15.699	864.644	661.451
315.081	15.685	864.690	661.372
316.095	15.707	863.366	660.386
317.110	15.699	863.189	660.161
318.125	15.721	862.633	659.765
319.139	15.796	862.378	659.803
320.154	15.857	862.110	659.780
321.168	15.772	861.197	658.691
322.183	15.869	860.428	658.423
323.197	15.979	859.534	658.110
324.212	15.905	859.281	657.569
325.227	16.012	858.597	657.406
326.241	15.954	858.527	657.066
327.256	15.796	857.857	655.881
328.270	15.883	857.137	655.610
329.285	15.793	856.682	654.857
330.300	15.929	855.755	654.618
331.314	15.765	855.336	653.602
332.329	15.982	854.673	653.880
333.343	15.991	854.406	653.652
334.358	16.110	853.671	653.494
335.373	15.982	853.382	652.718
336.387	15.993	853.482	652.780
337.402	16.084	853.082	652.770
338.416	16.119	852.478	652.384
339.431	16.075	852.115	651.879
340.446	16.148	851.652	651.747
341.460	16.168	851.292	651.492
342.475	16.222	850.650	651.152
343.489	16.143	850.773	650.882
344.504	16.310	849.784	650.712
345.519	16.400	849.155	650.519
346.533	16.305	848.918	649.915
347.548	16.441	847.797	649.523
348.562	16.431	847.657	649.319
349.577	16.209	847.225	648.079
350.592	16.250	846.202	647.396
351.606	16.282	845.565	646.974
352.621	16.391	844.704	646.675
353.635	16.261	844.468	645.939
354.650	16.239	843.738	645.241
355.665	16.302	843.393	645.158
356.679	16.371	842.668	644.811
357.694	16.389	842.261	644.512
358.708	16.519	841.133	644.088
359.723	16.465	840.738	643.522
360.738	16.309	840.687	642.830
361.752	16.492	839.743	642.748
362.767	16.540	838.840	642.183
363.781	16.601	838.897	642.400
364.796	16.681	838.202	642.114
365.810	16.677	837.742	641.692
366.825	16.675	837.404	641.369
367.840	16.706	836.751	640.928
368.854	16.578	836.195	639.962
369.869	16.727	835.818	640.180
370.883	16.724	835.358	639.759
371.898	16.747	835.165	639.643
372.913	16.870	834.616	639.629
373.927	16.706	834.068	638.532
374.942	16.703	833.720	638.200
375.956	16.730	833.456	638.042
376.971	16.982	832.518	638.217
377.986	16.871	832.237	637.526
379.000	16.996	831.884	637.672
380.015	16.919	831.495	637.028
381.029	17.020	830.866	636.867
382.044	16.907	829.946	635.684
383.059	16.953	829.320	635.320
384.073	17.007	829.014	635.230
385.088	16.989	828.274	634.540
386.102	16.905	827.645	633.687
387.117	16.944	827.311	633.522
388.132	16.924	826.552	632.810
389.146	17.012	825.932	632.607
390.161	16.952	825.559	632.042
391.175	17.078	824.997	632.024
392.190	16.983	824.745	631.422
393.205	17.017	824.358	631.196
394.219	17.000	823.841	630.681
395.234	17.094	823.232	630.509
396.248	16.967	822.886	629.718
397.263	16.935	822.564	629.294
398.278	16.956	822.142	628.993
399.292	16.956	821.665	628.573
400.307	17.003	821.122	628.277
401.321	16.916	820.917	627.742
402.336	16.974	820.289	627.422
403.350	17.030	819.869	627.252
404.365	17.124	819.608	627.345
405.380	17.189	819.074	627.120
406.394	17.203	818.434	626.625
407.409	17.353	817.943	626.747
408.423	17.284	817.805	626.333
409.438	17.312	817.429	626.093
410.453	17.414	816.429	625.645
411.467	17.432	816.285	625.545
412.482	17.348	815.998	624.964
413.496	17.362	815.945	624.918
414.511	17.409	815.005	624.316
415.526	17.463	814.661	624.193
416.540	17.490	814.170	623.860
417.555	17.405	813.483	622.970
418.569	17.508	813.240	623.104
419.584	17.557	812.738	622.844
420.599	17.666	812.186	622.763
421.613	92.200	1266.713	1375.576
422.628	79.027	1332.954	1375.690
