DTS Sentinel unit serial number:	SN413079Multiplexer serial number:	ORYXHardware model number:	OX4-SRSoftware version number:	ORYX F/W v4.00 Oryx Data Collector v3.7.2.0data status	okinstallation	princeton_trtdifferential loss correction	single-endedforward channel	channel 1reverse channel	N/Adate	2019/09/12time	00:04:11forward acquisition time	60.00reverse acquisition time	0.00gamma	496.2192k internal	0.2318k external	0.2318temperature offset calibration	1.0074default loss term (dB/km)	0.3790temperature slope calibration	1.0000multiplexer offset coefficient	1.0000multiplexer slope coefficient	1.0000fibre end	0.00T internal ref (°C)	33.69T ext. ref 1 (°C)	2.01T ext. ref 2 (°C)	28.16length (m)	temperature (°C)	Stokes	anti-Stokes-747.200	-130.367	0.288	-0.040
-746.185	-46.697	-0.119	-0.059
-745.171	87.495	0.048	-0.054
-744.156	19.606	-0.314	-0.255
-743.142	71.348	-0.191	-0.200
-742.127	-170.709	0.130	-0.005
-741.112	11.377	0.237	-0.184
-740.098	571.854	-0.170	0.419
-739.083	464.825	-0.083	0.188
-738.069	-200.000	-0.029	0.230
-737.054	-62.523	-0.094	0.040
-736.039	1.379	-0.407	-0.296
-735.025	372.498	0.139	0.286
-734.010	29.096	-0.198	-0.170
-732.996	-71.587	-0.134	-0.051
-731.981	-132.563	-0.300	-0.039
-730.966	111.172	0.036	0.044
-729.952	800.000	-0.061	-0.194
-728.937	-0.606	-0.281	-0.202
-727.923	-200.000	-0.017	-0.101
-726.908	14.995	0.160	0.126
-725.894	171.374	-0.164	-0.238
-724.879	-14.843	-0.173	-0.112
-723.864	22.712	-0.239	0.198
-722.850	-200.000	-0.219	-0.000
-721.835	-127.924	-0.079	-0.012
-720.821	388.950	-0.026	0.054
-719.806	294.570	0.060	-0.111
-718.791	417.278	0.029	0.063
-717.777	21.369	-0.132	-0.108
-716.762	-200.000	0.005	-0.083
-715.748	54.165	0.205	0.200
-714.733	-27.262	0.516	0.304
-713.718	-200.000	-0.005	-0.223
-712.704	441.317	-0.226	0.501
-711.689	72.163	-0.189	-0.199
-710.675	800.000	0.094	0.340
-709.660	-182.156	-0.168	-0.003
-708.645	152.539	-0.277	-0.383
-707.631	-29.692	0.144	0.083
-706.616	44.446	-0.149	0.138
-705.602	58.487	-0.346	0.343
-704.587	-38.022	-0.324	0.174
-703.572	-118.007	-0.226	0.041
-702.558	-120.154	0.335	0.058
-701.543	-118.686	-0.257	-0.046
-700.529	-200.000	-0.007	-0.328
-699.514	298.480	-0.062	-0.115
-698.499	-168.267	-0.073	-0.003
-697.485	161.450	-0.052	-0.073
-696.470	-200.000	-0.008	-0.226
-695.456	541.177	-0.239	-0.576
-694.441	-20.433	-0.145	0.090
-693.426	-22.478	0.185	-0.113
-692.412	-42.859	0.239	-0.123
-691.397	-200.000	0.015	-0.223
-690.383	21.242	0.250	-0.205
-689.368	302.860	0.044	0.083
-688.354	-96.280	0.246	0.066
-687.339	-200.000	0.017	0.227
-686.324	241.666	-0.147	-0.248
-685.310	208.791	-0.075	-0.118
-684.295	22.454	0.058	0.048
-683.281	800.000	-0.051	0.212
-682.266	327.200	0.133	-0.257
-681.251	77.426	0.065	-0.069
-680.237	800.000	-0.074	-0.226
-679.222	629.806	0.128	-0.326
-678.208	403.236	0.042	0.089
-677.193	-108.724	0.093	-0.020
-676.178	155.203	0.211	-0.293
-675.164	80.412	-0.094	-0.102
-674.149	-54.508	0.062	-0.028
-673.135	257.359	-0.138	-0.239
-672.120	489.970	-0.055	-0.127
-671.105	-104.635	0.014	-0.003
-670.091	-147.462	0.400	0.034
-669.076	171.210	-0.135	0.195
-668.062	6.600	-0.238	-0.179
-667.047	69.710	-0.278	0.289
-666.032	183.185	0.073	0.109
-665.018	-21.484	-0.225	0.139
-664.003	800.000	0.106	-0.468
-662.989	49.547	0.079	-0.075
-661.974	-40.518	-0.281	-0.147
-660.959	68.762	0.181	-0.187
-659.945	-200.000	0.041	-0.210
-658.930	128.541	-0.036	0.047
-657.916	-15.832	0.243	0.156
-656.901	-112.905	0.339	0.068
-655.886	74.348	0.092	-0.097
-654.872	-127.400	-0.080	0.012
-653.857	32.955	0.113	-0.099
-652.843	0.249	-0.058	-0.042
-651.828	-87.060	-0.379	-0.116
-650.814	-126.774	-0.218	-0.032
-649.799	-189.955	-0.076	0.001
-648.784	-200.000	-0.043	0.228
-647.770	39.229	0.131	-0.118
-646.755	210.330	0.116	0.183
-645.741	-115.392	-0.256	-0.049
-644.726	-105.364	-0.083	-0.019
-643.711	-14.035	0.136	0.088
-642.697	599.532	0.036	-0.089
-641.682	-65.273	-0.138	0.056
-640.668	-162.203	-0.396	0.020
-639.653	95.865	-0.197	0.226
-638.638	800.000	-0.045	0.174
-637.624	96.843	-0.216	0.249
-636.609	800.000	-0.033	-0.102
-635.595	70.673	-0.201	0.210
-634.580	-200.000	0.033	-0.162
-633.565	-200.000	0.027	-0.231
-632.551	-188.691	-0.162	0.002
-631.536	-180.356	0.348	-0.007
-630.522	329.843	0.175	-0.339
-629.507	-82.898	0.574	0.187
-628.492	-148.338	0.046	0.004
-627.478	-83.161	0.158	-0.051
-626.463	177.855	-0.051	0.075
-625.449	-200.000	0.021	-0.157
-624.434	257.360	0.077	0.133
-623.419	-200.000	0.008	-0.229
-622.405	800.000	-0.042	-0.175
-621.390	48.616	-0.551	-0.521
-620.376	-107.501	-0.505	0.111
-619.361	-200.000	-0.004	-0.063
-618.346	-200.000	-0.006	0.145
-617.332	-127.927	0.156	-0.023
-616.317	-24.047	-0.292	0.176
-615.303	204.297	0.121	-0.188
-614.288	-32.437	0.299	0.168
-613.273	221.801	-0.219	-0.354
-612.259	-56.603	0.359	-0.160
-611.244	-71.572	0.185	-0.070
-610.230	-200.000	-0.049	-0.224
-609.215	214.011	-0.142	0.226
-608.201	85.424	0.072	0.080
-607.186	709.923	-0.084	-0.225
-606.171	-35.631	-0.179	-0.098
-605.157	438.072	0.073	-0.161
-604.142	339.263	-0.100	0.197
-603.128	800.000	-0.069	-0.231
-602.113	-200.000	-0.009	0.112
-601.098	-32.548	0.145	0.081
-600.084	59.195	0.076	0.075
-599.069	79.163	0.157	-0.170
-598.055	9.918	0.328	0.251
-597.040	800.000	-0.034	0.105
-596.025	39.918	-0.155	-0.140
-595.011	147.910	-0.031	0.042
-593.996	-83.898	-0.169	-0.054
-592.982	87.388	-0.121	-0.135
-591.967	800.000	0.027	-0.095
-590.952	321.284	-0.056	0.106
-589.938	-200.000	-0.006	-0.333
-588.923	33.667	-0.219	-0.191
-587.909	-92.729	0.264	-0.074
-586.894	-82.278	-0.143	-0.047
-585.879	-74.039	0.040	0.015
-584.865	76.826	0.168	0.179
-583.850	696.563	-0.061	-0.162
-582.836	-200.000	0.009	-0.054
-581.821	-156.923	-0.124	-0.008
-580.806	11.183	0.040	-0.031
-579.792	142.452	0.065	-0.087
-578.777	-66.551	0.220	-0.088
-577.763	-8.263	0.059	0.040
-576.748	407.938	-0.056	0.119
-575.733	800.000	0.102	-0.291
-574.719	122.637	0.006	-0.008
-573.704	800.000	0.080	0.248
-572.690	160.974	0.172	0.242
-571.675	119.291	-0.018	-0.022
-570.661	748.859	-0.132	-0.359
-569.646	-47.869	-0.110	0.054
-568.631	-38.539	0.164	0.087
-567.617	211.615	0.266	-0.421
-566.602	41.597	0.061	0.055
-565.588	-121.620	0.143	-0.024
-564.573	170.421	0.096	0.139
-563.558	487.247	-0.035	-0.081
-562.544	-19.135	0.329	0.205
-561.529	-57.969	0.149	0.066
-560.515	-52.917	0.139	0.064
-559.500	346.476	-0.140	0.277
-558.485	-118.822	0.436	-0.077
-557.471	98.520	-0.146	-0.169
-556.456	228.656	0.058	-0.095
-555.442	30.702	-0.056	0.049
-554.427	-64.114	-0.236	-0.097
-553.412	-79.659	-0.189	-0.064
-552.398	782.219	-0.050	0.138
-551.383	-200.000	0.036	0.206
-550.369	14.172	0.188	-0.147
-549.354	517.025	-0.026	-0.061
-548.339	-200.000	-0.043	-0.284
-547.325	-18.291	0.231	0.145
-546.310	201.437	-0.168	-0.259
-545.296	-200.000	-0.058	-0.301
-544.281	201.170	0.197	0.305
-543.266	800.000	-0.106	0.311
-542.252	-140.826	0.087	0.009
-541.237	-112.564	-0.414	-0.083
-540.223	-107.473	-0.026	-0.006
-539.208	41.605	0.224	-0.204
-538.193	-133.497	-0.080	-0.010
-537.179	107.797	0.069	0.082
-536.164	-75.140	-0.243	0.087
-535.150	-18.993	0.105	0.066
-534.135	800.000	0.057	0.212
-533.121	444.553	0.070	0.153
-532.106	35.499	-0.248	-0.219
-531.091	353.779	-0.022	-0.045
-530.077	395.908	-0.092	0.192
-529.062	-200.000	0.025	-0.277
-528.048	-200.000	0.010	-0.451
-527.033	-200.000	-0.042	-0.359
-526.018	-94.140	-0.177	-0.049
-525.004	-111.454	-0.127	-0.026
-523.989	-69.180	-0.230	0.089
-522.975	311.473	0.075	-0.141
-521.960	100.071	-0.112	-0.130
-520.945	42.295	-0.246	-0.225
-519.931	-71.842	-0.248	-0.093
-518.916	-142.229	0.361	0.036
-517.902	-200.000	-0.009	0.123
-516.887	-77.043	0.199	-0.070
-515.872	92.437	-0.108	-0.122
-514.858	552.987	-0.046	-0.110
-513.843	-102.843	-0.251	0.060
-512.829	-100.421	0.418	0.104
-511.814	-60.273	0.409	-0.175
-510.799	-113.657	0.137	0.027
-509.785	-200.000	0.022	0.243
-508.770	419.420	0.097	0.209
-507.756	337.955	-0.109	-0.213
-506.741	800.000	0.032	-0.129
-505.726	27.263	-0.069	-0.058
-504.712	-72.311	-0.084	-0.031
-503.697	800.000	-0.073	-0.244
-502.683	514.635	0.102	-0.239
-501.668	-126.713	0.266	0.039
-500.653	-116.061	0.537	0.100
-499.639	110.212	-0.032	-0.038
-498.624	-79.001	0.334	0.114
-497.610	-200.000	-0.001	0.338
-496.595	437.934	-0.250	-0.547
-495.581	-81.741	0.011	0.004
-494.566	-62.328	-0.177	0.074
-493.551	-200.000	0.055	0.241
-492.537	-200.000	-0.001	-0.204
-491.522	-200.000	0.004	-0.034
-490.508	-104.415	0.081	-0.019
-489.493	0.982	-0.052	-0.037
-488.478	-200.000	0.012	-0.480
-487.464	-0.535	-0.076	0.054
-486.449	-200.000	0.024	0.256
-485.435	-54.683	-0.333	-0.151
-484.420	131.590	-0.074	0.095
-483.405	-137.909	-0.167	0.019
-482.391	-5.957	0.030	0.020
-481.376	800.000	0.084	0.362
-480.362	-19.987	0.355	0.220
-479.347	-200.000	0.017	0.093
-478.332	-105.962	0.172	0.039
-477.318	186.472	0.094	0.140
-476.303	195.178	0.188	0.285
-475.289	-168.965	0.282	-0.011
-474.274	53.998	-0.209	0.201
-473.259	-200.000	0.023	0.166
-472.245	-20.670	-0.091	-0.056
-471.230	-200.000	-0.025	-0.172
-470.216	148.317	-0.149	0.202
-469.201	650.118	0.076	0.195
-468.186	-143.527	0.365	-0.035
-467.172	11.741	0.215	-0.165
-466.157	-100.970	-0.172	0.042
-465.143	-200.000	0.012	-0.098
-464.128	-181.340	-0.184	-0.004
-463.113	-200.000	-0.045	0.374
-462.099	-200.000	0.009	-0.139
-461.084	122.802	-0.242	-0.303
-460.070	-200.000	0.041	0.272
-459.055	-17.166	0.026	0.016
-458.040	641.326	0.130	0.333
-457.026	163.159	-0.045	-0.063
-456.011	-200.000	-0.008	-0.165
-454.997	75.946	-0.195	-0.206
-453.982	65.076	0.070	-0.071
-452.968	540.581	-0.106	0.252
-451.953	-184.635	-0.263	0.004
-450.938	-200.000	0.011	0.229
-449.924	-168.450	0.362	-0.014
-448.909	800.000	-0.071	0.201
-447.895	-200.000	0.007	0.408
-446.880	-200.000	0.005	0.198
-445.865	-66.877	-0.122	0.048
-444.851	-200.000	0.024	-0.116
-443.836	-55.888	0.228	0.102
-442.822	800.000	-0.033	-0.118
-441.807	94.494	-0.187	0.212
-440.792	800.000	-0.071	-0.243
-439.778	101.933	-0.133	0.155
-438.763	223.491	-0.030	-0.049
-437.749	-92.547	0.042	0.012
-436.734	-200.000	-0.047	0.388
-435.719	-200.000	0.030	-0.187
-434.705	-158.205	0.219	-0.013
-433.690	76.312	0.134	-0.142
-432.676	103.518	-0.036	-0.042
-431.661	-81.638	-0.208	0.068
-430.646	-4.851	0.247	-0.170
-429.632	-200.000	0.016	0.081
-428.617	-200.000	0.015	0.212
-427.603	97.952	0.115	0.132
-426.588	49.133	0.180	0.169
-425.573	800.000	0.063	-0.189
-424.559	-103.482	0.071	-0.017
-423.544	-87.034	-0.332	-0.101
-422.530	-149.939	-0.055	0.004
-421.515	233.189	-0.048	-0.079
-420.500	245.930	-0.054	-0.091
-419.486	62.622	-0.170	0.170
-418.471	-62.479	0.419	0.174
-417.457	-41.963	-0.327	-0.167
-416.442	208.599	0.043	-0.067
-415.428	-33.377	-0.178	-0.098
-414.413	-200.000	0.046	0.251
-413.398	-51.414	-0.180	0.084
-412.384	1.321	-0.153	0.110
-411.369	484.040	0.182	-0.413
-410.355	-200.000	0.026	0.190
-409.340	353.553	0.166	-0.328
-408.325	464.038	-0.080	-0.178
-407.311	800.000	0.112	-0.324
-406.296	28.498	-0.105	0.089
-405.282	155.833	-0.227	-0.312
-404.267	800.000	0.082	0.259
-403.252	97.243	-0.103	-0.118
-402.238	434.078	-0.087	-0.188
-401.223	87.214	0.154	-0.170
-400.209	188.038	0.042	-0.062
-399.194	498.200	-0.050	-0.114
-398.179	104.374	0.276	0.324
-397.165	131.394	-0.119	-0.153
-396.150	180.686	0.310	-0.455
-395.136	481.249	0.138	0.314
-394.121	-200.000	-0.007	0.063
-393.106	-114.985	0.047	-0.009
-392.092	203.604	0.120	-0.186
-391.077	-200.000	0.010	0.109
-390.063	800.000	-0.032	-0.103
-389.048	800.000	-0.043	0.139
-388.033	-4.390	-0.276	0.190
-387.019	-200.000	-0.082	-0.398
-386.004	-200.000	0.053	0.255
-384.990	219.875	0.151	-0.242
-383.975	-200.000	0.001	-0.191
-382.960	88.632	-0.013	-0.015
-381.946	294.051	-0.054	0.099
-380.931	-200.000	0.018	0.150
-379.917	524.293	-0.159	0.374
-378.902	-169.208	-0.211	-0.008
-377.888	212.009	-0.193	-0.304
-376.873	-200.000	0.022	0.353
-375.858	-32.314	0.197	0.110
-374.844	-200.000	-0.029	0.143
-373.829	-54.444	0.313	0.141
-372.815	-129.684	0.112	-0.015
-371.800	-200.000	-0.449	0.001
-370.785	55.946	0.114	-0.110
-369.771	128.645	0.096	0.122
-368.756	201.099	0.060	0.093
-367.742	554.271	0.144	0.346
-366.727	-177.143	-0.129	0.003
-365.712	-31.649	0.323	0.181
-364.698	296.096	0.077	0.141
-363.683	-90.950	-0.155	0.044
-362.669	7.927	-0.095	0.071
-361.654	60.946	-0.090	-0.089
-360.639	-157.683	-0.089	-0.005
-359.625	38.265	-0.128	0.114
-358.610	-128.899	-0.111	-0.016
-357.596	259.592	0.293	-0.503
-356.581	-111.356	0.203	-0.041
-355.566	800.000	0.047	0.138
-354.552	-131.758	-0.189	0.025
-353.537	-97.075	-0.191	0.050
-352.523	-0.559	-0.208	0.147
-351.508	-152.556	-0.260	0.019
-350.493	-85.154	0.332	0.104
-349.479	-38.754	0.087	0.046
-348.464	573.948	-0.080	-0.195
-347.450	-156.467	0.313	0.019
-346.435	13.307	0.032	-0.025
-345.420	50.899	0.151	0.142
-344.406	24.499	0.463	0.382
-343.391	-200.000	-0.013	-0.108
-342.377	-76.950	-0.319	0.111
-341.362	-29.502	-0.171	-0.097
-340.348	-75.540	0.403	0.143
-339.333	150.784	-0.173	0.235
-338.318	-29.634	-0.093	0.053
-337.304	477.122	0.188	0.422
-336.289	-48.639	0.116	0.055
-335.275	-88.806	0.248	0.073
-334.260	-56.464	0.218	0.096
-333.245	158.942	0.227	-0.314
-332.231	50.530	0.133	0.125
-331.216	39.691	0.129	0.115
-330.202	-70.481	0.248	0.094
-329.187	-115.865	0.321	0.060
-328.172	-44.871	0.064	0.032
-327.158	22.014	-0.105	0.085
-326.143	800.000	0.051	0.171
-325.129	389.276	-0.079	0.164
-324.114	107.000	0.152	0.179
-323.099	-200.000	0.064	0.285
-322.085	-200.000	0.008	-0.050
-321.070	36.324	-0.253	-0.222
-320.056	550.038	-0.066	-0.158
-319.041	-200.000	-0.035	0.175
-318.026	-200.000	0.003	0.058
-317.012	8.186	0.105	-0.078
-315.997	-75.368	-0.092	0.033
-314.983	-200.000	-0.029	-0.258
-313.968	11.563	0.280	0.213
-312.953	-70.958	-0.078	-0.029
-311.939	-15.072	0.238	0.151
-310.924	180.692	0.283	0.413
-309.910	66.814	-0.077	-0.078
-308.895	389.495	-0.025	0.052
-307.880	371.395	0.056	0.112
-306.866	-200.000	-0.032	-0.187
-305.851	-136.956	-0.130	0.015
-304.837	62.188	-0.257	0.255
-303.822	236.552	0.179	-0.296
-302.807	-200.000	-0.009	-0.081
-301.793	-200.000	-0.016	-0.105
-300.778	-200.000	-0.068	-0.313
-299.764	2.966	-0.045	-0.033
-298.749	393.173	-0.132	-0.273
-297.735	541.729	0.185	-0.439
-296.720	800.000	0.058	0.239
-295.705	-115.997	-0.141	-0.026
-294.691	-122.632	-0.220	-0.036
-293.676	374.019	0.062	-0.125
-292.662	17.347	-0.260	0.205
-291.647	-16.042	-0.230	0.145
-290.632	707.066	0.107	0.280
-289.618	-169.895	0.260	-0.009
-288.603	69.321	-0.094	-0.096
-287.589	136.743	-0.156	0.202
-286.574	121.727	0.024	0.030
-285.559	194.906	-0.131	-0.198
-284.545	3.718	0.178	0.129
-283.530	-90.820	0.132	-0.038
-282.516	-200.000	-0.009	0.046
-281.501	310.142	-0.031	-0.057
-280.486	311.428	0.120	0.223
-279.472	171.032	-0.075	0.107
-278.457	-21.976	-0.100	-0.060
-277.443	-200.000	0.054	-0.296
-276.428	195.238	0.145	-0.219
-275.413	494.036	-0.085	0.193
-274.399	800.000	0.033	0.132
-273.384	42.147	-0.358	0.323
-272.370	-84.042	-0.390	-0.123
-271.355	-187.495	-0.140	0.002
-270.340	675.372	0.054	-0.138
-269.326	52.959	0.179	-0.171
-268.311	45.186	-0.156	-0.143
-267.297	-63.470	-0.074	-0.030
-266.282	-46.536	0.233	-0.113
-265.267	349.258	0.015	0.029
-264.253	250.363	-0.033	-0.055
-263.238	-32.459	-0.270	0.149
-262.224	67.890	0.216	-0.220
-261.209	80.003	-0.059	0.063
-260.195	-200.000	-0.006	-0.336
-259.180	-51.153	-0.215	-0.100
-258.165	-193.219	-0.173	-0.002
-257.151	800.000	-0.042	0.132
-256.136	800.000	0.075	-0.221
-255.122	-114.240	0.214	0.041
-254.107	-71.707	-0.095	-0.035
-253.092	108.125	-0.133	-0.158
-252.078	-84.156	-0.049	0.016
-251.063	-160.099	0.087	0.005
-250.049	-200.000	0.067	-0.293
-249.034	-200.000	-0.040	-0.216
-248.019	-150.114	-0.257	-0.020
-247.005	-73.831	-0.225	-0.081
-245.990	107.772	-0.081	-0.096
-244.976	-200.000	0.009	-0.222
-243.961	348.784	0.113	0.222
-242.946	-145.296	-0.244	0.022
-241.932	-200.000	0.000	0.261
-240.917	-12.319	-0.335	0.217
-239.903	134.513	0.091	-0.117
-238.888	-125.171	0.231	-0.035
-237.873	-99.496	0.040	-0.010
-236.859	27.361	0.409	-0.341
-235.844	-200.000	0.001	0.071
-234.830	306.362	-0.172	-0.318
-233.815	303.388	0.126	0.231
-232.800	-200.000	-0.011	0.059
-231.786	-30.807	-0.226	-0.127
-230.771	-120.211	0.138	-0.023
-229.757	158.651	0.044	0.060
-228.742	-39.442	-0.298	-0.155
-227.727	800.000	0.060	-0.247
-226.713	-184.045	0.291	-0.005
-225.698	140.829	0.082	-0.108
-224.684	108.352	-0.214	-0.254
-223.669	-35.022	0.161	0.087
-222.655	-104.179	-0.199	-0.046
-221.640	-200.000	0.082	0.443
-220.625	188.520	-0.190	0.282
-219.611	108.156	-0.125	-0.148
-218.596	390.528	0.096	-0.198
-217.582	-52.594	-0.210	0.096
-216.567	-200.000	-0.036	0.317
-215.552	103.085	0.258	0.299
-214.538	0.943	0.169	0.120
-213.523	195.391	0.077	-0.115
-212.509	-53.615	0.309	-0.140
-211.494	91.506	-0.240	0.267
-210.479	-200.000	-0.061	0.368
-209.465	174.263	0.123	0.176
-208.450	278.494	-0.263	0.465
-207.436	304.251	0.051	0.093
-206.421	-127.297	-0.456	-0.066
-205.406	92.365	0.100	-0.112
-204.392	-200.000	0.035	0.195
-203.377	52.916	0.006	-0.006
-202.363	-50.748	-0.233	-0.109
-201.348	-69.387	-0.327	-0.125
-200.333	498.530	0.034	-0.078
-199.319	-200.000	-0.044	-0.220
-198.304	800.000	-0.072	-0.229
-197.290	149.610	-0.206	-0.277
-196.275	800.000	-0.037	0.149
-195.260	-52.548	-0.218	-0.100
-194.246	277.506	-0.187	-0.329
-193.231	-41.887	0.184	0.094
-192.217	-200.000	-0.029	-0.172
-191.202	231.823	-0.099	-0.161
-190.187	800.000	0.114	0.378
-189.173	93.407	-0.268	0.301
-188.158	-136.657	0.154	-0.018
-187.144	-68.536	0.237	0.091
-186.129	800.000	-0.090	0.294
-185.114	800.000	0.024	0.071
-184.100	235.456	0.150	-0.246
-183.085	732.808	-0.053	-0.140
-182.071	422.244	0.148	0.315
-181.056	800.000	0.149	-0.411
-180.042	743.249	-0.073	0.195
-179.027	-72.753	-0.384	-0.140
-178.012	-200.000	-0.006	-0.098
-176.998	275.703	-0.127	0.223
-175.983	517.023	-0.097	0.225
-174.969	800.000	0.054	-0.176
-173.954	-101.155	-0.343	-0.083
-172.939	-156.033	0.230	-0.014
-171.925	-31.589	0.090	-0.050
-170.910	-33.759	0.184	-0.100
-169.896	-73.043	0.091	-0.033
-168.881	-200.000	0.045	-0.248
-167.866	-68.329	-0.204	-0.078
-166.852	-161.030	-0.248	0.013
-165.837	-200.000	0.003	0.415
-164.823	-13.180	0.112	-0.072
-163.808	199.944	0.398	0.604
-162.793	-146.469	-0.201	0.017
-161.779	19.821	-0.206	-0.165
-160.764	800.000	-0.039	-0.143
-159.750	-183.448	0.065	0.001
-158.735	93.916	-0.220	0.247
-157.720	-35.012	0.131	0.071
-156.706	305.113	0.127	0.233
-155.691	204.086	0.146	0.224
-154.677	-200.000	-0.028	-0.438
-153.662	-200.000	0.029	-0.292
-152.647	-137.205	0.239	-0.027
-151.633	-25.559	-0.391	-0.228
-150.618	234.025	0.180	0.293
-149.604	253.404	0.019	-0.031
-148.589	-200.000	-0.009	0.310
-147.574	175.798	-0.122	0.174
-146.560	-54.562	0.298	-0.134
-145.545	121.007	-0.108	-0.133
-144.531	-200.000	0.018	-0.114
-143.516	169.540	0.235	-0.332
-142.502	-72.688	-0.100	-0.037
-141.487	74.468	0.119	0.123
-140.472	274.243	-0.047	0.082
-139.458	-119.191	0.114	0.020
-138.443	-156.507	-0.114	-0.007
-137.429	-200.000	-0.002	-0.143
-136.414	286.209	0.115	-0.205
-135.399	-96.177	-0.333	0.087
-134.385	-22.504	-0.326	-0.195
-133.370	29.060	-0.175	-0.147
-132.356	-98.025	-0.076	0.019
-131.341	367.555	-0.138	0.276
-130.326	-200.000	0.049	-0.268
-129.312	95.068	0.199	0.224
-128.297	-78.187	0.261	-0.089
-127.283	12.067	0.046	0.035
-126.268	-186.170	0.312	-0.004
-125.253	312.906	-0.085	-0.157
-124.239	-200.000	-0.039	-0.206
-123.224	-59.338	-0.227	-0.096
-122.210	-65.455	0.200	0.079
-121.195	-20.626	0.231	0.140
-120.180	-67.952	0.209	0.080
-119.166	69.434	-0.033	-0.033
-118.151	90.074	0.238	0.263
-117.137	-31.362	-0.138	0.076
-116.122	-4.311	-0.159	-0.109
-115.107	-16.245	0.019	0.012
-114.093	226.157	0.152	0.244
-113.078	-167.716	0.177	0.007
-112.064	62.796	0.092	0.090
-111.049	-93.511	-0.232	-0.063
-110.034	-134.609	0.042	-0.005
-109.020	407.537	0.070	-0.146
-108.005	100.237	-0.098	0.113
-106.991	501.083	0.101	0.230
-105.976	-190.488	-0.114	-0.001
-104.962	583.395	-0.075	-0.183
-103.947	-69.794	-0.195	0.073
-102.932	349.106	-0.080	0.156
-101.918	110.492	0.057	0.068
-100.903	800.000	0.045	-0.151
-99.889	405.981	-0.152	0.316
-98.874	154.855	-0.087	0.118
-97.859	61.465	-0.339	-0.333
-96.845	800.000	0.046	-0.180
-95.830	183.585	0.117	-0.170
-94.816	-200.000	0.009	0.044
-93.801	-47.666	0.369	-0.177
-92.786	-200.000	0.084	-0.431
-91.772	-200.000	-0.081	0.394
-90.757	-200.000	0.004	0.060
-89.743	652.729	-0.094	0.239
-88.728	9.170	-0.230	-0.171
-87.713	142.145	-0.271	0.354
-86.699	-200.000	-0.019	0.104
-85.684	70.095	-0.131	0.134
-84.670	-95.449	-0.266	-0.070
-83.655	20.994	-0.138	0.110
-82.640	68.887	-0.158	-0.160
-81.626	-120.471	-0.048	-0.008
-80.611	216.388	-0.236	-0.371
-79.597	800.000	0.018	-0.057
-78.582	-49.345	-0.148	0.070
-77.567	88.100	0.150	-0.164
-76.553	41.776	0.200	0.178
-75.538	-28.505	-0.064	0.036
-74.524	-74.245	0.186	-0.066
-73.509	-200.000	0.006	-0.051
-72.494	-128.005	0.131	0.018
-71.480	-132.779	-0.147	0.019
-70.465	-200.000	-0.007	0.105
-69.451	233.900	-0.102	0.165
-68.436	66.532	0.150	-0.150
-67.422	235.572	0.075	-0.122
-66.407	-111.635	0.108	-0.022
-65.392	-161.381	0.103	-0.005
-64.378	-37.891	-0.311	0.163
-63.363	285.939	0.157	0.279
-62.349	-90.256	0.239	-0.069
-61.334	132.567	-0.865	-1.099
-60.319	142.854	0.536	0.702
-59.305	800.000	-0.315	-0.868
-58.290	335.986	0.542	1.036
-57.276	800.000	0.545	2.019
-56.261	-200.000	96.802	579.487
-55.246	544.329	1386.772	3262.469
-54.232	156.064	2575.976	3499.417
-53.217	111.859	2150.240	2557.845
-52.203	44.922	1609.870	1460.048
-51.188	37.116	1346.734	1174.342
-50.173	33.901	1305.247	1119.218
-49.159	56.359	1352.781	1294.996
-48.144	58.689	1369.655	1325.035
-47.130	37.340	1327.246	1158.497
-46.115	33.828	1309.641	1122.374
-45.100	33.673	1304.571	1117.071
-44.086	33.528	1302.618	1114.504
-43.071	33.492	1300.125	1112.118
-42.057	33.430	1298.248	1110.100
-41.042	33.506	1296.867	1109.325
-40.027	33.679	1294.805	1108.528
-39.013	33.617	1292.901	1106.490
-37.998	33.617	1290.964	1104.788
-36.984	33.570	1290.010	1103.654
-35.969	33.620	1288.129	1102.293
-34.954	33.807	1286.177	1101.666
-33.940	33.715	1285.027	1100.100
-32.925	33.821	1283.662	1099.501
-31.911	33.886	1282.493	1098.836
-30.896	33.780	1280.888	1096.805
-29.881	33.707	1279.959	1095.544
-28.867	33.833	1278.004	1094.552
-27.852	33.865	1276.687	1093.565
-26.838	33.848	1274.894	1091.886
-25.823	33.763	1273.986	1090.581
-24.809	33.706	1272.927	1089.301
-23.794	33.835	1270.903	1088.264
-22.779	33.808	1269.764	1087.091
-21.765	33.850	1268.329	1086.062
-20.750	33.746	1267.308	1084.549
-19.736	33.712	1265.874	1083.086
-18.721	33.631	1264.961	1081.798
-17.706	33.636	1263.578	1080.601
-16.692	33.625	1262.329	1079.427
-15.677	33.640	1261.432	1078.705
-14.663	33.611	1260.684	1077.855
-13.648	33.659	1259.195	1076.815
-12.633	33.677	1258.326	1076.127
-11.619	33.528	1258.147	1075.088
-10.604	33.617	1257.220	1074.758
-9.590	33.558	1255.886	1073.240
-8.575	33.521	1254.876	1072.126
-7.560	33.556	1254.024	1071.556
-6.546	33.635	1253.175	1071.230
-5.531	33.601	1252.430	1070.363
-4.517	33.533	1251.544	1069.179
-3.502	33.714	1250.554	1069.312
-2.487	33.585	1249.846	1067.934
-1.473	33.584	1245.614	1064.271
-0.458	32.093	1230.962	1043.434
0.556	29.038	1213.764	1006.170
1.571	25.401	1218.971	990.381
2.586	24.755	1234.368	999.197
3.600	24.350	1224.443	988.828
4.615	18.184	1150.977	897.178
5.629	7.329	1072.681	782.736
6.644	2.420	1051.182	743.187
7.659	2.003	1048.183	738.983
8.673	1.862	1047.188	737.531
9.688	1.747	1046.249	736.250
10.702	2.477	1044.773	738.669
11.717	9.106	1054.814	777.909
12.731	19.391	1068.876	838.465
13.746	24.189	1074.732	866.376
14.761	25.026	1075.958	871.359
15.775	25.121	1074.695	870.719
16.790	24.822	1074.416	868.968
17.804	24.808	1073.912	868.415
18.819	24.907	1073.152	868.202
19.834	25.043	1073.099	868.740
20.848	25.070	1072.405	868.233
21.863	25.070	1071.454	867.386
22.877	25.055	1070.835	866.739
23.892	25.013	1070.610	866.274
24.907	25.068	1069.777	865.789
25.921	24.965	1068.958	864.554
26.936	25.065	1067.282	863.605
27.950	24.920	1065.858	861.678
28.965	24.726	1063.905	859.092
29.980	24.742	1062.662	858.086
30.994	25.063	1061.662	858.742
32.009	25.021	1060.760	857.736
33.023	24.949	1059.229	856.078
34.038	24.963	1059.172	856.023
35.053	25.099	1058.330	855.914
36.067	25.115	1057.293	855.077
37.082	25.146	1056.825	854.772
38.096	25.208	1056.268	854.538
39.111	25.341	1055.048	854.110
40.126	25.139	1053.868	852.119
41.140	24.842	1051.897	849.041
42.155	24.617	1050.931	847.121
43.169	24.698	1050.175	846.821
44.184	24.828	1048.830	846.274
45.199	24.643	1048.122	844.753
46.213	24.783	1047.073	844.494
47.228	24.825	1046.572	844.217
48.242	24.884	1045.754	843.761
49.257	24.917	1045.322	843.493
50.271	25.143	1044.150	843.536
51.286	25.138	1043.483	842.896
52.301	25.063	1042.824	841.938
53.315	24.878	1042.017	840.346
54.330	25.021	1040.545	839.752
55.344	25.154	1039.605	839.541
56.359	24.916	1039.388	838.179
57.374	24.824	1037.917	836.490
58.388	24.789	1037.356	835.797
59.403	24.717	1036.541	834.731
60.417	24.482	1035.735	832.914
61.432	24.728	1034.952	833.357
62.447	24.806	1034.604	833.365
63.461	24.858	1033.622	832.742
64.476	24.722	1032.874	831.433
65.490	24.570	1031.741	829.742
66.505	24.740	1031.443	830.219
67.520	24.704	1030.448	829.175
68.534	24.565	1029.529	827.720
69.549	24.260	1028.350	825.289
70.563	24.354	1027.372	824.864
71.578	24.290	1026.439	823.748
72.593	24.085	1025.794	822.209
73.607	24.401	1024.875	822.860
74.622	24.617	1024.782	823.704
75.636	24.689	1024.102	823.417
76.651	24.454	1023.116	821.472
77.666	24.314	1022.370	820.156
78.680	24.414	1021.864	820.135
79.695	24.580	1021.107	820.216
80.709	24.643	1020.375	819.845
81.724	24.685	1019.161	818.991
82.739	24.687	1019.184	818.949
83.753	25.036	1018.277	819.742
84.768	25.337	1017.511	820.430
85.782	25.347	1016.944	819.945
86.797	25.320	1015.826	818.846
87.812	25.086	1015.254	817.249
88.826	25.223	1014.227	816.971
89.841	25.308	1013.333	816.565
90.855	25.432	1012.163	816.114
91.870	25.207	1011.554	814.532
92.884	25.131	1010.161	812.990
93.899	25.172	1009.286	812.403
94.914	25.318	1008.634	812.463
95.928	25.113	1007.311	810.403
96.943	24.938	1006.243	808.681
97.957	24.647	1005.155	806.423
98.972	24.509	1004.063	804.852
99.987	24.731	1003.541	805.361
101.001	24.946	1002.816	805.677
102.016	24.924	1002.085	804.918
103.030	24.866	1000.672	803.451
104.045	24.785	999.784	802.304
105.060	24.570	998.811	800.492
106.074	24.921	997.985	801.328
107.089	25.185	997.155	801.772
108.103	25.057	996.311	800.448
109.118	24.761	995.210	798.175
110.133	24.709	994.826	797.562
111.147	24.445	993.189	795.007
112.162	24.494	992.319	794.457
113.176	24.681	991.996	794.958
114.191	24.714	990.839	794.108
115.206	24.363	989.608	791.493
116.220	24.418	988.551	790.824
117.235	24.376	988.033	790.152
118.249	24.542	986.768	789.803
119.264	24.537	985.924	789.039
120.279	24.393	985.723	788.171
121.293	24.599	984.634	788.139
122.308	24.517	984.096	787.276
123.322	24.394	982.641	785.503
124.337	24.245	981.402	783.787
125.352	23.748	979.985	780.402
126.366	23.770	978.877	779.549
127.381	24.465	979.195	782.781
128.395	24.914	978.598	784.204
129.410	24.977	978.153	784.053
130.424	25.043	977.133	783.454
131.439	24.980	976.284	782.430
132.454	25.034	975.364	781.856
133.468	24.982	974.330	780.731
134.483	25.154	973.585	780.815
135.497	25.294	973.028	780.909
136.512	25.397	972.006	780.469
137.527	25.359	971.305	779.672
138.541	25.197	970.449	778.214
139.556	25.235	969.558	777.592
140.570	25.386	968.894	777.645
141.585	25.305	968.249	776.711
142.600	25.291	967.064	775.629
143.614	25.485	966.290	775.776
144.629	25.601	965.856	775.861
145.643	25.345	964.302	773.440
146.658	25.290	962.840	771.964
147.673	25.209	961.711	770.644
148.687	25.221	960.766	769.870
149.702	25.002	959.731	768.033
150.716	24.929	959.188	767.218
151.731	25.043	958.744	767.280
152.746	25.441	957.835	768.186
153.760	25.319	957.553	767.374
154.775	25.446	956.614	767.096
155.789	25.383	955.962	766.234
156.804	25.459	954.840	765.590
157.819	25.537	954.164	765.313
158.833	25.662	953.023	764.865
159.848	25.523	952.376	763.686
160.862	25.392	951.265	762.171
161.877	25.468	949.976	761.392
162.892	25.412	949.432	760.652
163.906	25.483	947.960	759.704
164.921	25.438	947.089	758.750
165.935	25.410	946.466	758.067
166.950	25.480	945.300	757.361
167.964	25.391	944.818	756.532
168.979	25.172	943.606	754.575
169.994	25.256	942.481	753.959
171.008	25.336	942.568	754.299
172.023	25.435	941.985	754.182
173.037	25.230	940.333	751.934
174.052	25.128	939.124	750.475
175.067	25.149	938.597	750.074
176.081	25.180	938.367	749.952
177.096	25.117	937.587	749.001
178.110	24.943	936.573	747.398
179.125	24.626	936.187	745.702
180.140	24.786	935.425	745.695
181.154	25.154	934.972	746.799
182.169	25.197	935.130	747.039
183.183	25.478	934.672	747.779
184.198	25.271	933.787	746.141
185.213	25.341	932.659	745.467
186.227	25.380	932.013	745.043
187.242	25.412	931.403	744.624
188.256	25.368	930.904	743.975
189.271	25.475	930.081	743.698
190.286	25.091	929.102	741.262
191.300	24.508	927.288	737.341
192.315	23.759	926.273	733.376
193.329	23.767	925.721	732.909
194.344	24.623	926.292	736.827
195.359	25.313	925.980	739.356
196.373	25.319	925.654	739.057
197.388	25.241	925.123	738.247
198.402	25.243	924.253	737.494
199.417	25.297	923.821	737.306
200.432	25.088	922.630	735.433
201.446	24.882	922.372	734.317
202.461	24.882	921.643	733.673
203.475	24.065	919.518	728.575
204.490	23.229	918.368	724.180
205.504	24.262	918.390	728.356
206.519	24.784	918.721	730.686
207.534	24.962	917.904	730.697
208.548	25.401	917.827	732.363
209.563	25.125	916.966	730.488
210.577	25.095	916.148	729.646
211.592	25.501	916.253	731.321
212.607	25.448	915.017	730.053
213.621	25.593	914.690	730.317
214.636	25.526	913.921	729.367
215.650	25.453	913.067	728.322
216.665	25.581	912.521	728.343
217.680	25.480	911.705	727.218
218.694	25.141	910.427	724.763
219.709	24.971	909.982	723.660
220.723	25.204	909.811	724.402
221.738	25.243	908.811	723.697
222.753	25.244	908.423	723.328
223.767	25.373	907.916	723.378
224.782	25.499	907.806	723.734
225.796	25.648	907.173	723.765
226.811	24.761	905.735	718.992
227.826	24.261	904.385	715.848
228.840	24.561	903.446	716.247
229.855	24.592	903.371	716.246
230.869	24.062	902.336	713.239
231.884	24.601	902.420	715.402
232.899	25.392	902.179	718.312
233.913	25.156	901.703	716.926
234.928	25.307	900.900	716.827
235.942	25.173	900.102	715.596
236.957	24.812	899.298	713.454
237.972	24.870	899.049	713.424
238.986	25.062	898.190	713.444
240.001	24.891	897.797	712.389
241.015	25.139	896.739	712.471
242.030	25.173	896.767	712.564
243.045	25.360	896.423	712.970
244.059	25.495	895.756	712.914
245.074	25.188	894.822	710.888
246.088	25.026	893.609	709.223
247.103	25.261	893.791	710.234
248.117	25.796	893.663	712.185
249.132	26.012	893.325	712.707
250.147	26.111	892.644	712.490
251.161	26.272	892.329	712.811
252.176	26.142	891.883	711.880
253.190	26.198	891.104	711.414
254.205	26.340	890.727	711.610
255.220	26.257	889.841	710.516
256.234	26.206	889.036	709.609
257.249	26.071	888.494	708.583
258.263	26.079	887.724	707.937
259.278	26.274	887.313	708.311
260.293	26.246	886.611	707.578
261.307	26.199	885.702	706.606
262.322	25.971	884.800	704.933
263.336	25.133	883.406	700.489
264.351	24.063	881.528	694.764
265.366	24.108	880.983	694.447
266.380	25.345	881.848	699.893
267.395	25.733	881.760	701.272
268.409	25.790	880.301	700.273
269.424	26.096	880.133	701.266
270.439	26.138	879.335	700.732
271.453	26.055	878.900	700.000
272.468	26.366	878.560	700.875
273.482	26.155	878.736	700.135
274.497	25.836	877.109	697.539
275.512	25.344	876.304	694.937
276.526	25.851	876.513	697.001
277.541	26.080	875.896	697.335
278.555	25.792	875.021	695.464
279.570	25.677	874.252	694.346
280.585	25.948	873.569	694.788
281.599	25.726	872.717	693.194
282.614	25.154	871.597	690.045
283.628	25.311	870.879	690.018
284.643	25.617	870.655	690.956
285.657	25.228	869.859	688.767
286.672	24.905	869.368	687.080
287.687	25.561	869.180	689.387
288.701	25.600	868.189	688.688
289.716	25.267	867.493	686.801
290.730	25.176	867.080	686.065
291.745	25.051	865.979	684.656
292.760	25.356	865.840	685.648
293.774	26.241	866.217	689.266
294.789	26.513	866.107	690.155
295.803	26.645	865.080	689.777
296.818	26.648	864.463	689.237
297.833	26.200	863.332	686.571
298.847	26.133	862.795	685.830
299.862	26.290	862.960	686.497
300.876	26.640	862.233	687.187
301.891	26.505	861.710	686.198
302.906	26.021	860.704	683.501
303.920	26.236	860.181	683.837
304.935	26.645	860.083	685.246
305.949	26.416	859.662	683.985
306.964	26.207	858.714	682.383
307.979	26.366	858.328	682.615
308.993	26.927	857.487	684.000
310.008	26.762	857.059	682.977
311.022	26.459	856.625	681.431
312.037	26.295	855.800	680.096
313.052	26.144	855.004	678.836
314.066	25.144	853.348	673.706
315.081	24.810	852.643	671.834
316.095	25.652	853.038	675.248
317.110	26.233	852.941	677.292
318.125	25.306	851.428	672.561
319.139	24.319	850.148	667.793
320.154	24.262	849.497	667.013
321.168	25.092	849.898	670.371
322.183	25.906	850.198	673.594
323.197	26.080	849.917	673.961
324.212	26.141	849.503	673.800
325.227	26.339	848.805	673.925
326.241	26.120	848.221	672.588
327.256	26.083	847.621	671.915
328.270	25.954	847.061	670.929
329.285	25.772	846.249	669.552
330.300	25.539	845.489	668.024
331.314	25.937	845.051	669.098
332.329	26.175	845.404	670.202
333.343	26.438	844.726	670.581
334.358	26.376	843.897	669.633
335.373	26.602	843.374	669.996
336.387	26.832	843.174	670.625
337.402	26.753	843.628	670.635
338.416	26.757	843.382	670.396
339.431	27.006	842.833	670.821
340.446	27.030	842.343	670.460
341.460	26.877	842.245	669.756
342.475	26.812	841.579	668.928
343.489	26.880	840.976	668.641
344.504	27.048	841.261	669.429
345.519	27.168	840.840	669.476
346.533	27.241	839.991	669.010
347.548	27.290	839.114	668.430
348.562	27.200	838.884	667.859
349.577	27.086	838.402	666.998
350.592	27.141	837.711	666.590
351.606	27.035	837.115	665.666
352.621	26.977	836.018	664.525
353.635	26.983	835.354	663.958
354.650	26.213	833.853	659.897
355.665	25.423	832.097	655.568
356.679	25.818	832.226	657.052
357.694	26.088	832.308	658.043
358.708	26.054	831.658	657.347
359.723	26.538	830.954	658.492
360.738	26.840	831.002	659.572
361.752	26.872	830.650	659.351
362.767	27.282	830.141	660.377
363.781	27.301	830.086	660.343
364.796	27.571	829.835	661.066
365.810	27.505	829.248	660.299
366.825	27.549	828.464	659.775
367.840	27.420	827.651	658.602
368.854	26.940	826.740	656.087
369.869	26.996	826.576	656.101
370.883	26.889	826.196	655.354
371.898	26.676	825.947	654.330
372.913	26.916	825.264	654.597
373.927	27.130	824.901	655.021
374.942	27.179	824.646	654.940
375.956	27.340	823.861	654.837
376.971	27.361	823.892	654.877
377.986	27.699	823.335	655.592
379.000	27.338	823.194	654.123
380.015	27.378	822.173	653.398
381.029	27.325	822.017	653.028
382.044	27.628	821.149	653.365
383.059	27.623	820.440	652.726
384.073	27.678	819.866	652.408
385.088	27.510	819.400	651.380
386.102	27.249	818.660	649.799
387.117	27.253	817.839	649.105
388.132	26.889	816.995	647.081
389.146	26.439	815.710	644.404
390.161	26.786	816.035	645.839
391.175	27.342	815.597	647.414
392.190	26.902	814.821	645.178
393.205	25.558	812.883	638.813
394.219	24.019	811.098	631.894
395.234	24.043	810.786	631.680
396.248	25.586	812.302	638.287
397.263	26.964	813.025	643.688
398.278	27.046	812.464	643.477
399.292	26.815	811.565	641.894
400.307	26.701	811.562	641.428
401.321	26.929	811.110	641.823
402.336	27.233	811.233	642.936
403.350	27.768	811.199	644.743
404.365	27.974	810.657	644.986
405.380	28.219	810.340	645.540
406.394	28.380	809.911	645.707
407.409	28.264	809.323	644.772
408.423	28.083	809.158	643.947
409.438	28.154	808.335	643.486
410.453	28.382	808.181	644.107
411.467	28.128	807.754	642.816
412.482	28.100	807.375	642.361
413.496	28.164	806.908	642.156
414.511	28.247	806.434	642.012
415.526	28.260	806.181	641.802
416.540	28.139	805.295	640.616
417.555	27.927	804.509	639.192
418.569	28.010	804.325	639.279
419.584	27.942	803.585	638.396
420.599	27.765	803.073	637.317
421.613	109.987	1283.973	1451.470
422.628	94.947	1354.003	1451.610
