DTS Sentinel unit serial number:	SN413079Multiplexer serial number:	ORYXHardware model number:	OX4-SRSoftware version number:	ORYX F/W v4.00 Oryx Data Collector v3.7.2.0data status	okinstallation	princeton_trtdifferential loss correction	single-endedforward channel	channel 1reverse channel	N/Adate	2019/09/18time	05:06:35forward acquisition time	60.00reverse acquisition time	0.00gamma	496.2192k internal	0.2338k external	0.2338temperature offset calibration	0.9979default loss term (dB/km)	0.3790temperature slope calibration	1.0000multiplexer offset coefficient	1.0000multiplexer slope coefficient	1.0000fibre end	0.00T internal ref (°C)	23.50T ext. ref 1 (°C)	0.19T ext. ref 2 (°C)	17.64length (m)	temperature (°C)	Stokes	anti-Stokes-747.200	-27.676	0.326	0.190
-746.185	-121.652	0.238	-0.040
-745.171	-200.000	-0.134	-0.000
-744.156	-172.675	0.183	-0.006
-743.142	166.095	-0.065	-0.092
-742.127	217.424	0.099	0.158
-741.112	329.798	-0.181	-0.349
-740.098	8.237	-0.239	0.180
-739.083	-116.257	0.355	0.066
-738.069	74.830	-0.208	-0.219
-737.054	-200.000	-0.004	0.163
-736.039	600.761	0.093	-0.232
-735.025	-200.000	0.046	0.217
-734.010	-200.000	0.046	-0.309
-732.996	-82.020	-0.390	-0.128
-731.981	-102.541	-0.100	0.024
-730.966	-183.919	-0.110	0.002
-729.952	-59.192	-0.449	-0.194
-728.937	-200.000	-0.006	-0.207
-727.923	226.513	-0.087	-0.142
-726.908	15.042	-0.224	0.176
-725.894	-55.031	-0.200	0.090
-724.879	800.000	-0.048	-0.182
-723.864	232.494	-0.135	-0.222
-722.850	598.909	0.034	-0.086
-721.835	-125.344	-0.247	-0.038
-720.821	-100.980	-0.118	-0.029
-719.806	222.066	0.116	0.186
-718.791	229.734	0.048	-0.079
-717.777	-92.444	-0.030	-0.008
-716.762	-29.254	-0.273	-0.157
-715.748	-85.861	-0.553	0.172
-714.733	-52.268	0.157	0.073
-713.718	-44.581	-0.181	-0.091
-712.704	377.549	-0.117	0.241
-711.689	800.000	-0.089	0.266
-710.675	-75.049	-0.336	0.121
-709.660	50.972	-0.035	-0.033
-708.645	74.174	-0.211	0.222
-707.631	235.024	0.204	-0.337
-706.616	-9.225	0.130	-0.087
-705.602	82.502	-0.084	0.092
-704.587	-200.000	0.008	-0.175
-703.572	800.000	-0.084	0.288
-702.558	201.634	0.199	0.307
-701.543	276.608	-0.211	-0.375
-700.529	800.000	0.087	-0.241
-699.514	-39.184	0.181	0.095
-698.499	-200.000	-0.088	0.438
-697.485	319.077	0.097	0.185
-696.470	800.000	-0.107	0.348
-695.456	91.204	-0.140	-0.158
-694.441	-52.626	0.300	0.139
-693.426	89.998	0.035	0.039
-692.412	-117.436	0.209	0.038
-691.397	309.186	0.034	0.064
-690.383	-200.000	-0.099	-0.544
-689.368	-106.455	0.170	-0.038
-688.354	-9.567	-0.208	0.139
-687.339	-200.000	-0.049	-0.407
-686.324	-200.000	0.062	-0.281
-685.310	-54.441	-0.404	-0.183
-684.295	277.390	0.179	-0.318
-683.281	-107.398	0.129	-0.028
-682.266	-19.720	-0.292	0.181
-681.251	329.712	-0.157	0.303
-680.237	-132.331	-0.104	0.013
-679.222	-56.939	-0.097	0.043
-678.208	346.083	-0.128	-0.252
-677.193	-194.815	-0.290	0.002
-676.178	-200.000	-0.020	-0.193
-675.164	-10.684	0.067	-0.045
-674.149	-200.000	0.067	-0.309
-673.135	4.958	0.119	0.088
-672.120	-200.000	0.042	0.199
-671.105	-7.363	0.111	0.075
-670.091	800.000	0.039	0.127
-669.076	192.243	0.181	-0.273
-668.062	152.984	-0.105	0.144
-667.047	-30.586	0.215	0.122
-666.032	-200.000	0.037	-0.253
-665.018	-29.648	0.090	0.051
-664.003	-174.438	-0.308	-0.009
-662.989	800.000	-0.057	-0.202
-661.974	-200.000	0.021	0.145
-660.959	229.604	-0.132	-0.215
-659.945	-79.351	-0.396	-0.134
-658.930	51.704	-0.035	0.033
-657.916	-200.000	-0.024	-0.397
-656.901	27.664	-0.201	0.169
-655.886	-54.094	-0.328	-0.149
-654.872	64.289	0.304	0.306
-653.857	34.356	-0.117	0.102
-652.843	12.304	-0.077	-0.059
-651.828	178.093	-0.083	0.121
-650.814	-149.237	0.428	0.034
-649.799	-200.000	-0.017	-0.134
-648.784	-200.000	0.031	-0.330
-647.770	-166.727	0.131	0.005
-646.755	-71.051	0.106	0.040
-645.741	33.850	0.174	-0.152
-644.726	-200.000	-0.059	-0.313
-643.711	-10.151	-0.180	-0.119
-642.697	-200.000	0.014	-0.220
-641.682	-16.268	-0.112	0.071
-640.668	525.340	0.047	0.109
-639.653	97.225	-0.110	-0.126
-638.638	231.278	-0.085	0.140
-637.624	800.000	0.024	0.075
-636.609	-123.803	-0.223	0.035
-635.595	10.028	0.172	-0.130
-634.580	-66.753	-0.137	-0.054
-633.565	323.252	0.133	0.253
-632.551	-17.447	-0.179	0.112
-631.536	512.374	0.138	0.320
-630.522	800.000	0.081	-0.278
-629.507	-200.000	-0.013	-0.309
-628.492	210.736	0.044	-0.069
-627.478	-35.094	-0.133	-0.072
-626.463	109.068	0.064	-0.077
-625.449	-110.216	-0.294	-0.061
-624.434	-200.000	-0.007	0.248
-623.419	-102.851	0.264	0.063
-622.405	457.839	0.030	-0.066
-621.390	189.701	0.173	-0.260
-620.376	126.170	-0.152	0.192
-619.361	256.452	0.179	0.306
-618.346	189.938	-0.135	0.202
-617.332	45.189	0.141	0.130
-616.317	-74.366	-0.251	0.090
-615.303	-200.000	0.014	-0.099
-614.288	125.102	-0.134	-0.169
-613.273	-148.420	0.180	0.015
-612.259	23.044	-0.161	-0.132
-611.244	-81.870	0.141	0.046
-610.230	-60.766	-0.312	0.132
-609.215	800.000	-0.082	-0.250
-608.201	76.778	0.175	-0.185
-607.186	800.000	-0.087	-0.281
-606.171	1.758	-0.162	-0.116
-605.157	-200.000	0.008	-0.099
-604.142	-16.874	0.090	-0.057
-603.128	510.779	0.110	-0.255
-602.113	75.580	-0.090	0.095
-601.098	205.985	0.139	-0.216
-600.084	111.546	-0.075	-0.091
-599.069	211.281	-0.163	-0.257
-598.055	514.602	0.093	-0.216
-597.040	291.630	0.138	-0.251
-596.025	-48.944	-0.198	-0.095
-595.011	58.276	-0.237	0.232
-593.996	148.880	0.279	0.376
-592.982	-45.926	0.181	-0.089
-591.967	-27.492	0.247	0.143
-590.952	-69.197	0.070	-0.027
-589.938	-47.525	-0.354	-0.172
-588.923	-19.303	-0.190	-0.117
-587.909	-46.235	0.402	0.197
-586.894	800.000	-0.114	-0.368
-585.879	-133.304	0.107	0.013
-584.865	-136.449	-0.226	-0.026
-583.850	157.062	0.061	0.084
-582.836	345.688	-0.124	-0.242
-581.821	35.493	0.055	-0.049
-580.806	-66.468	-0.414	-0.164
-579.792	-200.000	0.023	0.196
-578.777	431.887	0.135	0.291
-577.763	81.818	-0.135	-0.146
-576.748	27.762	-0.180	0.151
-575.733	-100.784	0.233	0.057
-574.719	-125.115	0.191	-0.029
-573.704	-88.811	0.163	-0.048
-572.690	800.000	-0.039	0.155
-571.675	800.000	-0.041	-0.139
-570.661	58.482	-0.069	0.067
-569.646	125.906	0.190	0.239
-568.631	174.572	-0.137	0.197
-567.617	11.554	-0.152	-0.116
-566.602	-141.187	-0.188	-0.019
-565.588	-75.862	-0.341	0.120
-564.573	-23.230	0.269	0.161
-563.558	245.486	0.104	-0.174
-562.544	-40.697	-0.134	-0.069
-561.529	-93.511	0.298	0.082
-560.515	-68.858	0.180	-0.069
-559.500	-85.092	-0.189	-0.059
-558.485	-150.504	-0.326	0.025
-557.471	771.024	0.025	0.069
-556.456	-200.000	0.015	-0.098
-555.442	184.892	0.158	0.233
-554.427	14.725	0.116	-0.091
-553.412	327.066	-0.250	-0.477
-552.398	-200.000	0.029	0.129
-551.383	-200.000	-0.029	0.310
-550.369	-79.432	-0.083	0.028
-549.354	-200.000	-0.003	-0.145
-548.339	158.678	0.006	-0.008
-547.325	69.812	-0.093	0.096
-546.310	413.459	0.073	-0.155
-545.296	-200.000	-0.032	0.168
-544.281	115.683	-0.171	0.208
-543.266	44.190	0.259	-0.237
-542.252	422.711	-0.113	0.242
-541.237	307.801	-0.210	-0.390
-540.223	-120.930	0.244	0.041
-539.208	800.000	-0.047	-0.197
-538.193	-176.770	-0.296	-0.008
-537.179	-72.679	0.158	0.058
-536.164	-74.246	0.103	-0.037
-535.150	-121.430	0.319	-0.053
-534.135	-130.433	-0.160	0.022
-533.121	210.831	-0.368	0.576
-532.106	-200.000	0.004	0.068
-531.091	217.061	0.090	0.142
-530.077	63.668	-0.197	-0.197
-529.062	231.335	0.196	-0.320
-528.048	270.414	0.149	-0.260
-527.033	-185.036	-0.182	0.003
-526.018	-200.000	0.002	0.113
-525.004	-10.589	0.038	0.025
-523.989	-125.607	-0.249	0.038
-522.975	-59.072	-0.057	0.024
-521.960	-134.280	-0.082	0.010
-520.945	-5.048	-0.379	0.259
-519.931	295.376	-0.101	0.184
-518.916	-53.263	0.363	0.166
-517.902	-81.949	-0.353	-0.115
-516.887	800.000	-0.060	0.191
-515.872	628.126	0.142	0.358
-514.858	-58.787	-0.177	-0.076
-513.843	107.656	-0.255	-0.301
-512.829	-200.000	-0.042	-0.185
-511.814	-200.000	-0.047	-0.233
-510.799	216.786	-0.202	-0.319
-509.785	-41.717	-0.174	-0.089
-508.770	747.610	0.041	0.109
-507.756	-158.599	0.069	-0.004
-506.741	-163.217	-0.237	0.011
-505.726	22.833	0.199	-0.162
-504.712	-150.504	0.248	0.019
-503.697	-65.144	0.151	-0.061
-502.683	419.018	0.147	-0.312
-501.668	240.288	-0.128	-0.213
-500.653	725.638	-0.107	-0.283
-499.639	-200.000	0.040	-0.326
-498.624	158.576	-0.133	0.184
-497.610	93.200	0.099	-0.111
-496.595	800.000	-0.114	-0.360
-495.581	789.222	-0.067	0.183
-494.566	-200.000	-0.025	-0.158
-493.551	800.000	0.012	-0.041
-492.537	173.066	-0.362	-0.518
-491.522	434.389	0.101	0.218
-490.508	-19.583	-0.366	-0.225
-489.493	690.429	0.093	-0.241
-488.478	205.408	-0.038	-0.058
-487.464	800.000	0.067	-0.250
-486.449	-200.000	-0.031	-0.185
-485.435	617.775	0.148	-0.369
-484.420	-91.134	-0.290	-0.083
-483.405	-8.048	0.285	-0.191
-482.391	800.000	0.116	-0.348
-481.376	-115.203	0.244	-0.046
-480.362	-104.530	-0.319	-0.073
-479.347	172.141	-0.102	-0.145
-478.332	2.759	0.143	0.103
-477.318	-47.917	0.222	-0.107
-476.303	-200.000	0.039	0.192
-475.289	449.175	-0.100	0.219
-474.274	-200.000	-0.002	0.061
-473.259	-81.224	0.347	0.114
-472.245	536.099	0.113	0.267
-471.230	-32.720	-0.120	0.066
-470.216	-176.390	-0.249	0.006
-469.201	-200.000	-0.018	-0.171
-468.186	-87.236	0.070	-0.021
-467.172	-156.492	0.227	-0.014
-466.157	-132.511	0.232	0.030
-465.143	-48.488	-0.122	0.058
-464.128	140.397	0.021	0.028
-463.113	655.800	-0.058	0.149
-462.099	-200.000	0.019	0.086
-461.084	186.114	-0.062	0.092
-460.070	800.000	-0.070	0.227
-459.055	155.514	-0.247	0.337
-458.040	-52.561	0.139	-0.064
-457.026	800.000	0.047	-0.143
-456.011	-0.913	0.231	0.162
-454.997	213.657	-0.132	0.207
-453.982	800.000	-0.099	-0.368
-452.968	310.759	-0.069	0.128
-451.953	102.150	-0.265	-0.308
-450.938	144.965	0.104	0.138
-449.924	236.913	-0.085	0.140
-448.909	-200.000	-0.058	0.263
-447.895	-11.220	0.145	0.094
-446.880	-53.399	-0.266	-0.121
-445.865	336.959	0.111	0.213
-444.851	38.001	-0.078	0.069
-443.836	219.641	-0.199	-0.316
-442.822	-5.549	0.117	0.080
-441.807	75.164	-0.162	-0.169
-440.792	135.233	0.108	0.139
-439.778	-66.525	0.077	-0.030
-438.763	-73.996	-0.305	-0.110
-437.749	-200.000	0.005	-0.191
-436.734	73.812	0.111	-0.115
-435.719	-94.279	0.067	-0.018
-434.705	159.276	-0.159	-0.219
-433.690	391.796	0.125	-0.258
-432.676	800.000	-0.117	-0.359
-431.661	-127.466	0.130	-0.019
-430.646	800.000	-0.105	-0.437
-429.632	-46.185	-0.382	-0.186
-428.617	-92.861	-0.302	0.084
-427.603	-184.834	0.200	0.003
-426.588	-9.241	-0.309	0.205
-425.573	-200.000	0.032	0.145
-424.559	143.869	-0.046	0.060
-423.544	-200.000	-0.013	-0.301
-422.530	-200.000	0.020	-0.260
-421.515	26.181	-0.142	-0.117
-420.500	502.211	0.216	-0.495
-419.486	266.848	0.254	0.440
-418.471	-83.816	0.171	0.054
-417.457	-172.912	0.407	0.013
-416.442	481.269	-0.078	0.175
-415.428	800.000	0.057	0.175
-414.413	482.456	-0.226	0.509
-413.398	-6.955	-0.214	0.144
-412.384	-166.800	-0.158	-0.006
-411.369	39.080	-0.146	0.129
-410.355	-3.931	0.085	0.059
-409.340	161.396	-0.227	0.315
-408.325	97.563	-0.075	-0.086
-407.311	57.182	-0.141	0.136
-406.296	64.604	0.335	0.335
-405.282	-200.000	-0.018	-0.235
-404.267	800.000	-0.030	0.105
-403.252	299.085	-0.087	0.158
-402.238	50.645	0.197	-0.185
-401.223	156.475	0.025	0.034
-400.209	-38.039	0.330	0.174
-399.194	593.495	-0.090	-0.221
-398.179	-200.000	0.036	0.360
-397.165	141.307	-0.170	-0.222
-396.150	-90.213	0.182	-0.053
-395.136	-106.240	-0.435	-0.097
-394.121	-76.551	0.200	-0.070
-393.106	574.944	0.067	0.161
-392.092	21.017	0.064	-0.051
-391.077	4.407	-0.063	0.046
-390.063	-65.334	-0.243	0.097
-389.048	-125.664	-0.168	0.025
-388.033	535.930	0.040	-0.094
-387.019	-122.320	0.208	0.034
-386.004	434.218	-0.091	0.197
-384.990	135.370	0.106	0.137
-383.975	-130.484	-0.052	-0.007
-382.960	-95.967	-0.171	-0.045
-381.946	-76.877	-0.189	-0.065
-380.931	-77.751	0.230	0.079
-379.917	-24.064	0.233	0.138
-378.902	-93.629	-0.262	0.071
-377.888	-200.000	-0.003	0.129
-376.873	-80.056	-0.248	-0.082
-375.858	-200.000	0.336	-0.001
-374.844	209.404	0.125	0.193
-373.829	800.000	0.034	-0.116
-372.815	268.044	-0.055	-0.095
-371.800	430.533	0.048	0.102
-370.785	96.823	0.022	0.025
-369.771	-200.000	0.004	-0.416
-368.756	421.235	0.085	-0.181
-367.742	-113.439	-0.254	-0.049
-366.727	-132.698	0.275	0.035
-365.712	800.000	-0.072	-0.211
-364.698	-200.000	0.008	-0.143
-363.683	-200.000	-0.085	-0.416
-362.669	-14.351	0.109	0.070
-361.654	-200.000	-0.096	-0.000
-360.639	16.349	-0.163	0.127
-359.625	-109.858	-0.236	0.049
-358.610	-200.000	0.003	-0.171
-357.596	-30.462	0.207	0.116
-356.581	105.747	-0.099	0.116
-355.566	800.000	-0.103	0.433
-354.552	-200.000	0.035	0.275
-353.537	800.000	-0.038	-0.121
-352.523	-137.370	-0.162	-0.018
-351.508	-200.000	-0.006	-0.097
-350.493	800.000	0.030	0.115
-349.479	115.063	0.108	0.131
-348.464	250.858	-0.114	-0.191
-347.450	-118.859	-0.449	0.078
-346.435	68.316	0.128	-0.130
-345.420	89.795	-0.109	-0.121
-344.406	742.235	0.067	0.177
-343.391	-189.803	0.258	-0.003
-342.377	60.122	-0.187	-0.182
-341.362	-165.493	-0.284	-0.012
-340.348	-200.000	0.014	-0.458
-339.333	800.000	0.013	-0.044
-338.318	-93.851	-0.038	0.010
-337.304	449.704	-0.038	0.084
-336.289	-168.948	0.244	-0.009
-335.275	391.846	0.040	-0.083
-334.260	-24.970	0.131	0.077
-333.245	296.439	0.061	0.111
-332.231	254.839	0.170	0.287
-331.216	-35.531	-0.133	-0.071
-330.202	652.331	-0.060	0.152
-329.187	-30.509	0.119	0.067
-328.172	560.612	-0.082	0.195
-327.158	-27.736	0.259	0.149
-326.143	57.006	-0.152	-0.146
-325.129	-108.601	-0.265	-0.056
-324.114	-200.000	0.033	0.186
-323.099	-149.135	-0.142	-0.011
-322.085	-41.479	0.257	0.131
-321.070	742.170	-0.057	0.150
-320.056	-27.531	-0.413	-0.237
-319.041	-9.235	0.084	-0.055
-318.026	800.000	-0.093	0.284
-317.012	25.368	-0.287	0.235
-315.997	-200.000	-0.050	0.312
-314.983	-200.000	0.043	0.239
-313.968	800.000	-0.041	0.131
-312.953	-153.631	0.019	-0.001
-311.939	800.000	0.071	0.197
-310.924	-128.864	0.382	-0.053
-309.910	63.729	-0.237	-0.235
-308.895	-145.189	0.399	-0.036
-307.880	44.002	0.119	0.108
-306.866	-82.558	-0.137	0.044
-305.851	74.217	-0.172	-0.178
-304.837	-79.712	0.319	-0.106
-303.822	-121.964	0.238	-0.039
-302.807	175.491	-0.124	0.177
-301.793	800.000	0.059	-0.214
-300.778	-200.000	0.013	0.408
-299.764	-80.874	0.397	0.130
-298.749	800.000	0.079	0.248
-297.735	155.694	-0.124	0.169
-296.720	561.983	-0.022	-0.052
-295.705	122.631	0.309	-0.381
-294.691	3.307	-0.076	-0.054
-293.676	431.392	-0.031	-0.067
-292.662	66.042	0.306	0.306
-291.647	800.000	0.066	0.284
-290.632	89.490	0.092	-0.101
-289.618	28.925	0.112	-0.094
-288.603	-66.711	0.190	0.074
-287.589	800.000	-0.095	0.264
-286.574	-100.161	0.094	-0.023
-285.559	-29.112	0.107	0.060
-284.545	481.021	0.068	-0.152
-283.530	-200.000	-0.063	-0.327
-282.516	-118.853	-0.108	-0.019
-281.501	225.790	-0.061	-0.098
-280.486	-200.000	0.015	0.101
-279.472	-154.828	-0.160	0.010
-278.457	-109.696	-0.209	0.043
-277.443	-149.649	0.158	-0.012
-276.428	113.612	0.256	0.307
-275.413	-200.000	0.063	0.321
-274.399	-200.000	-0.003	0.092
-273.384	-57.320	-0.155	-0.067
-272.370	34.309	0.198	0.170
-271.355	-200.000	0.000	-0.091
-270.340	-150.275	0.179	-0.014
-269.326	-12.001	0.145	0.093
-268.311	800.000	-0.064	0.205
-267.297	-97.791	0.275	-0.070
-266.282	800.000	0.015	-0.053
-265.267	298.874	-0.125	-0.227
-264.253	15.194	0.315	0.243
-263.238	-200.000	-0.035	0.219
-262.224	-32.386	-0.231	-0.127
-261.209	-180.160	-0.073	0.002
-260.195	599.636	-0.079	0.193
-259.180	800.000	-0.051	-0.192
-258.165	304.294	-0.155	0.283
-257.151	800.000	0.061	0.190
-256.136	353.280	0.203	0.397
-255.122	11.509	0.097	-0.073
-254.107	-65.628	-0.240	-0.095
-253.092	268.470	-0.202	0.349
-252.078	361.556	0.083	0.164
-251.063	116.296	-0.133	0.161
-250.049	-50.560	-0.034	-0.016
-249.034	179.668	0.144	0.207
-248.019	-200.000	-0.034	0.195
-247.005	-137.540	-0.189	0.021
-245.990	800.000	-0.095	-0.273
-244.976	-82.321	-0.057	-0.018
-243.961	-200.000	-0.030	-0.148
-242.946	116.850	-0.183	0.221
-241.932	67.497	-0.061	-0.061
-240.917	-200.000	-0.014	-0.422
-239.903	800.000	0.070	-0.214
-238.888	-166.580	0.363	0.015
-237.873	50.620	-0.249	0.232
-236.859	3.177	0.312	-0.223
-235.844	292.712	-0.068	-0.122
-234.830	800.000	-0.068	-0.248
-233.815	-160.360	0.094	-0.005
-232.800	-200.000	0.018	-0.157
-231.786	-200.000	0.041	-0.331
-230.771	11.582	-0.125	0.094
-229.757	-11.038	0.114	0.074
-228.742	88.490	-0.189	0.206
-227.727	-73.498	0.154	0.055
-226.713	209.947	-0.154	0.237
-225.698	-36.680	-0.134	0.071
-224.684	669.023	0.048	0.121
-223.669	800.000	0.054	-0.214
-222.655	193.748	0.192	-0.285
-221.640	-200.000	-0.033	-0.272
-220.625	-108.449	0.126	0.027
-219.611	328.705	0.160	0.302
-218.596	800.000	-0.028	-0.102
-217.582	451.049	-0.156	-0.339
-216.567	272.793	0.045	-0.078
-215.552	746.340	0.103	0.273
-214.538	13.773	0.142	-0.109
-213.523	-43.221	0.275	0.137
-212.509	-109.751	-0.370	0.077
-211.494	-200.000	0.048	-0.418
-210.479	5.110	0.337	-0.244
-209.465	-126.132	0.107	-0.016
-208.450	285.309	0.131	-0.233
-207.436	-82.896	0.326	-0.103
-206.421	71.227	0.183	-0.187
-205.406	-64.293	-0.242	-0.097
-204.392	-200.000	-0.015	-0.071
-203.377	-116.440	-0.299	-0.054
-202.363	-200.000	0.017	-0.286
-201.348	800.000	0.043	0.129
-200.333	-42.008	0.255	0.128
-199.319	160.916	0.115	0.157
-198.304	210.418	-0.072	-0.111
-197.290	49.553	0.149	0.138
-196.275	-106.024	0.235	0.052
-195.260	141.932	0.112	-0.146
-194.246	-200.000	-0.019	-0.085
-193.231	-200.000	-0.081	-0.471
-192.217	-171.962	0.243	0.008
-191.202	176.464	-0.127	-0.181
-190.187	-47.631	0.152	0.072
-189.173	301.549	-0.121	-0.219
-188.158	180.028	0.389	0.559
-187.144	243.588	-0.123	0.203
-186.129	-115.668	0.495	-0.091
-185.114	-96.131	-0.258	-0.067
-184.100	107.038	-0.225	0.262
-183.085	-148.357	-0.169	-0.014
-182.071	-115.240	0.217	-0.040
-181.056	-38.969	0.221	0.114
-180.042	26.426	0.113	-0.093
-179.027	-179.788	0.067	-0.001
-178.012	204.858	-0.166	0.253
-176.998	800.000	0.044	0.146
-175.983	-200.000	0.012	0.270
-174.969	-200.000	0.032	0.351
-173.954	243.497	-0.068	0.112
-172.939	74.718	-0.187	0.193
-171.925	-200.000	-0.007	-0.050
-170.910	-200.000	0.044	-0.253
-169.896	17.465	-0.035	-0.027
-168.881	13.485	-0.016	-0.012
-167.866	360.733	-0.033	0.066
-166.852	275.632	0.089	-0.154
-165.837	-80.189	0.149	0.049
-164.823	81.989	0.114	0.121
-163.808	31.492	0.172	0.145
-162.793	-200.000	0.028	0.253
-161.779	1.618	0.173	0.122
-160.764	-49.991	-0.067	-0.031
-159.750	-200.000	0.018	0.201
-158.735	-200.000	0.041	0.267
-157.720	-200.000	0.029	0.135
-156.706	-124.793	-0.153	0.023
-155.691	49.201	0.105	0.096
-154.677	-46.364	0.176	0.085
-153.662	6.531	-0.035	-0.026
-152.647	467.040	0.069	0.151
-151.633	800.000	0.146	0.541
-150.618	-114.888	-0.144	0.027
-149.604	116.657	0.189	-0.228
-148.589	342.642	0.066	-0.126
-147.574	-68.155	-0.097	0.037
-146.560	-0.642	-0.102	0.071
-145.545	-131.010	-0.264	0.034
-144.531	-200.000	-0.036	-0.319
-143.516	185.821	-0.164	0.240
-142.502	33.820	-0.039	0.033
-141.487	-110.324	0.121	-0.025
-140.472	89.818	-0.077	0.084
-139.458	-200.000	0.056	-0.242
-138.443	-200.000	-0.019	-0.119
-137.429	-17.717	0.204	-0.125
-136.414	376.913	-0.168	0.336
-135.399	-151.693	0.284	-0.020
-134.385	327.113	0.039	-0.073
-133.370	-200.000	-0.016	0.180
-132.356	-80.571	-0.241	-0.078
-131.341	160.799	-0.082	-0.112
-130.326	-47.057	0.113	0.054
-129.312	-55.814	0.286	-0.125
-128.297	378.632	0.068	0.136
-127.283	-200.000	-0.006	0.178
-126.268	-200.000	-0.000	-0.090
-125.253	-33.691	0.183	0.099
-124.239	491.343	0.080	-0.180
-123.224	-59.558	0.114	-0.048
-122.210	470.064	-0.016	0.036
-121.195	131.005	0.113	0.142
-120.180	421.459	-0.067	-0.141
-119.166	42.748	0.168	0.150
-118.151	-200.000	0.006	-0.085
-117.137	-200.000	-0.008	-0.119
-116.122	-96.572	-0.124	-0.032
-115.107	-200.000	0.037	-0.185
-114.093	182.975	0.103	0.148
-113.078	-200.000	0.100	0.451
-112.064	-49.689	-0.213	0.099
-111.049	-103.650	-0.238	0.055
-110.034	-117.246	0.241	0.043
-109.020	-200.000	-0.026	0.339
-108.005	39.861	0.126	0.110
-106.991	32.342	-0.077	-0.065
-105.976	690.457	-0.027	0.068
-104.962	390.221	0.128	0.261
-103.947	-57.897	-0.380	0.163
-102.932	5.038	0.339	-0.244
-101.918	19.362	0.336	-0.264
-100.903	800.000	0.114	-0.429
-99.889	-200.000	0.026	0.121
-98.874	20.111	-0.262	0.207
-97.859	-122.883	0.192	-0.030
-96.845	-191.210	-0.195	0.002
-95.830	547.928	0.038	0.088
-94.816	-182.185	-0.326	0.006
-93.801	407.861	0.057	0.117
-92.786	-200.000	-0.025	0.612
-91.772	23.942	-0.208	0.168
-90.757	-200.000	-0.076	0.388
-89.743	-28.965	-0.285	0.160
-88.728	-27.817	0.272	-0.154
-87.713	-170.106	0.366	0.013
-86.699	304.268	0.103	0.187
-85.684	491.588	-0.080	-0.179
-84.670	800.000	-0.090	0.285
-83.655	60.932	-0.283	0.275
-82.640	-200.000	-0.020	0.154
-81.626	113.485	0.164	0.194
-80.611	-104.134	-0.078	-0.018
-79.597	800.000	-0.060	0.170
-78.582	-102.072	-0.284	0.067
-77.567	-200.000	-0.024	0.192
-76.553	402.815	0.175	0.359
-75.538	354.851	0.086	-0.168
-74.524	-103.104	0.242	-0.056
-73.509	-112.110	-0.252	0.050
-72.494	-200.000	0.001	-0.077
-71.480	477.447	-0.057	-0.126
-70.465	-200.000	-0.015	-0.213
-69.451	-48.865	-0.141	-0.066
-68.436	166.878	0.082	0.114
-67.422	-190.972	0.124	-0.001
-66.407	800.000	0.113	0.357
-65.392	-42.875	-0.113	0.056
-64.378	-130.901	-0.125	0.016
-63.363	-200.000	0.029	0.175
-62.349	-99.402	0.188	0.046
-61.334	17.502	-1.352	-1.049
-60.319	98.878	0.649	0.732
-59.305	792.657	-0.564	-1.514
-58.290	309.497	0.857	1.566
-57.276	301.407	0.730	1.317
-56.261	-200.000	124.290	641.858
-55.246	413.892	1560.491	3243.008
-54.232	143.301	2719.142	3534.212
-53.217	96.316	2162.355	2415.249
-52.203	35.163	1595.475	1365.253
-51.188	26.780	1339.303	1095.592
-50.173	24.155	1302.387	1049.902
-49.159	50.812	1370.817	1267.700
-48.144	48.504	1381.946	1263.968
-47.130	26.781	1330.345	1088.100
-46.115	23.672	1310.952	1053.773
-45.100	23.495	1305.904	1048.630
-44.086	23.404	1303.704	1046.283
-43.071	23.311	1301.390	1043.836
-42.057	23.336	1299.488	1042.417
-41.042	23.274	1297.918	1040.749
-40.027	23.316	1296.445	1039.776
-39.013	23.364	1294.544	1038.491
-37.998	23.464	1292.724	1037.575
-36.984	23.447	1290.930	1035.992
-35.969	23.426	1289.275	1034.504
-34.954	23.495	1287.476	1033.420
-33.940	23.493	1286.108	1032.268
-32.925	23.500	1285.257	1031.588
-31.911	23.544	1283.873	1030.691
-30.896	23.646	1282.159	1029.867
-29.881	23.592	1281.303	1028.821
-28.867	23.678	1279.534	1027.858
-27.852	23.616	1278.258	1026.435
-26.838	23.641	1276.983	1025.517
-25.823	23.549	1275.499	1023.751
-24.809	23.652	1273.779	1022.923
-23.794	23.556	1273.465	1022.080
-22.779	23.607	1271.612	1020.843
-21.765	23.603	1270.195	1019.644
-20.750	23.591	1269.112	1018.663
-19.736	23.446	1267.955	1016.863
-18.721	23.410	1266.703	1015.615
-17.706	23.440	1265.876	1015.082
-16.692	23.579	1264.311	1014.584
-15.677	23.470	1263.084	1012.931
-14.663	23.538	1261.979	1012.396
-13.648	23.481	1260.928	1011.187
-12.633	23.514	1259.901	1010.510
-11.619	23.373	1259.503	1009.347
-10.604	23.436	1258.464	1008.836
-9.590	23.408	1257.524	1007.880
-8.575	23.367	1257.011	1007.197
-7.560	23.372	1255.881	1006.280
-6.546	23.514	1254.447	1005.895
-5.531	23.417	1254.097	1005.029
-4.517	23.458	1253.189	1004.492
-3.502	23.435	1252.867	1004.065
-2.487	23.401	1251.845	1003.013
-1.473	23.518	1247.034	999.775
-0.458	21.750	1232.675	978.366
0.556	16.901	1216.958	942.447
1.571	13.576	1224.417	929.516
2.586	12.836	1239.377	936.581
3.600	13.014	1227.365	928.429
4.615	9.559	1155.247	855.474
5.629	3.397	1084.123	771.946
6.644	0.307	1067.613	744.867
7.659	0.194	1065.884	743.036
8.673	0.115	1064.683	741.741
9.688	0.144	1063.502	740.998
10.702	0.291	1061.292	740.116
11.717	4.127	1065.431	761.825
12.731	11.062	1074.672	802.660
13.746	15.646	1080.211	829.393
14.761	16.738	1081.463	835.674
15.775	16.014	1079.592	830.586
16.790	15.116	1077.961	824.838
17.804	14.404	1076.174	819.896
18.819	14.077	1074.958	817.287
19.834	13.899	1074.170	815.744
20.848	13.554	1073.579	813.526
21.863	13.407	1072.288	811.754
22.877	13.217	1071.585	810.222
23.892	13.237	1070.807	809.657
24.907	13.176	1070.544	809.090
25.921	13.118	1069.230	807.743
26.936	13.204	1069.048	807.952
27.950	13.303	1067.618	807.283
28.965	13.392	1066.027	806.443
29.980	13.390	1064.829	805.456
30.994	13.326	1064.309	804.682
32.009	13.443	1062.768	804.014
33.023	13.413	1061.908	803.143
34.038	13.373	1060.963	802.164
35.053	13.390	1060.567	801.876
36.067	13.298	1059.756	800.747
37.082	13.332	1058.487	799.885
38.096	13.411	1057.858	799.716
39.111	13.372	1057.560	799.235
40.126	13.338	1056.448	798.161
41.140	13.246	1055.082	796.610
42.155	13.184	1053.785	795.263
43.169	13.188	1052.716	794.406
44.184	13.196	1051.366	793.355
45.199	13.156	1050.682	792.580
46.213	13.110	1049.709	791.553
47.228	13.260	1048.695	791.437
48.242	13.189	1047.557	790.167
49.257	13.113	1047.228	789.488
50.271	13.297	1046.024	789.388
51.286	13.311	1045.065	788.659
52.301	13.317	1043.875	787.723
53.315	13.402	1042.645	787.127
54.330	13.217	1041.964	785.665
55.344	13.226	1040.860	784.805
56.359	13.325	1039.819	784.422
57.374	13.374	1039.467	784.316
58.388	13.270	1038.233	782.827
59.403	13.130	1037.554	781.581
60.417	13.125	1036.860	780.967
61.432	13.255	1035.980	780.847
62.447	13.083	1036.023	779.997
63.461	13.120	1034.706	779.111
64.476	13.098	1034.051	778.446
65.490	13.074	1032.832	777.347
66.505	13.101	1032.084	776.842
67.520	13.204	1031.201	776.594
68.534	13.220	1030.687	776.212
69.549	13.256	1029.770	775.623
70.563	13.148	1029.284	774.681
71.578	12.983	1028.852	773.515
72.593	13.084	1027.487	772.892
73.607	13.151	1026.902	772.697
74.622	13.181	1026.275	772.300
75.636	13.030	1026.021	771.333
76.651	13.053	1024.880	770.514
77.666	13.075	1024.321	770.127
78.680	13.010	1023.571	769.193
79.695	13.119	1022.933	769.154
80.709	13.164	1022.154	768.707
81.724	13.142	1021.567	768.099
82.739	13.175	1020.610	767.462
83.753	13.258	1019.822	767.190
84.768	13.352	1018.804	766.792
85.782	13.303	1018.051	765.927
86.797	13.336	1016.935	765.172
87.812	13.266	1016.541	764.484
88.826	13.203	1015.395	763.264
89.841	13.263	1014.281	762.638
90.855	13.337	1013.473	762.305
91.870	13.402	1012.597	761.877
92.884	13.403	1011.806	761.219
93.899	13.396	1010.924	760.456
94.914	13.571	1010.288	760.714
95.928	13.451	1009.205	759.279
96.943	13.402	1008.282	758.295
97.957	13.367	1007.724	757.646
98.972	13.455	1006.766	757.262
99.987	13.495	1005.580	756.483
101.001	13.307	1005.247	755.309
102.016	13.371	1004.545	755.006
103.030	13.316	1003.766	754.106
104.045	13.316	1002.978	753.445
105.060	13.496	1001.993	753.457
106.074	13.237	1001.221	751.633
107.089	13.309	1000.091	751.047
108.103	13.254	999.201	750.062
109.118	13.315	998.376	749.653
110.133	13.189	997.871	748.634
111.147	13.265	996.540	747.916
112.162	13.268	995.622	747.175
113.176	13.170	995.370	746.473
114.191	13.318	994.387	746.339
115.206	13.366	993.526	745.845
116.220	13.207	992.888	744.583
117.235	13.318	991.769	744.179
118.249	13.267	990.973	743.284
119.264	13.288	990.378	742.867
120.279	13.270	989.389	741.978
121.293	13.387	988.312	741.632
122.308	13.320	987.577	740.711
123.322	13.250	986.866	739.801
124.337	13.241	985.627	738.765
125.352	13.286	984.452	738.021
126.366	13.370	983.492	737.611
127.381	13.246	982.910	736.555
128.395	13.323	981.587	735.845
129.410	13.210	980.870	734.736
130.424	13.267	980.026	734.293
131.439	13.359	979.252	734.056
132.454	13.201	978.704	732.881
133.468	13.241	977.811	732.322
134.483	13.222	976.970	731.545
135.497	13.335	975.813	731.115
136.512	13.338	975.063	730.501
137.527	13.438	973.836	729.957
138.541	13.309	973.864	729.347
139.556	13.253	972.809	728.246
140.570	13.453	971.960	728.426
141.585	13.573	970.964	728.140
142.600	13.448	970.400	727.102
143.614	13.519	969.372	726.580
144.629	13.527	968.989	726.264
145.643	13.593	967.660	725.494
146.658	13.615	966.759	724.848
147.673	13.545	965.767	723.738
148.687	13.556	964.842	723.026
149.702	13.389	964.272	721.807
150.716	13.464	963.297	721.342
151.731	13.496	962.891	721.113
152.746	13.409	962.438	720.330
153.760	13.440	961.826	719.943
154.775	13.565	961.284	720.017
155.789	13.519	960.879	719.452
156.804	13.537	959.575	718.490
157.819	13.620	958.908	718.284
158.833	13.706	958.728	718.458
159.848	13.746	957.601	717.724
160.862	13.642	956.831	716.635
161.877	13.636	955.842	715.805
162.892	13.554	954.924	714.699
163.906	13.512	954.178	713.899
164.921	13.555	952.965	713.113
165.935	13.672	952.176	712.961
166.950	13.670	951.187	712.150
167.964	13.639	950.357	711.330
168.979	13.637	949.582	710.679
169.994	13.718	948.795	710.375
171.008	13.658	948.199	709.608
172.023	13.667	947.699	709.210
173.037	13.802	946.764	709.024
174.052	13.761	946.061	708.260
175.067	13.680	945.402	707.358
176.081	13.685	945.064	707.064
177.096	13.719	944.622	706.818
178.110	13.693	943.594	705.873
179.125	13.822	942.915	705.853
180.140	13.692	942.549	704.963
181.154	13.762	942.388	705.080
182.169	13.912	941.512	704.997
183.183	13.745	941.111	703.925
184.198	13.938	940.127	703.944
185.213	13.922	939.253	703.160
186.227	13.829	939.042	702.545
187.242	14.005	938.178	702.584
188.256	14.148	937.223	702.409
189.271	13.914	936.922	701.136
190.286	13.885	935.944	700.218
191.300	13.865	935.069	699.417
192.315	13.794	934.653	698.747
193.329	13.779	934.241	698.311
194.344	13.780	933.560	697.746
195.359	13.705	933.452	697.288
196.373	13.911	932.255	697.197
197.388	13.960	932.016	697.160
198.402	14.072	931.163	696.934
199.417	14.153	930.523	696.729
200.432	14.025	930.124	695.835
201.446	14.139	929.624	695.877
202.461	14.137	929.261	695.532
203.475	14.083	929.152	695.166
204.490	14.173	927.868	694.520
205.504	14.031	927.463	693.562
206.519	14.028	926.386	692.684
207.534	14.120	925.487	692.333
208.548	14.273	924.792	692.385
209.563	14.227	924.305	691.770
210.577	14.157	923.845	691.072
211.592	14.281	923.268	691.096
212.607	14.369	922.407	690.753
213.621	14.354	921.315	689.816
214.636	14.392	920.721	689.465
215.650	14.323	920.040	688.608
216.665	14.374	919.336	688.230
217.680	14.436	918.770	688.002
218.694	14.282	917.947	686.692
219.709	14.460	917.700	687.178
220.723	14.410	916.818	686.251
221.738	14.454	915.996	685.755
222.753	14.518	914.960	685.185
223.767	14.523	914.425	684.741
224.782	14.464	914.122	684.213
225.796	14.545	913.359	683.913
226.811	14.572	912.706	683.474
227.826	14.379	912.480	682.454
228.840	14.504	911.569	682.226
229.855	14.483	910.878	681.561
230.869	14.480	909.545	680.492
231.884	14.473	909.352	680.258
232.899	14.536	908.465	679.792
233.913	14.510	908.281	679.486
234.928	14.431	907.321	678.386
235.942	14.412	906.793	677.857
236.957	14.486	905.940	677.459
237.972	14.512	905.563	677.222
238.986	14.589	904.790	676.896
240.001	14.564	904.279	676.352
241.015	14.591	903.586	675.884
242.030	14.644	903.174	675.729
243.045	14.628	902.486	675.090
244.059	14.722	901.783	674.884
245.074	14.719	900.898	674.151
246.088	14.766	900.323	673.852
247.103	14.827	899.786	673.634
248.117	14.563	899.697	672.445
249.132	14.801	898.757	672.642
250.147	14.901	897.952	672.383
251.161	14.928	897.542	672.122
252.176	14.962	896.701	671.572
253.190	15.027	895.828	671.120
254.205	14.905	895.564	670.372
255.220	15.002	894.995	670.276
256.234	15.109	894.420	670.213
257.249	15.028	893.367	669.043
258.263	15.019	892.769	668.497
259.278	15.102	892.349	668.455
260.293	15.056	891.476	667.558
261.307	15.103	891.067	667.383
262.322	15.213	890.028	666.981
263.336	15.120	889.508	666.162
264.351	15.258	888.525	665.918
265.366	15.217	888.333	665.552
266.380	15.265	887.501	665.060
267.395	15.104	887.076	664.042
268.409	15.338	886.021	664.123
269.424	15.175	885.545	663.062
270.439	15.206	884.839	662.598
271.453	15.084	884.328	661.672
272.468	15.198	883.710	661.605
273.482	15.200	883.195	661.168
274.497	15.175	882.296	660.334
275.512	15.428	881.946	661.014
276.526	15.263	881.520	659.987
277.541	15.425	880.968	660.152
278.555	15.477	880.133	659.671
279.570	15.433	879.505	658.971
280.585	15.445	878.479	658.191
281.599	15.385	877.767	657.362
282.614	15.362	877.371	656.916
283.628	15.340	876.792	656.338
284.643	15.484	875.959	656.219
285.657	15.507	875.248	655.720
286.672	15.558	874.964	655.650
287.687	15.484	874.100	654.654
288.701	15.384	873.931	654.081
289.716	15.539	873.102	654.005
290.730	15.629	872.146	653.581
291.745	15.379	871.653	652.181
292.760	15.516	871.307	652.400
293.774	15.566	870.531	651.955
294.789	15.678	870.055	651.973
295.803	15.632	868.990	650.940
296.818	15.535	868.585	650.202
297.833	15.493	867.960	649.516
298.847	15.608	867.346	649.443
299.862	15.734	866.648	649.350
300.876	15.860	865.907	649.222
301.891	15.825	865.311	648.585
302.906	15.849	864.843	648.269
303.920	15.870	864.405	647.963
304.935	15.821	864.267	647.613
305.949	15.766	863.677	646.902
306.964	15.837	862.662	646.357
307.979	15.914	861.813	645.961
308.993	15.853	861.514	645.445
310.008	15.899	860.872	645.083
311.022	15.975	860.364	644.937
312.037	15.921	859.612	644.111
313.052	15.849	859.269	643.518
314.066	15.879	858.563	643.048
315.081	16.099	857.874	643.317
316.095	15.876	857.366	642.026
317.110	15.859	857.208	641.786
318.125	15.827	856.461	641.048
319.139	15.958	855.852	641.037
320.154	15.883	855.421	640.372
321.168	15.864	855.459	640.272
322.183	15.947	854.136	639.536
323.197	16.033	853.857	639.598
324.212	15.985	853.201	638.870
325.227	16.050	852.445	638.492
326.241	16.007	852.034	637.966
327.256	16.084	851.344	637.685
328.270	15.893	850.970	636.626
329.285	16.225	850.437	637.424
330.300	16.063	849.706	636.208
331.314	16.095	849.273	635.950
332.329	16.112	848.893	635.674
333.343	16.207	848.569	635.732
334.358	16.033	848.071	634.647
335.373	16.207	847.421	634.759
336.387	16.262	847.229	634.764
337.402	16.206	847.018	634.342
338.416	16.340	846.719	634.565
339.431	16.222	846.091	633.595
340.446	16.285	845.465	633.308
341.460	16.414	845.280	633.593
342.475	16.446	844.881	633.361
343.489	16.321	844.485	632.540
344.504	16.436	843.659	632.294
345.519	16.516	843.312	632.277
346.533	16.540	842.836	631.954
347.548	16.397	842.276	630.943
348.562	16.346	842.093	630.561
349.577	16.358	841.138	629.836
350.592	16.343	840.581	629.307
351.606	16.472	839.848	629.181
352.621	16.381	839.210	628.309
353.635	16.519	838.639	628.339
354.650	16.368	838.183	627.381
355.665	16.499	837.287	627.141
356.679	16.615	836.602	627.003
357.694	16.545	836.251	626.424
358.708	16.601	835.617	626.102
359.723	16.666	834.774	625.657
360.738	16.513	834.361	624.724
361.752	16.635	833.827	624.720
362.767	16.580	833.297	624.064
363.781	16.746	832.448	623.984
364.796	16.658	832.340	623.526
365.810	16.478	832.117	622.639
366.825	16.722	831.627	623.117
367.840	16.792	830.946	622.809
368.854	16.798	830.359	622.335
369.869	16.728	830.096	621.825
370.883	16.732	829.674	621.470
371.898	16.911	829.251	621.756
372.913	16.862	828.733	621.130
373.927	16.838	828.592	620.881
374.942	16.831	827.725	620.154
375.956	16.860	827.392	619.952
376.971	16.971	827.241	620.190
377.986	17.099	826.127	619.770
379.000	17.117	825.773	619.513
380.015	17.103	825.497	619.202
381.029	17.024	825.063	618.534
382.044	17.090	824.574	618.351
383.059	17.067	823.875	617.690
384.073	17.034	823.309	617.089
385.088	17.108	822.719	616.864
386.102	16.941	822.128	615.760
387.117	17.073	821.395	615.634
388.132	17.120	820.713	615.237
389.146	17.178	820.192	615.005
390.161	17.246	819.648	614.788
391.175	17.254	818.921	614.217
392.190	17.025	818.943	613.353
393.205	16.968	818.939	613.088
394.219	17.102	818.340	613.070
395.234	17.145	817.870	612.817
396.248	17.196	817.181	612.430
397.263	17.169	816.908	612.076
398.278	17.067	816.732	611.522
399.292	17.259	815.800	611.463
400.307	17.235	815.465	611.068
401.321	17.162	815.119	610.493
402.336	17.124	814.466	609.815
403.350	17.208	814.515	610.098
404.365	17.474	813.692	610.383
405.380	17.311	813.491	609.593
406.394	17.291	812.540	608.755
407.409	17.419	812.198	608.901
408.423	17.382	811.842	608.450
409.438	17.403	811.645	608.322
410.453	17.577	811.101	608.483
411.467	17.477	811.078	608.056
412.482	17.460	810.065	607.180
413.496	17.495	809.917	607.141
414.511	17.558	809.716	607.161
415.526	17.502	809.500	606.746
416.540	17.529	808.790	606.256
417.555	17.567	808.116	605.833
418.569	17.677	807.415	605.644
419.584	17.643	806.929	605.106
420.599	17.568	807.115	604.926
421.613	113.710	1298.317	1487.072
422.628	98.225	1369.838	1487.146
