DTS Sentinel unit serial number:	SN413079Multiplexer serial number:	ORYXHardware model number:	OX4-SRSoftware version number:	ORYX F/W v4.00 Oryx Data Collector v3.7.2.0data status	okinstallation	princeton_trtdifferential loss correction	single-endedforward channel	channel 1reverse channel	N/Adate	2019/09/13time	10:10:35forward acquisition time	60.00reverse acquisition time	0.00gamma	496.2192k internal	0.2324k external	0.2324temperature offset calibration	1.0158default loss term (dB/km)	0.3790temperature slope calibration	1.0000multiplexer offset coefficient	1.0000multiplexer slope coefficient	1.0000fibre end	0.00T internal ref (°C)	30.55T ext. ref 1 (°C)	4.51T ext. ref 2 (°C)	27.86length (m)	temperature (°C)	Stokes	anti-Stokes-747.200	800.000	0.014	0.056
-746.185	53.001	-0.123	-0.119
-745.171	97.802	0.172	0.200
-744.156	-200.000	0.026	0.143
-743.142	-110.833	0.141	0.029
-742.127	-200.000	0.016	0.310
-741.112	453.166	0.056	-0.125
-740.098	-87.411	0.109	-0.033
-739.083	27.349	0.224	0.190
-738.069	218.534	-0.122	0.197
-737.054	-106.828	0.188	0.042
-736.039	-200.000	-0.016	0.091
-735.025	556.370	0.097	0.236
-734.010	111.461	-0.326	0.397
-732.996	100.670	-0.117	-0.138
-731.981	-179.789	-0.256	-0.006
-730.966	-200.000	-0.022	0.333
-729.952	800.000	-0.111	0.335
-728.937	105.898	0.057	-0.068
-727.923	-116.833	0.374	-0.069
-726.908	-112.620	-0.571	0.115
-725.894	3.204	0.188	0.138
-724.879	-200.000	-0.006	-0.187
-723.864	-144.963	0.296	0.027
-722.850	752.115	0.116	-0.317
-721.835	-3.694	-0.120	0.084
-720.821	-200.000	-0.009	0.060
-719.806	-99.619	0.415	0.105
-718.791	-200.000	-0.026	-0.627
-717.777	-105.672	-0.204	0.047
-716.762	800.000	-0.029	-0.091
-715.748	58.415	-0.098	-0.097
-714.733	-126.281	-0.199	-0.030
-713.718	-31.132	0.362	-0.206
-712.704	304.904	0.081	-0.151
-711.689	166.962	-0.149	-0.213
-710.675	-108.430	0.114	0.025
-709.660	800.000	-0.128	0.535
-708.645	-46.689	-0.124	-0.061
-707.631	-200.000	0.052	-0.245
-706.616	-200.000	0.000	-0.011
-705.602	128.563	0.102	-0.131
-704.587	800.000	0.011	0.042
-703.572	-200.000	0.021	-0.138
-702.558	-77.869	0.314	-0.109
-701.543	222.150	0.050	0.082
-700.529	-54.619	-0.277	-0.126
-699.514	255.716	-0.033	-0.057
-698.499	-200.000	0.031	-0.158
-697.485	800.000	0.064	-0.222
-696.470	-200.000	-0.055	-0.414
-695.456	-65.985	0.109	0.044
-694.441	-74.454	-0.309	0.112
-693.426	39.745	0.116	0.105
-692.412	-175.073	0.141	0.004
-691.397	-41.487	-0.242	0.125
-690.383	102.524	0.196	-0.231
-689.368	102.363	-0.079	0.093
-688.354	-91.335	0.182	0.052
-687.339	800.000	-0.026	0.110
-686.324	800.000	0.124	0.416
-685.310	800.000	0.025	-0.087
-684.295	102.008	0.070	0.082
-683.281	74.950	0.149	-0.158
-682.266	-123.128	-0.095	0.015
-681.251	-9.442	0.186	0.125
-680.237	62.356	0.181	-0.182
-679.222	-109.798	0.012	-0.002
-678.208	-82.209	-0.084	-0.028
-677.193	-85.071	0.139	-0.044
-676.178	401.952	-0.087	0.183
-675.164	-190.028	-0.272	0.003
-674.149	800.000	-0.069	-0.242
-673.135	469.925	-0.074	-0.167
-672.120	-98.683	0.145	-0.037
-671.105	-37.985	0.262	-0.140
-670.091	-200.000	-0.009	0.181
-669.076	800.000	-0.059	0.167
-668.062	-41.874	-0.291	-0.150
-667.047	102.772	0.159	-0.188
-666.032	215.370	-0.062	-0.099
-665.018	800.000	-0.078	-0.311
-664.003	153.412	0.049	0.068
-662.989	-45.560	0.163	-0.081
-661.974	-8.162	0.150	-0.101
-660.959	71.395	-0.214	0.224
-659.945	497.232	-0.058	-0.133
-658.930	207.887	-0.156	-0.246
-657.916	-119.895	-0.188	0.032
-656.901	800.000	-0.065	-0.195
-655.886	-37.798	-0.257	0.137
-654.872	51.789	0.150	-0.144
-653.857	252.821	-0.049	-0.083
-652.843	119.318	0.318	-0.396
-651.828	800.000	0.036	0.124
-650.814	294.531	0.185	0.340
-649.799	27.420	-0.253	0.214
-648.784	121.853	0.184	0.231
-647.770	-200.000	0.059	-0.295
-646.755	189.588	0.154	0.232
-645.741	248.814	-0.172	-0.293
-644.726	68.016	0.149	0.153
-643.711	-82.539	0.396	0.129
-642.697	-46.570	-0.067	0.033
-641.682	126.469	0.204	0.260
-640.668	8.486	0.118	0.090
-639.653	800.000	-0.094	-0.286
-638.638	-88.703	0.108	0.032
-637.624	-166.288	-0.215	-0.009
-636.609	-81.045	-0.196	-0.065
-635.595	-31.526	-0.190	0.107
-634.580	800.000	0.016	-0.044
-633.565	166.109	-0.163	0.232
-632.551	-25.864	-0.095	-0.057
-631.536	800.000	-0.061	0.250
-630.522	10.918	0.159	-0.122
-629.507	-3.975	0.227	-0.158
-628.492	800.000	-0.114	-0.414
-627.478	-200.000	0.006	-0.042
-626.463	-186.731	0.143	0.002
-625.449	-39.905	0.305	-0.160
-624.434	125.060	0.099	0.126
-623.419	23.137	0.209	0.172
-622.405	-22.681	0.118	-0.072
-621.390	-83.608	0.079	-0.025
-620.376	-200.000	-0.020	0.103
-619.361	-7.483	-0.423	0.288
-618.346	-9.760	0.193	-0.129
-617.332	-136.672	0.011	0.001
-616.317	-4.716	-0.204	0.142
-615.303	61.592	0.116	-0.116
-614.288	222.652	0.176	-0.284
-613.273	-154.814	0.229	-0.015
-612.259	800.000	0.019	0.054
-611.244	-36.369	-0.366	0.198
-610.230	575.351	-0.131	-0.320
-609.215	149.142	-0.170	-0.231
-608.201	305.558	-0.037	-0.070
-607.186	800.000	0.059	-0.181
-606.171	155.561	-0.130	-0.179
-605.157	21.012	-0.175	-0.143
-604.142	-82.640	-0.273	0.089
-603.128	-89.296	-0.242	0.072
-602.113	380.322	-0.042	0.087
-601.098	-200.000	-0.048	0.346
-600.084	32.491	-0.105	-0.091
-599.069	41.963	0.230	-0.210
-598.055	-200.000	-0.241	0.000
-597.040	496.528	0.068	-0.157
-596.025	145.301	-0.128	-0.172
-595.011	68.845	0.124	-0.128
-593.996	-122.843	0.285	0.046
-592.982	-159.396	-0.123	-0.007
-591.967	183.983	-0.098	-0.145
-590.952	56.350	-0.083	-0.081
-589.938	-24.917	0.175	-0.104
-588.923	-120.212	-0.267	0.046
-587.909	58.698	-0.434	-0.428
-586.894	800.000	0.039	-0.148
-585.879	-200.000	0.031	0.191
-584.865	-190.036	-0.563	0.006
-583.850	-162.159	-0.330	0.017
-582.836	79.020	-0.127	-0.136
-581.821	441.606	0.114	0.251
-580.806	-91.367	0.029	-0.008
-579.792	27.732	0.301	-0.254
-578.777	-92.259	-0.265	-0.075
-577.763	-21.531	-0.112	0.068
-576.748	355.678	0.087	-0.174
-575.733	156.139	-0.055	0.077
-574.719	-200.000	0.000	0.173
-573.704	-128.661	-0.049	-0.007
-572.690	87.715	-0.205	-0.228
-571.675	96.001	-0.117	0.135
-570.661	800.000	-0.063	-0.202
-569.646	216.624	0.167	-0.266
-568.631	-61.701	0.246	-0.103
-567.617	9.255	-0.061	-0.047
-566.602	-200.000	-0.028	-0.305
-565.588	46.857	0.059	-0.055
-564.573	-200.000	0.074	0.345
-563.558	-3.022	-0.264	0.184
-562.544	-49.677	0.266	-0.127
-561.529	-106.483	0.172	0.039
-560.515	78.862	-0.129	-0.139
-559.500	-109.916	-0.058	-0.012
-558.485	-7.426	-0.155	0.105
-557.471	800.000	-0.192	-0.550
-556.456	9.478	0.035	-0.027
-555.442	215.287	0.091	0.145
-554.427	-200.000	-0.026	-0.356
-553.412	-200.000	-0.015	0.342
-552.398	-114.980	-0.379	0.072
-551.383	-200.000	-0.038	-0.333
-550.369	-48.047	-0.109	0.053
-549.354	-33.552	0.108	0.060
-548.339	-118.003	-0.561	-0.101
-547.325	610.819	0.065	0.164
-546.310	-200.000	0.002	-0.024
-545.296	-200.000	0.009	-0.212
-544.281	25.755	0.079	-0.066
-543.266	-200.000	0.018	-0.191
-542.252	800.000	0.050	-0.201
-541.237	800.000	0.061	0.266
-540.223	48.857	0.055	0.052
-539.208	-22.572	-0.087	-0.053
-538.193	800.000	0.014	0.044
-537.179	-123.936	0.236	0.037
-536.164	-47.878	0.126	0.061
-535.150	-101.659	-0.168	-0.041
-534.135	332.355	0.034	0.065
-533.121	-128.364	-0.295	0.042
-532.106	34.650	-0.174	0.153
-531.091	78.894	-0.089	-0.096
-530.077	-200.000	-0.076	0.450
-529.062	-108.166	-0.202	-0.044
-528.048	736.262	-0.092	0.248
-527.033	226.873	0.131	-0.212
-526.018	328.866	0.033	-0.064
-525.004	50.896	-0.121	-0.115
-523.989	57.559	0.056	0.055
-522.975	-118.138	0.102	-0.018
-521.960	-105.756	-0.122	0.028
-520.945	-74.363	0.387	-0.140
-519.931	192.981	-0.118	0.179
-518.916	-200.000	-0.021	0.231
-517.902	-131.004	0.032	-0.004
-516.887	-5.554	0.146	-0.100
-515.872	800.000	0.081	0.331
-514.858	-170.635	0.250	-0.009
-513.843	1.348	0.137	0.099
-512.829	212.969	-0.136	-0.215
-511.814	-109.737	-0.310	0.065
-510.799	-200.000	0.011	0.135
-509.785	-9.647	0.063	0.042
-508.770	4.081	0.086	0.063
-507.756	-73.877	0.089	0.032
-506.741	800.000	-0.083	-0.256
-505.726	-116.815	0.121	0.022
-504.712	-200.000	-0.031	0.239
-503.697	52.284	0.294	0.280
-502.683	800.000	0.099	-0.369
-501.668	381.732	0.046	-0.095
-500.653	40.206	-0.150	0.135
-499.639	-200.000	-0.043	-0.326
-498.624	172.951	0.081	-0.117
-497.610	305.778	-0.109	-0.202
-496.595	238.018	-0.070	-0.116
-495.581	-3.191	0.097	-0.068
-494.566	-200.000	-0.037	-0.705
-493.551	55.235	0.344	-0.333
-492.537	-74.764	-0.209	-0.075
-491.522	-194.220	0.229	0.002
-490.508	800.000	-0.042	0.168
-489.493	282.819	-0.087	-0.155
-488.478	784.613	-0.041	-0.113
-487.464	-43.660	0.363	-0.183
-486.449	517.904	0.094	0.219
-485.435	168.801	-0.140	0.199
-484.420	-45.705	-0.199	-0.098
-483.405	80.699	0.120	-0.130
-482.391	-92.363	-0.294	-0.083
-481.376	197.067	-0.064	0.097
-480.362	248.427	0.056	0.094
-479.347	-200.000	0.025	-0.206
-478.332	7.945	-0.137	0.103
-477.318	-56.573	0.338	0.150
-476.303	-121.904	0.273	-0.045
-475.289	-55.298	-0.349	0.157
-474.274	-200.000	-0.070	0.356
-473.259	388.000	0.029	-0.059
-472.245	52.723	-0.121	0.115
-471.230	80.140	0.163	0.176
-470.216	-8.088	-0.249	-0.167
-469.201	70.994	-0.231	-0.239
-468.186	800.000	0.084	0.287
-467.172	-8.671	-0.115	0.077
-466.157	-33.909	-0.296	0.163
-465.143	-200.000	-0.044	-0.360
-464.128	-34.725	0.287	-0.157
-463.113	-124.723	-0.016	0.002
-462.099	144.355	-0.077	-0.103
-461.084	122.610	0.075	0.094
-460.070	40.579	0.160	-0.144
-459.055	-110.449	-0.471	-0.098
-458.040	-52.129	0.373	0.173
-457.026	13.742	-0.133	-0.103
-456.011	96.309	0.195	0.223
-454.997	800.000	0.042	0.168
-453.982	-87.899	-0.457	-0.137
-452.968	637.718	0.065	-0.164
-451.953	-44.573	-0.018	0.009
-450.938	-155.196	0.124	-0.008
-449.924	126.989	-0.013	-0.016
-448.909	-200.000	0.030	0.146
-447.895	-13.458	-0.331	-0.214
-446.880	735.879	0.046	-0.124
-445.865	-200.000	0.035	-0.157
-444.851	-73.389	0.267	0.097
-443.836	-67.053	0.111	0.044
-442.822	-200.000	-0.037	0.378
-441.807	408.217	-0.108	-0.229
-440.792	800.000	-0.057	0.213
-439.778	128.353	-0.146	0.185
-438.763	800.000	0.135	0.476
-437.749	-42.345	-0.295	-0.150
-436.734	-173.820	0.169	0.005
-435.719	24.020	0.157	-0.129
-434.705	-200.000	0.040	0.190
-433.690	347.638	-0.027	0.053
-432.676	-80.918	-0.158	0.052
-431.661	-21.729	-0.172	0.105
-430.646	-139.876	-0.081	-0.009
-429.632	-171.925	0.319	0.010
-428.617	800.000	0.044	-0.124
-427.603	-151.500	0.373	-0.028
-426.588	-200.000	-0.005	-0.158
-425.573	-165.631	0.023	0.001
-424.559	-115.870	0.245	0.046
-423.544	-24.399	-0.204	-0.121
-422.530	61.047	-0.139	-0.138
-421.515	-200.000	-0.024	-0.174
-420.500	-200.000	-0.014	-0.189
-419.486	-70.454	-0.215	0.081
-418.471	152.735	-0.014	0.019
-417.457	-200.000	-0.058	-0.454
-416.442	487.731	-0.203	-0.461
-415.428	82.232	-0.090	0.098
-414.413	28.547	-0.060	-0.051
-413.398	170.989	0.109	-0.156
-412.384	-70.004	-0.146	0.056
-411.369	-114.890	0.400	0.076
-410.355	-63.343	0.212	-0.087
-409.340	220.463	0.120	-0.191
-408.325	-159.862	0.094	-0.005
-407.311	-79.242	0.247	0.083
-406.296	-21.023	-0.337	-0.206
-405.282	-200.000	-0.008	0.257
-404.267	-109.329	0.418	-0.088
-403.252	1.114	0.303	-0.217
-402.238	-33.111	0.132	-0.073
-401.223	119.649	-0.117	-0.145
-400.209	-110.398	-0.146	-0.030
-399.194	47.568	-0.046	0.042
-398.179	-51.052	0.288	-0.135
-397.165	552.361	0.098	0.235
-396.150	-108.224	-0.239	0.051
-395.136	-200.000	0.014	-0.175
-394.121	307.992	0.079	0.148
-393.106	-200.000	0.075	0.659
-392.092	-200.000	0.057	-0.288
-391.077	245.910	0.076	0.127
-390.063	31.624	-0.082	-0.071
-389.048	105.786	-0.298	0.351
-388.033	-20.892	-0.389	0.237
-387.019	-134.177	0.360	0.044
-386.004	-81.692	-0.266	-0.087
-384.990	-200.000	-0.022	0.148
-383.975	-70.741	0.119	0.045
-382.960	-43.471	0.116	-0.058
-381.946	-200.000	-0.048	-0.277
-380.931	-45.722	0.181	0.089
-379.917	-34.184	0.430	-0.235
-378.902	-26.216	-0.249	0.146
-377.888	-200.000	0.025	0.219
-376.873	-135.822	0.223	-0.026
-375.858	-200.000	0.002	-0.043
-374.844	-54.330	-0.334	0.151
-373.829	-64.857	0.094	0.038
-372.815	249.327	0.076	-0.128
-371.800	-84.633	-0.226	0.071
-370.785	800.000	-0.112	-0.348
-369.771	583.744	0.185	0.452
-368.756	-76.989	-0.405	-0.141
-367.742	800.000	0.044	-0.131
-366.727	-81.637	-0.061	-0.020
-365.712	-53.192	0.226	0.103
-364.698	-200.000	0.040	0.283
-363.683	-139.272	0.191	-0.020
-362.669	4.076	0.295	0.214
-361.654	-97.956	0.133	0.034
-360.639	800.000	0.135	0.435
-359.625	5.169	0.149	0.109
-358.610	116.549	0.271	-0.331
-357.596	-135.204	0.200	-0.024
-356.581	370.760	-0.117	0.236
-355.566	-17.326	-0.124	-0.078
-354.552	-33.697	-0.137	-0.075
-353.537	-29.027	0.250	0.142
-352.523	800.000	-0.052	0.155
-351.508	25.224	0.045	0.037
-350.493	316.052	0.163	-0.306
-349.479	395.512	-0.137	-0.284
-348.464	185.512	0.081	-0.120
-347.450	-128.343	-0.081	-0.012
-346.435	97.617	-0.019	0.022
-345.420	456.682	0.010	-0.022
-344.406	800.000	0.075	0.214
-343.391	-171.804	-0.203	-0.007
-342.377	-200.000	-0.052	0.265
-341.362	-17.507	0.111	0.069
-340.348	-180.447	0.046	-0.001
-339.333	-200.000	-0.213	0.001
-338.318	0.665	-0.197	0.140
-337.304	295.641	-0.082	0.150
-336.289	-200.000	0.017	0.347
-335.275	-17.724	0.179	-0.112
-334.260	541.662	0.159	-0.377
-333.245	-91.020	0.295	-0.084
-332.231	77.274	0.179	-0.189
-331.216	216.397	-0.167	0.263
-330.202	781.927	-0.059	0.161
-329.187	-200.000	0.034	0.274
-328.172	35.226	0.136	-0.118
-327.158	21.755	-0.040	0.032
-326.143	-200.000	-0.007	-0.156
-325.129	130.589	0.044	-0.057
-324.114	-200.000	-0.015	-0.069
-323.099	768.448	0.092	0.249
-322.085	-200.000	-0.008	-0.097
-321.070	-200.000	0.001	-0.236
-320.056	-142.458	0.161	0.016
-319.041	800.000	0.080	-0.224
-318.026	-53.572	-0.203	-0.092
-317.012	-200.000	0.011	0.106
-315.997	35.949	0.122	-0.107
-314.983	132.295	0.188	-0.240
-313.968	-200.000	0.001	0.345
-312.953	-105.732	0.096	-0.022
-311.939	-19.148	0.245	0.151
-310.924	-43.019	-0.063	0.032
-309.910	254.001	-0.100	0.170
-308.895	-94.298	-0.158	-0.043
-307.880	-116.166	0.196	-0.036
-306.866	122.771	-0.147	0.182
-305.851	-82.000	-0.122	-0.039
-304.837	-141.846	0.222	0.022
-303.822	115.752	-0.248	-0.301
-302.807	-105.412	-0.184	-0.042
-301.793	534.439	-0.137	-0.321
-300.778	511.408	0.103	0.237
-299.764	-200.000	0.055	0.254
-298.749	-66.971	0.185	-0.072
-297.735	-139.441	-0.129	-0.014
-296.720	-200.000	0.029	-0.304
-295.705	800.000	-0.053	0.199
-294.691	-39.544	0.316	-0.164
-293.676	-82.697	0.106	-0.034
-292.662	-200.000	0.026	0.114
-291.647	-50.557	-0.088	0.041
-290.632	800.000	0.010	0.039
-289.618	-98.084	-0.266	0.068
-288.603	-18.978	0.328	-0.202
-287.589	286.849	0.072	0.128
-286.574	107.869	0.119	-0.141
-285.559	241.430	0.087	0.144
-284.545	70.312	-0.184	-0.188
-283.530	800.000	-0.102	0.309
-282.516	800.000	-0.045	0.186
-281.501	-10.382	0.169	-0.111
-280.486	-94.444	0.412	-0.111
-279.472	-200.000	0.048	0.309
-278.457	-131.889	-0.253	-0.033
-277.443	-18.321	-0.203	0.126
-276.428	-60.105	-0.232	-0.098
-275.413	-165.934	0.033	-0.001
-274.399	-70.922	-0.103	-0.038
-273.384	-72.824	-0.130	0.047
-272.370	262.091	0.099	0.171
-271.355	-141.709	0.126	0.013
-270.340	53.015	0.329	-0.312
-269.326	447.382	0.157	0.343
-268.311	-31.811	0.090	0.050
-267.297	-200.000	-0.034	0.154
-266.282	23.160	0.136	0.110
-265.267	327.887	-0.213	-0.406
-264.253	-200.000	-0.004	-0.107
-263.238	800.000	0.094	-0.293
-262.224	46.035	-0.157	-0.144
-261.209	409.220	-0.095	0.200
-260.195	-17.560	-0.124	0.077
-259.180	-80.284	0.221	-0.073
-258.165	-157.479	-0.216	0.013
-257.151	279.110	0.090	0.160
-256.136	56.828	-0.188	-0.182
-255.122	-119.105	-0.224	-0.039
-254.107	-90.234	0.291	0.084
-253.092	-95.276	0.179	0.048
-252.078	588.641	-0.070	-0.172
-251.063	-163.449	-0.200	-0.009
-250.049	-122.830	0.252	0.040
-249.034	525.866	0.109	0.254
-248.019	-11.211	0.172	0.112
-247.005	-73.708	0.152	0.055
-245.990	39.840	0.062	-0.055
-244.976	465.035	-0.092	0.203
-243.961	800.000	0.008	-0.027
-242.946	546.005	-0.057	0.135
-241.932	-200.000	0.016	0.224
-240.917	-87.794	0.326	0.097
-239.903	94.348	0.214	-0.240
-238.888	588.493	0.032	-0.079
-237.873	-61.399	0.141	-0.059
-236.859	235.409	0.082	0.133
-235.844	-200.000	-0.022	0.115
-234.830	412.379	-0.210	0.441
-233.815	-14.773	-0.177	0.112
-232.800	-114.332	0.233	0.044
-231.786	-82.320	-0.397	0.128
-230.771	-65.304	-0.311	0.124
-229.757	375.231	0.168	0.339
-228.742	55.811	-0.066	-0.063
-227.727	42.605	0.068	0.061
-226.713	-116.373	0.121	-0.022
-225.698	-200.000	-0.011	-0.071
-224.684	262.190	0.013	0.023
-223.669	603.089	-0.147	0.362
-222.655	-200.000	0.033	0.328
-221.640	743.915	-0.081	0.217
-220.625	-154.605	-0.150	-0.010
-219.611	-61.095	-0.070	-0.029
-218.596	-200.000	-0.035	-0.187
-217.582	149.234	0.178	0.238
-216.567	-36.864	-0.157	0.083
-215.552	-200.000	-0.039	-0.193
-214.538	148.836	0.151	0.202
-213.523	800.000	-0.011	-0.044
-212.509	27.356	-0.219	0.182
-211.494	-84.970	0.059	-0.018
-210.479	-200.000	-0.024	-0.189
-209.465	800.000	0.087	0.273
-208.450	-200.000	0.001	-0.194
-207.436	-200.000	-0.019	0.189
-206.421	-113.127	0.162	-0.032
-205.406	-58.391	0.204	-0.088
-204.392	-43.040	-0.314	-0.157
-203.377	800.000	-0.029	0.122
-202.363	-63.934	0.072	-0.029
-201.348	-36.083	-0.098	-0.052
-200.333	-134.100	0.123	-0.015
-199.319	-82.580	-0.290	-0.093
-198.304	28.123	0.284	0.237
-197.290	800.000	-0.054	0.199
-196.275	800.000	-0.079	0.231
-195.260	-167.124	-0.201	-0.008
-194.246	800.000	0.081	-0.234
-193.231	-128.259	-0.235	-0.033
-192.217	-200.000	-0.011	-0.064
-191.202	204.917	0.131	-0.201
-190.187	95.123	-0.303	-0.341
-189.173	290.752	-0.103	0.185
-188.158	16.948	0.073	0.057
-187.144	-200.000	0.007	-0.091
-186.129	274.595	-0.173	-0.303
-185.114	800.000	-0.091	-0.393
-184.100	-2.229	0.172	0.119
-183.085	-200.000	-0.001	-0.332
-182.071	-142.626	0.214	-0.021
-181.056	198.489	-0.186	0.281
-180.042	12.912	-0.178	0.136
-179.027	136.829	-0.122	-0.158
-178.012	-200.000	-0.014	0.102
-176.998	447.838	-0.104	0.225
-175.983	-65.878	-0.091	0.036
-174.969	-15.939	-0.112	0.071
-173.954	178.055	-0.102	-0.146
-172.939	-200.000	0.004	0.055
-171.925	61.084	0.104	0.102
-170.910	47.649	-0.101	-0.093
-169.896	-169.659	-0.064	-0.002
-168.881	-200.000	-0.002	0.285
-167.866	135.487	0.132	-0.169
-166.852	-35.740	0.039	0.021
-165.837	367.436	0.079	-0.157
-164.823	-45.583	0.212	0.104
-163.808	-123.838	-0.183	-0.028
-162.793	162.903	0.164	0.227
-161.779	-66.959	0.184	-0.072
-160.764	380.316	0.152	0.308
-159.750	-147.186	0.174	-0.015
-158.735	27.572	0.282	-0.234
-157.720	800.000	-0.070	-0.218
-156.706	644.054	-0.117	0.294
-155.691	37.631	-0.111	-0.097
-154.677	280.526	0.188	0.332
-153.662	-200.000	0.003	-0.035
-152.647	-5.683	-0.426	-0.288
-151.633	-92.883	0.238	0.066
-150.618	73.066	0.166	-0.172
-149.604	800.000	0.060	0.192
-148.589	-51.307	-0.311	0.144
-147.574	-12.030	-0.056	0.036
-146.560	-200.000	-0.005	0.349
-145.545	299.712	0.144	-0.261
-144.531	32.122	0.208	-0.177
-143.516	-95.749	-0.165	0.043
-142.502	800.000	0.039	0.111
-141.487	30.723	-0.089	-0.075
-140.472	-95.509	0.205	-0.054
-139.458	-119.107	-0.294	-0.051
-138.443	800.000	0.119	0.330
-137.429	-200.000	0.057	0.294
-136.414	87.197	0.143	0.156
-135.399	-44.321	-0.179	-0.088
-134.385	-4.796	-0.160	0.109
-133.370	-58.959	0.416	0.177
-132.356	-32.635	-0.189	-0.103
-131.341	-155.325	0.170	-0.011
-130.326	-200.000	-0.025	0.166
-129.312	-63.967	-0.192	-0.077
-128.297	-200.000	-0.022	0.099
-127.283	346.275	0.107	-0.208
-126.268	-71.011	0.128	0.047
-125.253	-200.000	0.023	-0.644
-124.239	688.883	-0.143	-0.367
-123.224	-179.987	0.095	-0.002
-122.210	-38.382	0.181	0.094
-121.195	68.956	0.060	-0.060
-120.180	494.797	-0.082	-0.186
-119.166	15.807	0.167	0.130
-118.151	560.457	0.136	0.325
-117.137	170.901	0.258	0.365
-116.122	-131.766	0.263	0.034
-115.107	112.312	0.038	-0.045
-114.093	30.872	0.089	0.075
-113.078	115.217	-0.070	-0.084
-112.064	-130.413	0.209	0.028
-111.049	163.177	0.038	-0.053
-110.034	151.139	0.071	0.095
-109.020	-200.000	-0.028	-0.142
-108.005	-95.160	0.334	-0.089
-106.991	-103.107	0.110	-0.026
-105.976	-77.722	0.205	0.070
-104.962	44.352	0.229	-0.207
-103.947	-87.029	0.020	-0.006
-102.932	-81.592	-0.152	-0.049
-101.918	-71.117	0.151	0.056
-100.903	49.752	-0.097	-0.090
-99.889	691.643	0.037	-0.097
-98.874	-200.000	0.008	-0.036
-97.859	800.000	0.075	0.208
-96.845	-27.789	0.167	-0.095
-95.830	-29.645	0.302	0.170
-94.816	-200.000	0.038	-0.223
-93.801	-92.292	-0.165	-0.046
-92.786	-21.630	-0.113	-0.068
-91.772	-169.112	0.067	0.002
-90.757	-5.537	-0.140	0.094
-89.743	198.639	0.141	0.213
-88.728	-154.953	-0.201	-0.013
-87.713	-44.430	0.165	0.081
-86.699	-142.312	-0.201	0.020
-85.684	127.171	0.192	0.239
-84.670	751.224	0.120	0.319
-83.655	99.070	0.239	0.272
-82.640	209.097	-0.014	0.022
-81.626	-87.027	0.186	-0.056
-80.611	94.158	0.183	-0.204
-79.597	155.475	0.140	-0.190
-78.582	-115.438	0.360	-0.067
-77.567	-45.983	0.108	0.052
-76.553	-200.000	0.073	0.467
-75.538	158.268	-0.107	0.147
-74.524	-73.343	0.102	0.037
-73.509	-74.989	-0.084	-0.030
-72.494	47.954	0.291	-0.268
-71.480	52.922	0.106	0.099
-70.465	-200.000	0.025	0.229
-69.451	36.313	-0.165	-0.143
-68.436	-175.516	0.209	0.006
-67.422	-83.374	-0.188	0.059
-66.407	41.367	0.129	-0.115
-65.392	186.748	0.189	-0.276
-64.378	324.379	0.254	0.477
-63.363	98.763	0.151	0.172
-62.349	667.763	-0.046	0.117
-61.334	401.572	-0.504	-1.041
-60.319	-27.430	0.658	0.376
-59.305	730.036	-0.387	-1.017
-58.290	240.172	0.587	0.961
-57.276	560.000	0.675	1.603
-56.261	-200.000	100.046	592.502
-55.246	561.411	1428.874	3394.916
-54.232	185.779	2631.608	3843.098
-53.217	117.742	2166.478	2620.979
-52.203	42.898	1607.939	1440.137
-51.188	34.084	1339.984	1147.242
-50.173	30.902	1297.377	1092.101
-49.159	54.699	1348.047	1277.414
-48.144	55.797	1364.336	1299.347
-47.130	34.307	1321.227	1132.329
-46.115	30.690	1304.212	1096.432
-45.100	30.489	1298.986	1090.816
-44.086	30.483	1296.205	1088.399
-43.071	30.410	1294.046	1086.116
-42.057	30.373	1291.969	1084.115
-41.042	30.456	1290.551	1083.368
-40.027	30.431	1288.865	1081.763
-39.013	30.451	1287.275	1080.504
-37.998	30.559	1285.179	1079.330
-36.984	30.437	1283.630	1077.278
-35.969	30.625	1281.655	1076.666
-34.954	30.479	1280.064	1074.443
-33.940	30.618	1278.862	1074.191
-32.925	30.544	1277.962	1072.965
-31.911	30.657	1276.174	1072.075
-30.896	30.514	1275.303	1070.474
-29.881	30.681	1273.555	1069.925
-28.867	30.667	1272.001	1068.498
-27.852	30.782	1270.572	1067.918
-26.838	30.630	1269.666	1066.241
-25.823	30.770	1267.977	1065.582
-24.809	30.577	1266.532	1063.219
-23.794	30.684	1265.528	1062.950
-22.779	30.667	1264.091	1061.600
-21.765	30.504	1263.496	1060.129
-20.750	30.574	1261.696	1058.975
-19.736	30.561	1260.058	1057.483
-18.721	30.488	1258.874	1056.036
-17.706	30.493	1257.742	1055.069
-16.692	30.474	1256.756	1054.097
-15.677	30.443	1255.615	1052.921
-14.663	30.516	1254.278	1052.170
-13.648	30.601	1253.085	1051.607
-12.633	30.429	1252.821	1050.373
-11.619	30.423	1252.008	1049.617
-10.604	30.507	1251.099	1049.284
-9.590	30.469	1249.803	1047.944
-8.575	30.539	1248.671	1047.349
-7.560	30.442	1247.705	1045.950
-6.546	30.558	1246.678	1045.700
-5.531	30.454	1245.947	1044.463
-4.517	30.444	1245.253	1043.779
-3.502	30.451	1244.889	1043.470
-2.487	30.390	1244.118	1042.444
-1.473	30.475	1240.218	1039.609
-0.458	29.424	1225.423	1021.354
0.556	27.974	1207.840	984.675
1.571	24.208	1213.351	968.647
2.586	23.051	1228.091	973.959
3.600	21.929	1215.566	957.818
4.615	16.642	1144.291	874.340
5.629	8.648	1070.655	779.217
6.644	4.849	1051.701	747.158
7.659	4.472	1049.394	743.646
8.673	4.350	1047.969	741.990
9.688	4.360	1046.499	740.928
10.702	4.826	1045.336	742.261
11.717	10.206	1052.346	772.930
12.731	18.249	1063.958	820.090
13.746	21.794	1067.721	839.934
14.761	21.975	1066.996	840.153
15.775	21.038	1065.887	834.727
16.790	20.121	1063.627	828.500
17.804	19.469	1062.242	824.234
18.819	19.306	1061.047	822.457
19.834	19.159	1060.564	821.311
20.848	19.145	1059.747	820.536
21.863	18.939	1058.948	818.866
22.877	18.782	1058.306	817.549
23.892	18.735	1057.605	816.709
24.907	18.678	1056.788	815.735
25.921	18.694	1055.669	814.878
26.936	18.675	1054.127	813.523
27.950	18.637	1053.134	812.506
28.965	18.861	1051.669	812.361
29.980	19.051	1050.339	812.162
30.994	19.047	1049.394	811.338
32.009	18.929	1049.183	810.548
33.023	19.072	1047.392	809.763
34.038	18.906	1046.999	808.610
35.053	18.741	1045.608	806.686
36.067	18.694	1044.792	805.769
37.082	18.778	1043.932	805.427
38.096	18.920	1043.552	805.730
39.111	18.966	1042.694	805.208
40.126	18.850	1040.883	803.196
41.140	18.583	1039.280	800.641
42.155	18.393	1037.970	798.679
43.169	18.278	1037.114	797.413
44.184	18.269	1036.328	796.694
45.199	18.340	1035.277	796.148
46.213	18.518	1034.162	796.046
47.228	18.784	1033.786	796.918
48.242	18.848	1032.853	796.425
49.257	18.766	1031.871	795.221
50.271	18.878	1030.997	794.997
51.286	18.911	1030.236	794.489
52.301	18.818	1029.262	793.240
53.315	18.633	1028.163	791.468
54.330	18.414	1027.680	790.015
55.344	18.547	1025.916	789.203
56.359	18.641	1024.954	788.825
57.374	18.439	1024.613	787.566
58.388	18.285	1023.900	786.241
59.403	18.373	1022.600	785.576
60.417	18.257	1022.243	784.698
61.432	18.324	1021.193	784.131
62.447	18.185	1020.539	782.922
63.461	18.219	1019.611	782.299
64.476	18.187	1018.706	781.386
65.490	18.074	1018.160	780.383
66.505	18.256	1017.632	780.741
67.520	18.156	1016.357	779.235
68.534	18.165	1015.949	778.897
69.549	18.076	1015.283	777.912
70.563	18.119	1014.165	777.181
71.578	17.968	1013.075	775.592
72.593	17.835	1012.864	774.758
73.607	17.848	1012.404	774.398
74.622	17.875	1011.724	773.930
75.636	17.833	1011.335	773.374
76.651	18.028	1010.428	773.495
77.666	18.140	1010.045	773.639
78.680	18.020	1009.072	772.285
79.695	18.050	1008.486	771.904
80.709	18.243	1007.786	772.172
81.724	18.455	1007.169	772.585
82.739	18.488	1007.046	772.572
83.753	18.719	1006.392	773.041
84.768	19.105	1005.362	773.919
85.782	19.076	1004.640	773.162
86.797	19.087	1003.590	772.337
87.812	18.882	1002.657	770.632
88.826	18.950	1001.568	770.030
89.841	19.017	1000.884	769.734
90.855	19.090	1000.041	769.347
91.870	18.945	999.409	768.143
92.884	19.080	998.102	767.674
93.899	19.027	997.319	766.765
94.914	19.007	996.803	766.215
95.928	18.974	996.007	765.387
96.943	18.999	994.597	764.347
97.957	18.773	994.368	763.099
98.972	18.886	993.376	762.770
99.987	18.911	992.388	762.056
101.001	18.865	991.416	761.041
102.016	18.812	990.484	760.021
103.030	18.995	989.899	760.317
104.045	18.916	989.342	759.469
105.060	18.914	988.077	758.422
106.074	18.466	986.879	755.463
107.089	18.416	985.342	753.998
108.103	18.263	984.724	752.785
109.118	18.197	983.932	751.823
110.133	18.240	982.655	750.970
111.147	18.238	981.828	750.261
112.162	18.226	981.436	749.843
113.176	18.382	980.665	749.873
114.191	18.422	980.106	749.555
115.206	18.504	979.188	749.146
116.220	18.318	978.337	747.614
117.235	18.331	977.122	746.678
118.249	18.371	976.252	746.121
119.264	18.285	975.692	745.251
120.279	18.084	974.977	743.766
121.293	18.015	974.191	742.800
122.308	18.031	973.334	742.150
123.322	17.957	972.138	740.853
124.337	17.915	971.410	740.050
125.352	17.956	970.356	739.358
126.366	17.936	969.175	738.306
127.381	18.013	968.247	737.869
128.395	17.907	967.801	737.003
129.410	18.091	966.568	736.792
130.424	18.364	965.656	737.206
131.439	18.323	965.185	736.608
132.454	18.302	964.916	736.244
133.468	18.425	963.879	735.918
134.483	18.513	963.126	735.655
135.497	18.398	962.397	734.540
136.512	18.451	961.411	733.952
137.527	18.541	960.807	733.811
138.541	18.508	960.062	733.036
139.556	18.530	959.886	732.930
140.570	18.686	958.779	732.683
141.585	18.876	958.237	733.016
142.600	18.822	957.239	731.959
143.614	19.043	956.556	732.313
144.629	19.059	956.196	732.041
145.643	18.966	954.935	730.613
146.658	18.805	953.460	728.739
147.673	18.561	952.536	726.933
148.687	18.513	951.792	726.099
149.702	18.454	950.524	724.818
150.716	18.447	950.011	724.331
151.731	18.430	949.345	723.689
152.746	18.527	948.630	723.490
153.760	18.506	948.447	723.197
154.775	18.719	947.471	723.287
155.789	18.774	947.157	723.214
156.804	18.771	946.649	722.748
157.819	18.801	945.864	722.212
158.833	18.994	945.014	722.310
159.848	19.189	943.976	722.271
160.862	18.904	943.225	720.435
161.877	18.717	941.527	718.292
162.892	18.463	940.519	716.398
163.906	18.434	939.849	715.706
164.921	18.326	939.278	714.755
165.935	18.546	938.489	715.008
166.950	18.663	937.347	714.565
167.964	18.607	936.666	713.747
168.979	18.469	935.744	712.411
169.994	18.605	934.458	711.933
171.008	18.690	934.295	712.095
172.023	18.881	933.872	712.504
173.037	19.008	932.827	712.168
174.052	18.948	932.005	711.232
175.067	18.509	931.606	709.046
176.081	18.524	930.459	708.173
177.096	18.338	930.269	707.199
178.110	18.571	929.600	707.589
179.125	18.624	928.991	707.280
180.140	18.624	928.618	706.933
181.154	18.915	928.108	707.680
182.169	18.985	928.075	707.881
183.183	18.923	927.414	707.059
184.198	19.021	926.391	706.620
185.213	18.973	925.863	705.958
186.227	19.144	924.906	705.867
187.242	19.108	924.529	705.370
188.256	19.268	923.991	705.550
189.271	19.108	923.618	704.549
190.286	18.934	922.143	702.652
191.300	18.558	920.657	699.922
192.315	18.470	920.037	699.030
193.329	18.503	919.799	698.920
194.344	18.699	919.331	699.305
195.359	18.792	918.828	699.237
196.373	18.954	918.414	699.517
197.388	19.136	918.036	699.908
198.402	19.308	917.643	700.247
199.417	19.332	917.472	700.152
200.432	19.461	916.697	700.023
201.446	19.450	916.398	699.688
202.461	19.533	915.967	699.634
203.475	19.562	914.886	698.863
204.490	19.231	914.195	696.932
205.504	19.117	913.323	695.745
206.519	19.000	912.605	694.665
207.534	19.064	911.917	694.339
208.548	19.070	911.218	693.768
209.563	19.100	910.613	693.368
210.577	19.228	909.750	693.164
211.592	19.375	909.446	693.461
212.607	19.408	908.990	693.187
213.621	19.337	908.095	692.158
214.636	19.342	907.101	691.360
215.650	19.422	906.473	691.140
216.665	19.514	905.693	690.852
217.680	19.538	905.423	690.680
218.694	19.640	904.577	690.380
219.709	19.506	904.343	689.608
220.723	19.453	903.345	688.574
221.738	19.377	902.419	687.504
222.753	19.421	902.051	687.337
223.767	19.554	901.870	687.669
224.782	19.641	901.115	687.377
225.796	19.781	900.497	687.403
226.811	19.679	899.734	686.353
227.826	19.412	898.841	684.554
228.840	19.452	898.071	684.063
229.855	19.314	897.500	683.021
230.869	19.462	896.493	682.783
231.884	19.300	896.035	681.731
232.899	19.198	895.238	680.661
233.913	19.159	894.576	679.944
234.928	19.226	893.747	679.517
235.942	19.217	892.943	678.812
236.957	19.221	892.600	678.506
237.972	19.107	892.428	677.867
238.986	19.265	891.446	677.681
240.001	19.340	890.831	677.448
241.015	19.269	890.230	676.651
242.030	19.412	889.987	676.972
243.045	19.477	889.476	676.776
244.059	19.531	888.610	676.269
245.074	19.573	888.106	675.988
246.088	19.545	887.751	675.550
247.103	19.748	887.039	675.742
248.117	19.874	886.752	675.956
249.132	20.165	886.426	676.785
250.147	20.359	885.857	677.047
251.161	20.439	885.333	676.897
252.176	20.295	884.821	675.886
253.190	20.394	884.338	675.842
254.205	20.496	883.641	675.647
255.220	20.420	883.209	674.960
256.234	20.502	882.102	674.372
257.249	20.393	881.359	673.321
258.263	20.273	880.843	672.405
259.278	20.253	880.220	671.792
260.293	20.440	879.917	672.223
261.307	20.536	879.376	672.123
262.322	20.438	879.076	671.456
263.336	20.566	878.021	671.084
264.351	20.647	877.028	670.580
265.366	20.592	876.690	670.048
266.380	20.612	875.940	669.494
267.395	20.333	875.227	667.815
268.409	20.204	874.796	666.933
269.424	20.299	873.911	666.562
270.439	20.172	873.199	665.475
271.453	20.088	872.674	664.693
272.468	20.149	872.105	664.435
273.482	20.123	871.717	663.981
274.497	20.134	870.850	663.301
275.512	20.221	870.446	663.269
276.526	20.250	869.687	662.744
277.541	20.210	869.655	662.506
278.555	20.463	869.056	662.956
279.570	20.703	868.408	663.322
280.585	20.529	867.938	662.239
281.599	20.397	866.778	660.794
282.614	20.305	865.942	659.749
283.628	20.391	865.302	659.527
284.643	20.400	864.515	658.904
285.657	20.296	864.329	658.311
286.672	20.462	863.545	658.284
287.687	20.520	862.731	657.823
288.701	20.397	862.298	656.970
289.716	20.501	861.755	656.894
290.730	20.537	861.449	656.739
291.745	20.536	860.711	656.113
292.760	20.658	860.192	656.120
293.774	20.894	859.646	656.535
294.789	20.661	859.108	655.189
295.803	20.530	858.357	654.063
296.818	20.207	857.820	652.381
297.833	20.439	856.627	652.289
298.847	20.488	856.472	652.297
299.862	20.498	856.077	651.976
300.876	20.608	855.608	651.972
301.891	20.858	855.005	652.393
302.906	20.816	854.739	651.973
303.920	21.109	854.141	652.558
304.935	21.179	853.499	652.271
305.949	20.906	852.923	650.751
306.964	20.739	852.382	649.658
307.979	20.782	851.908	649.399
308.993	21.012	851.059	649.551
310.008	21.013	850.671	649.202
311.022	20.927	849.960	648.284
312.037	20.820	849.350	647.360
313.052	20.542	848.590	645.695
314.066	20.491	847.963	644.971
315.081	20.557	847.514	644.817
316.095	20.539	846.919	644.240
317.110	20.511	846.255	643.574
318.125	20.570	845.527	643.181
319.139	20.495	844.976	642.427
320.154	20.537	844.966	642.518
321.168	20.613	844.453	642.354
322.183	20.705	843.629	642.009
323.197	20.784	843.661	642.267
324.212	20.645	842.788	641.033
325.227	20.697	842.319	640.813
326.241	20.633	841.651	640.010
327.256	20.539	841.049	639.150
328.270	20.547	840.359	638.598
329.285	20.586	840.048	638.448
330.300	20.624	839.020	637.751
331.314	20.707	838.442	637.562
332.329	20.796	838.940	638.207
333.343	20.928	838.173	638.052
334.358	20.904	837.878	637.682
335.373	20.975	837.177	637.354
336.387	20.981	836.915	637.118
337.402	20.999	836.893	637.110
338.416	21.183	836.425	637.370
339.431	21.170	836.371	637.227
340.446	21.346	835.957	637.495
341.460	21.393	835.778	637.474
342.475	21.508	835.369	637.524
343.489	21.507	834.798	637.028
344.504	21.598	834.384	636.987
345.519	21.770	833.768	637.085
346.533	21.529	833.247	635.754
347.548	21.367	832.414	634.477
348.562	21.191	831.784	633.302
349.577	21.173	831.001	632.586
350.592	20.859	830.410	630.943
351.606	20.949	829.695	630.668
352.621	20.981	829.237	630.379
353.635	21.110	828.648	630.343
354.650	21.294	827.609	630.160
355.665	21.268	827.308	629.783
356.679	21.248	827.054	629.461
357.694	21.364	826.090	629.088
358.708	21.428	825.291	628.656
359.723	21.287	824.660	627.610
360.738	21.227	824.153	626.956
361.752	21.407	824.024	627.448
362.767	21.643	823.332	627.710
363.781	21.701	823.029	627.632
364.796	21.610	823.335	627.484
365.810	21.923	822.650	628.026
366.825	21.968	822.158	627.758
367.840	21.939	821.227	626.888
368.854	21.798	820.663	625.896
369.869	21.634	820.311	624.988
370.883	21.725	819.993	625.014
371.898	21.788	819.661	624.931
372.913	21.834	819.268	624.739
373.927	21.663	819.037	623.899
374.942	21.727	818.379	623.572
375.956	21.916	818.049	623.936
376.971	22.010	817.276	623.626
377.986	22.029	817.162	623.552
379.000	22.132	816.846	623.618
380.015	22.026	815.831	622.414
381.029	22.025	815.448	622.065
382.044	22.024	814.920	621.604
383.059	22.059	814.345	621.233
384.073	21.923	813.645	620.162
385.088	21.828	812.932	619.230
386.102	21.836	812.155	618.610
387.117	21.712	811.700	617.772
388.132	21.734	811.319	617.506
389.146	21.660	810.754	616.762
390.161	21.878	810.703	617.435
391.175	22.002	809.831	617.149
392.190	21.753	809.095	615.662
393.205	21.762	808.563	615.235
394.219	21.784	808.392	615.125
395.234	21.595	808.015	614.120
396.248	21.517	807.397	613.326
397.263	21.620	806.800	613.176
398.278	21.530	806.386	612.493
399.292	21.559	806.150	612.360
400.307	21.576	805.538	611.901
401.321	21.670	805.196	611.914
402.336	21.643	804.947	611.578
403.350	21.695	804.457	611.334
404.365	21.848	804.370	611.748
405.380	22.124	803.582	612.055
406.394	22.289	803.016	612.145
407.409	22.263	802.677	611.739
408.423	22.364	802.866	612.183
409.438	22.503	802.025	611.969
410.453	22.472	801.639	611.515
411.467	22.482	801.559	611.434
412.482	22.568	800.953	611.216
413.496	22.594	800.663	611.029
414.511	22.520	800.422	610.534
415.526	22.415	799.964	609.768
416.540	22.313	799.492	609.002
417.555	22.429	798.644	608.705
418.569	22.467	798.221	608.456
419.584	22.477	797.864	608.167
420.599	22.576	797.570	608.230
421.613	163.775	1369.335	1795.856
422.628	142.230	1452.634	1795.962
