DTS Sentinel unit serial number:	SN413079Multiplexer serial number:	ORYXHardware model number:	OX4-SRSoftware version number:	ORYX F/W v4.00 Oryx Data Collector v3.7.2.0data status	okinstallation	princeton_trtdifferential loss correction	single-endedforward channel	channel 1reverse channel	N/Adate	2019/09/18time	08:02:35forward acquisition time	60.00reverse acquisition time	0.00gamma	496.2192k internal	0.2338k external	0.2338temperature offset calibration	0.9975default loss term (dB/km)	0.3790temperature slope calibration	1.0000multiplexer offset coefficient	1.0000multiplexer slope coefficient	1.0000fibre end	0.00T internal ref (°C)	23.64T ext. ref 1 (°C)	0.21T ext. ref 2 (°C)	19.34length (m)	temperature (°C)	Stokes	anti-Stokes-747.200	504.551	-0.077	-0.179
-746.185	344.285	-0.223	0.439
-745.171	98.793	-0.026	-0.030
-744.156	20.582	-0.065	0.052
-743.142	-60.715	-0.107	0.045
-742.127	-50.031	0.152	0.072
-741.112	76.409	0.176	0.187
-740.098	-61.173	-0.040	0.017
-739.083	-141.113	0.245	-0.025
-738.069	-99.326	-0.564	0.143
-737.054	-200.000	-0.070	-0.376
-736.039	102.220	-0.051	0.060
-735.025	800.000	0.053	-0.165
-734.010	-200.000	-0.022	-0.307
-732.996	-200.000	0.081	-0.389
-731.981	492.876	-0.197	-0.452
-730.966	481.675	-0.063	-0.142
-729.952	101.396	-0.176	0.206
-728.937	-200.000	0.001	-0.143
-727.923	673.138	-0.022	0.057
-726.908	-200.000	-0.013	-0.189
-725.894	-200.000	-0.084	-0.564
-724.879	220.568	-0.151	-0.242
-723.864	-133.914	-0.149	0.019
-722.850	189.071	0.092	0.139
-721.835	371.367	-0.112	0.227
-720.821	71.716	-0.065	-0.068
-719.806	-200.000	-0.021	-0.116
-718.791	-111.238	-0.208	-0.043
-717.777	351.814	0.068	-0.135
-716.762	-5.595	-0.254	-0.175
-715.748	258.010	0.153	0.264
-714.733	-200.000	-0.010	-0.181
-713.718	-41.412	-0.408	0.211
-712.704	-117.610	0.100	-0.018
-711.689	-200.000	-0.005	-0.140
-710.675	-200.000	-0.033	0.194
-709.660	-89.693	-0.095	-0.028
-708.645	-133.011	0.223	-0.028
-707.631	-105.213	-0.362	0.083
-706.616	47.236	0.139	-0.130
-705.602	-27.029	-0.096	-0.056
-704.587	143.443	-0.122	-0.163
-703.572	800.000	-0.007	-0.029
-702.558	112.919	-0.124	0.151
-701.543	74.900	-0.128	0.135
-700.529	182.169	0.059	0.087
-699.514	29.324	0.048	-0.041
-698.499	-31.164	-0.398	-0.225
-697.485	-41.045	-0.515	-0.267
-696.470	-50.538	-0.272	0.129
-695.456	-200.000	0.023	-0.248
-694.441	395.759	-0.157	-0.327
-693.426	-7.486	-0.148	0.101
-692.412	-73.662	0.172	-0.063
-691.397	-200.000	0.008	0.208
-690.383	72.553	-0.147	0.154
-689.368	-22.439	0.397	-0.240
-688.354	-200.000	0.024	0.195
-687.339	210.896	-0.129	0.203
-686.324	-200.000	-0.042	0.234
-685.310	79.990	-0.204	-0.220
-684.295	34.154	0.241	-0.211
-683.281	258.313	-0.281	-0.485
-682.266	800.000	-0.026	0.093
-681.251	108.085	0.066	0.079
-680.237	67.957	-0.202	-0.207
-679.222	-200.000	-0.032	0.268
-678.208	742.844	0.104	0.279
-677.193	-113.954	0.203	0.039
-676.178	-5.519	-0.286	0.196
-675.164	800.000	0.017	0.053
-674.149	-138.229	0.410	0.045
-673.135	324.204	-0.120	0.230
-672.120	22.478	-0.179	-0.146
-671.105	131.946	-0.233	-0.300
-670.091	-20.541	0.191	-0.117
-669.076	-136.259	-0.096	0.011
-668.062	-24.097	-0.120	0.072
-667.047	-98.248	-0.339	-0.087
-666.032	-30.317	-0.040	0.023
-665.018	-28.044	0.206	0.119
-664.003	-200.000	0.015	-0.281
-662.989	74.479	-0.175	-0.184
-661.974	140.348	0.036	0.047
-660.959	198.298	0.053	0.081
-659.945	800.000	0.051	0.141
-658.930	-35.396	0.281	-0.153
-657.916	5.619	0.190	0.141
-656.901	-11.036	-0.244	-0.161
-655.886	-200.000	0.034	0.185
-654.872	-119.145	-0.166	-0.029
-653.857	-5.885	-0.158	-0.108
-652.843	5.466	0.116	-0.086
-651.828	-2.577	0.060	-0.042
-650.814	-41.791	-0.154	-0.079
-649.799	-105.231	0.315	-0.072
-648.784	-70.081	-0.057	0.022
-647.770	800.000	0.044	-0.170
-646.755	28.851	-0.040	0.034
-645.741	-144.893	-0.238	-0.022
-644.726	54.826	0.114	-0.110
-643.711	61.889	0.268	0.267
-642.697	800.000	-0.066	0.228
-641.682	-157.182	-0.265	-0.016
-640.668	5.139	0.202	0.149
-639.653	168.218	-0.093	-0.132
-638.638	-66.394	0.213	0.085
-637.624	-9.420	0.213	0.142
-636.609	800.000	-0.050	0.201
-635.595	27.873	0.319	0.269
-634.580	-118.629	0.132	-0.023
-633.565	213.105	-0.026	0.041
-632.551	17.934	-0.110	-0.088
-631.536	-14.533	0.434	-0.279
-630.522	-43.359	-0.263	0.133
-629.507	-200.000	-0.038	-0.305
-628.492	-101.353	0.148	0.036
-627.478	-186.832	-0.348	0.005
-626.463	-106.037	-0.262	0.059
-625.449	-138.713	0.215	-0.024
-624.434	308.078	0.111	-0.206
-623.419	206.519	-0.198	-0.308
-622.405	194.194	0.029	-0.043
-621.390	-60.623	-0.512	-0.217
-620.376	-200.000	-0.067	0.383
-619.361	800.000	0.090	0.325
-618.346	800.000	0.127	0.545
-617.332	34.236	0.259	0.226
-616.317	503.991	0.044	0.103
-615.303	310.910	-0.182	-0.340
-614.288	-57.828	-0.148	0.064
-613.273	-6.767	-0.213	-0.145
-612.259	293.137	-0.086	0.156
-611.244	-35.986	-0.259	0.140
-610.230	800.000	0.054	0.232
-609.215	467.730	-0.222	0.497
-608.201	800.000	0.044	-0.141
-607.186	-20.184	-0.050	-0.031
-606.171	-200.000	0.039	-0.275
-605.157	-200.000	-0.042	-0.499
-604.142	334.440	0.085	-0.164
-603.128	-23.564	0.100	0.060
-602.113	-120.661	-0.115	0.019
-601.098	19.631	0.154	0.124
-600.084	-200.000	0.046	-0.306
-599.069	147.547	0.067	0.090
-598.055	119.273	-0.038	0.046
-597.040	29.931	0.295	-0.251
-596.025	22.306	-0.050	0.041
-595.011	-200.000	-0.023	0.323
-593.996	800.000	0.037	0.116
-592.982	-200.000	0.014	-0.116
-591.967	-175.362	-0.414	-0.011
-590.952	35.442	-0.148	-0.130
-589.938	149.364	-0.214	-0.288
-588.923	29.962	0.253	-0.215
-587.909	-14.945	0.148	-0.095
-586.894	40.468	-0.321	-0.289
-585.879	-112.127	-0.341	-0.068
-584.865	23.924	-0.110	-0.090
-583.850	-108.188	-0.413	0.089
-582.836	-195.899	-0.216	-0.002
-581.821	-200.000	0.025	-0.145
-580.806	494.926	-0.112	-0.257
-579.792	-108.115	-0.195	0.042
-578.777	-82.199	-0.256	0.083
-577.763	59.446	0.129	-0.127
-576.748	197.659	0.052	0.080
-575.733	399.747	0.148	0.309
-574.719	-23.447	0.137	0.082
-573.704	688.079	0.132	0.343
-572.690	-87.835	-0.174	0.052
-571.675	800.000	0.029	-0.117
-570.661	25.714	-0.220	-0.183
-569.646	38.059	0.247	0.219
-568.631	-200.000	-0.023	0.185
-567.617	1.740	0.199	-0.143
-566.602	-120.024	-0.217	-0.037
-565.588	-65.507	-0.146	0.058
-564.573	-200.000	0.068	0.322
-563.558	-76.715	-0.054	-0.019
-562.544	92.936	0.233	-0.263
-561.529	-56.845	-0.321	-0.141
-560.515	800.000	0.051	0.184
-559.500	-76.573	-0.034	-0.012
-558.485	67.653	0.135	-0.138
-557.471	59.867	0.192	-0.189
-556.456	489.800	0.184	-0.419
-555.442	800.000	0.049	0.180
-554.427	-200.000	0.026	0.214
-553.412	-68.234	0.383	0.149
-552.398	80.041	0.233	-0.250
-551.383	699.494	0.040	0.106
-550.369	-200.000	-0.019	-0.123
-549.354	212.523	0.037	-0.058
-548.339	-200.000	-0.002	-0.010
-547.325	62.149	-0.183	-0.182
-546.310	-200.000	-0.013	-0.101
-545.296	-200.000	0.018	0.105
-544.281	-6.968	0.111	-0.075
-543.266	46.156	0.199	-0.183
-542.252	275.157	0.129	-0.228
-541.237	-97.533	0.163	-0.042
-540.223	-179.815	0.169	-0.004
-539.208	-200.000	0.003	-0.273
-538.193	13.122	0.111	-0.086
-537.179	-200.000	0.004	-0.048
-536.164	-200.000	-0.010	-0.086
-535.150	-157.055	-0.391	0.024
-534.135	38.590	0.406	-0.360
-533.121	-132.100	-0.229	-0.030
-532.106	-112.841	0.064	0.013
-531.091	-143.629	0.201	0.019
-530.077	-200.000	-0.040	0.176
-529.062	-83.479	-0.189	0.060
-528.048	-46.161	0.092	-0.045
-527.033	154.632	0.035	0.048
-526.018	-38.688	0.057	0.030
-525.004	422.358	-0.122	-0.260
-523.989	-93.985	0.518	-0.141
-522.975	-50.566	0.134	0.063
-521.960	225.224	0.143	-0.231
-520.945	-59.625	0.087	0.037
-519.931	185.934	-0.172	0.254
-518.916	-48.041	0.271	-0.130
-517.902	2.077	-0.138	0.099
-516.887	-200.000	-0.019	-0.130
-515.872	723.820	-0.044	-0.117
-514.858	-46.085	-0.118	0.058
-513.843	80.555	0.173	-0.185
-512.829	1.066	-0.143	0.102
-511.814	-61.093	0.195	0.082
-510.799	-9.246	-0.091	0.060
-509.785	25.932	0.371	-0.308
-508.770	-24.485	0.032	0.019
-507.756	800.000	0.084	-0.340
-506.741	-151.543	0.250	0.018
-505.726	-130.206	0.237	-0.032
-504.712	-200.000	0.102	0.446
-503.697	-130.286	-0.250	-0.034
-502.683	-143.490	0.279	-0.026
-501.668	286.753	0.062	0.112
-500.653	-200.000	-0.062	0.278
-499.639	-200.000	0.007	0.284
-498.624	67.677	0.042	0.042
-497.610	263.100	-0.036	0.062
-496.595	-8.307	0.168	-0.113
-495.581	11.260	0.085	0.064
-494.566	220.330	-0.219	0.349
-493.551	-72.261	-0.115	-0.042
-492.537	-0.128	-0.316	-0.224
-491.522	-200.000	0.045	-0.274
-490.508	-96.372	-0.368	-0.097
-489.493	168.977	0.104	-0.147
-488.478	800.000	-0.023	-0.100
-487.464	476.534	0.023	0.051
-486.449	28.776	-0.141	-0.118
-485.435	618.201	0.056	-0.139
-484.420	800.000	-0.020	0.065
-483.405	22.377	-0.081	0.065
-482.391	-48.492	0.266	0.127
-481.376	-95.893	-0.367	0.097
-480.362	40.275	0.205	-0.183
-479.347	-200.000	0.044	0.280
-478.332	320.561	0.056	0.106
-477.318	-43.862	0.134	-0.067
-476.303	434.250	0.076	-0.164
-475.289	-41.077	0.286	0.146
-474.274	-31.471	-0.306	0.171
-473.259	-61.231	0.049	-0.020
-472.245	373.189	0.055	0.110
-471.230	41.672	0.191	0.172
-470.216	-117.408	0.248	0.045
-469.201	674.009	0.101	-0.259
-468.186	-200.000	-0.028	-0.314
-467.172	800.000	-0.093	0.385
-466.157	800.000	0.036	-0.151
-465.143	161.796	-0.018	0.025
-464.128	30.661	-0.029	0.025
-463.113	-152.186	0.488	-0.035
-462.099	268.870	0.024	0.042
-461.084	-8.867	-0.333	0.222
-460.070	-200.000	-0.048	-0.257
-459.055	125.211	-0.153	0.191
-458.040	543.123	0.129	-0.306
-457.026	-12.459	-0.196	-0.127
-456.011	-200.000	0.044	0.351
-454.997	-124.714	0.152	0.023
-453.982	-76.507	-0.007	-0.002
-452.968	-99.434	0.081	0.020
-451.953	-119.829	-0.238	0.041
-450.938	-84.003	0.180	-0.057
-449.924	800.000	-0.035	-0.148
-448.909	-100.602	-0.127	0.031
-447.895	-20.889	-0.142	-0.086
-446.880	28.830	-0.057	0.048
-445.865	800.000	-0.018	0.073
-444.851	-79.497	-0.419	-0.140
-443.836	-112.164	-0.366	-0.073
-442.822	-68.774	-0.351	0.135
-441.807	-84.375	0.169	0.053
-440.792	-156.686	-0.280	0.017
-439.778	-85.519	-0.351	0.108
-438.763	800.000	-0.029	0.094
-437.749	-103.074	-0.163	0.038
-436.734	112.526	-0.088	-0.106
-435.719	129.278	0.199	-0.252
-434.705	-7.721	-0.526	0.352
-433.690	13.641	-0.171	0.132
-432.676	-189.294	-0.098	0.001
-431.661	100.812	0.061	0.070
-430.646	-130.949	0.184	0.024
-429.632	-200.000	-0.027	0.162
-428.617	-200.000	0.024	0.191
-427.603	-200.000	0.028	-0.129
-426.588	-32.502	-0.254	-0.140
-425.573	54.339	0.252	0.241
-424.559	-49.118	-0.098	0.047
-423.544	-200.000	0.010	-0.170
-422.530	91.852	-0.072	-0.080
-421.515	-200.000	0.008	-0.044
-420.500	-18.136	0.157	-0.098
-419.486	-124.441	-0.187	-0.029
-418.471	800.000	0.060	0.225
-417.457	36.748	-0.190	0.167
-416.442	-3.313	-0.147	0.101
-415.428	-200.000	-0.050	0.262
-414.413	800.000	-0.111	0.331
-413.398	-141.645	0.243	0.024
-412.384	25.766	-0.330	0.272
-411.369	446.438	-0.032	-0.069
-410.355	-200.000	-0.004	0.624
-409.340	22.192	-0.254	-0.206
-408.325	-200.000	-0.357	-0.002
-407.311	-200.000	-0.121	0.543
-406.296	-200.000	-0.015	-0.315
-405.282	-200.000	0.028	-0.123
-404.267	72.300	0.275	0.284
-403.252	-94.073	0.461	0.125
-402.238	-70.010	0.071	0.027
-401.223	93.365	-0.196	-0.220
-400.209	-94.059	0.378	-0.103
-399.194	-53.551	0.145	0.065
-398.179	673.763	0.071	0.183
-397.165	-98.208	0.273	0.069
-396.150	800.000	-0.078	-0.315
-395.136	-200.000	0.017	-0.288
-394.121	29.179	0.156	-0.131
-393.106	77.092	0.112	-0.117
-392.092	-65.541	-0.375	0.149
-391.077	123.863	-0.068	0.085
-390.063	112.500	-0.152	-0.181
-389.048	507.784	-0.026	-0.060
-388.033	424.623	0.007	-0.015
-387.019	-200.000	0.048	0.264
-386.004	-6.208	-0.041	0.028
-384.990	-80.100	0.231	-0.077
-383.975	-61.947	-0.250	0.103
-382.960	-91.728	0.207	0.058
-381.946	-200.000	-0.024	0.232
-380.931	-74.022	-0.231	-0.083
-379.917	-79.593	-0.107	-0.036
-378.902	56.269	-0.030	0.028
-377.888	443.884	-0.125	-0.271
-376.873	-88.666	-0.250	-0.073
-375.858	795.755	0.052	0.142
-374.844	-200.000	0.031	-0.437
-373.829	105.508	0.060	0.071
-372.815	-200.000	0.288	-0.000
-371.800	800.000	0.055	0.229
-370.785	78.960	-0.179	-0.190
-369.771	-17.665	0.430	-0.267
-368.756	425.309	0.133	0.284
-367.742	-104.940	-0.038	0.009
-366.727	191.851	0.036	0.054
-365.712	-187.298	-0.303	-0.004
-364.698	-107.047	0.099	0.022
-363.683	756.677	-0.064	-0.170
-362.669	-21.616	0.181	0.109
-361.654	-200.000	0.095	0.451
-360.639	34.751	0.147	-0.127
-359.625	-200.000	0.014	-0.186
-358.610	456.176	0.113	-0.248
-357.596	-200.000	-0.008	0.038
-356.581	-122.701	-0.264	0.042
-355.566	-89.503	0.038	0.011
-354.552	-161.583	0.153	-0.008
-353.537	-81.068	0.118	0.039
-352.523	-60.170	-0.261	-0.110
-351.508	57.808	0.035	-0.034
-350.493	76.640	0.165	0.173
-349.479	249.291	0.349	0.585
-348.464	254.875	-0.142	-0.239
-347.450	-200.000	-0.055	0.364
-346.435	413.879	0.042	0.088
-345.420	-66.762	-0.344	-0.134
-344.406	-53.498	0.332	-0.150
-343.391	74.814	-0.063	0.065
-342.377	81.472	0.074	-0.079
-341.362	108.988	-0.234	0.276
-340.348	236.963	0.150	-0.245
-339.333	-128.907	0.242	-0.034
-338.318	-200.000	0.009	0.134
-337.304	558.976	-0.019	0.045
-336.289	-200.000	0.061	0.365
-335.275	-200.000	0.037	-0.206
-334.260	800.000	-0.016	-0.048
-333.245	-96.359	-0.233	0.061
-332.231	-137.189	0.068	-0.008
-331.216	-128.361	-0.063	0.009
-330.202	385.663	-0.103	0.210
-329.187	59.111	0.201	0.195
-328.172	-32.573	0.021	-0.011
-327.158	-143.937	-0.364	0.034
-326.143	-45.232	-0.108	-0.053
-325.129	-60.368	0.146	-0.061
-324.114	68.482	-0.145	-0.146
-323.099	599.726	-0.042	0.104
-322.085	87.682	0.042	0.046
-321.070	-94.406	0.302	-0.081
-320.056	3.272	-0.269	0.193
-319.041	-57.038	0.180	0.078
-318.026	24.987	-0.092	0.076
-317.012	8.670	-0.224	-0.166
-315.997	-85.782	-0.161	-0.049
-314.983	-200.000	0.081	0.435
-313.968	-134.250	0.251	0.030
-312.953	162.886	0.139	-0.193
-311.939	508.066	0.055	0.126
-310.924	222.523	-0.075	0.120
-309.910	-99.998	-0.110	0.027
-308.895	364.091	-0.143	-0.283
-307.880	-53.581	0.246	0.111
-306.866	-95.010	0.195	0.052
-305.851	-104.780	-0.139	0.031
-304.837	3.545	-0.411	0.296
-303.822	-133.028	0.320	0.040
-302.807	379.084	0.110	0.222
-301.793	-100.149	-0.272	0.067
-300.778	-200.000	-0.031	-0.154
-299.764	-194.916	-0.269	0.002
-298.749	18.818	-0.149	0.118
-297.735	-200.000	-0.057	0.282
-296.720	391.529	0.100	0.206
-295.705	-200.000	0.027	0.189
-294.691	65.464	0.237	0.237
-293.676	800.000	-0.049	0.163
-292.662	416.396	0.042	-0.088
-291.647	44.636	0.157	0.142
-290.632	-54.985	-0.275	-0.122
-289.618	-158.720	-0.549	0.031
-288.603	-86.594	0.378	0.114
-287.589	72.760	-0.307	-0.316
-286.574	-33.277	-0.149	-0.081
-285.559	-30.580	-0.160	0.090
-284.545	-99.970	-0.362	0.089
-283.530	-113.967	0.201	0.038
-282.516	-22.493	0.205	0.122
-281.501	-79.501	-0.117	-0.039
-280.486	800.000	0.031	0.132
-279.472	68.182	-0.227	-0.229
-278.457	-118.536	-0.146	0.026
-277.443	80.446	0.171	0.182
-276.428	70.211	0.233	0.238
-275.413	-25.163	-0.075	-0.044
-274.399	212.950	0.068	0.106
-273.384	-11.345	0.366	0.237
-272.370	-200.000	-0.049	-0.216
-271.355	2.140	-0.354	-0.252
-270.340	-200.000	-0.016	0.227
-269.326	-31.506	-0.264	-0.146
-268.311	-64.474	0.155	-0.062
-267.297	114.291	0.098	-0.117
-266.282	541.239	0.110	-0.258
-265.267	-161.182	0.321	0.016
-264.253	-38.163	0.115	-0.060
-263.238	730.403	-0.033	0.086
-262.224	216.809	-0.171	-0.267
-261.209	-23.311	-0.253	0.150
-260.195	111.236	0.172	-0.204
-259.180	800.000	0.061	-0.242
-258.165	-92.622	0.087	-0.024
-257.151	-200.000	-0.044	-0.276
-256.136	-72.541	-0.130	0.047
-255.122	-139.309	-0.111	-0.012
-254.107	-200.000	-0.031	-0.147
-253.092	89.270	0.230	-0.252
-252.078	221.001	0.214	0.337
-251.063	74.702	-0.153	-0.158
-250.049	800.000	-0.068	0.226
-249.034	794.855	0.065	-0.175
-248.019	800.000	0.019	0.056
-247.005	-127.759	0.262	0.037
-245.990	800.000	0.042	-0.123
-244.976	-129.433	0.134	0.018
-243.961	74.250	-0.162	-0.167
-242.946	-63.492	0.016	-0.006
-241.932	-0.192	-0.307	0.215
-240.917	-79.530	0.230	-0.076
-239.903	19.885	-0.142	-0.113
-238.888	59.211	0.230	0.223
-237.873	49.527	0.406	-0.376
-236.859	-34.220	0.039	-0.021
-235.844	-123.171	0.369	0.058
-234.830	594.871	-0.094	0.228
-233.815	-74.739	-0.195	0.069
-232.800	-113.435	0.328	-0.063
-231.786	800.000	-0.068	0.234
-230.771	288.027	-0.049	0.087
-229.757	141.362	0.146	-0.191
-228.742	146.024	-0.106	-0.139
-227.727	-6.639	0.187	-0.125
-226.713	800.000	0.129	0.433
-225.698	-157.209	0.091	0.005
-224.684	-106.862	0.150	0.033
-223.669	181.453	0.109	-0.158
-222.655	30.839	0.203	0.171
-221.640	-200.000	-0.033	-0.340
-220.625	37.672	-0.237	0.207
-219.611	-200.000	0.006	-0.344
-218.596	-200.000	-0.003	-0.208
-217.582	-200.000	-0.034	-0.232
-216.567	-200.000	-0.023	-0.363
-215.552	40.473	-0.163	0.144
-214.538	91.155	0.143	0.158
-213.523	141.653	0.118	-0.153
-212.509	-200.000	0.077	-0.442
-211.494	294.171	0.101	-0.181
-210.479	-23.629	0.260	-0.153
-209.465	-30.134	-0.249	-0.139
-208.450	70.622	-0.065	0.066
-207.436	800.000	0.060	-0.212
-206.421	-62.113	-0.180	0.074
-205.406	692.921	0.054	0.138
-204.392	64.906	0.041	-0.040
-203.377	-59.952	0.067	0.028
-202.363	75.409	-0.240	0.249
-201.348	557.792	-0.013	0.031
-200.333	-35.017	0.181	-0.097
-199.319	-80.090	0.077	-0.025
-198.304	-200.000	0.027	-0.200
-197.290	-115.531	0.069	-0.013
-196.275	91.820	0.341	-0.377
-195.260	-38.865	-0.108	0.056
-194.246	315.727	0.089	0.165
-193.231	-58.952	-0.122	0.052
-192.217	-200.000	0.024	-0.189
-191.202	394.410	0.116	-0.238
-190.187	-173.550	-0.074	0.002
-189.173	-200.000	-0.008	-0.173
-188.158	17.426	0.266	0.207
-187.144	256.253	-0.194	-0.328
-186.129	104.295	-0.158	-0.182
-185.114	641.004	0.103	0.258
-184.100	-78.562	-0.393	0.132
-183.085	322.396	-0.064	-0.120
-182.071	143.323	-0.181	0.236
-181.056	324.072	-0.175	0.328
-180.042	-175.833	-0.180	0.005
-179.027	-149.008	-0.172	0.014
-178.012	416.157	0.145	-0.304
-176.998	-118.665	0.297	0.051
-175.983	13.354	-0.234	-0.178
-174.969	-158.311	-0.261	-0.015
-173.954	698.551	-0.103	0.265
-172.939	-200.000	0.053	-0.376
-171.925	292.783	-0.118	-0.211
-170.910	532.151	0.173	0.401
-169.896	800.000	0.065	0.276
-168.881	78.686	-0.183	-0.192
-167.866	-200.000	-0.061	-0.292
-166.852	207.887	-0.194	-0.298
-165.837	-105.782	0.145	0.032
-164.823	124.603	-0.208	-0.256
-163.808	800.000	0.072	-0.249
-162.793	540.851	-0.182	0.425
-161.779	332.272	0.066	0.124
-160.764	363.431	0.111	0.218
-159.750	-12.498	0.213	-0.136
-158.735	638.592	-0.086	-0.214
-157.720	-30.539	0.152	-0.084
-156.706	-200.000	0.079	0.349
-155.691	-32.466	0.218	0.119
-154.677	205.728	0.079	0.120
-153.662	-24.355	-0.187	-0.109
-152.647	-95.507	0.226	-0.059
-151.633	-97.581	-0.112	-0.028
-150.618	666.754	0.081	0.204
-149.604	-200.000	-0.030	-0.189
-148.589	800.000	-0.018	-0.075
-147.574	630.412	-0.181	0.448
-146.560	-67.854	0.245	0.094
-145.545	74.030	0.246	0.253
-144.531	-200.000	-0.071	0.335
-143.516	42.453	-0.277	0.247
-142.502	-15.604	-0.323	0.202
-141.487	133.452	-0.100	0.126
-140.472	-88.676	0.024	0.007
-139.458	183.278	-0.094	-0.136
-138.443	78.534	-0.396	0.414
-137.429	33.833	0.049	0.042
-136.414	-200.000	0.015	0.231
-135.399	-120.621	-0.205	-0.034
-134.385	800.000	-0.022	0.085
-133.370	-102.807	0.263	-0.061
-132.356	800.000	0.117	-0.347
-131.341	72.819	0.217	0.222
-130.326	-200.000	0.034	-0.165
-129.312	-130.850	-0.600	-0.079
-128.297	-26.469	0.242	0.139
-127.283	584.489	0.096	0.230
-126.268	-77.461	-0.205	0.070
-125.253	-49.840	0.353	0.164
-124.239	-141.517	-0.251	-0.025
-123.224	158.053	-0.145	0.196
-122.210	7.114	0.130	-0.095
-121.195	-110.418	0.290	-0.059
-120.180	-184.253	-0.122	-0.002
-119.166	127.383	-0.300	-0.373
-118.151	-147.640	-0.164	0.013
-117.137	-72.370	0.118	-0.043
-116.122	99.894	0.061	0.070
-115.107	171.752	0.104	0.147
-114.093	-200.000	-0.015	0.095
-113.078	-76.477	-0.183	0.063
-112.064	145.338	-0.074	0.097
-111.049	-78.864	-0.183	0.061
-110.034	-79.225	-0.246	-0.082
-109.020	357.869	-0.044	-0.087
-108.005	-61.516	0.256	0.105
-106.991	279.477	0.094	-0.164
-105.976	-154.121	-0.366	-0.024
-104.962	800.000	-0.092	-0.276
-103.947	73.575	-0.104	-0.107
-102.932	179.401	0.023	0.033
-101.918	126.584	0.097	-0.120
-100.903	-66.169	0.047	-0.018
-99.889	93.295	-0.239	0.265
-98.874	-50.625	-0.071	0.033
-97.859	800.000	0.051	-0.168
-96.845	-43.087	-0.291	0.144
-95.830	35.442	0.109	-0.094
-94.816	-113.305	0.135	-0.026
-93.801	-200.000	0.011	0.136
-92.786	-54.561	0.076	0.034
-91.772	-35.547	-0.249	0.132
-90.757	149.234	-0.148	-0.195
-89.743	269.015	-0.115	-0.198
-88.728	352.970	-0.117	0.227
-87.713	62.210	0.171	-0.167
-86.699	-38.899	-0.004	-0.002
-85.684	-200.000	-0.008	0.180
-84.670	225.665	-0.062	0.099
-83.655	-200.000	-0.013	-0.224
-82.640	787.774	-0.119	-0.320
-81.626	73.729	0.274	0.281
-80.611	66.392	-0.076	-0.075
-79.597	-200.000	-0.020	-0.307
-78.582	-158.364	-0.288	-0.016
-77.567	-93.010	0.248	0.068
-76.553	90.928	0.169	0.185
-75.538	163.948	0.022	-0.031
-74.524	800.000	0.056	-0.177
-73.509	800.000	0.073	-0.311
-72.494	-172.898	-0.214	0.007
-71.480	323.106	0.044	0.082
-70.465	-65.940	0.125	0.049
-69.451	800.000	0.131	0.384
-68.436	-88.456	0.074	0.022
-67.422	-16.927	0.108	0.067
-66.407	741.352	0.052	0.136
-65.392	-200.000	0.000	0.087
-64.378	128.818	0.125	0.155
-63.363	-92.987	-0.131	-0.036
-62.349	800.000	-0.025	0.101
-61.334	100.560	-1.263	-1.433
-60.319	800.000	0.221	0.924
-59.305	682.186	-0.450	-1.147
-58.290	641.688	0.689	1.716
-57.276	800.000	0.468	1.389
-56.261	-200.000	122.367	622.636
-55.246	401.548	1557.568	3194.870
-54.232	143.076	2719.408	3532.755
-53.217	95.452	2164.697	2410.588
-52.203	35.237	1596.345	1366.714
-51.188	26.888	1339.188	1096.299
-50.173	24.349	1301.973	1050.852
-49.159	50.587	1369.570	1265.368
-48.144	48.085	1381.211	1260.926
-47.130	27.001	1329.750	1089.077
-46.115	23.847	1310.519	1054.604
-45.100	23.637	1305.511	1049.292
-44.086	23.555	1303.469	1047.123
-43.071	23.554	1301.326	1045.355
-42.057	23.472	1299.151	1043.084
-41.042	23.624	1297.228	1042.393
-40.027	23.519	1296.037	1040.777
-39.013	23.599	1293.975	1039.547
-37.998	23.568	1292.235	1037.927
-36.984	23.623	1290.790	1037.050
-35.969	23.569	1289.261	1035.462
-34.954	23.656	1287.189	1034.266
-33.940	23.706	1285.942	1033.512
-32.925	23.678	1284.663	1032.283
-31.911	23.689	1283.357	1031.254
-30.896	23.757	1281.322	1029.976
-29.881	23.745	1280.619	1029.296
-28.867	23.777	1279.500	1028.542
-27.852	23.777	1277.679	1027.036
-26.838	23.720	1276.567	1025.777
-25.823	23.697	1275.205	1024.507
-24.809	23.674	1273.782	1023.193
-23.794	23.772	1272.495	1022.680
-22.779	23.656	1271.516	1021.183
-21.765	23.779	1269.854	1020.514
-20.750	23.672	1269.240	1019.367
-19.736	23.627	1267.809	1017.919
-18.721	23.577	1266.347	1016.422
-17.706	23.683	1265.242	1016.100
-16.692	23.522	1264.400	1014.464
-15.677	23.570	1263.057	1013.621
-14.663	23.601	1261.753	1012.708
-13.648	23.532	1260.903	1011.593
-12.633	23.643	1259.758	1011.268
-11.619	23.560	1259.362	1010.438
-10.604	23.637	1258.261	1009.950
-9.590	23.605	1257.078	1008.781
-8.575	23.534	1256.520	1007.888
-7.560	23.619	1255.324	1007.372
-6.546	23.577	1254.860	1006.723
-5.531	23.604	1253.826	1006.005
-4.517	23.688	1253.084	1005.846
-3.502	23.693	1251.622	1004.662
-2.487	23.646	1251.096	1003.930
-1.473	23.546	1247.294	1000.277
-0.458	22.393	1232.530	981.972
0.556	17.643	1217.445	947.486
1.571	14.340	1225.441	935.109
2.586	13.936	1240.016	943.856
3.600	13.628	1227.986	932.882
4.615	9.952	1155.936	858.559
5.629	3.337	1084.350	772.248
6.644	0.439	1067.040	745.540
7.659	0.192	1064.879	742.748
8.673	0.116	1064.153	741.803
9.688	0.083	1062.974	740.751
10.702	0.354	1060.689	740.426
11.717	4.304	1065.487	763.168
12.731	11.367	1074.216	804.278
13.746	15.665	1079.788	829.634
14.761	16.670	1080.840	835.330
15.775	16.052	1079.283	831.007
16.790	15.019	1077.051	824.132
17.804	14.490	1075.113	819.973
18.819	14.050	1074.320	817.134
19.834	13.928	1073.138	815.566
20.848	13.515	1072.889	813.276
21.863	13.291	1072.046	811.466
22.877	13.191	1071.047	810.149
23.892	13.093	1070.456	809.148
24.907	13.148	1069.787	808.841
25.921	13.163	1068.863	808.142
26.936	13.124	1068.757	807.801
27.950	13.243	1066.831	806.857
28.965	13.293	1065.928	806.344
29.980	13.286	1064.442	805.113
30.994	13.454	1063.290	804.990
32.009	13.455	1062.301	804.175
33.023	13.401	1061.491	803.227
34.038	13.341	1060.519	802.131
35.053	13.345	1059.987	801.676
36.067	13.236	1058.900	800.256
37.082	13.216	1058.285	799.622
38.096	13.275	1057.344	799.128
39.111	13.359	1056.190	798.587
40.126	13.281	1054.957	797.212
41.140	13.134	1053.877	795.617
42.155	13.048	1052.907	794.398
43.169	13.174	1051.954	794.217
44.184	13.119	1050.695	792.931
45.199	13.196	1049.634	792.429
46.213	13.157	1049.021	791.708
47.228	13.097	1047.978	790.565
48.242	13.153	1046.708	789.805
49.257	13.202	1045.761	789.252
50.271	13.215	1044.813	788.533
51.286	13.263	1043.807	787.933
52.301	13.267	1042.659	787.014
53.315	13.293	1041.729	786.364
54.330	13.248	1040.736	785.333
55.344	13.249	1039.954	784.676
56.359	13.147	1039.566	783.830
57.374	13.161	1038.136	782.751
58.388	13.149	1037.435	782.097
59.403	12.951	1036.733	780.559
60.417	13.077	1035.886	780.448
61.432	13.139	1034.805	779.857
62.447	13.050	1034.760	779.334
63.461	13.026	1033.623	778.298
64.476	12.993	1032.706	777.382
65.490	13.035	1031.983	776.966
66.505	13.077	1031.169	776.482
67.520	13.107	1030.867	776.330
68.534	13.057	1029.826	775.242
69.549	13.262	1028.813	775.369
70.563	13.033	1028.293	773.839
71.578	13.047	1027.573	773.292
72.593	12.977	1026.763	772.288
73.607	12.941	1026.269	771.677
74.622	13.022	1025.346	771.296
75.636	13.046	1024.528	770.725
76.651	12.899	1024.704	770.100
77.666	13.069	1023.426	769.865
78.680	13.108	1022.460	769.249
79.695	13.012	1022.229	768.561
80.709	13.022	1021.425	767.937
81.724	13.089	1020.559	767.531
82.739	13.161	1020.268	767.578
83.753	13.195	1019.194	766.858
84.768	13.324	1018.126	766.587
85.782	13.342	1017.156	765.872
86.797	13.172	1016.587	764.586
87.812	13.093	1015.437	763.292
88.826	13.197	1014.440	762.954
89.841	13.346	1013.689	763.007
90.855	13.193	1012.840	761.596
91.870	13.201	1011.957	760.902
92.884	13.270	1011.079	760.491
93.899	13.451	1010.047	760.482
94.914	13.479	1009.264	759.954
95.928	13.466	1008.246	759.058
96.943	13.456	1007.242	758.191
97.957	13.373	1006.806	757.414
98.972	13.308	1005.629	756.167
99.987	13.280	1004.862	755.393
101.001	13.292	1003.954	754.700
102.016	13.301	1003.074	754.013
103.030	13.225	1002.279	753.003
104.045	13.273	1001.380	752.479
105.060	13.281	1000.239	751.589
106.074	13.211	999.619	750.741
107.089	13.089	998.715	749.439
108.103	13.165	998.096	749.254
109.118	13.247	996.889	748.651
110.133	13.152	995.916	747.428
111.147	13.208	995.066	746.978
112.162	13.315	993.516	746.231
113.176	13.299	993.231	745.876
114.191	13.262	992.477	745.080
115.206	13.211	991.848	744.309
116.220	13.339	990.649	743.918
117.235	13.290	989.744	742.955
118.249	13.367	988.827	742.547
119.264	13.244	988.259	741.501
120.279	13.249	987.805	741.120
121.293	13.305	986.531	740.349
122.308	13.256	985.799	739.511
123.322	13.280	984.862	738.854
124.337	13.153	984.007	737.577
125.352	13.170	982.891	736.753
126.366	13.211	981.815	736.062
127.381	13.194	980.504	734.942
128.395	13.217	980.194	734.744
129.410	13.226	979.085	733.890
130.424	13.245	978.085	733.160
131.439	13.300	977.042	732.556
132.454	13.316	976.295	732.003
133.468	13.330	975.542	731.432
134.483	13.405	974.539	730.947
135.497	13.260	974.110	729.920
136.512	13.257	973.130	729.110
137.527	13.224	972.280	728.263
138.541	13.221	971.695	727.749
139.556	13.180	971.178	727.118
140.570	13.401	970.153	727.255
141.585	13.518	969.020	726.853
142.600	13.496	968.518	726.319
143.614	13.467	967.665	725.484
144.629	13.521	966.327	724.656
145.643	13.405	966.050	723.874
146.658	13.416	964.804	722.927
147.673	13.350	964.200	722.122
148.687	13.365	963.527	721.617
149.702	13.353	962.625	720.826
150.716	13.399	961.745	720.305
151.731	13.414	961.065	719.796
152.746	13.474	960.211	719.354
153.760	13.600	959.627	719.402
154.775	13.468	959.525	718.686
155.789	13.481	958.907	718.219
156.804	13.527	957.744	717.482
157.819	13.562	957.137	717.116
158.833	13.520	957.107	716.849
159.848	13.705	955.387	716.296
160.862	13.725	954.559	715.698
161.877	13.612	953.725	714.523
162.892	13.560	952.985	713.681
163.906	13.576	951.982	712.935
164.921	13.465	951.256	711.849
165.935	13.542	950.587	711.620
166.950	13.745	949.615	711.697
167.964	13.592	949.133	710.616
168.979	13.531	948.117	709.531
169.994	13.643	946.871	709.017
171.008	13.580	946.355	708.297
172.023	13.701	945.468	708.089
173.037	13.712	944.888	707.641
174.052	13.596	944.317	706.654
175.067	13.700	943.506	706.426
176.081	13.706	942.924	705.956
177.096	13.702	942.053	705.224
178.110	13.447	942.160	704.157
179.125	13.724	941.153	704.517
180.140	13.788	940.289	704.082
181.154	13.892	940.045	704.275
182.169	13.794	939.815	703.628
183.183	13.849	938.725	702.983
184.198	13.723	938.421	702.160
185.213	13.950	937.407	702.298
186.227	13.867	936.502	701.207
187.242	13.736	936.552	700.630
188.256	13.939	935.466	700.610
189.271	14.045	934.414	700.204
190.286	13.853	934.162	699.148
191.300	13.815	932.815	697.919
192.315	13.668	933.002	697.377
193.329	13.685	932.595	697.081
194.344	13.978	931.411	697.366
195.359	13.964	930.962	696.911
196.373	13.844	930.238	695.804
197.388	14.002	929.850	696.111
198.402	14.028	929.207	695.679
199.417	14.058	928.678	695.348
200.432	14.129	928.072	695.128
201.446	14.198	927.574	694.983
202.461	14.073	926.938	693.923
203.475	14.179	926.401	693.901
204.490	14.023	925.812	692.748
205.504	14.038	925.259	692.336
206.519	14.175	924.386	692.190
207.534	14.152	923.487	691.361
208.548	14.108	922.682	690.517
209.563	14.127	922.087	690.085
210.577	14.074	921.797	689.587
211.592	14.323	920.485	689.579
212.607	14.178	920.188	688.695
213.621	14.192	919.240	687.981
214.636	14.170	918.646	687.386
215.650	14.300	917.808	687.236
216.665	14.463	916.547	686.899
217.680	14.294	916.211	685.893
218.694	14.473	915.329	685.907
219.709	14.453	914.753	685.335
220.723	14.335	914.357	684.489
221.738	14.182	914.006	683.540
222.753	14.425	912.744	683.531
223.767	14.399	912.207	682.962
224.782	14.502	911.498	682.793
225.796	14.453	911.217	682.323
226.811	14.377	910.460	681.385
227.826	14.442	910.065	681.295
228.840	14.513	908.953	680.689
229.855	14.477	908.094	679.842
230.869	14.391	907.448	678.947
231.884	14.555	906.494	678.840
232.899	14.465	906.183	678.182
233.913	14.480	905.370	677.572
234.928	14.385	905.089	676.916
235.942	14.375	904.710	676.531
236.957	14.437	903.574	675.873
237.972	14.472	903.196	675.674
238.986	14.511	902.294	675.099
240.001	14.379	902.011	674.292
241.015	14.549	901.098	674.236
242.030	14.447	900.866	673.593
243.045	14.602	900.020	673.524
244.059	14.682	899.564	673.445
245.074	14.599	898.648	672.365
246.088	14.576	898.334	671.978
247.103	14.612	897.537	671.469
248.117	14.653	897.022	671.190
249.132	14.756	896.169	670.907
250.147	14.816	895.513	670.596
251.161	14.780	895.176	670.141
252.176	14.857	894.274	669.715
253.190	14.902	893.284	669.094
254.205	14.954	892.899	668.952
255.220	14.907	892.011	668.040
256.234	14.996	891.721	668.120
257.249	14.828	891.246	667.034
258.263	14.803	890.291	666.162
259.278	15.029	889.391	666.328
260.293	14.975	889.182	665.899
261.307	15.107	888.296	665.699
262.322	15.090	887.816	665.217
263.336	15.025	887.226	664.454
264.351	15.146	886.119	664.048
265.366	15.006	885.869	663.246
266.380	15.181	885.548	663.642
267.395	15.132	884.428	662.547
268.409	15.247	883.673	662.380
269.424	15.225	883.008	661.737
270.439	15.190	881.863	660.679
271.453	15.110	881.505	660.039
272.468	15.219	881.127	660.128
273.482	15.279	880.362	659.730
274.497	15.266	879.737	659.153
275.512	15.187	879.450	658.569
276.526	15.277	878.675	658.286
277.541	15.415	878.012	658.273
278.555	15.379	877.389	657.605
279.570	15.399	876.908	657.263
280.585	15.485	876.355	657.126
281.599	15.518	875.208	656.337
282.614	15.294	874.863	655.145
283.628	15.336	874.065	654.655
284.643	15.399	873.730	654.593
285.657	15.415	873.104	654.126
286.672	15.380	872.570	653.532
287.687	15.379	871.813	652.906
288.701	15.338	871.577	652.511
289.716	15.431	871.019	652.396
290.730	15.505	870.020	651.880
291.745	15.501	869.561	651.461
292.760	15.590	868.774	651.158
293.774	15.667	868.026	650.838
294.789	15.598	867.255	649.934
295.803	15.654	866.736	649.707
296.818	15.538	866.110	648.730
297.833	15.527	865.288	648.015
298.847	15.585	864.648	647.701
299.862	15.749	864.130	647.888
300.876	15.646	863.885	647.251
301.891	15.656	863.221	646.735
302.906	15.621	862.695	646.148
303.920	15.829	862.033	646.395
304.935	15.864	861.364	645.969
305.949	15.855	860.868	645.506
306.964	15.774	860.374	644.768
307.979	15.773	859.777	644.260
308.993	15.831	859.055	643.884
310.008	15.728	858.804	643.245
311.022	15.742	858.305	642.866
312.037	15.797	857.623	642.509
313.052	15.782	856.590	641.622
314.066	15.911	855.938	641.571
315.081	15.758	855.806	640.828
316.095	15.737	855.075	640.147
317.110	15.710	854.776	639.764
318.125	15.806	854.045	639.525
319.139	15.863	853.653	639.392
320.154	15.919	852.924	639.003
321.168	15.896	852.579	638.600
322.183	15.962	851.799	638.207
323.197	15.945	851.342	637.743
324.212	15.885	850.744	637.014
325.227	15.801	850.392	636.376
326.241	15.855	849.438	635.808
327.256	15.964	849.121	635.930
328.270	15.909	848.559	635.243
329.285	15.924	847.968	634.802
330.300	16.071	846.972	634.550
331.314	15.939	846.940	633.974
332.329	16.077	846.504	634.113
333.343	15.957	846.472	633.580
334.358	16.071	845.487	633.214
335.373	16.133	844.984	633.017
336.387	16.201	844.795	633.074
337.402	16.166	844.454	632.628
338.416	16.126	844.194	632.228
339.431	16.277	843.548	632.256
340.446	16.229	843.182	631.746
341.460	16.002	843.461	631.047
342.475	16.221	842.988	631.459
343.489	16.383	841.988	631.258
344.504	16.353	841.497	630.723
345.519	16.272	841.435	630.320
346.533	16.476	840.493	630.316
347.548	16.343	840.014	629.408
348.562	16.235	839.642	628.669
349.577	16.265	839.135	628.346
350.592	16.402	838.337	628.203
351.606	16.331	837.702	627.409
352.621	16.427	836.763	627.006
353.635	16.390	836.358	626.508
354.650	16.372	835.939	626.071
355.665	16.552	834.967	625.957
356.679	16.363	834.493	624.847
357.694	16.503	833.710	624.723
358.708	16.456	833.353	624.225
359.723	16.542	832.636	623.949
360.738	16.507	832.360	623.561
361.752	16.550	831.695	623.163
362.767	16.685	830.778	622.917
363.781	16.581	830.813	622.506
364.796	16.652	830.007	622.110
365.810	16.716	829.330	621.780
366.825	16.807	829.070	621.866
367.840	16.922	828.227	621.599
368.854	16.743	827.612	620.429
369.869	16.748	827.892	620.600
370.883	16.819	827.196	620.283
371.898	16.870	827.039	620.297
372.913	16.904	826.266	619.786
373.927	16.713	826.177	618.970
374.942	16.779	825.634	618.748
375.956	16.834	824.817	618.283
376.971	16.915	824.500	618.284
377.986	16.914	824.233	618.025
379.000	17.001	823.764	617.936
380.015	16.928	823.011	617.053
381.029	17.015	822.528	616.949
382.044	17.083	822.257	616.941
383.059	16.981	821.359	615.841
384.073	16.999	821.008	615.588
385.088	16.984	820.503	615.101
386.102	17.008	819.705	614.536
387.117	17.042	819.230	614.250
388.132	17.051	818.274	613.511
389.146	16.965	818.198	613.087
390.161	16.993	817.604	612.690
391.175	17.104	817.232	612.758
392.190	17.110	816.560	612.221
393.205	16.991	816.139	611.421
394.219	17.076	815.954	611.537
395.234	17.013	815.602	610.992
396.248	17.091	815.105	610.845
397.263	16.973	814.694	610.059
398.278	16.907	814.642	609.730
399.292	17.023	813.844	609.494
400.307	17.092	813.196	609.201
401.321	17.284	812.734	609.491
402.336	17.205	812.341	608.859
403.350	17.175	812.042	608.474
404.365	17.313	811.790	608.726
405.380	17.254	811.201	608.020
406.394	17.322	810.376	607.590
407.409	17.395	810.020	607.528
408.423	17.204	810.274	606.982
409.438	17.381	809.148	606.716
410.453	17.200	809.430	606.231
411.467	17.483	808.515	606.501
412.482	17.438	807.868	605.799
413.496	17.488	807.664	605.771
414.511	17.437	807.650	605.525
415.526	17.531	806.895	605.239
416.540	17.602	806.502	605.142
417.555	17.664	805.821	604.800
418.569	17.583	805.391	604.138
419.584	17.521	805.162	603.691
420.599	17.565	804.360	603.192
421.613	113.424	1297.688	1485.788
422.628	97.887	1369.543	1485.865
