DTS Sentinel unit serial number:	SN413079Multiplexer serial number:	ORYXHardware model number:	OX4-SRSoftware version number:	ORYX F/W v4.00 Oryx Data Collector v3.7.2.0data status	okinstallation	princeton_trtdifferential loss correction	single-endedforward channel	channel 1reverse channel	N/Adate	2019/09/14time	03:42:35forward acquisition time	60.00reverse acquisition time	0.00gamma	496.2192k internal	0.2336k external	0.2336temperature offset calibration	1.0079default loss term (dB/km)	0.3790temperature slope calibration	1.0000multiplexer offset coefficient	1.0000multiplexer slope coefficient	1.0000fibre end	0.00T internal ref (°C)	26.64T ext. ref 1 (°C)	3.29T ext. ref 2 (°C)	21.66length (m)	temperature (°C)	Stokes	anti-Stokes-747.200	152.142	0.144	-0.198
-746.185	138.867	-0.063	-0.083
-745.171	325.475	-0.099	-0.190
-744.156	800.000	-0.111	0.353
-743.142	-200.000	0.029	-0.141
-742.127	-134.668	-0.121	-0.015
-741.112	-126.811	0.199	0.029
-740.098	97.232	-0.093	0.107
-739.083	-97.834	0.261	-0.068
-738.069	583.642	0.044	-0.109
-737.054	800.000	0.070	0.226
-736.039	-85.655	-0.357	0.111
-735.025	-22.131	0.394	-0.240
-734.010	-172.300	-0.465	-0.015
-732.996	-7.505	-0.119	-0.081
-731.981	-104.798	-0.202	-0.047
-730.966	-20.170	-0.220	-0.136
-729.952	6.627	-0.152	-0.113
-728.937	100.164	-0.244	-0.284
-727.923	280.342	0.038	0.068
-726.908	-101.648	-0.158	0.039
-725.894	800.000	-0.052	-0.165
-724.879	-27.426	0.166	-0.097
-723.864	619.182	0.043	-0.108
-722.850	204.310	0.030	-0.046
-721.835	73.914	-0.198	-0.209
-720.821	314.054	-0.065	-0.122
-719.806	-200.000	-0.033	-0.395
-718.791	-53.899	-0.279	-0.127
-717.777	109.688	0.094	0.113
-716.762	53.270	0.252	-0.243
-715.748	47.835	-0.079	0.074
-714.733	-78.376	0.096	0.033
-713.718	800.000	-0.087	-0.374
-712.704	-200.000	-0.102	-0.519
-711.689	800.000	0.009	-0.040
-710.675	-56.610	-0.201	-0.089
-709.660	216.470	-0.155	0.248
-708.645	-186.345	-0.212	-0.003
-707.631	451.369	0.035	0.078
-706.616	53.994	0.119	-0.115
-705.602	300.265	-0.082	-0.152
-704.587	-200.000	-0.025	-0.217
-703.572	213.211	-0.089	0.141
-702.558	800.000	-0.100	-0.350
-701.543	283.708	0.146	-0.262
-700.529	-200.000	0.021	0.373
-699.514	-59.233	-0.250	-0.108
-698.499	-2.716	-0.371	0.260
-697.485	-68.626	0.141	-0.055
-696.470	-200.000	-0.003	0.105
-695.456	-80.843	0.329	0.109
-694.441	-52.852	0.347	0.160
-693.426	-120.647	0.240	-0.041
-692.412	-79.002	-0.133	0.045
-691.397	57.011	0.099	-0.096
-690.383	222.291	0.167	0.270
-689.368	15.142	-0.159	-0.125
-688.354	54.593	-0.269	0.260
-687.339	91.979	-0.143	0.161
-686.324	24.752	0.085	-0.071
-685.310	-33.017	0.191	-0.106
-684.295	-87.556	-0.164	-0.050
-683.281	621.838	0.117	-0.296
-682.266	-8.083	0.134	0.090
-681.251	-114.221	0.264	-0.051
-680.237	33.111	0.119	-0.104
-679.222	-65.938	-0.181	0.073
-678.208	319.151	0.156	-0.297
-677.193	800.000	0.141	-0.478
-676.178	-200.000	0.011	-0.112
-675.164	-200.000	0.015	0.214
-674.149	-200.000	-0.058	0.564
-673.135	-112.005	0.042	-0.008
-672.120	-200.000	0.022	0.112
-671.105	-200.000	-0.052	-0.235
-670.091	-106.662	0.160	0.036
-669.076	800.000	-0.062	-0.259
-668.062	235.539	-0.088	0.146
-667.047	-200.000	0.038	0.263
-666.032	-5.105	-0.241	0.166
-665.018	-172.548	0.082	-0.003
-664.003	239.250	-0.120	-0.200
-662.989	23.958	0.021	-0.018
-661.974	-200.000	0.061	0.341
-660.959	-124.749	0.218	-0.034
-659.945	-200.000	0.048	-0.258
-658.930	43.943	-0.283	0.260
-657.916	-8.067	-0.140	0.095
-656.901	-48.724	-0.140	-0.067
-655.886	800.000	-0.085	0.259
-654.872	108.037	-0.174	0.207
-653.857	-200.000	0.001	-0.186
-652.843	147.025	0.177	0.238
-651.828	-200.000	0.053	-0.470
-650.814	-102.019	0.507	-0.122
-649.799	21.857	-0.157	0.128
-648.784	-104.615	-0.420	0.097
-647.770	-6.509	-0.038	0.026
-646.755	-43.160	0.113	0.057
-645.741	347.010	-0.263	0.519
-644.726	-139.792	0.403	-0.043
-643.711	-200.000	0.000	-0.081
-642.697	-186.271	0.190	0.003
-641.682	6.451	-0.116	0.086
-640.668	-53.693	-0.111	-0.051
-639.653	-93.736	-0.100	0.028
-638.638	25.834	0.088	0.073
-637.624	53.505	-0.107	0.103
-636.609	-126.041	-0.340	0.051
-635.595	-12.642	0.151	-0.099
-634.580	-200.000	0.013	0.162
-633.565	-53.365	-0.092	0.042
-632.551	55.313	-0.276	0.267
-631.536	74.524	-0.182	-0.191
-630.522	800.000	-0.084	-0.255
-629.507	119.028	-0.129	0.159
-628.492	301.636	-0.108	-0.199
-627.478	631.430	-0.167	-0.422
-626.463	75.464	0.051	0.054
-625.449	25.456	0.143	-0.119
-624.434	191.661	-0.133	0.200
-623.419	-136.309	0.137	-0.016
-622.405	202.724	0.308	0.475
-621.390	-190.789	0.233	-0.002
-620.376	139.818	0.074	-0.097
-619.361	-40.488	-0.221	-0.115
-618.346	-200.000	0.016	-0.078
-617.332	196.019	-0.121	0.184
-616.317	-140.678	-0.157	-0.016
-615.303	60.721	-0.241	0.239
-614.288	-24.392	0.222	0.132
-613.273	-176.795	-0.051	-0.001
-612.259	-36.349	-0.080	0.043
-611.244	-63.962	-0.079	0.032
-610.230	-59.531	-0.358	-0.154
-609.215	-94.031	-0.271	-0.074
-608.201	-82.155	-0.181	0.059
-607.186	-4.934	0.127	-0.087
-606.171	800.000	-0.019	0.077
-605.157	-149.793	0.331	-0.026
-604.142	-200.000	-0.020	0.119
-603.128	-200.000	0.051	-0.460
-602.113	-20.432	-0.330	-0.203
-601.098	34.203	-0.159	-0.138
-600.084	-200.000	-0.023	-0.188
-599.069	-200.000	-0.054	-0.353
-598.055	-101.146	-0.354	0.087
-597.040	-83.336	0.193	-0.062
-596.025	-200.000	0.050	-0.308
-595.011	54.955	-0.188	0.181
-593.996	-200.000	-0.036	-0.241
-592.982	-150.596	0.125	0.010
-591.967	800.000	-0.048	0.190
-590.952	-41.669	-0.261	0.134
-589.938	112.881	0.062	-0.075
-588.923	-86.013	0.252	-0.078
-587.909	-23.660	-0.338	0.202
-586.894	-109.717	0.266	-0.056
-585.879	315.551	-0.185	-0.349
-584.865	23.835	0.187	0.154
-583.850	-109.647	0.310	0.065
-582.836	-200.000	0.006	0.030
-581.821	800.000	0.045	0.197
-580.806	-111.058	0.143	-0.029
-579.792	-125.328	-0.135	0.021
-578.777	-91.182	-0.271	-0.077
-577.763	284.617	-0.147	-0.265
-576.748	287.224	0.016	-0.029
-575.733	359.027	0.075	-0.150
-574.719	-200.000	-0.065	0.310
-573.704	291.023	0.068	-0.123
-572.690	-144.873	-0.418	0.038
-571.675	95.931	0.065	-0.074
-570.661	-65.100	0.136	-0.055
-569.646	133.844	-0.198	0.256
-568.631	-129.895	-0.054	0.007
-567.617	137.365	-0.081	0.106
-566.602	-69.655	-0.290	0.111
-565.588	800.000	-0.044	0.177
-564.573	158.882	-0.213	-0.295
-563.558	-200.000	-0.002	-0.089
-562.544	-43.077	0.138	0.070
-561.529	-200.000	-0.069	0.350
-560.515	-151.905	-0.267	0.020
-559.500	69.381	0.140	-0.144
-558.485	-200.000	0.003	-0.099
-557.471	800.000	-0.028	-0.119
-556.456	-200.000	0.043	0.293
-555.442	-40.307	-0.435	0.225
-554.427	-151.356	-0.239	0.018
-553.412	-161.125	-0.526	0.027
-552.398	-117.046	0.331	-0.060
-551.383	800.000	-0.027	-0.080
-550.369	-85.349	0.499	-0.155
-549.354	53.309	0.458	0.438
-548.339	-90.708	-0.129	-0.037
-547.325	-145.146	0.285	-0.026
-546.310	800.000	0.108	-0.401
-545.296	-16.800	-0.155	-0.098
-544.281	-7.880	0.085	-0.057
-543.266	-200.000	-0.018	-0.178
-542.252	46.656	0.300	0.278
-541.237	-200.000	-0.013	0.249
-540.223	180.049	-0.063	-0.093
-539.208	72.230	-0.032	0.033
-538.193	-65.990	-0.177	0.070
-537.179	-200.000	0.004	-0.150
-536.164	-200.000	-0.008	0.123
-535.150	101.278	0.147	-0.171
-534.135	292.232	0.152	0.275
-533.121	-4.098	-0.065	0.045
-532.106	199.980	-0.216	0.330
-531.091	-92.593	0.186	0.052
-530.077	-71.140	-0.235	0.088
-529.062	240.733	-0.216	0.360
-528.048	-109.539	-0.138	-0.029
-527.033	331.315	0.117	-0.225
-526.018	36.083	0.055	-0.048
-525.004	800.000	0.098	-0.361
-523.989	-53.140	0.286	-0.131
-522.975	30.594	0.046	-0.039
-521.960	-112.830	0.346	-0.068
-520.945	-200.000	0.016	-0.220
-519.931	-129.713	0.235	0.032
-518.916	737.454	0.127	-0.338
-517.902	113.667	-0.030	-0.036
-516.887	-56.259	-0.171	0.076
-515.872	-129.796	-0.185	-0.025
-514.858	-200.000	0.012	-0.263
-513.843	-69.000	-0.124	-0.048
-512.829	-200.000	0.002	-0.152
-511.814	-200.000	0.028	-0.267
-510.799	-200.000	-0.006	-0.220
-509.785	-116.065	-0.083	-0.015
-508.770	-200.000	0.009	0.172
-507.756	-117.729	-0.235	0.042
-506.741	-158.744	-0.067	0.004
-505.726	-56.350	-0.341	0.151
-504.712	118.398	0.032	-0.040
-503.697	680.188	0.042	0.108
-502.683	-125.782	-0.344	0.052
-501.668	-36.733	-0.464	0.248
-500.653	-40.233	0.064	0.033
-499.639	55.212	-0.023	-0.022
-498.624	800.000	-0.036	0.153
-497.610	564.213	0.058	0.139
-496.595	800.000	-0.048	0.150
-495.581	-200.000	0.003	-0.310
-494.566	-86.945	0.648	-0.196
-493.551	-72.932	0.179	0.066
-492.537	-200.000	-0.027	0.134
-491.522	-1.181	-0.115	0.081
-490.508	-200.000	-0.053	0.324
-489.493	-200.000	0.021	-0.306
-488.478	411.305	0.054	0.114
-487.464	323.464	0.072	0.137
-486.449	-130.043	0.345	0.047
-485.435	-68.088	-0.226	0.088
-484.420	800.000	-0.058	-0.171
-483.405	-107.503	0.205	0.045
-482.391	97.346	0.235	-0.268
-481.376	-89.141	-0.173	-0.051
-480.362	-49.007	0.224	0.107
-479.347	-48.558	-0.154	-0.073
-478.332	-200.000	0.025	-0.379
-477.318	125.508	0.124	-0.155
-476.303	-200.000	0.007	0.091
-475.289	602.653	0.083	0.205
-474.274	-84.708	-0.183	0.057
-473.259	88.206	-0.112	0.124
-472.245	800.000	-0.047	-0.135
-471.230	5.109	-0.123	-0.090
-470.216	260.543	-0.169	-0.291
-469.201	-83.404	-0.149	0.047
-468.186	-200.000	-0.053	-0.249
-467.172	684.501	0.139	-0.361
-466.157	800.000	-0.107	-0.315
-465.143	7.900	0.153	-0.114
-464.128	209.518	-0.155	0.241
-463.113	-200.000	0.011	0.216
-462.099	8.643	-0.178	0.133
-461.084	-200.000	-0.010	-0.171
-460.070	-200.000	0.002	-0.125
-459.055	800.000	-0.056	0.169
-458.040	18.032	-0.060	0.047
-457.026	800.000	0.003	0.012
-456.011	-73.808	0.196	0.071
-454.997	11.573	0.170	0.130
-453.982	-39.205	0.349	-0.182
-452.968	800.000	-0.077	-0.272
-451.953	158.320	-0.148	0.204
-450.938	-19.229	0.243	-0.150
-449.924	353.070	-0.060	0.117
-448.909	-200.000	0.088	-0.540
-447.895	-68.003	-0.305	-0.118
-446.880	652.763	-0.090	-0.230
-445.865	299.476	-0.251	-0.458
-444.851	800.000	-0.046	0.181
-443.836	158.250	0.209	-0.287
-442.822	59.602	0.224	-0.220
-441.807	53.648	-0.113	-0.107
-440.792	289.962	-0.095	-0.171
-439.778	-162.263	-0.451	0.022
-438.763	12.423	0.267	-0.204
-437.749	27.606	-0.126	0.105
-436.734	15.706	0.147	0.115
-435.719	507.507	0.044	-0.102
-434.705	273.799	0.141	-0.247
-433.690	8.448	-0.013	-0.010
-432.676	9.227	0.369	0.277
-431.661	-8.828	0.186	0.124
-430.646	14.747	-0.197	0.153
-429.632	800.000	0.081	-0.241
-428.617	-102.464	-0.299	-0.071
-427.603	154.718	0.170	0.232
-426.588	-200.000	-0.048	-0.378
-425.573	106.296	0.073	0.085
-424.559	-200.000	0.004	-0.216
-423.544	-200.000	0.024	-0.153
-422.530	477.540	0.060	-0.134
-421.515	-83.489	-0.140	0.044
-420.500	679.361	0.035	0.089
-419.486	-31.389	0.194	-0.108
-418.471	-148.425	0.253	0.021
-417.457	-200.000	0.008	-0.425
-416.442	-98.369	-0.218	-0.055
-415.428	-131.177	0.132	0.017
-414.413	-168.961	0.155	-0.006
-413.398	-200.000	0.038	-0.283
-412.384	-147.655	-0.188	0.016
-411.369	-111.244	0.277	0.056
-410.355	508.730	0.148	0.342
-409.340	-200.000	-0.051	0.259
-408.325	626.462	0.068	0.169
-407.311	-137.240	0.173	-0.020
-406.296	800.000	-0.028	0.117
-405.282	-37.305	-0.191	-0.101
-404.267	-124.246	0.289	-0.045
-403.252	-40.099	-0.260	0.134
-402.238	-200.000	0.025	0.224
-401.223	115.658	-0.191	-0.231
-400.209	-200.000	-0.016	0.227
-399.194	-147.697	0.224	-0.019
-398.179	-29.400	0.208	-0.118
-397.165	575.464	-0.062	0.151
-396.150	168.251	0.158	-0.224
-395.136	-200.000	0.051	-0.228
-394.121	19.104	-0.356	-0.283
-393.106	98.641	0.071	0.081
-392.092	-81.547	-0.205	0.067
-391.077	-105.505	0.314	-0.071
-390.063	301.096	0.047	0.086
-389.048	-200.000	0.041	0.241
-388.033	115.455	0.174	-0.210
-387.019	-200.000	0.023	-0.180
-386.004	-72.849	0.320	-0.116
-384.990	501.845	-0.098	-0.225
-383.975	532.820	0.117	0.275
-382.960	-57.967	-0.351	0.152
-381.946	-200.000	0.007	0.282
-380.931	188.542	-0.083	-0.123
-379.917	0.593	0.349	0.247
-378.902	800.000	0.042	0.151
-377.888	-125.021	0.347	-0.053
-376.873	-200.000	-0.038	-0.253
-375.858	268.742	0.110	-0.192
-374.844	178.903	-0.242	-0.351
-373.829	255.160	-0.087	0.147
-372.815	-191.404	-0.288	-0.003
-371.800	3.926	0.186	-0.134
-370.785	-40.645	-0.149	-0.076
-369.771	-36.097	0.175	-0.094
-368.756	-200.000	-0.022	-0.290
-367.742	-86.695	0.204	-0.062
-366.727	-200.000	-0.009	0.149
-365.712	-83.718	-0.361	0.114
-364.698	800.000	0.076	0.230
-363.683	135.183	0.128	0.164
-362.669	-200.000	-0.000	-0.136
-361.654	217.552	-0.224	0.353
-360.639	-32.078	0.389	0.216
-359.625	-53.653	-0.356	0.161
-358.610	-15.358	0.102	0.065
-357.596	-130.426	-0.330	-0.044
-356.581	-160.773	-0.256	-0.013
-355.566	173.395	-0.124	-0.177
-354.552	-114.740	0.215	-0.041
-353.537	800.000	0.204	0.621
-352.523	377.128	-0.064	0.129
-351.508	-92.877	-0.400	0.111
-350.493	800.000	0.055	0.195
-349.479	800.000	-0.008	-0.030
-348.464	-200.000	-0.014	0.218
-347.450	-78.411	-0.231	-0.078
-346.435	11.551	-0.104	0.079
-345.420	-200.000	0.027	0.185
-344.406	-55.350	-0.322	0.143
-343.391	-112.872	0.258	-0.051
-342.377	-114.453	0.108	-0.021
-341.362	121.232	-0.189	-0.233
-340.348	-149.268	0.341	-0.027
-339.333	56.002	0.276	-0.265
-338.318	642.655	-0.077	0.194
-337.304	-100.003	0.557	0.137
-336.289	-110.604	0.118	0.024
-335.275	146.387	0.157	-0.209
-334.260	800.000	-0.079	-0.323
-333.245	-138.316	-0.224	-0.024
-332.231	800.000	0.017	-0.071
-331.216	-200.000	0.057	0.442
-330.202	329.354	0.208	0.396
-329.187	-13.664	-0.179	0.114
-328.172	757.238	0.083	-0.222
-327.158	-200.000	0.021	0.102
-326.143	-200.000	0.000	0.195
-325.129	188.790	0.089	0.132
-324.114	71.764	0.256	-0.263
-323.099	-103.372	-0.130	0.030
-322.085	-29.527	0.168	-0.095
-321.070	257.238	0.073	-0.125
-320.056	-200.000	-0.042	-0.255
-319.041	-98.798	-0.267	0.067
-318.026	168.127	0.193	0.271
-317.012	-191.368	-0.183	0.002
-315.997	749.329	0.104	-0.277
-314.983	101.358	-0.078	0.089
-313.968	-100.086	0.239	0.059
-312.953	-76.426	-0.185	0.064
-311.939	34.851	-0.049	0.042
-310.924	800.000	-0.054	0.149
-309.910	-70.378	0.112	-0.042
-308.895	216.392	0.322	0.506
-307.880	341.314	-0.059	0.114
-306.866	800.000	-0.046	0.130
-305.851	519.121	-0.069	-0.160
-304.837	-131.710	-0.145	-0.019
-303.822	-144.973	-0.072	0.006
-302.807	-200.000	-0.040	0.182
-301.793	358.771	-0.093	-0.183
-300.778	-160.492	0.173	-0.009
-299.764	-110.120	-0.087	-0.018
-298.749	199.836	-0.195	0.295
-297.735	33.015	0.244	0.209
-296.720	-134.871	0.205	0.025
-295.705	134.626	0.105	-0.134
-294.691	90.461	-0.091	-0.100
-293.676	-90.584	-0.128	0.036
-292.662	21.848	0.105	-0.085
-291.647	-183.530	-0.126	-0.002
-290.632	77.243	0.095	-0.099
-289.618	-65.989	0.375	-0.148
-288.603	-95.372	-0.131	0.035
-287.589	800.000	0.083	0.349
-286.574	116.013	0.206	0.249
-285.559	800.000	0.092	-0.289
-284.545	800.000	0.095	-0.309
-283.530	-35.830	0.329	-0.176
-282.516	-69.069	0.349	-0.133
-281.501	148.606	0.071	0.095
-280.486	-26.403	-0.204	0.118
-279.472	-120.386	0.145	-0.024
-278.457	55.228	0.025	-0.024
-277.443	-93.720	-0.202	0.055
-276.428	-200.000	-0.048	-0.239
-275.413	800.000	0.048	0.140
-274.399	6.881	0.023	-0.017
-273.384	-200.000	0.003	-0.104
-272.370	36.142	-0.052	-0.045
-271.355	661.152	0.238	-0.604
-270.340	220.385	0.146	-0.230
-269.326	800.000	0.048	0.145
-268.311	53.895	0.203	0.192
-267.297	-200.000	-0.001	0.199
-266.282	-6.910	-0.196	-0.131
-265.267	800.000	-0.078	-0.218
-264.253	169.680	-0.119	-0.167
-263.238	-159.882	-0.073	-0.004
-262.224	800.000	-0.007	-0.021
-261.209	-4.713	0.182	-0.123
-260.195	634.103	0.135	-0.337
-259.180	-154.643	0.128	-0.008
-258.165	-160.301	-0.348	-0.019
-257.151	800.000	0.130	0.399
-256.136	-85.305	-0.288	0.089
-255.122	518.110	-0.118	0.272
-254.107	510.763	0.145	-0.333
-253.092	-37.785	0.144	-0.076
-252.078	-200.000	-0.019	0.094
-251.063	-200.000	0.008	0.034
-250.049	800.000	-0.037	0.125
-249.034	-115.205	0.376	0.070
-248.019	-159.985	-0.145	-0.008
-247.005	-43.069	0.194	0.097
-245.990	-28.259	-0.181	0.103
-244.976	800.000	0.043	0.174
-243.961	163.950	0.187	0.259
-242.946	800.000	-0.044	-0.125
-241.932	320.030	0.051	-0.096
-240.917	676.854	0.062	0.159
-239.903	44.210	0.149	0.135
-238.888	-39.863	-0.112	-0.058
-237.873	31.311	0.171	0.145
-236.859	-82.002	-0.332	0.107
-235.844	402.185	0.137	-0.284
-234.830	-7.765	-0.071	-0.047
-233.815	800.000	0.130	0.517
-232.800	97.200	-0.143	0.162
-231.786	-75.201	-0.346	0.122
-230.771	-130.673	0.157	0.021
-229.757	-87.621	-0.125	0.037
-228.742	-167.077	0.031	-0.001
-227.727	579.847	-0.115	0.277
-226.713	800.000	-0.089	-0.266
-225.698	-85.195	0.024	0.007
-224.684	-135.108	0.153	-0.018
-223.669	497.366	0.091	-0.207
-222.655	65.754	-0.204	0.203
-221.640	-138.572	0.376	-0.041
-220.625	291.799	0.161	-0.289
-219.611	-2.048	-0.138	-0.095
-218.596	-30.853	-0.145	0.081
-217.582	-48.963	0.281	0.133
-216.567	430.299	0.053	0.113
-215.552	-200.000	0.028	0.146
-214.538	-200.000	0.036	0.194
-213.523	-46.112	-0.155	-0.075
-212.509	-159.745	0.190	0.010
-211.494	73.792	-0.095	-0.098
-210.479	513.411	0.086	-0.197
-209.465	185.904	-0.127	-0.186
-208.450	169.950	-0.067	0.095
-207.436	-200.000	0.008	-0.071
-206.421	80.820	-0.067	0.071
-205.406	277.293	-0.168	-0.294
-204.392	-200.000	0.004	0.318
-203.377	65.473	-0.062	-0.062
-202.363	-200.000	-0.020	0.261
-201.348	314.158	0.210	0.388
-200.333	-30.979	0.139	0.077
-199.319	123.998	0.164	0.203
-198.304	-170.288	-0.110	0.004
-197.290	262.276	0.058	0.099
-196.275	-86.162	0.146	0.044
-195.260	800.000	0.034	0.097
-194.246	800.000	-0.149	-0.421
-193.231	800.000	0.035	-0.142
-192.217	51.093	-0.214	0.200
-191.202	-200.000	-0.055	-0.269
-190.187	-200.000	-0.011	0.150
-189.173	382.714	0.075	0.153
-188.158	800.000	0.134	0.429
-187.144	399.522	0.138	-0.283
-186.129	452.065	0.194	0.422
-185.114	60.582	0.367	-0.358
-184.100	-66.923	0.101	-0.039
-183.085	-200.000	-0.035	-0.354
-182.071	-177.508	0.114	-0.003
-181.056	-178.358	-0.158	0.004
-180.042	79.255	-0.113	0.119
-179.027	-150.770	0.230	-0.017
-178.012	65.318	0.168	-0.167
-176.998	62.154	0.213	-0.208
-175.983	-200.000	-0.003	0.087
-174.969	337.726	-0.154	0.294
-173.954	-200.000	0.001	-0.093
-172.939	590.048	-0.082	0.199
-171.925	-124.603	-0.418	-0.064
-170.910	800.000	-0.079	-0.255
-169.896	-9.069	-0.242	0.159
-168.881	-200.000	-0.011	0.084
-167.866	-97.805	-0.253	0.064
-166.852	-110.285	0.234	-0.048
-165.837	-83.326	-0.308	0.097
-164.823	49.692	-0.290	0.268
-163.808	-42.284	0.023	0.012
-162.793	145.038	-0.142	-0.186
-161.779	800.000	-0.003	-0.010
-160.764	-14.577	-0.285	-0.180
-159.750	223.108	0.142	0.225
-158.735	-110.321	0.048	-0.010
-157.720	268.536	0.045	0.078
-156.706	-200.000	-0.011	-0.129
-155.691	-110.186	0.316	0.065
-154.677	315.838	0.068	0.125
-153.662	-126.010	-0.102	0.015
-152.647	-127.612	-0.093	-0.013
-151.633	-200.000	-0.050	0.239
-150.618	-200.000	0.129	0.623
-149.604	103.870	0.243	-0.281
-148.589	-200.000	0.009	0.358
-147.574	115.336	-0.265	0.317
-146.560	-122.037	0.493	-0.079
-145.545	12.973	0.118	0.089
-144.531	-118.103	0.200	0.035
-143.516	440.765	-0.194	-0.416
-142.502	-118.582	-0.240	0.042
-141.487	-200.000	-0.006	0.095
-140.472	-200.000	-0.055	0.323
-139.458	-200.000	-0.016	0.085
-138.443	-111.191	0.215	0.043
-137.429	-64.439	-0.139	0.056
-136.414	51.302	0.116	0.108
-135.399	-167.980	0.071	-0.003
-134.385	-200.000	-0.061	0.329
-133.370	-116.610	0.190	-0.034
-132.356	-145.487	-0.304	0.027
-131.341	-200.000	-0.029	-0.171
-130.326	636.541	-0.048	0.121
-129.312	800.000	-0.186	0.527
-128.297	264.120	0.209	-0.357
-127.283	27.342	0.068	0.056
-126.268	-13.893	0.314	-0.199
-125.253	191.046	0.148	0.218
-124.239	299.709	-0.063	-0.113
-123.224	314.675	0.023	-0.043
-122.210	33.138	-0.165	0.141
-121.195	800.000	0.111	-0.359
-120.180	-47.003	-0.328	-0.157
-119.166	82.254	-0.243	0.258
-118.151	-95.657	-0.254	-0.067
-117.137	-200.000	0.009	0.088
-116.122	800.000	0.051	-0.144
-115.107	-200.000	0.023	0.161
-114.093	121.045	-0.229	-0.279
-113.078	57.841	-0.107	0.103
-112.064	-200.000	-0.017	-0.168
-111.049	800.000	-0.029	0.098
-110.034	-74.650	-0.141	0.050
-109.020	-103.285	0.140	-0.032
-108.005	-45.206	-0.041	-0.020
-106.991	120.011	0.157	-0.190
-105.976	167.015	0.120	-0.167
-104.962	45.182	0.110	0.100
-103.947	-99.632	0.081	0.020
-102.932	-200.000	0.011	-0.170
-101.918	-114.427	-0.201	0.038
-100.903	-49.349	-0.274	-0.128
-99.889	409.347	0.105	0.218
-98.874	185.823	0.120	0.175
-97.859	349.620	-0.183	0.354
-96.845	-93.440	0.254	0.069
-95.830	-75.709	0.173	0.060
-94.816	-34.458	0.181	0.097
-93.801	-10.515	-0.186	0.121
-92.786	-24.488	0.024	-0.014
-91.772	17.013	0.197	0.153
-90.757	189.103	0.103	0.152
-89.743	-200.000	-0.015	0.325
-88.728	84.644	0.109	-0.117
-87.713	73.811	0.260	0.266
-86.699	245.872	0.127	-0.210
-85.684	302.170	-0.114	0.207
-84.670	-39.579	0.126	-0.065
-83.655	-196.423	0.170	-0.001
-82.640	421.283	0.093	-0.196
-81.626	-200.000	-0.031	0.153
-80.611	9.035	-0.437	0.323
-79.597	-47.157	0.194	0.093
-78.582	152.307	0.139	-0.186
-77.567	-200.000	0.031	-0.147
-76.553	-29.359	0.171	0.096
-75.538	152.895	0.199	0.266
-74.524	625.873	-0.117	0.290
-73.509	-59.521	0.120	0.050
-72.494	-37.232	-0.300	0.157
-71.480	800.000	0.014	0.038
-70.465	19.943	0.229	-0.181
-69.451	-1.543	0.168	-0.116
-68.436	4.594	0.112	-0.080
-67.422	212.615	0.132	0.203
-66.407	-172.614	-0.489	-0.015
-65.392	-200.000	0.007	0.055
-64.378	24.267	0.331	0.267
-63.363	-26.291	0.198	0.113
-62.349	276.850	0.071	0.124
-61.334	237.773	-0.721	-1.170
-60.319	776.869	0.239	0.637
-59.305	800.000	-0.359	-1.012
-58.290	304.718	0.695	1.262
-57.276	315.785	0.672	1.240
-56.261	-200.000	116.862	651.573
-55.246	513.195	1539.860	3509.667
-54.232	175.671	2710.304	3843.136
-53.217	106.883	2158.836	2505.876
-52.203	38.311	1592.884	1386.948
-51.188	29.918	1335.246	1112.390
-50.173	27.101	1296.661	1063.736
-49.159	53.821	1354.521	1271.832
-48.144	52.113	1368.058	1274.297
-47.130	30.281	1322.218	1103.524
-46.115	26.815	1304.709	1068.482
-45.100	26.542	1299.317	1062.425
-44.086	26.421	1297.401	1060.103
-43.071	26.519	1294.339	1058.136
-42.057	26.490	1292.485	1056.410
-41.042	26.519	1291.053	1055.365
-40.027	26.575	1289.311	1054.224
-39.013	26.478	1287.637	1052.248
-37.998	26.583	1285.623	1051.170
-36.984	26.536	1284.309	1049.783
-35.969	26.748	1282.038	1049.112
-34.954	26.724	1280.769	1047.891
-33.940	26.692	1278.866	1046.111
-32.925	26.785	1277.540	1045.520
-31.911	26.735	1276.297	1044.171
-30.896	26.787	1274.597	1043.040
-29.881	26.670	1273.605	1041.514
-28.867	26.849	1272.115	1041.284
-27.852	26.861	1270.526	1040.011
-26.838	26.782	1269.267	1038.485
-25.823	26.611	1268.711	1037.008
-24.809	26.694	1266.457	1035.602
-23.794	26.722	1265.177	1034.670
-22.779	26.636	1264.085	1033.248
-21.765	26.611	1263.362	1032.474
-20.750	26.830	1261.396	1032.071
-19.736	26.672	1260.295	1030.234
-18.721	26.585	1259.693	1029.207
-17.706	26.490	1258.213	1027.413
-16.692	26.585	1257.078	1026.987
-15.677	26.602	1255.943	1026.115
-14.663	26.580	1254.521	1024.790
-13.648	26.652	1253.403	1024.239
-12.633	26.591	1252.715	1023.291
-11.619	26.506	1251.901	1022.109
-10.604	26.579	1251.080	1021.809
-9.590	26.481	1250.355	1020.623
-8.575	26.663	1248.821	1020.356
-7.560	26.564	1248.207	1019.257
-6.546	26.536	1247.545	1018.520
-5.531	26.588	1246.274	1017.729
-4.517	26.539	1245.809	1017.037
-3.502	26.678	1244.656	1016.837
-2.487	26.587	1244.175	1015.893
-1.473	26.574	1239.604	1012.048
-0.458	25.111	1224.938	991.942
0.556	22.047	1208.311	955.590
1.571	18.545	1214.926	941.542
2.586	17.701	1230.303	948.680
3.600	17.263	1218.310	936.933
4.615	13.068	1146.844	860.086
5.629	6.301	1075.985	773.699
6.644	3.450	1058.538	747.284
7.659	3.302	1056.297	744.915
8.673	3.154	1055.066	743.268
9.688	3.264	1053.844	742.875
10.702	3.448	1051.979	742.380
11.717	7.390	1056.668	764.657
12.731	14.549	1067.391	807.099
13.746	19.017	1072.387	832.477
14.761	19.553	1072.962	835.445
15.775	18.843	1071.093	830.486
16.790	17.831	1069.209	824.066
17.804	17.076	1067.517	819.047
18.819	16.790	1066.613	816.902
19.834	16.731	1065.471	815.670
20.848	16.562	1065.229	814.601
21.863	16.266	1064.501	812.549
22.877	16.170	1063.237	811.048
23.892	16.080	1062.879	810.270
24.907	16.140	1062.255	810.014
25.921	16.226	1061.169	809.523
26.936	16.154	1060.027	808.235
27.950	16.154	1058.637	807.104
28.965	16.416	1056.461	806.624
29.980	16.418	1055.541	805.861
30.994	16.463	1054.297	805.056
32.009	16.511	1053.421	804.545
33.023	16.479	1052.490	803.608
34.038	16.375	1051.258	802.104
35.053	16.139	1050.712	800.497
36.067	16.419	1048.900	800.373
37.082	16.348	1048.671	799.790
38.096	16.471	1048.112	799.873
39.111	16.464	1047.284	799.139
40.126	16.192	1045.729	796.598
41.140	16.074	1044.531	795.059
42.155	15.998	1043.156	793.583
43.169	15.927	1042.099	792.374
44.184	15.797	1041.527	791.260
45.199	15.932	1040.107	790.741
46.213	16.177	1038.986	790.972
47.228	16.274	1038.536	791.011
48.242	16.322	1037.229	790.170
49.257	16.253	1036.417	789.158
50.271	16.199	1035.701	788.294
51.286	16.314	1035.213	788.390
52.301	16.305	1033.914	787.289
53.315	16.195	1032.541	785.659
54.330	16.105	1031.980	784.746
55.344	16.183	1030.439	783.867
56.359	16.138	1030.006	783.260
57.374	16.110	1028.743	782.098
58.388	15.972	1027.878	780.734
59.403	15.959	1027.349	780.202
60.417	15.861	1026.694	779.179
61.432	16.062	1024.880	778.664
62.447	15.935	1024.486	777.709
63.461	15.699	1024.274	776.392
64.476	15.752	1022.895	775.522
65.490	15.779	1021.881	774.809
66.505	15.860	1021.365	774.722
67.520	15.943	1020.576	774.433
68.534	15.853	1020.288	773.733
69.549	15.817	1019.387	772.815
70.563	15.924	1018.027	772.208
71.578	15.712	1017.281	770.603
72.593	15.710	1016.822	770.179
73.607	15.733	1015.992	769.588
74.622	15.704	1015.546	769.050
75.636	15.674	1014.914	768.365
76.651	15.786	1014.163	768.240
77.666	15.713	1013.288	767.175
78.680	15.896	1012.466	767.319
79.695	15.784	1012.162	766.512
80.709	15.907	1011.793	766.725
81.724	15.991	1010.965	766.409
82.739	15.979	1010.293	765.777
83.753	16.356	1009.133	766.545
84.768	16.438	1008.586	766.430
85.782	16.473	1008.183	766.217
86.797	16.413	1006.699	764.749
87.812	16.299	1006.124	763.727
88.826	16.195	1005.191	762.483
89.841	16.416	1004.035	762.535
90.855	16.461	1003.457	762.232
91.870	16.484	1002.455	761.510
92.884	16.330	1001.618	760.110
93.899	16.553	1000.564	760.247
94.914	16.570	999.772	759.654
95.928	16.458	998.868	758.395
96.943	16.485	997.927	757.736
97.957	16.420	997.199	756.827
98.972	16.415	996.258	756.023
99.987	16.412	995.707	755.523
101.001	16.396	994.553	754.510
102.016	16.410	993.719	753.872
103.030	16.402	992.713	753.007
104.045	16.379	992.209	752.456
105.060	16.280	991.515	751.423
106.074	16.262	989.938	750.083
107.089	16.026	988.798	748.104
108.103	15.880	988.091	746.857
109.118	15.936	987.456	746.559
110.133	15.947	986.236	745.616
111.147	15.904	985.683	744.944
112.162	15.945	985.098	744.618
113.176	16.022	984.087	744.127
114.191	16.123	983.419	743.999
115.206	16.056	982.993	743.316
116.220	16.141	981.589	742.566
117.235	16.071	980.657	741.488
118.249	15.962	979.864	740.341
119.264	16.014	979.287	740.069
120.279	16.003	978.284	739.195
121.293	15.918	977.423	738.106
122.308	15.877	976.936	737.497
123.322	15.829	975.588	736.202
124.337	15.835	974.404	735.270
125.352	15.846	973.758	734.768
126.366	15.828	972.553	733.715
127.381	15.850	971.553	732.991
128.395	15.886	970.350	732.175
129.410	15.880	969.523	731.459
130.424	15.986	968.928	731.408
131.439	16.078	968.270	731.244
132.454	16.058	967.239	730.313
133.468	16.014	966.731	729.675
134.483	16.102	965.737	729.240
135.497	16.237	964.696	728.974
136.512	16.039	964.038	727.556
137.527	15.916	963.904	726.858
138.541	16.108	962.862	726.838
139.556	16.264	961.987	726.784
140.570	16.364	961.285	726.622
141.585	16.566	960.624	726.925
142.600	16.452	959.645	725.630
143.614	16.480	958.944	725.157
144.629	16.435	958.376	724.469
145.643	16.481	957.432	723.889
146.658	16.327	956.167	722.211
147.673	16.294	955.347	721.386
148.687	16.156	954.466	720.068
149.702	16.311	953.450	719.898
150.716	16.121	952.673	718.436
151.731	16.075	952.074	717.729
152.746	16.326	951.149	718.034
153.760	16.226	950.711	717.213
154.775	16.282	950.367	717.129
155.789	16.397	949.635	717.001
156.804	16.398	949.200	716.612
157.819	16.485	948.359	716.283
158.833	16.565	947.708	716.069
159.848	16.742	946.871	716.123
160.862	16.444	945.732	713.937
161.877	16.338	944.533	712.520
162.892	16.102	943.567	710.736
163.906	16.184	942.696	710.362
164.921	16.354	941.755	710.306
165.935	16.222	941.283	709.330
166.950	16.435	940.179	709.330
167.964	16.406	939.794	708.855
168.979	16.227	938.512	707.075
169.994	16.321	937.843	706.903
171.008	16.399	937.347	706.792
172.023	16.746	936.238	707.346
173.037	16.591	935.790	706.295
174.052	16.534	934.808	705.252
175.067	16.247	934.553	703.801
176.081	16.229	933.796	703.095
177.096	16.185	933.157	702.368
178.110	16.209	932.928	702.234
179.125	16.379	931.957	702.147
180.140	16.384	931.465	701.734
181.154	16.625	930.990	702.316
182.169	16.598	930.646	701.883
183.183	16.651	930.143	701.663
184.198	16.785	929.098	701.363
185.213	16.750	928.282	700.543
186.227	16.830	927.797	700.443
187.242	16.748	927.684	699.958
188.256	16.788	927.118	699.634
189.271	16.757	926.020	698.616
190.286	16.514	925.067	696.835
191.300	16.348	924.459	695.633
192.315	16.209	923.364	694.174
193.329	16.445	922.964	694.782
194.344	16.361	922.547	694.062
195.359	16.479	921.862	693.968
196.373	16.677	921.224	694.240
197.388	16.726	921.151	694.325
198.402	16.870	920.641	694.470
199.417	16.974	920.069	694.402
200.432	17.099	919.334	694.295
201.446	17.096	918.539	693.621
202.461	17.103	918.368	693.458
203.475	17.053	917.680	692.674
204.490	16.854	916.974	691.268
205.504	16.885	915.911	690.534
206.519	16.853	915.267	689.856
207.534	16.735	914.874	689.018
208.548	16.839	913.981	688.709
209.563	16.913	913.515	688.596
210.577	16.990	912.992	688.455
211.592	16.963	912.218	687.699
212.607	17.076	911.349	687.442
213.621	17.128	910.464	686.925
214.636	17.008	910.049	686.064
215.650	17.094	909.380	685.846
216.665	17.172	909.048	685.851
217.680	17.079	908.578	685.059
218.694	17.350	907.317	685.139
219.709	17.233	906.699	684.140
220.723	17.234	906.038	683.588
221.738	17.063	905.476	682.416
222.753	17.074	905.209	682.198
223.767	17.292	903.992	682.096
224.782	17.367	903.811	682.198
225.796	17.460	903.275	682.108
226.811	17.300	902.334	680.695
227.826	17.241	901.799	679.994
228.840	17.206	900.546	678.849
229.855	17.251	899.741	678.364
230.869	17.062	899.197	677.141
231.884	17.086	898.394	676.569
232.899	17.090	897.566	675.903
233.913	16.971	897.454	675.285
234.928	17.045	896.504	674.805
235.942	16.942	896.230	674.131
236.957	17.022	895.733	674.012
237.972	16.874	895.368	673.092
238.986	17.076	894.428	673.128
240.001	16.998	893.833	672.309
241.015	17.175	893.013	672.335
242.030	17.158	892.697	671.970
243.045	17.315	891.966	671.983
244.059	17.246	891.282	671.134
245.074	17.399	890.725	671.258
246.088	17.538	889.652	670.937
247.103	17.481	889.430	670.485
248.117	17.493	889.221	670.317
249.132	17.709	888.914	670.875
250.147	17.792	888.139	670.557
251.161	17.886	887.335	670.261
252.176	18.011	886.832	670.311
253.190	17.881	886.148	669.225
254.205	17.788	885.607	668.393
255.220	17.991	884.458	668.261
256.234	17.904	884.382	667.806
257.249	17.888	883.863	667.293
258.263	17.866	882.648	666.229
259.278	17.809	882.015	665.473
260.293	17.984	881.722	665.875
261.307	18.089	881.449	666.017
262.322	17.972	880.660	664.906
263.336	18.134	879.651	664.715
264.351	18.089	879.413	664.303
265.366	18.047	878.931	663.717
266.380	18.081	877.953	663.051
267.395	18.035	877.402	662.398
268.409	17.785	876.585	660.755
269.424	17.948	875.879	660.795
270.439	17.891	874.888	659.769
271.453	17.777	874.070	658.651
272.468	17.983	873.871	659.241
273.482	17.957	873.275	658.631
274.497	18.082	872.267	658.296
275.512	17.840	872.190	657.245
276.526	17.956	871.581	657.176
277.541	17.946	871.012	656.650
278.555	18.145	870.267	656.793
279.570	18.275	870.011	657.041
280.585	18.223	869.507	656.405
281.599	18.230	868.088	655.300
282.614	17.998	867.920	654.229
283.628	18.112	867.035	653.938
284.643	18.109	866.512	653.474
285.657	18.094	865.821	652.840
286.672	18.213	865.240	652.799
287.687	18.208	864.773	652.368
288.701	18.172	864.109	651.673
289.716	18.232	863.538	651.414
290.730	18.262	862.959	651.031
291.745	18.216	862.340	650.334
292.760	18.339	861.449	650.070
293.774	18.543	861.281	650.660
294.789	18.441	860.437	649.580
295.803	18.269	859.764	648.362
296.818	18.439	858.790	648.214
297.833	18.447	858.367	647.868
298.847	18.445	857.821	647.390
299.862	18.318	857.550	646.648
300.876	18.333	856.989	646.224
301.891	18.446	856.492	646.220
302.906	18.542	856.121	646.241
303.920	18.620	855.592	646.080
304.935	18.784	854.820	646.058
305.949	18.593	854.403	644.965
306.964	18.693	853.492	644.597
307.979	18.696	852.939	644.135
308.993	18.704	852.473	643.754
310.008	18.667	852.142	643.309
311.022	18.642	851.453	642.639
312.037	18.618	850.337	641.649
313.052	18.504	850.191	641.058
314.066	18.346	849.405	639.816
315.081	18.283	848.965	639.193
316.095	18.264	848.319	638.580
317.110	18.334	847.979	638.528
318.125	18.455	847.279	638.394
319.139	18.415	846.951	637.945
320.154	18.442	846.733	637.822
321.168	18.463	845.979	637.276
322.183	18.529	845.140	636.834
323.197	18.487	845.133	636.617
324.212	18.446	844.349	635.816
325.227	18.560	843.506	635.547
326.241	18.533	842.959	634.980
327.256	18.301	842.488	633.710
328.270	18.399	841.696	633.420
329.285	18.502	841.025	633.241
330.300	18.643	840.542	633.340
331.314	18.535	840.475	632.835
332.329	18.563	840.059	632.572
333.343	18.695	839.316	632.442
334.358	18.852	838.982	632.710
335.373	18.757	838.532	631.967
336.387	18.825	838.475	632.118
337.402	18.850	838.083	631.858
338.416	19.077	837.904	632.500
339.431	18.992	837.291	631.670
340.446	19.158	837.190	632.148
341.460	19.148	836.500	631.536
342.475	19.051	836.465	631.095
343.489	19.174	836.053	631.182
344.504	19.314	835.148	630.954
345.519	19.271	834.901	630.553
346.533	19.143	834.484	629.715
347.548	19.170	833.761	629.214
348.562	19.044	833.066	628.174
349.577	18.945	832.513	627.340
350.592	18.943	831.490	626.504
351.606	19.094	830.725	626.425
352.621	18.961	830.279	625.548
353.635	18.967	829.797	625.152
354.650	18.877	829.505	624.547
355.665	19.090	828.916	624.824
356.679	19.039	828.586	624.335
357.694	19.074	827.681	623.724
358.708	19.030	827.143	623.104
359.723	19.121	826.548	622.930
360.738	19.113	825.768	622.258
361.752	19.053	825.245	621.592
362.767	19.305	824.696	622.032
363.781	19.299	824.287	621.649
364.796	19.565	823.604	622.037
365.810	19.471	823.721	621.730
366.825	19.546	823.448	621.740
367.840	19.600	822.557	621.207
368.854	19.471	821.827	620.137
369.869	19.490	821.338	619.779
370.883	19.484	821.102	619.525
371.898	19.545	821.035	619.639
372.913	19.664	820.474	619.587
373.927	19.555	819.962	618.758
374.942	19.429	819.609	617.984
375.956	19.650	818.838	618.138
376.971	19.697	818.667	618.122
377.986	19.828	818.130	618.133
379.000	19.779	817.820	617.668
380.015	19.662	817.315	616.814
381.029	19.783	816.785	616.790
382.044	19.725	815.989	615.927
383.059	19.817	815.544	615.865
384.073	19.735	814.741	614.911
385.088	19.718	813.802	614.088
386.102	19.587	813.325	613.210
387.117	19.572	812.807	612.710
388.132	19.600	812.419	612.464
389.146	19.713	812.041	612.524
390.161	19.762	811.756	612.430
391.175	19.746	811.387	612.040
392.190	19.696	810.345	611.024
393.205	19.698	809.951	610.680
394.219	19.606	809.802	610.190
395.234	19.665	809.140	609.842
396.248	19.577	808.772	609.201
397.263	19.488	808.256	608.448
398.278	19.507	807.897	608.190
399.292	19.688	807.161	608.220
400.307	19.562	806.832	607.473
401.321	19.513	806.517	607.009
402.336	19.584	806.058	606.859
403.350	19.747	805.492	606.952
404.365	19.738	805.217	606.662
405.380	19.957	805.054	607.251
406.394	19.953	804.333	606.638
407.409	20.155	803.761	606.861
408.423	20.103	804.106	606.887
409.438	20.181	803.134	606.371
410.453	20.121	802.759	605.825
411.467	20.047	802.791	605.537
412.482	20.305	801.950	605.750
413.496	20.295	801.907	605.628
414.511	20.270	801.197	604.951
415.526	20.142	800.837	604.181
416.540	20.263	800.282	604.132
417.555	20.261	799.743	603.661
418.569	20.153	799.418	602.989
419.584	20.331	799.036	603.264
420.599	20.244	798.537	602.533
421.613	162.160	1372.765	1797.662
422.628	140.736	1456.388	1797.730
