DTS Sentinel unit serial number:	SN413079Multiplexer serial number:	ORYXHardware model number:	OX4-SRSoftware version number:	ORYX F/W v4.00 Oryx Data Collector v3.7.2.0data status	okinstallation	princeton_trtdifferential loss correction	single-endedforward channel	channel 1reverse channel	N/Adate	2019/09/10time	17:48:11forward acquisition time	60.00reverse acquisition time	0.00gamma	496.2192k internal	0.2300k external	0.2300temperature offset calibration	0.9930default loss term (dB/km)	0.3790temperature slope calibration	1.0000multiplexer offset coefficient	1.0000multiplexer slope coefficient	1.0000fibre end	0.00T internal ref (°C)	37.48T ext. ref 1 (°C)	-0.32T ext. ref 2 (°C)	30.31length (m)	temperature (°C)	Stokes	anti-Stokes-747.200	-117.227	-0.053	-0.010
-746.185	-200.000	0.008	0.066
-745.171	107.824	0.142	-0.172
-744.156	-200.000	-0.195	-0.000
-743.142	86.775	-0.074	-0.084
-742.127	-78.046	0.100	-0.035
-741.112	-123.848	0.402	0.065
-740.098	657.386	-0.086	0.225
-739.083	-92.866	-0.164	0.047
-738.069	800.000	0.083	0.339
-737.054	-75.445	-0.076	-0.028
-736.039	-115.661	-0.520	0.099
-735.025	-15.648	0.066	-0.043
-734.010	-116.100	0.202	-0.038
-732.996	368.997	-0.081	-0.166
-731.981	204.959	-0.107	-0.170
-730.966	-171.502	-0.039	-0.001
-729.952	182.988	0.132	-0.199
-728.937	52.827	-0.326	-0.318
-727.923	800.000	0.043	0.151
-726.908	50.062	0.229	-0.220
-725.894	-93.486	-0.449	-0.127
-724.879	-25.099	-0.304	-0.184
-723.864	-200.000	0.025	0.204
-722.850	340.902	-0.076	0.151
-721.835	-12.975	-0.159	0.105
-720.821	-38.552	-0.228	-0.123
-719.806	-66.668	-0.162	0.065
-718.791	303.599	-0.270	-0.509
-717.777	-35.268	0.143	-0.079
-716.762	800.000	-0.003	-0.011
-715.748	84.824	-0.221	-0.247
-714.733	-200.000	0.016	0.167
-713.718	-89.726	0.146	0.044
-712.704	-82.026	-0.164	0.055
-711.689	7.638	-0.162	-0.123
-710.675	-110.955	0.241	0.050
-709.660	-200.000	0.033	-0.277
-708.645	-193.500	0.135	0.001
-707.631	-200.000	0.010	0.205
-706.616	-200.000	-0.030	0.377
-705.602	709.345	0.037	0.099
-704.587	800.000	-0.026	-0.094
-703.572	800.000	-0.101	-0.407
-702.558	-131.335	-0.230	-0.031
-701.543	-178.720	0.188	-0.004
-700.529	-94.296	-0.177	-0.049
-699.514	-93.266	0.189	0.053
-698.499	441.386	-0.122	0.272
-697.485	-10.454	-0.138	0.093
-696.470	-200.000	-0.004	-0.172
-695.456	-200.000	-0.020	0.245
-694.441	257.872	0.055	-0.097
-693.426	-200.000	0.002	-0.013
-692.412	99.531	0.051	-0.060
-691.397	-78.461	-0.346	0.121
-690.383	-179.111	-0.273	0.006
-689.368	-92.377	0.344	0.098
-688.354	800.000	0.105	0.423
-687.339	-138.783	0.142	-0.016
-686.324	291.980	0.039	0.073
-685.310	-154.018	-0.160	0.011
-684.295	324.704	0.042	-0.081
-683.281	333.925	-0.024	0.047
-682.266	-93.565	-0.152	-0.043
-681.251	154.540	0.095	0.133
-680.237	66.572	-0.125	-0.129
-679.222	800.000	0.079	-0.240
-678.208	-200.000	-0.000	-0.195
-677.193	-67.470	0.079	-0.032
-676.178	-97.533	0.302	-0.080
-675.164	-175.082	-0.092	-0.003
-674.149	105.699	-0.075	-0.091
-673.135	152.846	-0.127	0.176
-672.120	153.354	0.132	0.183
-671.105	-55.309	-0.149	0.068
-670.091	-200.000	0.011	-0.261
-669.076	-36.540	-0.150	-0.082
-668.062	29.656	-0.160	0.138
-667.047	-200.000	-0.033	0.232
-666.032	290.154	0.113	-0.208
-665.018	96.018	-0.051	0.059
-664.003	-42.195	-0.227	-0.118
-662.989	-200.000	0.017	0.175
-661.974	-200.000	-0.005	-0.082
-660.959	-200.000	0.050	-0.239
-659.945	-99.935	0.280	0.071
-658.930	344.171	0.064	0.128
-657.916	208.904	-0.109	0.174
-656.901	257.242	0.126	-0.220
-655.886	-200.000	-0.008	-0.272
-654.872	-51.466	-0.244	-0.116
-653.857	-53.108	-0.256	0.119
-652.843	-61.731	-0.189	-0.080
-651.828	-200.000	-0.007	-0.085
-650.814	-127.226	0.039	0.006
-649.799	-11.989	-0.185	-0.123
-648.784	-89.128	-0.084	-0.025
-647.770	18.017	0.113	0.092
-646.755	105.028	0.168	0.202
-645.741	-21.364	-0.048	-0.030
-644.726	-28.166	-0.069	0.041
-643.711	-106.424	0.271	-0.062
-642.697	800.000	-0.032	-0.130
-641.682	85.149	-0.279	-0.311
-640.668	-48.181	-0.396	0.194
-639.653	800.000	-0.042	-0.171
-638.638	236.321	0.101	-0.169
-637.624	-200.000	-0.061	-0.315
-636.609	-200.000	0.013	0.097
-635.595	-186.485	-0.348	-0.005
-634.580	153.096	0.171	0.238
-633.565	-200.000	-0.001	0.060
-632.551	-200.000	-0.361	-0.001
-631.536	203.846	-0.042	0.066
-630.522	65.611	0.144	0.148
-629.507	-141.705	-0.287	-0.029
-628.492	-200.000	-0.042	-0.327
-627.478	-43.069	0.218	0.112
-626.463	800.000	-0.036	0.132
-625.449	-111.506	-0.119	-0.024
-624.434	-200.000	-0.044	0.410
-623.419	145.397	0.043	0.058
-622.405	-70.859	-0.176	-0.067
-621.390	447.414	0.124	-0.277
-620.376	-146.180	-0.257	0.023
-619.361	-93.290	0.239	-0.067
-618.346	-31.782	-0.122	0.069
-617.332	267.874	-0.216	0.383
-616.317	-200.000	-0.002	-0.260
-615.303	-200.000	0.076	-0.383
-614.288	5.523	0.213	0.160
-613.273	-114.388	-0.150	0.029
-612.259	-200.000	-0.009	-0.195
-611.244	-39.413	0.026	0.014
-610.230	426.633	0.044	-0.095
-609.215	-200.000	0.000	-0.231
-608.201	303.158	-0.158	0.297
-607.186	611.108	0.152	-0.386
-606.171	-197.324	0.313	-0.002
-605.157	322.213	0.146	-0.282
-604.142	800.000	0.111	-0.479
-603.128	-170.020	0.497	0.018
-602.113	796.743	-0.069	0.194
-601.098	515.370	0.066	-0.157
-600.084	-61.094	0.358	0.153
-599.069	-108.213	0.074	0.016
-598.055	-63.973	0.275	0.114
-597.040	743.509	-0.022	0.061
-596.025	-200.000	-0.031	-0.351
-595.011	-86.336	-0.166	0.052
-593.996	1.201	0.152	0.111
-592.982	-99.320	0.103	0.026
-591.967	-120.880	0.730	-0.125
-590.952	24.342	-0.092	0.077
-589.938	800.000	0.119	0.391
-588.923	-76.596	-0.351	0.125
-587.909	-200.000	0.004	0.113
-586.894	-177.078	0.146	-0.004
-585.879	-31.345	0.358	-0.204
-584.865	800.000	-0.096	0.396
-583.850	-102.092	-0.061	0.015
-582.836	352.598	-0.095	-0.191
-581.821	87.970	-0.082	0.093
-580.806	800.000	0.023	-0.069
-579.792	-97.559	0.278	0.073
-578.777	127.913	-0.136	-0.176
-577.763	-12.485	-0.397	0.263
-576.748	-129.774	-0.331	0.046
-575.733	-57.421	-0.240	0.107
-574.719	-92.668	-0.453	-0.128
-573.704	-27.588	-0.053	0.031
-572.690	-79.766	0.333	0.114
-571.675	579.504	0.082	-0.203
-570.661	-200.000	-0.009	0.172
-569.646	-200.000	0.011	0.079
-568.631	800.000	0.065	0.251
-567.617	-132.808	0.030	0.004
-566.602	-63.946	-0.110	0.045
-565.588	492.108	-0.068	0.157
-564.573	-40.594	0.147	-0.077
-563.558	-200.000	0.078	0.369
-562.544	81.118	-0.202	-0.221
-561.529	-127.607	0.156	-0.023
-560.515	110.545	0.168	-0.205
-559.500	-200.000	-0.006	0.098
-558.485	-36.999	-0.052	-0.028
-557.471	-200.000	-0.045	0.219
-556.456	-41.781	0.096	0.050
-555.442	-200.000	-0.044	-0.203
-554.427	800.000	-0.034	0.112
-553.412	800.000	0.067	-0.201
-552.398	395.114	0.081	0.170
-551.383	494.682	-0.080	-0.185
-550.369	72.928	0.205	0.217
-549.354	-113.468	0.476	-0.094
-548.339	795.140	0.118	0.329
-547.325	-36.390	-0.218	-0.119
-546.310	71.325	-0.306	0.321
-545.296	145.168	-0.020	-0.026
-544.281	58.422	0.100	0.099
-543.266	-121.534	0.018	0.003
-542.252	99.745	0.227	0.265
-541.237	136.740	-0.096	-0.127
-540.223	335.610	0.089	-0.174
-539.208	502.431	-0.065	0.153
-538.193	-77.520	0.096	0.034
-537.179	758.391	0.084	-0.230
-536.164	-200.000	-0.005	-0.290
-535.150	-200.000	0.055	-0.245
-534.135	-200.000	0.058	-0.356
-533.121	626.619	0.122	-0.311
-532.106	-61.050	-0.157	-0.067
-531.091	513.670	-0.043	0.101
-530.077	-200.000	0.017	0.278
-529.062	599.507	0.097	-0.243
-528.048	-200.000	-0.027	-0.164
-527.033	284.977	-0.073	-0.133
-526.018	200.765	-0.058	0.090
-525.004	158.412	-0.265	0.372
-523.989	-200.000	-0.002	-0.103
-522.975	-152.175	0.070	0.005
-521.960	-75.793	0.152	-0.054
-520.945	-144.035	-0.115	0.011
-519.931	287.656	-0.164	0.299
-518.916	-200.000	-0.027	0.230
-517.902	-200.000	0.007	0.236
-516.887	216.864	-0.193	0.311
-515.872	3.314	0.253	-0.186
-514.858	87.554	0.108	0.121
-513.843	-101.660	-0.475	0.116
-512.829	-101.790	0.323	-0.079
-511.814	482.642	-0.084	0.193
-510.799	-200.000	-0.066	0.292
-509.785	-148.680	-0.078	0.006
-508.770	-8.332	0.099	0.067
-507.756	-200.000	0.035	0.321
-506.741	-200.000	-0.036	-0.199
-505.726	208.906	0.219	-0.346
-504.712	69.628	-0.279	-0.290
-503.697	21.597	0.333	-0.273
-502.683	214.605	0.102	0.164
-501.668	-120.637	-0.188	-0.032
-500.653	800.000	-0.050	0.216
-499.639	800.000	0.053	0.208
-498.624	24.993	0.238	0.200
-497.610	800.000	-0.035	0.124
-496.595	-200.000	-0.027	0.176
-495.581	679.166	-0.112	0.295
-494.566	152.226	-0.106	-0.146
-493.551	37.892	-0.194	-0.174
-492.537	-178.481	-0.086	0.002
-491.522	-200.000	0.023	0.161
-490.508	800.000	0.080	-0.234
-489.493	-70.524	0.179	-0.069
-488.478	-60.649	-0.189	-0.081
-487.464	272.228	-0.141	0.251
-486.449	-55.353	-0.223	0.101
-485.435	-141.411	-0.367	-0.038
-484.420	-130.021	0.342	0.047
-483.405	-200.000	0.019	0.135
-482.391	-43.444	0.260	0.133
-481.376	312.119	0.178	0.338
-480.362	-13.479	0.314	0.205
-479.347	800.000	-0.047	0.143
-478.332	800.000	-0.073	0.280
-477.318	-200.000	0.012	0.129
-476.303	69.143	-0.220	-0.228
-475.289	18.615	0.209	-0.169
-474.274	195.663	-0.199	0.305
-473.259	479.544	-0.146	0.335
-472.245	-88.505	-0.409	-0.123
-471.230	-60.774	-0.175	-0.075
-470.216	-78.968	-0.262	0.090
-469.201	3.176	0.086	-0.063
-468.186	574.188	-0.025	-0.062
-467.172	-99.186	-0.190	-0.049
-466.157	-200.000	-0.004	-0.208
-465.143	218.610	-0.041	-0.065
-464.128	-109.796	0.240	-0.051
-463.113	238.758	-0.150	-0.251
-462.099	-200.000	0.018	-0.155
-461.084	-106.282	0.421	-0.095
-460.070	30.934	0.094	-0.081
-459.055	50.304	-0.192	-0.183
-458.040	800.000	-0.120	-0.398
-457.026	-73.857	-0.170	0.062
-456.011	-85.621	0.175	0.055
-454.997	-120.157	-0.239	0.041
-453.982	24.951	-0.374	-0.313
-452.968	-30.298	0.195	0.112
-451.953	479.178	0.072	0.165
-450.938	-62.189	-0.169	0.071
-449.924	133.205	-0.090	0.117
-448.909	-148.177	-0.137	0.011
-447.895	49.643	-0.242	0.229
-446.880	52.677	0.189	0.182
-445.865	193.386	0.110	-0.167
-444.851	-37.331	-0.300	-0.162
-443.836	134.677	0.190	0.248
-442.822	721.226	0.047	0.126
-441.807	-157.700	-0.103	0.006
-440.792	-113.867	0.231	0.045
-439.778	344.269	-0.071	0.140
-438.763	-200.000	-0.020	0.122
-437.749	800.000	0.045	0.179
-436.734	-200.000	-0.096	0.430
-435.719	-200.000	-0.019	0.243
-434.705	16.767	-0.288	0.229
-433.690	88.429	0.321	0.359
-432.676	-47.893	-0.067	0.033
-431.661	412.714	0.059	0.126
-430.646	-200.000	-0.028	0.250
-429.632	-143.358	-0.396	-0.038
-428.617	-160.274	-0.368	-0.020
-427.603	-200.000	0.005	0.104
-426.588	-166.914	-0.176	-0.007
-425.573	503.350	-0.108	0.252
-424.559	177.494	-0.111	-0.164
-423.544	89.135	-0.058	-0.065
-422.530	-25.580	-0.165	-0.098
-421.515	-78.142	0.077	0.027
-420.500	115.678	-0.099	0.122
-419.486	-6.234	0.081	-0.056
-418.471	-200.000	0.041	0.217
-417.457	800.000	-0.043	-0.154
-416.442	800.000	-0.035	-0.105
-415.428	-101.935	0.186	-0.045
-414.413	-100.231	-0.174	0.043
-413.398	-137.525	0.173	0.020
-412.384	715.698	-0.112	-0.298
-411.369	140.833	-0.250	0.332
-410.355	-200.000	-0.002	0.161
-409.340	10.706	0.168	0.129
-408.325	259.638	0.085	0.148
-407.311	-125.876	-0.217	0.033
-406.296	751.949	-0.095	-0.257
-405.282	156.609	0.058	-0.080
-404.267	-46.583	0.324	-0.160
-403.252	75.967	0.038	0.040
-402.238	89.952	0.200	-0.224
-401.223	-114.739	0.084	-0.016
-400.209	110.992	0.248	0.300
-399.194	-142.084	0.232	0.023
-398.179	32.783	0.130	-0.113
-397.165	-65.852	-0.074	0.030
-396.150	680.804	0.089	-0.232
-395.136	-23.933	0.190	-0.114
-394.121	800.000	0.046	0.191
-393.106	-87.199	0.189	-0.058
-392.092	-127.955	0.089	0.013
-391.077	-116.158	-0.370	0.069
-390.063	-51.728	0.386	0.181
-389.048	-71.373	0.207	0.078
-388.033	382.871	-0.050	-0.103
-387.019	-135.765	0.294	-0.035
-386.004	-54.059	0.115	-0.053
-384.990	-47.558	0.455	-0.222
-383.975	-102.125	0.238	0.058
-382.960	526.527	-0.029	-0.068
-381.946	-65.672	0.080	0.032
-380.931	-77.384	0.277	-0.097
-379.917	-107.930	0.347	-0.076
-378.902	-200.000	0.011	-0.277
-377.888	65.307	-0.053	-0.054
-376.873	-200.000	0.056	-0.246
-375.858	-200.000	0.011	0.138
-374.844	-9.910	-0.147	0.099
-373.829	-200.000	0.004	-0.194
-372.815	-104.224	0.279	0.065
-371.800	-99.632	-0.049	-0.012
-370.785	-200.000	-0.029	-0.335
-369.771	800.000	-0.066	0.195
-368.756	800.000	-0.016	-0.068
-367.742	-200.000	-0.001	0.103
-366.727	-94.724	0.302	-0.082
-365.712	-133.877	0.118	0.015
-364.698	48.076	-0.047	-0.044
-363.683	153.276	-0.021	0.029
-362.669	47.578	-0.290	-0.272
-361.654	-200.000	-0.033	-0.331
-360.639	39.553	0.134	-0.120
-359.625	34.763	-0.040	-0.035
-358.610	-91.896	-0.443	0.126
-357.596	800.000	-0.043	-0.135
-356.581	-170.760	0.345	-0.012
-355.566	800.000	-0.097	-0.314
-354.552	21.086	-0.185	-0.151
-353.537	51.071	0.283	-0.270
-352.523	21.190	0.524	-0.428
-351.508	116.588	0.306	-0.377
-350.493	800.000	-0.003	0.011
-349.479	20.046	-0.149	0.121
-348.464	51.681	0.210	0.200
-347.450	800.000	0.026	0.100
-346.435	-200.000	-0.049	0.266
-345.420	-84.765	0.355	0.112
-344.406	-84.157	-0.324	0.103
-343.391	-200.000	0.015	0.132
-342.377	416.022	0.023	0.050
-341.362	204.605	-0.215	0.335
-340.348	626.233	-0.083	0.209
-339.333	800.000	0.098	0.282
-338.318	37.202	-0.145	0.129
-337.304	48.918	0.107	-0.101
-336.289	-54.502	-0.129	-0.059
-335.275	445.563	0.189	-0.417
-334.260	150.315	-0.111	-0.152
-333.245	223.704	-0.052	-0.084
-332.231	22.531	0.229	-0.188
-331.216	65.420	0.126	0.128
-330.202	37.970	0.088	0.078
-329.187	196.747	-0.043	-0.065
-328.172	314.375	-0.103	0.195
-327.158	-40.123	0.183	-0.096
-326.143	68.645	-0.085	0.087
-325.129	643.139	-0.034	-0.088
-324.114	98.900	-0.031	0.036
-323.099	-92.518	-0.400	-0.113
-322.085	-19.021	-0.166	0.103
-321.070	-41.632	0.078	-0.040
-320.056	-91.180	0.016	0.005
-319.041	715.842	-0.116	0.309
-318.026	-121.704	0.068	0.011
-317.012	-200.000	0.096	-0.448
-315.997	-27.958	0.318	0.185
-314.983	37.575	0.175	-0.156
-313.968	32.914	-0.128	0.111
-312.953	-14.663	0.159	-0.102
-311.939	-136.757	-0.044	0.005
-310.924	-133.692	0.337	0.042
-309.910	-200.000	-0.102	-0.000
-308.895	311.647	-0.120	0.227
-307.880	-200.000	-0.024	0.300
-306.866	800.000	0.069	0.260
-305.851	-25.407	-0.251	0.149
-304.837	-91.570	-0.092	0.026
-303.822	49.776	0.235	0.222
-302.807	-200.000	-0.054	-0.239
-301.793	-200.000	0.010	-0.126
-300.778	800.000	-0.067	0.220
-299.764	-133.720	0.565	-0.071
-298.749	800.000	-0.042	-0.153
-297.735	616.050	0.108	-0.272
-296.720	417.014	0.073	0.155
-295.705	-22.285	-0.121	0.074
-294.691	174.709	0.062	-0.089
-293.676	-68.798	-0.107	-0.041
-292.662	94.792	0.206	-0.235
-291.647	213.283	0.042	-0.066
-290.632	800.000	-0.048	-0.171
-289.618	-200.000	-0.046	-0.230
-288.603	-108.533	0.114	0.024
-287.589	72.068	0.123	0.128
-286.574	68.885	0.145	0.149
-285.559	800.000	0.064	-0.194
-284.545	-72.331	-0.078	0.029
-283.530	658.538	0.043	-0.110
-282.516	245.712	0.159	0.268
-281.501	269.331	0.240	0.421
-280.486	-200.000	-0.064	0.284
-279.472	-136.138	-0.437	-0.051
-278.457	-123.929	0.225	-0.035
-277.443	-119.794	-0.144	0.025
-276.428	800.000	-0.070	-0.255
-275.413	285.356	-0.157	-0.283
-274.399	-200.000	0.089	0.424
-273.384	-66.733	-0.246	0.098
-272.370	-156.638	-0.120	0.007
-271.355	327.473	0.081	0.156
-270.340	55.885	0.086	0.084
-269.326	-104.043	-0.196	0.046
-268.311	-182.222	-0.302	-0.006
-267.297	678.305	-0.096	0.250
-266.282	-200.000	0.024	0.323
-265.267	179.559	-0.033	0.048
-264.253	-200.000	-0.039	-0.282
-263.238	367.878	0.129	0.261
-262.224	739.572	-0.097	-0.260
-261.209	-200.000	-0.089	-0.632
-260.195	-77.943	-0.054	0.019
-259.180	-200.000	0.067	0.448
-258.165	800.000	-0.067	-0.269
-257.151	221.976	0.209	-0.336
-256.136	-200.000	-0.012	-0.153
-255.122	-200.000	-0.019	-0.276
-254.107	-86.538	-0.249	0.076
-253.092	-159.118	-0.175	0.010
-252.078	51.285	-0.068	0.065
-251.063	-115.239	0.339	-0.064
-250.049	-200.000	0.038	-0.309
-249.034	-193.169	-0.160	0.001
-248.019	-53.327	-0.247	-0.113
-247.005	-62.786	-0.201	-0.083
-245.990	-157.878	0.379	-0.022
-244.976	-50.471	0.114	-0.054
-243.961	-144.466	-0.077	-0.007
-242.946	800.000	0.011	0.036
-241.932	-102.768	-0.160	0.038
-240.917	-200.000	0.006	-0.172
-239.903	-166.527	0.149	-0.006
-238.888	36.597	-0.119	0.105
-237.873	-101.377	-0.416	0.101
-236.859	14.248	-0.242	-0.188
-235.844	-200.000	-0.019	0.294
-234.830	-61.557	-0.166	-0.070
-233.815	-128.311	0.139	-0.020
-232.800	-123.376	0.058	0.009
-231.786	213.063	0.183	0.289
-230.771	-90.218	-0.374	0.109
-229.757	-168.886	0.249	0.009
-228.742	-3.810	-0.169	-0.117
-227.727	-55.054	0.190	-0.085
-226.713	-32.188	-0.117	0.065
-225.698	412.292	0.013	-0.029
-224.684	-48.309	-0.089	0.043
-223.669	-200.000	0.035	0.194
-222.655	672.913	0.114	-0.295
-221.640	-171.403	0.085	-0.003
-220.625	-153.910	-0.312	0.021
-219.611	-26.907	0.225	0.131
-218.596	-52.731	-0.303	-0.139
-217.582	-27.807	-0.248	-0.144
-216.567	64.367	-0.041	0.041
-215.552	307.084	-0.087	0.161
-214.538	-112.544	0.361	0.072
-213.523	-200.000	-0.039	0.256
-212.509	463.785	-0.062	0.138
-211.494	40.551	0.121	-0.109
-210.479	-155.353	-0.361	0.023
-209.465	-45.886	-0.106	0.052
-208.450	372.755	0.096	0.195
-207.436	-200.000	0.012	0.067
-206.421	-156.111	-0.382	-0.024
-205.406	-2.931	0.060	0.042
-204.392	-92.530	0.095	0.027
-203.377	519.950	0.122	-0.285
-202.363	60.751	-0.164	-0.162
-201.348	-50.694	0.104	-0.049
-200.333	-145.655	0.092	0.008
-199.319	-143.990	0.152	0.014
-198.304	-200.000	-0.004	-0.320
-197.290	33.244	-0.100	0.086
-196.275	800.000	0.006	-0.021
-195.260	-200.000	0.095	-0.521
-194.246	-200.000	0.000	-0.059
-193.231	517.835	-0.064	-0.150
-192.217	75.993	0.156	0.164
-191.202	-110.162	-0.177	-0.037
-190.187	-23.292	-0.061	0.037
-189.173	800.000	0.006	-0.020
-188.158	277.151	-0.096	-0.170
-187.144	159.924	-0.044	0.061
-186.129	-200.000	0.011	0.102
-185.114	-200.000	-0.034	0.206
-184.100	-4.396	0.128	-0.088
-183.085	33.599	0.114	0.099
-182.071	173.867	0.029	-0.042
-181.056	530.708	-0.119	0.280
-180.042	-16.576	-0.032	-0.020
-179.027	-89.254	0.115	0.034
-178.012	-91.532	0.293	-0.083
-176.998	-157.587	-0.269	0.016
-175.983	42.178	-0.112	-0.102
-174.969	-12.518	-0.273	0.178
-173.954	415.264	0.050	-0.106
-172.939	543.922	0.072	-0.171
-171.925	-80.209	-0.065	-0.022
-170.910	-200.000	-0.009	0.049
-169.896	-192.068	-0.115	-0.001
-168.881	151.574	0.106	-0.144
-167.866	86.594	0.273	-0.300
-166.852	-84.756	0.043	0.013
-165.837	-200.000	0.031	-0.460
-164.823	-200.000	-0.008	-0.316
-163.808	-179.474	0.193	-0.004
-162.793	-99.793	-0.091	0.023
-161.779	97.340	0.123	-0.140
-160.764	-200.000	-0.041	0.237
-159.750	-200.000	0.073	0.326
-158.735	-110.283	0.428	-0.089
-157.720	208.500	0.041	-0.064
-156.706	20.839	-0.408	-0.330
-155.691	-14.625	-0.379	-0.243
-154.677	139.365	-0.106	-0.139
-153.662	-200.000	-0.003	-0.030
-152.647	245.913	-0.170	-0.286
-151.633	-165.953	-0.190	-0.008
-150.618	528.347	0.056	0.131
-149.604	202.662	0.020	0.031
-148.589	-108.468	0.160	0.034
-147.574	455.459	-0.025	0.055
-146.560	-65.347	-0.257	-0.103
-145.545	800.000	-0.100	-0.310
-144.531	-200.000	-0.040	-0.287
-143.516	212.173	-0.150	0.236
-142.502	-200.000	0.012	-0.131
-141.487	-200.000	-0.015	-0.137
-140.472	382.715	-0.061	0.126
-139.458	-200.000	0.055	-0.487
-138.443	-85.375	0.313	0.097
-137.429	-102.310	0.079	-0.019
-136.414	0.982	0.246	0.176
-135.399	292.633	0.324	0.588
-134.385	-200.000	0.015	0.103
-133.370	-200.000	-0.005	-0.173
-132.356	-147.589	-0.225	-0.019
-131.341	-111.259	-0.217	-0.044
-130.326	-109.237	-0.194	-0.041
-129.312	-124.426	0.148	0.023
-128.297	275.991	0.202	0.357
-127.283	-53.996	0.191	-0.086
-126.268	-200.000	-0.033	0.214
-125.253	-200.000	0.058	-0.254
-124.239	-75.244	-0.213	0.076
-123.224	800.000	0.036	0.114
-122.210	573.071	0.049	0.118
-121.195	-200.000	0.010	-0.256
-120.180	146.083	0.155	-0.208
-119.166	-15.718	-0.137	-0.087
-118.151	-44.329	-0.107	0.053
-117.137	-54.436	-0.251	0.113
-116.122	66.708	-0.226	0.228
-115.107	51.430	0.121	0.114
-114.093	93.594	0.093	0.104
-113.078	-200.000	0.002	0.250
-112.064	800.000	-0.124	-0.448
-111.049	-200.000	0.016	-0.168
-110.034	-5.694	0.076	0.052
-109.020	-189.982	-0.179	-0.002
-108.005	800.000	-0.044	0.134
-106.991	620.971	0.078	0.196
-105.976	-131.991	0.443	0.057
-104.962	-111.976	-0.142	-0.028
-103.947	-37.570	0.250	-0.133
-102.932	-200.000	-0.025	-0.305
-101.918	725.116	-0.098	0.259
-100.903	336.861	0.186	0.360
-99.889	-98.887	0.126	0.032
-98.874	77.391	-0.217	0.230
-97.859	-114.202	-0.112	0.022
-96.845	642.422	-0.066	0.167
-95.830	800.000	-0.124	-0.367
-94.816	-12.783	0.175	0.113
-93.801	-171.617	0.253	-0.008
-92.786	406.970	0.052	-0.109
-91.772	81.564	-0.130	-0.140
-90.757	365.394	0.194	-0.388
-89.743	27.058	-0.207	-0.173
-88.728	-147.661	0.161	0.013
-87.713	-200.000	-0.001	0.235
-86.699	800.000	0.077	-0.304
-85.684	-16.993	-0.105	0.066
-84.670	363.527	0.047	0.093
-83.655	300.305	-0.141	0.259
-82.640	-200.000	-0.039	-0.263
-81.626	-200.000	0.016	-0.105
-80.611	591.899	0.054	0.132
-79.597	46.677	-0.152	-0.140
-78.582	53.589	-0.201	0.192
-77.567	-182.035	0.435	-0.008
-76.553	328.814	-0.134	0.255
-75.538	800.000	0.063	0.223
-74.524	-200.000	-0.323	-0.001
-73.509	-117.447	-0.144	-0.026
-72.494	166.221	0.171	0.240
-71.480	-132.890	0.399	-0.050
-70.465	-98.973	-0.130	-0.033
-69.451	265.752	0.199	0.345
-68.436	-103.636	0.330	0.077
-67.422	123.745	-0.233	0.290
-66.407	-68.741	0.302	0.116
-65.392	-200.000	0.022	0.311
-64.378	6.555	-0.232	0.171
-63.363	-35.995	-0.153	-0.082
-62.349	143.144	0.049	-0.065
-61.334	41.062	-0.875	-0.785
-60.319	-123.104	0.299	0.048
-59.305	433.090	-0.374	-0.806
-58.290	31.764	0.896	0.766
-57.276	800.000	0.392	1.533
-56.261	-200.000	87.154	499.800
-55.246	537.219	1377.191	3247.106
-54.232	180.775	2626.637	3828.779
-53.217	117.419	2244.096	2739.504
-52.203	48.305	1690.791	1570.615
-51.188	40.898	1420.124	1271.969
-50.173	37.610	1375.621	1211.634
-49.159	56.308	1418.341	1367.708
-48.144	61.196	1437.532	1417.021
-47.130	41.250	1395.236	1251.691
-46.115	37.567	1378.075	1213.336
-45.100	37.442	1373.042	1208.079
-44.086	37.447	1370.287	1205.635
-43.071	37.330	1368.375	1203.183
-42.057	37.294	1365.787	1200.637
-41.042	37.268	1364.280	1199.103
-40.027	37.358	1362.823	1198.329
-39.013	37.363	1360.776	1196.516
-37.998	37.422	1359.012	1195.279
-36.984	37.426	1356.986	1193.472
-35.969	37.458	1355.057	1191.928
-34.954	37.524	1353.559	1190.964
-33.940	37.572	1351.920	1189.772
-32.925	37.652	1350.252	1188.745
-31.911	37.570	1348.976	1187.070
-30.896	37.608	1347.507	1185.963
-29.881	37.550	1346.135	1184.357
-28.867	37.697	1344.294	1183.582
-27.852	37.637	1342.615	1181.696
-26.838	37.649	1341.670	1180.887
-25.823	37.579	1340.692	1179.557
-24.809	37.536	1338.855	1177.631
-23.794	37.640	1337.014	1176.594
-22.779	37.587	1335.707	1175.081
-21.765	37.630	1334.609	1174.323
-20.750	37.569	1333.094	1172.579
-19.736	37.415	1332.027	1170.668
-18.721	37.472	1330.799	1169.882
-17.706	37.557	1329.327	1169.053
-16.692	37.538	1327.848	1167.593
-15.677	37.369	1327.446	1166.176
-14.663	37.482	1325.666	1165.245
-13.648	37.481	1324.450	1164.124
-12.633	37.344	1323.910	1162.784
-11.619	37.331	1323.538	1162.335
-10.604	37.350	1322.367	1161.372
-9.590	37.354	1321.435	1160.530
-8.575	37.335	1320.065	1159.166
-7.560	37.353	1319.166	1158.438
-6.546	37.430	1318.341	1158.129
-5.531	37.230	1317.687	1156.315
-4.517	37.327	1316.854	1156.118
-3.502	37.470	1315.284	1155.541
-2.487	37.460	1314.686	1154.915
-1.473	37.415	1310.928	1151.300
-0.458	35.912	1294.685	1128.185
0.556	29.287	1274.468	1081.316
1.571	24.841	1278.740	1058.614
2.586	23.702	1293.548	1063.959
3.600	22.830	1282.810	1049.847
4.615	16.294	1205.669	949.974
5.629	5.181	1123.550	826.628
6.644	0.031	1099.850	782.377
7.659	-0.362	1097.113	778.322
8.673	-0.471	1095.649	776.650
9.688	-0.477	1093.987	775.372
10.702	-0.094	1092.336	776.112
11.717	5.850	1101.567	813.496
12.731	14.873	1115.093	870.589
13.746	17.503	1117.129	885.804
14.761	16.554	1115.427	879.445
15.775	16.237	1114.781	877.209
16.790	15.897	1114.122	874.847
17.804	15.850	1113.245	873.836
18.819	15.899	1112.406	873.358
19.834	15.870	1111.674	872.557
20.848	15.776	1111.109	871.546
21.863	15.757	1110.705	871.056
22.877	15.767	1109.897	870.396
23.892	15.768	1109.325	869.874
24.907	15.849	1108.380	869.476
25.921	15.736	1107.436	868.077
26.936	15.794	1105.602	866.860
27.950	15.883	1103.697	865.744
28.965	15.676	1101.989	863.267
29.980	15.646	1100.098	861.557
30.994	15.934	1099.077	862.157
32.009	15.890	1097.660	860.742
33.023	15.681	1096.390	858.605
34.038	15.823	1095.527	858.576
35.053	16.018	1094.672	858.824
36.067	15.913	1093.730	857.475
37.082	16.020	1092.949	857.330
38.096	15.951	1092.423	856.493
39.111	16.096	1091.232	856.217
40.126	15.987	1089.535	854.255
41.140	15.786	1087.928	851.906
42.155	15.635	1086.339	849.821
43.169	15.740	1085.079	849.293
44.184	15.744	1084.171	848.527
45.199	15.660	1082.744	846.912
46.213	15.599	1081.979	845.929
47.228	15.545	1080.537	844.456
48.242	15.661	1079.341	844.030
49.257	15.810	1078.597	844.118
50.271	15.858	1077.583	843.491
51.286	15.823	1076.575	842.452
52.301	15.781	1075.634	841.432
53.315	15.841	1074.749	840.963
54.330	15.781	1073.453	839.578
55.344	15.786	1072.667	838.912
56.359	15.809	1071.743	838.233
57.374	15.598	1071.031	836.548
58.388	15.847	1069.765	836.725
59.403	15.829	1069.275	836.178
60.417	15.615	1068.080	834.106
61.432	15.747	1067.179	833.984
62.447	15.729	1067.198	833.835
63.461	15.715	1065.901	832.679
64.476	15.772	1064.467	831.769
65.490	15.744	1063.619	830.892
66.505	15.875	1062.532	830.617
67.520	15.773	1062.084	829.689
68.534	15.708	1060.804	828.297
69.549	15.441	1059.856	826.172
70.563	15.605	1058.844	826.114
71.578	15.683	1058.412	826.086
72.593	15.483	1057.379	824.225
73.607	15.625	1056.505	824.166
74.622	15.870	1055.905	824.825
75.636	15.678	1055.638	823.604
76.651	15.683	1054.178	822.418
77.666	15.477	1053.939	821.153
78.680	15.695	1053.009	821.421
79.695	15.691	1052.512	820.940
80.709	15.711	1051.585	820.244
81.724	15.682	1050.510	819.191
82.739	15.832	1049.391	818.976
83.753	15.891	1049.193	819.032
84.768	15.892	1048.008	818.039
85.782	15.886	1047.199	817.309
86.797	15.983	1045.973	816.751
87.812	15.748	1045.092	814.849
88.826	15.928	1043.990	814.793
89.841	15.960	1042.996	814.099
90.855	16.079	1041.526	813.455
91.870	16.024	1040.584	812.381
92.884	15.782	1039.721	810.466
93.899	15.928	1038.465	810.120
94.914	15.980	1037.698	809.702
95.928	15.891	1036.783	808.489
96.943	15.806	1035.452	806.968
97.957	15.528	1034.396	804.743
98.972	15.365	1033.187	802.952
99.987	15.602	1032.246	803.283
101.001	15.802	1031.390	803.501
102.016	15.725	1030.688	802.513
103.030	15.661	1029.745	801.405
104.045	15.411	1028.826	799.428
105.060	15.325	1027.435	797.868
106.074	15.543	1026.929	798.439
107.089	15.959	1025.995	799.620
108.103	15.974	1024.897	798.763
109.118	15.776	1023.797	796.899
110.133	15.774	1022.842	796.075
111.147	15.693	1021.903	794.892
112.162	15.692	1020.421	793.660
113.176	15.632	1020.093	793.052
114.191	15.665	1018.726	792.074
115.206	15.520	1017.463	790.343
116.220	15.495	1016.646	789.519
117.235	15.670	1015.662	789.506
118.249	15.669	1014.705	788.689
119.264	15.732	1013.585	788.044
120.279	15.753	1013.045	787.652
121.293	15.690	1012.446	786.822
122.308	15.708	1011.423	786.041
123.322	15.678	1010.208	784.887
124.337	15.652	1008.316	783.229
125.352	15.341	1006.725	780.475
126.366	15.202	1005.457	778.777
127.381	15.724	1005.004	780.781
128.395	15.874	1004.481	781.001
129.410	16.008	1003.429	780.739
130.424	15.958	1002.500	779.711
131.439	16.016	1001.285	778.968
132.454	15.904	1000.457	777.737
133.468	15.938	999.330	776.951
134.483	15.983	998.720	776.612
135.497	16.221	997.700	776.848
136.512	16.098	996.732	775.460
137.527	16.167	995.767	774.955
138.541	16.113	995.131	774.147
139.556	16.036	994.337	773.104
140.570	16.070	993.345	772.424
141.585	16.023	991.988	771.083
142.600	15.946	991.045	769.932
143.614	16.090	990.321	769.958
144.629	16.224	989.383	769.770
145.643	16.067	988.726	768.476
146.658	15.968	987.636	767.112
147.673	16.103	985.736	766.180
148.687	16.204	984.953	765.963
149.702	16.111	983.929	764.677
150.716	16.004	983.334	763.660
151.731	16.053	982.619	763.259
152.746	16.167	981.628	762.939
153.760	16.311	981.130	763.137
154.775	16.224	980.781	762.405
155.789	16.319	979.495	761.763
156.804	16.347	978.489	761.043
157.819	16.198	977.828	759.787
158.833	16.198	977.310	759.319
159.848	16.172	976.276	758.332
160.862	16.200	974.430	756.955
161.877	16.222	973.652	756.384
162.892	16.305	972.697	755.947
163.906	16.373	971.787	755.476
164.921	16.276	970.890	754.278
165.935	16.331	970.260	753.968
166.950	16.269	969.012	752.655
167.964	16.255	967.910	751.672
168.979	16.082	967.208	750.289
169.994	15.989	966.260	749.076
171.008	16.237	965.225	749.308
172.023	16.133	964.307	748.065
173.037	15.956	963.213	746.366
174.052	15.949	962.085	745.398
175.067	15.883	962.002	744.974
176.081	16.265	960.956	745.785
177.096	16.172	960.448	744.915
178.110	16.040	959.355	743.418
179.125	15.935	958.728	742.404
180.140	15.972	958.333	742.196
181.154	16.005	957.850	741.900
182.169	16.195	957.341	742.280
183.183	16.183	956.886	741.805
184.198	16.252	955.751	741.164
185.213	16.296	954.577	740.381
186.227	16.342	954.171	740.203
187.242	16.251	953.505	739.222
188.256	16.224	953.179	738.787
189.271	16.340	951.732	738.104
190.286	16.059	951.652	736.751
191.300	15.811	949.901	734.246
192.315	15.390	948.424	731.206
193.329	15.261	947.929	730.199
194.344	15.861	948.021	732.817
195.359	16.226	947.651	734.054
196.373	16.259	946.853	733.516
197.388	15.953	945.993	731.457
198.402	15.932	945.161	730.655
199.417	15.932	944.414	730.015
200.432	15.533	943.449	727.477
201.446	15.592	942.524	726.952
202.461	15.624	941.889	726.538
203.475	15.142	940.301	723.168
204.490	14.587	938.977	719.690
205.504	15.373	939.324	723.282
206.519	15.848	939.055	725.060
207.534	15.959	938.529	725.069
208.548	16.237	938.039	725.819
209.563	15.938	937.262	723.868
210.577	15.971	936.503	723.359
211.592	16.272	935.842	724.080
212.607	16.149	934.817	722.694
213.621	16.201	934.430	722.555
214.636	16.307	933.655	722.343
215.650	16.174	932.791	721.043
216.665	16.256	932.437	721.058
217.680	16.311	930.990	720.107
218.694	15.861	929.816	717.221
219.709	15.756	929.547	716.503
220.723	16.137	928.952	717.602
221.738	16.321	928.123	717.680
222.753	16.326	927.304	717.004
223.767	16.332	926.445	716.300
224.782	16.440	926.378	716.643
225.796	16.480	925.609	716.154
226.811	15.912	924.384	712.738
227.826	15.517	923.089	710.011
228.840	15.682	922.716	710.357
229.855	15.669	922.041	709.720
230.869	15.519	920.733	708.017
231.884	15.716	920.445	708.564
232.899	16.300	920.398	710.926
233.913	16.424	919.442	710.644
234.928	16.437	919.157	710.416
235.942	16.463	918.137	709.674
236.957	16.030	917.724	707.476
237.972	16.254	916.804	707.640
238.986	16.211	915.996	706.777
240.001	16.361	915.392	706.873
241.015	16.415	914.241	706.150
242.030	16.414	913.965	705.868
243.045	16.561	913.271	705.882
244.059	16.372	913.032	704.846
245.074	16.313	911.623	703.452
246.088	16.009	910.498	701.259
247.103	16.149	909.938	701.348
248.117	16.477	910.036	702.722
249.132	16.510	909.011	702.007
250.147	16.547	908.330	701.573
251.161	16.668	907.577	701.431
252.176	16.591	906.926	700.544
253.190	16.635	906.099	700.027
254.205	16.918	905.576	700.729
255.220	16.951	904.890	700.273
256.234	16.802	903.960	698.879
257.249	16.724	903.147	697.867
258.263	16.741	902.799	697.603
259.278	16.884	901.976	697.495
260.293	16.813	901.213	696.554
261.307	16.768	900.290	695.592
262.322	16.528	899.347	693.819
263.336	15.933	897.682	690.037
264.351	15.232	895.653	685.547
265.366	15.215	895.423	685.243
266.380	16.094	895.707	688.992
267.395	16.571	895.520	690.736
268.409	16.566	894.507	689.874
269.424	16.690	894.098	690.000
270.439	16.761	893.290	689.608
271.453	16.918	892.763	689.778
272.468	16.872	892.479	689.310
273.482	16.919	892.103	689.152
274.497	16.651	890.666	686.891
275.512	16.305	889.687	684.673
276.526	16.766	889.237	686.133
277.541	16.804	888.604	685.736
278.555	16.505	887.565	683.667
279.570	16.391	886.516	682.336
280.585	16.646	886.037	682.938
281.599	16.708	884.898	682.249
282.614	16.398	883.681	680.005
283.628	16.391	883.644	679.885
284.643	16.567	883.042	680.069
285.657	16.179	882.122	677.744
286.672	15.968	881.212	676.139
287.687	16.461	880.748	677.697
288.701	16.318	880.767	677.082
289.716	16.201	879.832	675.833
290.730	16.133	878.962	674.834
291.745	16.034	877.774	673.464
292.760	16.208	877.414	673.822
293.774	16.905	877.483	676.600
294.789	17.065	877.436	677.141
295.803	17.230	876.500	677.019
296.818	17.378	875.988	677.152
297.833	17.008	874.555	674.511
298.847	16.847	874.088	673.452
299.862	17.255	873.392	674.478
300.876	17.255	873.325	674.366
301.891	17.033	872.361	672.681
302.906	16.656	870.976	670.061
303.920	16.797	870.662	670.318
304.935	17.088	870.355	671.175
305.949	17.131	869.567	670.676
306.964	16.932	869.182	669.537
307.979	17.204	868.614	670.110
308.993	17.293	868.551	670.355
310.008	17.305	867.646	669.642
311.022	17.081	867.044	668.240
312.037	17.102	866.561	667.889
313.052	16.960	865.602	666.533
314.066	16.414	864.517	663.497
315.081	16.335	863.453	662.311
316.095	16.806	863.568	664.187
317.110	17.071	863.750	665.307
318.125	16.632	862.115	662.272
319.139	15.926	860.821	658.460
320.154	15.926	860.695	658.306
321.168	16.621	860.721	660.980
322.183	16.907	860.423	661.809
323.197	17.014	860.276	662.057
324.212	17.326	859.834	662.876
325.227	17.362	859.250	662.506
326.241	17.238	858.434	661.333
327.256	17.224	857.705	660.660
328.270	17.213	857.022	660.035
329.285	17.006	856.324	658.635
330.300	17.011	855.277	657.789
331.314	17.044	855.130	657.747
332.329	17.211	854.826	658.102
333.343	17.256	854.242	657.769
334.358	17.226	853.464	656.996
335.373	17.318	853.053	656.977
336.387	17.587	852.748	657.720
337.402	17.561	853.017	657.770
338.416	17.549	851.831	656.753
339.431	17.464	851.711	656.273
340.446	17.515	851.173	655.995
341.460	17.544	850.612	655.619
342.475	17.275	849.847	653.937
343.489	17.386	849.503	654.040
344.504	17.611	849.042	654.493
345.519	17.705	848.766	654.580
346.533	17.820	848.230	654.553
347.548	17.851	847.809	654.287
348.562	17.807	847.684	653.964
349.577	17.784	846.898	653.211
350.592	17.924	846.318	653.242
351.606	17.997	845.441	652.787
352.621	17.825	844.677	651.484
353.635	17.817	843.745	650.674
354.650	17.263	842.782	647.763
355.665	16.427	841.625	643.634
356.679	16.789	841.174	644.611
357.694	17.241	839.916	645.308
358.708	17.132	840.151	645.017
359.723	17.545	840.006	646.417
360.738	17.685	839.069	646.169
361.752	17.813	838.612	646.245
362.767	17.907	838.023	646.088
363.781	17.912	837.501	645.647
364.796	18.066	836.921	645.727
365.810	18.052	836.794	645.518
366.825	18.080	836.154	645.075
367.840	17.943	835.230	643.787
368.854	17.654	834.856	642.352
369.869	17.747	834.350	642.257
370.883	17.702	833.788	641.599
371.898	17.478	833.550	640.513
372.913	17.663	832.938	640.683
373.927	17.836	832.658	641.061
374.942	17.924	832.593	641.286
375.956	17.933	832.038	640.833
376.971	17.963	831.482	640.462
377.986	18.100	830.935	640.498
379.000	18.076	830.156	639.750
380.015	17.913	829.524	638.596
381.029	17.996	829.283	638.665
382.044	18.066	828.465	638.239
383.059	18.065	827.849	637.705
384.073	18.074	827.558	637.460
385.088	18.235	827.334	637.831
386.102	18.165	826.320	636.730
387.117	18.189	825.947	636.478
388.132	17.981	824.724	634.705
389.146	17.493	824.029	632.304
390.161	17.681	823.568	632.590
391.175	17.931	823.219	633.194
392.190	17.707	822.552	631.793
393.205	16.928	821.035	627.691
394.219	16.039	820.050	623.593
395.234	16.102	819.766	623.556
396.248	17.117	820.193	627.580
397.263	18.065	820.953	631.610
398.278	18.180	820.690	631.777
399.292	18.222	819.880	631.253
400.307	17.988	819.395	629.961
401.321	18.067	818.997	629.890
402.336	18.225	818.721	630.205
403.350	18.371	818.219	630.299
404.365	18.349	818.047	630.027
405.380	18.482	817.748	630.232
406.394	18.566	816.792	629.749
407.409	18.654	815.918	629.342
408.423	18.579	815.344	628.569
409.438	18.534	815.646	628.579
410.453	18.795	815.321	629.230
411.467	18.799	814.315	628.413
412.482	18.777	813.884	627.943
413.496	18.759	813.945	627.869
414.511	18.657	813.378	627.005
415.526	18.747	812.722	626.774
416.540	18.508	812.359	625.563
417.555	18.331	811.616	624.290
418.569	18.345	810.944	623.770
419.584	18.297	810.711	623.362
420.599	18.238	810.195	622.695
421.613	151.476	1358.712	1781.717
422.628	131.721	1438.656	1781.828
