DTS Sentinel unit serial number:	SN413079Multiplexer serial number:	ORYXHardware model number:	OX4-SRSoftware version number:	ORYX F/W v4.00 Oryx Data Collector v3.7.2.0data status	okinstallation	princeton_trtdifferential loss correction	single-endedforward channel	channel 1reverse channel	N/Adate	2019/09/17time	06:58:35forward acquisition time	60.00reverse acquisition time	0.00gamma	496.2192k internal	0.2330k external	0.2330temperature offset calibration	0.9971default loss term (dB/km)	0.3790temperature slope calibration	1.0000multiplexer offset coefficient	1.0000multiplexer slope coefficient	1.0000fibre end	0.00T internal ref (°C)	27.55T ext. ref 1 (°C)	0.12T ext. ref 2 (°C)	21.05length (m)	temperature (°C)	Stokes	anti-Stokes-747.200	800.000	0.030	0.097
-746.185	79.192	-0.160	0.172
-745.171	80.165	-0.155	0.167
-744.156	95.154	-0.141	0.161
-743.142	51.233	0.138	-0.132
-742.127	-200.000	-0.037	0.246
-741.112	-39.600	0.152	-0.080
-740.098	-70.775	-0.218	0.083
-739.083	-57.071	0.051	-0.023
-738.069	-126.405	0.159	0.024
-737.054	-95.415	0.096	0.026
-736.039	-182.034	-0.260	-0.005
-735.025	160.471	0.069	0.096
-734.010	-90.934	-0.095	-0.028
-732.996	402.990	-0.117	0.247
-731.981	59.145	0.199	0.197
-730.966	-200.000	0.300	0.000
-729.952	123.175	-0.155	0.196
-728.937	178.700	-0.113	-0.167
-727.923	-200.000	0.033	-0.162
-726.908	-139.156	-0.150	-0.016
-725.894	282.996	-0.025	-0.045
-724.879	-140.080	-0.423	-0.045
-723.864	800.000	-0.101	0.285
-722.850	356.480	0.125	0.250
-721.835	132.285	-0.223	-0.289
-720.821	6.963	0.110	0.082
-719.806	47.181	0.074	0.069
-718.791	142.578	-0.301	-0.402
-717.777	264.093	0.047	0.082
-716.762	44.826	0.098	0.091
-715.748	-7.405	-0.337	-0.230
-714.733	29.261	-0.295	0.252
-713.718	-45.925	-0.143	0.071
-712.704	-57.280	-0.341	0.151
-711.689	1.977	-0.192	0.140
-710.675	800.000	-0.106	-0.313
-709.660	-200.000	0.004	-0.133
-708.645	-12.095	0.246	-0.162
-707.631	800.000	0.098	-0.318
-706.616	115.411	-0.263	-0.322
-705.602	303.649	-0.114	0.212
-704.587	800.000	0.009	0.033
-703.572	-44.230	-0.111	-0.056
-702.558	-200.000	-0.003	0.049
-701.543	-136.112	0.334	0.039
-700.529	275.785	-0.018	-0.032
-699.514	32.181	-0.043	-0.037
-698.499	-9.376	0.252	-0.169
-697.485	-121.750	0.111	0.018
-696.470	-64.227	0.266	-0.109
-695.456	-94.104	0.150	0.041
-694.441	345.480	-0.070	0.138
-693.426	-55.244	0.274	-0.124
-692.412	-85.293	-0.270	-0.085
-691.397	-185.866	-0.202	-0.003
-690.383	426.775	-0.027	-0.059
-689.368	237.526	-0.198	-0.330
-688.354	-52.521	-0.244	0.113
-687.339	30.275	-0.160	-0.137
-686.324	-200.000	-0.018	0.349
-685.310	-82.877	-0.211	-0.069
-684.295	-200.000	-0.058	-0.316
-683.281	-100.323	0.192	-0.048
-682.266	119.181	0.089	-0.111
-681.251	12.698	0.080	0.062
-680.237	-200.000	0.016	-0.191
-679.222	1.168	0.229	0.165
-678.208	-141.566	-0.161	-0.016
-677.193	354.366	0.036	0.073
-676.178	-108.283	-0.144	0.031
-675.164	-159.799	-0.388	-0.021
-674.149	235.172	-0.020	0.034
-673.135	-200.000	0.003	-0.292
-672.120	36.289	0.090	-0.079
-671.105	194.773	0.070	0.107
-670.091	33.524	0.052	-0.045
-669.076	-95.630	0.325	0.087
-668.062	-200.000	-0.011	0.243
-667.047	490.769	0.113	-0.259
-666.032	-103.438	0.231	0.055
-665.018	21.134	0.118	-0.096
-664.003	159.454	0.193	0.269
-662.989	529.539	-0.061	-0.144
-661.974	49.397	-0.191	-0.180
-660.959	-200.000	0.041	-0.230
-659.945	-117.133	-0.244	0.045
-658.930	292.537	0.072	-0.132
-657.916	-137.131	-0.154	-0.018
-656.901	800.000	-0.081	-0.237
-655.886	274.246	-0.184	0.327
-654.872	3.880	0.118	-0.086
-653.857	74.622	0.174	0.184
-652.843	8.115	0.247	0.186
-651.828	800.000	0.049	0.147
-650.814	-56.741	-0.306	-0.136
-649.799	800.000	0.096	0.342
-648.784	224.732	0.137	-0.222
-647.770	-55.863	-0.285	0.128
-646.755	-7.614	0.276	0.187
-645.741	80.160	-0.185	-0.199
-644.726	800.000	-0.031	-0.095
-643.711	-45.558	-0.244	0.121
-642.697	187.141	0.143	-0.214
-641.682	-10.541	0.210	0.139
-640.668	8.180	-0.081	-0.061
-639.653	-25.249	-0.283	0.168
-638.638	-128.706	0.237	0.033
-637.624	69.591	0.283	-0.292
-636.609	-10.159	-0.344	0.229
-635.595	-87.962	-0.359	0.108
-634.580	-82.435	0.118	-0.038
-633.565	-200.000	-0.025	-0.250
-632.551	191.393	0.275	-0.415
-631.536	359.309	0.113	-0.227
-630.522	12.355	0.364	0.281
-629.507	-200.000	-0.006	-0.186
-628.492	800.000	0.052	0.203
-627.478	40.652	0.295	0.266
-626.463	165.861	-0.070	-0.099
-625.449	39.068	-0.057	-0.051
-624.434	206.960	0.162	0.252
-623.419	-96.454	-0.256	0.068
-622.405	81.184	-0.103	0.111
-621.390	316.461	-0.183	0.347
-620.376	800.000	0.063	-0.231
-619.361	50.678	0.272	-0.257
-618.346	77.688	-0.173	0.184
-617.332	216.436	-0.145	-0.230
-616.317	245.307	0.102	0.172
-615.303	-100.598	-0.230	0.057
-614.288	696.047	0.103	0.270
-613.273	52.873	-0.182	0.174
-612.259	88.284	0.228	0.254
-611.244	29.287	-0.104	0.088
-610.230	341.214	-0.132	0.259
-609.215	-91.633	-0.065	-0.019
-608.201	-68.469	-0.313	-0.122
-607.186	-140.163	-0.203	-0.021
-606.171	800.000	0.036	0.113
-605.157	44.710	-0.196	0.181
-604.142	-120.525	-0.279	-0.047
-603.128	-66.553	0.104	0.041
-602.113	-200.000	0.021	-0.236
-601.098	636.650	0.044	-0.111
-600.084	-94.268	0.063	0.017
-599.069	-200.000	-0.006	-0.054
-598.055	800.000	-0.074	-0.221
-597.040	-112.873	0.190	-0.038
-596.025	169.652	0.061	0.088
-595.011	-200.000	-0.005	-0.213
-593.996	55.734	0.050	-0.048
-592.982	-50.317	0.110	0.052
-591.967	264.065	0.090	-0.156
-590.952	-200.000	0.001	0.085
-589.938	800.000	0.070	-0.273
-588.923	71.917	-0.183	0.191
-587.909	-200.000	0.036	-0.166
-586.894	-29.597	-0.533	0.305
-585.879	-116.060	0.087	0.016
-584.865	-105.674	-0.391	-0.089
-583.850	-67.020	0.165	-0.065
-582.836	483.449	0.108	0.245
-581.821	-96.764	-0.366	0.096
-580.806	-119.249	0.141	0.025
-579.792	285.537	-0.213	-0.383
-578.777	228.388	0.239	0.389
-577.763	800.000	0.174	0.517
-576.748	520.816	-0.069	-0.162
-575.733	-38.816	-0.177	-0.093
-574.719	208.989	0.116	-0.181
-573.704	-129.829	0.237	0.033
-572.690	89.267	-0.173	-0.192
-571.675	77.660	0.253	-0.270
-570.661	21.385	-0.124	0.101
-569.646	800.000	0.061	0.240
-568.631	-171.477	-0.117	0.004
-567.617	-186.219	-0.170	0.002
-566.602	-200.000	-0.018	0.088
-565.588	190.583	0.032	0.048
-564.573	32.232	-0.024	0.021
-563.558	-136.720	-0.102	0.012
-562.544	-38.989	-0.242	0.128
-561.529	-29.350	-0.337	-0.193
-560.515	94.792	0.145	-0.164
-559.500	99.712	0.079	0.092
-558.485	-78.148	-0.127	0.044
-557.471	-21.268	-0.005	-0.003
-556.456	-200.000	0.037	-0.260
-555.442	800.000	0.084	-0.354
-554.427	-200.000	0.010	0.349
-553.412	-200.000	0.078	0.488
-552.398	288.275	-0.188	-0.340
-551.383	-200.000	0.001	-0.279
-550.369	-78.205	-0.126	-0.043
-549.354	-106.485	0.166	-0.037
-548.339	-110.841	0.278	0.057
-547.325	-90.024	-0.275	0.080
-546.310	50.058	-0.173	0.163
-545.296	-75.589	0.162	0.058
-544.281	-86.361	-0.179	-0.055
-543.266	102.583	0.085	0.099
-542.252	-90.643	0.159	-0.046
-541.237	53.869	0.146	0.140
-540.223	-146.004	-0.283	-0.025
-539.208	423.576	0.127	0.273
-538.193	456.451	0.075	-0.167
-537.179	96.055	0.085	0.097
-536.164	-80.683	-0.130	0.043
-535.150	74.749	0.199	0.209
-534.135	36.532	0.151	-0.133
-533.121	66.285	-0.231	0.234
-532.106	125.228	-0.373	0.469
-531.091	-101.206	0.119	0.029
-530.077	96.977	-0.126	-0.144
-529.062	-128.068	0.219	-0.031
-528.048	-133.113	0.344	0.043
-527.033	-200.000	-0.023	-0.353
-526.018	-94.101	-0.086	0.024
-525.004	104.367	-0.125	-0.147
-523.989	-34.895	0.392	0.213
-522.975	-42.296	0.037	0.019
-521.960	-200.000	0.021	0.199
-520.945	800.000	-0.010	-0.031
-519.931	800.000	-0.030	-0.108
-518.916	595.150	0.015	-0.037
-517.902	800.000	0.053	-0.159
-516.887	783.443	-0.078	-0.214
-515.872	800.000	-0.056	0.235
-514.858	-92.830	-0.203	0.057
-513.843	-97.283	0.399	0.104
-512.829	-178.380	0.113	0.003
-511.814	-200.000	0.013	-0.207
-510.799	138.349	-0.246	-0.322
-509.785	241.090	0.208	-0.346
-508.770	-127.878	0.090	-0.013
-507.756	-138.627	-0.360	0.039
-506.741	800.000	0.032	0.126
-505.726	264.023	-0.054	-0.094
-504.712	257.391	0.088	0.150
-503.697	5.988	0.171	0.126
-502.683	52.010	-0.149	-0.142
-501.668	-90.748	-0.213	-0.061
-500.653	-163.555	-0.159	0.008
-499.639	-144.540	0.212	-0.020
-498.624	-111.536	-0.147	0.030
-497.610	800.000	0.105	0.295
-496.595	-4.108	-0.155	0.107
-495.581	-14.818	-0.222	-0.142
-494.566	427.110	-0.055	0.117
-493.551	23.404	0.027	-0.022
-492.537	-200.000	-0.018	-0.303
-491.522	-142.610	-0.109	-0.011
-490.508	-117.720	0.192	0.034
-489.493	-16.739	-0.289	0.182
-488.478	-40.454	-0.137	0.071
-487.464	53.637	0.083	0.079
-486.449	-28.353	0.149	-0.086
-485.435	29.129	0.055	0.046
-484.420	800.000	0.076	0.318
-483.405	-81.720	0.191	-0.062
-482.391	-141.323	-0.105	0.011
-481.376	-200.000	-0.018	-0.091
-480.362	200.314	-0.181	0.278
-479.347	-200.000	0.103	0.000
-478.332	-200.000	0.062	-0.349
-477.318	353.612	0.100	-0.197
-476.303	30.727	0.219	-0.187
-475.289	11.619	-0.224	-0.171
-474.274	-20.784	0.370	-0.226
-473.259	-200.000	-0.032	0.177
-472.245	-78.317	0.259	-0.088
-471.230	697.113	-0.026	-0.068
-470.216	-75.934	-0.184	0.065
-469.201	-95.448	0.250	0.067
-468.186	800.000	0.052	-0.185
-467.172	-10.656	0.079	-0.052
-466.157	-79.654	-0.128	-0.043
-465.143	34.580	-0.124	0.108
-464.128	800.000	-0.040	-0.162
-463.113	-200.000	-0.050	0.374
-462.099	800.000	0.071	0.283
-461.084	-171.526	0.248	0.008
-460.070	29.532	-0.229	0.194
-459.055	129.112	0.033	0.042
-458.040	-11.447	-0.039	-0.025
-457.026	112.354	0.051	0.061
-456.011	-19.512	0.187	-0.115
-454.997	-76.412	-0.367	0.128
-453.982	-109.108	0.197	-0.042
-452.968	301.461	-0.201	-0.369
-451.953	800.000	-0.093	0.285
-450.938	-142.408	-0.192	-0.019
-449.924	-138.451	-0.276	0.030
-448.909	180.724	0.100	-0.147
-447.895	-87.493	-0.150	0.045
-446.880	-64.033	0.140	-0.057
-445.865	91.683	0.110	-0.123
-444.851	-2.179	0.023	-0.016
-443.836	-200.000	-0.032	-0.294
-442.822	-200.000	0.014	-0.384
-441.807	140.922	-0.080	0.106
-440.792	-200.000	0.018	0.159
-439.778	-23.455	-0.209	0.125
-438.763	-200.000	-0.004	-0.064
-437.749	291.384	-0.031	-0.056
-436.734	207.934	-0.128	-0.198
-435.719	-200.000	0.021	0.143
-434.705	-152.771	0.210	0.015
-433.690	273.844	0.104	0.182
-432.676	-88.822	0.015	-0.005
-431.661	261.525	-0.058	-0.100
-430.646	-4.104	0.114	-0.079
-429.632	0.040	0.489	0.346
-428.617	72.284	-0.155	0.160
-427.603	-101.696	0.263	0.063
-426.588	-136.633	-0.309	-0.036
-425.573	-200.000	-0.016	0.613
-424.559	-70.181	-0.163	0.062
-423.544	800.000	0.074	-0.214
-422.530	130.446	-0.353	-0.449
-421.515	-28.552	0.267	0.153
-420.500	277.471	0.063	-0.111
-419.486	485.272	0.055	0.124
-418.471	800.000	0.061	-0.218
-417.457	-7.738	-0.090	-0.060
-416.442	-13.399	0.140	-0.090
-415.428	-73.020	-0.422	-0.154
-414.413	-200.000	0.000	-0.026
-413.398	800.000	0.084	0.315
-412.384	-200.000	-0.073	0.371
-411.369	-200.000	0.030	0.503
-410.355	194.258	0.042	0.064
-409.340	-17.986	-0.233	-0.145
-408.325	-144.153	0.356	0.033
-407.311	-200.000	-0.021	0.368
-406.296	792.567	0.096	-0.263
-405.282	800.000	-0.055	0.172
-404.267	13.239	0.086	0.066
-403.252	35.958	-0.026	0.023
-402.238	-21.614	-0.060	-0.037
-401.223	290.697	0.074	-0.134
-400.209	800.000	-0.054	-0.227
-399.194	-77.063	0.171	0.059
-398.179	-87.267	0.135	-0.041
-397.165	-52.454	-0.108	-0.049
-396.150	358.179	0.073	0.146
-395.136	-10.341	0.368	-0.242
-394.121	-95.312	0.125	-0.033
-393.106	-67.325	-0.079	-0.031
-392.092	-200.000	-0.024	0.161
-391.077	362.875	0.061	-0.122
-390.063	-200.000	0.015	-0.095
-389.048	669.111	-0.026	-0.068
-388.033	-8.454	0.192	-0.128
-387.019	-114.281	0.184	0.035
-386.004	800.000	0.060	-0.236
-384.990	-57.071	0.348	-0.152
-383.975	-121.399	-0.164	-0.027
-382.960	-200.000	-0.157	0.699
-381.946	-124.954	0.298	-0.046
-380.931	275.875	-0.129	-0.228
-379.917	800.000	0.071	0.295
-378.902	-105.609	0.066	0.015
-377.888	-85.227	0.136	0.042
-376.873	-200.000	-0.005	-0.294
-375.858	-67.172	0.100	0.039
-374.844	-200.000	0.026	0.238
-373.829	-200.000	-0.030	-0.141
-372.815	168.640	0.138	0.195
-371.800	-123.672	-0.152	-0.024
-370.785	800.000	0.074	-0.271
-369.771	-200.000	0.037	-0.256
-368.756	106.786	0.095	0.112
-367.742	800.000	0.079	-0.224
-366.727	333.902	-0.073	-0.141
-365.712	356.187	0.149	0.295
-364.698	-40.683	-0.084	-0.043
-363.683	-26.050	-0.097	0.056
-362.669	90.581	0.051	0.057
-361.654	36.910	-0.326	-0.286
-360.639	-200.000	-0.005	-0.145
-359.625	132.021	-0.213	-0.272
-358.610	5.218	-0.049	0.036
-357.596	80.620	-0.094	0.100
-356.581	283.432	0.104	-0.186
-355.566	-109.512	-0.288	0.060
-354.552	18.967	-0.088	-0.070
-353.537	84.635	0.234	0.254
-352.523	-72.832	-0.129	0.047
-351.508	102.356	0.104	0.120
-350.493	800.000	-0.077	0.278
-349.479	168.688	-0.067	-0.094
-348.464	15.920	0.222	0.173
-347.450	-200.000	-0.030	0.262
-346.435	-150.438	0.377	-0.029
-345.420	53.624	0.063	-0.059
-344.406	84.991	-0.141	0.153
-343.391	800.000	-0.073	0.205
-342.377	279.863	-0.137	-0.242
-341.362	-75.866	0.350	0.123
-340.348	-200.000	-0.007	0.107
-339.333	-200.000	-0.040	0.206
-338.318	-200.000	-0.010	-0.272
-337.304	-200.000	0.021	-0.149
-336.289	-200.000	0.066	-0.320
-335.275	-89.085	0.099	-0.029
-334.260	-30.281	-0.250	0.141
-333.245	282.000	-0.058	-0.103
-332.231	-93.560	0.114	0.031
-331.216	2.113	0.164	-0.117
-330.202	-200.000	-0.050	0.230
-329.187	-80.786	0.307	0.101
-328.172	800.000	0.018	0.049
-327.158	-200.000	0.027	-0.123
-326.143	-61.310	-0.206	-0.086
-325.129	119.743	0.170	0.208
-324.114	119.250	-0.147	-0.180
-323.099	800.000	0.071	0.200
-322.085	-69.292	-0.100	0.038
-321.070	800.000	-0.033	-0.132
-320.056	-136.430	0.179	0.021
-319.041	-69.155	-0.104	0.039
-318.026	99.661	0.133	-0.152
-317.012	-200.000	0.036	-0.189
-315.997	72.668	-0.108	0.111
-314.983	-200.000	-0.039	0.199
-313.968	-200.000	-0.008	-0.246
-312.953	800.000	-0.043	0.123
-311.939	-71.971	-0.118	0.044
-310.924	34.213	0.168	0.145
-309.910	-134.147	-0.242	0.030
-308.895	-123.022	-0.440	0.070
-307.880	14.608	-0.188	-0.146
-306.866	-165.908	0.251	-0.011
-305.851	236.543	-0.048	-0.079
-304.837	-104.309	-0.077	-0.018
-303.822	188.839	0.140	-0.208
-302.807	-164.934	-0.182	0.008
-301.793	182.170	-0.133	0.195
-300.778	-200.000	-0.005	-0.040
-299.764	-5.217	0.142	0.097
-298.749	-139.091	-0.163	-0.017
-297.735	-200.000	0.029	-0.202
-296.720	32.849	0.235	0.201
-295.705	49.696	-0.170	0.159
-294.691	-28.766	-0.263	-0.150
-293.676	380.902	-0.097	0.197
-292.662	196.237	-0.055	0.083
-291.647	-105.332	0.336	-0.076
-290.632	-200.000	0.027	0.271
-289.618	80.112	-0.174	-0.185
-288.603	103.398	-0.107	-0.124
-287.589	-11.595	-0.362	0.235
-286.574	-200.000	0.286	-0.001
-285.559	616.162	0.075	-0.187
-284.545	565.877	0.071	-0.170
-283.530	-200.000	-0.039	-0.295
-282.516	-15.615	0.307	0.193
-281.501	-151.386	-0.168	-0.012
-280.486	-200.000	-0.005	-0.185
-279.472	26.119	-0.140	-0.116
-278.457	-66.732	0.248	-0.097
-277.443	68.643	-0.136	0.138
-276.428	645.110	0.045	-0.113
-275.413	48.136	0.153	0.141
-274.399	119.113	0.129	0.157
-273.384	800.000	-0.058	-0.179
-272.370	-200.000	0.038	0.198
-271.355	-104.179	0.179	0.041
-270.340	-78.379	-0.177	0.060
-269.326	130.334	0.223	-0.282
-268.311	800.000	-0.036	-0.145
-267.297	-34.752	-0.200	-0.108
-266.282	-200.000	0.013	0.168
-265.267	-109.689	-0.140	0.029
-264.253	-200.000	-0.004	-0.089
-263.238	54.733	-0.137	-0.130
-262.224	20.163	0.275	-0.219
-261.209	214.256	0.022	0.035
-260.195	-23.069	0.256	-0.152
-259.180	-102.781	-0.186	-0.044
-258.165	-91.868	0.186	-0.052
-257.151	59.934	-0.103	0.101
-256.136	-5.999	0.212	-0.143
-255.122	-200.000	0.028	0.305
-254.107	50.264	0.087	0.081
-253.092	800.000	-0.069	0.238
-252.078	67.365	-0.117	-0.118
-251.063	-110.168	-0.055	-0.011
-250.049	-200.000	0.028	-0.333
-249.034	-200.000	-0.024	0.206
-248.019	32.829	-0.068	0.058
-247.005	-200.000	0.004	0.167
-245.990	-200.000	-0.001	-0.083
-244.976	800.000	-0.056	-0.175
-243.961	-46.924	0.241	0.116
-242.946	-57.094	0.289	-0.126
-241.932	54.411	-0.105	-0.100
-240.917	335.608	-0.157	0.300
-239.903	166.957	-0.135	0.189
-238.888	-37.326	0.200	0.105
-237.873	800.000	0.030	-0.117
-236.859	-29.656	-0.107	0.060
-235.844	-121.890	0.142	0.023
-234.830	-29.328	-0.089	-0.050
-233.815	-53.873	0.337	0.152
-232.800	-37.054	-0.192	-0.102
-231.786	165.650	-0.059	0.082
-230.771	262.943	-0.218	-0.373
-229.757	103.927	0.187	0.216
-228.742	800.000	-0.041	0.152
-227.727	-109.700	0.259	0.054
-226.713	-200.000	-0.029	-0.163
-225.698	-62.167	0.141	0.058
-224.684	-200.000	0.030	0.235
-223.669	-63.586	-0.202	0.082
-222.655	-200.000	-0.022	0.200
-221.640	-63.213	0.311	0.127
-220.625	-200.000	0.005	-0.045
-219.611	-40.356	0.135	-0.069
-218.596	291.235	0.183	0.328
-217.582	136.289	-0.159	0.205
-216.567	800.000	0.064	-0.176
-215.552	48.578	-0.148	0.137
-214.538	281.993	0.143	-0.252
-213.523	-86.475	-0.170	-0.052
-212.509	55.533	-0.106	-0.101
-211.494	-101.918	0.243	-0.058
-210.479	800.000	0.147	-0.523
-209.465	-200.000	-0.016	-0.091
-208.450	-56.538	0.189	-0.083
-207.436	-200.000	-0.001	-0.161
-206.421	800.000	-0.031	0.114
-205.406	557.719	0.040	0.095
-204.392	-200.000	-0.030	0.162
-203.377	-64.604	-0.283	0.113
-202.363	-139.080	-0.268	-0.029
-201.348	-38.965	0.192	0.100
-200.333	464.272	0.022	-0.048
-199.319	166.654	-0.237	-0.332
-198.304	-68.135	0.251	-0.096
-197.290	-148.630	0.112	-0.009
-196.275	-124.886	0.207	-0.032
-195.260	-144.383	-0.201	0.018
-194.246	800.000	-0.071	-0.308
-193.231	311.287	0.148	-0.274
-192.217	-155.722	-0.532	-0.034
-191.202	183.857	-0.193	0.282
-190.187	-200.000	-0.059	-0.306
-189.173	-200.000	-0.018	-0.171
-188.158	68.107	0.158	-0.160
-187.144	44.630	-0.118	-0.107
-186.129	-53.951	-0.288	0.129
-185.114	-192.257	-0.178	0.002
-184.100	715.550	0.046	-0.120
-183.085	27.355	-0.307	0.254
-182.071	-81.042	-0.120	0.039
-181.056	800.000	0.057	-0.222
-180.042	-79.776	-0.241	0.080
-179.027	-200.000	0.117	-0.522
-178.012	-130.242	-0.098	-0.013
-176.998	-123.617	-0.179	0.028
-175.983	40.146	-0.184	-0.163
-174.969	-200.000	0.049	0.221
-173.954	-200.000	-0.045	0.276
-172.939	-46.813	-0.151	0.073
-171.925	-65.229	-0.092	-0.036
-170.910	246.021	0.093	-0.155
-169.896	359.210	0.127	-0.250
-168.881	211.266	0.056	0.086
-167.866	261.116	0.120	0.204
-166.852	-111.085	0.091	-0.018
-165.837	800.000	0.065	0.183
-164.823	-25.249	0.051	0.030
-163.808	728.114	0.091	-0.240
-162.793	-102.576	0.187	-0.044
-161.779	-52.755	0.256	-0.116
-160.764	-105.983	0.172	0.038
-159.750	-40.479	0.191	-0.098
-158.735	1.252	-0.023	0.016
-157.720	-76.810	-0.145	0.050
-156.706	800.000	0.032	-0.089
-155.691	-104.599	0.114	0.026
-154.677	-14.899	-0.052	0.033
-153.662	-20.641	-0.134	0.081
-152.647	186.427	-0.130	0.190
-151.633	-88.157	0.148	-0.044
-150.618	-71.295	-0.286	-0.106
-149.604	18.594	-0.244	-0.192
-148.589	352.717	0.115	0.224
-147.574	800.000	-0.048	-0.186
-146.560	223.206	-0.072	0.114
-145.545	68.723	-0.313	-0.316
-144.531	-89.336	0.237	0.069
-143.516	-58.406	-0.348	-0.149
-142.502	26.531	0.104	-0.086
-141.487	-80.321	-0.145	0.048
-140.472	-49.374	-0.154	0.072
-139.458	134.779	-0.067	0.085
-138.443	95.593	0.278	0.312
-137.429	-122.539	0.126	-0.020
-136.414	-47.287	-0.172	0.082
-135.399	380.193	-0.040	-0.080
-134.385	800.000	-0.014	0.061
-133.370	42.337	0.149	-0.133
-132.356	31.130	-0.156	-0.132
-131.341	26.455	0.140	0.115
-130.326	-0.146	0.202	-0.141
-129.312	800.000	-0.069	0.294
-128.297	4.620	0.073	-0.052
-127.283	-200.000	0.007	-0.057
-126.268	124.615	-0.265	0.328
-125.253	-36.232	-0.017	-0.009
-124.239	800.000	-0.134	-0.562
-123.224	-200.000	0.020	-0.214
-122.210	800.000	-0.020	-0.087
-121.195	-129.182	0.277	0.038
-120.180	-106.352	-0.158	0.035
-119.166	-139.273	0.023	0.002
-118.151	130.599	0.158	0.199
-117.137	16.805	-0.307	0.239
-116.122	-200.000	-0.016	0.075
-115.107	800.000	-0.155	-0.454
-114.093	-103.311	-0.042	0.010
-113.078	-98.668	0.175	0.044
-112.064	-19.702	0.443	-0.269
-111.049	800.000	-0.052	-0.216
-110.034	-120.850	-0.307	0.051
-109.020	371.141	0.171	0.341
-108.005	-200.000	0.046	0.251
-106.991	-33.640	0.412	-0.223
-105.976	-2.627	-0.046	0.032
-104.962	89.700	0.191	0.209
-103.947	-148.572	-0.210	0.017
-102.932	40.725	-0.106	0.094
-101.918	800.000	-0.162	0.475
-100.903	359.196	0.140	0.274
-99.889	-200.000	0.040	0.179
-98.874	46.228	-0.131	0.119
-97.859	-94.414	-0.288	-0.077
-96.845	-62.883	-0.341	-0.139
-95.830	-93.446	-0.330	-0.090
-94.816	-37.650	-0.212	0.111
-93.801	14.043	0.123	0.094
-92.786	-101.318	0.230	-0.055
-91.772	800.000	-0.018	-0.053
-90.757	587.027	0.126	0.305
-89.743	-200.000	-0.011	0.222
-88.728	-162.813	0.233	-0.011
-87.713	-200.000	-0.042	0.267
-86.699	-100.275	-0.076	0.019
-85.684	155.948	-0.177	0.239
-84.670	-200.000	-0.012	0.157
-83.655	-26.046	0.019	0.011
-82.640	657.489	0.138	0.349
-81.626	-200.000	0.007	0.097
-80.611	-2.413	-0.241	0.166
-79.597	-200.000	-0.012	-0.303
-78.582	-25.492	-0.141	-0.082
-77.567	-28.459	0.098	-0.055
-76.553	387.689	-0.085	-0.172
-75.538	32.812	0.091	0.078
-74.524	-80.041	-0.339	-0.111
-73.509	499.603	-0.034	-0.076
-72.494	-23.210	0.153	0.090
-71.480	-51.307	-0.309	0.142
-70.465	800.000	0.038	0.109
-69.451	-200.000	-0.072	0.313
-68.436	737.336	-0.098	0.257
-67.422	-200.000	-0.010	-0.065
-66.407	-77.568	-0.088	-0.030
-65.392	-75.657	0.254	0.088
-64.378	342.891	0.067	0.128
-63.363	-200.000	0.010	0.101
-62.349	-200.000	-0.073	0.429
-61.334	261.682	-0.771	-1.310
-60.319	-26.373	0.873	0.502
-59.305	-200.000	-0.248	-1.348
-58.290	225.601	0.876	1.392
-57.276	800.000	0.412	1.671
-56.261	-200.000	114.369	654.227
-55.246	476.218	1505.923	3334.992
-54.232	148.021	2666.046	3524.065
-53.217	104.303	2148.207	2477.251
-52.203	38.921	1598.320	1399.332
-51.188	30.874	1345.654	1129.527
-50.173	27.966	1308.497	1081.117
-49.159	55.303	1363.573	1292.196
-48.144	53.984	1377.928	1297.815
-47.130	31.121	1333.520	1120.649
-46.115	27.812	1315.854	1086.107
-45.100	27.444	1311.541	1080.319
-44.086	27.454	1308.672	1077.973
-43.071	27.349	1306.914	1075.863
-42.057	27.450	1304.395	1074.342
-41.042	27.480	1302.630	1073.024
-40.027	27.464	1301.132	1071.651
-39.013	27.440	1299.439	1070.072
-37.998	27.431	1297.470	1068.358
-36.984	27.489	1295.724	1067.215
-35.969	27.533	1293.921	1065.946
-34.954	27.446	1292.519	1064.244
-33.940	27.627	1291.123	1064.106
-32.925	27.613	1289.971	1063.033
-31.911	27.590	1288.378	1061.545
-30.896	27.638	1287.162	1060.781
-29.881	27.749	1284.996	1059.597
-28.867	27.646	1283.973	1058.112
-27.852	27.610	1282.426	1056.590
-26.838	27.712	1281.306	1056.214
-25.823	27.600	1280.041	1054.479
-24.809	27.639	1278.359	1053.278
-23.794	27.633	1277.296	1052.324
-22.779	27.485	1276.499	1050.773
-21.765	27.664	1275.096	1050.612
-20.750	27.621	1273.715	1049.184
-19.736	27.573	1272.657	1047.993
-18.721	27.521	1271.072	1046.350
-17.706	27.521	1269.704	1045.181
-16.692	27.438	1268.828	1043.940
-15.677	27.600	1267.586	1043.807
-14.663	27.486	1266.833	1042.492
-13.648	27.580	1265.526	1041.915
-12.633	27.551	1264.517	1040.874
-11.619	27.474	1264.083	1040.039
-10.604	27.515	1263.067	1039.393
-9.590	27.468	1262.058	1038.251
-8.575	27.434	1261.298	1037.394
-7.560	27.492	1260.166	1036.755
-6.546	27.547	1258.827	1035.923
-5.531	27.451	1258.295	1034.896
-4.517	27.547	1257.245	1034.540
-3.502	27.511	1256.617	1033.776
-2.487	27.411	1256.217	1032.840
-1.473	27.571	1250.792	1029.239
-0.458	25.714	1235.975	1006.637
0.556	20.213	1219.022	966.641
1.571	16.340	1224.917	949.493
2.586	15.339	1240.312	955.642
3.600	15.220	1228.738	945.968
4.615	11.340	1156.417	869.566
5.629	3.913	1082.763	776.921
6.644	0.378	1064.068	745.970
7.659	0.039	1062.069	742.828
8.673	0.062	1060.885	742.048
9.688	0.002	1059.184	740.496
10.702	0.283	1057.422	740.582
11.717	4.788	1063.128	766.736
12.731	12.573	1073.699	812.890
13.746	16.729	1078.405	836.964
14.761	17.062	1078.185	838.364
15.775	16.047	1076.435	831.919
16.790	15.056	1074.105	825.164
17.804	14.382	1072.120	820.247
18.819	13.986	1071.579	817.810
19.834	13.692	1071.284	816.066
20.848	13.465	1070.525	814.301
21.863	13.336	1068.816	812.296
22.877	13.326	1067.915	811.490
23.892	13.106	1067.359	809.914
24.907	13.116	1066.826	809.488
25.921	13.092	1066.230	808.850
26.936	13.112	1065.168	808.066
27.950	13.214	1064.264	807.812
28.965	13.406	1063.024	807.735
29.980	13.302	1061.967	806.351
30.994	13.288	1060.960	805.450
32.009	13.447	1059.713	805.207
33.023	13.328	1059.027	804.034
34.038	13.292	1057.545	802.663
35.053	13.267	1056.814	801.916
36.067	13.337	1055.566	801.237
37.082	13.417	1054.809	800.980
38.096	13.362	1054.536	800.432
39.111	13.388	1053.764	799.902
40.126	13.329	1052.819	798.827
41.140	13.256	1050.987	797.018
42.155	13.207	1050.066	796.010
43.169	13.231	1049.056	795.294
44.184	13.259	1047.842	794.433
45.199	13.286	1046.251	793.288
46.213	13.147	1045.938	792.314
47.228	13.168	1045.237	791.815
48.242	13.332	1043.298	791.061
49.257	13.230	1043.079	790.334
50.271	13.371	1041.972	790.100
51.286	13.255	1041.251	788.930
52.301	13.318	1039.936	788.162
53.315	13.237	1039.622	787.472
54.330	13.133	1038.797	786.281
55.344	13.227	1037.377	785.583
56.359	13.158	1036.663	784.647
57.374	13.197	1035.628	783.976
58.388	13.166	1035.272	783.494
59.403	13.132	1034.293	782.519
60.417	13.156	1033.428	781.910
61.432	13.136	1032.581	781.105
62.447	13.131	1031.475	780.177
63.461	13.065	1031.213	779.598
64.476	13.041	1030.242	778.681
65.490	13.075	1029.360	778.107
66.505	13.058	1028.665	777.433
67.520	13.081	1027.990	776.960
68.534	13.087	1027.425	776.493
69.549	13.052	1026.411	775.496
70.563	13.102	1025.988	775.341
71.578	13.092	1024.962	774.449
72.593	13.098	1023.905	773.610
73.607	12.912	1023.624	772.461
74.622	13.021	1022.627	772.151
75.636	13.061	1022.281	772.008
76.651	13.076	1021.262	771.238
77.666	13.004	1020.840	770.514
78.680	13.007	1020.000	769.825
79.695	13.056	1019.911	769.922
80.709	13.194	1019.244	769.990
81.724	13.230	1017.974	769.132
82.739	13.051	1017.419	767.813
83.753	13.103	1017.195	767.815
84.768	13.207	1015.866	767.229
85.782	13.299	1014.577	766.615
86.797	13.178	1013.942	765.505
87.812	13.270	1012.875	765.058
88.826	13.213	1012.246	764.250
89.841	13.260	1010.960	763.428
90.855	13.261	1009.914	762.578
91.870	13.363	1009.120	762.380
92.884	13.461	1008.174	762.050
93.899	13.311	1007.852	761.049
94.914	13.475	1006.296	760.561
95.928	13.357	1005.758	759.544
96.943	13.422	1004.743	759.008
97.957	13.262	1004.092	757.716
98.972	13.429	1003.012	757.596
99.987	13.330	1002.610	756.776
101.001	13.424	1001.348	756.185
102.016	13.305	1000.501	754.933
103.030	13.421	999.962	754.991
104.045	13.513	998.976	754.596
105.060	13.337	997.832	752.867
106.074	13.169	997.314	751.644
107.089	13.355	995.973	751.412
108.103	13.159	995.552	750.137
109.118	13.236	994.281	749.464
110.133	13.167	993.791	748.715
111.147	13.218	992.649	748.019
112.162	13.298	991.479	747.433
113.176	13.274	990.944	746.857
114.191	13.300	990.331	746.445
115.206	13.234	989.466	745.427
116.220	13.315	988.694	745.147
117.235	13.347	987.621	744.416
118.249	13.347	986.615	743.590
119.264	13.348	986.004	743.068
120.279	13.193	985.539	741.957
121.293	13.382	983.944	741.538
122.308	13.322	983.463	740.840
123.322	13.247	982.653	739.831
124.337	13.231	981.434	738.777
125.352	13.174	980.557	737.795
126.366	13.285	979.217	737.218
127.381	13.210	978.582	736.338
128.395	13.081	977.924	735.205
129.410	13.244	976.748	734.982
130.424	13.266	975.729	734.247
131.439	13.244	975.110	733.617
132.454	13.416	974.314	733.717
133.468	13.378	973.331	732.745
134.483	13.377	972.194	731.818
135.497	13.381	971.449	731.210
136.512	13.501	970.495	730.958
137.527	13.312	970.107	729.766
138.541	13.334	969.466	729.315
139.556	13.328	968.455	728.467
140.570	13.365	967.666	727.971
141.585	13.334	967.143	727.377
142.600	13.409	966.214	726.943
143.614	13.486	965.356	726.572
144.629	13.388	964.995	725.803
145.643	13.493	963.400	725.001
146.658	13.546	962.374	724.395
147.673	13.352	961.856	723.096
148.687	13.313	960.951	722.180
149.702	13.352	960.411	721.881
150.716	13.437	959.239	721.308
151.731	13.488	958.211	720.692
152.746	13.440	957.556	719.928
153.760	13.536	956.804	719.716
154.775	13.535	956.649	719.531
155.789	13.588	955.830	719.081
156.804	13.549	955.403	718.525
157.819	13.352	954.725	717.099
158.833	13.639	953.789	717.573
159.848	13.649	953.109	717.041
160.862	13.578	952.276	716.048
161.877	13.499	951.180	714.815
162.892	13.486	950.139	713.914
163.906	13.504	948.780	712.908
164.921	13.486	948.842	712.815
165.935	13.428	947.909	711.800
166.950	13.664	946.584	711.757
167.964	13.647	945.872	711.087
168.979	13.587	945.210	710.269
169.994	13.520	944.146	709.119
171.008	13.661	943.158	708.915
172.023	13.613	942.813	708.388
173.037	13.691	941.880	707.957
174.052	13.743	941.229	707.630
175.067	13.639	940.529	706.598
176.081	13.536	940.065	705.746
177.096	13.655	939.262	705.587
178.110	13.506	939.065	704.742
179.125	13.632	938.163	704.539
180.140	13.623	937.883	704.227
181.154	13.675	937.470	704.077
182.169	13.797	936.605	703.883
183.183	13.817	936.117	703.539
184.198	13.943	935.158	703.289
185.213	13.918	934.341	702.509
186.227	13.944	933.645	702.033
187.242	13.843	933.164	701.180
188.256	13.955	932.563	701.139
189.271	13.880	931.881	700.248
190.286	13.800	931.088	699.255
191.300	13.764	930.206	698.377
192.315	13.632	929.855	697.497
193.329	13.598	929.786	697.239
194.344	13.813	928.591	697.189
195.359	13.786	928.056	696.610
196.373	13.866	927.167	696.215
197.388	14.018	926.687	696.431
198.402	14.010	926.157	695.936
199.417	13.960	925.575	695.231
200.432	14.124	925.022	695.437
201.446	14.090	925.128	695.315
202.461	14.122	924.037	694.565
203.475	14.108	923.396	693.966
204.490	14.181	922.981	693.898
205.504	14.014	922.530	692.801
206.519	14.140	921.195	692.261
207.534	14.003	920.481	691.092
208.548	14.002	919.996	690.663
209.563	14.035	919.203	690.142
210.577	14.009	918.733	689.624
211.592	14.284	918.151	690.266
212.607	14.241	917.284	689.372
213.621	14.242	916.335	688.602
214.636	14.438	915.362	688.621
215.650	14.325	914.735	687.623
216.665	14.263	914.381	687.039
217.680	14.371	913.694	686.906
218.694	14.321	913.012	686.128
219.709	14.456	912.473	686.216
220.723	14.362	911.656	685.157
221.738	14.257	911.279	684.379
222.753	14.352	910.107	683.830
223.767	14.450	909.647	683.825
224.782	14.330	909.704	683.315
225.796	14.433	908.881	683.057
226.811	14.440	907.979	682.348
227.826	14.387	907.731	681.885
228.840	14.413	906.465	680.983
229.855	14.418	906.044	680.626
230.869	14.389	904.965	679.637
231.884	14.438	904.314	679.288
232.899	14.461	903.313	678.570
233.913	14.609	902.454	678.465
234.928	14.367	902.259	677.275
235.942	14.333	901.665	676.632
236.957	14.382	901.135	676.372
237.972	14.541	900.319	676.342
238.986	14.352	900.171	675.406
240.001	14.431	899.584	675.226
241.015	14.503	898.439	674.600
242.030	14.477	898.298	674.330
243.045	14.556	897.368	673.889
244.059	14.598	896.453	673.313
245.074	14.602	895.900	672.855
246.088	14.553	895.585	672.360
247.103	14.615	895.486	672.476
248.117	14.662	894.985	672.228
249.132	14.787	894.003	671.933
250.147	14.865	893.509	671.817
251.161	14.811	892.731	670.954
252.176	14.931	892.060	670.875
253.190	14.883	891.478	670.183
254.205	14.990	890.396	669.739
255.220	14.844	890.263	668.997
256.234	15.070	889.479	669.252
257.249	14.924	888.746	668.058
258.263	15.052	888.049	667.986
259.278	15.038	887.189	667.226
260.293	14.990	887.023	666.849
261.307	14.861	886.478	665.867
262.322	15.045	885.570	665.859
263.336	15.242	884.591	665.846
264.351	15.136	883.948	664.882
265.366	15.141	883.529	664.526
266.380	15.223	882.567	664.069
267.395	15.193	882.062	663.513
268.409	15.202	880.948	662.653
269.424	15.339	880.058	662.465
270.439	15.179	879.793	661.573
271.453	14.993	879.453	660.525
272.468	14.948	879.354	660.214
273.482	15.121	878.552	660.239
274.497	15.063	877.824	659.404
275.512	15.073	877.268	658.968
276.526	15.232	876.491	658.952
277.541	15.247	875.628	658.301
278.555	15.165	875.532	657.848
279.570	15.190	874.717	657.279
280.585	15.269	873.790	656.831
281.599	15.328	872.878	656.318
282.614	15.323	872.712	656.117
283.628	15.341	871.776	655.424
284.643	15.371	871.521	655.292
285.657	15.450	870.543	654.806
286.672	15.351	869.930	653.903
287.687	15.271	869.090	652.904
288.701	15.501	868.429	653.240
289.716	15.496	867.862	652.739
290.730	15.375	867.409	651.871
291.745	15.291	867.211	651.335
292.760	15.480	866.343	651.361
293.774	15.482	865.897	650.975
294.789	15.606	864.728	650.520
295.803	15.533	864.336	649.886
296.818	15.488	863.589	649.092
297.833	15.412	863.037	648.324
298.847	15.652	862.308	648.646
299.862	15.537	861.955	647.878
300.876	15.613	861.596	647.848
301.891	15.488	861.066	646.908
302.906	15.540	860.272	646.455
303.920	15.672	860.079	646.760
304.935	15.655	859.192	645.971
305.949	15.688	858.360	645.417
306.964	15.696	857.814	644.979
307.979	15.707	857.194	644.495
308.993	15.795	856.817	644.494
310.008	16.001	855.746	644.418
311.022	15.894	855.239	643.572
312.037	15.764	855.106	642.917
313.052	15.705	854.463	642.150
314.066	15.760	854.222	642.125
315.081	15.830	853.322	641.659
316.095	15.758	852.746	640.892
317.110	15.742	852.238	640.394
318.125	15.758	851.658	639.963
319.139	15.880	851.426	640.194
320.154	15.875	850.946	639.759
321.168	15.887	850.150	639.150
322.183	15.896	849.491	638.632
323.197	15.818	849.156	638.027
324.212	16.009	848.459	638.172
325.227	15.847	848.070	637.208
326.241	15.818	847.229	636.411
327.256	15.953	846.424	636.259
328.270	15.900	846.388	635.976
329.285	15.825	846.043	635.375
330.300	15.853	845.002	634.645
331.314	15.918	844.729	634.629
332.329	15.861	844.110	633.891
333.343	16.096	843.497	634.260
334.358	16.083	843.459	634.125
335.373	15.939	842.971	633.162
336.387	16.063	842.647	633.328
337.402	16.085	842.202	633.020
338.416	16.169	841.920	633.069
339.431	16.207	841.416	632.774
340.446	16.331	841.036	632.900
341.460	16.307	840.525	632.370
342.475	16.318	840.236	632.137
343.489	16.252	839.862	631.550
344.504	16.335	839.465	631.508
345.519	16.211	839.079	630.698
346.533	16.324	837.884	630.164
347.548	16.239	837.524	629.520
348.562	16.279	836.759	629.042
349.577	16.334	836.190	628.763
350.592	16.320	835.601	628.211
351.606	16.307	835.215	627.816
352.621	16.308	834.367	627.129
353.635	16.395	833.782	626.955
354.650	16.349	833.217	626.304
355.665	16.424	832.550	626.026
356.679	16.319	832.009	625.174
357.694	16.440	831.036	624.837
358.708	16.397	830.776	624.427
359.723	16.412	830.555	624.260
360.738	16.416	829.890	623.720
361.752	16.443	829.247	623.281
362.767	16.460	828.584	622.791
363.781	16.547	828.084	622.679
364.796	16.603	827.611	622.474
365.810	16.540	827.309	621.960
366.825	16.730	826.767	622.196
367.840	16.672	826.299	621.578
368.854	16.758	825.726	621.406
369.869	16.651	825.440	620.743
370.883	16.683	824.831	620.347
371.898	16.647	824.669	620.040
372.913	16.922	824.013	620.497
373.927	16.799	823.701	619.756
374.942	16.812	823.018	619.235
375.956	16.803	822.663	618.883
376.971	16.795	822.686	618.815
377.986	16.802	822.029	618.293
379.000	16.997	821.293	618.392
380.015	16.903	820.994	617.771
381.029	16.947	820.595	617.575
382.044	16.945	819.800	616.916
383.059	17.024	819.147	616.660
384.073	17.138	818.202	616.305
385.088	16.817	818.234	615.109
386.102	16.647	817.675	614.020
387.117	16.921	817.209	614.609
388.132	16.828	816.528	613.703
389.146	16.906	815.760	613.356
390.161	16.893	815.273	612.886
391.175	16.986	814.694	612.734
392.190	16.992	814.273	612.385
393.205	17.061	813.965	612.348
394.219	16.971	813.588	611.687
395.234	16.803	813.314	610.820
396.248	16.866	813.071	610.811
397.263	16.967	812.256	610.506
398.278	16.933	812.257	610.331
399.292	16.956	811.406	609.721
400.307	16.976	811.113	609.518
401.321	16.886	810.865	608.957
402.336	17.122	810.011	609.105
403.350	17.083	809.675	608.663
404.365	17.198	809.007	608.515
405.380	17.116	808.490	607.780
406.394	17.234	807.625	607.498
407.409	17.370	807.542	607.867
408.423	17.286	807.510	607.490
409.438	17.275	807.300	607.239
410.453	17.350	806.564	606.899
411.467	17.392	806.110	606.654
412.482	17.367	805.635	606.154
413.496	17.454	805.446	606.269
414.511	17.395	805.249	605.854
415.526	17.398	804.508	605.255
416.540	17.425	803.723	604.707
417.555	17.476	803.171	604.419
418.569	17.497	803.230	604.486
419.584	17.584	802.373	604.095
420.599	17.535	802.265	603.787
421.613	111.085	1294.678	1476.357
422.628	95.729	1366.372	1476.426
