DTS Sentinel unit serial number:	SN413079Multiplexer serial number:	ORYXHardware model number:	OX4-SRSoftware version number:	ORYX F/W v4.00 Oryx Data Collector v3.7.2.0data status	okinstallation	princeton_trtdifferential loss correction	single-endedforward channel	channel 1reverse channel	N/Adate	2019/09/16time	23:46:35forward acquisition time	60.00reverse acquisition time	0.00gamma	496.2192k internal	0.2325k external	0.2325temperature offset calibration	0.9957default loss term (dB/km)	0.3790temperature slope calibration	1.0000multiplexer offset coefficient	1.0000multiplexer slope coefficient	1.0000fibre end	0.00T internal ref (°C)	29.69T ext. ref 1 (°C)	0.09T ext. ref 2 (°C)	23.80length (m)	temperature (°C)	Stokes	anti-Stokes-747.200	-79.616	-0.248	-0.084
-746.185	-200.000	-0.045	0.272
-745.171	20.593	0.092	0.075
-744.156	265.057	0.025	0.045
-743.142	13.586	0.272	-0.213
-742.127	511.899	0.104	0.243
-741.112	-160.425	-0.079	-0.004
-740.098	800.000	-0.076	0.293
-739.083	-53.620	-0.125	0.057
-738.069	-200.000	0.059	0.586
-737.054	-90.293	-0.184	-0.054
-736.039	188.476	-0.271	0.408
-735.025	149.297	-0.143	0.196
-734.010	-76.866	-0.275	0.097
-732.996	36.367	-0.077	0.068
-731.981	-200.000	0.061	0.348
-730.966	127.717	-0.164	0.211
-729.952	159.702	0.078	-0.110
-728.937	-104.005	0.086	0.020
-727.923	2.766	-0.272	-0.199
-726.908	-117.695	-0.083	-0.015
-725.894	-200.000	0.031	-0.358
-724.879	-86.862	-0.397	0.122
-723.864	-125.611	0.051	-0.008
-722.850	-157.529	-0.177	-0.011
-721.835	445.292	-0.183	-0.404
-720.821	46.295	-0.089	0.083
-719.806	-102.796	0.190	0.046
-718.791	-180.944	-0.438	0.009
-717.777	517.792	0.128	0.303
-716.762	-88.869	0.267	0.080
-715.748	-200.000	-0.017	0.082
-714.733	800.000	-0.090	-0.321
-713.718	-177.745	-0.104	0.003
-712.704	-10.148	-0.412	0.276
-711.689	-43.430	0.076	0.039
-710.675	-84.946	-0.082	-0.026
-709.660	267.307	-0.167	0.295
-708.645	155.037	0.076	0.106
-707.631	-6.239	-0.185	0.127
-706.616	81.745	-0.126	-0.137
-705.602	-75.989	0.212	-0.076
-704.587	800.000	0.047	-0.158
-703.572	17.863	0.371	0.298
-702.558	-65.807	0.388	0.156
-701.543	-91.732	0.091	0.026
-700.529	44.953	-0.173	-0.160
-699.514	-70.275	-0.306	0.117
-698.499	12.555	0.229	-0.178
-697.485	-181.736	-0.375	-0.007
-696.470	800.000	0.055	-0.167
-695.456	-200.000	-0.019	0.171
-694.441	82.696	0.147	0.161
-693.426	-200.000	-0.043	-0.196
-692.412	-200.000	0.013	-0.416
-691.397	800.000	-0.040	-0.150
-690.383	-200.000	-0.027	-0.211
-689.368	203.250	-0.065	-0.102
-688.354	-0.452	-0.188	-0.134
-687.339	600.471	-0.151	-0.377
-686.324	-174.472	0.113	-0.003
-685.310	-106.746	-0.269	0.060
-684.295	-7.357	0.139	-0.095
-683.281	-99.227	-0.220	-0.056
-682.266	-200.000	-0.007	-0.087
-681.251	18.989	0.256	-0.207
-680.237	174.504	0.045	0.065
-679.222	49.603	-0.018	0.017
-678.208	-6.723	-0.261	0.179
-677.193	-137.460	0.230	-0.026
-676.178	14.656	-0.228	-0.179
-675.164	773.109	0.040	-0.111
-674.149	-137.288	0.182	-0.021
-673.135	-27.809	0.235	-0.137
-672.120	800.000	0.083	-0.274
-671.105	-160.082	-0.144	-0.008
-670.091	-200.000	-0.015	-0.160
-669.076	-200.000	-0.057	-0.352
-668.062	-11.755	-0.288	0.190
-667.047	800.000	-0.087	0.302
-666.032	185.945	0.127	0.191
-665.018	244.081	-0.120	0.203
-664.003	-83.318	-0.442	-0.143
-662.989	800.000	-0.186	-0.563
-661.974	-130.973	0.457	-0.061
-660.959	-200.000	0.049	-0.290
-659.945	54.073	-0.042	0.041
-658.930	-53.885	-0.368	0.169
-657.916	461.728	-0.023	0.051
-656.901	-140.688	-0.068	0.007
-655.886	-160.602	0.252	0.014
-654.872	321.736	-0.105	-0.202
-653.857	353.471	-0.091	0.183
-652.843	800.000	0.064	-0.223
-651.828	43.996	-0.103	0.095
-650.814	-200.000	-0.072	0.336
-649.799	-200.000	0.017	-0.281
-648.784	50.473	-0.184	0.175
-647.770	800.000	0.044	0.171
-646.755	-200.000	-0.028	0.283
-645.741	-44.959	-0.088	0.044
-644.726	-200.000	0.022	0.141
-643.711	255.703	0.144	0.248
-642.697	81.609	-0.039	-0.042
-641.682	-110.590	-0.147	0.031
-640.668	637.047	0.023	-0.057
-639.653	-200.000	0.021	-0.102
-638.638	-35.904	-0.101	-0.055
-637.624	158.638	0.105	-0.146
-636.609	-200.000	0.047	0.373
-635.595	800.000	0.075	-0.212
-634.580	-0.989	0.201	-0.143
-633.565	800.000	0.069	-0.272
-632.551	-51.442	0.176	0.083
-631.536	69.655	0.142	-0.146
-630.522	117.941	-0.119	0.147
-629.507	800.000	0.023	-0.066
-628.492	114.682	-0.102	0.125
-627.478	264.610	-0.130	0.227
-626.463	-200.000	0.009	-0.259
-625.449	-90.144	0.159	-0.046
-624.434	-51.228	-0.293	0.138
-623.419	-200.000	0.007	0.151
-622.405	25.605	0.120	0.100
-621.390	378.303	0.065	0.134
-620.376	177.868	-0.156	0.228
-619.361	-95.076	-0.280	0.076
-618.346	800.000	0.051	-0.224
-617.332	-21.590	-0.092	-0.056
-616.317	-41.872	-0.074	0.038
-615.303	-135.508	0.207	-0.025
-614.288	-81.984	0.119	-0.039
-613.273	-200.000	0.029	0.138
-612.259	-147.590	-0.133	-0.011
-611.244	200.371	-0.047	0.073
-610.230	-1.147	-0.030	-0.022
-609.215	412.050	0.094	-0.201
-608.201	229.984	-0.080	-0.131
-607.186	-109.360	-0.091	0.019
-606.171	326.087	0.046	-0.087
-605.157	-200.000	-0.027	0.201
-604.142	-200.000	0.034	-0.246
-603.128	-145.745	-0.347	0.031
-602.113	101.457	-0.344	0.402
-601.098	145.360	-0.088	0.118
-600.084	-200.000	-0.015	0.144
-599.069	279.855	0.162	-0.291
-598.055	-200.000	0.001	0.056
-597.040	-200.000	-0.003	0.205
-596.025	-98.135	0.229	-0.059
-595.011	-125.688	0.083	0.013
-593.996	-53.617	0.069	-0.032
-592.982	1.966	0.031	-0.022
-591.967	-103.965	-0.068	-0.016
-590.952	-116.777	0.123	-0.023
-589.938	405.708	-0.131	-0.278
-588.923	-140.504	0.455	-0.047
-587.909	-38.242	0.183	0.097
-586.894	718.333	-0.099	0.265
-585.879	-200.000	0.016	0.145
-584.865	148.623	0.043	-0.058
-583.850	800.000	-0.070	-0.260
-582.836	-124.043	-0.148	-0.023
-581.821	-45.163	-0.412	0.205
-580.806	2.797	-0.232	0.168
-579.792	-104.341	-0.213	-0.049
-578.777	-194.688	0.075	-0.001
-577.763	800.000	0.020	-0.085
-576.748	3.487	-0.054	0.039
-575.733	639.304	-0.079	0.203
-574.719	-184.232	0.143	0.002
-573.704	-111.027	-0.132	0.027
-572.690	-45.253	0.052	0.026
-571.675	-35.961	0.167	0.090
-570.661	642.891	0.079	0.202
-569.646	-60.359	-0.184	-0.078
-568.631	5.309	0.237	0.175
-567.617	290.799	-0.076	-0.139
-566.602	-117.277	-0.364	-0.066
-565.588	-99.493	-0.120	-0.030
-564.573	24.120	-0.187	-0.155
-563.558	143.777	0.067	0.089
-562.544	-200.000	0.061	-0.579
-561.529	-87.805	-0.284	-0.086
-560.515	265.784	0.111	0.194
-559.500	-188.254	-0.210	0.003
-558.485	135.215	-0.088	0.114
-557.471	67.140	0.123	0.125
-556.456	-101.152	0.194	0.048
-555.442	-200.000	0.012	-0.070
-554.427	132.924	0.183	-0.237
-553.412	-200.000	0.045	-0.232
-552.398	-55.252	-0.283	0.127
-551.383	-20.989	-0.114	-0.070
-550.369	-33.147	-0.261	-0.145
-549.354	-86.450	-0.287	0.088
-548.339	374.732	-0.068	0.139
-547.325	76.333	-0.102	0.108
-546.310	15.763	-0.115	0.090
-545.296	-118.128	0.098	-0.018
-544.281	-98.425	-0.175	-0.045
-543.266	800.000	0.037	0.106
-542.252	186.427	0.116	-0.174
-541.237	-60.729	-0.227	0.096
-540.223	-106.434	-0.299	0.067
-539.208	134.582	-0.172	0.223
-538.193	265.694	0.050	0.088
-537.179	-200.000	-0.058	-0.316
-536.164	36.805	-0.180	-0.160
-535.150	172.813	0.106	-0.152
-534.135	9.171	0.309	-0.234
-533.121	-200.000	-0.070	0.000
-532.106	18.172	-0.147	0.117
-531.091	426.768	0.036	-0.077
-530.077	743.447	0.119	-0.320
-529.062	319.733	0.085	0.161
-528.048	-66.841	-0.228	0.090
-527.033	-14.014	0.170	0.110
-526.018	800.000	-0.110	0.314
-525.004	522.631	0.073	0.170
-523.989	52.240	-0.197	-0.188
-522.975	-173.222	0.335	0.010
-521.960	392.654	-0.104	0.217
-520.945	-200.000	-0.011	-0.222
-519.931	88.343	0.215	0.239
-518.916	-100.100	-0.176	-0.044
-517.902	629.821	-0.102	0.257
-516.887	71.263	-0.138	0.143
-515.872	-123.426	-0.163	-0.026
-514.858	800.000	0.055	-0.205
-513.843	174.699	0.143	0.207
-512.829	187.838	-0.066	-0.099
-511.814	-101.998	0.239	-0.058
-510.799	126.254	-0.031	-0.039
-509.785	-58.101	-0.256	-0.112
-508.770	800.000	0.089	-0.256
-507.756	-191.958	-0.199	-0.002
-506.741	-49.041	-0.353	-0.169
-505.726	63.405	-0.321	0.322
-504.712	1.436	0.146	-0.105
-503.697	351.617	0.087	-0.173
-502.683	96.194	0.212	-0.242
-501.668	-4.799	0.136	-0.094
-500.653	155.677	-0.054	-0.075
-499.639	721.408	0.117	0.312
-498.624	-41.675	0.126	-0.064
-497.610	619.965	0.086	0.216
-496.595	277.859	-0.087	0.155
-495.581	54.007	0.142	0.136
-494.566	149.459	-0.059	0.079
-493.551	226.878	0.261	-0.423
-492.537	-75.537	-0.102	0.036
-491.522	-85.754	0.039	0.012
-490.508	-200.000	0.039	-0.278
-489.493	302.563	0.125	-0.231
-488.478	-200.000	-0.036	0.180
-487.464	800.000	0.078	-0.326
-486.449	-200.000	-0.001	0.119
-485.435	-87.244	0.153	-0.046
-484.420	-115.610	0.004	0.001
-483.405	22.037	0.104	-0.085
-482.391	-0.293	0.232	-0.164
-481.376	682.873	0.023	0.059
-480.362	607.188	-0.090	0.224
-479.347	-200.000	-0.005	0.031
-478.332	66.217	0.251	0.254
-477.318	-200.000	-0.004	-0.332
-476.303	-103.870	-0.194	0.045
-475.289	50.401	-0.083	-0.078
-474.274	-124.249	-0.138	0.022
-473.259	-200.000	0.007	0.043
-472.245	25.755	-0.252	-0.210
-471.230	-200.000	-0.006	-0.172
-470.216	120.277	0.200	0.248
-469.201	17.911	0.112	-0.089
-468.186	499.677	0.178	-0.409
-467.172	800.000	-0.049	-0.173
-466.157	-26.434	0.078	0.046
-465.143	97.009	-0.167	0.191
-464.128	137.542	0.050	0.065
-463.113	-120.518	-0.226	-0.038
-462.099	236.878	0.152	-0.251
-461.084	-173.204	0.413	-0.013
-460.070	-1.781	-0.046	0.032
-459.055	638.745	0.094	0.238
-458.040	-200.000	0.001	-0.096
-457.026	17.190	0.218	0.173
-456.011	492.388	-0.095	-0.217
-454.997	-200.000	-0.013	0.338
-453.982	9.654	-0.214	0.162
-452.968	800.000	0.078	-0.319
-451.953	743.420	0.137	-0.369
-450.938	201.605	-0.030	0.046
-449.924	-150.226	-0.273	0.021
-448.909	800.000	0.085	-0.261
-447.895	-171.435	0.107	0.004
-446.880	4.552	-0.262	0.192
-445.865	-34.406	0.066	0.036
-444.851	-123.620	-0.331	0.052
-443.836	253.342	0.076	-0.129
-442.822	70.600	0.351	-0.362
-441.807	231.475	0.089	0.145
-440.792	23.987	0.097	-0.080
-439.778	-155.736	-0.279	0.018
-438.763	-200.000	-0.002	0.051
-437.749	-130.077	0.195	0.027
-436.734	-154.446	-0.264	0.018
-435.719	-105.193	0.140	0.032
-434.705	4.202	0.261	-0.191
-433.690	-200.000	-0.079	-0.366
-432.676	-6.608	-0.104	0.070
-431.661	17.572	0.068	-0.054
-430.646	142.831	0.117	-0.155
-429.632	60.806	-0.244	-0.241
-428.617	-200.000	0.009	0.074
-427.603	-102.957	0.321	0.076
-426.588	-172.688	-0.290	-0.009
-425.573	-200.000	-0.023	-0.155
-424.559	42.365	-0.223	0.202
-423.544	-53.375	-0.149	-0.068
-422.530	-1.708	0.034	0.024
-421.515	36.902	-0.265	0.233
-420.500	25.202	0.166	0.137
-419.486	-140.175	0.575	-0.060
-418.471	-123.827	0.197	0.031
-417.457	-154.388	-0.122	-0.008
-416.442	435.845	-0.161	0.350
-415.428	-200.000	-0.012	-0.110
-414.413	-108.303	0.282	-0.061
-413.398	291.948	-0.089	-0.161
-412.384	-74.810	0.209	-0.075
-411.369	167.429	0.119	0.169
-410.355	-92.002	0.356	0.100
-409.340	-113.983	0.098	-0.019
-408.325	-113.378	0.172	0.034
-407.311	42.408	-0.253	0.229
-406.296	-200.000	0.118	0.616
-405.282	38.321	-0.057	-0.050
-404.267	-147.481	-0.168	-0.014
-403.252	-49.567	-0.095	-0.045
-402.238	-200.000	0.011	-0.124
-401.223	-149.096	-0.160	0.013
-400.209	166.555	0.224	-0.317
-399.194	391.565	-0.064	-0.133
-398.179	55.747	0.158	-0.153
-397.165	800.000	0.081	-0.317
-396.150	-39.427	0.107	0.056
-395.136	-4.912	0.194	-0.133
-394.121	-200.000	-0.007	0.139
-393.106	318.048	-0.069	-0.129
-392.092	342.637	-0.093	-0.182
-391.077	-164.339	-0.176	-0.008
-390.063	535.194	0.061	0.144
-389.048	-151.129	0.127	0.009
-388.033	-169.488	-0.123	0.004
-387.019	-26.635	0.086	0.050
-386.004	382.585	-0.024	-0.048
-384.990	-200.000	0.009	0.106
-383.975	127.142	0.169	0.213
-382.960	-200.000	-0.043	0.415
-381.946	200.875	0.111	-0.170
-380.931	-15.381	-0.241	0.153
-379.917	-109.865	-0.173	-0.036
-378.902	-136.088	0.389	0.045
-377.888	800.000	-0.044	0.148
-376.873	-2.808	0.066	-0.046
-375.858	-134.652	0.271	0.033
-374.844	-15.046	0.269	0.171
-373.829	-106.122	0.100	0.022
-372.815	108.993	0.079	-0.094
-371.800	-40.146	-0.156	-0.081
-370.785	-35.498	0.237	-0.128
-369.771	125.190	0.062	0.078
-368.756	230.806	-0.222	0.361
-367.742	-200.000	0.007	0.368
-366.727	-200.000	-0.043	0.337
-365.712	292.948	-0.159	0.289
-364.698	-29.420	0.119	0.068
-363.683	-35.280	0.066	0.036
-362.669	157.798	-0.080	-0.110
-361.654	-200.000	-0.028	0.188
-360.639	237.502	-0.178	0.293
-359.625	-89.601	0.263	-0.077
-358.610	-78.684	0.457	0.155
-357.596	362.386	-0.048	-0.096
-356.581	650.741	-0.020	0.051
-355.566	-109.731	-0.236	-0.049
-354.552	2.133	-0.244	0.175
-353.537	-161.043	-0.117	-0.006
-352.523	118.163	0.211	0.258
-351.508	-200.000	-0.009	0.291
-350.493	-79.889	-0.276	0.092
-349.479	-32.540	-0.121	-0.067
-348.464	120.121	-0.140	0.173
-347.450	-200.000	0.017	0.283
-346.435	105.521	0.275	0.323
-345.420	167.689	-0.091	0.129
-344.406	-144.848	0.072	-0.007
-343.391	-177.153	-0.180	-0.004
-342.377	29.503	0.205	0.173
-341.362	475.144	-0.172	-0.387
-340.348	104.744	0.031	-0.036
-339.333	800.000	-0.036	-0.103
-338.318	110.264	-0.108	0.128
-337.304	-120.630	0.177	0.030
-336.289	-200.000	0.087	-0.494
-335.275	198.716	0.134	-0.204
-334.260	20.141	0.062	-0.050
-333.245	118.715	0.362	0.444
-332.231	-200.000	0.030	0.193
-331.216	153.392	0.066	-0.090
-330.202	-145.974	-0.243	0.021
-329.187	662.303	0.060	-0.154
-328.172	-88.125	-0.166	0.049
-327.158	-97.602	0.140	-0.036
-326.143	756.980	-0.005	-0.013
-325.129	-58.954	0.188	0.081
-324.114	-8.872	0.073	0.049
-323.099	-11.593	0.142	0.092
-322.085	-113.503	0.331	0.064
-321.070	-102.396	0.029	-0.007
-320.056	47.831	-0.159	0.147
-319.041	-86.218	-0.051	0.016
-318.026	35.277	0.331	0.288
-317.012	266.946	-0.233	-0.404
-315.997	259.816	0.113	-0.194
-314.983	33.058	0.119	-0.103
-313.968	107.465	-0.026	-0.031
-312.953	-79.568	0.231	-0.077
-311.939	-64.407	-0.166	0.067
-310.924	-200.000	-0.016	0.251
-309.910	130.915	0.146	-0.186
-308.895	-94.881	0.293	-0.079
-307.880	-86.263	-0.043	-0.013
-306.866	306.417	-0.103	-0.190
-305.851	-200.000	0.010	0.122
-304.837	-118.045	-0.230	0.041
-303.822	-189.614	0.026	-0.000
-302.807	8.608	-0.114	0.085
-301.793	-89.803	-0.510	0.148
-300.778	167.146	0.149	-0.209
-299.764	1.807	0.084	-0.060
-298.749	79.859	0.069	0.074
-297.735	-200.000	0.007	-0.044
-296.720	390.647	0.067	0.138
-295.705	13.492	-0.198	0.153
-294.691	-131.259	0.095	0.012
-293.676	-123.693	0.212	0.033
-292.662	65.582	0.134	0.135
-291.647	-15.695	0.308	-0.194
-290.632	27.472	-0.343	-0.286
-289.618	-156.098	0.344	0.022
-288.603	171.398	-0.124	0.177
-287.589	1.880	-0.048	-0.034
-286.574	7.180	0.156	-0.115
-285.559	212.710	-0.078	0.122
-284.545	-78.912	-0.260	-0.088
-283.530	800.000	-0.020	0.057
-282.516	-142.817	-0.325	0.031
-281.501	800.000	0.038	-0.122
-280.486	61.022	0.113	-0.111
-279.472	-200.000	-0.064	0.300
-278.457	23.565	0.186	0.152
-277.443	72.403	-0.135	-0.139
-276.428	285.999	-0.185	0.330
-275.413	-81.036	-0.397	0.130
-274.399	47.802	-0.184	0.171
-273.384	-53.356	0.119	0.054
-272.370	5.754	0.256	-0.188
-271.355	47.518	-0.338	-0.312
-270.340	380.485	0.023	-0.046
-269.326	326.544	0.098	-0.187
-268.311	-138.093	0.220	0.024
-267.297	730.754	0.037	0.099
-266.282	58.698	-0.013	-0.013
-265.267	283.082	-0.146	-0.260
-264.253	30.032	0.089	-0.075
-263.238	-162.125	-0.197	-0.010
-262.224	-56.606	0.306	0.134
-261.209	-90.598	0.253	0.072
-260.195	171.097	-0.085	-0.121
-259.180	-54.772	0.140	-0.062
-258.165	-107.532	0.183	-0.040
-257.151	29.546	0.397	0.334
-256.136	60.297	0.162	0.159
-255.122	-138.392	-0.121	0.013
-254.107	-8.149	-0.175	0.117
-253.092	-69.139	-0.144	-0.055
-252.078	-171.045	0.216	-0.007
-251.063	800.000	0.015	0.064
-250.049	-137.995	-0.069	0.008
-249.034	-151.590	0.138	-0.010
-248.019	800.000	-0.116	-0.447
-247.005	-79.546	-0.283	-0.095
-245.990	-189.183	0.189	0.002
-244.976	-200.000	0.005	-0.177
-243.961	94.419	0.154	-0.173
-242.946	-6.125	-0.219	0.148
-241.932	185.395	0.055	-0.080
-240.917	175.940	-0.139	0.199
-239.903	-71.021	-0.370	0.138
-238.888	30.295	-0.221	0.187
-237.873	276.222	-0.135	0.237
-236.859	-70.298	0.139	0.052
-235.844	438.622	0.138	-0.297
-234.830	800.000	0.045	0.186
-233.815	515.030	0.106	0.245
-232.800	-57.449	0.098	0.042
-231.786	13.348	-0.198	-0.152
-230.771	152.127	0.209	0.282
-229.757	-200.000	-0.007	0.176
-228.742	92.255	0.127	-0.141
-227.727	-108.233	0.253	-0.054
-226.713	-200.000	-0.019	-0.353
-225.698	-200.000	-0.090	0.426
-224.684	231.136	-0.055	-0.090
-223.669	-49.930	-0.217	-0.102
-222.655	431.088	-0.139	-0.298
-221.640	-136.365	-0.279	-0.032
-220.625	-1.395	-0.452	-0.315
-219.611	183.116	-0.289	-0.423
-218.596	22.439	-0.180	-0.145
-217.582	144.619	-0.224	0.296
-216.567	45.116	0.079	-0.072
-215.552	330.740	0.061	-0.115
-214.538	-200.000	0.024	-0.171
-213.523	135.075	0.197	0.253
-212.509	-200.000	0.033	-0.206
-211.494	-194.122	-0.201	-0.002
-210.479	-39.893	0.184	0.095
-209.465	-39.134	0.112	0.058
-208.450	283.849	-0.140	0.250
-207.436	121.927	0.281	-0.347
-206.421	211.473	-0.142	-0.221
-205.406	279.282	-0.124	-0.218
-204.392	3.902	0.108	0.078
-203.377	-1.944	-0.146	-0.101
-202.363	127.028	-0.075	0.094
-201.348	-121.909	0.371	-0.060
-200.333	-98.547	0.212	-0.053
-199.319	219.405	-0.161	-0.254
-198.304	-65.240	0.127	0.050
-197.290	-171.010	-0.163	0.005
-196.275	-200.000	-0.015	-0.097
-195.260	-129.389	-0.468	0.064
-194.246	800.000	0.108	0.326
-193.231	104.735	0.053	0.062
-192.217	339.225	0.241	-0.463
-191.202	535.620	-0.068	-0.159
-190.187	-159.066	-0.157	-0.009
-189.173	135.717	0.076	-0.097
-188.158	-170.433	-0.215	0.007
-187.144	-200.000	-0.044	0.248
-186.129	-89.361	0.097	-0.028
-185.114	-127.781	0.219	-0.031
-184.100	-107.655	0.046	0.010
-183.085	-200.000	-0.031	-0.190
-182.071	406.148	-0.075	-0.157
-181.056	-126.519	-0.133	-0.019
-180.042	-81.734	0.259	0.084
-179.027	66.204	-0.122	0.122
-178.012	-200.000	0.026	-0.221
-176.998	-200.000	-0.036	-0.303
-175.983	-114.116	0.341	0.065
-174.969	-200.000	-0.002	-0.242
-173.954	22.939	-0.041	0.033
-172.939	496.338	-0.071	0.162
-171.925	365.008	-0.129	-0.256
-170.910	6.094	-0.038	-0.028
-169.896	-200.000	-0.018	-0.247
-168.881	-200.000	0.019	-0.155
-167.866	27.602	0.032	0.027
-166.852	59.391	-0.066	-0.064
-165.837	-20.873	0.425	-0.257
-164.823	201.769	0.056	-0.085
-163.808	728.475	0.201	0.529
-162.793	437.987	-0.057	-0.123
-161.779	-200.000	0.008	-0.156
-160.764	-47.264	-0.398	0.191
-159.750	-123.093	0.326	0.052
-158.735	-36.249	-0.387	-0.206
-157.720	-200.000	0.003	0.195
-156.706	-8.934	-0.135	-0.089
-155.691	-136.043	0.185	-0.021
-154.677	129.817	-0.109	0.137
-153.662	91.219	0.071	0.079
-152.647	646.012	-0.169	0.425
-151.633	227.754	0.194	-0.312
-150.618	-56.167	-0.370	0.162
-149.604	87.474	-0.107	-0.117
-148.589	-119.815	0.351	-0.060
-147.574	-200.000	-0.154	-0.000
-146.560	-82.164	0.089	0.029
-145.545	-200.000	-0.008	-0.050
-144.531	-200.000	-0.012	0.066
-143.516	800.000	0.055	-0.160
-142.502	-26.273	0.201	0.116
-141.487	44.048	-0.179	0.161
-140.472	20.110	0.212	0.168
-139.458	76.153	0.188	0.196
-138.443	800.000	-0.039	0.167
-137.429	-48.459	-0.163	0.077
-136.414	-80.497	0.078	0.026
-135.399	-41.063	-0.382	0.194
-134.385	-120.185	-0.095	-0.016
-133.370	800.000	0.044	0.179
-132.356	536.194	-0.175	0.409
-131.341	-5.737	0.144	-0.097
-130.326	-10.987	-0.110	-0.072
-129.312	24.201	-0.112	0.091
-128.297	-48.346	0.316	-0.150
-127.283	-132.815	-0.201	-0.025
-126.268	-200.000	-0.005	0.380
-125.253	16.443	0.058	-0.045
-124.239	800.000	0.043	-0.123
-123.224	-26.888	-0.075	0.043
-122.210	197.229	0.253	0.380
-121.195	729.397	0.100	0.263
-120.180	-39.076	-0.131	0.068
-119.166	-162.400	0.258	-0.013
-118.151	154.070	-0.168	0.226
-117.137	-29.219	0.350	-0.197
-116.122	-200.000	-0.048	0.246
-115.107	-29.059	0.375	-0.212
-114.093	2.581	0.179	0.128
-113.078	442.030	0.068	-0.146
-112.064	374.471	0.158	-0.317
-111.049	-12.846	-0.211	-0.136
-110.034	-200.000	-0.042	0.219
-109.020	187.609	-0.065	-0.095
-108.005	-162.249	-0.160	-0.008
-106.991	-140.324	0.143	-0.015
-105.976	10.801	0.139	0.104
-104.962	572.569	-0.037	0.089
-103.947	177.487	-0.181	-0.259
-102.932	193.249	0.139	-0.207
-101.918	-14.024	0.181	0.115
-100.903	404.076	0.159	0.329
-99.889	66.989	-0.041	0.041
-98.874	-200.000	-0.080	0.511
-97.859	-200.000	-0.028	0.353
-96.845	-49.608	0.265	-0.124
-95.830	91.378	0.234	0.259
-94.816	59.111	-0.271	-0.262
-93.801	119.518	-0.028	0.034
-92.786	-81.329	0.283	0.092
-91.772	-46.982	0.146	0.070
-90.757	-44.049	-0.079	-0.039
-89.743	277.568	-0.101	-0.176
-88.728	-49.706	0.226	-0.106
-87.713	124.079	0.276	0.341
-86.699	49.611	0.182	0.168
-85.684	-20.936	-0.425	-0.256
-84.670	316.692	0.272	0.506
-83.655	-101.000	-0.306	-0.074
-82.640	-80.996	-0.073	0.024
-81.626	-146.069	0.499	-0.043
-80.611	-88.638	-0.451	0.132
-79.597	113.081	0.215	-0.257
-78.582	800.000	0.076	-0.263
-77.567	800.000	-0.043	0.129
-76.553	-93.384	-0.287	-0.078
-75.538	51.150	-0.113	0.105
-74.524	194.272	-0.080	-0.119
-73.509	-71.571	-0.179	0.066
-72.494	-32.742	0.192	-0.105
-71.480	-74.257	-0.270	0.096
-70.465	800.000	-0.061	-0.236
-69.451	-71.007	-0.228	0.084
-68.436	-92.658	-0.188	0.052
-67.422	25.059	-0.078	-0.064
-66.407	-200.000	-0.013	-0.174
-65.392	78.480	0.293	-0.308
-64.378	337.774	0.148	0.283
-63.363	485.457	0.054	0.121
-62.349	73.730	-0.053	-0.055
-61.334	26.816	-1.190	-0.980
-60.319	-47.699	0.884	0.421
-59.305	800.000	-0.201	-0.708
-58.290	118.463	0.963	1.167
-57.276	421.828	0.701	1.476
-56.261	-200.000	108.928	594.183
-55.246	446.903	1483.029	3203.726
-54.232	147.492	2660.596	3519.115
-53.217	106.389	2152.159	2505.121
-52.203	41.019	1603.379	1421.762
-51.188	33.275	1344.502	1145.512
-50.173	30.125	1304.318	1092.700
-49.159	53.932	1358.279	1281.773
-48.144	54.560	1373.606	1299.955
-47.130	33.353	1328.633	1132.278
-46.115	29.849	1311.066	1096.543
-45.100	29.616	1306.397	1091.217
-44.086	29.548	1303.839	1088.638
-43.071	29.570	1301.033	1086.382
-42.057	29.509	1299.255	1084.495
-41.042	29.549	1297.693	1083.381
-40.027	29.596	1295.776	1082.014
-39.013	29.489	1294.184	1080.016
-37.998	29.557	1291.997	1078.547
-36.984	29.630	1290.516	1077.689
-35.969	29.672	1288.800	1076.463
-34.954	29.651	1286.915	1074.722
-33.940	29.640	1286.140	1073.966
-32.925	29.752	1284.655	1073.337
-31.911	29.886	1282.804	1072.523
-30.896	29.825	1281.527	1071.057
-29.881	29.866	1280.186	1070.131
-28.867	29.846	1278.776	1068.798
-27.852	29.838	1277.214	1067.401
-26.838	29.847	1275.990	1066.388
-25.823	29.839	1274.409	1064.979
-24.809	29.802	1273.231	1063.738
-23.794	29.719	1271.863	1062.077
-22.779	29.656	1271.158	1061.085
-21.765	29.689	1269.762	1060.068
-20.750	29.806	1268.215	1059.402
-19.736	29.618	1267.203	1057.439
-18.721	29.678	1265.912	1056.663
-17.706	29.601	1264.733	1055.197
-16.692	29.627	1263.691	1054.436
-15.677	29.586	1262.461	1053.133
-14.663	29.607	1261.768	1052.631
-13.648	29.768	1259.904	1051.950
-12.633	29.644	1259.120	1050.552
-11.619	29.602	1258.350	1049.628
-10.604	29.723	1257.408	1049.489
-9.590	29.622	1256.755	1048.330
-8.575	29.629	1255.713	1047.458
-7.560	29.619	1255.031	1046.791
-6.546	29.640	1253.564	1045.644
-5.531	29.623	1252.980	1045.021
-4.517	29.730	1252.230	1044.957
-3.502	29.645	1251.429	1043.767
-2.487	29.738	1250.181	1043.206
-1.473	29.563	1246.603	1039.198
-0.458	28.107	1231.235	1018.249
0.556	22.771	1215.080	981.118
1.571	19.173	1221.286	965.900
2.586	18.368	1236.820	973.523
3.600	18.199	1225.276	963.402
4.615	13.358	1152.255	880.208
5.629	4.630	1076.804	778.937
6.644	0.517	1056.826	744.166
7.659	-0.013	1055.009	740.213
8.673	-0.108	1054.013	738.979
9.688	-0.034	1052.883	738.486
10.702	0.266	1050.436	738.173
11.717	5.410	1057.303	768.255
12.731	13.938	1068.557	818.555
13.746	17.582	1071.922	839.037
14.761	17.030	1071.054	835.571
15.775	16.007	1068.988	828.852
16.790	14.916	1067.128	821.977
17.804	14.335	1065.322	817.664
18.819	13.981	1064.172	814.970
19.834	13.530	1063.974	812.536
20.848	13.587	1062.148	811.350
21.863	13.210	1061.540	808.970
22.877	13.080	1060.808	807.700
23.892	12.951	1060.537	806.793
24.907	12.998	1059.912	806.476
25.921	13.016	1059.010	805.807
26.936	13.098	1058.096	805.438
27.950	13.203	1056.868	804.946
28.965	13.198	1055.912	804.122
29.980	13.194	1054.757	803.153
30.994	13.245	1053.628	802.469
32.009	13.359	1052.682	802.231
33.023	13.342	1051.754	801.370
34.038	13.292	1050.629	800.201
35.053	13.176	1050.310	799.324
36.067	13.122	1049.484	798.364
37.082	13.304	1047.974	798.021
38.096	13.214	1047.679	797.293
39.111	13.212	1046.918	796.636
40.126	13.175	1045.837	795.562
41.140	13.138	1044.652	794.415
42.155	13.091	1043.770	793.446
43.169	12.989	1042.510	791.928
44.184	12.953	1041.665	791.045
45.199	13.139	1040.484	790.967
46.213	13.048	1039.664	789.840
47.228	13.255	1038.600	789.950
48.242	13.189	1037.100	788.426
49.257	13.159	1036.305	787.608
50.271	13.115	1036.072	787.153
51.286	13.139	1034.948	786.343
52.301	13.246	1033.712	785.841
53.315	13.135	1033.180	784.842
54.330	13.036	1031.720	783.193
55.344	13.107	1030.758	782.728
56.359	13.121	1030.467	782.504
57.374	13.085	1029.151	781.267
58.388	13.006	1028.917	780.647
59.403	13.004	1027.783	779.707
60.417	13.122	1026.671	779.352
61.432	12.925	1025.943	777.802
62.447	12.992	1024.966	777.305
63.461	12.942	1024.110	776.352
64.476	12.928	1023.339	775.636
65.490	12.860	1022.788	774.829
66.505	12.967	1022.218	774.832
67.520	13.108	1021.214	774.661
68.534	13.040	1020.688	773.877
69.549	13.067	1019.977	773.396
70.563	12.915	1019.166	772.002
71.578	13.003	1018.133	771.560
72.593	12.927	1017.244	770.463
73.607	12.939	1017.080	770.330
74.622	12.887	1016.484	769.564
75.636	12.936	1015.339	768.858
76.651	12.897	1014.751	768.163
77.666	12.957	1014.195	767.957
78.680	12.866	1014.000	767.318
79.695	12.857	1013.078	766.509
80.709	13.059	1012.056	766.603
81.724	13.097	1011.271	766.120
82.739	13.116	1010.555	765.598
83.753	13.131	1010.333	765.428
84.768	13.285	1009.012	765.074
85.782	13.186	1008.620	764.251
86.797	13.053	1007.962	763.072
87.812	13.200	1006.684	762.713
88.826	13.217	1005.289	761.670
89.841	13.183	1004.862	761.121
90.855	13.212	1003.674	760.286
91.870	13.213	1003.249	759.903
92.884	13.165	1002.085	758.733
93.899	13.383	1001.177	758.978
94.914	13.301	1000.736	758.201
95.928	13.388	999.524	757.614
96.943	13.277	998.838	756.518
97.957	13.147	998.072	755.279
98.972	13.251	996.905	754.803
99.987	13.179	996.587	754.167
101.001	13.275	995.190	753.483
102.016	13.258	994.147	752.546
103.030	13.291	993.348	752.028
104.045	13.382	992.498	751.727
105.060	13.281	991.945	750.787
106.074	13.186	991.165	749.698
107.089	13.012	990.412	748.271
108.103	13.045	989.299	747.514
109.118	13.136	988.069	746.932
110.133	13.164	987.140	746.291
111.147	13.068	986.613	745.393
112.162	13.158	985.768	745.093
113.176	13.108	984.966	744.196
114.191	13.204	983.662	743.577
115.206	13.245	983.400	743.499
116.220	13.138	983.148	742.760
117.235	12.941	982.304	741.171
118.249	13.035	980.935	740.494
119.264	13.105	980.214	740.197
120.279	13.125	979.618	739.774
121.293	13.080	978.620	738.753
122.308	13.017	978.048	737.972
123.322	13.001	977.063	737.094
124.337	13.087	975.804	736.461
125.352	13.061	975.017	735.687
126.366	13.015	973.772	734.478
127.381	13.249	971.944	734.075
128.395	13.145	971.743	733.395
129.410	13.222	970.598	732.806
130.424	13.122	970.098	731.921
131.439	13.120	969.493	731.392
132.454	13.159	968.840	731.008
133.468	13.370	967.629	730.959
134.483	13.132	967.031	729.391
135.497	13.233	965.899	728.918
136.512	13.272	964.931	728.297
137.527	13.272	964.515	727.918
138.541	13.112	963.791	726.605
139.556	13.200	962.777	726.163
140.570	13.240	962.531	726.090
141.585	13.404	961.224	725.757
142.600	13.375	960.132	724.742
143.614	13.319	959.878	724.240
144.629	13.341	959.142	723.719
145.643	13.359	957.958	722.839
146.658	13.298	957.522	722.177
147.673	13.410	956.145	721.566
148.687	13.301	955.478	720.524
149.702	13.371	954.142	719.755
150.716	13.281	953.783	719.028
151.731	13.314	953.211	718.677
152.746	13.316	952.805	718.319
153.760	13.295	952.182	717.693
154.775	13.482	951.021	717.564
155.789	13.577	950.540	717.549
156.804	13.307	950.004	715.914
157.819	13.294	949.657	715.533
158.833	13.446	948.927	715.574
159.848	13.528	947.661	714.912
160.862	13.520	947.053	714.357
161.877	13.452	945.807	713.059
162.892	13.467	944.791	712.294
163.906	13.363	944.093	711.258
164.921	13.465	943.462	711.158
165.935	13.582	942.565	710.924
166.950	13.425	941.625	709.477
167.964	13.399	940.923	708.773
168.979	13.565	939.727	708.521
169.994	13.416	939.353	707.538
171.008	13.487	938.615	707.224
172.023	13.621	937.932	707.220
173.037	13.533	937.393	706.373
174.052	13.642	936.268	705.929
175.067	13.539	935.724	705.016
176.081	13.573	935.019	704.569
177.096	13.490	934.514	703.773
178.110	13.565	933.855	703.531
179.125	13.615	933.690	703.559
180.140	13.680	933.092	703.320
181.154	13.505	932.585	702.134
182.169	13.667	932.289	702.536
183.183	13.746	931.519	702.228
184.198	13.730	930.417	701.266
185.213	13.842	929.669	701.113
186.227	13.774	929.231	700.435
187.242	13.817	928.556	700.048
188.256	13.798	928.549	699.897
189.271	13.720	927.291	698.559
190.286	13.807	926.159	698.012
191.300	13.545	926.095	696.800
192.315	13.561	925.319	696.223
193.329	13.571	924.530	695.607
194.344	13.664	924.053	695.579
195.359	13.835	923.210	695.600
196.373	13.851	922.320	694.932
197.388	13.820	922.215	694.661
198.402	13.918	922.184	694.988
199.417	13.920	920.995	694.039
200.432	13.992	920.836	694.157
201.446	14.072	920.183	693.937
202.461	14.089	919.604	693.511
203.475	13.939	919.096	692.444
204.490	13.910	918.332	691.684
205.504	13.966	917.598	691.305
206.519	14.041	916.738	690.904
207.534	13.929	916.180	689.960
208.548	13.863	915.678	689.245
209.563	13.952	914.900	688.967
210.577	14.032	914.169	688.688
211.592	14.061	913.406	688.173
212.607	14.105	912.928	687.936
213.621	14.101	911.801	687.005
214.636	14.029	911.422	686.363
215.650	14.223	910.235	686.209
216.665	14.257	910.129	686.207
217.680	14.213	909.335	685.367
218.694	14.196	908.688	684.749
219.709	14.338	907.569	684.430
220.723	14.298	907.243	683.961
221.738	14.203	906.645	683.057
222.753	14.266	905.934	682.720
223.767	14.380	905.019	682.438
224.782	14.355	904.800	682.109
225.796	14.265	904.535	681.481
226.811	14.208	904.009	680.789
227.826	14.312	902.844	680.279
228.840	14.238	902.297	679.502
229.855	14.323	900.927	678.759
230.869	14.220	900.758	678.152
231.884	14.243	900.017	677.626
232.899	14.274	899.378	677.212
233.913	14.352	898.481	676.795
234.928	14.187	897.947	675.660
235.942	14.360	897.137	675.693
236.957	14.281	897.079	675.268
237.972	14.263	896.451	674.664
238.986	14.378	895.430	674.303
240.001	14.291	894.892	673.485
241.015	14.372	894.474	673.438
242.030	14.434	893.862	673.170
243.045	14.465	893.010	672.591
244.059	14.370	892.391	671.682
245.074	14.407	891.928	671.423
246.088	14.510	891.056	671.124
247.103	14.506	890.892	670.925
248.117	14.453	890.441	670.310
249.132	14.668	889.504	670.409
250.147	14.589	889.056	669.696
251.161	14.665	888.047	669.185
252.176	14.812	887.890	669.595
253.190	14.708	886.839	668.324
254.205	14.839	886.180	668.294
255.220	14.903	885.720	668.144
256.234	14.822	885.026	667.236
257.249	14.838	884.517	666.860
258.263	14.924	883.367	666.276
259.278	14.961	882.776	665.919
260.293	14.838	882.649	665.273
261.307	14.874	882.271	665.075
262.322	15.012	880.873	664.507
263.336	14.946	880.571	663.959
264.351	15.071	879.778	663.799
265.366	15.139	878.956	663.390
266.380	15.102	878.163	662.587
267.395	15.175	877.637	662.417
268.409	15.073	877.147	661.589
269.424	15.052	876.175	660.713
270.439	14.944	875.765	659.921
271.453	15.022	875.088	659.658
272.468	15.173	874.319	659.616
273.482	15.014	873.884	658.601
274.497	15.005	873.243	658.028
275.512	14.982	872.906	657.623
276.526	15.066	872.152	657.328
277.541	15.073	871.926	657.126
278.555	15.379	871.091	657.638
279.570	15.270	870.486	656.697
280.585	15.169	869.942	655.833
281.599	15.199	869.143	655.288
282.614	15.284	868.675	655.212
283.628	15.232	868.004	654.441
284.643	15.213	867.578	653.991
285.657	15.233	866.859	653.467
286.672	15.325	866.300	653.348
287.687	15.197	865.777	652.396
288.701	15.088	865.367	651.607
289.716	15.229	864.776	651.652
290.730	15.365	863.796	651.384
291.745	15.426	863.420	651.281
292.760	15.394	862.549	650.439
293.774	15.353	862.244	649.994
294.789	15.438	861.292	649.550
295.803	15.440	860.395	648.821
296.818	15.545	859.967	648.848
297.833	15.416	859.658	648.059
298.847	15.332	859.150	647.295
299.862	15.534	858.233	647.324
300.876	15.525	857.511	646.687
301.891	15.509	857.003	646.185
302.906	15.500	856.553	645.756
303.920	15.695	855.925	645.975
304.935	15.702	855.489	645.616
305.949	15.672	854.808	644.929
306.964	15.613	854.466	644.388
307.979	15.598	853.788	643.760
308.993	15.628	853.140	643.329
310.008	15.725	852.342	643.041
311.022	15.682	852.043	642.597
312.037	15.590	851.645	641.888
313.052	15.563	851.258	641.436
314.066	15.511	850.719	640.774
315.081	15.571	849.977	640.387
316.095	15.591	849.421	639.987
317.110	15.688	848.712	639.767
318.125	15.693	848.153	639.307
319.139	15.665	847.738	638.833
320.154	15.754	847.431	638.881
321.168	15.613	846.852	637.853
322.183	15.726	846.232	637.757
323.197	15.816	845.661	637.614
324.212	15.767	845.179	637.008
325.227	15.773	844.296	636.307
326.241	15.813	843.598	635.879
327.256	15.830	843.242	635.615
328.270	15.756	842.783	634.937
329.285	15.729	842.253	634.380
330.300	15.813	841.676	634.205
331.314	15.674	841.309	633.346
332.329	15.821	840.355	633.126
333.343	15.852	840.283	633.132
334.358	15.965	839.809	633.146
335.373	15.964	839.430	632.798
336.387	16.027	839.164	632.780
337.402	15.989	838.930	632.404
338.416	16.171	838.394	632.627
339.431	16.108	837.968	632.014
340.446	16.039	837.800	631.570
341.460	16.071	837.507	631.416
342.475	16.111	836.956	631.093
343.489	16.208	836.270	630.883
344.504	16.152	835.987	630.403
345.519	16.388	835.027	630.507
346.533	16.307	834.686	629.891
347.548	16.267	833.998	629.166
348.562	16.420	833.361	629.198
349.577	16.235	833.056	628.225
350.592	16.212	832.777	627.873
351.606	16.113	831.958	626.832
352.621	16.090	831.087	626.035
353.635	16.341	830.518	626.482
354.650	16.319	829.827	625.825
355.665	16.275	829.526	625.379
356.679	16.167	828.917	624.465
357.694	16.285	828.262	624.354
358.708	16.383	827.370	623.986
359.723	16.374	827.084	623.681
360.738	16.550	826.146	623.569
361.752	16.353	825.766	622.501
362.767	16.364	825.367	622.186
363.781	16.450	824.728	621.964
364.796	16.470	824.286	621.649
365.810	16.437	824.279	621.469
366.825	16.522	823.678	621.274
367.840	16.427	823.266	620.558
368.854	16.596	822.598	620.622
369.869	16.501	822.354	620.032
370.883	16.645	821.621	619.953
371.898	16.584	821.466	619.558
372.913	16.718	821.093	619.710
373.927	16.548	820.606	618.666
374.942	16.505	820.115	618.087
375.956	16.646	819.798	618.307
376.971	16.553	819.546	617.724
377.986	16.775	818.753	617.878
379.000	16.862	818.328	617.822
380.015	16.893	817.498	617.255
381.029	16.861	816.921	616.645
382.044	16.985	816.452	616.689
383.059	16.891	815.998	615.950
384.073	16.826	815.250	615.096
385.088	16.914	814.541	614.824
386.102	16.795	814.260	614.127
387.117	16.902	813.823	614.132
388.132	16.898	812.930	613.388
389.146	16.868	812.411	612.832
390.161	16.901	812.160	612.708
391.175	16.888	812.267	612.689
392.190	16.917	811.186	611.923
393.205	16.853	810.859	611.393
394.219	16.825	810.469	610.941
395.234	16.839	809.830	610.458
396.248	16.740	809.624	609.891
397.263	16.745	809.415	609.698
398.278	16.737	808.819	609.168
399.292	16.796	808.484	609.072
400.307	16.750	807.865	608.389
401.321	16.999	807.188	608.718
402.336	16.928	806.869	608.168
403.350	16.906	806.552	607.797
404.365	17.084	805.991	607.959
405.380	17.191	805.336	607.793
406.394	17.219	804.720	607.374
407.409	17.069	804.795	606.841
408.423	17.258	804.258	607.055
409.438	17.317	803.805	606.872
410.453	17.339	803.343	606.547
411.467	17.359	802.933	606.256
412.482	17.298	802.840	605.915
413.496	17.180	802.456	605.150
414.511	17.385	802.068	605.535
415.526	17.353	801.424	604.883
416.540	17.426	800.795	604.611
417.555	17.464	800.402	604.398
418.569	17.444	799.988	603.960
419.584	17.301	800.046	603.442
420.599	17.352	799.274	602.986
421.613	109.363	1293.229	1471.274
422.628	94.077	1365.164	1471.342
