DTS Sentinel unit serial number:	SN413079Multiplexer serial number:	ORYXHardware model number:	OX4-SRSoftware version number:	ORYX F/W v4.00 Oryx Data Collector v3.7.2.0data status	okinstallation	princeton_trtdifferential loss correction	single-endedforward channel	channel 1reverse channel	N/Adate	2019/09/14time	00:58:35forward acquisition time	60.00reverse acquisition time	0.00gamma	496.2192k internal	0.2337k external	0.2337temperature offset calibration	1.0080default loss term (dB/km)	0.3790temperature slope calibration	1.0000multiplexer offset coefficient	1.0000multiplexer slope coefficient	1.0000fibre end	0.00T internal ref (°C)	26.37T ext. ref 1 (°C)	3.17T ext. ref 2 (°C)	21.31length (m)	temperature (°C)	Stokes	anti-Stokes-747.200	800.000	-0.052	0.148
-746.185	800.000	0.068	-0.188
-745.171	-152.396	0.407	-0.029
-744.156	-149.453	-0.234	-0.019
-743.142	-200.000	0.034	-0.172
-742.127	-38.704	0.165	0.088
-741.112	461.200	0.082	0.183
-740.098	440.589	0.165	0.363
-739.083	-200.000	-0.005	-0.153
-738.069	345.938	-0.088	-0.173
-737.054	160.677	-0.078	-0.110
-736.039	-200.000	0.032	-0.188
-735.025	-84.703	0.533	0.168
-734.010	-62.669	-0.300	-0.125
-732.996	213.535	-0.193	-0.307
-731.981	-61.745	0.190	0.080
-730.966	800.000	0.055	-0.208
-729.952	566.851	-0.130	-0.317
-728.937	-57.300	0.219	0.097
-727.923	800.000	0.009	-0.030
-726.908	-22.382	0.259	-0.157
-725.894	9.663	0.113	0.086
-724.879	-200.000	-0.017	-0.212
-723.864	49.882	0.147	-0.139
-722.850	-200.000	-0.021	-0.138
-721.835	304.858	-0.030	-0.056
-720.821	-147.662	-0.564	-0.047
-719.806	-158.737	-0.512	0.029
-718.791	337.764	-0.136	-0.266
-717.777	-100.042	0.127	0.032
-716.762	800.000	-0.049	-0.198
-715.748	36.524	0.082	-0.073
-714.733	-200.000	0.082	0.390
-713.718	105.033	0.186	-0.220
-712.704	-111.529	-0.223	-0.045
-711.689	21.475	-0.151	-0.123
-710.675	177.073	0.058	0.085
-709.660	-67.504	-0.354	0.139
-708.645	-167.757	-0.393	0.016
-707.631	-151.707	-0.226	0.017
-706.616	800.000	-0.093	-0.285
-705.602	139.115	-0.238	-0.314
-704.587	-200.000	-0.012	-0.062
-703.572	252.965	0.170	-0.291
-702.558	-141.220	-0.106	0.011
-701.543	-13.546	0.262	0.170
-700.529	372.185	-0.065	-0.133
-699.514	-92.592	-0.127	-0.036
-698.499	-200.000	0.011	0.136
-697.485	-97.830	-0.332	-0.086
-696.470	800.000	-0.008	-0.027
-695.456	800.000	-0.102	0.292
-694.441	27.656	0.040	0.034
-693.426	800.000	-0.063	-0.256
-692.412	-200.000	-0.005	-0.247
-691.397	-200.000	-0.076	-0.594
-690.383	381.915	-0.081	-0.166
-689.368	66.620	0.238	-0.242
-688.354	-108.047	-0.312	0.068
-687.339	-23.162	-0.216	-0.131
-686.324	-200.000	0.002	0.261
-685.310	398.800	0.085	0.179
-684.295	109.022	-0.327	0.392
-683.281	172.100	0.149	-0.214
-682.266	-80.296	-0.107	-0.036
-681.251	-99.857	-0.221	0.055
-680.237	-30.600	-0.177	-0.100
-679.222	96.213	0.279	0.320
-678.208	50.715	0.195	0.185
-677.193	215.418	0.015	-0.025
-676.178	61.386	0.075	-0.074
-675.164	547.165	0.127	0.305
-674.149	-114.716	-0.154	-0.030
-673.135	800.000	0.046	-0.174
-672.120	-120.998	-0.086	0.015
-671.105	-5.666	0.158	0.109
-670.091	-75.957	-0.437	0.155
-669.076	800.000	0.050	0.203
-668.062	-29.541	-0.143	-0.082
-667.047	2.824	0.200	0.145
-666.032	20.966	0.192	-0.156
-665.018	-16.629	-0.165	-0.104
-664.003	800.000	0.053	0.194
-662.989	3.777	0.142	0.103
-661.974	-200.000	-0.027	-0.376
-660.959	-200.000	0.081	-0.435
-659.945	-123.757	0.381	-0.060
-658.930	-46.323	-0.264	0.130
-657.916	-0.733	0.027	-0.019
-656.901	-78.084	0.146	-0.050
-655.886	-129.437	-0.159	-0.022
-654.872	-102.045	-0.245	-0.059
-653.857	-23.975	-0.253	-0.151
-652.843	-200.000	0.037	0.173
-651.828	-57.063	-0.368	0.162
-650.814	199.708	-0.041	-0.063
-649.799	-200.000	-0.020	-0.292
-648.784	800.000	-0.062	-0.200
-647.770	-200.000	-0.056	-0.411
-646.755	-96.431	-0.203	0.054
-645.741	-73.313	0.214	-0.078
-644.726	51.826	-0.078	0.074
-643.711	-163.570	-0.085	-0.004
-642.697	78.525	-0.242	-0.258
-641.682	800.000	0.029	-0.114
-640.668	-62.371	-0.145	-0.060
-639.653	68.249	-0.242	0.248
-638.638	130.471	0.152	0.195
-637.624	-154.263	-0.535	-0.036
-636.609	-17.151	0.117	-0.074
-635.595	-68.583	0.436	-0.169
-634.580	410.946	0.060	-0.128
-633.565	-200.000	0.015	0.077
-632.551	-168.746	-0.081	-0.003
-631.536	-171.453	-0.102	0.003
-630.522	97.749	0.111	0.128
-629.507	-150.266	0.148	-0.011
-628.492	87.742	-0.011	-0.012
-627.478	149.465	0.105	-0.142
-626.463	92.166	0.036	0.040
-625.449	-132.676	-0.255	0.033
-624.434	-157.160	-0.314	-0.019
-623.419	-59.051	0.174	0.075
-622.405	-200.000	-0.006	0.087
-621.390	48.519	-0.050	0.047
-620.376	-84.181	0.172	-0.054
-619.361	-3.593	0.197	0.137
-618.346	117.090	0.195	0.240
-617.332	-111.375	-0.367	0.075
-616.317	-124.506	-0.514	0.080
-615.303	301.803	-0.064	0.119
-614.288	242.380	0.088	-0.146
-613.273	372.510	0.048	0.096
-612.259	800.000	0.045	-0.142
-611.244	800.000	0.112	-0.358
-610.230	-91.988	-0.293	-0.083
-609.215	246.120	0.108	0.182
-608.201	290.069	-0.153	-0.278
-607.186	-200.000	0.017	0.210
-606.171	-200.000	0.041	0.352
-605.157	393.652	-0.203	-0.421
-604.142	-18.386	-0.475	-0.297
-603.128	-2.354	-0.017	-0.012
-602.113	-70.826	0.267	0.100
-601.098	-24.344	-0.077	-0.046
-600.084	-74.555	0.158	-0.057
-599.069	-24.165	-0.148	-0.088
-598.055	-127.525	-0.331	0.048
-597.040	86.789	-0.097	-0.106
-596.025	800.000	0.057	-0.194
-595.011	40.655	-0.319	-0.287
-593.996	-91.885	0.176	-0.050
-592.982	800.000	-0.083	-0.272
-591.967	-80.581	0.172	0.057
-590.952	-113.615	0.489	-0.095
-589.938	85.961	-0.121	-0.133
-588.923	68.770	-0.258	-0.264
-587.909	-33.202	-0.094	0.052
-586.894	-7.584	0.172	-0.116
-585.879	800.000	-0.073	-0.301
-584.865	75.689	-0.193	-0.203
-583.850	-98.941	-0.089	-0.023
-582.836	365.764	0.076	0.153
-581.821	707.935	-0.016	-0.043
-580.806	800.000	-0.165	-0.573
-579.792	-178.736	0.297	-0.007
-578.777	-33.637	-0.222	0.122
-577.763	41.064	-0.096	-0.086
-576.748	-200.000	-0.001	0.282
-575.733	178.997	0.153	0.224
-574.719	142.207	-0.225	-0.297
-573.704	-54.329	0.086	-0.039
-572.690	-200.000	-0.013	-0.184
-571.675	-200.000	0.002	0.085
-570.661	-200.000	0.046	-0.315
-569.646	-9.020	-0.082	-0.055
-568.631	-200.000	-0.013	-0.149
-567.617	256.131	-0.081	-0.139
-566.602	-91.389	0.146	0.042
-565.588	-121.184	-0.215	-0.036
-564.573	172.033	-0.092	-0.132
-563.558	-179.102	-0.175	0.004
-562.544	800.000	-0.117	0.342
-561.529	1.812	-0.077	0.055
-560.515	-150.699	0.207	0.016
-559.500	187.658	0.068	0.101
-558.485	800.000	0.061	-0.227
-557.471	139.052	0.245	-0.321
-556.456	-83.544	-0.081	0.026
-555.442	-118.174	0.207	0.037
-554.427	-49.801	-0.136	0.064
-553.412	-200.000	0.012	0.094
-552.398	142.259	-0.147	0.194
-551.383	-122.174	-0.275	-0.045
-550.369	206.372	0.097	-0.151
-549.354	-130.314	0.249	-0.034
-548.339	-60.935	0.234	0.099
-547.325	-144.117	0.325	0.030
-546.310	188.313	-0.154	0.230
-545.296	-58.707	-0.400	0.173
-544.281	205.757	-0.236	-0.365
-543.266	-160.336	-0.142	0.008
-542.252	-36.521	0.076	-0.041
-541.237	-142.083	-0.212	-0.021
-540.223	46.513	0.081	0.075
-539.208	-126.554	0.179	0.026
-538.193	359.234	0.076	-0.151
-537.179	19.928	0.227	-0.182
-536.164	19.822	0.346	-0.277
-535.150	-200.000	-0.076	-0.360
-534.135	-11.608	-0.166	0.109
-533.121	-36.599	-0.084	0.045
-532.106	-47.130	0.043	0.021
-531.091	157.358	0.205	0.283
-530.077	460.711	0.165	0.365
-529.062	98.628	-0.026	-0.030
-528.048	-200.000	-0.021	0.117
-527.033	50.644	0.158	-0.149
-526.018	-200.000	-0.033	-0.159
-525.004	800.000	0.132	0.430
-523.989	800.000	0.083	0.231
-522.975	-200.000	-0.057	-0.296
-521.960	-200.000	-0.022	0.101
-520.945	17.395	-0.053	0.042
-519.931	1.332	0.460	0.329
-518.916	223.579	0.065	0.105
-517.902	222.276	-0.145	-0.233
-516.887	-106.943	0.304	-0.067
-515.872	-32.938	0.094	-0.052
-514.858	227.025	0.179	-0.290
-513.843	800.000	-0.075	-0.281
-512.829	-29.827	0.336	0.191
-511.814	-63.411	0.102	-0.042
-510.799	400.648	0.138	0.287
-509.785	-51.265	0.180	0.084
-508.770	87.111	0.088	0.097
-507.756	561.226	-0.161	0.387
-506.741	119.584	-0.025	-0.031
-505.726	-30.534	-0.142	0.080
-504.712	27.762	0.111	0.093
-503.697	-148.151	-0.193	-0.016
-502.683	394.930	-0.022	0.045
-501.668	-200.000	0.004	-0.235
-500.653	-52.613	0.328	-0.150
-499.639	523.754	0.114	0.267
-498.624	-44.230	-0.058	0.029
-497.610	-95.356	0.365	-0.098
-496.595	87.010	-0.212	-0.233
-495.581	-200.000	-0.019	-0.249
-494.566	-35.452	0.136	0.073
-493.551	-92.561	0.216	-0.060
-492.537	-200.000	-0.008	0.051
-491.522	-89.247	0.173	-0.051
-490.508	10.372	-0.144	0.109
-489.493	9.327	-0.099	-0.074
-488.478	-200.000	0.002	-0.012
-487.464	13.689	0.044	-0.034
-486.449	431.098	0.112	0.240
-485.435	65.013	0.027	-0.027
-484.420	-61.170	0.054	-0.023
-483.405	232.478	0.152	-0.248
-482.391	-6.497	-0.101	-0.068
-481.376	150.543	0.126	-0.170
-480.362	371.748	-0.042	0.085
-479.347	-200.000	0.013	0.298
-478.332	-79.565	-0.359	0.120
-477.318	-200.000	-0.008	-0.129
-476.303	-200.000	0.015	0.176
-475.289	-200.000	-0.043	0.218
-474.274	-200.000	-0.055	0.590
-473.259	-200.000	-0.032	0.452
-472.245	-77.412	-0.061	0.021
-471.230	-105.603	-0.245	0.055
-470.216	617.498	-0.119	0.297
-469.201	-123.762	-0.126	0.020
-468.186	-200.000	0.003	-0.319
-467.172	-81.696	0.207	0.068
-466.157	-29.944	-0.177	-0.100
-465.143	-200.000	-0.007	-0.045
-464.128	-87.254	0.162	0.049
-463.113	-48.294	-0.269	-0.129
-462.099	343.374	0.077	0.149
-461.084	-11.094	-0.297	0.194
-460.070	800.000	0.047	-0.150
-459.055	172.059	0.116	-0.165
-458.040	164.159	-0.128	-0.179
-457.026	140.337	0.073	-0.095
-456.011	503.859	-0.140	-0.321
-454.997	261.779	-0.048	-0.083
-453.982	-23.779	-0.204	-0.121
-452.968	-20.935	-0.084	0.051
-451.953	-86.626	0.209	0.063
-450.938	-148.058	-0.182	-0.015
-449.924	24.802	0.109	-0.090
-448.909	105.365	-0.215	0.252
-447.895	81.715	0.197	-0.212
-446.880	-130.340	-0.248	0.033
-445.865	800.000	-0.040	-0.167
-444.851	-103.648	-0.184	0.043
-443.836	-200.000	-0.052	0.256
-442.822	-99.217	0.236	-0.059
-441.807	527.378	-0.086	-0.201
-440.792	-154.799	-0.371	-0.024
-439.778	-125.881	0.465	0.069
-438.763	800.000	-0.054	-0.203
-437.749	-193.460	0.150	-0.001
-436.734	-200.000	0.019	-0.582
-435.719	197.724	0.068	0.103
-434.705	324.075	0.263	0.497
-433.690	-200.000	0.018	-0.084
-432.676	-123.274	0.095	0.015
-431.661	-85.514	0.189	-0.058
-430.646	33.408	-0.192	-0.165
-429.632	7.472	0.104	-0.077
-428.617	180.484	-0.032	0.046
-427.603	-0.659	-0.183	0.129
-426.588	32.140	-0.122	-0.104
-425.573	-200.000	-0.032	-0.314
-424.559	-97.349	0.156	-0.040
-423.544	-6.830	-0.077	-0.052
-422.530	729.791	-0.166	0.441
-421.515	544.922	-0.019	-0.046
-420.500	255.071	0.126	0.215
-419.486	-177.429	-0.315	-0.008
-418.471	543.342	-0.110	0.260
-417.457	140.296	-0.105	0.137
-416.442	-87.593	-0.092	-0.027
-415.428	-72.417	0.300	0.110
-414.413	-118.861	-0.172	0.030
-413.398	117.800	0.143	0.174
-412.384	37.250	-0.199	0.175
-411.369	36.207	-0.085	0.074
-410.355	-161.926	-0.068	0.003
-409.340	-200.000	0.018	0.385
-408.325	93.519	0.114	0.128
-407.311	47.577	-0.085	0.078
-406.296	800.000	-0.084	0.349
-405.282	-91.147	0.284	0.081
-404.267	-200.000	0.014	0.419
-403.252	-200.000	-0.052	-0.234
-402.238	76.250	0.254	-0.266
-401.223	78.480	0.225	-0.238
-400.209	-200.000	0.018	0.106
-399.194	800.000	0.099	-0.277
-398.179	255.065	0.131	0.223
-397.165	-200.000	0.025	0.130
-396.150	-128.527	0.329	-0.046
-395.136	-88.101	0.088	0.026
-394.121	121.804	0.052	-0.064
-393.106	-76.474	0.241	0.084
-392.092	800.000	0.063	0.248
-391.077	80.199	-0.116	-0.123
-390.063	-95.668	0.046	0.012
-389.048	-92.279	-0.139	-0.039
-388.033	708.551	0.188	0.493
-387.019	-116.276	-0.064	-0.012
-386.004	-33.860	0.211	-0.115
-384.990	185.337	0.116	-0.171
-383.975	29.828	0.161	-0.136
-382.960	800.000	-0.073	-0.252
-381.946	18.893	-0.144	0.114
-380.931	-200.000	-0.062	0.392
-379.917	-200.000	-0.038	-0.288
-378.902	800.000	0.058	-0.240
-377.888	-87.031	-0.220	0.066
-376.873	-200.000	-0.073	0.322
-375.858	-143.264	-0.308	0.029
-374.844	-95.208	0.087	0.023
-373.829	800.000	0.083	-0.232
-372.815	-200.000	-0.021	-0.175
-371.800	377.922	-0.029	0.059
-370.785	-115.812	-0.315	-0.058
-369.771	-155.243	0.203	0.013
-368.756	-27.880	-0.204	0.117
-367.742	39.705	0.218	0.193
-366.727	203.316	-0.035	-0.054
-365.712	-110.593	0.405	-0.083
-364.698	800.000	-0.073	0.293
-363.683	-200.000	0.018	0.232
-362.669	157.426	-0.146	-0.200
-361.654	-70.553	0.119	0.045
-360.639	474.765	0.010	0.023
-359.625	-15.015	-0.074	0.047
-358.610	-200.000	-0.029	0.276
-357.596	87.927	0.197	0.216
-356.581	683.097	-0.084	-0.218
-355.566	-115.546	-0.179	-0.033
-354.552	272.601	0.121	0.211
-353.537	-123.068	0.274	-0.043
-352.523	97.507	-0.196	0.223
-351.508	157.801	0.133	-0.182
-350.493	-106.816	0.093	0.020
-349.479	-70.243	0.206	-0.077
-348.464	800.000	0.098	-0.305
-347.450	-53.998	-0.262	-0.118
-346.435	142.889	0.133	0.175
-345.420	-200.000	-0.022	0.446
-344.406	-105.901	-0.092	0.021
-343.391	617.872	-0.094	-0.232
-342.377	355.429	0.169	0.332
-341.362	-96.125	0.138	0.036
-340.348	126.721	0.106	-0.133
-339.333	141.013	-0.168	0.220
-338.318	270.231	0.117	-0.203
-337.304	123.273	0.198	-0.245
-336.289	-14.714	0.135	0.086
-335.275	364.700	-0.110	-0.218
-334.260	-200.000	0.003	0.137
-333.245	555.009	0.045	-0.106
-332.231	233.237	-0.148	0.241
-331.216	-200.000	-0.003	-0.063
-330.202	334.531	-0.162	-0.309
-329.187	136.846	0.174	0.224
-328.172	-78.296	-0.174	0.059
-327.158	-98.335	-0.279	0.071
-326.143	35.132	-0.152	-0.132
-325.129	106.553	0.286	0.336
-324.114	-109.399	-0.219	-0.046
-323.099	-160.182	-0.424	-0.023
-322.085	-87.261	0.268	-0.080
-321.070	800.000	0.063	0.196
-320.056	209.111	0.113	-0.175
-319.041	23.007	-0.307	-0.249
-318.026	225.903	0.107	-0.172
-317.012	397.605	-0.036	-0.074
-315.997	82.075	0.047	0.050
-314.983	261.994	0.115	-0.198
-313.968	89.835	0.085	-0.093
-312.953	-89.129	-0.151	0.044
-311.939	141.279	-0.071	0.093
-310.924	236.715	0.164	0.268
-309.910	411.135	0.049	-0.103
-308.895	-111.018	0.142	-0.029
-307.880	-103.066	0.055	0.013
-306.866	-12.474	0.106	0.068
-305.851	567.687	-0.065	0.157
-304.837	-200.000	-0.006	-0.118
-303.822	-49.453	0.216	-0.101
-302.807	-6.384	-0.114	0.077
-301.793	19.133	0.194	-0.154
-300.778	57.151	-0.216	0.208
-299.764	-200.000	0.019	0.150
-298.749	-63.507	-0.309	-0.125
-297.735	-99.748	0.181	0.045
-296.720	126.194	-0.089	-0.111
-295.705	-180.553	0.433	0.009
-294.691	135.038	-0.247	0.316
-293.676	502.645	-0.079	0.180
-292.662	-47.623	0.123	0.059
-291.647	-53.144	0.205	-0.093
-290.632	-61.329	0.249	-0.103
-289.618	122.278	-0.212	-0.261
-288.603	352.082	-0.089	-0.173
-287.589	-82.809	0.200	0.064
-286.574	-200.000	-0.031	-0.204
-285.559	-83.459	0.258	0.082
-284.545	-46.983	0.058	-0.028
-283.530	88.570	-0.110	-0.120
-282.516	115.218	0.203	0.245
-281.501	-157.541	0.054	0.003
-280.486	-200.000	-0.014	-0.068
-279.472	-200.000	-0.022	-0.155
-278.457	-62.958	-0.211	0.086
-277.443	-200.000	0.008	-0.134
-276.428	-147.927	0.318	-0.026
-275.413	-8.863	0.185	0.122
-274.399	-50.559	0.083	0.038
-273.384	508.297	-0.010	0.023
-272.370	-43.992	-0.267	-0.132
-271.355	347.489	-0.074	0.143
-270.340	236.857	0.097	0.158
-269.326	-149.205	-0.119	0.009
-268.311	-200.000	0.021	-0.263
-267.297	51.695	-0.164	0.154
-266.282	368.378	0.068	0.135
-265.267	-22.793	-0.241	0.143
-264.253	122.684	0.259	0.319
-263.238	-98.261	-0.085	0.021
-262.224	177.013	-0.304	0.436
-261.209	86.825	-0.228	0.248
-260.195	-200.000	0.103	-0.496
-259.180	84.158	0.022	-0.024
-258.165	800.000	-0.042	-0.143
-257.151	-48.825	0.110	-0.052
-256.136	215.739	0.185	-0.290
-255.122	190.576	0.170	-0.252
-254.107	-129.357	0.146	0.020
-253.092	338.925	0.106	0.203
-252.078	32.574	0.101	-0.086
-251.063	-104.992	-0.447	0.101
-250.049	298.734	0.113	0.205
-249.034	61.887	0.178	-0.174
-248.019	106.583	0.157	0.183
-247.005	-74.140	0.175	-0.062
-245.990	-92.973	-0.325	-0.089
-244.976	-200.000	0.048	0.322
-243.961	-200.000	-0.000	-0.127
-242.946	205.884	-0.063	0.097
-241.932	374.306	-0.088	0.176
-240.917	-200.000	0.045	0.515
-239.903	99.497	0.194	-0.221
-238.888	12.149	0.136	0.103
-237.873	112.697	0.039	-0.047
-236.859	477.816	-0.040	0.088
-235.844	17.515	0.267	-0.208
-234.830	13.551	-0.188	-0.144
-233.815	129.314	-0.036	-0.045
-232.800	-56.999	-0.300	0.130
-231.786	-200.000	-0.001	0.016
-230.771	105.650	-0.205	-0.239
-229.757	5.991	-0.121	-0.088
-228.742	-200.000	-0.076	-0.331
-227.727	800.000	-0.096	0.287
-226.713	-127.078	0.168	-0.024
-225.698	-200.000	0.064	-0.311
-224.684	-200.000	-0.023	-0.211
-223.669	-8.951	-0.086	0.056
-222.655	-72.317	-0.109	-0.040
-221.640	-101.149	0.145	0.035
-220.625	800.000	0.138	-0.384
-219.611	-117.450	-0.408	-0.073
-218.596	508.959	0.071	-0.163
-217.582	-155.181	-0.224	-0.014
-216.567	-168.265	0.026	-0.001
-215.552	800.000	0.068	-0.188
-214.538	-59.667	0.167	-0.071
-213.523	-112.560	0.168	0.033
-212.509	-86.346	-0.218	0.066
-211.494	88.534	-0.044	-0.048
-210.479	-200.000	0.015	-0.243
-209.465	-112.374	0.266	-0.052
-208.450	457.694	-0.094	0.205
-207.436	-56.369	-0.399	-0.174
-206.421	800.000	-0.029	0.105
-205.406	-20.969	-0.171	0.103
-204.392	61.457	0.156	-0.152
-203.377	323.715	-0.135	0.253
-202.363	800.000	-0.053	0.145
-201.348	-200.000	0.017	-0.143
-200.333	-90.140	-0.558	0.160
-199.319	143.284	-0.078	0.102
-198.304	800.000	-0.058	0.211
-197.290	-200.000	-0.009	-0.218
-196.275	-200.000	0.008	-0.076
-195.260	127.015	0.113	-0.141
-194.246	0.707	-0.163	-0.115
-193.231	-200.000	0.385	-0.001
-192.217	-198.583	0.205	-0.001
-191.202	-172.528	0.473	-0.015
-190.187	-200.000	-0.016	-0.081
-189.173	-118.707	0.203	0.035
-188.158	-97.547	0.229	-0.058
-187.144	-85.858	-0.086	0.026
-186.129	-76.491	0.166	0.057
-185.114	-155.231	0.218	0.014
-184.100	-135.569	-0.096	-0.011
-183.085	372.316	0.077	0.154
-182.071	83.491	-0.154	-0.165
-181.056	800.000	-0.074	-0.309
-180.042	281.561	0.187	0.329
-179.027	-105.380	-0.495	0.111
-178.012	210.132	0.204	0.314
-176.998	-200.000	0.011	0.140
-175.983	-200.000	0.013	-0.085
-174.969	222.377	0.175	0.277
-173.954	360.881	-0.120	-0.236
-172.939	-101.492	-0.293	0.070
-171.925	-5.368	-0.211	0.142
-170.910	800.000	0.051	0.149
-169.896	-143.906	-0.198	-0.018
-168.881	593.692	0.010	-0.023
-167.866	152.084	0.061	-0.082
-166.852	604.145	0.163	0.398
-165.837	-27.752	-0.046	0.026
-164.823	800.000	0.091	0.258
-163.808	-97.040	-0.396	-0.102
-162.793	-200.000	0.065	0.341
-161.779	-200.000	0.006	0.134
-160.764	-200.000	-0.061	-0.457
-159.750	39.870	0.148	-0.130
-158.735	678.031	-0.058	-0.148
-157.720	-156.455	-0.122	0.007
-156.706	-64.923	0.192	-0.076
-155.691	-200.000	-0.038	0.462
-154.677	-91.045	-0.175	0.049
-153.662	-143.173	0.123	0.012
-152.647	-33.921	-0.223	0.120
-151.633	58.477	-0.065	0.063
-150.618	114.035	-0.152	-0.181
-149.604	66.920	0.130	0.130
-148.589	800.000	-0.060	-0.228
-147.574	85.989	0.085	-0.092
-146.560	360.297	0.302	0.593
-145.545	21.901	0.251	-0.200
-144.531	-189.885	0.308	0.003
-143.516	-200.000	0.003	-0.056
-142.502	-35.758	-0.129	-0.068
-141.487	83.172	-0.310	-0.331
-140.472	-122.956	-0.201	-0.032
-139.458	356.211	-0.034	-0.067
-138.443	-162.505	-0.426	-0.021
-137.429	500.496	0.056	0.127
-136.414	800.000	0.045	-0.132
-135.399	11.349	-0.250	-0.187
-134.385	437.987	0.060	0.128
-133.370	-84.558	-0.346	0.107
-132.356	50.537	0.007	0.006
-131.341	305.192	0.142	-0.259
-130.326	800.000	0.034	0.107
-129.312	-161.823	-0.207	0.010
-128.297	-145.199	0.094	0.008
-127.283	70.938	-0.262	-0.266
-126.268	46.260	0.188	0.171
-125.253	-200.000	-0.033	0.307
-124.239	348.531	-0.061	0.117
-123.224	27.319	-0.381	-0.313
-122.210	212.982	0.062	0.096
-121.195	-41.409	-0.142	-0.072
-120.180	-105.932	-0.189	-0.042
-119.166	19.108	-0.123	-0.097
-118.151	225.752	-0.175	0.278
-117.137	377.026	0.023	-0.046
-116.122	-167.570	0.281	0.011
-115.107	800.000	-0.030	0.087
-114.093	52.021	-0.177	0.165
-113.078	88.528	0.173	0.188
-112.064	16.010	0.071	-0.055
-111.049	-76.239	0.222	-0.077
-110.034	185.570	-0.049	-0.072
-109.020	-158.373	0.072	-0.004
-108.005	-110.973	0.207	0.042
-106.991	66.874	-0.123	0.123
-105.976	-82.665	0.031	0.010
-104.962	-49.215	0.309	-0.145
-103.947	-18.333	-0.094	0.057
-102.932	76.672	0.089	0.092
-101.918	227.900	0.196	-0.313
-100.903	151.175	-0.082	0.109
-99.889	513.006	0.059	0.134
-98.874	26.779	0.070	-0.057
-97.859	57.834	-0.073	0.070
-96.845	258.286	0.092	0.155
-95.830	6.817	-0.121	-0.088
-94.816	-67.119	0.071	-0.028
-93.801	-29.472	0.038	0.021
-92.786	-200.000	0.006	-0.090
-91.772	-95.668	0.109	-0.028
-90.757	-200.000	-0.027	0.118
-89.743	-122.488	0.143	-0.023
-88.728	164.440	-0.025	-0.034
-87.713	42.459	-0.171	0.152
-86.699	50.861	0.370	0.343
-85.684	-1.475	0.191	-0.132
-84.670	-42.218	-0.266	0.133
-83.655	153.427	-0.122	-0.164
-82.640	-164.733	0.048	0.002
-81.626	-70.136	-0.156	-0.058
-80.611	-131.328	-0.365	0.047
-79.597	-117.752	0.213	0.038
-78.582	-135.753	0.350	0.041
-77.567	53.254	-0.207	0.194
-76.553	-167.368	0.220	0.009
-75.538	-200.000	-0.014	0.340
-74.524	76.370	0.111	0.115
-73.509	-170.251	-0.491	0.017
-72.494	-200.000	0.036	0.388
-71.480	-68.745	0.257	-0.097
-70.465	122.702	0.122	0.149
-69.451	800.000	-0.074	0.279
-68.436	2.526	-0.182	0.129
-67.422	-40.991	0.398	0.201
-66.407	7.002	-0.172	-0.126
-65.392	-69.949	0.178	-0.066
-64.378	182.708	0.219	0.316
-63.363	-27.470	-0.150	0.085
-62.349	171.299	0.084	0.117
-61.334	75.687	-0.991	-1.023
-60.319	240.961	0.509	0.831
-59.305	486.510	-0.601	-1.339
-58.290	123.289	0.974	1.193
-57.276	-200.000	0.210	1.479
-56.261	-200.000	116.151	642.070
-55.246	495.439	1540.957	3459.807
-54.232	175.808	2709.014	3840.906
-53.217	104.462	2150.512	2474.308
-52.203	37.846	1584.654	1375.890
-51.188	29.635	1327.955	1104.135
-50.173	26.935	1289.202	1056.181
-49.159	52.113	1347.856	1254.974
-48.144	50.716	1360.743	1258.616
-47.130	29.780	1315.198	1094.212
-46.115	26.517	1296.995	1059.951
-45.100	26.229	1292.187	1054.301
-44.086	26.178	1289.548	1051.810
-43.071	26.099	1287.447	1049.590
-42.057	26.144	1284.850	1047.695
-41.042	26.283	1282.875	1046.847
-40.027	26.213	1281.881	1045.592
-39.013	26.297	1279.485	1044.079
-37.998	26.253	1278.201	1042.737
-36.984	26.296	1276.562	1041.609
-35.969	26.362	1274.425	1040.202
-34.954	26.327	1273.171	1038.934
-33.940	26.428	1271.310	1037.952
-32.925	26.475	1270.207	1037.282
-31.911	26.369	1269.248	1035.852
-30.896	26.523	1267.285	1035.091
-29.881	26.539	1265.682	1033.829
-28.867	26.562	1264.506	1032.959
-27.852	26.473	1263.102	1031.265
-26.838	26.538	1262.148	1030.815
-25.823	26.370	1260.715	1028.649
-24.809	26.456	1259.105	1027.782
-23.794	26.496	1257.558	1026.706
-22.779	26.434	1256.743	1025.648
-21.765	26.410	1255.486	1024.445
-20.750	26.405	1253.993	1023.160
-19.736	26.401	1252.685	1022.028
-18.721	26.379	1251.664	1021.028
-17.706	26.350	1250.574	1019.935
-16.692	26.339	1249.445	1018.913
-15.677	26.361	1248.288	1018.052
-14.663	26.343	1246.934	1016.807
-13.648	26.360	1245.780	1015.923
-12.633	26.344	1245.153	1015.282
-11.619	26.289	1244.160	1014.123
-10.604	26.340	1242.884	1013.327
-9.590	26.342	1242.092	1012.651
-8.575	26.294	1241.513	1011.870
-7.560	26.284	1241.204	1011.525
-6.546	26.294	1239.930	1010.503
-5.531	26.249	1239.512	1009.867
-4.517	26.365	1237.688	1008.991
-3.502	26.412	1237.080	1008.716
-2.487	26.396	1236.391	1008.024
-1.473	26.274	1232.303	1003.974
-0.458	24.869	1217.427	984.099
0.556	21.862	1200.750	948.143
1.571	18.180	1207.318	933.196
2.586	17.375	1221.845	939.891
3.600	17.013	1210.374	929.004
4.615	12.751	1139.308	852.370
5.629	6.094	1068.901	767.216
6.644	3.371	1051.458	741.538
7.659	3.050	1049.221	738.356
8.673	3.090	1048.169	737.741
9.688	3.159	1046.712	736.980
10.702	3.532	1044.093	736.851
11.717	7.189	1049.726	758.299
12.731	14.489	1059.836	800.706
13.746	18.959	1065.631	826.548
14.761	19.711	1066.095	830.449
15.775	18.850	1064.421	824.941
16.790	17.907	1062.174	818.608
17.804	17.103	1061.032	813.800
18.819	16.969	1059.593	811.983
19.834	16.882	1059.229	811.216
20.848	16.589	1058.349	809.070
21.863	16.431	1056.969	807.191
22.877	16.338	1056.515	806.329
23.892	16.293	1056.322	805.896
24.907	16.260	1055.285	804.873
25.921	16.382	1053.831	804.274
26.936	16.261	1053.048	803.032
27.950	16.307	1051.480	801.980
28.965	16.440	1049.912	801.348
29.980	16.506	1048.454	800.476
30.994	16.686	1047.081	800.207
32.009	16.625	1046.295	799.246
33.023	16.547	1045.299	798.045
34.038	16.514	1044.083	796.895
35.053	16.453	1043.367	795.989
36.067	16.409	1042.935	795.381
37.082	16.362	1041.783	794.211
38.096	16.584	1040.807	794.442
39.111	16.573	1040.336	793.957
40.126	16.418	1038.997	792.139
41.140	16.178	1037.836	790.061
42.155	16.127	1036.217	788.521
43.169	15.991	1035.397	787.189
44.184	16.009	1034.535	786.552
45.199	16.159	1033.206	786.170
46.213	16.282	1032.368	786.037
47.228	16.425	1031.326	785.837
48.242	16.387	1030.609	785.044
49.257	16.301	1029.590	783.798
50.271	16.476	1028.774	783.920
51.286	16.478	1028.048	783.307
52.301	16.346	1027.322	782.075
53.315	16.287	1025.717	780.510
54.330	16.152	1024.728	779.065
55.344	16.239	1023.968	778.822
56.359	16.153	1023.150	777.731
57.374	16.154	1022.357	777.064
58.388	16.063	1021.573	775.982
59.403	16.158	1020.799	775.762
60.417	16.020	1019.959	774.419
61.432	16.015	1019.247	773.788
62.447	15.737	1018.642	771.985
63.461	15.942	1017.029	771.636
64.476	15.931	1016.547	771.148
65.490	15.939	1015.867	770.602
66.505	16.047	1014.591	770.058
67.520	16.056	1014.067	769.634
68.534	16.045	1013.649	769.200
69.549	15.889	1013.026	767.948
70.563	15.932	1011.823	767.163
71.578	15.857	1011.048	766.167
72.593	15.756	1010.198	764.993
73.607	15.750	1009.993	764.742
74.622	15.745	1009.101	763.978
75.636	15.841	1008.472	763.871
76.651	15.982	1007.473	763.684
77.666	15.865	1007.529	763.130
78.680	15.911	1006.247	762.298
79.695	15.899	1005.743	761.795
80.709	16.064	1005.435	762.243
81.724	16.065	1004.878	761.757
82.739	16.192	1004.469	761.953
83.753	16.315	1003.830	761.956
84.768	16.535	1003.117	762.340
85.782	16.709	1001.291	761.665
86.797	16.557	1001.018	760.707
87.812	16.470	999.986	759.466
88.826	16.449	999.016	758.569
89.841	16.504	997.941	757.932
90.855	16.719	997.011	758.120
91.870	16.544	996.520	756.897
92.884	16.684	995.134	756.402
93.899	16.427	994.855	754.973
94.914	16.566	993.889	754.795
95.928	16.603	993.168	754.346
96.943	16.511	992.013	752.994
97.957	16.450	991.715	752.427
98.972	16.526	990.622	751.870
99.987	16.356	990.093	750.644
101.001	16.642	988.258	750.457
102.016	16.545	987.639	749.489
103.030	16.506	987.293	748.988
104.045	16.539	986.662	748.593
105.060	16.257	985.572	746.448
106.074	16.181	984.277	745.070
107.089	16.085	983.191	743.758
108.103	16.051	982.444	742.974
109.118	16.018	981.212	741.833
110.133	16.004	980.731	741.344
111.147	15.996	979.565	740.362
112.162	16.127	978.878	740.350
113.176	16.076	978.397	739.696
114.191	16.338	977.684	740.242
115.206	16.202	976.398	738.606
116.220	16.188	975.830	738.052
117.235	16.220	975.060	737.543
118.249	16.080	974.088	736.132
119.264	16.060	973.260	735.351
120.279	16.024	972.538	734.584
121.293	16.069	971.436	733.885
122.308	15.857	971.055	732.607
123.322	15.992	969.663	732.079
124.337	15.875	968.777	730.839
125.352	15.947	967.461	730.094
126.366	15.924	966.435	729.154
127.381	15.818	965.958	728.273
128.395	16.018	964.478	727.954
129.410	15.924	963.770	726.951
130.424	16.123	962.902	727.091
131.439	16.215	962.401	727.042
132.454	16.159	962.004	726.439
133.468	16.213	960.993	725.842
134.483	16.217	959.968	725.022
135.497	16.145	959.072	723.973
136.512	16.118	958.881	723.649
137.527	16.176	957.797	723.014
138.541	16.159	957.092	722.346
139.556	16.252	956.216	722.018
140.570	16.433	955.370	722.089
141.585	16.516	954.846	721.984
142.600	16.544	953.937	721.353
143.614	16.570	953.386	720.984
144.629	16.638	952.345	720.420
145.643	16.503	951.739	719.323
146.658	16.503	950.542	718.355
147.673	16.351	949.732	717.036
148.687	16.314	948.666	716.011
149.702	16.454	947.523	715.676
150.716	16.424	946.918	715.029
151.731	16.263	946.305	713.824
152.746	16.302	945.674	713.449
153.760	16.323	945.173	713.098
154.775	16.412	944.535	712.928
155.789	16.489	943.829	712.655
156.804	16.593	943.087	712.472
157.819	16.623	942.660	712.210
158.833	16.670	942.065	711.897
159.848	16.691	941.371	711.396
160.862	16.685	939.920	710.213
161.877	16.264	939.484	708.055
162.892	16.238	938.090	706.832
163.906	16.127	936.871	705.387
164.921	16.283	936.219	705.484
165.935	16.391	935.646	705.441
166.950	16.541	934.753	705.334
167.964	16.352	934.041	703.946
168.979	16.420	933.014	703.392
169.994	16.386	932.484	702.790
171.008	16.489	931.852	702.679
172.023	16.631	930.613	702.273
173.037	16.598	930.008	701.617
174.052	16.660	929.343	701.307
175.067	16.502	928.338	699.832
176.081	16.326	928.246	698.976
177.096	16.356	927.515	698.488
178.110	16.423	927.013	698.324
179.125	16.504	925.971	697.810
180.140	16.512	925.686	697.567
181.154	16.423	925.840	697.255
182.169	16.727	925.168	697.938
183.183	16.768	924.680	697.678
184.198	16.744	923.676	696.760
185.213	16.893	922.742	696.605
186.227	17.006	922.199	696.600
187.242	17.009	921.499	696.020
188.256	16.977	921.065	695.500
189.271	17.133	920.301	695.501
190.286	16.766	919.595	693.403
191.300	16.331	918.583	690.801
192.315	16.375	918.064	690.527
193.329	16.449	917.406	690.274
194.344	16.643	916.887	690.614
195.359	16.770	916.290	690.621
196.373	16.713	916.097	690.184
197.388	16.788	916.154	690.471
198.402	16.985	915.215	690.505
199.417	17.050	914.687	690.308
200.432	17.221	914.232	690.602
201.446	17.250	913.355	689.996
202.461	17.351	913.103	690.154
203.475	17.056	912.587	688.504
204.490	17.030	911.554	687.561
205.504	16.952	910.710	686.545
206.519	16.988	909.899	686.018
207.534	16.925	909.455	685.369
208.548	16.908	909.105	684.977
209.563	16.897	908.484	684.404
210.577	17.063	907.490	684.265
211.592	17.186	907.047	684.365
212.607	17.309	905.659	683.750
213.621	17.118	905.518	682.818
214.636	17.120	904.722	682.163
215.650	17.221	903.722	681.756
216.665	17.216	903.400	681.433
217.680	17.284	902.736	681.142
218.694	17.193	902.373	680.446
219.709	17.273	901.665	680.172
220.723	17.344	900.513	679.524
221.738	17.235	900.361	678.913
222.753	17.259	899.603	678.380
223.767	17.418	898.872	678.401
224.782	17.414	898.208	677.826
225.796	17.469	898.003	677.827
226.811	17.390	897.348	676.962
227.826	17.298	896.511	675.901
228.840	17.283	895.777	675.229
229.855	17.214	895.221	674.475
230.869	17.275	894.524	674.136
231.884	17.118	893.831	672.930
232.899	17.002	893.357	672.054
233.913	17.013	892.359	671.289
234.928	17.271	891.078	671.285
235.942	17.061	890.846	670.219
236.957	17.124	890.482	670.136
237.972	17.192	889.769	669.807
238.986	17.174	889.248	669.285
240.001	17.296	888.306	668.998
241.015	17.172	888.153	668.335
242.030	17.153	888.063	668.135
243.045	17.158	887.042	667.328
244.059	17.373	886.377	667.611
245.074	17.405	885.980	667.377
246.088	17.521	884.995	667.033
247.103	17.484	884.702	666.606
248.117	17.685	884.280	667.016
249.132	17.751	884.010	667.011
250.147	17.886	883.642	667.204
251.161	17.895	882.823	666.561
252.176	18.009	882.186	666.465
253.190	18.033	881.136	665.705
254.205	18.139	880.665	665.706
255.220	18.028	880.306	664.943
256.234	17.993	879.801	664.365
257.249	18.115	878.648	663.911
258.263	18.196	877.589	663.367
259.278	18.140	877.405	662.950
260.293	18.003	877.171	662.184
261.307	18.191	876.225	662.140
262.322	18.196	875.887	661.844
263.336	18.213	875.556	661.601
264.351	18.231	874.424	660.757
265.366	18.216	873.797	660.168
266.380	18.185	873.185	659.529
267.395	18.065	872.486	658.479
268.409	18.206	871.118	657.931
269.424	18.138	870.739	657.326
270.439	18.154	869.803	656.621
271.453	18.028	869.313	655.710
272.468	17.997	868.882	655.207
273.482	17.964	868.678	654.868
274.497	18.027	867.805	654.396
275.512	18.088	867.565	654.390
276.526	18.095	866.662	653.675
277.541	18.175	866.319	653.665
278.555	18.166	866.121	653.424
279.570	18.484	865.124	653.830
280.585	18.374	864.605	652.960
281.599	18.319	863.391	651.773
282.614	18.159	863.233	650.986
283.628	18.251	862.684	650.867
284.643	18.102	862.029	649.748
285.657	18.293	861.106	649.721
286.672	18.307	860.440	649.212
287.687	18.205	860.119	648.528
288.701	18.328	859.197	648.241
289.716	18.347	858.797	647.954
290.730	18.321	858.275	647.405
291.745	18.350	857.852	647.138
292.760	18.381	857.203	646.707
293.774	18.425	856.872	646.565
294.789	18.574	855.935	646.365
295.803	18.326	855.488	645.035
296.818	18.339	854.573	644.338
297.833	18.338	853.636	643.571
298.847	18.323	853.383	643.265
299.862	18.596	852.450	643.530
300.876	18.573	852.067	643.098
301.891	18.616	851.785	642.988
302.906	18.555	851.472	642.466
303.920	18.740	850.672	642.499
304.935	18.829	849.953	642.230
305.949	18.777	849.680	641.776
306.964	18.545	848.908	640.267
307.979	18.711	848.140	640.250
308.993	18.772	847.481	639.925
310.008	18.774	846.961	639.482
311.022	18.732	845.878	638.453
312.037	18.498	846.258	637.812
313.052	18.508	845.371	637.123
314.066	18.436	844.695	636.291
315.081	18.407	844.253	635.793
316.095	18.413	843.977	635.551
317.110	18.542	842.828	635.108
318.125	18.459	842.558	634.543
319.139	18.411	842.182	634.026
320.154	18.545	841.602	634.029
321.168	18.675	840.910	633.931
322.183	18.637	840.322	633.292
323.197	18.670	839.951	633.077
324.212	18.652	839.567	632.663
325.227	18.590	838.558	631.621
326.241	18.543	838.146	631.082
327.256	18.667	837.488	630.987
328.270	18.528	837.177	630.185
329.285	18.536	836.227	629.443
330.300	18.555	835.806	629.139
331.314	18.659	835.302	629.085
332.329	18.768	834.987	629.195
333.343	18.939	834.518	629.411
334.358	18.876	834.170	628.862
335.373	18.855	834.050	628.638
336.387	18.896	833.567	628.368
337.402	19.010	833.181	628.439
338.416	18.950	833.157	628.144
339.431	19.072	832.735	628.217
340.446	19.109	832.422	628.059
341.460	19.288	831.853	628.229
342.475	19.262	831.416	627.749
343.489	19.151	831.216	627.135
344.504	19.244	830.823	627.122
345.519	19.409	829.857	626.940
346.533	19.353	829.230	626.205
347.548	19.011	829.235	624.913
348.562	18.925	828.191	623.758
349.577	18.985	827.823	623.644
350.592	18.996	826.659	622.751
351.606	18.981	826.011	622.154
352.621	19.142	825.405	622.224
353.635	19.122	824.841	621.673
354.650	19.056	824.268	620.946
355.665	19.266	823.540	621.102
356.679	19.218	823.198	620.614
357.694	19.167	822.950	620.191
358.708	19.201	821.902	619.467
359.723	19.298	821.277	619.289
360.738	19.258	820.589	618.570
361.752	19.276	820.159	618.260
362.767	19.550	819.815	618.925
363.781	19.519	819.571	618.577
364.796	19.744	818.746	618.705
365.810	19.810	818.513	618.709
366.825	19.703	818.184	618.022
367.840	19.721	817.648	617.626
368.854	19.472	817.227	616.367
369.869	19.444	816.876	615.947
370.883	19.439	816.602	615.669
371.898	19.645	816.259	616.089
372.913	19.673	815.762	615.761
373.927	19.623	815.058	614.995
374.942	19.623	814.382	614.431
375.956	19.775	813.922	614.571
376.971	19.846	813.902	614.753
377.986	19.869	813.395	614.399
379.000	19.894	812.768	613.957
380.015	19.729	812.492	613.110
381.029	19.875	811.541	612.856
382.044	19.869	811.532	612.773
383.059	19.862	810.955	612.260
384.073	19.668	810.227	610.967
385.088	19.588	809.177	609.841
386.102	19.625	808.987	609.775
387.117	19.630	808.499	609.370
388.132	19.722	807.712	609.046
389.146	19.806	806.937	608.705
390.161	19.888	806.590	608.677
391.175	19.862	806.465	608.438
392.190	19.929	805.706	608.047
393.205	19.716	805.084	606.776
394.219	19.813	804.745	606.805
395.234	19.682	804.485	606.097
396.248	19.561	803.722	605.044
397.263	19.580	803.168	604.642
398.278	19.618	802.906	604.525
399.292	19.459	802.828	603.856
400.307	19.701	801.623	603.741
401.321	19.729	801.596	603.764
402.336	19.701	801.732	603.714
403.350	19.742	800.860	603.147
404.365	19.842	800.470	603.150
405.380	20.037	799.872	603.326
406.394	20.099	799.367	603.107
407.409	20.177	798.864	602.946
408.423	20.137	798.831	602.728
409.438	20.355	798.685	603.324
410.453	20.256	798.131	602.505
411.467	20.220	797.661	601.972
412.482	20.490	796.898	602.281
413.496	20.545	796.794	602.340
414.511	20.257	796.865	601.340
415.526	20.347	796.339	601.203
416.540	20.294	795.771	600.538
417.555	20.448	795.228	600.607
418.569	20.299	794.612	599.575
419.584	20.318	794.518	599.516
420.599	20.487	793.556	599.319
421.613	162.177	1372.461	1796.461
422.628	140.578	1456.809	1796.542
