DTS Sentinel unit serial number:	SN413079Multiplexer serial number:	ORYXHardware model number:	OX4-SRSoftware version number:	ORYX F/W v4.00 Oryx Data Collector v3.7.2.0data status	okinstallation	princeton_trtdifferential loss correction	single-endedforward channel	channel 1reverse channel	N/Adate	2019/09/10time	20:56:11forward acquisition time	60.00reverse acquisition time	0.00gamma	496.2192k internal	0.2328k external	0.2328temperature offset calibration	0.9934default loss term (dB/km)	0.3790temperature slope calibration	1.0000multiplexer offset coefficient	1.0000multiplexer slope coefficient	1.0000fibre end	0.00T internal ref (°C)	31.69T ext. ref 1 (°C)	-0.30T ext. ref 2 (°C)	25.03length (m)	temperature (°C)	Stokes	anti-Stokes-747.200	-35.520	-0.183	-0.100
-746.185	-129.262	0.079	-0.011
-745.171	235.029	0.088	0.146
-744.156	73.132	-0.081	0.086
-743.142	61.284	0.076	-0.076
-742.127	-180.485	0.148	-0.003
-741.112	-200.000	-0.010	0.083
-740.098	268.304	-0.093	0.165
-739.083	800.000	-0.009	-0.028
-738.069	727.130	0.050	-0.133
-737.054	-14.281	-0.168	0.109
-736.039	800.000	-0.057	-0.210
-735.025	800.000	0.018	-0.055
-734.010	-200.000	-0.036	0.169
-732.996	-142.195	-0.049	0.005
-731.981	8.281	0.134	0.102
-730.966	-200.000	0.001	0.098
-729.952	100.604	0.237	0.277
-728.937	-118.315	-0.124	-0.022
-727.923	-155.291	0.124	-0.008
-726.908	-197.949	-0.354	-0.002
-725.894	17.165	-0.269	0.215
-724.879	72.563	-0.359	0.377
-723.864	800.000	0.096	0.317
-722.850	800.000	0.044	0.139
-721.835	158.162	-0.240	-0.335
-720.821	-200.000	-0.030	0.220
-719.806	405.663	0.152	0.322
-718.791	471.468	0.115	-0.261
-717.777	-200.000	0.007	0.072
-716.762	-88.938	-0.167	-0.050
-715.748	-3.385	0.202	-0.142
-714.733	252.281	0.075	-0.129
-713.718	-153.720	0.111	-0.008
-712.704	-129.750	-0.122	-0.017
-711.689	-63.453	0.067	0.028
-710.675	89.286	-0.363	-0.407
-709.660	18.930	-0.117	0.094
-708.645	-200.000	-0.015	-0.076
-707.631	782.195	-0.072	-0.199
-706.616	116.276	0.061	-0.075
-705.602	101.321	0.142	-0.167
-704.587	74.811	0.053	0.056
-703.572	155.680	0.122	-0.169
-702.558	75.408	-0.140	-0.148
-701.543	-200.000	-0.042	-0.276
-700.529	118.540	0.120	0.149
-699.514	-200.000	0.034	-0.286
-698.499	-190.365	-0.103	0.001
-697.485	800.000	-0.031	0.102
-696.470	-200.000	0.001	-0.109
-695.456	-33.305	-0.290	-0.162
-694.441	201.648	-0.067	0.103
-693.426	170.439	-0.073	-0.105
-692.412	-200.000	0.020	0.104
-691.397	709.983	0.034	0.090
-690.383	-183.653	-0.109	0.002
-689.368	-200.000	0.001	0.030
-688.354	-58.515	-0.103	-0.045
-687.339	20.689	0.171	0.139
-686.324	62.634	-0.180	-0.181
-685.310	-35.150	0.345	-0.189
-684.295	800.000	-0.130	0.367
-683.281	-37.525	-0.100	-0.054
-682.266	54.465	0.152	-0.148
-681.251	-4.209	-0.113	0.078
-680.237	80.189	-0.254	0.275
-679.222	199.529	0.069	0.106
-678.208	-3.257	0.143	0.100
-677.193	-200.000	-0.004	0.164
-676.178	-200.000	-0.009	0.222
-675.164	-200.000	0.008	-0.177
-674.149	-200.000	-0.013	0.074
-673.135	299.959	0.040	0.074
-672.120	520.421	0.033	0.078
-671.105	8.610	0.080	-0.061
-670.091	22.379	-0.115	-0.095
-669.076	202.896	-0.074	0.116
-668.062	78.665	0.090	0.097
-667.047	9.266	-0.246	-0.187
-666.032	-102.569	-0.207	0.050
-665.018	-153.098	0.128	-0.009
-664.003	74.564	-0.120	0.126
-662.989	-116.367	0.207	0.038
-661.974	218.367	-0.082	0.131
-660.959	800.000	0.143	-0.429
-659.945	207.957	-0.170	-0.267
-658.930	800.000	0.052	-0.177
-657.916	-200.000	0.034	0.192
-656.901	-83.312	-0.199	0.064
-655.886	158.108	0.064	0.089
-654.872	-200.000	0.010	-0.157
-653.857	-74.337	-0.324	-0.117
-652.843	68.928	-0.162	0.167
-651.828	800.000	0.134	0.394
-650.814	-200.000	-0.026	-0.197
-649.799	23.661	-0.148	0.122
-648.784	-84.468	0.062	0.020
-647.770	-128.340	-0.107	0.015
-646.755	-81.530	-0.176	-0.058
-645.741	19.382	-0.162	0.130
-644.726	498.268	0.076	0.176
-643.711	-102.486	0.126	-0.030
-642.697	75.047	0.149	-0.158
-641.682	-131.230	0.338	0.045
-640.668	-200.000	0.024	0.223
-639.653	-200.000	-0.080	-0.376
-638.638	264.969	0.138	0.241
-637.624	-52.443	-0.196	-0.091
-636.609	522.763	0.034	0.080
-635.595	-116.479	0.209	0.039
-634.580	-79.812	-0.122	0.041
-633.565	48.885	0.052	-0.049
-632.551	-39.569	0.142	0.074
-631.536	-0.173	0.216	-0.154
-630.522	-162.782	-0.172	-0.008
-629.507	800.000	0.062	0.220
-628.492	-200.000	0.100	0.447
-627.478	22.690	0.073	0.060
-626.463	328.903	-0.074	-0.142
-625.449	-200.000	0.036	-0.166
-624.434	-200.000	-0.011	-0.306
-623.419	-121.669	-0.251	-0.042
-622.405	800.000	0.103	-0.341
-621.390	-36.905	0.208	-0.112
-620.376	-193.324	0.098	-0.001
-619.361	-37.249	-0.309	-0.166
-618.346	438.660	-0.137	-0.300
-617.332	-43.492	-0.099	-0.050
-616.317	-98.809	0.210	0.054
-615.303	-200.000	-0.019	0.119
-614.288	-27.684	-0.065	-0.038
-613.273	800.000	0.102	-0.400
-612.259	689.908	-0.012	0.031
-611.244	340.760	0.188	-0.367
-610.230	-200.000	-0.035	-0.271
-609.215	436.210	-0.016	0.036
-608.201	-200.000	-0.001	0.224
-607.186	87.422	-0.024	0.026
-606.171	418.139	-0.036	0.077
-605.157	800.000	0.071	-0.245
-604.142	-200.000	0.030	-0.163
-603.128	-129.556	0.061	-0.009
-602.113	84.650	-0.047	-0.052
-601.098	800.000	0.092	-0.310
-600.084	-168.387	-0.452	0.017
-599.069	-79.433	0.308	0.104
-598.055	66.346	0.242	0.247
-597.040	-97.556	0.227	0.059
-596.025	290.483	-0.057	-0.104
-595.011	800.000	0.123	0.374
-593.996	276.152	0.060	-0.106
-592.982	60.778	-0.042	-0.042
-591.967	-31.049	0.190	0.108
-590.952	460.898	-0.013	-0.030
-589.938	413.480	0.109	0.233
-588.923	-8.795	-0.095	0.064
-587.909	313.486	-0.098	-0.185
-586.894	-3.131	0.142	-0.099
-585.879	208.909	0.122	-0.191
-584.865	240.762	-0.093	-0.155
-583.850	36.855	0.175	-0.155
-582.836	-40.013	-0.289	-0.151
-581.821	-200.000	0.042	-0.272
-580.806	-130.462	0.179	-0.024
-579.792	-200.000	0.185	0.000
-578.777	-189.054	0.218	0.003
-577.763	620.742	-0.069	0.173
-576.748	-37.713	0.382	-0.204
-575.733	-200.000	-0.041	0.247
-574.719	800.000	0.107	-0.317
-573.704	80.142	0.100	-0.108
-572.690	-43.519	-0.244	-0.123
-571.675	-43.285	-0.101	-0.051
-570.661	-160.864	-0.272	0.014
-569.646	-116.302	0.126	-0.023
-568.631	-71.122	-0.130	0.049
-567.617	-80.715	-0.354	-0.118
-566.602	303.391	0.166	-0.308
-565.588	-40.778	0.108	-0.056
-564.573	-200.000	0.044	0.216
-563.558	-200.000	-0.008	0.146
-562.544	800.000	-0.057	-0.162
-561.529	285.125	-0.137	-0.246
-560.515	-200.000	0.054	-0.251
-559.500	-200.000	-0.048	0.237
-558.485	-80.160	-0.364	0.122
-557.471	6.685	-0.251	-0.187
-556.456	-44.604	0.153	0.076
-555.442	178.928	0.044	-0.065
-554.427	-9.974	0.318	0.212
-553.412	75.102	0.079	-0.083
-552.398	-200.000	0.032	-0.150
-551.383	-91.544	-0.215	-0.061
-550.369	-109.158	0.314	-0.067
-549.354	-57.123	-0.168	0.074
-548.339	-200.000	0.012	-0.227
-547.325	34.934	0.127	0.111
-546.310	-23.588	-0.241	-0.145
-545.296	-200.000	0.019	-0.361
-544.281	800.000	0.092	-0.291
-543.266	-200.000	0.022	0.162
-542.252	800.000	0.071	-0.259
-541.237	390.150	0.140	-0.290
-540.223	78.060	-0.092	-0.098
-539.208	-130.544	0.215	0.029
-538.193	107.694	-0.024	-0.029
-537.179	-135.522	0.237	-0.028
-536.164	321.644	0.084	0.160
-535.150	191.847	0.122	-0.184
-534.135	-173.315	-0.130	0.004
-533.121	234.406	0.083	-0.137
-532.106	11.802	0.126	-0.097
-531.091	123.476	-0.132	0.165
-530.077	800.000	-0.050	-0.162
-529.062	-86.171	-0.307	0.095
-528.048	-200.000	0.015	-0.194
-527.033	72.562	-0.042	-0.044
-526.018	-144.214	-0.147	0.014
-525.004	-113.639	0.114	-0.022
-523.989	643.105	-0.103	-0.263
-522.975	800.000	0.015	-0.066
-521.960	267.200	0.215	0.375
-520.945	-89.100	0.268	0.079
-519.931	157.630	-0.059	0.082
-518.916	-43.583	-0.239	-0.121
-517.902	-49.944	-0.115	-0.055
-516.887	-64.258	-0.430	0.175
-515.872	800.000	-0.032	-0.122
-514.858	800.000	-0.086	0.268
-513.843	123.438	0.200	0.250
-512.829	73.502	-0.176	-0.184
-511.814	-200.000	0.096	-0.588
-510.799	-200.000	0.064	-0.539
-509.785	-35.936	0.186	0.101
-508.770	-174.149	0.137	-0.004
-507.756	259.349	0.085	-0.147
-506.741	-117.630	-0.167	-0.030
-505.726	-45.906	0.115	0.057
-504.712	-4.370	0.157	-0.109
-503.697	-53.302	0.251	-0.115
-502.683	-186.638	-0.124	-0.002
-501.668	-91.657	0.245	-0.070
-500.653	800.000	-0.074	-0.222
-499.639	-155.053	0.178	0.012
-498.624	800.000	0.035	0.124
-497.610	62.125	-0.372	0.370
-496.595	0.569	-0.198	-0.141
-495.581	-48.665	0.195	-0.093
-494.566	91.856	-0.191	0.215
-493.551	303.876	0.114	0.210
-492.537	-110.507	0.243	-0.050
-491.522	-140.066	0.205	-0.022
-490.508	-200.000	0.026	-0.267
-489.493	-9.114	-0.152	0.101
-488.478	-151.812	0.158	0.012
-487.464	-133.609	-0.144	-0.018
-486.449	-100.886	-0.378	-0.093
-485.435	-126.195	-0.204	-0.030
-484.420	45.473	0.184	-0.169
-483.405	-200.000	0.032	0.341
-482.391	-177.000	0.088	-0.002
-481.376	-200.000	0.057	-0.299
-480.362	226.755	-0.150	-0.243
-479.347	-200.000	0.002	-0.286
-478.332	-200.000	-0.035	0.270
-477.318	-94.076	-0.215	0.059
-476.303	-9.143	-0.088	-0.059
-475.289	56.563	-0.107	0.104
-474.274	163.713	0.126	0.177
-473.259	-55.111	0.163	-0.073
-472.245	53.764	0.257	0.247
-471.230	-56.777	-0.430	0.190
-470.216	-57.608	0.200	0.087
-469.201	-40.504	-0.429	-0.222
-468.186	-200.000	0.024	0.119
-467.172	-200.000	0.004	0.268
-466.157	-200.000	0.021	0.359
-465.143	-200.000	-0.053	0.252
-464.128	1.966	-0.150	-0.108
-463.113	800.000	-0.095	0.312
-462.099	436.521	0.061	-0.132
-461.084	-185.063	0.092	0.001
-460.070	-200.000	0.047	0.214
-459.055	-200.000	0.000	-0.065
-458.040	800.000	-0.009	0.037
-457.026	191.138	0.087	0.131
-456.011	761.630	0.113	0.306
-454.997	-28.540	0.093	0.053
-453.982	-48.328	0.103	-0.049
-452.968	800.000	0.044	-0.143
-451.953	-44.498	-0.445	-0.222
-450.938	78.146	-0.097	-0.103
-449.924	244.545	-0.054	-0.091
-448.909	538.362	-0.116	0.274
-447.895	-200.000	0.016	0.395
-446.880	-52.709	0.070	0.032
-445.865	56.762	0.114	-0.110
-444.851	-200.000	-0.002	0.073
-443.836	800.000	-0.069	0.216
-442.822	-27.020	-0.376	0.219
-441.807	87.034	0.180	-0.198
-440.792	-106.741	-0.200	0.044
-439.778	590.980	0.094	-0.230
-438.763	615.217	-0.069	0.173
-437.749	800.000	-0.079	-0.248
-436.734	329.598	-0.052	0.100
-435.719	800.000	0.049	0.205
-434.705	418.969	-0.082	-0.175
-433.690	-56.348	-0.128	0.057
-432.676	-200.000	0.001	0.074
-431.661	-56.308	-0.209	0.093
-430.646	800.000	-0.091	0.258
-429.632	-22.122	-0.161	-0.097
-428.617	-51.389	-0.250	-0.116
-427.603	-89.112	0.155	-0.046
-426.588	-133.942	0.083	-0.010
-425.573	-163.227	-0.114	-0.005
-424.559	571.320	0.096	0.233
-423.544	-200.000	0.003	-0.240
-422.530	618.681	-0.096	-0.239
-421.515	129.109	0.148	0.187
-420.500	-200.000	-0.013	0.144
-419.486	-52.441	0.255	-0.117
-418.471	-200.000	0.001	0.185
-417.457	367.067	0.087	-0.176
-416.442	168.979	-0.055	0.079
-415.428	-200.000	0.017	0.184
-414.413	800.000	0.068	-0.187
-413.398	481.194	-0.082	-0.185
-412.384	-136.289	-0.312	-0.036
-411.369	546.531	-0.044	-0.105
-410.355	71.939	-0.096	0.099
-409.340	-24.614	0.130	-0.077
-408.325	120.341	0.080	0.098
-407.311	271.256	-0.057	0.099
-406.296	-36.143	0.204	0.110
-405.282	-200.000	0.022	0.129
-404.267	800.000	-0.080	-0.222
-403.252	-200.000	0.011	0.202
-402.238	-200.000	0.002	0.319
-401.223	183.704	0.266	0.392
-400.209	-200.000	0.024	0.243
-399.194	-115.788	-0.215	0.040
-398.179	-200.000	0.142	-0.000
-397.165	291.967	0.261	0.472
-396.150	-100.145	0.345	-0.085
-395.136	-41.831	0.048	0.025
-394.121	800.000	-0.034	0.107
-393.106	-37.545	-0.091	-0.048
-392.092	150.467	-0.075	-0.101
-391.077	-104.803	0.106	-0.024
-390.063	381.337	0.245	0.500
-389.048	-138.409	0.180	0.020
-388.033	800.000	0.049	-0.208
-387.019	132.357	-0.073	0.093
-386.004	59.175	0.203	0.199
-384.990	-33.945	0.295	-0.161
-383.975	-200.000	-0.032	-0.191
-382.960	-200.000	0.031	-0.539
-381.946	-82.364	0.171	0.055
-380.931	-154.681	-0.011	-0.001
-379.917	800.000	-0.033	-0.111
-378.902	-72.341	0.216	-0.080
-377.888	-200.000	0.005	-0.071
-376.873	187.489	-0.005	-0.008
-375.858	20.028	-0.157	0.126
-374.844	-35.366	-0.257	0.139
-373.829	800.000	-0.096	-0.344
-372.815	-75.136	0.400	-0.142
-371.800	-200.000	0.042	0.295
-370.785	752.516	0.058	-0.156
-369.771	-10.363	0.206	0.136
-368.756	47.797	-0.034	0.032
-367.742	-200.000	-0.023	-0.131
-366.727	-200.000	0.026	0.183
-365.712	-157.390	-0.096	0.006
-364.698	70.827	-0.277	0.285
-363.683	496.057	-0.068	0.156
-362.669	73.231	0.156	0.162
-361.654	-200.000	0.024	-0.120
-360.639	-200.000	0.022	-0.166
-359.625	407.395	0.142	0.297
-358.610	-18.119	0.236	0.146
-357.596	-81.884	-0.234	-0.076
-356.581	33.554	-0.089	-0.076
-355.566	500.455	-0.106	-0.244
-354.552	-200.000	0.035	0.446
-353.537	-82.074	-0.438	0.142
-352.523	800.000	-0.051	0.205
-351.508	86.932	-0.065	-0.071
-350.493	431.840	-0.118	-0.254
-349.479	44.927	-0.079	-0.072
-348.464	-200.000	0.005	0.208
-347.450	-200.000	-0.004	-0.218
-346.435	355.414	0.161	-0.317
-345.420	-200.000	0.006	0.039
-344.406	-140.992	0.343	-0.035
-343.391	800.000	-0.034	-0.095
-342.377	226.907	-0.067	-0.108
-341.362	142.554	0.083	0.109
-340.348	-54.874	-0.166	-0.074
-339.333	-200.000	0.120	0.555
-338.318	-94.032	-0.280	0.076
-337.304	342.543	0.211	-0.410
-336.289	426.481	-0.173	-0.370
-335.275	125.924	-0.110	0.138
-334.260	-101.723	-0.364	-0.088
-333.245	25.351	-0.181	-0.149
-332.231	10.043	0.307	-0.232
-331.216	87.963	-0.178	0.196
-330.202	-151.613	0.231	0.017
-329.187	-200.000	-0.052	0.419
-328.172	139.598	-0.020	0.026
-327.158	220.688	0.123	0.195
-326.143	345.930	-0.061	-0.119
-325.129	-55.439	0.264	0.117
-324.114	-94.141	-0.213	0.058
-323.099	278.266	0.275	0.486
-322.085	-38.952	0.032	0.016
-321.070	-140.222	-0.158	0.016
-320.056	-90.058	-0.049	0.014
-319.041	54.709	-0.234	0.224
-318.026	699.857	0.098	0.254
-317.012	-135.419	0.230	-0.027
-315.997	-200.000	-0.007	0.129
-314.983	-80.505	0.327	0.108
-313.968	800.000	-0.104	0.342
-312.953	-52.512	-0.256	0.117
-311.939	-104.864	-0.258	0.059
-310.924	800.000	0.033	0.110
-309.910	59.018	-0.226	0.220
-308.895	-200.000	-0.031	0.362
-307.880	594.984	-0.049	0.120
-306.866	-35.668	-0.231	-0.124
-305.851	195.802	0.153	0.231
-304.837	-186.859	0.208	-0.003
-303.822	-148.115	-0.167	0.014
-302.807	-106.940	0.325	-0.071
-301.793	105.485	-0.099	-0.116
-300.778	118.943	0.143	-0.175
-299.764	-200.000	-0.035	0.215
-298.749	-91.448	0.111	0.031
-297.735	108.515	0.079	-0.093
-296.720	800.000	0.044	0.121
-295.705	159.863	-0.167	0.230
-294.691	-27.020	0.304	-0.176
-293.676	124.714	-0.298	-0.371
-292.662	7.143	-0.028	-0.021
-291.647	176.906	-0.149	0.215
-290.632	-138.629	-0.194	0.021
-289.618	76.633	-0.068	-0.072
-288.603	-96.216	-0.075	0.020
-287.589	-184.591	0.156	-0.002
-286.574	800.000	-0.022	0.062
-285.559	-31.989	0.286	0.159
-284.545	417.644	0.092	-0.195
-283.530	127.084	0.081	-0.102
-282.516	32.213	0.112	0.095
-281.501	288.970	0.038	-0.067
-280.486	241.972	0.043	0.072
-279.472	424.375	0.098	0.209
-278.457	-101.461	0.196	0.047
-277.443	-137.556	0.189	0.021
-276.428	800.000	-0.068	-0.232
-275.413	-200.000	-0.027	-0.137
-274.399	170.358	0.034	0.048
-273.384	45.479	-0.082	-0.075
-272.370	-96.388	-0.453	0.119
-271.355	-50.440	0.055	0.026
-270.340	-200.000	-0.029	0.240
-269.326	107.581	0.179	0.210
-268.311	27.659	-0.082	-0.069
-267.297	800.000	0.127	-0.413
-266.282	-81.235	-0.046	0.015
-265.267	-11.361	-0.353	-0.230
-264.253	800.000	-0.036	-0.142
-263.238	-130.199	0.162	0.022
-262.224	223.337	0.056	-0.089
-261.209	407.421	-0.198	-0.415
-260.195	800.000	-0.138	0.476
-259.180	-18.714	0.350	-0.216
-258.165	-122.692	-0.167	0.027
-257.151	-200.000	-0.035	-0.263
-256.136	-11.091	0.018	0.012
-255.122	800.000	-0.020	0.069
-254.107	204.650	-0.125	-0.192
-253.092	127.644	0.049	0.061
-252.078	151.634	-0.245	-0.330
-251.063	303.454	-0.145	-0.266
-250.049	800.000	-0.087	-0.283
-249.034	-73.511	0.354	-0.128
-248.019	156.496	-0.094	0.128
-247.005	284.325	0.108	0.192
-245.990	451.956	-0.043	0.093
-244.976	-77.271	-0.211	-0.073
-243.961	39.750	0.117	-0.104
-242.946	-18.264	0.083	-0.051
-241.932	81.123	-0.121	0.129
-240.917	207.708	-0.074	0.114
-239.903	240.313	-0.144	0.237
-238.888	-200.000	0.003	0.222
-237.873	23.197	-0.189	-0.154
-236.859	-110.564	-0.202	-0.041
-235.844	-200.000	0.009	-0.173
-234.830	13.019	-0.078	0.060
-233.815	-200.000	-0.009	0.064
-232.800	-42.479	-0.263	0.133
-231.786	41.680	-0.251	0.224
-230.771	-36.700	-0.146	0.078
-229.757	-19.810	-0.063	-0.038
-228.742	31.147	-0.123	-0.105
-227.727	-200.000	-0.011	-0.395
-226.713	-200.000	-0.057	-0.474
-225.698	-35.953	-0.286	-0.153
-224.684	800.000	0.061	0.182
-223.669	-97.644	0.062	0.016
-222.655	487.560	-0.031	-0.070
-221.640	139.987	0.209	0.272
-220.625	627.000	-0.064	0.159
-219.611	-200.000	-0.023	0.155
-218.596	661.082	0.027	-0.068
-217.582	800.000	0.104	0.360
-216.567	-200.000	-0.016	-0.145
-215.552	-127.276	0.236	-0.034
-214.538	488.631	-0.167	0.376
-213.523	800.000	-0.056	0.182
-212.509	62.453	-0.123	0.121
-211.494	74.172	-0.115	-0.119
-210.479	800.000	-0.021	0.072
-209.465	31.378	0.039	0.033
-208.450	-134.745	-0.237	-0.028
-207.436	-2.966	0.201	-0.139
-206.421	224.786	-0.071	0.113
-205.406	457.565	-0.019	0.041
-204.392	293.939	0.115	0.206
-203.377	-62.829	-0.141	-0.058
-202.363	-83.190	-0.050	-0.016
-201.348	42.908	0.280	-0.252
-200.333	-157.846	-0.160	-0.009
-199.319	-200.000	0.003	-0.153
-198.304	800.000	-0.024	-0.070
-197.290	599.456	0.138	0.338
-196.275	800.000	0.116	0.366
-195.260	-148.533	-0.312	0.025
-194.246	-200.000	-0.008	-0.165
-193.231	-200.000	0.004	-0.419
-192.217	800.000	-0.120	0.353
-191.202	392.926	-0.133	-0.272
-190.187	800.000	-0.059	-0.164
-189.173	-200.000	0.006	-0.373
-188.158	-81.528	0.139	-0.045
-187.144	-30.928	-0.093	-0.052
-186.129	-200.000	0.036	-0.162
-185.114	-200.000	-0.015	0.158
-184.100	-29.415	-0.188	-0.106
-183.085	-143.832	0.226	0.021
-182.071	-104.528	0.221	-0.050
-181.056	-200.000	0.009	-0.090
-180.042	113.140	-0.055	-0.065
-179.027	-200.000	0.003	0.109
-178.012	-38.935	0.143	-0.074
-176.998	25.793	-0.287	0.235
-175.983	800.000	0.046	-0.176
-174.969	-88.525	0.295	-0.087
-173.954	95.007	0.164	0.183
-172.939	118.610	-0.150	0.182
-171.925	-89.288	-0.433	0.126
-170.910	-28.205	0.196	0.112
-169.896	-121.254	-0.153	0.025
-168.881	-109.577	0.159	-0.033
-167.866	87.478	0.247	0.269
-166.852	110.559	0.127	0.151
-165.837	183.930	0.096	0.140
-164.823	404.190	0.104	0.216
-163.808	-154.630	0.358	0.023
-162.793	800.000	0.081	-0.232
-161.779	556.413	0.027	-0.063
-160.764	-69.053	-0.372	-0.141
-159.750	295.781	0.103	0.186
-158.735	207.932	-0.205	-0.316
-157.720	71.381	0.126	-0.129
-156.706	-200.000	0.050	-0.307
-155.691	-118.144	-0.199	0.035
-154.677	800.000	0.047	0.182
-153.662	-200.000	0.075	0.327
-152.647	48.236	0.196	0.180
-151.633	64.529	0.140	-0.139
-150.618	9.638	-0.116	0.086
-149.604	41.100	0.117	-0.104
-148.589	264.056	-0.227	0.388
-147.574	80.176	0.264	-0.279
-146.560	-200.000	0.018	0.220
-145.545	800.000	-0.048	0.194
-144.531	-144.017	0.062	-0.006
-143.516	-100.402	0.175	-0.043
-142.502	-7.242	-0.220	-0.147
-141.487	-150.773	0.468	-0.035
-140.472	-103.165	-0.281	0.065
-139.458	800.000	0.095	-0.297
-138.443	-200.000	-0.045	-0.204
-137.429	-102.221	-0.123	-0.029
-136.414	-145.454	-0.430	-0.038
-135.399	241.675	0.033	-0.054
-134.385	59.102	-0.138	0.134
-133.370	-61.291	0.085	0.035
-132.356	26.377	0.382	0.314
-131.341	-163.151	0.461	0.022
-130.326	78.024	-0.312	0.327
-129.312	330.184	0.035	0.066
-128.297	-200.000	-0.003	0.082
-127.283	91.718	0.146	-0.162
-126.268	-31.688	-0.113	-0.063
-125.253	357.378	-0.119	0.234
-124.239	800.000	-0.120	0.426
-123.224	37.623	-0.200	0.175
-122.210	10.103	-0.221	-0.165
-121.195	-178.065	0.241	-0.006
-120.180	-103.444	-0.092	-0.021
-119.166	-28.245	0.223	0.127
-118.151	493.379	-0.073	0.165
-117.137	274.345	-0.177	-0.308
-116.122	210.885	0.055	-0.085
-115.107	-200.000	0.007	-0.126
-114.093	194.236	0.254	0.379
-113.078	-101.067	-0.236	-0.057
-112.064	269.420	0.092	-0.158
-111.049	-200.000	0.031	-0.276
-110.034	3.732	0.158	0.113
-109.020	-88.114	-0.149	-0.044
-108.005	-200.000	-0.083	-0.362
-106.991	-116.652	-0.225	0.041
-105.976	-130.143	-0.210	0.028
-104.962	800.000	-0.037	-0.103
-103.947	150.630	-0.132	-0.176
-102.932	101.796	-0.222	0.255
-101.918	-126.689	-0.061	0.009
-100.903	800.000	0.082	0.284
-99.889	-105.874	0.155	-0.034
-98.874	-6.521	0.133	0.089
-97.859	188.017	-0.031	0.046
-96.845	80.360	0.047	0.049
-95.830	-38.153	-0.336	-0.175
-94.816	289.156	-0.073	-0.129
-93.801	133.944	0.106	-0.134
-92.786	433.596	0.033	-0.071
-91.772	800.000	0.068	0.272
-90.757	335.728	-0.067	0.127
-89.743	361.042	0.073	0.143
-88.728	-85.771	-0.283	-0.086
-87.713	55.387	-0.164	-0.156
-86.699	-200.000	0.027	0.310
-85.684	-133.993	0.282	-0.034
-84.670	800.000	0.125	0.421
-83.655	-200.000	0.008	0.050
-82.640	-200.000	0.049	-0.412
-81.626	-75.040	-0.250	0.088
-80.611	-32.990	0.128	0.070
-79.597	83.801	0.171	0.183
-78.582	-179.887	0.500	-0.011
-77.567	96.527	0.182	-0.204
-76.553	267.639	-0.185	0.317
-75.538	122.607	-0.064	0.079
-74.524	-173.130	0.231	-0.007
-73.509	-57.286	-0.086	0.037
-72.494	263.036	0.097	-0.165
-71.480	-73.763	0.134	-0.048
-70.465	-200.000	0.026	0.121
-69.451	-200.000	-0.014	0.236
-68.436	-74.633	0.404	-0.143
-67.422	-150.696	-0.360	-0.027
-66.407	-38.572	-0.066	0.034
-65.392	-25.318	-0.192	0.111
-64.378	-22.233	-0.040	-0.024
-63.363	-104.390	0.148	0.034
-62.349	-4.151	0.297	-0.202
-61.334	68.864	-1.075	-1.083
-60.319	-7.156	0.558	0.372
-59.305	-200.000	-0.154	-1.152
-58.290	800.000	0.338	0.940
-57.276	133.781	0.722	0.917
-56.261	-200.000	97.469	609.920
-55.246	613.513	1397.436	3431.711
-54.232	194.040	2586.881	3843.357
-53.217	118.393	2144.734	2595.196
-52.203	43.786	1600.469	1437.015
-51.188	35.303	1338.691	1151.268
-50.173	32.159	1297.166	1097.190
-49.159	54.306	1345.707	1270.449
-48.144	56.305	1362.382	1298.021
-47.130	35.264	1320.752	1135.433
-46.115	31.862	1302.937	1100.153
-45.100	31.762	1297.609	1095.025
-44.086	31.649	1295.534	1092.568
-43.071	31.508	1293.381	1089.890
-42.057	31.571	1290.538	1087.815
-41.042	31.584	1289.333	1086.834
-40.027	31.641	1287.957	1085.959
-39.013	31.639	1285.732	1084.032
-37.998	31.562	1284.596	1082.583
-36.984	31.705	1282.345	1081.469
-35.969	31.642	1280.588	1079.580
-34.954	31.648	1279.189	1078.397
-33.940	31.691	1277.925	1077.536
-32.925	31.818	1276.703	1077.193
-31.911	31.779	1274.870	1075.375
-30.896	31.830	1273.178	1074.198
-29.881	31.840	1272.003	1073.223
-28.867	31.894	1270.555	1072.266
-27.852	31.865	1269.309	1071.010
-26.838	31.859	1268.073	1069.889
-25.823	31.704	1266.825	1067.908
-24.809	31.748	1265.111	1066.672
-23.794	31.871	1263.560	1066.020
-22.779	31.763	1262.732	1064.667
-21.765	31.652	1261.202	1062.706
-20.750	31.763	1260.161	1062.417
-19.736	31.716	1258.532	1060.734
-18.721	31.707	1257.425	1059.706
-17.706	31.519	1256.468	1057.796
-16.692	31.692	1255.081	1057.564
-15.677	31.713	1253.852	1056.605
-14.663	31.666	1252.871	1055.472
-13.648	31.650	1251.370	1054.072
-12.633	31.642	1250.658	1053.386
-11.619	31.648	1250.228	1053.016
-10.604	31.582	1249.259	1051.789
-9.590	31.654	1247.710	1050.845
-8.575	31.497	1247.136	1049.440
-7.560	31.583	1246.305	1049.180
-6.546	31.525	1245.685	1048.294
-5.531	31.526	1244.606	1047.352
-4.517	31.639	1243.356	1046.885
-3.502	31.615	1242.800	1046.243
-2.487	31.669	1241.844	1045.701
-1.473	31.577	1237.863	1041.791
-0.458	29.996	1222.750	1020.332
0.556	24.048	1204.607	980.762
1.571	20.289	1208.950	963.383
2.586	19.476	1223.345	970.202
3.600	19.080	1213.076	959.762
4.615	13.751	1141.602	875.093
5.629	4.394	1065.776	770.627
6.644	-0.015	1045.513	734.402
7.659	-0.293	1043.039	731.243
8.673	-0.378	1041.524	729.703
9.688	-0.522	1040.474	728.205
10.702	-0.187	1038.776	728.579
11.717	5.545	1047.045	762.286
12.731	14.654	1059.352	815.887
13.746	18.600	1064.387	839.031
14.761	18.914	1064.182	840.331
15.775	18.908	1063.944	840.035
16.790	18.471	1062.614	836.779
17.804	18.445	1062.527	836.513
18.819	18.567	1061.655	836.344
19.834	18.547	1061.227	835.838
20.848	18.571	1060.803	835.544
21.863	18.396	1060.709	834.543
22.877	18.640	1059.419	834.646
23.892	18.550	1059.027	833.823
24.907	18.498	1057.963	832.657
25.921	18.581	1057.016	832.245
26.936	18.657	1055.213	831.118
27.950	18.572	1053.679	829.426
28.965	18.358	1051.890	826.910
29.980	18.537	1050.164	826.343
30.994	18.651	1049.380	826.203
32.009	18.681	1047.996	825.184
33.023	18.431	1046.674	822.871
34.038	18.466	1046.134	822.539
35.053	18.503	1045.697	822.302
36.067	18.701	1044.703	822.395
37.082	18.728	1043.685	821.651
38.096	18.782	1042.756	821.106
39.111	18.801	1042.151	820.644
40.126	18.801	1040.611	819.360
41.140	18.543	1038.841	816.668
42.155	18.372	1037.240	814.524
43.169	18.382	1036.450	813.877
44.184	18.510	1035.088	813.345
45.199	18.293	1034.380	811.687
46.213	18.397	1033.047	811.060
47.228	18.392	1032.322	810.394
48.242	18.330	1031.657	809.511
49.257	18.543	1030.656	809.660
50.271	18.617	1030.087	809.489
51.286	18.507	1029.077	808.105
52.301	18.484	1027.861	806.971
53.315	18.469	1027.082	806.214
54.330	18.462	1025.981	805.247
55.344	18.689	1025.001	805.473
56.359	18.556	1023.930	803.936
57.374	18.472	1022.870	802.641
58.388	18.516	1022.293	802.323
59.403	18.332	1021.297	800.610
60.417	18.295	1020.429	799.683
61.432	18.314	1019.774	799.191
62.447	18.528	1019.083	799.577
63.461	18.462	1018.579	798.803
64.476	18.424	1017.130	797.419
65.490	18.360	1016.263	796.368
66.505	18.393	1015.918	796.181
67.520	18.353	1015.044	795.243
68.534	18.278	1013.731	793.795
69.549	18.103	1012.706	792.112
70.563	18.148	1011.858	791.585
71.578	18.117	1011.438	791.041
72.593	18.002	1009.757	789.127
73.607	18.096	1009.647	789.405
74.622	18.358	1009.421	790.367
75.636	18.385	1008.418	789.638
76.651	18.244	1007.604	788.279
77.666	18.154	1006.909	787.256
78.680	18.322	1006.101	787.326
79.695	18.358	1005.405	786.875
80.709	18.419	1004.824	786.631
81.724	18.463	1003.999	786.117
82.739	18.418	1003.327	785.316
83.753	18.767	1002.591	786.271
84.768	18.740	1001.996	785.610
85.782	18.904	1000.418	785.051
86.797	18.846	999.675	784.134
87.812	18.697	998.714	782.631
88.826	18.748	997.834	782.104
89.841	18.868	996.607	781.621
90.855	18.812	995.684	780.572
91.870	18.769	994.634	779.484
92.884	18.683	993.686	778.282
93.899	18.729	992.256	777.302
94.914	18.824	992.031	777.488
95.928	18.710	990.823	775.955
96.943	18.420	989.717	773.712
97.957	18.322	988.107	771.942
98.972	18.196	987.057	770.487
99.987	18.400	986.823	771.156
101.001	18.470	985.957	770.727
102.016	18.653	984.759	770.544
103.030	18.462	983.795	768.861
104.045	18.234	982.924	767.092
105.060	18.243	981.927	766.288
106.074	18.405	981.340	766.486
107.089	18.788	980.576	767.532
108.103	18.603	979.791	766.024
109.118	18.378	978.062	763.603
110.133	18.498	977.154	763.360
111.147	18.380	975.787	761.699
112.162	18.286	974.883	760.510
113.176	18.332	974.378	760.255
114.191	18.400	972.904	759.335
115.206	18.122	972.371	757.622
116.220	18.118	971.375	756.761
117.235	18.244	970.444	756.527
118.249	18.150	969.916	755.632
119.264	18.240	969.272	755.461
120.279	18.229	968.064	754.402
121.293	18.397	967.490	754.629
122.308	18.363	966.696	753.794
123.322	18.288	965.387	752.379
124.337	18.264	964.084	751.188
125.352	17.836	962.263	747.828
126.366	17.686	961.690	746.660
127.381	18.421	961.339	749.539
128.395	18.592	960.835	749.827
129.410	18.729	959.417	749.251
130.424	18.726	958.354	748.341
131.439	18.710	957.293	747.379
132.454	18.655	956.812	746.699
133.468	18.652	955.431	745.541
134.483	18.829	954.721	745.690
135.497	18.941	953.966	745.520
136.512	18.898	953.258	744.713
137.527	18.912	952.209	743.889
138.541	19.049	950.813	743.323
139.556	18.965	950.541	742.684
140.570	18.859	949.863	741.630
141.585	18.889	948.548	740.666
142.600	18.871	946.864	739.211
143.614	19.146	946.477	740.023
144.629	19.125	945.761	739.309
145.643	18.799	944.859	737.138
146.658	18.793	943.566	736.040
147.673	18.906	941.904	735.162
148.687	18.723	941.367	733.896
149.702	18.771	940.311	733.212
150.716	18.706	939.582	732.301
151.731	18.815	938.650	731.976
152.746	19.029	938.330	732.573
153.760	19.177	937.547	732.524
154.775	19.130	936.978	731.816
155.789	18.992	936.058	730.446
156.804	19.001	934.836	729.468
157.819	18.946	934.387	728.817
158.833	19.031	933.907	728.738
159.848	19.029	932.851	727.843
160.862	18.776	932.115	726.135
161.877	19.168	930.827	726.722
162.892	19.060	929.697	725.322
163.906	19.243	928.357	724.980
164.921	18.978	928.001	723.523
165.935	19.110	926.720	723.017
166.950	19.044	925.799	721.955
167.964	19.110	925.116	721.634
168.979	18.874	924.056	719.757
169.994	18.926	922.938	719.040
171.008	18.986	922.860	719.167
172.023	19.131	921.619	718.743
173.037	18.722	920.820	716.349
174.052	18.742	919.489	715.333
175.067	18.756	919.270	715.157
176.081	19.010	918.914	715.874
177.096	18.827	918.048	714.376
178.110	18.650	917.067	712.813
179.125	18.450	916.178	711.228
180.140	18.591	915.660	711.349
181.154	18.731	915.238	711.539
182.169	19.008	914.980	712.421
183.183	19.142	914.308	712.391
184.198	19.042	913.855	711.559
185.213	18.880	912.972	710.140
186.227	19.085	912.364	710.452
187.242	18.988	911.594	709.390
188.256	19.068	910.624	708.901
189.271	19.216	909.861	708.854
190.286	18.801	909.313	706.656
191.300	18.405	907.786	703.782
192.315	17.732	906.323	699.826
193.329	17.767	905.679	699.410
194.344	18.558	906.196	702.992
195.359	18.927	905.760	704.101
196.373	19.122	905.283	704.465
197.388	18.744	905.056	702.681
198.402	18.738	904.262	701.979
199.417	18.857	903.669	701.940
200.432	18.528	902.358	699.517
201.446	18.299	901.662	697.982
202.461	18.502	900.656	697.968
203.475	17.587	899.090	692.973
204.490	17.097	897.878	689.989
205.504	17.801	898.700	693.421
206.519	18.571	898.251	696.140
207.534	18.612	897.678	695.802
208.548	19.086	897.044	697.167
209.563	18.839	896.387	695.596
210.577	18.894	895.833	695.326
211.592	19.100	895.188	695.596
212.607	19.041	894.551	694.803
213.621	19.035	894.169	694.418
214.636	19.117	893.541	694.201
215.650	18.945	892.534	692.663
216.665	19.066	892.098	692.752
217.680	19.136	890.418	691.666
218.694	18.669	889.336	688.891
219.709	18.518	888.856	687.853
220.723	18.856	888.826	689.124
221.738	18.835	888.623	688.822
222.753	19.036	887.257	688.508
223.767	19.068	886.556	688.031
224.782	19.104	886.236	687.863
225.796	19.225	885.812	687.957
226.811	18.638	884.224	684.325
227.826	17.968	883.182	680.787
228.840	18.272	882.771	681.620
229.855	18.250	881.944	680.835
230.869	17.994	880.591	678.711
231.884	18.458	880.735	680.607
232.899	19.060	880.825	683.006
233.913	18.995	880.409	682.364
234.928	19.093	879.831	682.246
235.942	18.942	879.068	680.996
236.957	18.808	877.777	679.405
237.972	18.794	877.320	678.934
238.986	18.668	877.024	678.148
240.001	18.931	875.927	678.280
241.015	18.850	875.429	677.515
242.030	18.903	874.923	677.269
243.045	19.191	874.108	677.713
244.059	19.144	874.212	677.549
245.074	18.844	873.052	675.410
246.088	18.668	871.860	673.736
247.103	18.931	871.194	674.193
248.117	19.282	871.540	675.781
249.132	19.515	870.749	676.021
250.147	19.523	870.046	675.445
251.161	19.762	869.424	675.837
252.176	19.608	869.104	674.927
253.190	19.671	868.280	674.473
254.205	19.945	867.969	675.241
255.220	19.883	867.267	674.394
256.234	19.742	866.465	673.160
257.249	19.636	865.632	672.040
258.263	19.652	865.058	671.599
259.278	19.731	864.373	671.315
260.293	19.805	863.516	670.876
261.307	19.524	863.036	669.356
262.322	19.386	862.068	668.011
263.336	18.715	859.909	663.685
264.351	17.676	858.142	658.254
265.366	17.822	858.181	658.788
266.380	18.775	858.456	662.618
267.395	19.470	858.382	665.182
268.409	19.247	857.633	663.686
269.424	19.681	856.803	664.654
270.439	19.499	856.340	663.535
271.453	19.798	855.608	664.060
272.468	19.897	855.467	664.270
273.482	19.837	854.950	663.580
274.497	19.500	853.757	661.304
275.512	19.046	853.095	658.996
276.526	19.428	853.038	660.355
277.541	19.615	852.448	660.556
278.555	19.395	851.109	658.618
279.570	19.068	850.624	656.936
280.585	19.489	849.576	657.674
281.599	19.524	848.532	656.943
282.614	18.966	847.789	654.185
283.628	19.040	847.237	653.982
284.643	19.276	846.997	654.635
285.657	19.049	845.596	652.634
286.672	18.576	845.497	650.707
287.687	19.192	845.375	652.889
288.701	19.295	844.207	652.321
289.716	18.886	843.424	650.113
290.730	18.977	842.880	649.980
291.745	18.755	841.751	648.212
292.760	18.969	841.962	649.126
293.774	19.724	842.190	652.094
294.789	20.146	841.571	653.146
295.803	20.336	841.486	653.740
296.818	20.289	840.364	652.630
297.833	19.765	839.433	649.882
298.847	19.828	838.681	649.480
299.862	19.844	838.695	649.494
300.876	20.138	838.220	650.172
301.891	20.262	836.917	649.567
302.906	19.646	836.182	646.634
303.920	19.755	835.797	646.687
304.935	20.162	835.472	647.899
305.949	20.136	834.720	647.161
306.964	19.833	834.145	645.528
307.979	19.976	833.885	645.804
308.993	20.296	833.429	646.584
310.008	20.419	832.690	646.412
311.022	20.108	831.799	644.508
312.037	19.946	831.387	643.529
313.052	19.679	830.690	641.942
314.066	19.074	829.032	638.360
315.081	18.765	828.541	636.781
316.095	19.520	829.125	639.973
317.110	19.790	828.812	640.672
318.125	19.167	827.832	637.555
319.139	18.320	826.263	633.159
320.154	18.247	825.789	632.469
321.168	19.062	825.902	635.510
322.183	19.887	825.264	638.006
323.197	19.752	825.575	637.693
324.212	19.901	825.219	637.911
325.227	20.000	824.476	637.644
326.241	20.051	823.523	637.037
327.256	19.904	822.642	635.761
328.270	19.749	822.228	634.815
329.285	19.717	821.817	634.326
330.300	19.427	821.119	632.665
331.314	19.593	820.587	632.810
332.329	20.086	820.162	634.228
333.343	20.288	819.672	634.534
334.358	20.113	819.371	633.606
335.373	20.213	819.328	633.882
336.387	20.500	818.891	634.536
337.402	20.559	818.716	634.557
338.416	20.257	818.364	633.128
339.431	20.398	818.066	633.356
340.446	20.492	818.092	633.663
341.460	20.432	816.812	632.396
342.475	20.233	816.455	631.338
343.489	20.358	815.974	631.367
344.504	20.606	815.702	632.002
345.519	20.507	815.399	631.351
346.533	20.782	815.246	632.177
347.548	20.778	814.403	631.453
348.562	20.873	814.171	631.559
349.577	20.766	813.488	630.588
350.592	20.762	813.038	630.168
351.606	20.783	812.105	629.466
352.621	20.637	811.382	628.321
353.635	20.632	810.363	627.459
354.650	19.893	809.158	623.807
355.665	19.079	807.812	619.785
356.679	19.429	807.560	620.796
357.694	19.978	806.949	622.243
358.708	19.887	806.359	621.406
359.723	20.229	806.441	622.643
360.738	20.412	806.382	623.199
361.752	20.601	805.444	623.097
362.767	20.810	805.324	623.698
363.781	21.006	805.258	624.293
364.796	21.128	804.477	624.067
365.810	21.086	804.163	623.619
366.825	21.166	803.113	623.037
367.840	20.771	802.831	621.351
368.854	20.430	801.977	619.421
369.869	20.631	801.506	619.719
370.883	20.717	800.921	619.517
371.898	20.287	800.662	617.733
372.913	20.608	800.013	618.318
373.927	20.667	800.033	618.490
374.942	20.751	799.567	618.373
375.956	20.816	799.189	618.256
376.971	20.839	798.932	618.082
377.986	21.002	798.666	618.399
379.000	20.918	798.116	617.622
380.015	20.947	797.082	616.870
381.029	20.885	796.861	616.426
382.044	21.172	795.987	616.708
383.059	21.166	795.443	616.211
384.073	21.199	795.095	616.005
385.088	21.161	794.598	615.429
386.102	21.074	793.730	614.397
387.117	20.908	793.500	613.581
388.132	20.738	792.253	611.964
389.146	20.054	791.316	608.783
390.161	20.449	791.522	610.275
391.175	20.764	791.183	611.068
392.190	20.686	789.719	609.610
393.205	19.329	788.330	603.734
394.219	18.116	786.681	598.175
395.234	18.205	786.460	598.266
396.248	19.580	787.922	604.140
397.263	20.916	788.779	609.417
398.278	20.807	788.276	608.594
399.292	20.649	787.355	607.279
400.307	20.745	786.664	607.025
401.321	20.789	786.317	606.859
402.336	21.088	786.439	607.942
403.350	21.477	786.241	609.090
404.365	21.473	786.298	609.065
405.380	21.743	785.781	609.550
406.394	21.751	784.997	608.915
407.409	21.495	784.421	607.527
408.423	21.598	783.907	607.432
409.438	21.689	783.771	607.590
410.453	21.688	783.250	607.126
411.467	21.787	782.858	607.111
412.482	21.779	781.962	606.334
413.496	21.730	781.883	606.052
414.511	21.830	781.456	606.014
415.526	21.710	781.434	605.528
416.540	21.557	780.453	604.187
417.555	21.305	779.782	602.742
418.569	21.570	779.112	603.086
419.584	21.508	778.737	602.528
420.599	21.123	778.310	600.820
421.613	158.347	1361.398	1796.523
422.628	136.808	1446.368	1796.587
