DTS Sentinel unit serial number:	SN413079Multiplexer serial number:	ORYXHardware model number:	OX4-SRSoftware version number:	ORYX F/W v4.00 Oryx Data Collector v3.7.2.0data status	okinstallation	princeton_trtdifferential loss correction	single-endedforward channel	channel 1reverse channel	N/Adate	2019/09/17time	16:42:35forward acquisition time	60.00reverse acquisition time	0.00gamma	496.2192k internal	0.2292k external	0.2292temperature offset calibration	0.9956default loss term (dB/km)	0.3790temperature slope calibration	1.0000multiplexer offset coefficient	1.0000multiplexer slope coefficient	1.0000fibre end	0.00T internal ref (°C)	42.05T ext. ref 1 (°C)	0.35T ext. ref 2 (°C)	38.64length (m)	temperature (°C)	Stokes	anti-Stokes-747.200	87.446	0.122	0.138
-746.185	467.042	0.136	0.312
-745.171	-84.628	-0.198	-0.064
-744.156	31.290	-0.193	0.169
-743.142	-117.423	-0.301	-0.056
-742.127	266.330	-0.187	0.335
-741.112	-200.000	0.003	0.140
-740.098	-200.000	0.010	0.063
-739.083	-142.261	-0.138	0.014
-738.069	800.000	-0.069	0.240
-737.054	-2.864	0.353	-0.253
-736.039	-200.000	0.006	-0.143
-735.025	-21.535	-0.107	-0.067
-734.010	-115.387	-0.378	-0.073
-732.996	-2.306	-0.152	-0.109
-731.981	-57.823	-0.195	0.087
-730.966	-200.000	0.053	0.272
-729.952	-173.489	-0.023	-0.001
-728.937	-200.000	0.023	-0.230
-727.923	800.000	0.045	-0.138
-726.908	-23.283	-0.098	0.060
-725.894	-101.048	-0.222	0.056
-724.879	30.505	0.125	-0.110
-723.864	-139.864	0.034	-0.004
-722.850	-90.231	0.221	0.066
-721.835	-69.564	-0.232	0.091
-720.821	42.995	-0.176	0.164
-719.806	-103.951	0.103	-0.024
-718.791	-200.000	0.052	-0.505
-717.777	-200.000	0.007	0.111
-716.762	-4.475	0.140	0.099
-715.748	800.000	-0.048	-0.162
-714.733	-6.011	-0.050	0.035
-713.718	130.725	0.169	0.222
-712.704	-25.446	0.212	0.128
-711.689	-92.910	-0.436	0.125
-710.675	95.467	-0.384	-0.447
-709.660	800.000	0.066	-0.202
-708.645	-200.000	0.004	-0.118
-707.631	800.000	-0.039	0.156
-706.616	-39.488	-0.230	0.123
-705.602	-101.860	0.240	0.059
-704.587	225.440	0.055	0.091
-703.572	163.513	-0.116	-0.167
-702.558	118.050	-0.205	0.258
-701.543	292.655	-0.106	-0.198
-700.529	-200.000	0.010	0.051
-699.514	163.389	-0.155	0.222
-698.499	-171.839	-0.298	-0.010
-697.485	40.632	0.159	-0.146
-696.470	-200.000	0.027	-0.237
-695.456	-200.000	0.008	0.146
-694.441	-43.628	0.176	-0.091
-693.426	-197.629	-0.077	0.000
-692.412	-200.000	-0.007	0.519
-691.397	-3.207	-0.140	-0.099
-690.383	-57.306	-0.051	-0.023
-689.368	-105.227	-0.159	-0.037
-688.354	334.023	-0.019	-0.038
-687.339	79.075	-0.368	-0.402
-686.324	71.583	-0.071	-0.075
-685.310	246.274	0.092	0.158
-684.295	-52.157	-0.096	0.046
-683.281	800.000	0.131	-0.380
-682.266	-200.000	-0.024	0.359
-681.251	-200.000	-0.020	0.118
-680.237	-51.137	-0.132	-0.063
-679.222	-147.293	-0.142	-0.012
-678.208	800.000	0.018	0.068
-677.193	-86.060	-0.167	0.053
-676.178	-169.540	-0.239	-0.009
-675.164	251.767	0.132	0.230
-674.149	-164.345	-0.245	0.011
-673.135	-82.997	-0.222	-0.073
-672.120	800.000	-0.090	-0.290
-671.105	-159.566	0.164	-0.009
-670.091	-30.719	-0.222	-0.128
-669.076	-172.478	-0.178	-0.006
-668.062	-200.000	-0.041	-0.256
-667.047	-62.981	0.162	-0.068
-666.032	-200.000	0.070	-0.378
-665.018	581.727	0.110	-0.275
-664.003	800.000	-0.015	-0.057
-662.989	43.681	-0.164	0.153
-661.974	701.706	0.030	0.080
-660.959	-85.364	0.287	0.091
-659.945	-31.689	-0.447	-0.256
-658.930	300.180	-0.153	-0.288
-657.916	92.449	-0.161	0.185
-656.901	419.233	-0.065	-0.141
-655.886	166.109	-0.195	0.281
-654.872	192.957	0.184	0.283
-653.857	-31.642	-0.222	-0.127
-652.843	800.000	-0.043	-0.192
-651.828	56.100	-0.180	-0.178
-650.814	470.836	0.043	-0.100
-649.799	66.748	0.306	-0.318
-648.784	42.751	-0.281	-0.261
-647.770	-200.000	-0.010	0.206
-646.755	-96.371	0.149	0.040
-645.741	178.700	-0.147	-0.220
-644.726	-99.896	0.121	0.031
-643.711	-200.000	0.072	-0.331
-642.697	-111.082	0.361	-0.075
-641.682	333.338	0.071	0.140
-640.668	-46.596	-0.025	-0.013
-639.653	800.000	-0.078	0.248
-638.638	-200.000	-0.033	-0.190
-637.624	56.721	-0.289	0.287
-636.609	800.000	-0.027	0.082
-635.595	68.363	0.241	0.252
-634.580	85.336	-0.110	0.123
-633.565	-127.117	0.138	0.021
-632.551	-185.266	-0.092	-0.001
-631.536	-165.807	-0.268	0.012
-630.522	-149.084	0.143	-0.012
-629.507	36.873	-0.024	-0.022
-628.492	46.300	-0.229	-0.217
-627.478	-7.905	-0.339	-0.233
-626.463	19.478	-0.125	0.102
-625.449	-200.000	-0.000	-0.007
-624.434	-145.446	0.260	0.024
-623.419	119.030	-0.171	-0.216
-622.405	-40.465	-0.064	-0.034
-621.390	297.810	-0.037	-0.070
-620.376	-200.000	0.006	0.069
-619.361	-77.859	-0.140	-0.049
-618.346	249.655	0.121	-0.208
-617.332	800.000	-0.048	-0.165
-616.317	28.927	-0.098	0.085
-615.303	400.776	-0.035	-0.074
-614.288	-96.224	0.282	-0.076
-613.273	-136.718	-0.072	-0.008
-612.259	201.963	-0.062	-0.098
-611.244	-200.000	0.009	-0.286
-610.230	230.875	0.119	0.199
-609.215	432.632	-0.036	-0.080
-608.201	66.895	-0.225	0.233
-607.186	201.826	-0.142	0.224
-606.171	39.364	-0.141	-0.128
-605.157	583.258	0.059	-0.147
-604.142	-200.000	0.006	0.086
-603.128	162.235	-0.130	-0.186
-602.113	158.291	0.062	0.088
-601.098	800.000	-0.007	-0.027
-600.084	270.452	0.011	0.020
-599.069	586.118	-0.066	-0.164
-598.055	-200.000	0.018	0.193
-597.040	-171.430	-0.285	0.010
-596.025	163.086	-0.172	-0.246
-595.011	342.010	-0.107	0.213
-593.996	-65.082	-0.429	-0.176
-592.982	-67.729	-0.197	0.078
-591.967	-123.838	0.213	0.034
-590.952	251.766	-0.063	-0.110
-589.938	211.629	-0.090	-0.145
-588.923	-200.000	0.001	-0.056
-587.909	-60.259	-0.243	-0.105
-586.894	22.021	-0.366	0.303
-585.879	800.000	0.016	0.053
-584.865	-44.741	-0.156	0.079
-583.850	26.833	0.324	-0.276
-582.836	-153.158	-0.252	-0.018
-581.821	800.000	-0.042	0.150
-580.806	-51.936	-0.233	0.110
-579.792	-81.866	0.147	-0.049
-578.777	-22.281	0.260	0.160
-577.763	235.974	-0.058	0.097
-576.748	-54.219	-0.156	0.072
-575.733	-165.376	-0.061	0.003
-574.719	-200.000	0.083	-0.414
-573.704	-200.000	-0.054	0.263
-572.690	495.433	0.023	-0.055
-571.675	60.596	0.203	0.205
-570.661	214.238	-0.095	0.153
-569.646	174.336	-0.169	-0.248
-568.631	-108.341	0.287	0.063
-567.617	150.397	-0.099	-0.137
-566.602	-42.729	0.249	-0.129
-565.588	78.166	0.217	0.236
-564.573	214.443	0.223	-0.359
-563.558	303.165	-0.078	0.147
-562.544	-86.439	0.307	0.096
-561.529	693.762	-0.025	0.068
-560.515	44.428	-0.156	-0.146
-559.500	255.273	-0.081	0.142
-558.485	-38.631	-0.115	-0.062
-557.471	-82.494	0.059	-0.020
-556.456	35.603	-0.082	-0.073
-555.442	800.000	-0.089	-0.309
-554.427	-115.910	-0.135	-0.026
-553.412	0.142	-0.150	-0.109
-552.398	-4.688	0.239	-0.168
-551.383	-159.760	-0.358	-0.020
-550.369	232.105	0.038	0.063
-549.354	180.852	-0.094	0.140
-548.339	209.183	-0.076	-0.121
-547.325	800.000	0.024	-0.091
-546.310	-159.720	0.347	0.019
-545.296	-92.494	-0.226	0.065
-544.281	-200.000	0.016	-0.100
-543.266	-38.866	-0.143	-0.077
-542.252	20.641	0.146	0.120
-541.237	800.000	-0.118	-0.348
-540.223	-200.000	-0.018	0.374
-539.208	217.567	0.071	-0.115
-538.193	365.570	0.143	0.293
-537.179	763.721	-0.021	-0.059
-536.164	108.337	-0.122	0.147
-535.150	-20.447	0.084	0.053
-534.135	-200.000	-0.006	0.094
-533.121	-48.922	0.302	0.147
-532.106	-57.158	0.074	-0.033
-531.091	284.927	-0.067	0.123
-530.077	800.000	-0.021	0.061
-529.062	-200.000	0.014	0.210
-528.048	-91.518	0.217	0.063
-527.033	128.806	0.131	0.169
-526.018	304.383	0.108	0.203
-525.004	55.479	0.023	-0.022
-523.989	-200.000	-0.037	-0.184
-522.975	-168.728	-0.133	0.005
-521.960	4.854	0.019	-0.014
-520.945	113.060	-0.082	0.101
-519.931	800.000	-0.035	-0.151
-518.916	-180.463	0.203	-0.004
-517.902	-90.568	-0.178	0.052
-516.887	-61.424	-0.237	0.101
-515.872	800.000	-0.166	-0.650
-514.858	57.824	0.122	0.122
-513.843	64.337	-0.220	0.225
-512.829	-90.349	-0.350	-0.103
-511.814	800.000	0.037	-0.141
-510.799	800.000	0.060	0.170
-509.785	24.318	0.172	0.145
-508.770	-66.009	-0.255	0.103
-507.756	800.000	0.112	-0.437
-506.741	18.045	-0.150	-0.121
-505.726	93.602	-0.137	0.157
-504.712	263.170	0.188	-0.331
-503.697	-200.000	0.004	0.171
-502.683	179.353	0.267	-0.395
-501.668	-200.000	-0.051	-0.231
-500.653	-200.000	-0.029	0.236
-499.639	-75.497	-0.229	0.083
-498.624	800.000	-0.068	-0.198
-497.610	-131.912	0.164	-0.022
-496.595	-177.910	-0.464	-0.011
-495.581	353.580	-0.084	-0.169
-494.566	-45.450	0.185	-0.093
-493.551	-8.303	-0.167	-0.114
-492.537	-19.220	-0.322	-0.203
-491.522	-39.519	-0.122	-0.065
-490.508	162.669	0.054	-0.077
-489.493	24.954	0.113	0.095
-488.478	-34.553	0.278	-0.154
-487.464	264.865	-0.101	-0.178
-486.449	12.387	0.146	0.114
-485.435	-112.452	0.038	0.008
-484.420	-142.890	0.301	0.030
-483.405	800.000	-0.081	0.247
-482.391	-159.640	0.181	0.010
-481.376	59.115	0.197	-0.196
-480.362	-39.420	0.412	-0.219
-479.347	222.271	-0.051	-0.083
-478.332	767.723	0.102	-0.282
-477.318	-200.000	-0.037	0.324
-476.303	-132.802	0.195	-0.025
-475.289	-29.205	0.270	-0.157
-474.274	19.219	0.336	0.273
-473.259	156.601	-0.152	-0.213
-472.245	7.670	-0.158	0.120
-471.230	-26.662	0.226	0.134
-470.216	-48.002	-0.159	-0.078
-469.201	-200.000	-0.044	-0.416
-468.186	-26.970	-0.240	-0.142
-467.172	-49.116	0.066	-0.032
-466.157	-200.000	0.033	-0.311
-465.143	-147.601	0.124	-0.011
-464.128	-200.000	0.027	-0.271
-463.113	604.847	0.130	0.327
-462.099	333.216	0.123	0.240
-461.084	-30.644	-0.256	0.147
-460.070	264.734	-0.097	-0.171
-459.055	-200.000	0.049	-0.522
-458.040	-48.347	0.225	-0.110
-457.026	604.439	0.046	-0.117
-456.011	110.851	0.092	0.112
-454.997	323.161	-0.230	-0.443
-453.982	55.136	-0.209	-0.204
-452.968	-46.933	-0.067	0.033
-451.953	-11.105	0.330	0.220
-450.938	-55.319	0.301	-0.137
-449.924	-7.605	0.282	0.193
-448.909	266.274	-0.133	0.235
-447.895	-200.000	0.018	0.506
-446.880	-200.000	-0.016	-0.216
-445.865	-16.868	-0.243	-0.156
-444.851	-2.462	0.159	-0.112
-443.836	-200.000	-0.014	0.282
-442.822	-25.712	-0.369	-0.220
-441.807	2.972	-0.055	-0.041
-440.792	483.360	0.090	0.207
-439.778	-123.469	-0.188	0.030
-438.763	472.816	0.019	0.043
-437.749	251.105	-0.089	0.154
-436.734	-91.984	-0.086	-0.025
-435.719	714.378	-0.036	0.097
-434.705	-177.323	-0.042	0.001
-433.690	-114.083	-0.085	0.017
-432.676	46.217	0.082	-0.077
-431.661	-200.000	-0.015	-0.255
-430.646	800.000	0.048	0.188
-429.632	-114.132	0.051	-0.010
-428.617	28.662	0.194	0.166
-427.603	-200.000	0.046	0.204
-426.588	800.000	0.038	-0.127
-425.573	133.302	0.081	-0.105
-424.559	-48.743	-0.273	-0.132
-423.544	162.120	0.130	0.185
-422.530	-200.000	0.034	0.180
-421.515	-200.000	-0.003	-0.220
-420.500	16.201	0.107	0.085
-419.486	-150.270	-0.140	-0.011
-418.471	213.953	0.164	0.262
-417.457	800.000	0.103	-0.322
-416.442	-77.560	0.246	-0.086
-415.428	-86.551	-0.247	0.077
-414.413	-200.000	0.005	0.222
-413.398	92.991	-0.083	0.094
-412.384	139.224	0.215	-0.286
-411.369	72.171	-0.078	-0.082
-410.355	-96.499	-0.055	-0.015
-409.340	34.260	-0.034	-0.030
-408.325	-81.744	-0.283	0.094
-407.311	402.788	0.140	-0.297
-406.296	-4.198	-0.203	0.142
-405.282	-200.000	0.017	0.102
-404.267	313.474	0.097	0.185
-403.252	47.957	0.182	0.172
-402.238	-200.000	0.004	0.116
-401.223	-74.126	0.364	-0.133
-400.209	-125.109	0.319	-0.049
-399.194	315.866	-0.151	0.287
-398.179	-93.217	0.070	0.020
-397.165	12.882	-0.087	-0.068
-396.150	-17.172	-0.058	-0.037
-395.136	-58.192	0.083	-0.036
-394.121	62.748	-0.228	0.230
-393.106	-168.792	-0.112	-0.004
-392.092	-85.976	-0.112	0.035
-391.077	-38.819	0.067	-0.036
-390.063	21.737	0.128	-0.105
-389.048	-200.000	0.040	-0.293
-388.033	-200.000	0.014	-0.112
-387.019	-123.208	-0.206	-0.033
-386.004	204.924	-0.082	-0.128
-384.990	-108.110	0.072	-0.016
-383.975	126.008	-0.214	-0.273
-382.960	78.926	-0.197	-0.212
-381.946	-118.168	-0.312	0.056
-380.931	567.872	-0.117	0.287
-379.917	207.538	0.170	-0.267
-378.902	800.000	0.132	-0.390
-377.888	109.410	0.078	-0.095
-376.873	299.898	0.086	-0.160
-375.858	80.464	-0.106	0.116
-374.844	800.000	-0.063	0.240
-373.829	-99.724	-0.130	-0.033
-372.815	636.642	0.141	-0.360
-371.800	-82.426	0.273	-0.090
-370.785	-200.000	-0.039	0.205
-369.771	-78.169	0.132	0.046
-368.756	-40.260	0.150	0.079
-367.742	337.500	-0.061	-0.120
-366.727	160.565	-0.100	0.141
-365.712	273.689	-0.091	0.163
-364.698	-153.195	-0.062	0.004
-363.683	249.288	-0.147	0.251
-362.669	10.742	0.133	-0.102
-361.654	-162.163	0.203	0.010
-360.639	-18.821	-0.143	0.090
-359.625	172.822	-0.048	-0.070
-358.610	800.000	-0.050	0.174
-357.596	-200.000	0.048	-0.258
-356.581	-45.914	0.353	0.176
-355.566	443.976	0.131	0.289
-354.552	-180.691	-0.135	-0.003
-353.537	800.000	0.064	0.232
-352.523	-132.300	-0.245	-0.032
-351.508	14.633	0.246	0.194
-350.493	-89.702	0.433	-0.128
-349.479	246.986	-0.157	-0.266
-348.464	-68.224	0.081	0.032
-347.450	210.221	-0.271	-0.429
-346.435	79.103	-0.081	-0.087
-345.420	143.900	-0.135	-0.182
-344.406	-117.208	0.268	0.049
-343.391	47.939	-0.043	-0.041
-342.377	19.242	-0.064	0.052
-341.362	157.711	0.044	0.061
-340.348	124.041	0.132	-0.167
-339.333	-56.302	-0.176	-0.079
-338.318	-28.673	0.220	0.128
-337.304	81.099	0.197	0.214
-336.289	295.917	-0.070	0.129
-335.275	-99.733	-0.384	-0.097
-334.260	-133.976	-0.159	0.020
-333.245	-74.788	0.192	0.070
-332.231	800.000	-0.073	0.231
-331.216	-22.272	-0.076	0.046
-330.202	-124.561	-0.274	0.043
-329.187	-114.113	-0.098	-0.019
-328.172	66.060	-0.253	-0.259
-327.158	800.000	0.022	0.067
-326.143	-51.370	-0.192	-0.090
-325.129	-9.803	-0.350	0.234
-324.114	140.307	-0.171	0.227
-323.099	-90.198	-0.152	0.044
-322.085	-200.000	-0.027	-0.389
-321.070	-200.000	0.004	-0.269
-320.056	-49.072	-0.155	0.074
-319.041	800.000	-0.065	0.182
-318.026	-200.000	0.006	-0.178
-317.012	15.691	0.041	0.032
-315.997	-200.000	0.024	0.115
-314.983	40.009	0.123	-0.111
-313.968	-200.000	-0.010	0.250
-312.953	140.652	-0.114	-0.151
-311.939	-60.226	-0.124	-0.053
-310.924	-200.000	-0.054	0.402
-309.910	73.442	0.031	-0.033
-308.895	-137.004	0.384	0.044
-307.880	-182.959	-0.151	0.003
-306.866	665.046	0.020	0.052
-305.851	-200.000	-0.029	-0.344
-304.837	-113.630	-0.185	0.036
-303.822	49.835	0.110	0.104
-302.807	432.692	-0.124	0.270
-301.793	3.284	-0.233	0.171
-300.778	800.000	-0.090	0.268
-299.764	-70.373	0.215	-0.082
-298.749	-110.185	-0.103	0.022
-297.735	-200.000	-0.034	0.254
-296.720	-200.000	0.018	0.128
-295.705	-10.474	0.178	0.119
-294.691	311.437	-0.085	0.159
-293.676	-111.513	0.411	-0.084
-292.662	800.000	-0.027	-0.111
-291.647	800.000	0.055	0.196
-290.632	-200.000	-0.025	-0.278
-289.618	167.672	0.221	-0.316
-288.603	-99.800	-0.109	-0.027
-287.589	-89.658	0.157	-0.046
-286.574	-86.393	0.112	0.035
-285.559	281.391	-0.146	0.264
-284.545	408.804	0.038	0.082
-283.530	786.481	-0.077	-0.211
-282.516	118.409	0.149	-0.185
-281.501	224.946	-0.130	0.212
-280.486	-200.000	-0.035	0.307
-279.472	-4.579	0.166	-0.116
-278.457	800.000	0.034	-0.117
-277.443	311.262	-0.077	0.144
-276.428	6.119	-0.104	-0.078
-275.413	-125.348	0.458	-0.070
-274.399	-200.000	0.046	0.355
-273.384	-56.193	0.079	-0.035
-272.370	-61.314	0.045	0.019
-271.355	-45.374	-0.332	-0.165
-270.340	800.000	-0.032	-0.090
-269.326	190.489	0.047	-0.071
-268.311	500.484	0.047	0.109
-267.297	156.081	0.093	0.129
-266.282	172.477	-0.111	-0.160
-265.267	-173.770	0.083	-0.002
-264.253	-71.964	0.117	0.044
-263.238	-200.000	-0.029	-0.269
-262.224	-122.263	0.147	0.024
-261.209	292.104	-0.047	-0.087
-260.195	-82.322	0.232	0.076
-259.180	-9.510	-0.217	0.145
-258.165	90.488	-0.277	-0.312
-257.151	-200.000	-0.032	0.164
-256.136	-200.000	-0.044	-0.391
-255.122	34.472	-0.261	-0.229
-254.107	203.030	-0.106	-0.164
-253.092	213.234	0.104	-0.166
-252.078	800.000	0.074	0.218
-251.063	75.817	0.293	0.311
-250.049	800.000	0.066	0.216
-249.034	198.557	-0.125	0.191
-248.019	260.990	-0.224	0.390
-247.005	-200.000	-0.007	0.077
-245.990	294.997	-0.100	-0.184
-244.976	46.892	-0.129	0.121
-243.961	171.443	-0.090	0.130
-242.946	6.196	-0.266	0.198
-241.932	800.000	-0.056	-0.229
-240.917	-200.000	-0.013	0.213
-239.903	-64.552	0.124	-0.050
-238.888	-66.026	-0.180	-0.072
-237.873	-200.000	0.064	-0.285
-236.859	-129.653	0.122	-0.017
-235.844	167.762	0.144	0.205
-234.830	-157.452	0.205	0.012
-233.815	128.619	0.063	0.081
-232.800	-200.000	0.028	-0.357
-231.786	-139.589	-0.214	0.023
-230.771	-28.584	0.089	0.051
-229.757	-166.227	0.403	0.017
-228.742	93.757	-0.183	-0.208
-227.727	-32.382	-0.128	-0.072
-226.713	-135.511	-0.122	0.015
-225.698	-115.441	0.064	0.012
-224.684	800.000	0.036	-0.136
-223.669	-113.018	0.282	-0.056
-222.655	-148.355	-0.181	0.015
-221.640	-111.618	0.356	-0.072
-220.625	-56.071	-0.036	0.016
-219.611	800.000	0.021	0.061
-218.596	-102.364	-0.142	-0.034
-217.582	-96.758	-0.266	-0.070
-216.567	-121.791	-0.225	0.037
-215.552	328.817	-0.085	0.164
-214.538	-200.000	0.035	-0.175
-213.523	-129.523	0.151	-0.021
-212.509	-133.697	0.096	0.012
-211.494	-28.010	0.141	0.082
-210.479	-96.683	0.039	-0.010
-209.465	-200.000	0.032	0.156
-208.450	125.148	0.093	0.117
-207.436	-104.011	0.100	-0.023
-206.421	-200.000	-0.004	0.282
-205.406	800.000	-0.091	0.393
-204.392	800.000	0.187	0.626
-203.377	200.253	0.195	0.300
-202.363	-43.555	-0.168	-0.085
-201.348	-108.270	0.266	-0.058
-200.333	472.162	0.060	-0.136
-199.319	-35.246	-0.274	0.149
-198.304	285.426	-0.107	-0.192
-197.290	420.010	-0.102	-0.219
-196.275	74.024	0.195	-0.205
-195.260	-129.968	0.029	0.004
-194.246	120.424	0.170	0.212
-193.231	5.340	-0.160	-0.119
-192.217	323.815	-0.121	-0.232
-191.202	-49.465	0.237	-0.113
-190.187	-64.958	-0.234	-0.095
-189.173	-3.055	0.243	0.170
-188.158	-68.278	0.194	-0.076
-187.144	-200.000	-0.018	0.354
-186.129	68.855	0.057	0.058
-185.114	-86.912	0.344	-0.105
-184.100	-43.187	-0.271	0.138
-183.085	14.761	0.208	0.163
-182.071	74.258	0.080	0.084
-181.056	387.440	0.113	-0.233
-180.042	220.376	0.209	0.335
-179.027	-97.927	0.239	-0.062
-178.012	397.524	0.059	-0.123
-176.998	800.000	0.101	-0.325
-175.983	-19.833	-0.160	0.099
-174.969	274.512	-0.256	0.454
-173.954	-200.000	0.051	0.256
-172.939	53.404	0.059	0.056
-171.925	569.439	0.081	-0.198
-170.910	-85.247	0.142	-0.044
-169.896	247.797	-0.153	0.258
-168.881	39.071	0.082	0.073
-167.866	201.856	0.080	0.124
-166.852	391.199	-0.184	0.382
-165.837	140.003	0.158	0.208
-164.823	204.736	0.130	0.201
-163.808	-200.000	-0.022	0.238
-162.793	-117.528	0.224	0.040
-161.779	354.965	0.088	-0.174
-160.764	6.418	0.101	-0.075
-159.750	800.000	0.088	0.290
-158.735	158.244	-0.194	0.269
-157.720	800.000	0.026	0.095
-156.706	61.589	0.062	0.061
-155.691	-78.130	0.196	-0.068
-154.677	300.042	0.087	-0.160
-153.662	-0.955	0.194	-0.137
-152.647	33.686	0.083	-0.072
-151.633	113.536	-0.155	-0.189
-150.618	151.469	-0.102	0.139
-149.604	155.294	0.104	0.143
-148.589	136.745	0.151	0.197
-147.574	157.462	-0.067	-0.093
-146.560	29.203	-0.177	0.150
-145.545	49.807	-0.043	-0.041
-144.531	-109.432	0.298	-0.063
-143.516	-81.672	0.231	-0.076
-142.502	800.000	-0.032	0.089
-141.487	15.055	0.168	0.132
-140.472	91.154	-0.097	-0.109
-139.458	338.606	-0.095	-0.185
-138.443	31.139	-0.039	-0.033
-137.429	65.256	-0.121	0.122
-136.414	-37.021	-0.130	-0.069
-135.399	534.188	0.093	-0.220
-134.385	800.000	0.027	0.093
-133.370	-107.518	-0.311	-0.068
-132.356	386.412	-0.138	-0.284
-131.341	700.595	-0.077	-0.202
-130.326	195.296	0.021	0.032
-129.312	2.755	0.101	-0.073
-128.297	-200.000	0.083	0.400
-127.283	-200.000	0.002	0.036
-126.268	374.542	0.090	-0.183
-125.253	421.241	0.071	0.153
-124.239	-109.726	0.067	-0.014
-123.224	261.497	0.047	-0.082
-122.210	80.154	0.032	-0.034
-121.195	303.715	0.085	-0.158
-120.180	-194.548	-0.468	0.004
-119.166	44.117	-0.074	-0.068
-118.151	202.582	-0.171	0.264
-117.137	189.268	-0.148	0.221
-116.122	259.346	-0.041	-0.070
-115.107	-138.191	-0.167	-0.019
-114.093	-19.327	0.160	-0.099
-113.078	-200.000	-0.009	-0.164
-112.064	19.332	-0.291	0.233
-111.049	187.057	0.037	-0.056
-110.034	-200.000	0.017	-0.252
-109.020	-200.000	-0.005	0.094
-108.005	-53.304	0.025	-0.011
-106.991	361.961	-0.065	0.130
-105.976	182.711	0.117	-0.173
-104.962	-35.639	-0.141	-0.077
-103.947	-102.355	-0.315	0.075
-102.932	-161.075	0.625	-0.033
-101.918	216.165	-0.180	0.285
-100.903	200.779	-0.165	0.254
-99.889	800.000	0.058	0.164
-98.874	800.000	-0.019	0.074
-97.859	-42.788	0.469	0.238
-96.845	-97.685	0.197	-0.051
-95.830	-200.000	-0.028	0.161
-94.816	-200.000	-0.007	0.277
-93.801	-101.566	0.217	0.053
-92.786	-92.618	0.164	0.046
-91.772	-39.534	0.102	0.053
-90.757	281.184	0.093	0.166
-89.743	800.000	0.049	-0.143
-88.728	-200.000	0.010	-0.062
-87.713	-139.203	0.106	0.011
-86.699	-108.681	0.196	0.042
-85.684	800.000	-0.021	0.065
-84.670	-43.557	0.286	-0.144
-83.655	800.000	-0.022	0.084
-82.640	729.504	-0.074	0.197
-81.626	261.553	0.128	-0.220
-80.611	-118.760	0.072	0.013
-79.597	-44.242	0.141	0.070
-78.582	-16.334	-0.157	0.099
-77.567	-200.000	0.044	0.281
-76.553	451.145	-0.069	0.152
-75.538	-162.587	-0.163	-0.008
-74.524	70.904	0.119	-0.123
-73.509	-100.169	-0.075	0.019
-72.494	107.609	0.092	-0.109
-71.480	322.698	0.123	0.233
-70.465	-137.447	-0.285	0.032
-69.451	-54.127	-0.308	-0.140
-68.436	-59.847	-0.161	-0.069
-67.422	800.000	-0.029	0.113
-66.407	-200.000	-0.042	0.199
-65.392	-43.803	0.245	0.123
-64.378	-200.000	0.007	-0.064
-63.363	9.185	-0.280	-0.211
-62.349	155.797	0.097	-0.133
-61.334	-37.818	-0.754	-0.400
-60.319	800.000	0.196	0.548
-59.305	555.808	-0.268	-0.643
-58.290	413.725	0.317	0.672
-57.276	800.000	0.613	2.052
-56.261	-200.000	76.568	549.427
-55.246	508.071	1363.523	3153.899
-54.232	135.024	2617.836	3388.388
-53.217	117.737	2264.623	2777.667
-52.203	54.623	1688.002	1621.364
-51.188	45.874	1403.978	1293.656
-50.173	42.303	1356.302	1227.868
-49.159	60.648	1391.033	1372.970
-48.144	68.594	1409.624	1440.194
-47.130	46.531	1371.727	1267.786
-46.115	42.188	1355.920	1226.624
-45.100	41.983	1350.585	1220.500
-44.086	41.801	1348.841	1217.762
-43.071	41.983	1345.789	1216.067
-42.057	41.894	1343.614	1213.512
-41.042	41.877	1341.372	1211.336
-40.027	41.971	1340.203	1210.801
-39.013	41.940	1338.182	1208.742
-37.998	41.989	1336.142	1207.144
-36.984	42.080	1334.288	1205.972
-35.969	42.138	1332.673	1204.814
-34.954	42.082	1331.222	1203.118
-33.940	42.208	1329.397	1202.179
-32.925	42.124	1327.962	1200.328
-31.911	42.122	1326.154	1198.633
-30.896	42.145	1324.493	1197.219
-29.881	42.167	1323.094	1196.039
-28.867	42.293	1320.758	1194.634
-27.852	42.101	1320.044	1192.794
-26.838	42.126	1318.248	1191.275
-25.823	42.163	1317.061	1190.373
-24.809	42.074	1315.776	1188.637
-23.794	42.000	1314.534	1187.030
-22.779	42.096	1312.672	1185.867
-21.765	42.242	1311.258	1185.409
-20.750	42.183	1310.226	1184.078
-19.736	42.070	1308.790	1182.068
-18.721	42.055	1307.532	1180.796
-17.706	41.965	1306.877	1179.630
-16.692	42.054	1305.468	1178.834
-15.677	41.964	1304.525	1177.405
-14.663	41.994	1302.776	1175.955
-13.648	41.948	1302.179	1175.098
-12.633	41.890	1300.788	1173.457
-11.619	41.958	1299.532	1172.679
-10.604	41.998	1298.568	1171.996
-9.590	41.945	1297.880	1171.021
-8.575	41.868	1297.030	1169.756
-7.560	42.002	1295.801	1169.381
-6.546	41.868	1295.064	1167.890
-5.531	41.979	1294.103	1167.622
-4.517	41.994	1293.154	1166.806
-3.502	41.875	1292.620	1165.586
-2.487	42.010	1291.214	1165.060
-1.473	42.118	1287.690	1162.460
-0.458	41.396	1273.571	1145.523
0.556	36.040	1253.955	1103.964
1.571	30.626	1255.491	1074.054
2.586	28.052	1267.512	1069.207
3.600	25.983	1255.691	1047.144
4.615	18.585	1177.383	941.309
5.629	6.681	1092.833	812.658
6.644	0.854	1067.574	764.424
7.659	0.253	1065.125	759.576
8.673	0.119	1064.088	758.093
9.688	0.196	1062.606	757.356
10.702	0.329	1061.120	756.896
11.717	6.155	1069.497	792.230
12.731	15.274	1081.674	847.469
13.746	18.405	1084.015	865.063
14.761	17.204	1082.273	857.541
15.775	16.150	1080.121	850.447
16.790	15.086	1077.974	843.327
17.804	14.546	1075.694	838.754
18.819	14.028	1074.800	835.375
19.834	13.811	1073.791	833.429
20.848	13.483	1073.016	831.109
21.863	13.248	1072.452	829.418
22.877	13.032	1071.251	827.333
23.892	12.903	1070.891	826.338
24.907	13.103	1069.545	826.226
25.921	13.071	1069.070	825.627
26.936	13.057	1068.485	825.031
27.950	13.105	1067.356	824.328
28.965	13.144	1066.766	823.991
29.980	13.253	1064.749	822.904
30.994	13.241	1063.580	821.869
32.009	13.322	1063.073	821.806
33.023	13.270	1062.012	820.657
34.038	13.258	1060.673	819.487
35.053	13.209	1059.751	818.460
36.067	13.200	1059.116	817.855
37.082	13.320	1058.212	817.674
38.096	13.389	1057.454	817.358
39.111	13.269	1056.704	816.114
40.126	13.203	1055.723	814.958
41.140	13.090	1054.456	813.352
42.155	13.218	1053.073	812.841
43.169	12.975	1052.534	811.159
44.184	12.964	1051.341	810.117
45.199	13.111	1049.890	809.644
46.213	13.050	1049.214	808.755
47.228	13.127	1048.289	808.347
48.242	13.158	1047.053	807.472
49.257	13.103	1046.200	806.476
50.271	13.217	1044.870	805.936
51.286	13.137	1044.349	805.072
52.301	13.100	1043.356	804.057
53.315	13.085	1042.684	803.393
54.330	13.091	1041.628	802.540
55.344	13.068	1040.603	801.568
56.359	13.198	1039.463	801.247
57.374	13.037	1038.906	799.966
58.388	13.055	1038.136	799.392
59.403	13.030	1037.444	798.665
60.417	13.033	1036.539	797.915
61.432	12.983	1035.813	797.043
62.447	12.986	1035.111	796.448
63.461	13.088	1033.752	795.822
64.476	12.943	1032.782	794.305
65.490	12.973	1032.304	794.013
66.505	13.018	1031.261	793.355
67.520	13.050	1030.625	792.948
68.534	13.008	1030.025	792.216
69.549	12.972	1029.085	791.251
70.563	13.050	1028.000	790.721
71.578	13.098	1027.355	790.386
72.593	12.947	1026.746	789.123
73.607	12.915	1026.103	788.408
74.622	12.964	1025.543	788.142
75.636	12.865	1024.959	787.150
76.651	13.043	1023.368	786.706
77.666	13.038	1023.134	786.431
78.680	12.933	1022.626	785.473
79.695	12.959	1022.230	785.221
80.709	13.082	1020.830	784.665
81.724	12.933	1020.990	784.008
82.739	12.996	1019.935	783.425
83.753	13.137	1019.384	783.604
84.768	13.068	1018.340	782.405
85.782	13.311	1017.052	782.498
86.797	13.183	1016.360	781.287
87.812	13.158	1015.679	780.580
88.826	13.225	1014.421	779.861
89.841	13.045	1013.798	778.462
90.855	13.119	1013.135	778.234
91.870	13.339	1011.650	778.058
92.884	13.241	1010.763	776.846
93.899	13.265	1010.365	776.584
94.914	13.376	1009.188	776.133
95.928	13.282	1008.763	775.294
96.943	13.272	1007.848	774.479
97.957	13.368	1006.814	774.064
98.972	13.176	1006.189	772.616
99.987	13.234	1005.315	772.150
101.001	13.131	1004.602	771.050
102.016	13.151	1003.611	770.317
103.030	13.217	1002.617	769.791
104.045	13.329	1001.651	769.503
105.060	13.205	1001.362	768.639
106.074	13.295	1000.137	768.045
107.089	13.118	998.791	766.124
108.103	13.130	997.977	765.485
109.118	13.067	997.193	764.528
110.133	13.100	996.240	763.882
111.147	13.048	995.790	763.227
112.162	13.065	994.762	762.450
113.176	13.113	993.801	761.870
114.191	13.198	993.236	761.762
115.206	13.274	992.518	761.490
116.220	13.121	991.623	760.035
117.235	13.195	990.301	759.293
118.249	13.155	989.934	758.759
119.264	13.114	989.032	757.812
120.279	13.057	988.119	756.786
121.293	13.240	987.147	756.811
122.308	13.134	986.260	755.581
123.322	13.181	985.448	755.109
124.337	13.046	984.691	753.842
125.352	13.053	983.561	752.943
126.366	13.159	982.192	752.312
127.381	13.151	981.124	751.392
128.395	13.220	980.358	751.053
129.410	13.167	979.804	750.318
130.424	13.301	978.648	749.978
131.439	13.254	978.025	749.220
132.454	13.150	977.685	748.421
133.468	13.299	976.113	747.826
134.483	13.293	975.628	747.361
135.497	13.286	974.724	746.571
136.512	13.303	973.840	745.902
137.527	13.353	973.465	745.775
138.541	13.412	972.485	745.227
139.556	13.309	971.677	744.077
140.570	13.436	971.013	744.073
141.585	13.578	969.963	743.840
142.600	13.567	969.030	743.009
143.614	13.404	968.454	741.772
144.629	13.536	967.917	741.884
145.643	13.451	966.975	740.716
146.658	13.455	965.458	739.509
147.673	13.410	964.597	738.583
148.687	13.329	963.895	737.618
149.702	13.379	963.105	737.171
150.716	13.402	962.482	736.730
151.731	13.414	961.756	736.164
152.746	13.324	961.078	735.183
153.760	13.338	960.255	734.549
154.775	13.518	959.857	734.976
155.789	13.441	959.429	734.244
156.804	13.515	958.524	733.812
157.819	13.481	957.706	732.973
158.833	13.582	957.054	732.854
159.848	13.584	956.002	731.996
160.862	13.591	955.385	731.488
161.877	13.365	954.610	729.832
162.892	13.264	953.546	728.510
163.906	13.447	952.389	728.367
164.921	13.443	951.470	727.583
165.935	13.477	950.420	726.863
166.950	13.523	950.015	726.691
167.964	13.527	949.023	725.885
168.979	13.451	948.326	724.956
169.994	13.475	947.394	724.284
171.008	13.563	946.606	724.001
172.023	13.463	946.005	723.040
173.037	13.607	945.073	722.892
174.052	13.707	944.219	722.611
175.067	13.570	943.718	721.568
176.081	13.554	943.254	721.077
177.096	13.588	942.802	720.818
178.110	13.569	942.212	720.222
179.125	13.541	941.594	719.562
180.140	13.521	941.335	719.214
181.154	13.671	940.457	719.131
182.169	13.660	940.075	718.727
183.183	13.664	939.379	718.148
184.198	13.765	938.443	717.807
185.213	13.721	937.424	716.774
186.227	13.821	937.285	717.034
187.242	13.822	936.557	716.419
188.256	13.757	936.015	715.662
189.271	13.607	935.429	714.505
190.286	13.667	934.250	713.799
191.300	13.553	933.501	712.672
192.315	13.643	932.826	712.482
193.329	13.588	932.278	711.761
194.344	13.617	932.236	711.792
195.359	13.647	931.176	711.051
196.373	13.789	930.619	711.171
197.388	13.877	929.881	710.920
198.402	13.913	929.243	710.524
199.417	14.013	928.748	710.510
200.432	14.032	928.081	710.018
201.446	14.019	927.961	709.806
202.461	14.114	927.215	709.580
203.475	14.009	926.886	708.816
204.490	13.973	925.992	707.916
205.504	13.974	925.281	707.313
206.519	13.971	924.556	706.685
207.534	14.084	923.582	706.356
208.548	14.028	922.995	705.607
209.563	13.948	922.365	704.725
210.577	14.006	921.728	704.422
211.592	14.104	920.945	704.175
212.607	14.167	920.468	704.017
213.621	14.113	919.457	702.952
214.636	14.159	919.187	702.880
215.650	14.124	918.317	702.004
216.665	14.248	917.398	701.762
217.680	14.225	916.883	701.210
218.694	14.291	916.052	700.788
219.709	14.232	915.423	699.999
220.723	14.258	914.922	699.659
221.738	14.219	914.261	698.929
222.753	14.307	913.758	698.852
223.767	14.185	913.403	698.008
224.782	14.269	912.436	697.561
225.796	14.402	911.687	697.483
226.811	14.350	911.249	696.867
227.826	14.411	910.522	696.502
228.840	14.432	909.825	695.998
229.855	14.411	908.891	695.132
230.869	14.443	907.913	694.456
231.884	14.360	907.736	693.915
232.899	14.285	907.110	693.063
233.913	14.305	906.182	692.374
234.928	14.283	905.612	691.787
235.942	14.356	905.202	691.714
236.957	14.540	904.572	691.939
237.972	14.215	904.128	690.187
238.986	14.449	903.206	690.394
240.001	14.488	902.670	690.085
241.015	14.453	902.354	689.636
242.030	14.484	901.576	689.110
243.045	14.367	901.163	688.250
244.059	14.531	900.051	688.015
245.074	14.616	899.328	687.753
246.088	14.609	898.875	687.316
247.103	14.571	897.913	686.364
248.117	14.588	897.780	686.269
249.132	14.584	897.511	685.989
250.147	14.637	896.630	685.470
251.161	14.716	895.853	685.142
252.176	14.762	894.750	684.424
253.190	14.703	894.543	683.965
254.205	14.795	893.928	683.808
255.220	14.921	892.737	683.354
256.234	14.817	892.437	682.637
257.249	14.729	892.045	681.918
258.263	14.777	891.287	681.476
259.278	14.915	890.224	681.164
260.293	14.839	889.880	680.530
261.307	15.014	889.131	680.612
262.322	15.024	888.715	680.273
263.336	15.063	887.671	679.570
264.351	15.194	886.782	679.362
265.366	15.126	886.468	678.787
266.380	15.128	885.776	678.204
267.395	15.112	885.221	677.656
268.409	15.089	884.222	676.736
269.424	15.124	883.436	676.215
270.439	15.092	883.045	675.728
271.453	15.096	882.043	674.918
272.468	14.988	881.792	674.231
273.482	15.115	881.081	674.140
274.497	15.069	880.711	673.611
275.512	15.114	880.093	673.258
276.526	15.132	879.977	673.182
277.541	15.205	878.903	672.597
278.555	15.121	878.385	671.801
279.570	15.294	878.056	672.186
280.585	15.470	877.005	672.026
281.599	15.127	876.379	670.115
282.614	15.228	875.720	669.954
283.628	15.293	874.968	669.579
284.643	15.321	874.212	669.052
285.657	15.281	873.622	668.385
286.672	15.325	873.114	668.110
287.687	15.251	872.500	667.286
288.701	15.334	872.141	667.282
289.716	15.363	871.677	666.984
290.730	15.415	870.859	666.506
291.745	15.416	870.029	665.816
292.760	15.500	869.356	665.577
293.774	15.411	868.875	664.795
294.789	15.467	868.217	664.457
295.803	15.597	867.323	664.228
296.818	15.325	867.303	663.078
297.833	15.380	866.867	662.903
298.847	15.382	866.055	662.231
299.862	15.528	865.453	662.286
300.876	15.588	864.498	661.734
301.891	15.550	863.926	661.089
302.906	15.574	863.294	660.640
303.920	15.711	863.007	660.900
304.935	15.715	862.409	660.401
305.949	15.814	861.253	659.844
306.964	15.654	861.183	659.106
307.979	15.734	860.448	658.796
308.993	15.801	859.944	658.616
310.008	15.625	859.443	657.487
311.022	15.795	858.743	657.556
312.037	15.702	858.213	656.729
313.052	15.690	857.592	656.147
314.066	15.678	857.208	655.750
315.081	15.682	856.279	654.999
316.095	15.685	856.236	654.917
317.110	15.752	855.023	654.191
318.125	15.754	854.586	653.807
319.139	15.823	854.022	653.586
320.154	15.840	853.696	653.347
321.168	15.812	853.418	652.968
322.183	15.818	853.047	652.648
323.197	15.899	852.276	652.315
324.212	15.795	851.831	651.513
325.227	15.973	850.917	651.445
326.241	15.821	850.820	650.726
327.256	15.857	849.627	649.894
328.270	15.874	849.031	649.446
329.285	15.799	848.685	648.835
330.300	15.754	848.382	648.373
331.314	15.862	848.031	648.464
332.329	15.977	847.036	648.088
333.343	15.908	847.213	647.901
334.358	16.053	846.599	647.932
335.373	15.925	846.081	646.986
336.387	15.972	845.755	646.858
337.402	15.968	845.708	646.750
338.416	16.046	845.305	646.685
339.431	16.140	844.625	646.468
340.446	16.002	844.507	645.793
341.460	16.069	844.103	645.679
342.475	16.263	842.855	645.410
343.489	16.163	843.021	645.098
344.504	16.110	842.561	644.488
345.519	16.259	841.879	644.478
346.533	16.271	841.173	643.926
347.548	16.259	841.202	643.845
348.562	16.196	840.727	643.186
349.577	16.218	839.787	642.494
350.592	16.126	839.406	641.793
351.606	16.071	838.919	641.155
352.621	16.303	837.709	641.054
353.635	16.206	837.210	640.250
354.650	16.206	836.686	639.793
355.665	16.252	836.299	639.614
356.679	16.236	835.266	638.707
357.694	16.366	834.517	638.567
358.708	16.352	834.210	638.223
359.723	16.387	833.573	637.811
360.738	16.391	832.814	637.191
361.752	16.395	832.501	636.911
362.767	16.464	831.981	636.714
363.781	16.475	831.110	636.033
364.796	16.635	830.853	636.384
365.810	16.649	830.387	636.021
366.825	16.632	830.235	635.787
367.840	16.561	829.593	634.970
368.854	16.585	828.679	634.306
369.869	16.665	828.229	634.204
370.883	16.708	827.783	633.967
371.898	16.817	827.394	634.019
372.913	16.703	827.440	633.573
373.927	16.768	826.734	633.222
374.942	16.887	826.023	633.064
375.956	16.805	825.736	632.482
376.971	16.823	825.214	632.094
377.986	16.763	825.140	631.758
379.000	16.854	824.513	631.558
380.015	16.838	823.797	630.895
381.029	16.834	823.107	630.299
382.044	16.934	822.921	630.470
383.059	16.911	822.345	629.890
384.073	16.790	821.716	628.901
385.088	16.730	821.453	628.421
386.102	16.948	820.574	628.502
387.117	16.900	819.833	627.701
388.132	16.832	819.793	627.362
389.146	16.874	819.347	627.123
390.161	16.901	818.853	626.789
391.175	16.936	818.276	626.419
392.190	16.910	817.375	625.580
393.205	16.831	817.319	625.190
394.219	17.033	816.595	625.324
395.234	16.928	816.365	624.706
396.248	16.934	816.122	624.486
397.263	16.971	815.337	623.966
398.278	17.056	814.714	623.748
399.292	16.958	814.853	623.438
400.307	16.842	814.421	622.627
401.321	16.868	813.487	621.952
402.336	17.104	813.129	622.490
403.350	17.165	812.251	621.986
404.365	17.138	811.962	621.610
405.380	17.172	811.794	621.553
406.394	17.158	811.225	621.010
407.409	17.146	810.789	620.578
408.423	17.177	810.945	620.755
409.438	17.384	810.075	620.789
410.453	17.242	810.045	620.195
411.467	17.162	809.459	619.396
412.482	17.417	808.683	619.677
413.496	17.403	808.594	619.504
414.511	17.373	807.995	618.881
415.526	17.365	807.575	618.476
416.540	17.372	807.068	618.057
417.555	17.569	806.501	618.283
418.569	17.454	806.089	617.495
419.584	17.444	805.884	617.248
420.599	17.558	805.038	616.959
421.613	87.415	1256.534	1340.295
422.628	74.564	1322.344	1340.425
