DTS Sentinel unit serial number:	SN413079Multiplexer serial number:	ORYXHardware model number:	OX4-SRSoftware version number:	ORYX F/W v4.00 Oryx Data Collector v3.7.2.0data status	okinstallation	princeton_trtdifferential loss correction	single-endedforward channel	channel 1reverse channel	N/Adate	2019/09/13time	00:34:35forward acquisition time	60.00reverse acquisition time	0.00gamma	496.2192k internal	0.2329k external	0.2329temperature offset calibration	1.0143default loss term (dB/km)	0.3790temperature slope calibration	1.0000multiplexer offset coefficient	1.0000multiplexer slope coefficient	1.0000fibre end	0.00T internal ref (°C)	28.31T ext. ref 1 (°C)	3.70T ext. ref 2 (°C)	22.87length (m)	temperature (°C)	Stokes	anti-Stokes-747.200	800.000	-0.105	-0.401
-746.185	82.616	-0.082	0.090
-745.171	800.000	-0.027	0.112
-744.156	-129.023	-0.304	0.043
-743.142	800.000	-0.068	0.206
-742.127	264.667	-0.239	0.419
-741.112	-27.113	0.144	-0.084
-740.098	-117.453	-0.237	-0.043
-739.083	11.384	0.187	0.144
-738.069	-200.000	-0.047	0.214
-737.054	326.395	-0.084	-0.161
-736.039	9.620	-0.155	-0.118
-735.025	-182.532	-0.372	0.007
-734.010	-79.661	0.123	0.042
-732.996	800.000	0.046	0.183
-731.981	-86.552	-0.197	0.061
-730.966	14.321	0.279	0.219
-729.952	-32.192	-0.404	-0.227
-728.937	-108.970	-0.044	0.009
-727.923	800.000	-0.185	-0.554
-726.908	240.604	-0.212	0.356
-725.894	-200.000	0.018	0.216
-724.879	186.492	0.168	-0.251
-723.864	-1.499	0.097	0.069
-722.850	-200.000	0.012	-0.237
-721.835	-35.526	-0.337	-0.184
-720.821	800.000	-0.064	-0.186
-719.806	-39.752	0.278	-0.146
-718.791	-150.754	-0.087	-0.007
-717.777	117.161	-0.177	-0.219
-716.762	-200.000	0.004	0.020
-715.748	-153.134	0.304	0.021
-714.733	-32.218	-0.148	0.083
-713.718	97.683	0.325	-0.376
-712.704	-9.160	-0.167	-0.112
-711.689	-85.224	0.091	0.028
-710.675	-47.235	-0.267	0.131
-709.660	369.844	-0.132	-0.268
-708.645	-33.675	-0.117	0.065
-707.631	189.010	-0.104	0.156
-706.616	419.988	0.107	0.230
-705.602	800.000	0.029	-0.107
-704.587	238.908	-0.075	0.126
-703.572	671.174	-0.107	-0.280
-702.558	167.705	-0.197	-0.282
-701.543	-40.995	0.153	0.079
-700.529	144.447	0.079	0.106
-699.514	-140.633	0.273	0.028
-698.499	166.286	0.137	-0.195
-697.485	33.192	-0.142	-0.124
-696.470	570.941	0.096	-0.234
-695.456	-200.000	-0.002	-0.238
-694.441	256.409	-0.153	-0.264
-693.426	800.000	-0.025	0.091
-692.412	-126.269	-0.217	0.033
-691.397	800.000	0.113	0.378
-690.383	78.721	0.192	-0.207
-689.368	-200.000	0.029	0.136
-688.354	-125.117	-0.340	-0.052
-687.339	-200.000	0.002	0.015
-686.324	152.511	-0.194	-0.266
-685.310	-108.889	0.020	-0.004
-684.295	48.258	0.241	-0.226
-683.281	-200.000	0.018	0.097
-682.266	43.290	0.356	0.327
-681.251	76.254	-0.093	0.099
-680.237	199.005	-0.103	-0.159
-679.222	-136.047	-0.112	0.013
-678.208	72.305	-0.069	-0.072
-677.193	427.315	0.050	-0.108
-676.178	-20.747	-0.169	-0.104
-675.164	-200.000	-0.012	-0.353
-674.149	-36.132	0.221	0.120
-673.135	-31.896	0.163	-0.092
-672.120	-127.777	-0.160	-0.023
-671.105	29.286	0.315	-0.269
-670.091	184.835	-0.087	-0.130
-669.076	-179.473	0.211	-0.005
-668.062	-115.020	-0.277	0.053
-667.047	401.324	-0.099	0.209
-666.032	156.354	-0.092	0.128
-665.018	-200.000	0.014	-0.085
-664.003	-96.667	0.188	-0.050
-662.989	69.901	-0.115	-0.120
-661.974	45.774	0.103	0.096
-660.959	-121.483	-0.057	0.009
-659.945	-22.056	0.216	0.132
-658.930	339.567	-0.046	0.091
-657.916	-5.226	0.102	-0.070
-656.901	-53.746	-0.090	-0.041
-655.886	-56.571	-0.239	-0.107
-654.872	-38.990	0.274	-0.145
-653.857	51.098	0.285	0.271
-652.843	109.650	0.093	0.112
-651.828	39.417	0.178	0.160
-650.814	800.000	0.070	0.215
-649.799	-26.409	0.163	-0.096
-648.784	775.062	-0.080	-0.219
-647.770	-174.447	-0.223	0.006
-646.755	-200.000	-0.019	-0.186
-645.741	-3.179	0.143	-0.100
-644.726	-200.000	0.060	0.296
-643.711	71.240	-0.130	-0.135
-642.697	-23.382	-0.249	-0.150
-641.682	-200.000	0.015	0.144
-640.668	-175.788	-0.201	-0.005
-639.653	94.454	0.205	0.234
-638.638	203.184	-0.047	-0.073
-637.624	117.883	0.095	0.118
-636.609	-85.133	-0.096	-0.030
-635.595	-200.000	-0.001	-0.046
-634.580	-67.628	-0.087	-0.034
-633.565	56.537	-0.258	-0.252
-632.551	16.484	0.076	-0.060
-631.536	41.316	0.094	0.085
-630.522	-200.000	-0.020	0.457
-629.507	-200.000	0.052	-0.310
-628.492	-44.219	-0.278	-0.140
-627.478	-200.000	-0.011	0.252
-626.463	-200.000	-0.001	0.065
-625.449	1.573	-0.114	-0.083
-624.434	105.232	0.176	-0.208
-623.419	-107.278	0.288	0.063
-622.405	-135.231	0.146	0.018
-621.390	-200.000	0.007	0.323
-620.376	22.927	-0.165	0.136
-619.361	144.403	-0.129	-0.172
-618.346	70.733	0.251	-0.261
-617.332	800.000	0.026	0.074
-616.317	24.262	-0.173	-0.143
-615.303	800.000	0.091	-0.287
-614.288	380.498	0.087	0.178
-613.273	738.028	0.070	-0.187
-612.259	-48.469	-0.287	-0.139
-611.244	-72.975	-0.138	0.051
-610.230	-62.417	-0.125	-0.052
-609.215	-13.338	0.110	-0.071
-608.201	-131.507	0.210	0.028
-607.186	-200.000	0.009	-0.103
-606.171	250.770	-0.144	-0.246
-605.157	-7.963	0.031	0.021
-604.142	76.428	-0.069	-0.074
-603.128	178.003	-0.155	-0.226
-602.113	-200.000	0.005	-0.445
-601.098	800.000	-0.086	-0.266
-600.084	-116.764	0.070	0.013
-599.069	-200.000	0.018	0.085
-598.055	345.282	0.095	-0.187
-597.040	-78.489	-0.272	-0.093
-596.025	-200.000	0.054	0.379
-595.011	212.017	-0.266	-0.419
-593.996	-125.069	0.338	-0.052
-592.982	-40.206	0.306	-0.160
-591.967	255.289	0.120	-0.206
-590.952	437.140	0.158	-0.344
-589.938	-129.198	-0.347	0.049
-588.923	278.153	0.087	0.156
-587.909	329.190	-0.086	-0.166
-586.894	800.000	0.019	-0.056
-585.879	800.000	0.056	-0.215
-584.865	-86.858	0.257	-0.078
-583.850	85.701	-0.130	0.143
-582.836	316.679	0.023	0.044
-581.821	-75.303	-0.138	0.049
-580.806	800.000	-0.057	-0.165
-579.792	-200.000	0.001	-0.026
-578.777	-91.968	-0.424	0.120
-577.763	-109.067	-0.174	0.037
-576.748	133.665	0.215	0.279
-575.733	122.519	0.192	-0.240
-574.719	-200.000	0.053	-0.308
-573.704	107.309	-0.131	0.156
-572.690	32.094	-0.141	0.122
-571.675	344.750	-0.146	0.287
-570.661	-133.237	0.155	0.020
-569.646	409.949	-0.160	-0.338
-568.631	-82.132	0.399	0.130
-567.617	-86.287	0.357	0.110
-566.602	393.680	0.090	0.187
-565.588	800.000	-0.047	0.188
-564.573	-200.000	0.002	-0.030
-563.558	-106.020	-0.310	-0.070
-562.544	373.779	-0.151	-0.306
-561.529	171.218	-0.053	-0.076
-560.515	-137.547	-0.257	-0.029
-559.500	-14.054	-0.051	0.033
-558.485	-65.902	-0.184	0.074
-557.471	-200.000	0.018	0.186
-556.456	-200.000	-0.031	0.214
-555.442	-96.095	-0.128	0.034
-554.427	612.183	-0.048	-0.121
-553.412	318.526	-0.068	0.128
-552.398	442.849	-0.108	-0.237
-551.383	-200.000	0.054	-0.273
-550.369	-67.113	0.049	0.019
-549.354	-67.414	0.223	0.088
-548.339	-119.293	-0.123	-0.021
-547.325	-83.998	-0.318	0.101
-546.310	800.000	0.047	-0.148
-545.296	-200.000	-0.052	-0.282
-544.281	314.428	0.174	-0.327
-543.266	800.000	0.071	0.206
-542.252	26.936	-0.268	0.225
-541.237	-200.000	0.006	-0.226
-540.223	800.000	0.031	-0.112
-539.208	-15.190	0.149	0.095
-538.193	-141.616	-0.356	0.036
-537.179	595.800	0.074	0.184
-536.164	-65.133	-0.293	0.118
-535.150	4.093	0.185	0.135
-534.135	-34.198	-0.199	0.109
-533.121	632.323	0.170	-0.430
-532.106	-57.054	0.134	0.059
-531.091	-143.832	0.039	0.004
-530.077	-145.764	-0.446	-0.040
-529.062	-133.453	0.113	0.014
-528.048	130.941	-0.248	0.318
-527.033	214.857	-0.206	0.326
-526.018	-64.728	0.159	0.064
-525.004	279.238	0.075	-0.134
-523.989	-86.401	-0.161	-0.050
-522.975	-55.868	-0.187	-0.083
-521.960	111.754	-0.072	0.087
-520.945	-200.000	0.048	0.337
-519.931	-67.049	-0.144	-0.057
-518.916	800.000	-0.020	-0.080
-517.902	-27.960	0.308	0.178
-516.887	-200.000	-0.012	0.264
-515.872	-49.971	0.263	0.124
-514.858	373.863	0.184	0.375
-513.843	-200.000	0.018	0.184
-512.829	-200.000	0.006	0.149
-511.814	-33.093	-0.239	0.132
-510.799	-200.000	-0.039	-0.445
-509.785	-9.836	-0.083	0.055
-508.770	-200.000	0.037	-0.243
-507.756	-143.792	0.301	0.028
-506.741	-29.502	0.168	0.096
-505.726	202.766	0.068	0.105
-504.712	389.572	0.118	-0.244
-503.697	-156.885	-0.099	-0.006
-502.683	-200.000	-0.015	-0.082
-501.668	95.654	0.295	-0.336
-500.653	-200.000	0.012	-0.130
-499.639	-16.219	0.223	0.142
-498.624	-200.000	0.008	0.068
-497.610	44.755	0.074	0.068
-496.595	623.149	-0.029	0.072
-495.581	-200.000	-0.046	-0.218
-494.566	-8.146	-0.339	-0.228
-493.551	-200.000	0.010	0.073
-492.537	52.192	0.194	0.184
-491.522	3.676	-0.138	0.101
-490.508	223.092	0.193	0.310
-489.493	618.827	-0.031	0.078
-488.478	86.493	-0.196	-0.216
-487.464	800.000	0.023	0.092
-486.449	625.752	0.071	0.180
-485.435	-200.000	0.049	-0.409
-484.420	-42.412	0.120	-0.061
-483.405	-44.815	-0.346	-0.172
-482.391	715.633	-0.059	0.157
-481.376	-165.428	-0.399	0.017
-480.362	-200.000	0.002	0.222
-479.347	4.976	0.189	0.139
-478.332	-4.007	0.052	-0.036
-477.318	-200.000	-0.024	0.207
-476.303	-200.000	-0.023	-0.377
-475.289	-16.724	-0.069	0.043
-474.274	423.112	-0.021	0.044
-473.259	43.707	-0.185	-0.169
-472.245	800.000	0.084	0.252
-471.230	39.593	0.090	-0.080
-470.216	565.306	0.057	0.138
-469.201	-110.830	0.196	0.040
-468.186	-3.179	0.166	0.116
-467.172	10.470	0.340	0.258
-466.157	-16.823	-0.066	0.042
-465.143	7.024	0.095	0.071
-464.128	20.383	0.131	0.106
-463.113	-183.459	-0.269	0.005
-462.099	700.591	-0.033	-0.088
-461.084	-117.447	0.132	-0.024
-460.070	-145.618	-0.148	0.013
-459.055	-131.801	0.206	-0.027
-458.040	147.330	-0.184	0.247
-457.026	-128.593	-0.325	0.046
-456.011	-132.572	-0.039	-0.005
-454.997	-32.064	-0.267	0.149
-453.982	-134.468	0.101	-0.012
-452.968	-200.000	0.019	0.253
-451.953	-170.068	0.467	-0.017
-450.938	174.667	-0.114	0.165
-449.924	116.509	-0.258	0.315
-448.909	-200.000	-0.055	0.307
-447.895	-86.683	0.296	0.090
-446.880	71.804	-0.078	0.080
-445.865	800.000	-0.087	0.271
-444.851	1.357	-0.415	-0.297
-443.836	-200.000	0.005	-0.264
-442.822	800.000	0.101	-0.322
-441.807	47.431	0.325	0.302
-440.792	-133.187	0.094	0.012
-439.778	43.344	0.112	-0.102
-438.763	-200.000	0.025	0.177
-437.749	178.572	-0.113	0.165
-436.734	-200.000	0.021	-0.139
-435.719	800.000	0.067	0.198
-434.705	171.151	0.043	0.061
-433.690	800.000	0.076	0.290
-432.676	-200.000	0.003	0.136
-431.661	-184.415	0.240	-0.004
-430.646	205.483	-0.239	-0.369
-429.632	-81.820	-0.043	0.014
-428.617	230.351	-0.095	-0.154
-427.603	88.343	-0.109	-0.120
-426.588	-176.075	-0.032	-0.001
-425.573	-119.290	0.292	-0.051
-424.559	-117.182	0.062	0.011
-423.544	-1.430	0.334	0.234
-422.530	372.174	0.068	-0.137
-421.515	348.156	-0.075	-0.147
-420.500	54.209	-0.119	-0.114
-419.486	-135.266	-0.416	0.050
-418.471	222.109	-0.154	-0.246
-417.457	-50.086	0.173	0.082
-416.442	94.849	-0.298	0.338
-415.428	-126.110	-0.176	0.026
-414.413	40.167	0.129	0.115
-413.398	-3.469	-0.176	-0.122
-412.384	-55.112	0.283	-0.127
-411.369	-145.549	0.213	0.019
-410.355	115.235	0.060	0.073
-409.340	-14.295	0.174	-0.111
-408.325	800.000	-0.087	-0.376
-407.311	800.000	0.039	-0.168
-406.296	193.550	0.138	0.208
-405.282	-102.952	0.202	-0.048
-404.267	13.147	0.194	-0.149
-403.252	498.230	0.059	0.136
-402.238	-169.490	-0.206	0.007
-401.223	-29.345	0.083	0.047
-400.209	-139.110	0.146	0.016
-399.194	-75.998	-0.249	-0.088
-398.179	576.838	0.152	-0.370
-397.165	504.211	-0.042	0.096
-396.150	-154.954	-0.038	-0.002
-395.136	-200.000	-0.056	-0.361
-394.121	-143.725	-0.161	0.015
-393.106	412.616	0.109	-0.231
-392.092	2.636	0.136	-0.098
-391.077	-200.000	-0.015	0.095
-390.063	-63.426	-0.114	0.047
-389.048	-200.000	0.067	0.333
-388.033	-168.776	-0.050	-0.002
-387.019	800.000	-0.099	-0.309
-386.004	-31.648	-0.141	0.079
-384.990	-200.000	-0.060	-0.264
-383.975	800.000	-0.010	-0.040
-382.960	-88.819	-0.311	0.092
-381.946	-200.000	0.005	0.250
-380.931	-168.136	-0.209	-0.008
-379.917	527.004	0.040	0.093
-378.902	-82.445	0.145	0.047
-377.888	54.206	0.015	-0.014
-376.873	327.594	-0.163	0.310
-375.858	93.294	0.087	0.098
-374.844	83.854	0.074	-0.080
-373.829	800.000	-0.123	-0.359
-372.815	139.678	-0.118	0.154
-371.800	-48.289	0.047	0.023
-370.785	-180.899	-0.338	0.007
-369.771	-200.000	0.019	0.193
-368.756	-29.610	-0.323	0.183
-367.742	38.548	-0.256	0.226
-366.727	66.979	0.142	-0.144
-365.712	-200.000	0.027	0.354
-364.698	433.155	-0.126	0.271
-363.683	103.399	-0.021	0.025
-362.669	-89.517	0.306	-0.089
-361.654	58.499	0.033	0.032
-360.639	-200.000	0.042	-0.187
-359.625	-168.612	-0.313	-0.012
-358.610	105.277	-0.362	-0.424
-357.596	-112.972	0.190	-0.037
-356.581	-108.371	0.239	0.051
-355.566	800.000	0.103	-0.281
-354.552	-200.000	-0.041	0.189
-353.537	-95.857	0.142	0.038
-352.523	-20.825	-0.158	-0.096
-351.508	47.999	-0.208	-0.193
-350.493	387.853	0.118	-0.242
-349.479	59.202	0.043	0.042
-348.464	6.601	0.231	-0.170
-347.450	-183.889	-0.112	-0.002
-346.435	61.437	0.198	-0.195
-345.420	-108.748	-0.416	-0.088
-344.406	206.486	-0.294	0.454
-343.391	-186.828	-0.121	0.002
-342.377	-63.810	0.267	-0.108
-341.362	-200.000	0.013	0.137
-340.348	29.154	-0.353	0.297
-339.333	-200.000	0.061	0.313
-338.318	800.000	-0.105	0.398
-337.304	45.574	-0.311	0.285
-336.289	-60.554	0.026	-0.011
-335.275	-81.472	-0.259	-0.085
-334.260	-110.684	-0.099	-0.020
-333.245	-131.063	0.295	-0.039
-332.231	44.088	-0.127	-0.116
-331.216	-62.105	-0.153	-0.063
-330.202	800.000	0.010	0.037
-329.187	-134.027	-0.218	0.027
-328.172	-200.000	-0.004	0.139
-327.158	-62.611	0.234	0.096
-326.143	-34.773	-0.221	0.120
-325.129	226.146	-0.138	-0.222
-324.114	84.070	0.126	0.137
-323.099	136.350	-0.047	-0.060
-322.085	-101.631	-0.086	0.021
-321.070	800.000	-0.027	0.104
-320.056	-158.283	-0.374	-0.022
-319.041	-133.584	0.130	-0.016
-318.026	-122.391	0.031	0.005
-317.012	-153.121	-0.107	0.007
-315.997	-148.994	-0.099	-0.008
-314.983	111.609	-0.167	0.199
-313.968	189.709	0.179	0.267
-312.953	396.152	0.124	0.257
-311.939	97.937	0.145	0.165
-310.924	4.225	-0.122	0.089
-309.910	263.499	-0.156	0.268
-308.895	-63.175	-0.315	-0.129
-307.880	-200.000	-0.005	0.121
-306.866	-11.876	0.122	0.079
-305.851	98.540	-0.327	0.373
-304.837	-50.706	0.340	-0.159
-303.822	-200.000	0.043	-0.256
-302.807	-26.866	0.378	-0.219
-301.793	-142.672	0.201	0.019
-300.778	-200.000	0.049	-0.214
-299.764	-200.000	0.113	0.498
-298.749	98.918	0.326	0.373
-297.735	-1.434	0.089	0.062
-296.720	95.047	0.125	0.141
-295.705	238.192	-0.084	0.138
-294.691	-99.072	-0.237	-0.059
-293.676	79.339	0.239	-0.254
-292.662	-67.326	0.161	0.063
-291.647	-200.000	-0.016	-0.182
-290.632	-175.617	-0.170	-0.005
-289.618	55.619	-0.057	0.054
-288.603	800.000	-0.031	0.113
-287.589	83.442	-0.030	-0.032
-286.574	-148.978	-0.167	-0.013
-285.559	800.000	0.052	-0.173
-284.545	-200.000	-0.026	-0.186
-283.530	-163.885	0.102	0.005
-282.516	4.144	0.130	0.094
-281.501	-51.038	-0.149	-0.069
-280.486	-118.905	0.259	0.045
-279.472	46.601	-0.016	0.015
-278.457	94.276	0.097	0.109
-277.443	-200.000	0.186	0.001
-276.428	53.692	0.184	-0.175
-275.413	334.598	0.099	0.190
-274.399	800.000	-0.095	0.281
-273.384	-198.115	0.043	0.000
-272.370	32.026	-0.230	-0.196
-271.355	-79.060	0.150	0.051
-270.340	94.516	0.131	0.147
-269.326	-38.113	-0.190	-0.100
-268.311	-91.224	0.383	0.108
-267.297	-93.385	-0.097	0.027
-266.282	-59.886	0.205	-0.087
-265.267	-42.157	0.211	0.107
-264.253	-18.324	0.120	0.074
-263.238	67.998	0.177	-0.179
-262.224	-200.000	0.004	-0.298
-261.209	434.720	-0.084	0.179
-260.195	115.869	0.134	0.162
-259.180	-11.049	0.114	-0.074
-258.165	-130.657	-0.209	-0.028
-257.151	121.113	0.078	-0.096
-256.136	295.098	0.043	0.077
-255.122	35.581	0.189	-0.164
-254.107	103.182	0.128	0.148
-253.092	62.619	0.096	0.095
-252.078	-49.594	0.188	-0.088
-251.063	-29.846	0.137	0.077
-250.049	-137.098	0.150	0.017
-249.034	-200.000	0.004	-0.193
-248.019	104.538	0.076	0.089
-247.005	-200.000	0.023	-0.135
-245.990	30.441	0.045	-0.038
-244.976	-200.000	0.015	-0.448
-243.961	298.134	-0.219	-0.397
-242.946	-14.228	-0.397	0.253
-241.932	226.695	0.071	0.114
-240.917	-72.868	-0.149	-0.054
-239.903	2.737	0.155	0.111
-238.888	-71.336	0.360	-0.133
-237.873	573.966	-0.092	0.222
-236.859	-24.580	0.113	0.066
-235.844	-111.753	-0.276	0.055
-234.830	152.403	0.168	0.226
-233.815	-200.000	0.012	0.180
-232.800	-200.000	0.027	0.157
-231.786	353.907	-0.160	-0.314
-230.771	-50.639	0.087	-0.041
-229.757	328.787	0.122	-0.232
-228.742	80.027	0.097	0.103
-227.727	800.000	0.048	-0.169
-226.713	800.000	-0.018	0.063
-225.698	-91.451	-0.219	-0.062
-224.684	-101.479	-0.114	0.027
-223.669	-99.507	0.161	-0.040
-222.655	-89.671	-0.318	0.092
-221.640	-123.543	-0.207	0.032
-220.625	-200.000	0.019	-0.206
-219.611	-68.505	-0.399	0.153
-218.596	-187.419	0.317	-0.004
-217.582	77.085	0.135	0.142
-216.567	-139.597	0.270	-0.028
-215.552	-200.000	0.011	0.320
-214.538	94.779	-0.219	0.245
-213.523	5.246	0.327	0.238
-212.509	-88.904	-0.203	-0.059
-211.494	-92.218	0.153	-0.043
-210.479	-48.755	-0.020	0.009
-209.465	800.000	0.080	0.233
-208.450	4.323	-0.190	0.137
-207.436	-200.000	0.028	-0.174
-206.421	-107.062	-0.166	0.036
-205.406	-200.000	-0.023	-0.137
-204.392	-127.222	0.163	0.024
-203.377	-200.000	0.002	-0.086
-202.363	-200.000	0.073	-0.336
-201.348	-200.000	0.280	0.001
-200.333	177.482	-0.154	-0.221
-199.319	217.661	-0.098	0.154
-198.304	-200.000	-0.015	0.136
-197.290	348.584	-0.106	-0.206
-196.275	-7.080	0.093	-0.062
-195.260	65.477	-0.113	0.113
-194.246	401.714	0.068	0.141
-193.231	-106.134	0.247	-0.055
-192.217	519.521	-0.071	-0.163
-191.202	800.000	0.052	0.225
-190.187	-200.000	0.012	-0.209
-189.173	-49.645	0.227	0.106
-188.158	237.539	0.227	-0.371
-187.144	800.000	-0.148	-0.523
-186.129	-59.947	-0.365	-0.154
-185.114	-110.178	-0.275	0.056
-184.100	624.773	0.107	0.265
-183.085	478.123	0.072	0.161
-182.071	-70.810	-0.142	0.053
-181.056	17.407	0.411	0.321
-180.042	327.022	-0.101	-0.191
-179.027	312.242	0.047	-0.087
-178.012	370.453	0.144	-0.287
-176.998	459.824	-0.054	-0.118
-175.983	-0.648	-0.140	-0.098
-174.969	228.441	-0.078	0.125
-173.954	-79.909	0.033	0.011
-172.939	16.349	0.186	-0.145
-171.925	631.579	0.148	0.369
-170.910	-200.000	0.001	-0.094
-169.896	91.627	0.224	-0.248
-168.881	-91.230	0.387	0.109
-167.866	-200.000	0.105	-0.570
-166.852	-23.916	0.201	0.118
-165.837	-100.359	-0.201	-0.049
-164.823	-200.000	0.046	-0.322
-163.808	209.924	0.112	-0.174
-162.793	227.264	0.043	-0.068
-161.779	800.000	-0.034	-0.145
-160.764	-47.305	0.092	0.044
-159.750	63.098	0.111	-0.110
-158.735	263.746	0.157	-0.269
-157.720	55.497	0.111	0.105
-156.706	543.857	-0.044	-0.104
-155.691	-147.969	-0.274	-0.022
-154.677	96.347	-0.202	0.227
-153.662	285.593	-0.101	-0.179
-152.647	-161.451	0.268	-0.014
-151.633	114.972	0.091	0.109
-150.618	-200.000	0.022	0.215
-149.604	-200.000	-0.026	0.239
-148.589	-17.504	0.108	0.067
-147.574	-200.000	0.012	0.146
-146.560	-119.659	0.310	-0.053
-145.545	-200.000	-0.046	-0.328
-144.531	-200.000	0.041	0.375
-143.516	-147.869	-0.229	0.019
-142.502	-37.133	-0.152	-0.080
-141.487	-200.000	-0.013	0.173
-140.472	-137.953	0.593	-0.065
-139.458	0.798	0.235	-0.165
-138.443	-200.000	0.018	-0.402
-137.429	-151.986	0.030	-0.002
-136.414	-200.000	0.026	-0.192
-135.399	294.444	0.189	-0.340
-134.385	47.558	0.060	-0.055
-133.370	118.466	0.203	0.246
-132.356	-23.000	0.238	-0.141
-131.341	-80.966	-0.203	0.066
-130.326	-200.000	-0.050	0.218
-129.312	-35.928	0.409	0.218
-128.297	800.000	-0.097	0.376
-127.283	-200.000	-0.043	0.269
-126.268	207.602	-0.129	-0.198
-125.253	-200.000	-0.132	0.001
-124.239	429.594	0.058	-0.123
-123.224	800.000	0.042	-0.150
-122.210	800.000	-0.030	0.120
-121.195	57.235	-0.069	0.066
-120.180	-22.026	0.282	0.169
-119.166	321.706	-0.073	0.136
-118.151	428.745	-0.114	0.243
-117.137	654.929	0.107	-0.270
-116.122	111.405	0.221	0.262
-115.107	-200.000	-0.002	0.144
-114.093	4.400	-0.171	0.123
-113.078	-19.367	-0.345	-0.210
-112.064	184.165	-0.175	0.255
-111.049	122.042	0.029	0.035
-110.034	300.555	0.141	-0.256
-109.020	800.000	0.077	-0.225
-108.005	518.227	-0.030	-0.068
-106.991	578.604	0.053	-0.127
-105.976	2.749	0.047	0.033
-104.962	353.447	0.088	0.171
-103.947	-179.847	-0.396	0.008
-102.932	-200.000	-0.007	0.334
-101.918	-200.000	-0.016	0.221
-100.903	-141.798	-0.016	0.002
-99.889	-28.277	0.265	-0.150
-98.874	-27.697	0.030	-0.017
-97.859	-42.050	-0.129	0.065
-96.845	108.487	-0.041	0.048
-95.830	-77.870	0.266	0.090
-94.816	-82.717	-0.206	-0.065
-93.801	60.213	-0.163	0.158
-92.786	800.000	0.083	0.232
-91.772	800.000	0.062	0.245
-90.757	16.023	0.236	0.183
-89.743	-141.209	0.246	-0.025
-88.728	-200.000	-0.008	-0.136
-87.713	-100.915	-0.147	0.035
-86.699	-200.000	0.009	-0.092
-85.684	-109.729	0.253	0.052
-84.670	-59.305	0.353	0.149
-83.655	83.767	-0.043	0.046
-82.640	-32.042	0.134	0.073
-81.626	-200.000	0.000	-0.011
-80.611	-141.941	-0.340	-0.033
-79.597	-200.000	0.043	-0.204
-78.582	122.298	0.032	-0.039
-77.567	-95.858	0.208	0.054
-76.553	389.108	0.109	-0.222
-75.538	61.575	0.269	-0.262
-74.524	-39.997	-0.311	0.159
-73.509	-40.422	0.304	0.155
-72.494	-11.640	-0.343	0.221
-71.480	-146.477	0.218	0.019
-70.465	697.356	-0.113	0.290
-69.451	-200.000	-0.029	0.230
-68.436	800.000	-0.042	0.159
-67.422	63.982	-0.172	0.170
-66.407	262.200	-0.134	-0.227
-65.392	-86.267	0.219	-0.066
-64.378	56.503	-0.038	0.036
-63.363	-76.951	0.332	0.114
-62.349	121.979	0.128	-0.156
-61.334	73.435	-0.970	-0.996
-60.319	12.811	0.627	0.476
-59.305	368.816	-0.482	-0.956
-58.290	318.541	0.682	1.267
-57.276	461.068	0.794	1.735
-56.261	-200.000	112.754	632.059
-55.246	517.668	1518.373	3483.634
-54.232	177.862	2687.100	3842.411
-53.217	109.775	2149.502	2527.429
-52.203	39.793	1597.845	1406.066
-51.188	31.840	1342.697	1133.640
-50.173	28.818	1303.894	1083.056
-49.159	54.507	1360.599	1285.508
-48.144	54.088	1374.230	1295.818
-47.130	31.852	1330.099	1122.896
-46.115	28.506	1312.258	1087.980
-45.100	28.264	1307.357	1082.439
-44.086	28.301	1304.848	1080.541
-43.071	28.155	1302.930	1078.049
-42.057	28.153	1300.584	1076.053
-41.042	28.138	1299.530	1075.051
-40.027	28.174	1297.985	1073.942
-39.013	28.185	1295.668	1072.047
-37.998	28.195	1293.633	1070.377
-36.984	28.225	1291.926	1069.096
-35.969	28.302	1289.961	1067.879
-34.954	28.323	1288.215	1066.515
-33.940	28.230	1287.382	1065.236
-32.925	28.329	1285.935	1064.575
-31.911	28.413	1284.686	1063.985
-30.896	28.409	1283.276	1062.752
-29.881	28.449	1281.634	1061.582
-28.867	28.496	1280.222	1060.645
-27.852	28.516	1278.703	1059.460
-26.838	28.445	1277.605	1058.096
-25.823	28.367	1276.404	1056.611
-24.809	28.371	1274.966	1055.401
-23.794	28.390	1273.636	1054.369
-22.779	28.356	1272.249	1052.980
-21.765	28.453	1270.732	1052.239
-20.750	28.425	1269.383	1050.924
-19.736	28.275	1268.604	1049.374
-18.721	28.224	1267.246	1047.917
-17.706	28.351	1266.034	1047.601
-16.692	28.184	1265.128	1045.855
-15.677	28.234	1264.049	1045.210
-14.663	28.260	1262.764	1044.252
-13.648	28.385	1261.741	1044.074
-12.633	28.321	1260.683	1042.797
-11.619	28.245	1260.327	1042.029
-10.604	28.173	1259.529	1040.919
-9.590	28.235	1257.949	1039.920
-8.575	28.213	1256.927	1038.909
-7.560	28.267	1256.023	1038.426
-6.546	28.283	1255.576	1038.110
-5.531	28.315	1254.644	1037.475
-4.517	28.252	1253.927	1036.489
-3.502	28.296	1253.089	1035.999
-2.487	28.136	1252.386	1034.477
-1.473	28.225	1247.862	1031.201
-0.458	26.692	1232.720	1010.106
0.556	24.493	1215.900	971.765
1.571	20.603	1221.136	954.554
2.586	19.614	1234.748	959.620
3.600	19.303	1223.281	948.909
4.615	14.849	1152.300	870.623
5.629	7.337	1079.649	778.875
6.644	4.082	1061.253	749.802
7.659	3.589	1059.003	745.762
8.673	3.606	1057.258	744.548
9.688	3.525	1056.297	743.415
10.702	4.060	1053.904	744.239
11.717	8.862	1060.742	772.182
12.731	16.984	1072.251	819.901
13.746	21.811	1079.206	848.564
14.761	22.831	1079.836	853.924
15.775	22.087	1077.891	848.715
16.790	21.309	1076.305	843.637
17.804	20.800	1074.603	839.775
18.819	20.540	1073.915	837.910
19.834	20.623	1073.862	838.191
20.848	20.755	1072.590	837.763
21.863	20.555	1072.145	836.376
22.877	20.276	1071.438	834.411
23.892	20.299	1070.843	833.982
24.907	20.165	1069.793	832.447
25.921	20.087	1068.663	831.123
26.936	20.134	1067.863	830.652
27.950	20.078	1066.171	828.994
28.965	20.301	1064.475	828.668
29.980	20.510	1063.341	828.709
30.994	20.473	1062.690	827.951
32.009	20.614	1061.428	827.566
33.023	20.557	1060.363	826.392
34.038	20.278	1059.463	824.289
35.053	20.186	1058.688	823.179
36.067	20.185	1057.515	822.191
37.082	20.167	1056.951	821.593
38.096	20.328	1056.536	821.959
39.111	20.456	1055.266	821.504
40.126	20.238	1054.041	819.447
41.140	19.787	1052.711	816.214
42.155	19.637	1051.492	814.489
43.169	19.590	1050.223	813.211
44.184	19.623	1049.309	812.589
45.199	19.570	1048.866	811.924
46.213	19.944	1047.634	812.656
47.228	20.192	1047.265	813.459
48.242	20.304	1046.357	813.206
49.257	20.221	1045.577	812.142
50.271	20.326	1045.052	812.154
51.286	20.515	1043.780	811.975
52.301	20.432	1042.749	810.712
53.315	20.262	1041.804	809.116
54.330	20.216	1040.019	807.442
55.344	19.943	1039.980	806.068
56.359	19.916	1038.933	805.063
57.374	19.898	1038.189	804.328
58.388	19.607	1037.696	802.526
59.403	19.622	1036.578	801.658
60.417	19.711	1035.552	801.206
61.432	19.628	1035.156	800.446
62.447	19.613	1033.527	799.046
63.461	19.435	1033.188	797.887
64.476	19.437	1032.292	797.136
65.490	19.377	1031.418	796.115
66.505	19.407	1030.774	795.686
67.520	19.519	1030.401	795.842
68.534	19.474	1029.646	794.981
69.549	19.288	1028.786	793.389
70.563	19.198	1027.589	791.984
71.578	19.028	1026.973	790.658
72.593	18.968	1026.020	789.577
73.607	19.008	1025.175	789.044
74.622	19.062	1024.639	788.808
75.636	19.165	1023.890	788.634
76.651	19.218	1023.119	788.214
77.666	19.191	1022.634	787.643
78.680	19.417	1021.842	787.996
79.695	19.267	1021.114	786.684
80.709	19.529	1020.889	787.637
81.724	19.578	1020.285	787.321
82.739	19.944	1019.524	788.330
83.753	20.175	1019.408	789.226
84.768	20.481	1018.781	790.061
85.782	20.846	1017.589	790.726
86.797	20.650	1017.087	789.372
87.812	20.551	1015.733	787.805
88.826	20.487	1015.046	786.912
89.841	20.630	1014.006	786.684
90.855	20.652	1013.025	785.953
91.870	20.591	1012.488	785.192
92.884	20.558	1011.646	784.320
93.899	20.517	1010.931	783.510
94.914	20.569	1009.827	782.820
95.928	20.533	1008.692	781.708
96.943	20.470	1007.625	780.532
97.957	20.435	1006.713	779.596
98.972	20.412	1005.979	778.856
99.987	20.460	1005.119	778.338
101.001	20.376	1004.445	777.369
102.016	20.332	1003.631	776.475
103.030	20.537	1002.600	776.523
104.045	20.386	1002.341	775.582
105.060	20.337	1001.117	774.347
106.074	19.956	999.644	771.439
107.089	19.668	998.688	769.354
108.103	19.616	997.191	767.902
109.118	19.500	996.118	766.493
110.133	19.371	995.516	765.388
111.147	19.376	994.383	764.473
112.162	19.514	993.617	764.427
113.176	19.585	993.500	764.583
114.191	19.729	992.498	764.383
115.206	19.729	991.366	763.440
116.220	19.614	990.532	762.224
117.235	19.486	989.904	761.109
118.249	19.531	989.127	760.644
119.264	19.377	988.074	759.089
120.279	19.320	987.173	758.077
121.293	19.318	986.246	757.290
122.308	19.132	985.588	755.901
123.322	19.061	984.714	754.851
124.337	19.065	983.221	753.660
125.352	19.058	982.450	752.971
126.366	19.064	981.465	752.174
127.381	19.121	980.525	751.635
128.395	19.328	979.664	751.812
129.410	19.281	978.918	750.967
130.424	19.381	978.497	751.017
131.439	19.644	977.683	751.471
132.454	19.738	976.781	751.115
133.468	19.685	976.373	750.506
134.483	19.671	975.341	749.589
135.497	19.669	974.873	749.152
136.512	19.693	974.161	748.642
137.527	19.692	973.053	747.719
138.541	19.749	972.135	747.197
139.556	19.913	971.642	747.457
140.570	20.160	970.778	747.794
141.585	20.364	970.714	748.556
142.600	20.290	970.335	747.879
143.614	20.499	968.975	747.663
144.629	20.602	968.371	747.576
145.643	20.524	967.102	746.193
146.658	20.130	966.127	743.689
147.673	19.953	964.679	741.750
148.687	19.806	963.919	740.470
149.702	19.738	962.234	738.817
150.716	19.712	961.716	738.246
151.731	19.757	961.477	738.187
152.746	19.958	960.850	738.497
153.760	19.902	960.255	737.739
154.775	20.089	959.464	737.862
155.789	20.105	958.960	737.476
156.804	20.182	957.873	736.903
157.819	20.152	957.980	736.792
158.833	20.575	956.824	737.630
159.848	20.747	956.071	737.714
160.862	20.395	954.998	735.331
161.877	20.050	953.191	732.418
162.892	19.776	952.196	730.430
163.906	19.701	951.297	729.358
164.921	19.697	950.465	728.639
165.935	19.787	950.100	728.677
166.950	19.879	948.945	728.112
167.964	19.848	948.524	727.596
168.979	19.661	947.192	725.721
169.994	19.871	946.126	725.721
171.008	19.885	945.967	725.595
172.023	20.272	945.250	726.603
173.037	20.474	944.039	726.451
174.052	20.199	943.245	724.627
175.067	19.732	942.539	722.070
176.081	19.554	941.725	720.643
177.096	19.628	941.038	720.361
178.110	19.672	940.515	720.079
179.125	19.782	939.945	720.035
180.140	19.897	939.963	720.467
181.154	20.103	939.673	721.039
182.169	20.145	939.296	720.856
183.183	20.252	938.878	720.919
184.198	20.286	937.996	720.316
185.213	20.292	937.010	719.524
186.227	20.293	936.731	719.249
187.242	20.526	935.717	719.372
188.256	20.708	935.384	719.805
189.271	20.588	934.690	718.711
190.286	20.277	933.181	716.203
191.300	19.518	931.880	712.013
192.315	19.404	931.515	711.201
193.329	19.593	931.084	711.588
194.344	19.733	930.602	711.732
195.359	19.976	929.775	712.036
196.373	20.104	929.946	712.631
197.388	20.248	929.452	712.781
198.402	20.558	928.928	713.588
199.417	20.716	928.662	713.967
200.432	20.974	927.536	714.097
201.446	20.937	927.657	713.976
202.461	21.029	927.085	713.849
203.475	20.783	926.187	712.086
204.490	20.434	925.160	709.810
205.504	20.216	924.655	708.470
206.519	20.230	923.836	707.835
207.534	20.291	922.965	707.354
208.548	20.223	922.436	706.610
209.563	20.173	922.007	706.015
210.577	20.231	921.128	705.514
211.592	20.757	920.627	707.208
212.607	20.833	920.091	707.042
213.621	20.630	919.406	705.629
214.636	20.594	918.606	704.807
215.650	20.663	917.823	704.424
216.665	20.733	917.090	704.082
217.680	20.916	916.620	704.395
218.694	20.854	915.920	703.548
219.709	20.892	915.250	703.121
220.723	20.783	914.554	702.087
221.738	20.656	914.081	701.150
222.753	20.497	913.480	699.985
223.767	20.802	913.142	700.892
224.782	20.989	912.585	701.154
225.796	21.039	911.981	700.831
226.811	20.797	911.190	699.188
227.826	20.485	910.268	697.166
228.840	20.561	909.349	696.707
229.855	20.565	908.452	695.974
230.869	20.523	908.300	695.628
231.884	20.445	907.458	694.610
232.899	20.236	906.896	693.282
233.913	20.250	905.710	692.372
234.928	20.037	904.965	690.891
235.942	20.124	904.354	690.709
236.957	20.102	903.892	690.208
237.972	20.158	903.251	689.879
238.986	20.079	903.081	689.374
240.001	20.180	901.947	688.849
241.015	20.383	901.311	689.109
242.030	20.494	901.137	689.355
243.045	20.456	900.658	688.777
244.059	20.394	900.325	688.214
245.074	20.610	899.576	688.438
246.088	20.761	899.055	688.574
247.103	20.908	898.797	688.897
248.117	21.180	898.360	689.575
249.132	21.565	898.002	690.761
250.147	21.706	898.076	691.313
251.161	21.802	897.540	691.217
252.176	21.832	896.906	690.786
253.190	21.931	896.493	690.796
254.205	21.880	895.620	689.862
255.220	21.895	894.766	689.200
256.234	21.610	894.277	687.646
257.249	21.728	893.437	687.400
258.263	21.589	892.729	686.252
259.278	21.646	892.064	685.903
260.293	21.720	891.637	685.801
261.307	21.800	891.181	685.705
262.322	21.982	890.554	685.873
263.336	21.965	889.768	685.141
264.351	21.805	889.277	684.077
265.366	21.758	889.207	683.780
266.380	21.878	888.018	683.271
267.395	21.848	886.921	682.250
268.409	21.752	886.135	681.211
269.424	21.566	885.825	680.192
270.439	21.469	884.745	678.924
271.453	21.335	884.401	678.082
272.468	21.264	883.771	677.263
273.482	21.369	882.858	676.911
274.497	21.367	882.494	676.562
275.512	21.380	881.941	676.129
276.526	21.343	881.771	675.798
277.541	21.563	880.880	675.904
278.555	21.681	880.813	676.250
279.570	22.056	880.373	677.295
280.585	21.827	879.851	675.954
281.599	21.721	878.196	674.215
282.614	21.473	877.561	672.712
283.628	21.495	876.908	672.237
284.643	21.446	876.269	671.500
285.657	21.553	875.604	671.342
286.672	21.528	875.021	670.741
287.687	21.556	874.412	670.320
288.701	21.665	873.456	669.947
289.716	21.639	873.339	669.698
290.730	21.583	872.988	669.153
291.745	21.653	872.299	668.834
292.760	21.825	871.836	669.077
293.774	22.105	871.152	669.558
294.789	21.981	870.354	668.415
295.803	21.646	869.774	666.635
296.818	21.556	868.684	665.398
297.833	21.496	868.384	664.883
298.847	21.691	867.398	664.809
299.862	21.787	867.144	664.917
300.876	21.733	867.220	664.715
301.891	22.059	866.670	665.468
302.906	22.252	865.899	665.548
303.920	22.400	865.698	665.895
304.935	22.290	865.365	665.163
305.949	22.146	864.246	663.703
306.964	22.031	863.676	662.773
307.979	21.983	863.200	662.164
308.993	22.035	862.689	661.911
310.008	22.174	861.871	661.750
311.022	22.108	861.354	661.045
312.037	21.814	860.668	659.353
313.052	21.657	859.874	658.097
314.066	21.351	859.226	656.396
315.081	21.343	858.789	655.974
316.095	21.528	857.431	655.569
317.110	21.380	857.277	654.839
318.125	21.446	856.690	654.582
319.139	21.381	856.028	653.776
320.154	21.323	856.285	653.695
321.168	21.515	855.602	653.833
322.183	21.661	854.808	653.713
323.197	21.812	854.642	654.095
324.212	21.720	853.803	653.048
325.227	21.379	853.501	651.489
326.241	21.376	852.932	650.989
327.256	21.448	852.102	650.565
328.270	21.509	851.265	650.095
329.285	21.503	851.013	649.823
330.300	21.473	849.847	648.765
331.314	21.704	849.717	649.461
332.329	21.764	849.675	649.595
333.343	21.869	849.098	649.487
334.358	22.029	848.835	649.818
335.373	22.025	848.162	649.233
336.387	22.164	847.745	649.369
337.402	22.118	848.314	649.577
338.416	22.301	847.675	649.704
339.431	22.414	847.451	649.894
340.446	22.623	847.515	650.656
341.460	22.674	847.214	650.557
342.475	22.776	846.536	650.353
343.489	22.674	846.642	650.001
344.504	22.862	846.089	650.214
345.519	23.001	845.631	650.313
346.533	22.773	844.678	648.684
347.548	22.552	843.600	646.991
348.562	22.223	842.678	645.019
349.577	22.050	842.241	643.992
350.592	21.895	841.463	642.772
351.606	21.866	840.919	642.194
352.621	22.170	839.933	642.496
353.635	22.094	839.425	641.774
354.650	22.246	839.042	641.977
355.665	22.223	838.354	641.312
356.679	22.427	838.291	641.951
357.694	22.356	837.280	640.862
358.708	22.392	836.235	640.136
359.723	22.214	835.732	639.047
360.738	22.335	835.429	639.197
361.752	22.248	835.155	638.615
362.767	22.521	834.838	639.308
363.781	22.858	834.345	640.093
364.796	22.978	833.849	640.092
365.810	23.042	833.794	640.226
366.825	23.036	833.559	639.968
367.840	23.003	832.898	639.284
368.854	22.990	831.702	638.263
369.869	22.700	831.595	637.076
370.883	22.743	831.332	636.973
371.898	22.874	831.126	637.234
372.913	22.963	830.469	636.991
373.927	22.884	829.479	635.891
374.942	22.908	829.169	635.683
375.956	23.013	829.109	635.959
376.971	23.077	828.538	635.695
377.986	23.376	828.025	636.319
379.000	23.283	827.436	635.479
380.015	23.295	826.836	635.002
381.029	23.240	826.267	634.314
382.044	23.093	825.988	633.518
383.059	23.266	825.158	633.443
384.073	23.159	824.507	632.505
385.088	22.822	823.434	630.424
386.102	22.718	822.477	629.263
387.117	22.575	822.314	628.574
388.132	22.535	821.708	627.910
389.146	22.745	821.298	628.292
390.161	22.897	821.440	628.886
391.175	23.021	820.852	628.819
392.190	22.933	820.068	627.850
393.205	22.636	819.432	626.252
394.219	22.588	818.832	625.570
395.234	22.551	818.323	624.993
396.248	22.406	817.810	624.034
397.263	22.383	817.610	623.743
398.278	22.258	817.240	622.961
399.292	22.360	816.340	622.584
400.307	22.362	816.035	622.302
401.321	22.157	815.767	621.317
402.336	22.653	815.179	622.567
403.350	22.675	815.253	622.644
404.365	22.976	814.727	623.251
405.380	23.305	814.240	623.982
406.394	23.302	814.090	623.802
407.409	23.330	813.853	623.664
408.423	23.450	813.659	623.880
409.438	23.547	813.103	623.743
410.453	23.564	812.152	623.016
411.467	23.575	812.023	622.900
412.482	23.641	811.899	622.981
413.496	23.720	811.363	622.793
414.511	23.734	811.282	622.726
415.526	23.577	810.299	621.364
416.540	23.471	809.480	620.313
417.555	23.413	809.307	619.922
418.569	23.637	808.733	620.209
419.584	23.729	808.112	620.000
420.599	23.492	808.192	619.179
421.613	163.358	1371.918	1796.267
422.628	142.172	1454.020	1796.346
