DTS Sentinel unit serial number:	SN413079Multiplexer serial number:	ORYXHardware model number:	OX4-SRSoftware version number:	ORYX F/W v4.00 Oryx Data Collector v3.7.2.0data status	okinstallation	princeton_trtdifferential loss correction	single-endedforward channel	channel 1reverse channel	N/Adate	2019/09/11time	11:40:11forward acquisition time	60.00reverse acquisition time	0.00gamma	496.2192k internal	0.2293k external	0.2293temperature offset calibration	0.9948default loss term (dB/km)	0.3790temperature slope calibration	1.0000multiplexer offset coefficient	1.0000multiplexer slope coefficient	1.0000fibre end	0.00T internal ref (°C)	38.44T ext. ref 1 (°C)	0.17T ext. ref 2 (°C)	35.71length (m)	temperature (°C)	Stokes	anti-Stokes-747.200	35.209	-0.005	-0.004
-746.185	1.251	-0.158	0.116
-745.171	-200.000	-0.041	0.295
-744.156	82.158	-0.140	0.156
-743.142	105.135	0.061	-0.074
-742.127	-73.491	0.292	0.109
-741.112	-92.539	0.101	-0.029
-740.098	-200.000	-0.062	0.420
-739.083	-200.000	-0.051	0.256
-738.069	-114.836	-0.423	0.083
-737.054	34.942	0.153	-0.137
-736.039	24.333	-0.221	-0.187
-735.025	23.513	0.175	0.148
-734.010	105.755	0.243	-0.294
-732.996	230.331	0.073	0.122
-731.981	-135.044	-0.069	0.008
-730.966	-42.182	-0.047	0.025
-729.952	-23.171	0.157	-0.097
-728.937	-41.976	0.102	0.054
-727.923	-43.914	-0.141	-0.072
-726.908	-200.000	0.013	-0.385
-725.894	-12.839	-0.225	-0.150
-724.879	800.000	-0.067	-0.226
-723.864	-200.000	0.023	0.135
-722.850	-200.000	-0.035	-0.383
-721.835	102.210	-0.158	-0.189
-720.821	231.387	-0.144	0.241
-719.806	-67.072	-0.124	-0.050
-718.791	258.929	-0.214	-0.376
-717.777	-154.243	-0.129	0.009
-716.762	18.778	-0.217	-0.178
-715.748	140.713	0.116	-0.157
-714.733	-131.065	-0.239	-0.033
-713.718	253.181	-0.057	-0.099
-712.704	80.177	-0.254	-0.279
-711.689	22.526	0.158	0.132
-710.675	-83.460	0.316	0.103
-709.660	136.183	0.085	0.114
-708.645	75.876	-0.125	0.135
-707.631	24.973	0.044	0.037
-706.616	-161.994	0.299	-0.015
-705.602	159.346	0.092	0.130
-704.587	342.125	-0.024	-0.047
-703.572	800.000	-0.018	0.071
-702.558	155.426	0.135	0.190
-701.543	371.811	0.101	-0.210
-700.529	-101.611	0.444	-0.110
-699.514	30.213	0.201	0.175
-698.499	-101.598	0.114	-0.028
-697.485	772.015	-0.058	-0.162
-696.470	-200.000	-0.013	0.100
-695.456	-45.988	-0.168	-0.084
-694.441	716.628	-0.185	-0.502
-693.426	800.000	0.143	-0.482
-692.412	0.275	-0.247	-0.180
-691.397	-88.386	0.070	-0.021
-690.383	683.067	-0.064	-0.171
-689.368	-200.000	-0.023	0.128
-688.354	-125.077	-0.422	-0.066
-687.339	-41.597	-0.093	-0.049
-686.324	120.455	-0.075	-0.095
-685.310	-87.005	-0.024	0.007
-684.295	800.000	0.031	-0.090
-683.281	110.329	-0.029	0.035
-682.266	532.111	0.033	-0.080
-681.251	115.803	0.191	-0.238
-680.237	-132.182	-0.316	-0.042
-679.222	800.000	0.037	-0.107
-678.208	-200.000	-0.075	-0.361
-677.193	28.604	0.074	-0.064
-676.178	480.376	0.050	-0.115
-675.164	-24.080	0.244	0.149
-674.149	-200.000	-0.007	-0.062
-673.135	-124.132	0.165	0.026
-672.120	-180.876	-0.242	-0.005
-671.105	210.547	0.051	-0.081
-670.091	-91.673	0.103	0.030
-669.076	-102.654	0.336	-0.082
-668.062	-59.792	0.184	-0.081
-667.047	153.528	-0.192	-0.268
-666.032	-148.308	-0.180	-0.015
-665.018	-130.096	0.276	0.038
-664.003	276.506	-0.083	-0.150
-662.989	-200.000	0.006	0.076
-661.974	597.184	0.019	-0.048
-660.959	-52.116	0.095	-0.045
-659.945	128.084	-0.119	0.154
-658.930	175.527	-0.140	-0.207
-657.916	-59.748	0.249	-0.109
-656.901	240.821	0.057	0.096
-655.886	591.662	0.062	0.156
-654.872	532.884	0.079	0.192
-653.857	-93.611	0.294	0.083
-652.843	34.189	0.263	-0.233
-651.828	465.954	-0.092	-0.210
-650.814	-38.418	0.198	-0.107
-649.799	-200.000	-0.019	0.124
-648.784	800.000	-0.031	0.118
-647.770	-20.789	0.073	-0.046
-646.755	-200.000	0.027	0.430
-645.741	84.323	-0.048	0.054
-644.726	136.350	-0.152	-0.202
-643.711	243.977	-0.090	-0.154
-642.697	21.561	-0.272	-0.226
-641.682	-5.401	0.095	-0.066
-640.668	167.972	0.065	-0.094
-639.653	-88.651	0.021	-0.006
-638.638	-200.000	0.007	-0.209
-637.624	236.355	0.112	-0.189
-636.609	-200.000	0.027	-0.321
-635.595	-200.000	-0.030	0.154
-634.580	-151.370	-0.117	-0.009
-633.565	-200.000	0.030	0.179
-632.551	22.180	0.184	-0.153
-631.536	800.000	0.021	-0.083
-630.522	3.656	0.225	-0.167
-629.507	97.681	0.131	-0.154
-628.492	-10.390	-0.163	-0.110
-627.478	-118.172	0.041	-0.007
-626.463	-8.877	-0.152	0.104
-625.449	800.000	-0.018	-0.063
-624.434	247.368	-0.033	-0.057
-623.419	-200.000	0.013	-0.137
-622.405	-122.879	-0.135	0.022
-621.390	-106.870	-0.221	0.050
-620.376	51.047	0.115	0.111
-619.361	-47.777	-0.073	-0.036
-618.346	-114.981	-0.220	0.043
-617.332	24.764	0.321	-0.271
-616.317	644.759	0.071	-0.184
-615.303	-20.020	0.470	-0.295
-614.288	800.000	0.051	0.223
-613.273	-198.702	-0.138	0.001
-612.259	99.767	-0.219	-0.258
-611.244	393.432	-0.023	-0.050
-610.230	800.000	-0.039	-0.131
-609.215	-6.652	0.146	0.101
-608.201	-44.922	0.117	-0.059
-607.186	-200.000	-0.089	-0.420
-606.171	69.311	0.206	-0.216
-605.157	-80.632	-0.091	0.031
-604.142	143.081	-0.192	0.260
-603.128	-90.702	-0.244	-0.072
-602.113	52.479	0.190	0.184
-601.098	78.013	-0.208	-0.225
-600.084	-129.321	-0.269	-0.038
-599.069	800.000	-0.070	-0.267
-598.055	800.000	0.042	-0.182
-597.040	-200.000	-0.028	0.310
-596.025	-42.976	-0.255	0.131
-595.011	40.814	0.202	0.186
-593.996	-72.505	0.368	-0.138
-592.982	134.357	0.067	0.088
-591.967	65.997	0.056	-0.058
-590.952	493.054	-0.167	0.389
-589.938	-200.000	-0.032	-0.203
-588.923	-200.000	0.016	-0.116
-587.909	59.713	0.233	0.234
-586.894	-200.000	0.044	0.348
-585.879	-130.423	-0.227	0.031
-584.865	-200.000	0.041	0.252
-583.850	-101.363	0.065	0.016
-582.836	-153.277	-0.339	0.024
-581.821	69.908	-0.055	-0.058
-580.806	-42.708	-0.255	0.132
-579.792	221.833	0.112	-0.182
-578.777	242.656	-0.086	-0.147
-577.763	174.999	0.093	0.138
-576.748	254.876	-0.103	-0.180
-575.733	136.741	0.208	0.276
-574.719	-146.738	0.044	0.004
-573.704	11.132	-0.075	-0.058
-572.690	-200.000	0.014	0.076
-571.675	-22.445	-0.172	-0.106
-570.661	-34.493	0.136	0.076
-569.646	34.949	-0.220	0.195
-568.631	-124.212	-0.148	0.023
-567.617	-71.206	0.028	0.011
-566.602	-53.100	-0.383	-0.179
-565.588	-56.318	0.145	-0.066
-564.573	-31.795	-0.261	-0.149
-563.558	800.000	0.095	-0.279
-562.544	-71.363	-0.123	-0.047
-561.529	99.492	-0.187	0.219
-560.515	25.643	0.105	0.089
-559.500	-188.895	-0.073	0.001
-558.485	800.000	-0.085	-0.277
-557.471	-106.635	-0.409	0.092
-556.456	-46.683	-0.128	0.064
-555.442	-104.129	-0.168	0.040
-554.427	-200.000	-0.021	-0.122
-553.412	180.392	0.223	-0.332
-552.398	-200.000	0.019	-0.172
-551.383	800.000	0.042	-0.126
-550.369	-80.079	0.156	-0.053
-549.354	-26.166	0.202	0.120
-548.339	694.022	0.096	-0.254
-547.325	257.683	-0.082	0.143
-546.310	-200.000	-0.031	-0.295
-545.296	285.809	-0.099	-0.181
-544.281	-200.000	-0.004	0.110
-543.266	-48.456	-0.071	0.035
-542.252	101.939	-0.095	0.113
-541.237	85.842	-0.259	0.290
-540.223	100.689	0.166	-0.196
-539.208	63.409	0.142	0.145
-538.193	130.616	0.096	-0.124
-537.179	-145.687	0.180	-0.016
-536.164	-200.000	0.012	0.143
-535.150	31.560	-0.303	0.265
-534.135	-11.249	-0.059	-0.039
-533.121	26.746	0.108	0.091
-532.106	168.412	0.114	0.164
-531.091	-200.000	0.022	0.279
-530.077	23.447	-0.071	0.060
-529.062	-26.113	-0.367	0.219
-528.048	-27.090	0.121	0.072
-527.033	-87.098	0.271	-0.084
-526.018	132.246	0.176	-0.230
-525.004	53.781	-0.120	0.117
-523.989	-200.000	0.044	0.373
-522.975	-22.999	0.155	-0.095
-521.960	-91.122	-0.109	0.032
-520.945	109.079	-0.087	0.106
-519.931	-29.973	0.143	-0.083
-518.916	-94.494	0.272	-0.075
-517.902	157.862	-0.093	-0.131
-516.887	-190.057	-0.156	-0.002
-515.872	-200.000	-0.005	-0.262
-514.858	800.000	0.064	-0.231
-513.843	-68.061	-0.041	0.016
-512.829	800.000	-0.126	-0.396
-511.814	-63.330	0.028	0.012
-510.799	10.495	0.346	0.267
-509.785	-129.009	-0.496	0.070
-508.770	315.489	0.069	-0.132
-507.756	-35.243	-0.208	0.115
-506.741	-200.000	-0.012	-0.055
-505.726	-104.789	-0.284	-0.066
-504.712	800.000	-0.042	0.138
-503.697	-192.308	0.042	-0.000
-502.683	218.983	0.110	0.178
-501.668	333.154	0.013	0.026
-500.653	-69.404	0.270	0.105
-499.639	-132.260	-0.401	-0.053
-498.624	25.082	-0.381	0.321
-497.610	-200.000	0.052	0.239
-496.595	-23.622	0.216	0.131
-495.581	-50.082	0.260	0.125
-494.566	-58.967	0.227	0.099
-493.551	-97.220	-0.154	-0.041
-492.537	313.722	0.110	-0.210
-491.522	-152.803	-0.177	-0.013
-490.508	19.903	0.195	-0.160
-489.493	143.553	0.030	-0.040
-488.478	-200.000	0.006	-0.344
-487.464	301.126	0.050	0.093
-486.449	-200.000	0.010	-0.113
-485.435	0.997	0.282	-0.205
-484.420	61.639	-0.211	0.213
-483.405	800.000	0.037	-0.110
-482.391	-82.625	-0.077	-0.025
-481.376	800.000	-0.067	-0.279
-480.362	-50.477	-0.240	0.114
-479.347	87.541	-0.236	0.265
-478.332	800.000	0.023	0.083
-477.318	-125.859	-0.155	0.024
-476.303	-58.973	0.214	0.094
-475.289	-73.215	-0.078	0.029
-474.274	187.732	0.088	0.133
-473.259	241.403	-0.059	0.100
-472.245	-200.000	0.051	0.401
-471.230	800.000	0.019	0.064
-470.216	58.613	-0.093	0.092
-469.201	-72.011	0.079	-0.030
-468.186	55.384	0.070	0.069
-467.172	-200.000	-0.042	-0.398
-466.157	8.930	0.187	-0.143
-465.143	114.647	-0.047	0.057
-464.128	763.198	-0.025	-0.069
-463.113	-70.694	-0.442	-0.169
-462.099	-200.000	-0.038	-0.172
-461.084	-5.609	-0.214	-0.149
-460.070	4.741	0.186	0.138
-459.055	210.355	-0.080	-0.127
-458.040	-91.788	0.113	0.032
-457.026	-120.803	-0.108	-0.019
-456.011	63.202	-0.208	0.211
-454.997	114.104	0.349	0.430
-453.982	125.979	-0.132	-0.169
-452.968	-29.165	0.247	-0.143
-451.953	63.708	0.283	-0.287
-450.938	-82.745	-0.189	-0.062
-449.924	-82.784	0.133	-0.043
-448.909	-100.067	0.508	0.128
-447.895	430.327	0.098	0.214
-446.880	359.775	0.136	-0.275
-445.865	-158.372	0.199	-0.012
-444.851	800.000	0.116	0.360
-443.836	163.433	0.107	-0.152
-442.822	47.618	-0.084	-0.079
-441.807	4.969	0.218	-0.162
-440.792	479.118	-0.078	0.179
-439.778	52.503	-0.187	0.180
-438.763	-19.249	0.199	0.125
-437.749	342.753	-0.091	-0.180
-436.734	800.000	0.053	0.206
-435.719	-180.275	-0.176	0.004
-434.705	-112.066	-0.428	0.087
-433.690	-189.067	0.283	0.003
-432.676	-200.000	-0.031	0.183
-431.661	-172.149	-0.146	-0.005
-430.646	-32.875	0.240	0.135
-429.632	43.856	0.070	-0.065
-428.617	543.405	0.046	-0.111
-427.603	94.705	0.175	-0.202
-426.588	-172.551	0.104	0.003
-425.573	800.000	0.015	-0.052
-424.559	-200.000	0.016	0.130
-423.544	-50.871	-0.079	0.038
-422.530	131.873	0.140	-0.182
-421.515	50.663	-0.034	0.032
-420.500	800.000	0.040	-0.149
-419.486	-200.000	-0.005	-0.036
-418.471	572.101	-0.063	-0.155
-417.457	-200.000	0.003	0.016
-416.442	800.000	0.048	0.179
-415.428	800.000	0.131	0.385
-414.413	-43.569	0.284	0.145
-413.398	-147.211	-0.219	0.019
-412.384	-140.842	-0.229	0.024
-411.369	800.000	-0.133	-0.502
-410.355	-23.959	-0.283	-0.171
-409.340	23.178	-0.508	0.421
-408.325	-180.145	0.123	-0.003
-407.311	-192.783	-0.307	0.003
-406.296	-43.448	-0.264	0.135
-405.282	-62.981	0.187	0.078
-404.267	148.391	-0.030	-0.041
-403.252	-57.097	-0.457	0.203
-402.238	-159.192	0.085	-0.005
-401.223	414.096	-0.120	-0.258
-400.209	-110.984	-0.138	0.029
-399.194	-121.512	0.510	-0.085
-398.179	-200.000	-0.037	0.250
-397.165	94.679	-0.073	0.083
-396.150	7.674	0.166	-0.125
-395.136	125.110	0.155	0.197
-394.121	-121.841	-0.267	0.044
-393.106	-120.182	0.199	-0.034
-392.092	-90.522	0.044	-0.013
-391.077	-71.350	0.378	0.143
-390.063	-83.133	0.267	0.087
-389.048	-32.893	-0.221	0.124
-388.033	-151.855	0.385	-0.028
-387.019	-30.748	0.067	0.038
-386.004	-0.027	-0.309	0.222
-384.990	-94.472	-0.379	0.104
-383.975	-87.278	0.054	-0.017
-382.960	-104.057	0.177	-0.042
-381.946	-200.000	-0.007	0.178
-380.931	-42.542	-0.183	0.094
-379.917	-113.050	0.489	0.097
-378.902	-200.000	-0.055	-0.500
-377.888	-200.000	0.032	0.348
-376.873	-200.000	-0.015	0.090
-375.858	-42.481	-0.241	0.124
-374.844	-132.277	-0.196	-0.026
-373.829	381.594	0.145	-0.300
-372.815	-200.000	0.549	-0.002
-371.800	-84.860	0.151	-0.048
-370.785	89.918	-0.108	-0.122
-369.771	-26.746	-0.067	-0.039
-368.756	-200.000	-0.042	-0.279
-367.742	-90.972	-0.236	0.068
-366.727	800.000	-0.043	0.131
-365.712	64.871	-0.113	0.115
-364.698	218.004	0.017	0.027
-363.683	42.829	-0.043	0.040
-362.669	83.629	0.128	0.140
-361.654	-142.735	0.292	-0.029
-360.639	40.388	0.067	0.061
-359.625	-85.847	0.112	-0.035
-358.610	-200.000	0.019	0.150
-357.596	-23.745	-0.084	-0.051
-356.581	100.747	0.050	-0.059
-355.566	-128.670	0.113	-0.016
-354.552	800.000	0.043	-0.150
-353.537	-125.055	-0.217	-0.034
-352.523	-80.310	0.352	0.118
-351.508	-200.000	0.042	0.268
-350.493	-200.000	-0.003	0.295
-349.479	-200.000	-0.006	-0.173
-348.464	-8.222	0.237	-0.160
-347.450	-137.770	-0.103	-0.012
-346.435	-62.431	0.075	0.031
-345.420	33.550	-0.127	-0.112
-344.406	5.075	0.080	-0.059
-343.391	2.083	-0.144	-0.105
-342.377	-200.000	0.027	0.219
-341.362	579.860	-0.054	0.133
-340.348	242.977	-0.160	0.269
-339.333	160.759	0.165	0.232
-338.318	-137.295	0.343	0.039
-337.304	-38.838	0.137	0.073
-336.289	-132.300	0.213	-0.028
-335.275	240.939	0.167	-0.281
-334.260	332.886	-0.119	0.231
-333.245	-200.000	-0.021	0.466
-332.231	-6.882	0.208	0.142
-331.216	116.647	0.158	-0.196
-330.202	226.116	0.199	-0.325
-329.187	92.492	0.076	-0.086
-328.172	117.817	-0.106	-0.131
-327.158	-75.632	0.090	-0.032
-326.143	348.949	0.052	0.103
-325.129	103.205	0.127	0.150
-324.114	437.363	0.087	0.191
-323.099	43.073	-0.315	-0.289
-322.085	-111.000	0.215	0.045
-321.070	-160.721	-0.091	-0.005
-320.056	99.738	0.112	-0.131
-319.041	32.084	-0.099	-0.086
-318.026	118.149	0.119	-0.147
-317.012	380.797	0.182	0.376
-315.997	-200.000	-0.025	0.212
-314.983	-107.253	0.384	-0.085
-313.968	94.308	0.149	-0.170
-312.953	-21.265	0.262	-0.161
-311.939	-77.123	-0.187	0.066
-310.924	-200.000	0.002	0.343
-309.910	188.779	0.031	0.047
-308.895	-200.000	-0.008	-0.185
-307.880	-200.000	-0.063	-0.366
-306.866	800.000	-0.075	-0.216
-305.851	-200.000	-0.057	-0.308
-304.837	-61.962	0.336	-0.141
-303.822	-19.971	-0.208	0.129
-302.807	-45.075	-0.257	0.128
-301.793	-53.531	-0.072	0.033
-300.778	5.384	-0.158	-0.117
-299.764	-138.628	-0.158	0.017
-298.749	147.314	0.070	-0.095
-297.735	-29.219	-0.150	-0.087
-296.720	-158.025	0.120	-0.007
-295.705	-115.577	0.346	-0.065
-294.691	164.013	0.025	-0.035
-293.676	-16.242	-0.101	-0.065
-292.662	119.703	0.069	-0.086
-291.647	-200.000	0.104	-0.474
-290.632	-82.061	-0.219	0.072
-289.618	-91.862	-0.159	-0.045
-288.603	-17.547	0.215	0.136
-287.589	-4.060	-0.117	0.081
-286.574	149.415	0.181	-0.246
-285.559	-27.276	-0.229	-0.134
-284.545	800.000	-0.017	0.052
-283.530	183.574	-0.162	-0.241
-282.516	800.000	0.053	-0.176
-281.501	-43.518	0.178	0.090
-280.486	5.650	0.077	0.057
-279.472	-108.924	-0.244	-0.052
-278.457	-96.887	-0.245	-0.065
-277.443	112.760	-0.071	0.086
-276.428	-200.000	0.043	0.285
-275.413	-165.828	0.178	-0.008
-274.399	247.816	-0.068	0.116
-273.384	303.514	-0.093	0.173
-272.370	198.759	-0.116	-0.178
-271.355	85.663	-0.107	0.119
-270.340	48.699	-0.364	-0.343
-269.326	-156.502	-0.226	0.014
-268.311	800.000	0.047	0.132
-267.297	800.000	-0.061	0.221
-266.282	-21.416	0.118	0.072
-265.267	-65.055	-0.205	0.083
-264.253	343.979	0.102	0.200
-263.238	-200.000	-0.041	-0.273
-262.224	-5.326	0.217	0.150
-261.209	95.710	-0.244	0.279
-260.195	194.600	0.111	0.170
-259.180	36.186	-0.230	-0.203
-258.165	36.317	-0.181	-0.160
-257.151	-87.307	0.230	0.070
-256.136	800.000	0.040	0.133
-255.122	69.661	0.200	-0.207
-254.107	13.035	0.230	-0.178
-253.092	1.784	-0.152	0.110
-252.078	800.000	-0.035	0.145
-251.063	-3.892	-0.205	0.142
-250.049	-125.945	0.275	-0.042
-249.034	-200.000	0.019	0.195
-248.019	-200.000	-0.052	-0.355
-247.005	226.398	-0.059	-0.096
-245.990	288.241	0.183	-0.331
-244.976	10.119	0.184	-0.140
-243.961	-200.000	-0.007	0.098
-242.946	800.000	0.067	0.214
-241.932	-200.000	-0.010	0.105
-240.917	800.000	0.076	0.225
-239.903	70.153	0.112	-0.116
-238.888	-142.465	0.172	0.017
-237.873	-200.000	0.011	0.053
-236.859	-70.750	-0.395	-0.149
-235.844	800.000	-0.171	0.487
-234.830	-34.995	-0.263	0.144
-233.815	19.238	0.160	0.128
-232.800	-59.498	0.149	0.064
-231.786	23.720	0.243	-0.201
-230.771	-95.053	-0.180	0.049
-229.757	283.575	0.020	-0.035
-228.742	22.405	-0.017	0.014
-227.727	-200.000	-0.049	0.240
-226.713	-1.105	-0.188	-0.133
-225.698	551.066	-0.060	-0.145
-224.684	15.282	0.281	-0.221
-223.669	800.000	0.039	-0.115
-222.655	-200.000	-0.009	0.243
-221.640	17.999	0.179	0.143
-220.625	-189.191	-0.101	0.001
-219.611	-200.000	0.002	0.143
-218.596	133.771	-0.057	0.074
-217.582	42.941	0.118	0.108
-216.567	-200.000	0.017	0.183
-215.552	-137.985	-0.146	0.016
-214.538	-200.000	-0.039	-0.186
-213.523	516.702	0.079	0.184
-212.509	105.843	0.184	-0.218
-211.494	-17.349	0.145	-0.091
-210.479	-90.307	-0.405	-0.118
-209.465	125.169	-0.112	-0.141
-208.450	-200.000	0.031	0.201
-207.436	-9.379	-0.173	0.116
-206.421	-43.019	0.223	0.113
-205.406	-200.000	-0.089	0.439
-204.392	380.520	0.083	0.169
-203.377	-136.181	0.297	0.035
-202.363	450.273	0.080	-0.176
-201.348	114.088	-0.171	0.208
-200.333	763.297	0.081	0.219
-199.319	-187.697	-0.379	-0.005
-198.304	18.943	-0.089	0.072
-197.290	-200.000	-0.039	0.242
-196.275	-3.655	-0.158	0.110
-195.260	556.312	0.050	0.120
-194.246	127.794	0.105	0.133
-193.231	-24.238	-0.183	-0.109
-192.217	-48.553	0.096	0.046
-191.202	160.994	-0.311	-0.436
-190.187	69.527	-0.134	-0.139
-189.173	-200.000	-0.044	-0.260
-188.158	219.627	0.051	-0.081
-187.144	-6.374	-0.260	-0.178
-186.129	431.258	0.196	-0.425
-185.114	-200.000	0.028	-0.181
-184.100	-119.338	0.111	0.019
-183.085	-145.710	-0.077	0.007
-182.071	-200.000	0.014	-0.204
-181.056	553.530	-0.121	0.291
-180.042	800.000	-0.049	-0.158
-179.027	-35.925	-0.118	-0.064
-178.012	41.310	-0.132	0.120
-176.998	131.703	0.222	0.285
-175.983	-29.433	-0.193	-0.110
-174.969	415.877	0.085	0.181
-173.954	-200.000	0.046	-0.338
-172.939	215.508	0.145	0.231
-171.925	-136.437	0.130	0.015
-170.910	70.070	0.164	-0.169
-169.896	-86.780	-0.350	-0.107
-168.881	-200.000	-0.003	0.042
-167.866	800.000	-0.056	0.229
-166.852	90.863	0.150	0.168
-165.837	706.797	-0.038	0.100
-164.823	122.131	-0.118	-0.147
-163.808	-55.219	0.365	-0.164
-162.793	-73.106	0.190	-0.070
-161.779	-49.687	0.203	0.096
-160.764	466.539	-0.046	-0.102
-159.750	-200.000	0.057	-0.282
-158.735	105.292	0.027	0.031
-157.720	-9.643	-0.257	0.171
-156.706	-200.000	-0.019	-0.121
-155.691	-29.090	0.217	0.125
-154.677	800.000	0.114	-0.390
-153.662	238.933	-0.242	-0.402
-152.647	-82.412	0.103	-0.033
-151.633	-200.000	0.010	0.171
-150.618	-108.090	0.173	0.038
-149.604	-5.386	0.232	0.159
-148.589	-154.113	-0.380	-0.026
-147.574	0.955	0.139	0.099
-146.560	256.554	-0.138	0.237
-145.545	256.112	0.184	-0.315
-144.531	-60.148	0.225	0.096
-143.516	-25.453	-0.102	-0.060
-142.502	-200.000	0.000	-0.052
-141.487	-51.811	0.275	-0.128
-140.472	-101.196	0.118	-0.029
-139.458	-200.000	-0.024	0.151
-138.443	22.924	0.084	-0.069
-137.429	-42.679	-0.196	-0.099
-136.414	-133.545	0.215	-0.027
-135.399	154.265	0.173	-0.238
-134.385	800.000	-0.043	-0.165
-133.370	339.086	0.148	-0.288
-132.356	800.000	-0.057	0.161
-131.341	184.751	-0.081	-0.120
-130.326	-80.534	-0.121	0.040
-129.312	-200.000	-0.023	0.377
-128.297	166.443	-0.229	0.323
-127.283	245.759	0.064	0.108
-126.268	-180.301	-0.218	-0.005
-125.253	89.630	-0.233	-0.259
-124.239	412.387	-0.068	-0.145
-123.224	800.000	-0.042	0.152
-122.210	-132.154	0.280	-0.036
-121.195	178.329	-0.104	0.152
-120.180	61.981	0.334	-0.333
-119.166	-16.585	0.165	0.104
-118.151	-181.968	0.167	0.003
-117.137	800.000	0.107	0.304
-116.122	84.672	-0.160	0.175
-115.107	-25.205	0.207	-0.122
-114.093	257.222	0.138	0.237
-113.078	45.433	0.190	-0.175
-112.064	-200.000	0.058	-0.304
-111.049	154.553	-0.063	0.086
-110.034	-71.256	0.320	-0.120
-109.020	18.210	0.136	-0.108
-108.005	523.255	-0.129	0.303
-106.991	800.000	0.055	0.230
-105.976	-200.000	0.004	-0.083
-104.962	252.485	0.113	-0.192
-103.947	-10.199	0.069	0.046
-102.932	482.762	-0.029	-0.067
-101.918	-40.816	0.350	-0.181
-100.903	800.000	0.056	0.243
-99.889	41.060	-0.139	0.125
-98.874	-54.664	-0.064	-0.029
-97.859	343.247	0.102	0.199
-96.845	-161.544	-0.142	-0.007
-95.830	571.561	0.079	-0.192
-94.816	-147.298	0.175	0.015
-93.801	112.516	-0.224	-0.270
-92.786	-93.721	0.308	-0.085
-91.772	-2.250	0.085	0.060
-90.757	-200.000	0.029	-0.313
-89.743	-119.088	0.120	-0.021
-88.728	-12.623	-0.400	0.260
-87.713	-162.839	0.041	0.002
-86.699	56.185	-0.116	0.112
-85.684	221.922	0.194	-0.311
-84.670	75.008	0.210	-0.220
-83.655	-17.453	0.234	0.147
-82.640	-200.000	0.039	-0.252
-81.626	-113.976	0.288	0.056
-80.611	-132.225	-0.291	0.038
-79.597	489.908	-0.125	0.284
-78.582	136.517	-0.212	0.276
-77.567	61.022	0.297	0.293
-76.553	-172.280	-0.075	0.002
-75.538	-98.931	0.149	0.038
-74.524	639.012	0.104	0.265
-73.509	102.852	0.088	0.102
-72.494	12.573	-0.361	0.278
-71.480	475.138	0.039	-0.088
-70.465	800.000	-0.131	0.411
-69.451	-67.490	0.281	0.110
-68.436	120.761	0.028	0.035
-67.422	0.159	-0.045	0.032
-66.407	459.249	0.095	-0.211
-65.392	108.483	-0.397	-0.473
-64.378	-200.000	-0.032	-0.206
-63.363	98.612	0.177	0.203
-62.349	51.867	-0.317	0.301
-61.334	67.068	-0.781	-0.793
-60.319	14.285	0.299	0.232
-59.305	-200.000	0.057	-1.022
-58.290	218.337	0.708	1.126
-57.276	800.000	0.470	1.526
-56.261	-200.000	81.472	499.092
-55.246	552.554	1378.928	3298.532
-54.232	179.883	2617.328	3818.757
-53.217	121.981	2257.213	2804.859
-52.203	49.721	1705.479	1599.944
-51.188	41.821	1435.436	1295.640
-50.173	38.506	1390.608	1234.264
-49.159	57.003	1428.411	1386.058
-48.144	62.103	1446.862	1436.376
-47.130	42.348	1409.049	1274.970
-46.115	38.534	1393.451	1236.770
-45.100	38.375	1388.211	1231.068
-44.086	38.313	1385.631	1228.342
-43.071	38.406	1382.752	1226.326
-42.057	38.274	1380.829	1223.747
-41.042	38.262	1379.432	1222.384
-40.027	38.334	1377.954	1221.475
-39.013	38.254	1376.022	1219.213
-37.998	38.178	1374.683	1217.504
-36.984	38.450	1372.139	1216.895
-35.969	38.457	1370.260	1215.229
-34.954	38.358	1368.895	1213.354
-33.940	38.522	1367.134	1212.758
-32.925	38.540	1366.006	1211.823
-31.911	38.588	1364.163	1210.435
-30.896	38.543	1362.938	1209.023
-29.881	38.544	1361.500	1207.704
-28.867	38.554	1359.773	1206.186
-27.852	38.580	1358.227	1204.929
-26.838	38.562	1357.185	1203.848
-25.823	38.531	1355.702	1202.290
-24.809	38.525	1354.083	1200.769
-23.794	38.518	1353.166	1199.871
-22.779	38.540	1351.216	1198.228
-21.765	38.607	1349.782	1197.317
-20.750	38.499	1348.721	1195.668
-19.736	38.498	1347.252	1194.312
-18.721	38.292	1346.123	1192.007
-17.706	38.411	1344.912	1191.616
-16.692	38.372	1343.815	1190.358
-15.677	38.395	1342.993	1189.723
-14.663	38.377	1341.659	1188.383
-13.648	38.424	1340.092	1187.236
-12.633	38.381	1339.252	1186.184
-11.619	38.350	1338.475	1185.260
-10.604	38.368	1337.284	1184.264
-9.590	38.393	1336.298	1183.498
-8.575	38.342	1335.296	1182.254
-7.560	38.335	1334.448	1181.415
-6.546	38.442	1333.256	1180.956
-5.531	38.382	1332.683	1180.039
-4.517	38.454	1331.482	1179.366
-3.502	38.450	1330.682	1178.588
-2.487	38.312	1330.136	1177.221
-1.473	38.524	1325.977	1174.772
-0.458	37.634	1311.628	1156.724
0.556	32.736	1291.698	1117.913
1.571	29.138	1296.480	1100.497
2.586	28.115	1312.345	1107.673
3.600	26.874	1300.644	1090.242
4.615	18.727	1220.060	976.472
5.629	6.200	1133.470	840.500
6.644	0.519	1108.831	792.396
7.659	0.075	1105.783	787.823
8.673	0.101	1104.646	787.079
9.688	-0.024	1102.854	785.080
10.702	0.604	1102.114	787.762
11.717	8.481	1114.793	838.188
12.731	19.355	1131.135	907.965
13.746	22.756	1134.215	928.284
14.761	22.327	1133.423	925.294
15.775	22.106	1133.134	923.816
16.790	21.878	1131.900	921.531
17.804	21.832	1131.439	920.835
18.819	21.944	1131.260	921.194
19.834	22.134	1130.021	921.098
20.848	22.051	1129.895	920.478
21.863	21.958	1129.463	919.558
22.877	22.008	1128.613	919.048
23.892	21.922	1127.710	917.781
24.907	21.996	1127.146	917.630
25.921	21.997	1125.565	916.264
26.936	21.966	1124.762	915.368
27.950	21.943	1122.301	913.164
28.965	21.736	1120.869	910.842
29.980	21.856	1119.103	909.952
30.994	22.060	1118.440	910.390
32.009	22.001	1116.883	908.734
33.023	21.920	1115.564	907.164
34.038	21.935	1114.831	906.562
35.053	22.079	1114.427	906.898
36.067	22.044	1113.236	905.671
37.082	22.159	1112.354	905.460
38.096	22.123	1112.433	905.262
39.111	22.225	1111.832	905.218
40.126	22.172	1109.402	902.886
41.140	21.815	1107.884	899.738
42.155	21.682	1106.394	897.771
43.169	21.643	1105.436	896.710
44.184	21.701	1104.657	896.298
45.199	21.584	1103.781	894.911
46.213	21.674	1102.410	894.177
47.228	21.901	1101.500	894.517
48.242	21.900	1100.694	893.782
49.257	21.956	1099.972	893.401
50.271	22.088	1099.095	893.278
51.286	22.078	1098.351	892.547
52.301	22.055	1097.640	891.771
53.315	22.072	1096.465	890.824
54.330	21.921	1095.620	889.294
55.344	22.026	1094.807	889.087
56.359	21.911	1093.738	887.557
57.374	21.750	1093.000	886.068
58.388	21.894	1091.752	885.704
59.403	21.661	1091.099	883.921
60.417	21.637	1090.393	883.152
61.432	21.761	1089.638	883.085
62.447	21.813	1088.987	882.740
63.461	21.714	1088.220	881.542
64.476	21.754	1086.822	880.533
65.490	21.631	1085.929	879.115
66.505	21.699	1085.206	878.790
67.520	21.748	1084.282	878.214
68.534	21.585	1083.214	876.455
69.549	21.249	1082.024	873.733
70.563	21.255	1081.288	873.089
71.578	21.310	1080.360	872.539
72.593	21.141	1079.599	871.003
73.607	21.242	1079.289	871.181
74.622	21.520	1078.722	872.031
75.636	21.499	1077.996	871.261
76.651	21.505	1076.642	870.119
77.666	21.389	1076.189	869.103
78.680	21.528	1075.510	869.165
79.695	21.480	1074.638	868.145
80.709	21.649	1074.074	868.452
81.724	21.582	1073.032	867.203
82.739	21.770	1072.196	867.380
83.753	22.016	1071.802	868.199
84.768	22.266	1071.287	868.939
85.782	22.434	1070.020	868.664
86.797	22.195	1069.349	866.865
87.812	22.108	1068.024	865.289
88.826	22.040	1067.197	864.207
89.841	22.217	1066.479	864.420
90.855	22.303	1065.119	863.662
91.870	22.201	1064.390	862.495
92.884	22.055	1062.577	860.234
93.899	21.890	1062.333	859.153
94.914	22.203	1060.728	859.309
95.928	21.990	1059.797	857.437
96.943	21.838	1058.390	855.482
97.957	21.489	1057.585	853.052
98.972	21.456	1055.859	851.425
99.987	21.776	1055.250	852.417
101.001	22.003	1054.607	852.926
102.016	21.985	1053.542	851.902
103.030	21.688	1052.889	849.855
104.045	21.698	1051.763	848.921
105.060	21.549	1050.521	847.121
106.074	21.676	1050.313	847.491
107.089	21.994	1049.498	848.296
108.103	21.886	1048.304	846.738
109.118	21.704	1046.793	844.565
110.133	21.856	1045.655	844.304
111.147	21.540	1044.662	841.905
112.162	21.359	1043.762	840.234
113.176	21.742	1042.621	841.080
114.191	21.590	1041.795	839.613
115.206	21.246	1040.773	837.067
116.220	21.141	1040.378	836.169
117.235	21.459	1039.113	836.601
118.249	21.460	1038.118	835.730
119.264	21.301	1037.310	834.250
120.279	21.409	1036.919	834.377
121.293	21.452	1035.710	833.533
122.308	21.453	1034.403	832.412
123.322	21.525	1033.128	831.654
124.337	21.306	1032.314	829.887
125.352	20.823	1030.453	826.025
126.366	20.826	1029.275	825.021
127.381	21.482	1029.363	828.127
128.395	21.875	1029.217	829.798
129.410	22.078	1027.822	829.557
130.424	21.964	1027.003	828.283
131.439	21.997	1026.042	827.589
132.454	21.908	1025.434	826.610
133.468	21.999	1023.950	825.767
134.483	22.037	1023.553	825.553
135.497	22.178	1022.997	825.693
136.512	22.244	1021.710	824.890
137.527	22.275	1020.758	824.194
138.541	22.139	1020.489	823.269
139.556	22.070	1019.645	822.190
140.570	22.237	1018.794	822.215
141.585	22.281	1017.461	821.272
142.600	22.160	1016.427	819.798
143.614	22.489	1015.994	820.913
144.629	22.460	1015.531	820.327
145.643	22.385	1013.339	818.138
146.658	22.174	1012.368	816.303
147.673	22.107	1011.255	815.021
148.687	22.079	1009.950	813.765
149.702	22.025	1009.059	812.726
150.716	21.845	1008.552	811.413
151.731	22.037	1007.801	811.626
152.746	22.223	1007.197	811.928
153.760	22.370	1006.549	812.009
154.775	22.350	1005.790	811.232
155.789	22.280	1005.098	810.281
156.804	22.264	1004.123	809.353
157.819	22.429	1002.756	808.933
158.833	22.511	1002.238	808.820
159.848	22.443	1001.255	807.647
160.862	22.350	999.786	805.963
161.877	22.407	998.722	805.295
162.892	22.408	997.458	804.207
163.906	22.230	996.906	802.881
164.921	22.308	995.734	802.222
165.935	22.362	994.731	801.590
166.950	22.326	994.111	800.853
167.964	22.264	993.288	799.837
168.979	22.131	992.168	798.262
169.994	22.207	990.882	797.500
171.008	22.293	990.592	797.588
172.023	22.337	989.640	796.950
173.037	22.203	988.462	795.322
174.052	21.938	987.341	793.153
175.067	21.998	987.280	793.306
176.081	22.291	986.260	793.737
177.096	22.105	985.489	792.210
178.110	21.720	984.818	789.862
179.125	21.656	984.079	788.914
180.140	21.778	983.216	788.703
181.154	21.922	982.999	789.104
182.169	22.208	982.714	790.092
183.183	22.375	982.123	790.294
184.198	22.291	981.238	789.138
185.213	22.220	980.576	788.218
186.227	22.293	979.788	787.840
187.242	22.418	978.983	787.684
188.256	22.411	978.187	786.940
189.271	22.350	977.512	786.058
190.286	22.136	976.290	784.051
191.300	21.671	974.638	780.581
192.315	20.747	973.190	775.241
193.329	20.715	973.073	774.934
194.344	21.640	973.366	779.219
195.359	22.144	973.486	781.485
196.373	22.197	972.488	780.854
197.388	22.118	971.956	780.007
198.402	22.244	971.090	779.800
199.417	22.099	970.628	778.717
200.432	21.787	969.523	776.382
201.446	21.855	968.840	776.065
202.461	21.954	968.135	775.870
203.475	21.053	966.331	770.377
204.490	20.335	964.790	765.914
205.504	21.130	965.394	769.835
206.519	21.876	965.273	772.959
207.534	21.916	964.856	772.730
208.548	22.296	964.318	773.907
209.563	22.033	963.545	772.059
210.577	22.114	962.729	771.696
211.592	22.402	962.449	772.667
212.607	22.327	961.702	771.670
213.621	22.354	960.872	771.052
214.636	22.389	959.904	770.359
215.650	22.327	959.248	769.497
216.665	22.435	958.815	769.549
217.680	22.440	957.387	768.360
218.694	22.021	956.657	765.877
219.709	21.822	955.681	764.162
220.723	22.135	955.718	765.487
221.738	22.199	955.074	765.183
222.753	22.200	954.178	764.402
223.767	22.194	953.848	764.045
224.782	22.590	953.204	765.177
225.796	22.554	952.873	764.688
226.811	21.828	951.237	760.163
227.826	21.202	949.969	756.370
228.840	21.482	948.899	756.663
229.855	21.504	948.671	756.511
230.869	21.126	947.421	753.816
231.884	21.578	947.341	755.636
232.899	22.270	947.245	758.479
233.913	22.154	946.756	757.519
234.928	22.150	946.115	756.920
235.942	22.093	945.504	756.120
236.957	21.835	944.340	754.013
237.972	21.792	943.890	753.403
238.986	21.918	943.449	753.527
240.001	21.769	943.401	752.782
241.015	22.059	942.124	752.938
242.030	22.172	941.387	752.767
243.045	22.104	941.451	752.458
244.059	22.380	940.736	753.002
245.074	22.164	939.460	750.992
246.088	21.928	938.164	748.884
247.103	22.109	938.571	749.916
248.117	22.648	938.266	751.904
249.132	22.794	937.771	752.060
250.147	22.830	937.239	751.724
251.161	23.182	936.474	752.537
252.176	23.019	935.778	751.222
253.190	23.095	935.433	751.200
254.205	23.339	934.835	751.688
255.220	23.156	934.292	750.412
256.234	23.080	933.493	749.381
257.249	22.988	932.659	748.255
258.263	22.917	931.915	747.289
259.278	22.959	931.770	747.285
260.293	23.167	930.808	747.327
261.307	23.108	929.874	746.261
262.322	22.765	929.168	744.182
263.336	22.068	927.034	739.477
264.351	21.150	924.903	733.854
265.366	21.148	924.917	733.792
266.380	22.228	925.551	738.766
267.395	22.814	925.377	741.024
268.409	22.636	924.577	739.571
269.424	22.896	923.736	739.924
270.439	22.898	923.100	739.358
271.453	22.997	922.850	739.505
272.468	23.236	922.030	739.783
273.482	23.171	922.164	739.553
274.497	22.634	920.936	736.259
275.512	22.425	919.817	734.428
276.526	22.821	919.672	735.899
277.541	22.920	919.215	735.879
278.555	22.623	918.413	733.937
279.570	22.473	917.619	732.614
280.585	22.878	916.785	733.566
281.599	22.877	915.908	732.794
282.614	22.113	914.733	728.625
283.628	22.145	914.433	728.451
284.643	22.557	914.210	729.917
285.657	22.128	913.079	727.175
286.672	21.884	911.884	725.151
287.687	22.366	912.134	727.278
288.701	22.591	911.426	727.575
289.716	22.275	910.411	725.400
290.730	22.241	909.496	724.467
291.745	22.061	908.339	722.741
292.760	22.160	908.530	723.236
293.774	23.106	909.084	727.503
294.789	23.370	909.058	728.506
295.803	23.423	908.155	727.933
296.818	23.465	907.368	727.412
297.833	23.060	906.085	724.660
298.847	22.799	905.734	723.247
299.862	23.142	905.698	724.558
300.876	23.464	905.127	725.354
301.891	23.419	904.080	724.267
302.906	22.920	903.196	721.458
303.920	23.128	902.586	721.754
304.935	23.404	902.552	722.792
305.949	23.436	901.711	722.183
306.964	23.080	901.097	720.179
307.979	23.187	900.708	720.239
308.993	23.464	900.862	721.423
310.008	23.552	899.932	720.974
311.022	23.192	898.975	718.682
312.037	23.145	898.245	717.843
313.052	22.964	897.222	716.228
314.066	22.095	895.484	711.261
315.081	21.692	895.179	709.324
316.095	22.698	895.200	713.349
317.110	23.082	895.193	714.836
318.125	22.225	893.226	709.742
319.139	21.265	891.934	704.781
320.154	21.225	891.586	704.284
321.168	22.064	891.963	707.902
322.183	22.782	892.088	710.831
323.197	22.926	891.605	710.964
324.212	23.296	891.115	711.998
325.227	23.362	890.566	711.760
326.241	23.109	890.054	710.275
327.256	23.011	889.444	709.331
328.270	22.974	888.669	708.502
329.285	22.740	887.750	706.766
330.300	22.470	886.917	704.961
331.314	22.989	886.201	706.407
332.329	23.156	886.264	707.059
333.343	23.315	886.036	707.452
334.358	23.318	885.339	706.843
335.373	23.368	885.340	706.983
336.387	23.724	885.271	708.285
337.402	23.668	885.282	708.007
338.416	23.587	884.709	707.164
339.431	23.767	884.297	707.490
340.446	24.008	883.732	707.932
341.460	23.697	883.329	706.311
342.475	23.593	882.470	705.147
343.489	23.679	882.046	705.088
344.504	23.888	882.218	705.994
345.519	24.183	881.465	706.496
346.533	24.248	881.117	706.413
347.548	24.169	880.553	705.587
348.562	23.980	880.326	704.595
349.577	24.096	879.363	704.219
350.592	24.210	878.459	703.884
351.606	23.971	877.978	702.492
352.621	23.893	876.949	701.297
353.635	23.939	875.821	700.517
354.650	23.326	874.309	696.834
355.665	22.209	873.101	691.418
356.679	22.647	872.930	692.945
357.694	23.212	872.346	694.635
358.708	23.157	871.398	693.607
359.723	23.356	871.797	694.641
360.738	23.726	871.458	695.760
361.752	23.756	870.956	695.416
362.767	24.058	870.612	696.260
363.781	24.407	870.146	697.189
364.796	24.396	869.909	696.895
365.810	24.342	869.450	696.257
366.825	24.487	868.712	696.169
367.840	24.076	867.947	693.892
368.854	23.661	867.247	691.655
369.869	23.806	866.623	691.659
370.883	23.846	866.210	691.425
371.898	23.709	866.060	690.710
372.913	23.895	865.410	690.853
373.927	23.956	864.645	690.419
374.942	24.019	864.342	690.362
375.956	24.053	864.371	690.455
376.971	24.170	863.613	690.241
377.986	24.375	863.535	690.911
379.000	24.469	862.745	690.581
380.015	24.254	862.068	689.148
381.029	24.413	861.739	689.441
382.044	24.490	861.092	689.159
383.059	24.407	860.402	688.222
384.073	24.555	859.680	688.158
385.088	24.401	859.322	687.216
386.102	24.213	858.142	685.488
387.117	24.105	858.037	684.929
388.132	23.842	856.818	682.886
389.146	23.296	855.625	679.779
390.161	23.677	855.651	681.198
391.175	24.127	855.481	682.730
392.190	23.827	854.547	680.775
393.205	22.447	852.335	673.677
394.219	21.033	850.560	666.812
395.234	20.833	850.489	665.935
396.248	22.617	851.715	673.658
397.263	23.987	852.393	679.369
398.278	24.021	852.055	679.169
399.292	23.653	851.148	676.983
400.307	23.576	851.050	676.554
401.321	23.808	850.547	676.978
402.336	24.234	850.292	678.334
403.350	24.491	850.212	679.189
404.365	24.811	850.085	680.244
405.380	25.121	849.850	681.176
406.394	25.079	849.244	680.469
407.409	25.130	848.303	679.847
408.423	24.949	848.347	679.138
409.438	25.102	847.908	679.305
410.453	25.157	847.182	678.873
411.467	25.005	846.917	678.024
412.482	25.130	846.222	677.881
413.496	25.087	846.427	677.823
414.511	25.054	845.906	677.219
415.526	25.219	845.193	677.213
416.540	24.935	844.552	675.567
417.555	24.699	843.507	673.781
418.569	24.725	843.500	673.815
419.584	24.667	842.838	673.008
420.599	24.604	842.201	672.203
421.613	147.184	1364.937	1771.041
422.628	128.739	1441.150	1771.149
