DTS Sentinel unit serial number:	SN413079Multiplexer serial number:	ORYXHardware model number:	OX4-SRSoftware version number:	ORYX F/W v4.00 Oryx Data Collector v3.7.2.0data status	okinstallation	princeton_trtdifferential loss correction	single-endedforward channel	channel 1reverse channel	N/Adate	2019/09/13time	13:42:35forward acquisition time	60.00reverse acquisition time	0.00gamma	496.2192k internal	0.2304k external	0.2304temperature offset calibration	1.0162default loss term (dB/km)	0.3790temperature slope calibration	1.0000multiplexer offset coefficient	1.0000multiplexer slope coefficient	1.0000fibre end	0.00T internal ref (°C)	35.12T ext. ref 1 (°C)	4.59T ext. ref 2 (°C)	31.37length (m)	temperature (°C)	Stokes	anti-Stokes-747.200	-190.382	-0.049	-0.001
-746.185	-10.972	0.150	-0.101
-745.171	-200.000	-0.060	-0.333
-744.156	77.792	0.207	0.224
-743.142	-200.000	0.030	-0.208
-742.127	266.413	-0.046	-0.082
-741.112	800.000	0.091	0.270
-740.098	-114.897	-0.323	0.063
-739.083	-200.000	0.046	0.293
-738.069	-96.586	0.173	-0.046
-737.054	-200.000	-0.068	-0.353
-736.039	566.226	-0.135	-0.332
-735.025	270.454	-0.113	0.203
-734.010	7.134	-0.266	0.202
-732.996	-200.000	0.035	-0.376
-731.981	71.617	-0.115	-0.122
-730.966	-106.557	-0.314	0.071
-729.952	800.000	0.043	-0.137
-728.937	77.046	0.127	-0.138
-727.923	800.000	-0.050	-0.146
-726.908	-132.127	0.032	-0.004
-725.894	-2.471	-0.417	0.297
-724.879	-116.868	0.292	0.054
-723.864	-200.000	-0.007	0.220
-722.850	23.680	-0.230	-0.193
-721.835	-200.000	0.016	-0.221
-720.821	27.648	0.103	-0.088
-719.806	120.477	-0.238	0.301
-718.791	-200.000	-0.034	-0.253
-717.777	-3.308	-0.178	0.126
-716.762	-200.000	0.007	-0.219
-715.748	97.097	-0.063	-0.073
-714.733	-200.000	0.020	-0.251
-713.718	-116.458	0.252	-0.047
-712.704	382.659	0.058	0.120
-711.689	-152.320	-0.353	0.026
-710.675	800.000	0.066	0.271
-709.660	37.859	-0.093	-0.084
-708.645	-109.827	0.188	-0.040
-707.631	88.475	-0.207	0.234
-706.616	800.000	-0.122	0.392
-705.602	800.000	0.079	-0.256
-704.587	-200.000	0.024	0.131
-703.572	-200.000	0.026	-0.179
-702.558	200.399	-0.184	-0.288
-701.543	-16.073	0.259	-0.168
-700.529	-124.862	-0.485	0.076
-699.514	-4.924	-0.374	0.262
-698.499	-125.044	-0.357	-0.056
-697.485	-120.772	0.134	-0.023
-696.470	-200.000	-0.017	-0.265
-695.456	195.692	-0.126	0.195
-694.441	-43.543	-0.071	-0.036
-693.426	-146.804	-0.397	0.035
-692.412	800.000	0.068	-0.197
-691.397	-200.000	-0.007	-0.126
-690.383	-168.691	-0.076	-0.003
-689.368	582.189	-0.063	0.156
-688.354	800.000	-0.065	-0.231
-687.339	800.000	-0.049	0.147
-686.324	-136.648	0.225	-0.026
-685.310	428.628	-0.145	-0.318
-684.295	-148.968	-0.270	-0.022
-683.281	-148.475	-0.077	0.006
-682.266	-65.092	-0.250	0.103
-681.251	11.253	-0.316	0.246
-680.237	88.253	0.010	-0.011
-679.222	42.688	0.150	0.138
-678.208	-89.110	-0.201	0.060
-677.193	18.479	0.049	0.040
-676.178	-200.000	-0.012	-0.223
-675.164	508.820	0.138	-0.326
-674.149	-200.000	0.052	0.247
-673.135	-100.752	0.123	0.031
-672.120	-158.241	-0.086	0.005
-671.105	-66.576	-0.393	-0.158
-670.091	242.178	0.212	-0.360
-669.076	-193.972	-0.231	0.002
-668.062	800.000	-0.063	0.235
-667.047	107.406	0.329	-0.398
-666.032	-200.000	-0.037	-0.267
-665.018	-200.000	0.000	-0.174
-664.003	163.165	-0.069	0.099
-662.989	648.035	-0.021	-0.053
-661.974	800.000	0.036	-0.147
-660.959	-146.385	0.047	0.004
-659.945	20.606	-0.085	0.069
-658.930	80.388	0.116	-0.126
-657.916	-121.238	-0.202	-0.034
-656.901	-53.361	0.086	0.040
-655.886	276.778	-0.170	-0.306
-654.872	-200.000	-0.026	-0.190
-653.857	113.368	0.138	-0.170
-652.843	800.000	-0.052	-0.212
-651.828	27.467	-0.096	-0.082
-650.814	-12.308	-0.216	0.143
-649.799	-135.412	0.211	-0.026
-648.784	-146.210	-0.198	-0.018
-647.770	-200.000	0.041	-0.289
-646.755	196.494	0.030	0.046
-645.741	-67.889	-0.114	0.045
-644.726	53.557	-0.163	-0.159
-643.711	133.095	0.058	0.076
-642.697	137.119	-0.294	-0.390
-641.682	209.955	0.286	-0.455
-640.668	-200.000	0.086	-0.471
-639.653	67.931	0.101	0.104
-638.638	-74.262	-0.168	0.062
-637.624	-200.000	-0.046	-0.310
-636.609	754.821	0.134	-0.367
-635.595	101.269	-0.090	-0.106
-634.580	-55.380	0.113	0.052
-633.565	-35.608	0.315	0.173
-632.551	93.639	0.152	0.174
-631.536	-200.000	0.026	-0.282
-630.522	195.327	-0.026	-0.040
-629.507	-39.194	0.226	-0.120
-628.492	-200.000	0.073	-0.396
-627.478	56.965	-0.169	0.167
-626.463	-7.056	-0.290	0.200
-625.449	33.977	0.213	-0.188
-624.434	676.787	-0.045	-0.119
-623.419	220.165	-0.038	-0.063
-622.405	-113.460	0.046	0.009
-621.390	299.943	-0.075	0.140
-620.376	-45.374	-0.299	0.151
-619.361	-135.874	0.227	0.027
-618.346	-4.941	0.071	0.049
-617.332	-200.000	0.071	-0.448
-616.317	-13.294	-0.071	-0.047
-615.303	-175.332	-0.301	0.008
-614.288	161.552	0.039	-0.056
-613.273	505.188	0.052	-0.122
-612.259	-119.557	-0.287	-0.050
-611.244	-13.105	-0.426	-0.280
-610.230	-106.519	0.226	-0.051
-609.215	102.330	0.302	-0.357
-608.201	39.718	-0.186	-0.169
-607.186	67.816	0.273	0.283
-606.171	-114.779	-0.264	0.051
-605.157	-124.804	-0.144	0.022
-604.142	-76.928	-0.095	-0.034
-603.128	407.084	-0.098	0.210
-602.113	-200.000	-0.003	-0.223
-601.098	60.902	-0.268	0.269
-600.084	-52.211	-0.343	-0.161
-599.069	233.851	0.074	-0.124
-598.055	-82.471	-0.212	-0.070
-597.040	507.735	-0.195	0.459
-596.025	-37.218	-0.429	-0.232
-595.011	-63.866	-0.144	-0.060
-593.996	-102.773	0.067	-0.016
-592.982	211.818	0.034	0.055
-591.967	-43.422	-0.058	0.029
-590.952	642.171	-0.143	0.369
-589.938	91.751	0.160	-0.182
-588.923	-41.548	0.060	0.031
-587.909	-28.312	-0.033	-0.019
-586.894	-118.661	-0.226	-0.040
-585.879	29.787	0.172	-0.148
-584.865	-57.197	-0.174	0.077
-583.850	-200.000	-0.051	-0.230
-582.836	-200.000	0.028	0.199
-581.821	-93.844	0.229	-0.064
-580.806	124.265	0.091	0.116
-579.792	800.000	0.031	-0.098
-578.777	280.020	-0.127	0.230
-577.763	-80.590	0.268	0.090
-576.748	61.903	0.134	0.135
-575.733	56.056	0.046	0.045
-574.719	410.266	0.040	0.087
-573.704	79.383	-0.199	0.216
-572.690	-22.545	0.073	-0.045
-571.675	239.873	-0.094	-0.158
-570.661	146.799	0.019	-0.026
-569.646	100.486	0.206	-0.242
-568.631	800.000	-0.057	-0.242
-567.617	-125.365	0.241	-0.037
-566.602	-200.000	-0.044	-0.363
-565.588	-111.844	-0.284	0.058
-564.573	41.891	0.245	0.225
-563.558	-168.147	0.246	0.010
-562.544	-81.639	0.229	0.076
-561.529	-62.472	-0.284	0.119
-560.515	433.061	-0.126	-0.276
-559.500	-101.839	0.469	0.115
-558.485	-95.901	-0.329	-0.089
-557.471	-31.025	0.409	0.233
-556.456	323.804	-0.030	-0.058
-555.442	-152.557	-0.168	-0.012
-554.427	-166.512	0.156	0.007
-553.412	-84.728	-0.304	-0.097
-552.398	-0.262	0.170	-0.122
-551.383	-200.000	-0.023	0.222
-550.369	380.063	-0.105	-0.217
-549.354	-106.167	-0.102	0.023
-548.339	-100.817	0.386	-0.096
-547.325	-200.000	-0.080	0.385
-546.310	800.000	0.102	-0.304
-545.296	15.989	0.240	0.191
-544.281	153.622	0.108	-0.150
-543.266	50.323	0.216	-0.207
-542.252	-36.046	-0.128	-0.070
-541.237	-149.703	0.069	0.006
-540.223	140.645	0.188	-0.251
-539.208	129.654	0.115	-0.148
-538.193	3.966	-0.228	-0.168
-537.179	-122.066	0.091	0.015
-536.164	-87.657	0.396	-0.121
-535.150	277.241	0.149	-0.268
-534.135	-130.220	0.153	0.021
-533.121	210.968	-0.198	-0.314
-532.106	800.000	-0.022	-0.093
-531.091	-200.000	0.006	-0.073
-530.077	147.619	-0.120	0.163
-529.062	-57.930	-0.070	-0.031
-528.048	-134.983	-0.197	0.024
-527.033	-200.000	0.020	0.242
-526.018	-51.787	0.111	0.052
-525.004	24.933	-0.189	-0.159
-523.989	-151.426	-0.274	0.021
-522.975	-90.285	0.302	-0.089
-521.960	-48.995	0.024	0.012
-520.945	36.967	-0.221	-0.198
-519.931	-200.000	0.019	-0.144
-518.916	-49.770	-0.033	0.016
-517.902	-200.000	-0.037	0.333
-516.887	800.000	0.013	-0.041
-515.872	408.755	0.195	-0.416
-514.858	-200.000	-0.014	-0.078
-513.843	755.640	-0.012	0.034
-512.829	-29.999	-0.254	-0.146
-511.814	-114.300	0.284	0.055
-510.799	-200.000	0.023	0.108
-509.785	27.737	-0.158	-0.134
-508.770	310.251	0.104	-0.196
-507.756	-107.338	-0.072	0.016
-506.741	-200.000	0.009	-0.144
-505.726	-83.861	0.174	-0.056
-504.712	-170.712	0.286	0.010
-503.697	-200.000	-0.008	-0.080
-502.683	85.861	0.181	0.201
-501.668	800.000	0.006	0.027
-500.653	-115.757	-0.352	-0.067
-499.639	-200.000	-0.005	-0.280
-498.624	223.929	0.104	-0.170
-497.610	800.000	0.051	0.174
-496.595	800.000	0.072	-0.226
-495.581	-200.000	-0.035	0.164
-494.566	-84.805	0.261	-0.083
-493.551	-103.538	0.049	-0.012
-492.537	-94.462	0.260	-0.072
-491.522	35.462	-0.205	-0.181
-490.508	-10.270	-0.190	-0.127
-489.493	-49.140	-0.507	-0.244
-488.478	-106.443	0.317	0.071
-487.464	34.872	0.113	-0.099
-486.449	800.000	-0.035	0.112
-485.435	44.657	0.036	0.033
-484.420	338.870	0.038	0.075
-483.405	-67.710	0.331	0.131
-482.391	58.657	0.172	0.170
-481.376	684.112	-0.105	0.277
-480.362	50.737	0.093	0.089
-479.347	316.642	0.052	-0.098
-478.332	-51.147	0.106	0.050
-477.318	-200.000	0.010	-0.149
-476.303	-200.000	-0.032	0.316
-475.289	59.506	-0.075	-0.075
-474.274	45.841	-0.256	0.238
-473.259	-200.000	0.027	0.319
-472.245	800.000	0.031	-0.115
-471.230	800.000	0.046	0.169
-470.216	-113.430	0.063	0.012
-469.201	-34.178	-0.281	-0.156
-468.186	800.000	-0.023	0.093
-467.172	800.000	-0.065	-0.216
-466.157	316.879	0.127	-0.242
-465.143	-3.922	0.065	-0.045
-464.128	800.000	-0.113	0.357
-463.113	608.498	0.104	-0.261
-462.099	800.000	0.086	0.324
-461.084	-99.326	0.212	0.054
-460.070	-200.000	-0.012	0.173
-459.055	308.573	-0.091	-0.171
-458.040	-200.000	0.005	0.218
-457.026	-7.740	-0.294	0.200
-456.011	246.449	0.044	0.075
-454.997	-83.703	0.008	-0.003
-453.982	-78.591	0.336	0.116
-452.968	260.466	-0.075	0.131
-451.953	-200.000	-0.016	-0.127
-450.938	263.425	-0.119	-0.208
-449.924	-16.956	0.339	-0.216
-448.909	79.050	-0.081	0.087
-447.895	-112.535	-0.304	-0.061
-446.880	525.749	-0.069	-0.163
-445.865	-68.486	-0.415	-0.162
-444.851	-156.038	-0.211	-0.013
-443.836	125.558	0.331	0.421
-442.822	29.716	-0.046	0.040
-441.807	17.270	-0.259	-0.207
-440.792	-146.325	-0.095	0.008
-439.778	200.211	0.119	0.184
-438.763	14.882	-0.290	0.228
-437.749	-164.853	0.286	-0.013
-436.734	-153.233	-0.258	0.018
-435.719	-22.211	0.183	-0.112
-434.705	-200.000	0.003	0.146
-433.690	-200.000	-0.047	0.216
-432.676	3.478	-0.328	-0.240
-431.661	-56.013	-0.199	0.089
-430.646	-200.000	-0.023	0.220
-429.632	355.021	-0.103	-0.206
-428.617	-124.098	0.163	-0.026
-427.603	99.472	0.292	0.340
-426.588	5.448	0.154	0.115
-425.573	800.000	0.049	0.171
-424.559	-44.310	0.138	-0.070
-423.544	800.000	0.103	0.352
-422.530	800.000	0.089	-0.369
-421.515	99.316	-0.010	-0.011
-420.500	-36.841	0.386	0.208
-419.486	-200.000	0.030	0.195
-418.471	-91.400	-0.262	0.075
-417.457	-200.000	0.009	-0.166
-416.442	-182.048	0.214	0.004
-415.428	334.321	-0.110	-0.214
-414.413	-28.549	0.131	-0.076
-413.398	114.459	0.207	-0.253
-412.384	89.332	0.218	-0.244
-411.369	-134.970	-0.137	0.017
-410.355	6.048	-0.153	0.114
-409.340	214.976	0.186	0.296
-408.325	602.897	0.090	-0.225
-407.311	-200.000	0.022	0.285
-406.296	-200.000	-0.016	0.099
-405.282	-200.000	-0.002	0.189
-404.267	71.057	0.042	-0.043
-403.252	800.000	-0.035	0.117
-402.238	-77.336	0.245	0.086
-401.223	-46.155	-0.155	0.077
-400.209	-113.038	0.229	-0.045
-399.194	-200.000	-0.020	0.304
-398.179	89.671	-0.052	-0.059
-397.165	-56.907	-0.067	0.030
-396.150	800.000	0.074	-0.227
-395.136	-55.018	-0.051	-0.023
-394.121	50.194	-0.192	-0.182
-393.106	-116.223	-0.180	-0.034
-392.092	362.450	0.219	-0.441
-391.077	-96.621	-0.271	-0.072
-390.063	-200.000	0.033	-0.193
-389.048	-200.000	0.034	-0.164
-388.033	-177.640	0.120	-0.003
-387.019	3.417	-0.168	-0.123
-386.004	0.411	-0.140	-0.100
-384.990	77.124	-0.099	0.106
-383.975	101.043	-0.115	-0.135
-382.960	164.225	0.156	-0.220
-381.946	535.806	0.103	0.246
-380.931	622.871	-0.103	-0.260
-379.917	-6.883	-0.205	0.140
-378.902	103.260	0.113	0.133
-377.888	-55.716	-0.230	0.103
-376.873	-158.139	-0.222	-0.013
-375.858	-25.715	0.177	0.105
-374.844	-113.402	0.328	0.065
-373.829	-20.210	-0.344	0.213
-372.815	-200.000	0.011	-0.299
-371.800	-41.221	-0.195	-0.101
-370.785	9.558	0.158	0.120
-369.771	-200.000	-0.029	0.240
-368.756	-3.866	-0.150	-0.104
-367.742	-147.091	-0.089	0.008
-366.727	170.147	0.098	-0.141
-365.712	283.631	0.141	0.254
-364.698	-148.864	0.168	-0.014
-363.683	240.719	0.145	0.243
-362.669	12.281	0.191	-0.148
-361.654	-72.347	-0.389	-0.145
-360.639	-116.459	-0.136	-0.025
-359.625	-60.081	0.207	-0.089
-358.610	-200.000	0.004	0.038
-357.596	-74.474	-0.192	0.070
-356.581	522.317	-0.119	-0.280
-355.566	-177.899	-0.200	0.005
-354.552	-81.626	-0.364	0.120
-353.537	-200.000	0.002	-0.042
-352.523	77.045	-0.070	-0.074
-351.508	-97.761	0.620	-0.161
-350.493	170.763	-0.021	0.030
-349.479	-32.446	-0.275	0.154
-348.464	-56.541	-0.148	-0.066
-347.450	800.000	0.136	0.382
-346.435	-40.358	-0.185	0.096
-345.420	-172.750	-0.144	0.005
-344.406	-200.000	0.035	-0.268
-343.391	-138.009	0.142	-0.016
-342.377	800.000	0.021	0.087
-341.362	-200.000	-0.012	0.232
-340.348	-46.406	-0.126	0.062
-339.333	168.365	-0.198	-0.283
-338.318	800.000	-0.012	-0.043
-337.304	-200.000	-0.004	0.026
-336.289	-22.246	-0.149	0.091
-335.275	104.986	-0.271	0.320
-334.260	325.814	-0.202	-0.387
-333.245	-200.000	0.003	0.075
-332.231	-95.725	0.220	0.059
-331.216	-200.000	-0.091	0.420
-330.202	800.000	-0.056	0.213
-329.187	77.815	0.165	0.176
-328.172	17.609	-0.024	-0.019
-327.158	-200.000	-0.026	0.240
-326.143	-18.874	-0.102	0.063
-325.129	-200.000	0.004	-0.057
-324.114	-108.305	-0.155	-0.034
-323.099	61.519	-0.407	0.405
-322.085	800.000	0.022	0.094
-321.070	90.385	0.088	-0.099
-320.056	-137.224	-0.113	-0.013
-319.041	119.282	-0.134	0.166
-318.026	-162.542	-0.066	0.003
-317.012	-72.903	-0.108	0.040
-315.997	800.000	0.040	-0.129
-314.983	-200.000	-0.003	-0.147
-313.968	-55.605	0.254	0.114
-312.953	216.403	0.079	-0.126
-311.939	-107.182	0.142	-0.031
-310.924	-200.000	0.043	-0.276
-309.910	-68.826	0.218	-0.084
-308.895	-47.639	0.112	0.055
-307.880	217.539	-0.081	-0.129
-306.866	-100.572	0.217	-0.054
-305.851	800.000	0.068	0.248
-304.837	800.000	-0.067	0.219
-303.822	48.657	0.190	0.178
-302.807	-72.105	0.025	0.009
-301.793	34.438	-0.210	-0.183
-300.778	-115.669	-0.386	0.073
-299.764	800.000	0.089	-0.342
-298.749	526.948	0.059	-0.139
-297.735	-60.609	-0.076	0.032
-296.720	-140.579	0.279	0.029
-295.705	77.237	0.215	0.229
-294.691	-54.569	-0.223	0.101
-293.676	247.552	0.126	0.213
-292.662	-1.294	0.182	-0.129
-291.647	-200.000	-0.028	0.312
-290.632	800.000	0.020	0.070
-289.618	15.142	0.143	0.112
-288.603	66.369	0.214	-0.218
-287.589	-200.000	-0.023	0.296
-286.574	-200.000	-0.009	-0.153
-285.559	800.000	0.081	0.226
-284.545	286.236	-0.150	-0.270
-283.530	670.707	-0.127	-0.328
-282.516	-101.839	-0.149	-0.036
-281.501	800.000	0.061	0.192
-280.486	126.935	0.077	-0.098
-279.472	227.689	-0.138	0.225
-278.457	-91.885	-0.414	0.117
-277.443	800.000	0.034	0.095
-276.428	117.920	-0.166	-0.204
-275.413	-83.825	0.150	0.048
-274.399	255.423	-0.137	0.234
-273.384	346.459	0.113	0.223
-272.370	800.000	0.062	0.209
-271.355	-114.911	-0.095	-0.018
-270.340	-34.644	0.324	0.177
-269.326	-110.332	-0.485	0.101
-268.311	-13.779	-0.241	0.156
-267.297	-117.532	-0.058	0.010
-266.282	702.554	0.097	-0.257
-265.267	-80.263	0.385	0.129
-264.253	800.000	0.060	-0.231
-263.238	-26.747	-0.073	-0.043
-262.224	-29.432	-0.227	0.130
-261.209	-200.000	-0.007	0.033
-260.195	389.018	0.093	0.192
-259.180	800.000	0.073	-0.229
-258.165	-141.038	0.217	0.022
-257.151	238.670	0.214	-0.355
-256.136	800.000	-0.029	-0.089
-255.122	-12.745	-0.194	-0.126
-254.107	125.925	0.056	-0.071
-253.092	154.916	0.207	-0.284
-252.078	-26.856	-0.225	0.131
-251.063	-162.301	-0.280	-0.014
-250.049	-91.236	0.156	-0.045
-249.034	-22.755	0.298	-0.180
-248.019	800.000	0.139	-0.421
-247.005	44.491	-0.206	0.189
-245.990	424.854	0.114	-0.245
-244.976	94.466	-0.139	-0.157
-243.961	-144.301	0.151	-0.014
-242.946	-200.000	0.039	0.212
-241.932	355.707	0.068	0.135
-240.917	-147.743	0.334	-0.028
-239.903	800.000	0.061	0.195
-238.888	118.932	0.031	0.038
-237.873	-200.000	-0.034	0.225
-236.859	-99.321	-0.225	-0.057
-235.844	-111.513	-0.023	-0.005
-234.830	0.185	-0.277	-0.197
-233.815	-7.013	0.297	0.201
-232.800	222.500	-0.187	-0.301
-231.786	-162.157	0.394	-0.020
-230.771	47.528	-0.162	-0.150
-229.757	-43.307	0.051	-0.026
-228.742	-136.766	0.316	-0.036
-227.727	70.280	-0.166	-0.171
-226.713	133.880	0.097	0.125
-225.698	-42.363	0.163	-0.083
-224.684	-51.082	0.127	0.059
-223.669	800.000	-0.041	0.115
-222.655	800.000	0.086	0.322
-221.640	64.578	0.318	-0.320
-220.625	-36.460	0.081	0.043
-219.611	-200.000	0.011	0.090
-218.596	32.131	-0.210	0.181
-217.582	81.460	0.105	-0.113
-216.567	358.860	-0.123	0.245
-215.552	71.641	0.030	0.031
-214.538	138.837	0.159	-0.209
-213.523	-200.000	-0.020	0.235
-212.509	60.996	-0.222	0.220
-211.494	-108.613	-0.204	-0.044
-210.479	-6.184	-0.129	0.088
-209.465	-66.820	-0.163	0.064
-208.450	-194.382	0.113	0.001
-207.436	34.432	-0.044	-0.038
-206.421	-161.658	-0.244	-0.012
-205.406	-49.398	0.364	-0.173
-204.392	-81.547	-0.221	-0.072
-203.377	-200.000	-0.061	0.382
-202.363	-95.508	-0.228	0.061
-201.348	800.000	0.019	0.071
-200.333	-107.372	0.174	-0.038
-199.319	-87.281	-0.536	0.162
-198.304	-200.000	0.056	0.257
-197.290	800.000	-0.074	0.263
-196.275	-58.581	-0.150	0.065
-195.260	-51.179	0.235	0.110
-194.246	-3.308	-0.176	-0.122
-193.231	-55.630	-0.119	-0.053
-192.217	310.247	0.219	0.408
-191.202	800.000	0.071	0.200
-190.187	800.000	0.059	-0.210
-189.173	-54.622	-0.566	0.255
-188.158	800.000	-0.083	0.323
-187.144	-48.965	-0.420	0.201
-186.129	52.542	0.176	0.168
-185.114	97.301	0.182	0.209
-184.100	-200.000	-0.008	-0.113
-183.085	-200.000	-0.000	-0.023
-182.071	30.564	-0.240	-0.205
-181.056	-116.878	0.483	0.088
-180.042	48.442	0.110	0.103
-179.027	-44.621	-0.202	0.101
-178.012	-3.539	0.277	-0.192
-176.998	129.321	0.107	0.136
-175.983	-89.106	-0.175	-0.052
-174.969	-200.000	-0.002	0.179
-173.954	19.320	0.299	0.239
-172.939	-48.110	-0.072	0.035
-171.925	-200.000	-0.025	0.234
-170.910	21.949	-0.317	0.258
-169.896	800.000	0.122	-0.364
-168.881	-59.471	-0.156	0.067
-167.866	-125.665	0.226	0.034
-166.852	156.019	-0.128	0.176
-165.837	800.000	-0.013	-0.037
-164.823	42.959	0.385	-0.350
-163.808	38.553	-0.033	0.030
-162.793	755.778	-0.015	-0.041
-161.779	-49.212	-0.171	0.081
-160.764	553.363	-0.096	0.229
-159.750	95.101	0.093	0.105
-158.735	143.435	0.189	-0.250
-157.720	-18.780	0.201	-0.125
-156.706	201.525	0.068	-0.105
-155.691	-110.409	0.137	-0.028
-154.677	118.160	0.160	-0.196
-153.662	-111.818	0.258	0.052
-152.647	-160.512	0.322	0.017
-151.633	-68.342	-0.313	0.121
-150.618	-176.710	0.119	0.003
-149.604	-200.000	-0.043	0.375
-148.589	244.174	0.128	0.214
-147.574	103.542	0.089	0.104
-146.560	10.737	0.182	0.138
-145.545	-72.918	-0.091	-0.033
-144.531	-200.000	-0.016	-0.146
-143.516	-94.512	-0.140	-0.038
-142.502	-65.082	0.114	-0.046
-141.487	-70.822	0.242	0.091
-140.472	-85.384	-0.284	-0.088
-139.458	-130.054	-0.484	0.066
-138.443	124.879	-0.229	0.287
-137.429	-136.851	0.367	0.042
-136.414	-75.685	-0.364	0.128
-135.399	-200.000	0.058	-0.273
-134.385	-54.626	-0.123	0.055
-133.370	290.475	-0.102	0.185
-132.356	35.314	0.145	0.126
-131.341	3.702	0.166	-0.120
-130.326	-172.114	-0.443	-0.014
-129.312	-200.000	-0.004	0.185
-128.297	-200.000	-0.044	0.270
-127.283	-200.000	-0.051	0.394
-126.268	-22.325	-0.230	-0.139
-125.253	-111.339	0.392	-0.079
-124.239	199.945	-0.090	-0.138
-123.224	-200.000	-0.143	0.000
-122.210	-110.456	0.292	-0.060
-121.195	800.000	0.111	-0.426
-120.180	1.591	-0.014	-0.010
-119.166	-11.939	0.107	-0.070
-118.151	52.636	0.096	0.091
-117.137	-200.000	0.002	-0.301
-116.122	-200.000	-0.095	-0.451
-115.107	-160.189	-0.323	-0.017
-114.093	-119.836	0.186	-0.032
-113.078	-119.463	0.262	0.045
-112.064	-175.587	0.212	0.006
-111.049	-45.428	0.298	-0.147
-110.034	-200.000	0.005	-0.065
-109.020	-39.434	0.029	-0.015
-108.005	-44.375	-0.156	0.077
-106.991	83.451	0.063	-0.069
-105.976	-63.721	0.514	0.209
-104.962	-200.000	0.015	-0.147
-103.947	139.490	-0.155	0.202
-102.932	364.620	-0.165	0.331
-101.918	-131.125	-0.254	-0.034
-100.903	-70.568	0.296	-0.111
-99.889	-58.138	-0.229	-0.099
-98.874	-200.000	0.020	0.214
-97.859	583.529	0.022	-0.054
-96.845	-160.856	0.133	-0.007
-95.830	-90.367	0.312	-0.090
-94.816	-182.923	0.133	-0.002
-93.801	-38.175	-0.111	-0.058
-92.786	178.996	-0.010	0.015
-91.772	-100.474	0.214	0.053
-90.757	-200.000	-0.004	0.239
-89.743	71.432	-0.365	-0.376
-88.728	47.708	-0.099	0.092
-87.713	-200.000	-0.017	-0.197
-86.699	-200.000	-0.027	-0.164
-85.684	191.409	-0.234	-0.350
-84.670	-110.168	-0.376	0.078
-83.655	-80.296	0.289	-0.096
-82.640	-200.000	-0.018	-0.300
-81.626	-145.982	-0.279	-0.024
-80.611	185.090	0.063	-0.092
-79.597	800.000	-0.055	-0.232
-78.582	-126.477	0.396	-0.058
-77.567	702.311	0.065	-0.169
-76.553	-75.642	-0.049	0.017
-75.538	-125.935	-0.128	0.019
-74.524	194.971	-0.117	0.177
-73.509	-200.000	-0.030	-0.387
-72.494	-200.000	-0.013	0.108
-71.480	-98.382	-0.359	-0.091
-70.465	800.000	-0.040	0.140
-69.451	123.145	-0.063	0.078
-68.436	-91.767	-0.094	-0.026
-67.422	158.048	0.241	0.331
-66.407	254.125	0.156	-0.264
-65.392	-109.504	0.406	-0.085
-64.378	223.387	-0.216	-0.345
-63.363	192.237	0.135	0.201
-62.349	317.118	0.056	-0.105
-61.334	122.030	-0.891	-1.103
-60.319	-125.178	0.369	0.056
-59.305	428.021	-0.302	-0.646
-58.290	334.100	0.569	1.092
-57.276	320.046	0.757	1.424
-56.261	-200.000	94.871	560.124
-55.246	632.172	1385.003	3477.371
-54.232	185.654	2604.747	3836.019
-53.217	122.714	2197.690	2725.107
-52.203	47.144	1648.020	1520.263
-51.188	38.662	1381.936	1222.149
-50.173	35.487	1338.366	1164.353
-49.159	55.567	1387.303	1331.424
-48.144	59.766	1405.720	1374.976
-47.130	38.844	1360.048	1203.715
-46.115	35.344	1342.232	1166.660
-45.100	35.095	1337.208	1160.735
-44.086	34.951	1334.914	1157.826
-43.071	34.960	1332.555	1155.791
-42.057	34.952	1330.196	1153.649
-41.042	34.942	1328.710	1152.256
-40.027	35.031	1326.800	1151.086
-39.013	35.098	1324.780	1149.693
-37.998	35.079	1323.314	1148.258
-36.984	35.169	1321.024	1146.764
-35.969	35.030	1319.646	1144.693
-34.954	35.135	1318.150	1143.979
-33.940	35.223	1316.577	1143.091
-32.925	35.158	1315.475	1141.699
-31.911	35.196	1313.939	1140.552
-30.896	35.238	1312.079	1139.142
-29.881	35.119	1311.223	1137.647
-28.867	35.282	1309.486	1137.061
-27.852	35.236	1308.158	1135.589
-26.838	35.259	1306.706	1134.419
-25.823	35.293	1305.138	1133.214
-24.809	35.166	1303.742	1131.205
-23.794	35.250	1302.333	1130.436
-22.779	35.225	1300.943	1129.038
-21.765	35.217	1299.637	1127.811
-20.750	35.128	1298.574	1126.323
-19.736	35.129	1297.199	1125.087
-18.721	35.192	1295.540	1123.973
-17.706	35.072	1294.885	1122.658
-16.692	34.985	1293.737	1121.109
-15.677	35.146	1292.040	1120.535
-14.663	35.068	1291.234	1119.335
-13.648	35.177	1289.778	1118.667
-12.633	35.065	1289.623	1117.831
-11.619	35.063	1288.568	1116.863
-10.604	35.028	1287.657	1115.825
-9.590	35.043	1286.731	1115.067
-8.575	34.958	1285.824	1113.738
-7.560	35.036	1284.835	1113.297
-6.546	35.011	1284.074	1112.445
-5.531	35.017	1282.984	1111.492
-4.517	35.064	1281.981	1110.853
-3.502	35.054	1280.576	1109.529
-2.487	35.012	1280.311	1109.012
-1.473	35.056	1275.964	1105.458
-0.458	33.754	1261.385	1085.344
0.556	31.871	1241.384	1042.280
1.571	27.564	1244.783	1020.976
2.586	25.911	1258.705	1022.927
3.600	24.040	1246.345	1002.271
4.615	17.913	1172.670	910.372
5.629	9.121	1095.249	806.224
6.644	5.049	1074.092	770.499
7.659	4.562	1071.250	765.991
8.673	4.378	1069.927	764.073
9.688	4.352	1068.725	763.020
10.702	5.082	1067.843	765.908
11.717	10.923	1076.022	800.530
12.731	19.254	1088.060	850.717
13.746	22.283	1091.135	868.016
14.761	21.951	1089.791	865.235
15.775	21.028	1087.977	859.171
16.790	19.995	1086.038	852.480
17.804	19.344	1084.776	848.215
18.819	18.893	1083.686	845.068
19.834	18.813	1082.965	844.039
20.848	18.740	1081.948	842.814
21.863	18.526	1081.077	841.013
22.877	18.332	1080.943	839.880
23.892	18.363	1080.001	839.229
24.907	18.331	1079.194	838.367
25.921	18.382	1077.578	837.287
26.936	18.242	1076.675	835.831
27.950	18.399	1075.215	835.389
28.965	18.483	1073.924	834.719
29.980	18.582	1072.469	833.998
30.994	18.780	1070.908	833.669
32.009	18.782	1070.506	833.291
33.023	18.686	1069.350	831.855
34.038	18.582	1068.254	830.427
35.053	18.538	1066.948	829.126
36.067	18.441	1066.318	828.093
37.082	18.497	1065.651	827.771
38.096	18.701	1064.585	827.854
39.111	18.675	1064.432	827.538
40.126	18.595	1063.200	826.119
41.140	18.241	1061.349	822.907
42.155	18.147	1060.039	821.367
43.169	18.068	1059.201	820.265
44.184	18.107	1058.040	819.479
45.199	17.944	1057.605	818.289
46.213	18.310	1056.127	818.823
47.228	18.437	1055.686	819.019
48.242	18.512	1054.849	818.652
49.257	18.593	1053.039	817.562
50.271	18.485	1052.914	816.878
51.286	18.574	1052.118	816.611
52.301	18.459	1051.241	815.311
53.315	18.363	1049.858	813.713
54.330	18.262	1048.569	812.160
55.344	18.282	1047.998	811.745
56.359	18.213	1047.418	810.895
57.374	18.239	1046.228	810.025
58.388	18.140	1045.232	808.714
59.403	18.025	1044.234	807.326
60.417	18.050	1043.479	806.791
61.432	17.979	1043.107	806.094
62.447	17.860	1042.276	804.822
63.461	17.940	1041.218	804.309
64.476	17.922	1040.150	803.327
65.490	17.934	1039.177	802.564
66.505	17.901	1038.898	802.121
67.520	17.912	1038.063	801.459
68.534	18.089	1037.215	801.562
69.549	18.046	1036.346	800.616
70.563	17.867	1035.444	799.011
71.578	17.848	1034.558	798.170
72.593	17.730	1033.784	796.952
73.607	17.604	1033.368	795.970
74.622	17.619	1032.755	795.496
75.636	17.774	1031.777	795.395
76.651	17.892	1031.197	795.429
77.666	17.817	1030.799	794.700
78.680	17.922	1029.497	794.117
79.695	17.706	1029.260	792.860
80.709	18.013	1028.582	793.695
81.724	18.048	1028.317	793.581
82.739	18.195	1027.429	793.507
83.753	18.354	1026.768	793.662
84.768	18.622	1026.527	794.648
85.782	18.892	1025.287	794.866
86.797	18.698	1024.293	793.130
87.812	18.510	1023.287	791.412
88.826	18.484	1022.752	790.809
89.841	18.656	1021.385	790.476
90.855	18.771	1020.518	790.263
91.870	18.740	1020.010	789.658
92.884	18.708	1018.924	788.601
93.899	18.672	1018.153	787.768
94.914	18.949	1017.157	788.196
95.928	18.910	1016.364	787.336
96.943	18.562	1015.798	785.233
97.957	18.588	1014.945	784.622
98.972	18.739	1013.688	784.273
99.987	18.725	1012.687	783.364
101.001	18.618	1012.099	782.353
102.016	18.565	1011.070	781.246
103.030	18.854	1010.144	781.777
104.045	18.538	1009.898	780.081
105.060	18.635	1008.571	779.425
106.074	18.358	1007.049	776.922
107.089	18.199	1005.998	775.324
108.103	18.137	1005.016	774.220
109.118	18.079	1003.850	772.987
110.133	17.996	1003.013	771.903
111.147	17.933	1002.515	771.165
112.162	18.052	1001.737	771.034
113.176	18.109	1001.385	770.955
114.191	18.264	1000.552	770.942
115.206	18.200	999.200	769.545
116.220	18.055	998.953	768.634
117.235	18.084	997.630	767.676
118.249	18.118	996.988	767.268
119.264	18.095	995.982	766.323
120.279	18.045	995.182	765.416
121.293	17.958	994.417	764.370
122.308	17.928	993.032	763.103
123.322	17.824	992.154	761.899
124.337	17.805	991.079	760.920
125.352	17.841	989.857	760.077
126.366	17.885	988.705	759.320
127.381	17.853	987.962	758.539
128.395	17.776	987.530	757.800
129.410	17.925	986.522	757.620
130.424	17.984	985.468	757.005
131.439	18.144	984.839	757.162
132.454	18.111	984.560	756.734
133.468	18.153	983.771	756.248
134.483	18.278	982.651	755.872
135.497	18.249	981.898	755.097
136.512	18.315	980.606	754.326
137.527	18.368	980.092	754.099
138.541	18.255	979.186	752.837
139.556	18.221	978.939	752.431
140.570	18.564	978.099	753.228
141.585	18.512	977.533	752.494
142.600	18.645	976.475	752.200
143.614	18.833	975.531	752.228
144.629	18.884	974.969	751.953
145.643	18.761	973.990	750.590
146.658	18.451	972.875	748.311
147.673	18.489	971.480	747.338
148.687	18.218	970.783	745.556
149.702	18.330	969.756	745.188
150.716	18.199	969.247	744.163
151.731	18.274	968.465	743.822
152.746	18.362	967.529	743.418
153.760	18.364	967.004	742.958
154.775	18.393	966.849	742.899
155.789	18.411	966.135	742.363
156.804	18.633	964.811	742.241
157.819	18.661	964.174	741.804
158.833	18.705	964.034	741.822
159.848	18.724	963.412	741.358
160.862	18.638	962.200	739.991
161.877	18.460	960.973	738.216
162.892	18.241	959.790	736.300
163.906	18.247	958.462	735.240
164.921	18.272	958.030	734.953
165.935	18.296	957.235	734.378
166.950	18.470	956.165	734.237
167.964	18.471	955.274	733.496
168.979	18.289	954.615	732.144
169.994	18.328	953.599	731.467
171.008	18.572	952.445	731.558
172.023	18.574	952.607	731.627
173.037	18.791	951.544	731.671
174.052	18.606	950.725	730.189
175.067	18.276	949.929	728.110
176.081	18.315	948.944	727.456
177.096	18.271	948.666	726.993
178.110	18.431	948.050	727.133
179.125	18.502	947.182	726.704
180.140	18.418	947.057	726.188
181.154	18.603	946.379	726.388
182.169	18.645	946.491	726.587
183.183	18.700	945.756	726.191
184.198	18.797	944.691	725.717
185.213	18.785	943.917	725.011
186.227	18.836	943.288	724.676
187.242	18.892	942.966	724.603
188.256	19.128	942.302	725.023
189.271	18.992	941.487	723.758
190.286	18.732	940.308	721.695
191.300	18.181	939.557	718.742
192.315	18.126	938.984	718.007
193.329	18.172	938.619	717.858
194.344	18.138	938.348	717.446
195.359	18.440	937.504	718.000
196.373	18.623	936.638	718.042
197.388	18.824	936.538	718.740
198.402	18.996	936.168	719.112
199.417	19.118	935.489	719.036
200.432	19.092	934.802	718.337
201.446	19.222	934.615	718.672
202.461	19.372	934.005	718.767
203.475	19.163	933.412	717.373
204.490	19.101	932.131	716.067
205.504	18.858	931.491	714.501
206.519	18.909	930.917	714.212
207.534	18.983	929.775	713.579
208.548	18.835	929.242	712.494
209.563	18.861	928.750	712.163
210.577	18.932	928.319	712.062
211.592	18.996	927.861	711.914
212.607	19.137	926.756	711.583
213.621	19.202	925.838	711.084
214.636	19.087	925.356	710.176
215.650	19.088	924.689	709.607
216.665	19.281	923.966	709.784
217.680	19.361	923.137	709.413
218.694	19.353	922.585	708.894
219.709	19.297	921.935	708.103
220.723	19.302	921.549	707.765
221.738	19.192	920.430	706.390
222.753	19.278	920.016	706.363
223.767	19.370	919.510	706.288
224.782	19.407	919.186	706.128
225.796	19.485	918.612	705.944
226.811	19.306	918.091	704.747
227.826	19.303	917.017	703.851
228.840	19.151	916.265	702.590
229.855	19.251	915.133	702.069
230.869	19.143	914.864	701.358
231.884	19.092	914.495	700.808
232.899	19.125	913.403	700.041
233.913	19.042	912.282	698.783
234.928	18.964	911.874	698.094
235.942	19.009	911.474	697.906
236.957	19.047	910.756	697.450
237.972	19.080	910.295	697.167
238.986	18.984	909.595	696.183
240.001	18.946	908.867	695.409
241.015	19.073	908.387	695.493
242.030	19.158	907.849	695.363
243.045	19.285	907.327	695.417
244.059	19.279	906.419	694.634
245.074	19.409	906.054	694.816
246.088	19.314	905.737	694.130
247.103	19.499	904.796	694.090
248.117	19.674	904.880	694.799
249.132	19.980	904.035	695.315
250.147	19.926	903.692	694.774
251.161	20.108	902.985	694.900
252.176	20.102	902.249	694.246
253.190	20.094	901.915	693.898
254.205	20.116	901.263	693.421
255.220	20.139	900.330	692.734
256.234	20.047	899.940	692.004
257.249	20.115	899.355	691.766
258.263	20.117	898.144	690.781
259.278	20.101	897.730	690.338
260.293	20.284	897.062	690.492
261.307	20.319	896.448	690.097
262.322	20.182	896.153	689.262
263.336	20.449	895.326	689.626
264.351	20.258	894.535	688.200
265.366	20.326	894.202	688.151
266.380	20.318	893.201	687.289
267.395	20.131	892.919	686.272
268.409	20.171	891.850	685.547
269.424	20.224	891.105	685.124
270.439	20.029	890.329	683.697
271.453	19.914	889.748	682.736
272.468	20.020	888.783	682.351
273.482	20.024	888.466	682.066
274.497	20.000	888.114	681.637
275.512	19.911	887.375	680.663
276.526	20.039	887.037	680.844
277.541	20.152	886.580	680.879
278.555	20.263	885.897	680.731
279.570	20.550	885.306	681.341
280.585	20.405	884.794	680.318
281.599	20.304	883.228	678.658
282.614	20.151	882.890	677.739
283.628	20.155	882.235	677.194
284.643	20.062	881.910	676.522
285.657	20.235	881.026	676.457
286.672	20.114	880.691	675.670
287.687	20.218	879.902	675.408
288.701	20.259	879.370	675.100
289.716	20.193	879.031	674.525
290.730	20.150	878.369	673.788
291.745	20.285	877.541	673.620
292.760	20.322	877.372	673.572
293.774	20.574	876.515	673.832
294.789	20.462	875.761	672.757
295.803	20.360	875.017	671.734
296.818	20.247	874.095	670.529
297.833	20.201	873.751	670.026
298.847	20.391	873.069	670.177
299.862	20.371	872.824	669.855
300.876	20.334	872.577	669.463
301.891	20.416	871.853	669.165
302.906	20.518	871.538	669.256
303.920	20.796	870.965	669.828
304.935	20.873	870.626	669.802
305.949	20.857	869.495	668.813
306.964	20.502	869.042	667.040
307.979	20.679	868.185	667.005
308.993	20.757	867.893	667.020
310.008	20.868	866.991	666.691
311.022	20.697	866.448	665.559
312.037	20.476	866.064	664.361
313.052	20.291	865.265	662.984
314.066	20.271	864.621	662.355
315.081	20.212	864.352	661.864
316.095	20.279	863.716	661.574
317.110	20.322	863.219	661.298
318.125	20.375	862.339	660.767
319.139	20.346	861.872	660.242
320.154	20.382	861.409	659.967
321.168	20.457	860.897	659.800
322.183	20.543	860.216	659.546
323.197	20.573	860.226	659.608
324.212	20.440	859.535	658.518
325.227	20.622	858.293	658.198
326.241	20.283	858.166	656.756
327.256	20.432	857.502	656.756
328.270	20.489	856.755	656.339
329.285	20.509	855.936	655.728
330.300	20.455	855.605	655.214
331.314	20.655	855.039	655.476
332.329	20.719	854.604	655.326
333.343	20.630	854.654	654.972
334.358	20.783	853.861	654.882
335.373	20.841	853.429	654.709
336.387	20.860	853.421	654.717
337.402	20.913	853.210	654.695
338.416	20.927	853.236	654.710
339.431	21.150	852.670	655.057
340.446	21.268	852.260	655.126
341.460	21.311	851.916	654.964
342.475	21.358	851.435	654.712
343.489	21.258	851.304	654.179
344.504	21.302	850.870	653.952
345.519	21.500	850.287	654.189
346.533	21.343	849.319	652.798
347.548	21.098	848.959	651.547
348.562	21.112	847.846	650.691
349.577	20.920	847.115	649.356
350.592	20.895	846.657	648.854
351.606	20.954	845.508	648.134
352.621	20.639	845.425	646.843
353.635	20.943	844.911	647.523
354.650	21.024	843.794	646.909
355.665	21.169	843.326	647.031
356.679	21.144	842.946	646.591
357.694	21.141	842.477	646.162
358.708	21.113	841.554	645.292
359.723	21.075	841.219	644.838
360.738	21.189	840.673	644.785
361.752	21.098	840.186	644.016
362.767	21.402	839.351	644.443
363.781	21.424	839.435	644.531
364.796	21.525	838.724	644.300
365.810	21.653	838.530	644.563
366.825	21.761	837.709	644.273
367.840	21.549	837.602	643.354
368.854	21.552	836.697	642.613
369.869	21.543	836.543	642.404
370.883	21.328	836.167	641.269
371.898	21.749	835.391	642.161
372.913	21.635	835.440	641.724
373.927	21.587	834.690	640.917
374.942	21.607	834.293	640.626
375.956	21.703	834.053	640.736
376.971	21.873	833.444	640.835
377.986	21.868	833.176	640.553
379.000	21.929	832.557	640.244
380.015	21.916	832.032	639.735
381.029	21.766	831.166	638.467
382.044	21.851	830.516	638.219
383.059	21.940	830.386	638.387
384.073	21.750	829.972	637.322
385.088	21.663	828.837	636.080
386.102	21.502	827.762	634.614
387.117	21.528	827.302	634.299
388.132	21.569	827.106	634.240
389.146	21.622	826.795	634.138
390.161	21.830	826.564	634.659
391.175	21.792	826.161	634.154
392.190	21.619	825.565	633.014
393.205	21.639	824.579	632.276
394.219	21.561	824.113	631.582
395.234	21.477	823.817	630.997
396.248	21.403	823.425	630.373
397.263	21.354	822.413	629.367
398.278	21.360	822.136	629.118
399.292	21.389	821.664	628.807
400.307	21.383	821.436	628.555
401.321	21.477	820.738	628.301
402.336	21.650	820.716	628.851
403.350	21.591	820.367	628.318
404.365	21.740	819.965	628.488
405.380	21.858	819.430	628.445
406.394	21.999	818.848	628.447
407.409	22.019	818.300	628.044
408.423	22.099	818.120	628.135
409.438	22.111	818.174	628.166
410.453	22.247	817.584	628.141
411.467	22.121	816.991	627.179
412.482	22.384	816.468	627.661
413.496	22.476	815.812	627.429
414.511	22.413	815.608	626.992
415.526	22.283	815.284	626.224
416.540	22.270	814.488	625.511
417.555	22.198	814.396	625.130
418.569	22.272	813.968	625.009
419.584	22.393	813.352	624.913
420.599	22.414	812.877	624.564
421.613	158.812	1369.905	1788.290
422.628	138.249	1451.077	1788.395
