DTS Sentinel unit serial number:	SN413079Multiplexer serial number:	ORYXHardware model number:	OX4-SRSoftware version number:	ORYX F/W v4.00 Oryx Data Collector v3.7.2.0data status	okinstallation	princeton_trtdifferential loss correction	single-endedforward channel	channel 1reverse channel	N/Adate	2019/09/17time	02:22:35forward acquisition time	60.00reverse acquisition time	0.00gamma	496.2192k internal	0.2323k external	0.2323temperature offset calibration	0.9955default loss term (dB/km)	0.3790temperature slope calibration	1.0000multiplexer offset coefficient	1.0000multiplexer slope coefficient	1.0000fibre end	0.00T internal ref (°C)	29.75T ext. ref 1 (°C)	0.13T ext. ref 2 (°C)	24.72length (m)	temperature (°C)	Stokes	anti-Stokes-747.200	-200.000	0.061	0.403
-746.185	-118.152	0.282	0.051
-745.171	95.194	0.130	0.150
-744.156	639.792	0.209	0.536
-743.142	-117.612	0.198	-0.036
-742.127	187.405	0.252	0.380
-741.112	24.885	0.165	0.138
-740.098	242.382	0.316	0.534
-739.083	294.013	0.110	0.203
-738.069	-17.668	-0.296	-0.188
-737.054	-200.000	-0.050	-0.227
-736.039	-200.000	-0.097	-0.479
-735.025	-45.143	0.177	0.089
-734.010	-200.000	0.015	0.124
-732.996	221.412	0.095	-0.153
-731.981	-104.210	0.294	-0.069
-730.966	800.000	0.009	0.032
-729.952	277.002	-0.189	-0.339
-728.937	-40.583	-0.213	-0.111
-727.923	-133.291	0.195	-0.025
-726.908	-112.124	0.236	-0.048
-725.894	-51.459	0.205	-0.097
-724.879	-78.845	0.101	-0.035
-723.864	-200.000	-0.014	0.298
-722.850	-23.562	0.064	-0.039
-721.835	-80.259	0.154	0.052
-720.821	-200.000	-0.024	0.148
-719.806	92.023	-0.145	0.165
-718.791	-30.743	-0.124	0.071
-717.777	800.000	0.081	0.296
-716.762	-42.180	-0.051	0.026
-715.748	196.403	-0.021	-0.033
-714.733	-200.000	0.012	0.109
-713.718	24.433	-0.102	-0.085
-712.704	-60.242	-0.299	0.129
-711.689	-170.595	0.360	0.013
-710.675	107.596	-0.061	0.074
-709.660	2.993	0.213	-0.156
-708.645	-89.106	-0.235	-0.070
-707.631	-123.818	0.076	-0.012
-706.616	-53.815	-0.116	-0.053
-705.602	800.000	0.039	0.129
-704.587	-131.952	0.227	-0.030
-703.572	-200.000	-0.015	-0.266
-702.558	-171.010	-0.088	-0.003
-701.543	-35.768	0.140	0.077
-700.529	100.505	-0.074	0.087
-699.514	800.000	0.024	0.105
-698.499	177.873	0.203	0.298
-697.485	-196.017	0.361	-0.003
-696.470	-101.304	0.162	-0.040
-695.456	-57.022	0.304	-0.135
-694.441	-200.000	-0.022	-0.270
-693.426	55.570	0.142	-0.139
-692.412	151.549	-0.248	-0.341
-691.397	-88.784	0.065	-0.019
-690.383	304.385	-0.033	-0.061
-689.368	-200.000	-0.012	-0.152
-688.354	-200.000	-0.074	0.333
-687.339	-200.000	0.059	0.569
-686.324	171.839	-0.136	-0.197
-685.310	-200.000	-0.011	0.101
-684.295	800.000	-0.096	0.287
-683.281	-200.000	0.006	0.064
-682.266	-200.000	0.018	-0.197
-681.251	-70.265	0.268	0.102
-680.237	-23.471	0.174	-0.106
-679.222	-10.997	-0.364	0.242
-678.208	194.803	-0.133	-0.203
-677.193	-35.067	-0.389	0.214
-676.178	55.774	-0.173	-0.169
-675.164	-200.000	-0.050	-0.283
-674.149	343.362	-0.198	0.391
-673.135	-70.694	0.048	0.018
-672.120	-200.000	-0.008	-0.488
-671.105	800.000	0.027	0.112
-670.091	50.912	0.215	0.205
-669.076	116.245	0.141	0.175
-668.062	144.090	-0.229	0.307
-667.047	-200.000	-0.015	0.387
-666.032	111.195	-0.124	-0.150
-665.018	-151.555	0.241	0.018
-664.003	-164.396	0.178	-0.008
-662.989	-200.000	-0.054	0.300
-661.974	-22.179	-0.293	0.179
-660.959	544.304	-0.131	-0.315
-659.945	-156.642	0.198	-0.012
-658.930	-200.000	-0.016	-0.122
-657.916	9.890	-0.354	-0.270
-656.901	310.770	-0.066	-0.125
-655.886	-10.806	0.086	-0.058
-654.872	-77.601	-0.373	-0.130
-653.857	800.000	-0.094	-0.276
-652.843	82.844	0.076	-0.083
-651.828	-184.059	-0.037	-0.001
-650.814	800.000	0.064	-0.227
-649.799	-65.811	0.164	0.066
-648.784	9.606	0.182	-0.139
-647.770	-18.495	0.123	-0.077
-646.755	800.000	-0.006	-0.018
-645.741	757.894	-0.016	0.044
-644.726	-85.400	-0.175	-0.055
-643.711	-175.269	0.186	0.005
-642.697	-200.000	-0.069	-0.454
-641.682	-200.000	0.044	0.201
-640.668	-72.748	-0.148	-0.055
-639.653	137.278	0.183	0.240
-638.638	45.796	-0.104	0.097
-637.624	68.785	-0.103	-0.106
-636.609	-112.486	-0.072	0.015
-635.595	-123.552	-0.116	-0.019
-634.580	-200.000	-0.002	0.074
-633.565	-200.000	-0.032	-0.154
-632.551	23.358	0.092	-0.076
-631.536	55.669	0.280	-0.273
-630.522	24.819	-0.374	-0.312
-629.507	-166.070	-0.124	0.005
-628.492	-58.608	0.159	-0.069
-627.478	-148.543	0.345	0.028
-626.463	-99.154	-0.246	-0.062
-625.449	667.224	-0.126	-0.328
-624.434	565.624	-0.107	0.261
-623.419	-64.293	-0.325	-0.133
-622.405	543.178	0.148	0.356
-621.390	30.515	0.177	-0.152
-620.376	-70.726	0.146	0.055
-619.361	800.000	-0.093	0.315
-618.346	173.252	0.119	0.173
-617.332	-10.459	0.213	-0.142
-616.317	-200.000	-0.005	-0.142
-615.303	-177.620	-0.293	-0.007
-614.288	-143.076	-0.290	-0.028
-613.273	-200.000	0.021	-0.292
-612.259	-68.939	-0.131	0.051
-611.244	117.385	0.060	0.075
-610.230	275.977	-0.030	-0.054
-609.215	-69.914	-0.311	-0.119
-608.201	368.373	0.158	-0.321
-607.186	800.000	0.059	-0.207
-606.171	-64.166	-0.239	0.098
-605.157	-200.000	-0.034	-0.388
-604.142	-200.000	-0.006	-0.059
-603.128	-200.000	-0.055	0.274
-602.113	-200.000	0.018	-0.117
-601.098	142.425	-0.025	0.033
-600.084	115.363	0.090	-0.110
-599.069	800.000	0.098	-0.296
-598.055	512.200	0.045	-0.104
-597.040	-14.571	-0.363	0.234
-596.025	-55.661	-0.201	0.090
-595.011	-50.892	-0.075	-0.035
-593.996	12.497	0.138	0.107
-592.982	-120.173	0.217	0.037
-591.967	281.799	-0.095	0.171
-590.952	800.000	-0.027	-0.104
-589.938	101.852	0.183	-0.215
-588.923	-73.849	-0.165	-0.060
-587.909	384.141	-0.070	-0.145
-586.894	-33.987	0.253	-0.140
-585.879	-200.000	0.018	-0.144
-584.865	800.000	0.019	-0.059
-583.850	52.833	-0.134	-0.129
-582.836	101.714	-0.150	-0.176
-581.821	-200.000	-0.043	-0.196
-580.806	45.013	-0.270	-0.249
-579.792	-57.913	-0.192	-0.084
-578.777	171.477	0.186	-0.268
-577.763	63.817	0.292	-0.295
-576.748	-200.000	-0.018	-0.158
-575.733	-45.183	-0.060	-0.030
-574.719	-142.848	0.119	-0.012
-573.704	550.351	0.106	0.255
-572.690	-200.000	0.002	0.107
-571.675	-39.611	0.057	-0.030
-570.661	-117.307	-0.194	-0.035
-569.646	25.187	-0.120	0.100
-568.631	20.892	0.091	0.074
-567.617	-137.305	-0.272	0.031
-566.602	315.334	-0.129	-0.243
-565.588	-200.000	0.025	-0.200
-564.573	-86.840	0.217	-0.066
-563.558	-3.712	0.138	0.096
-562.544	-200.000	0.033	0.337
-561.529	337.372	0.199	-0.387
-560.515	122.226	-0.206	-0.258
-559.500	-19.781	0.104	0.064
-558.485	258.365	-0.064	-0.111
-557.471	111.934	-0.205	-0.249
-556.456	-45.494	-0.141	0.070
-555.442	604.718	-0.020	-0.049
-554.427	60.738	0.255	-0.253
-553.412	368.242	0.078	-0.159
-552.398	-69.525	0.207	0.079
-551.383	-173.550	-0.319	0.010
-550.369	-48.055	0.151	0.073
-549.354	304.262	0.044	-0.081
-548.339	45.689	0.299	-0.277
-547.325	-200.000	-0.027	0.367
-546.310	-3.009	0.167	-0.117
-545.296	-200.000	-0.039	-0.218
-544.281	115.880	-0.184	0.225
-543.266	162.104	-0.086	0.121
-542.252	-200.000	0.006	0.149
-541.237	-200.000	0.040	-0.251
-540.223	-24.703	-0.092	-0.055
-539.208	198.435	0.148	-0.226
-538.193	445.050	0.158	-0.347
-537.179	-66.250	0.055	-0.022
-536.164	-64.063	-0.204	-0.084
-535.150	800.000	0.023	-0.085
-534.135	-200.000	-0.006	0.133
-533.121	-200.000	-0.001	0.121
-532.106	-128.441	-0.156	0.022
-531.091	800.000	-0.029	0.105
-530.077	-200.000	-0.004	-0.121
-529.062	120.532	0.139	0.173
-528.048	-139.872	-0.115	-0.012
-527.033	142.164	0.048	0.064
-526.018	-200.000	0.059	-0.297
-525.004	-15.222	0.201	0.129
-523.989	-158.414	0.322	0.019
-522.975	-18.247	0.183	0.114
-521.960	-200.000	0.022	0.210
-520.945	-116.268	-0.125	0.023
-519.931	217.496	0.256	-0.408
-518.916	101.941	0.253	-0.295
-517.902	800.000	0.016	0.069
-516.887	-77.248	-0.113	-0.039
-515.872	118.178	-0.158	0.195
-514.858	188.978	0.063	-0.094
-513.843	-200.000	0.000	-0.074
-512.829	-49.847	-0.162	-0.077
-511.814	-71.968	0.280	-0.104
-510.799	-200.000	-0.005	0.059
-509.785	335.164	-0.032	0.061
-508.770	656.132	0.092	-0.237
-507.756	-19.989	-0.095	-0.058
-506.741	370.123	-0.117	0.238
-505.726	-31.438	-0.138	0.078
-504.712	800.000	0.081	-0.292
-503.697	-200.000	0.025	-0.304
-502.683	-106.602	-0.245	-0.055
-501.668	-133.349	-0.077	-0.010
-500.653	121.764	-0.159	-0.199
-499.639	-90.441	-0.542	0.157
-498.624	-132.438	-0.203	-0.026
-497.610	754.136	-0.101	-0.273
-496.595	-58.930	0.353	0.152
-495.581	113.849	0.044	-0.054
-494.566	-200.000	-0.030	0.155
-493.551	69.183	0.114	0.117
-492.537	-40.321	-0.077	-0.040
-491.522	105.457	-0.048	0.057
-490.508	128.546	0.159	0.202
-489.493	172.909	0.137	-0.197
-488.478	55.384	0.066	0.064
-487.464	218.734	-0.056	0.089
-486.449	235.269	-0.042	0.069
-485.435	-63.072	-0.055	-0.023
-484.420	338.949	-0.126	0.245
-483.405	-60.367	-0.400	0.170
-482.391	-69.707	-0.181	-0.069
-481.376	-8.411	0.092	0.062
-480.362	88.775	-0.188	-0.209
-479.347	800.000	0.207	-0.589
-478.332	9.954	-0.247	-0.188
-477.318	-170.624	0.164	-0.006
-476.303	555.605	0.253	0.608
-475.289	-200.000	0.019	0.324
-474.274	241.234	0.022	0.037
-473.259	46.758	-0.134	-0.124
-472.245	-200.000	-0.025	-0.185
-471.230	6.241	-0.128	0.095
-470.216	71.302	-0.179	0.185
-469.201	-100.523	-0.190	-0.047
-468.186	-113.990	-0.111	-0.021
-467.172	-115.059	-0.411	-0.078
-466.157	-17.917	0.108	-0.067
-465.143	-200.000	-0.004	0.119
-464.128	800.000	0.045	-0.195
-463.113	-200.000	-0.043	0.310
-462.099	-200.000	0.011	-0.416
-461.084	-115.080	0.226	0.043
-460.070	304.935	0.056	-0.105
-459.055	-200.000	0.030	-0.132
-458.040	-50.172	-0.226	0.107
-457.026	-140.137	-0.252	-0.026
-456.011	244.461	-0.037	-0.063
-454.997	-37.624	0.355	-0.189
-453.982	-200.000	-0.008	0.271
-452.968	-126.900	-0.335	-0.049
-451.953	554.973	0.036	-0.086
-450.938	311.814	-0.151	0.282
-449.924	-36.098	-0.225	-0.121
-448.909	743.680	-0.069	0.186
-447.895	-33.309	0.423	0.234
-446.880	800.000	-0.052	0.175
-445.865	47.865	-0.131	0.123
-444.851	-108.758	0.343	0.073
-443.836	-167.977	0.102	0.004
-442.822	-200.000	0.003	0.081
-441.807	-200.000	-0.030	0.148
-440.792	-59.832	0.127	0.054
-439.778	-27.570	0.218	-0.127
-438.763	132.570	0.147	0.190
-437.749	800.000	-0.035	0.127
-436.734	193.908	-0.142	-0.214
-435.719	800.000	-0.082	0.250
-434.705	-35.801	0.249	0.135
-433.690	-33.796	-0.247	-0.136
-432.676	-200.000	0.013	0.073
-431.661	-169.286	0.328	-0.012
-430.646	-51.894	0.206	-0.096
-429.632	-134.210	0.386	-0.047
-428.617	71.022	0.128	-0.133
-427.603	800.000	-0.031	0.102
-426.588	-162.904	0.255	-0.012
-425.573	-200.000	-0.029	0.420
-424.559	800.000	0.023	0.067
-423.544	-67.943	-0.277	0.108
-422.530	-32.375	-0.073	0.041
-421.515	-20.832	0.290	0.177
-420.500	-101.553	-0.179	0.043
-419.486	385.011	-0.141	-0.290
-418.471	349.929	-0.102	-0.200
-417.457	169.569	-0.099	-0.140
-416.442	263.436	-0.209	-0.362
-415.428	-200.000	0.019	0.231
-414.413	-168.575	0.167	0.006
-413.398	611.063	0.045	0.112
-412.384	-52.252	-0.069	-0.032
-411.369	-200.000	-0.003	0.253
-410.355	77.605	-0.079	-0.083
-409.340	-108.304	-0.120	-0.026
-408.325	-155.426	0.054	-0.003
-407.311	800.000	-0.010	-0.033
-406.296	800.000	-0.042	0.147
-405.282	352.866	-0.121	-0.239
-404.267	-170.277	-0.175	-0.006
-403.252	-6.665	0.112	-0.076
-402.238	-200.000	-0.009	-0.207
-401.223	276.624	-0.092	0.164
-400.209	-69.079	-0.246	-0.094
-399.194	-159.235	-0.246	0.014
-398.179	298.970	0.123	0.225
-397.165	260.393	0.021	0.037
-396.150	62.009	0.127	-0.126
-395.136	-54.421	0.276	0.124
-394.121	-200.000	0.030	0.290
-393.106	51.257	0.279	0.264
-392.092	-36.944	-0.261	-0.140
-391.077	50.918	-0.353	-0.333
-390.063	800.000	-0.045	0.168
-389.048	53.793	0.144	-0.137
-388.033	136.584	0.095	0.123
-387.019	-86.212	0.211	-0.065
-386.004	800.000	0.033	0.132
-384.990	285.541	0.040	0.071
-383.975	-46.570	-0.142	-0.069
-382.960	438.033	0.180	0.390
-381.946	195.405	-0.202	0.306
-380.931	-200.000	-0.008	0.106
-379.917	-200.000	-0.011	0.187
-378.902	40.641	-0.098	0.088
-377.888	2.076	0.114	0.082
-376.873	-200.000	-0.044	-0.191
-375.858	99.870	0.075	-0.086
-374.844	-92.978	-0.106	0.030
-373.829	-9.726	0.223	-0.148
-372.815	-46.167	0.169	0.083
-371.800	106.982	-0.191	0.226
-370.785	800.000	0.070	0.215
-369.771	413.939	0.028	-0.059
-368.756	-109.631	-0.067	0.014
-367.742	69.332	0.056	-0.058
-366.727	754.603	0.048	0.130
-365.712	-135.748	-0.090	-0.011
-364.698	20.750	-0.253	0.204
-363.683	53.433	0.039	-0.037
-362.669	-82.702	0.430	-0.138
-361.654	-101.377	-0.403	-0.098
-360.639	287.867	-0.057	-0.102
-359.625	-27.071	0.053	-0.031
-358.610	30.462	0.529	0.450
-357.596	-200.000	-0.068	0.435
-356.581	130.062	0.158	0.201
-355.566	-29.938	0.238	0.135
-354.552	-200.000	0.040	0.281
-353.537	-42.290	-0.072	0.037
-352.523	-200.000	0.014	0.093
-351.508	-151.157	0.260	0.019
-350.493	282.665	0.056	0.101
-349.479	-99.163	0.146	0.037
-348.464	-103.636	-0.363	-0.085
-347.450	35.846	-0.086	0.076
-346.435	-200.000	0.005	-0.166
-345.420	-17.553	-0.417	0.260
-344.406	54.411	0.065	0.062
-343.391	-200.000	0.043	0.189
-342.377	473.295	0.186	-0.416
-341.362	800.000	0.096	0.342
-340.348	119.529	0.121	-0.149
-339.333	-42.316	-0.295	0.150
-338.318	122.597	-0.118	-0.147
-337.304	800.000	-0.082	-0.315
-336.289	111.440	0.149	0.179
-335.275	-70.916	-0.383	-0.144
-334.260	-200.000	0.088	-0.508
-333.245	800.000	0.149	-0.472
-332.231	72.141	0.163	-0.169
-331.216	800.000	0.105	0.364
-330.202	800.000	-0.024	0.068
-329.187	-22.190	-0.364	0.220
-328.172	-70.580	0.216	-0.081
-327.158	-200.000	-0.014	0.098
-326.143	11.512	0.141	0.108
-325.129	762.011	0.155	0.417
-324.114	-163.397	-0.352	-0.017
-323.099	233.888	-0.076	-0.124
-322.085	-200.000	-0.035	0.264
-321.070	-49.346	0.299	0.142
-320.056	12.261	-0.045	-0.034
-319.041	210.744	0.249	-0.388
-318.026	800.000	-0.050	-0.141
-317.012	28.905	0.185	-0.156
-315.997	28.356	0.132	0.110
-314.983	-183.125	0.066	0.001
-313.968	236.443	-0.234	-0.384
-312.953	-160.039	-0.315	0.017
-311.939	382.486	0.043	-0.087
-310.924	-74.283	0.118	-0.042
-309.910	-98.831	-0.226	0.057
-308.895	198.870	-0.172	0.261
-307.880	-54.283	0.174	0.079
-306.866	-93.289	0.273	0.075
-305.851	228.094	0.122	0.197
-304.837	226.412	-0.166	0.267
-303.822	-109.795	0.322	0.067
-302.807	-106.202	0.248	-0.055
-301.793	800.000	-0.043	-0.128
-300.778	14.343	0.127	-0.099
-299.764	71.051	-0.143	-0.147
-298.749	76.048	-0.359	0.377
-297.735	-111.657	-0.135	0.027
-296.720	-94.240	0.129	-0.035
-295.705	-6.001	-0.097	-0.066
-294.691	-200.000	-0.021	-0.380
-293.676	-122.699	-0.293	0.047
-292.662	-200.000	0.046	0.470
-291.647	146.845	0.123	0.164
-290.632	68.184	-0.079	-0.080
-289.618	-200.000	0.017	-0.192
-288.603	126.681	-0.028	0.035
-287.589	-146.070	0.029	-0.003
-286.574	134.667	-0.041	-0.052
-285.559	-146.834	-0.057	0.005
-284.545	722.592	0.093	-0.246
-283.530	-200.000	0.026	0.117
-282.516	-66.503	0.272	0.107
-281.501	800.000	0.081	0.254
-280.486	110.545	0.045	-0.054
-279.472	800.000	-0.020	-0.064
-278.457	233.933	-0.035	0.057
-277.443	47.868	-0.133	0.123
-276.428	-113.067	0.086	0.017
-275.413	-89.656	0.074	-0.021
-274.399	-200.000	0.014	0.401
-273.384	-47.484	0.241	0.116
-272.370	-80.686	0.149	0.049
-271.355	1.809	0.169	0.121
-270.340	-109.278	-0.200	0.042
-269.326	-200.000	-0.010	-0.109
-268.311	-119.578	0.123	0.021
-267.297	226.709	-0.068	-0.110
-266.282	-131.823	-0.215	0.028
-265.267	112.232	0.221	0.265
-264.253	-58.227	-0.163	0.070
-263.238	-200.000	0.047	-0.226
-262.224	782.387	-0.075	0.202
-261.209	-200.000	-0.051	0.241
-260.195	-63.810	0.253	0.102
-259.180	-51.348	0.199	0.092
-258.165	-157.119	-0.167	0.010
-257.151	405.397	-0.069	-0.145
-256.136	147.976	0.117	0.156
-255.122	-58.768	-0.251	-0.108
-254.107	128.188	-0.202	0.254
-253.092	-0.873	-0.194	0.136
-252.078	133.606	-0.155	-0.199
-251.063	64.405	0.108	0.108
-250.049	-200.000	-0.016	0.197
-249.034	-200.000	0.052	0.337
-248.019	160.405	-0.066	-0.091
-247.005	-138.436	0.241	-0.026
-245.990	800.000	0.104	0.317
-244.976	-200.000	-0.003	0.095
-243.961	86.067	-0.158	0.172
-242.946	-147.772	-0.338	0.028
-241.932	-32.351	0.382	0.211
-240.917	-192.375	-0.203	0.002
-239.903	243.955	0.045	0.075
-238.888	212.431	-0.069	0.108
-237.873	-200.000	-0.018	-0.265
-236.859	800.000	-0.018	-0.059
-235.844	-200.000	-0.009	-0.153
-234.830	1.833	-0.105	-0.075
-233.815	-200.000	-0.029	0.170
-232.800	-97.517	0.128	0.033
-231.786	327.839	-0.074	0.140
-230.771	-200.000	-0.011	-0.150
-229.757	-115.205	-0.094	0.018
-228.742	-142.769	-0.196	-0.019
-227.727	76.149	0.238	-0.249
-226.713	308.906	0.400	-0.739
-225.698	394.453	0.072	-0.148
-224.684	-175.437	0.092	0.002
-223.669	-187.765	-0.112	0.001
-222.655	416.498	0.049	-0.104
-221.640	-174.586	0.170	-0.005
-220.625	-200.000	-0.006	-0.115
-219.611	99.496	0.181	0.208
-218.596	65.211	0.011	-0.011
-217.582	63.112	-0.306	-0.303
-216.567	-59.222	0.165	-0.070
-215.552	765.196	-0.047	-0.127
-214.538	-109.138	0.179	0.038
-213.523	50.362	0.149	0.139
-212.509	428.657	0.071	-0.152
-211.494	-15.107	0.066	-0.042
-210.479	800.000	-0.080	0.228
-209.465	2.815	0.093	0.067
-208.450	284.861	0.138	-0.246
-207.436	-48.631	0.266	-0.126
-206.421	5.370	0.253	-0.184
-205.406	-200.000	0.077	-0.361
-204.392	-104.749	-0.266	0.060
-203.377	-40.303	-0.181	0.093
-202.363	-65.788	0.104	0.041
-201.348	-14.881	-0.072	0.046
-200.333	167.496	-0.142	0.200
-199.319	123.863	-0.201	0.250
-198.304	119.354	-0.177	-0.216
-197.290	51.294	0.070	-0.065
-196.275	102.151	-0.072	-0.083
-195.260	-92.396	-0.226	0.063
-194.246	370.450	0.154	0.308
-193.231	409.511	-0.083	0.173
-192.217	-189.345	-0.419	0.005
-191.202	-55.098	0.293	-0.130
-190.187	-200.000	0.026	0.373
-189.173	-103.586	0.362	0.084
-188.158	113.816	-0.191	0.230
-187.144	95.362	-0.110	-0.124
-186.129	-200.000	-0.073	-0.329
-185.114	436.439	0.171	-0.368
-184.100	-64.311	-0.241	-0.097
-183.085	-117.776	-0.260	-0.046
-182.071	-101.803	0.343	0.082
-181.056	-30.688	0.033	0.019
-180.042	-77.434	0.364	-0.125
-179.027	237.385	0.070	0.115
-178.012	-40.229	0.006	0.003
-176.998	-3.322	-0.155	0.106
-175.983	115.925	-0.187	0.226
-174.969	128.150	0.047	0.059
-173.954	-107.189	-0.079	-0.017
-172.939	-150.156	0.100	0.008
-171.925	-0.286	0.299	0.210
-170.910	83.980	-0.247	0.266
-169.896	-14.938	-0.284	0.180
-168.881	-200.000	0.030	-0.526
-167.866	29.953	0.091	-0.077
-166.852	83.705	0.097	-0.104
-165.837	153.525	-0.250	0.338
-164.823	800.000	0.042	0.163
-163.808	430.495	0.077	-0.164
-162.793	143.094	0.222	-0.291
-161.779	-20.826	0.113	0.068
-160.764	79.880	-0.172	0.182
-159.750	800.000	0.058	-0.168
-158.735	12.111	0.156	0.119
-157.720	-200.000	-0.016	0.180
-156.706	74.717	-0.034	0.036
-155.691	-97.228	-0.281	0.072
-154.677	-123.440	0.249	0.039
-153.662	-83.864	-0.200	-0.063
-152.647	-200.000	-0.005	-0.126
-151.633	-124.026	0.116	0.018
-150.618	-200.000	-0.007	0.231
-149.604	-18.810	-0.077	0.047
-148.589	-93.449	-0.052	0.014
-147.574	-200.000	-0.021	-0.148
-146.560	800.000	-0.021	0.076
-145.545	-84.564	0.576	0.179
-144.531	-200.000	-0.017	-0.109
-143.516	72.397	-0.141	-0.144
-142.502	-200.000	0.035	0.178
-141.487	-178.714	-0.061	-0.001
-140.472	452.938	0.250	0.546
-139.458	179.491	0.051	-0.073
-138.443	235.074	0.182	-0.296
-137.429	9.258	0.198	-0.148
-136.414	195.164	-0.122	0.183
-135.399	800.000	0.023	0.094
-134.385	-200.000	0.021	-0.298
-133.370	-99.749	0.101	-0.025
-132.356	-200.000	-0.016	0.163
-131.341	637.051	-0.030	0.075
-130.326	403.665	0.052	0.109
-129.312	297.191	0.201	-0.363
-128.297	104.308	-0.223	0.258
-127.283	800.000	0.041	0.123
-126.268	-174.119	0.014	0.000
-125.253	186.922	0.062	-0.092
-124.239	-96.331	-0.244	-0.064
-123.224	-80.541	-0.283	-0.093
-122.210	-28.279	0.244	-0.139
-121.195	343.549	-0.090	0.174
-120.180	-19.456	-0.291	-0.178
-119.166	303.913	0.022	-0.040
-118.151	-200.000	-0.435	-0.002
-117.137	-158.748	0.243	-0.014
-116.122	-120.988	0.389	0.064
-115.107	212.652	0.098	-0.152
-114.093	800.000	-0.098	-0.374
-113.078	800.000	0.032	0.090
-112.064	-200.000	-0.030	-0.148
-111.049	186.827	0.063	0.092
-110.034	800.000	0.030	-0.094
-109.020	-200.000	0.037	-0.364
-108.005	-200.000	0.009	-0.151
-106.991	-200.000	-0.063	-0.374
-105.976	-200.000	-0.031	-0.199
-104.962	800.000	0.058	0.236
-103.947	41.518	0.054	0.048
-102.932	356.720	-0.162	0.318
-101.918	7.520	-0.111	-0.082
-100.903	128.658	-0.251	0.314
-99.889	800.000	0.001	-0.003
-98.874	-57.162	-0.195	0.085
-97.859	-140.018	0.345	-0.036
-96.845	31.152	0.073	-0.061
-95.830	-99.791	0.106	0.026
-94.816	293.945	0.062	0.111
-93.801	-25.937	0.073	-0.042
-92.786	140.788	0.181	-0.236
-91.772	-150.052	0.172	0.013
-90.757	53.378	-0.113	0.107
-89.743	37.359	-0.092	0.080
-88.728	-96.962	0.152	0.039
-87.713	60.547	0.035	-0.034
-86.699	30.139	-0.065	-0.055
-85.684	339.610	0.059	0.114
-84.670	312.014	-0.139	0.257
-83.655	112.393	0.114	-0.136
-82.640	-151.562	0.272	-0.020
-81.626	-193.320	0.289	0.002
-80.611	72.868	0.164	0.169
-79.597	488.025	-0.047	-0.106
-78.582	-26.021	-0.319	0.185
-77.567	-53.632	0.346	0.156
-76.553	-79.123	0.304	-0.102
-75.538	800.000	0.014	-0.058
-74.524	-92.211	0.196	-0.054
-73.509	153.534	-0.194	-0.262
-72.494	-129.727	0.144	0.020
-71.480	-82.715	0.125	0.040
-70.465	30.485	0.110	0.092
-69.451	-180.144	-0.388	-0.008
-68.436	-200.000	0.131	0.000
-67.422	59.726	0.085	-0.083
-66.407	-30.880	-0.205	0.114
-65.392	15.410	-0.064	0.049
-64.378	-29.727	-0.032	0.018
-63.363	800.000	-0.166	0.521
-62.349	-109.685	0.017	-0.004
-61.334	-10.105	-0.645	-0.421
-60.319	103.943	0.654	0.756
-59.305	800.000	-0.317	-1.162
-58.290	578.799	0.395	0.951
-57.276	238.936	0.724	1.183
-56.261	-200.000	106.819	581.836
-55.246	450.611	1466.503	3182.045
-54.232	148.710	2647.397	3516.718
-53.217	106.388	2156.264	2512.115
-52.203	41.179	1604.845	1425.469
-51.188	33.188	1343.635	1145.262
-50.173	30.120	1302.877	1092.429
-49.159	53.798	1355.529	1279.512
-48.144	54.273	1371.047	1296.956
-47.130	33.251	1326.682	1131.009
-46.115	29.948	1308.958	1096.334
-45.100	29.688	1304.443	1090.972
-44.086	29.689	1301.858	1088.775
-43.071	29.555	1299.968	1086.361
-42.057	29.545	1297.300	1084.034
-41.042	29.539	1295.665	1082.585
-40.027	29.674	1294.229	1082.135
-39.013	29.670	1292.104	1080.291
-37.998	29.666	1290.636	1079.001
-36.984	29.693	1288.527	1077.350
-35.969	29.816	1286.807	1076.583
-34.954	29.741	1285.133	1074.704
-33.940	29.792	1284.623	1074.533
-32.925	29.796	1282.865	1073.041
-31.911	29.864	1280.994	1071.830
-30.896	29.894	1279.832	1070.989
-29.881	29.809	1278.554	1069.387
-28.867	29.838	1277.044	1068.245
-27.852	29.863	1275.482	1067.043
-26.838	29.832	1274.171	1065.726
-25.823	29.889	1273.261	1065.250
-24.809	29.856	1271.509	1063.549
-23.794	29.900	1270.489	1062.912
-22.779	29.824	1269.346	1061.475
-21.765	29.830	1268.238	1060.543
-20.750	29.819	1266.726	1059.170
-19.736	29.773	1265.280	1057.656
-18.721	29.719	1263.791	1056.059
-17.706	29.641	1263.470	1055.304
-16.692	29.663	1261.675	1053.891
-15.677	29.698	1260.933	1053.428
-14.663	29.676	1259.614	1052.161
-13.648	29.648	1258.820	1051.293
-12.633	29.686	1257.730	1050.559
-11.619	29.686	1256.904	1049.826
-10.604	29.686	1256.015	1049.042
-9.590	29.701	1254.706	1047.996
-8.575	29.765	1253.358	1047.189
-7.560	29.621	1253.356	1046.332
-6.546	29.698	1252.137	1045.707
-5.531	29.681	1251.347	1044.910
-4.517	29.709	1250.130	1044.008
-3.502	29.674	1249.680	1043.391
-2.487	29.678	1248.873	1042.701
-1.473	29.681	1244.378	1038.926
-0.458	28.378	1229.735	1019.412
0.556	23.146	1213.923	983.421
1.571	19.779	1220.394	969.727
2.586	18.889	1235.489	976.584
3.600	18.762	1224.466	967.067
4.615	13.762	1150.905	882.360
5.629	4.732	1074.694	778.836
6.644	0.401	1054.643	742.930
7.659	0.125	1052.082	739.706
8.673	0.007	1050.933	738.250
9.688	-0.012	1049.726	737.246
10.702	0.201	1048.282	737.211
11.717	5.629	1054.938	768.515
12.731	14.145	1066.520	818.971
13.746	17.667	1069.600	838.623
14.761	17.116	1068.043	834.622
15.775	15.892	1066.683	827.471
16.790	14.989	1064.212	821.053
17.804	14.209	1062.943	816.176
18.819	13.933	1061.949	813.990
19.834	13.631	1060.911	811.646
20.848	13.356	1060.362	809.804
21.863	13.179	1059.134	807.932
22.877	13.129	1057.886	806.665
23.892	12.887	1057.742	805.302
24.907	13.047	1056.922	805.384
25.921	12.884	1056.700	804.350
26.936	13.163	1055.278	804.557
27.950	13.065	1054.620	803.508
28.965	13.197	1053.077	802.899
29.980	13.313	1051.823	802.437
30.994	13.234	1050.748	801.161
32.009	13.246	1050.332	800.831
33.023	13.263	1048.663	799.570
34.038	13.258	1047.823	798.834
35.053	13.194	1046.944	797.784
36.067	13.225	1045.971	797.121
37.082	13.221	1045.486	796.663
38.096	13.266	1044.624	796.154
39.111	13.159	1044.254	795.287
40.126	13.176	1042.718	794.128
41.140	13.043	1041.611	792.575
42.155	12.980	1040.270	791.185
43.169	12.953	1039.899	790.699
44.184	12.917	1038.785	789.610
45.199	12.926	1037.626	788.705
46.213	13.005	1036.323	788.023
47.228	13.040	1035.340	787.369
48.242	13.165	1033.907	786.805
49.257	13.085	1033.372	785.950
50.271	13.157	1032.592	785.627
51.286	13.041	1031.703	784.332
52.301	13.080	1030.905	783.841
53.315	13.005	1029.655	782.466
54.330	12.950	1028.864	781.535
55.344	13.038	1027.616	780.934
56.359	13.124	1026.835	780.677
57.374	12.902	1026.265	779.127
58.388	12.909	1025.178	778.264
59.403	13.006	1024.247	777.947
60.417	12.937	1023.491	776.979
61.432	12.942	1022.513	776.192
62.447	12.958	1021.603	775.506
63.461	12.914	1021.307	775.007
64.476	12.828	1020.612	774.007
65.490	12.816	1019.639	773.144
66.505	12.862	1019.008	772.813
67.520	12.799	1018.291	771.906
68.534	12.915	1017.138	771.506
69.549	12.917	1017.120	771.436
70.563	12.910	1016.108	770.564
71.578	12.788	1015.245	769.272
72.593	12.807	1014.692	768.875
73.607	12.783	1013.905	768.099
74.622	12.882	1013.463	768.156
75.636	12.844	1012.298	767.028
76.651	12.782	1012.098	766.523
77.666	12.878	1011.130	766.166
78.680	12.834	1010.751	765.609
79.695	12.917	1009.789	765.197
80.709	12.954	1009.274	764.910
81.724	12.976	1008.642	764.467
82.739	12.996	1007.844	763.887
83.753	13.067	1007.077	763.566
84.768	13.098	1005.868	762.723
85.782	13.198	1005.408	762.767
86.797	13.164	1004.652	761.970
87.812	13.061	1004.099	761.011
88.826	13.159	1002.407	760.110
89.841	13.092	1001.466	759.020
90.855	13.258	1000.598	759.059
91.870	13.161	1000.307	758.325
92.884	13.153	999.585	757.673
93.899	13.152	998.405	756.709
94.914	13.319	997.334	756.595
95.928	13.242	996.765	755.743
96.943	13.224	996.020	755.028
97.957	13.086	995.678	754.074
98.972	13.129	994.290	753.151
99.987	13.279	993.318	753.032
101.001	13.175	992.732	752.047
102.016	13.170	991.899	751.327
103.030	13.168	991.204	750.724
104.045	13.207	990.291	750.145
105.060	13.105	989.430	748.962
106.074	13.245	988.324	748.697
107.089	13.188	987.483	747.734
108.103	13.107	986.488	746.548
109.118	12.992	985.666	745.341
110.133	12.959	985.108	744.702
111.147	13.057	984.148	744.351
112.162	13.023	983.401	743.570
113.176	13.147	982.285	743.216
114.191	13.132	981.994	742.866
115.206	13.226	980.857	742.359
116.220	13.071	979.825	740.818
117.235	13.070	979.131	740.222
118.249	13.187	978.063	739.874
119.264	13.174	977.472	739.304
120.279	13.055	976.602	738.048
121.293	13.043	975.841	737.356
122.308	13.066	974.899	736.679
123.322	12.925	974.531	735.708
124.337	13.039	973.239	735.176
125.352	13.052	971.973	734.212
126.366	13.069	970.800	733.335
127.381	13.043	970.026	732.570
128.395	13.147	968.981	732.179
129.410	13.107	968.235	731.371
130.424	12.986	967.787	730.435
131.439	13.121	966.401	729.921
132.454	13.233	966.007	730.052
133.468	13.071	965.329	728.761
134.483	13.190	964.795	728.820
135.497	13.000	963.584	727.003
136.512	13.135	962.392	726.634
137.527	13.139	961.808	726.143
138.541	13.164	960.862	725.476
139.556	13.224	959.956	724.992
140.570	13.366	959.029	724.850
141.585	13.279	958.588	724.071
142.600	13.239	958.052	723.426
143.614	13.433	956.410	722.971
144.629	13.342	956.180	722.332
145.643	13.222	955.623	721.325
146.658	13.284	954.238	720.489
147.673	13.265	953.050	719.445
148.687	13.322	952.328	719.083
149.702	13.139	951.952	717.940
150.716	13.159	951.369	717.523
151.731	13.180	950.474	716.878
152.746	13.102	949.703	715.894
153.760	13.308	948.912	716.125
154.775	13.327	948.242	715.638
155.789	13.380	947.511	715.252
156.804	13.469	946.704	714.963
157.819	13.379	946.302	714.211
158.833	13.401	945.724	713.807
159.848	13.537	944.720	713.568
160.862	13.335	944.238	712.272
161.877	13.427	942.917	711.610
162.892	13.216	942.422	710.267
163.906	13.406	941.080	710.006
164.921	13.278	940.520	708.975
165.935	13.480	939.526	709.026
166.950	13.416	938.103	707.616
167.964	13.469	937.435	707.277
168.979	13.522	936.733	706.909
169.994	13.471	935.847	705.962
171.008	13.477	935.247	705.472
172.023	13.474	934.781	705.046
173.037	13.406	934.291	704.325
174.052	13.418	933.522	703.731
175.067	13.503	932.384	703.172
176.081	13.354	932.135	702.292
177.096	13.379	931.683	701.993
178.110	13.579	930.956	702.231
179.125	13.501	930.556	701.538
180.140	13.498	929.780	700.880
181.154	13.500	929.229	700.409
182.169	13.724	928.466	700.720
183.183	13.632	928.262	700.113
184.198	13.722	927.415	699.791
185.213	13.610	926.881	698.854
186.227	13.729	926.158	698.751
187.242	13.735	925.251	698.031
188.256	13.726	925.049	697.776
189.271	13.774	924.074	697.180
190.286	13.581	923.239	695.678
191.300	13.465	922.777	694.785
192.315	13.525	921.668	694.138
193.329	13.560	921.420	694.036
194.344	13.604	920.914	693.780
195.359	13.583	920.366	693.215
196.373	13.599	919.841	692.827
197.388	13.841	918.834	693.019
198.402	13.748	919.070	692.746
199.417	13.846	917.919	692.223
200.432	13.971	917.556	692.411
201.446	13.949	916.683	691.599
202.461	14.077	916.453	691.898
203.475	14.024	915.719	691.064
204.490	13.942	915.181	690.254
205.504	13.932	914.225	689.432
206.519	13.920	913.624	688.866
207.534	13.936	912.693	688.171
208.548	13.917	912.182	687.647
209.563	13.892	911.621	687.060
210.577	13.963	910.703	686.598
211.592	13.843	910.396	685.812
212.607	14.103	909.233	685.945
213.621	14.074	908.400	685.140
214.636	14.100	908.128	684.980
215.650	14.077	907.294	684.197
216.665	14.069	906.603	683.582
217.680	14.136	905.794	683.185
218.694	14.213	905.186	682.982
219.709	14.253	904.346	682.452
220.723	14.237	903.767	681.890
221.738	14.278	903.135	681.519
222.753	14.096	902.710	680.393
223.767	14.251	902.127	680.528
224.782	14.312	901.498	680.245
225.796	14.323	900.990	679.844
226.811	14.170	900.168	678.539
227.826	14.197	899.801	678.314
228.840	14.150	898.876	677.365
229.855	14.279	897.815	677.030
230.869	14.221	897.312	676.355
231.884	14.262	896.588	675.918
232.899	14.212	896.065	675.259
233.913	14.346	894.810	674.798
234.928	14.127	894.782	673.829
235.942	14.127	894.112	673.264
236.957	14.258	893.106	672.976
237.972	14.200	892.794	672.446
238.986	14.133	892.339	671.776
240.001	14.300	891.436	671.711
241.015	14.286	891.217	671.427
242.030	14.425	890.295	671.234
243.045	14.358	889.838	670.559
244.059	14.431	889.092	670.231
245.074	14.324	888.665	669.421
246.088	14.374	888.114	669.147
247.103	14.444	887.330	668.777
248.117	14.504	886.718	668.499
249.132	14.652	886.189	668.635
250.147	14.654	885.737	668.240
251.161	14.613	885.071	667.516
252.176	14.679	884.194	667.060
253.190	14.650	883.652	666.474
254.205	14.793	883.057	666.538
255.220	14.810	882.278	665.961
256.234	14.937	881.748	666.006
257.249	14.822	881.157	665.041
258.263	14.811	880.124	664.160
259.278	14.780	879.544	663.540
260.293	14.747	879.261	663.138
261.307	14.967	878.356	663.269
262.322	14.744	878.093	662.128
263.336	14.908	877.243	662.078
264.351	15.016	876.397	661.809
265.366	14.985	875.953	661.290
266.380	14.993	875.197	660.693
267.395	14.989	874.600	660.167
268.409	15.045	873.797	659.725
269.424	14.945	873.200	658.823
270.439	14.920	872.477	658.122
271.453	14.964	871.689	657.641
272.468	15.015	871.058	657.308
273.482	15.069	870.945	657.375
274.497	15.008	870.489	656.735
275.512	15.026	869.813	656.237
276.526	14.981	869.729	655.938
277.541	15.108	868.866	655.727
278.555	15.059	868.239	655.005
279.570	15.090	867.581	654.568
280.585	15.287	866.823	654.708
281.599	15.114	866.017	653.368
282.614	15.196	865.075	652.920
283.628	15.183	865.038	652.782
284.643	15.193	864.391	652.276
285.657	15.287	863.195	651.682
286.672	15.349	863.061	651.763
287.687	15.272	862.240	650.788
288.701	15.136	861.945	649.978
289.716	15.215	861.404	649.817
290.730	15.266	860.750	649.465
291.745	15.341	860.150	649.248
292.760	15.441	859.545	649.119
293.774	15.422	859.040	648.608
294.789	15.362	858.536	647.936
295.803	15.386	857.802	647.419
296.818	15.422	857.101	646.973
297.833	15.300	856.552	646.030
298.847	15.373	855.669	645.587
299.862	15.433	855.061	645.301
300.876	15.495	854.555	645.102
301.891	15.468	854.353	644.788
302.906	15.552	854.048	644.821
303.920	15.484	853.352	643.980
304.935	15.692	852.640	644.182
305.949	15.594	851.916	643.204
306.964	15.574	851.151	642.491
307.979	15.557	850.912	642.189
308.993	15.592	850.349	641.844
310.008	15.760	849.214	641.570
311.022	15.776	848.802	641.264
312.037	15.623	848.293	640.237
313.052	15.572	848.114	639.852
314.066	15.556	847.286	639.109
315.081	15.553	846.575	638.507
316.095	15.625	846.057	638.333
317.110	15.736	845.062	637.945
318.125	15.591	845.139	637.398
319.139	15.601	844.780	637.108
320.154	15.645	844.212	636.792
321.168	15.740	843.383	636.469
322.183	15.742	843.019	636.143
323.197	15.754	842.660	635.863
324.212	15.776	842.035	635.420
325.227	15.791	841.201	634.790
326.241	15.758	840.695	634.227
327.256	15.782	840.006	633.740
328.270	15.771	839.671	633.393
329.285	15.749	839.368	633.023
330.300	15.794	838.800	632.709
331.314	15.748	838.266	632.077
332.329	15.591	837.940	631.184
333.343	15.764	837.032	631.094
334.358	15.883	836.595	631.155
335.373	15.931	835.967	630.804
336.387	15.840	836.006	630.440
337.402	15.876	835.556	630.180
338.416	15.958	835.215	630.172
339.431	15.994	834.882	630.001
340.446	16.110	834.586	630.154
341.460	16.045	834.048	629.448
342.475	16.055	833.621	629.108
343.489	16.241	833.046	629.313
344.504	16.263	832.450	628.887
345.519	16.417	832.013	629.075
346.533	16.202	831.852	628.097
347.548	16.211	830.945	627.390
348.562	16.085	830.646	626.642
349.577	16.024	830.344	626.131
350.592	16.075	829.269	625.455
351.606	16.169	828.500	625.169
352.621	16.144	828.262	624.841
353.635	16.166	827.469	624.268
354.650	16.182	826.740	623.722
355.665	16.262	826.317	623.645
356.679	16.202	825.816	622.988
357.694	16.232	824.852	622.317
358.708	16.264	824.318	621.978
359.723	16.103	823.950	621.053
360.738	16.112	823.456	620.656
361.752	16.401	822.334	620.818
362.767	16.327	822.196	620.388
363.781	16.295	821.837	619.944
364.796	16.433	821.122	619.855
365.810	16.451	820.815	619.635
366.825	16.665	820.363	620.024
367.840	16.590	819.776	619.251
368.854	16.328	819.417	617.968
369.869	16.505	819.004	618.246
370.883	16.452	818.684	617.758
371.898	16.554	818.441	617.892
372.913	16.728	817.807	617.992
373.927	16.498	817.231	616.665
374.942	16.694	816.650	616.888
375.956	16.867	815.922	616.911
376.971	16.771	815.762	616.386
377.986	16.702	815.269	615.708
379.000	16.708	815.120	615.563
380.015	16.779	814.347	615.185
381.029	16.748	813.964	614.726
382.044	16.797	813.524	614.518
383.059	16.888	812.678	614.154
384.073	16.827	812.197	613.513
385.088	16.808	811.831	613.118
386.102	16.683	811.528	612.382
387.117	16.725	810.486	611.691
388.132	16.727	809.872	611.182
389.146	16.829	809.470	611.191
390.161	16.871	809.078	610.993
391.175	16.801	808.761	610.447
392.190	16.761	808.100	609.751
393.205	16.777	807.722	609.471
394.219	16.924	807.204	609.552
395.234	16.837	806.818	608.894
396.248	16.881	806.475	608.740
397.263	16.813	805.918	608.024
398.278	16.907	805.483	607.975
399.292	16.764	805.299	607.273
400.307	16.612	804.796	606.294
401.321	16.812	804.473	606.712
402.336	16.827	803.810	606.212
403.350	16.917	803.237	606.048
404.365	17.055	802.690	606.074
405.380	17.136	802.250	605.977
406.394	17.011	802.109	605.374
407.409	17.139	801.384	605.227
408.423	17.240	800.778	605.076
409.438	17.072	800.818	604.454
410.453	17.233	800.251	604.546
411.467	17.090	799.741	603.599
412.482	17.175	799.417	603.604
413.496	17.348	799.112	603.934
414.511	17.316	798.731	603.478
415.526	17.428	798.179	603.405
416.540	17.426	797.939	603.164
417.555	17.338	797.364	602.365
418.569	17.270	796.794	601.640
419.584	17.285	796.658	601.537
420.599	17.375	796.188	601.446
421.613	108.994	1291.180	1468.829
422.628	93.687	1363.283	1468.931
