DTS Sentinel unit serial number:	SN413079Multiplexer serial number:	ORYXHardware model number:	OX4-SRSoftware version number:	ORYX F/W v4.00 Oryx Data Collector v3.7.2.0data status	okinstallation	princeton_trtdifferential loss correction	single-endedforward channel	channel 1reverse channel	N/Adate	2019/09/17time	22:02:35forward acquisition time	60.00reverse acquisition time	0.00gamma	496.2192k internal	0.2340k external	0.2340temperature offset calibration	0.9971default loss term (dB/km)	0.3790temperature slope calibration	1.0000multiplexer offset coefficient	1.0000multiplexer slope coefficient	1.0000fibre end	0.00T internal ref (°C)	26.00T ext. ref 1 (°C)	0.19T ext. ref 2 (°C)	18.86length (m)	temperature (°C)	Stokes	anti-Stokes-747.200	122.588	-0.435	0.545
-746.185	285.417	0.072	0.131
-745.171	49.154	0.246	-0.231
-744.156	800.000	0.024	0.069
-743.142	13.172	-0.202	-0.157
-742.127	-99.826	-0.128	-0.032
-741.112	-46.831	-0.273	-0.134
-740.098	341.443	-0.136	0.266
-739.083	348.583	-0.214	0.423
-738.069	-149.166	-0.340	-0.027
-737.054	-200.000	0.009	-0.076
-736.039	-153.583	-0.151	-0.010
-735.025	800.000	0.086	0.251
-734.010	16.577	0.086	0.068
-732.996	95.025	-0.170	-0.194
-731.981	297.854	0.106	-0.195
-730.966	-132.246	0.303	-0.039
-729.952	46.284	-0.168	-0.156
-728.937	-175.893	0.137	-0.004
-727.923	92.739	-0.187	-0.212
-726.908	135.774	-0.101	0.132
-725.894	28.233	0.125	0.106
-724.879	273.801	0.050	-0.089
-723.864	8.494	-0.127	-0.096
-722.850	43.946	0.073	0.067
-721.835	800.000	-0.054	0.178
-720.821	498.670	0.071	-0.163
-719.806	234.870	0.139	0.230
-718.791	800.000	-0.114	0.323
-717.777	72.988	0.145	-0.152
-716.762	154.170	-0.215	-0.296
-715.748	-66.371	0.282	-0.112
-714.733	-200.000	-0.075	-0.368
-713.718	10.234	0.579	-0.441
-712.704	186.406	-0.085	0.127
-711.689	-104.498	-0.218	-0.050
-710.675	70.291	-0.088	-0.091
-709.660	284.183	-0.073	-0.131
-708.645	-86.781	-0.245	-0.075
-707.631	11.411	-0.208	-0.159
-706.616	-101.692	0.197	0.048
-705.602	-123.622	-0.283	-0.045
-704.587	38.166	0.062	-0.056
-703.572	-102.748	-0.068	-0.016
-702.558	-30.624	-0.119	-0.067
-701.543	-200.000	0.021	0.157
-700.529	-200.000	-0.347	0.002
-699.514	-11.030	-0.264	0.175
-698.499	-33.256	-0.291	0.161
-697.485	-200.000	-0.029	-0.226
-696.470	143.417	0.152	0.203
-695.456	800.000	-0.029	-0.102
-694.441	-200.000	-0.082	0.377
-693.426	120.995	-0.099	0.123
-692.412	43.393	-0.247	0.226
-691.397	205.249	0.208	0.322
-690.383	-68.020	0.165	0.064
-689.368	-200.000	-0.016	-0.177
-688.354	67.700	-0.117	-0.120
-687.339	-108.903	-0.077	-0.016
-686.324	136.602	-0.281	-0.366
-685.310	-39.381	0.392	-0.205
-684.295	94.822	0.140	0.159
-683.281	158.183	0.176	-0.244
-682.266	-200.000	-0.057	-0.274
-681.251	82.400	-0.089	-0.096
-680.237	642.350	0.109	0.277
-679.222	-14.884	0.065	-0.042
-678.208	-13.194	0.111	0.072
-677.193	60.669	-0.067	0.066
-676.178	361.997	-0.055	-0.111
-675.164	137.750	-0.154	0.202
-674.149	-54.222	0.436	0.198
-673.135	23.838	0.222	0.183
-672.120	800.000	-0.020	-0.082
-671.105	-55.096	-0.137	0.062
-670.091	-14.716	-0.210	0.135
-669.076	800.000	-0.067	0.289
-668.062	786.914	0.163	-0.447
-667.047	287.943	-0.083	-0.151
-666.032	800.000	-0.063	-0.201
-665.018	800.000	-0.047	-0.161
-664.003	-64.172	-0.191	-0.078
-662.989	242.689	-0.167	-0.279
-661.974	-111.534	-0.235	0.048
-660.959	-159.884	-0.210	0.011
-659.945	-200.000	0.054	0.298
-658.930	-200.000	-0.008	-0.112
-657.916	92.315	-0.235	-0.264
-656.901	-160.002	0.241	-0.013
-655.886	-60.675	-0.118	-0.050
-654.872	-76.803	-0.286	-0.100
-653.857	-128.178	-0.084	0.012
-652.843	-195.302	0.247	0.002
-651.828	284.262	-0.079	0.142
-650.814	92.051	-0.262	0.295
-649.799	134.674	-0.071	0.092
-648.784	-127.980	0.336	0.048
-647.770	79.440	0.137	0.147
-646.755	63.521	0.081	-0.081
-645.741	-97.742	0.176	-0.046
-644.726	800.000	-0.090	-0.293
-643.711	-200.000	-0.008	-0.268
-642.697	186.564	-0.042	-0.063
-641.682	800.000	-0.114	0.324
-640.668	-200.000	-0.048	-0.210
-639.653	-57.736	-0.219	0.096
-638.638	-130.814	0.165	-0.022
-637.624	182.521	-0.126	0.186
-636.609	-58.390	0.226	-0.098
-635.595	-200.000	0.006	0.107
-634.580	168.833	0.074	0.105
-633.565	-157.807	-0.222	-0.013
-632.551	5.131	0.203	0.150
-631.536	-16.864	0.123	-0.078
-630.522	-91.030	-0.316	-0.091
-629.507	-74.167	-0.215	-0.078
-628.492	15.609	0.011	-0.009
-627.478	217.063	-0.054	0.086
-626.463	487.676	0.057	0.130
-625.449	-85.343	0.176	-0.055
-624.434	-9.478	0.413	0.275
-623.419	-200.000	-0.009	0.211
-622.405	199.654	0.139	-0.212
-621.390	119.541	0.115	-0.143
-620.376	-109.051	-0.310	-0.066
-619.361	22.948	-0.127	0.104
-618.346	-135.197	0.163	-0.020
-617.332	61.893	-0.145	0.144
-616.317	-108.386	-0.295	0.063
-615.303	-200.000	-0.035	0.315
-614.288	-200.000	-0.038	-0.319
-613.273	12.348	-0.219	-0.168
-612.259	-137.112	-0.100	-0.011
-611.244	142.756	-0.196	0.260
-610.230	-67.883	-0.127	0.050
-609.215	-91.876	0.224	-0.063
-608.201	-6.962	0.218	-0.148
-607.186	800.000	0.094	0.347
-606.171	-56.837	-0.231	0.102
-605.157	-96.557	-0.410	-0.108
-604.142	-79.729	0.196	0.066
-603.128	800.000	-0.011	-0.048
-602.113	-200.000	0.026	0.216
-601.098	122.048	0.087	0.108
-600.084	3.107	0.220	0.160
-599.069	109.484	-0.146	0.174
-598.055	-165.997	0.284	0.012
-597.040	-200.000	-0.015	-0.253
-596.025	70.159	0.297	-0.306
-595.011	-87.721	-0.099	0.030
-593.996	297.497	-0.076	0.139
-592.982	208.415	0.104	0.162
-591.967	80.217	-0.130	-0.139
-590.952	778.950	-0.106	0.288
-589.938	-9.192	-0.211	0.140
-588.923	-120.630	-0.453	-0.076
-587.909	-200.000	0.018	-0.098
-586.894	-200.000	0.041	-0.326
-585.879	800.000	-0.053	-0.147
-584.865	252.383	0.133	-0.226
-583.850	624.147	-0.043	-0.108
-582.836	301.534	0.072	-0.133
-581.821	800.000	0.111	-0.345
-580.806	800.000	0.020	0.070
-579.792	251.958	0.211	0.358
-578.777	236.304	0.180	-0.296
-577.763	-200.000	-0.008	-0.178
-576.748	42.264	-0.296	-0.268
-575.733	109.827	-0.227	-0.271
-574.719	324.005	0.159	-0.303
-573.704	-200.000	-0.087	0.445
-572.690	83.111	-0.120	-0.130
-571.675	737.082	0.060	-0.160
-570.661	181.171	-0.206	-0.302
-569.646	740.229	-0.059	-0.158
-568.631	-200.000	0.020	-0.309
-567.617	24.388	-0.355	-0.292
-566.602	800.000	-0.110	0.447
-565.588	800.000	-0.075	0.260
-564.573	-200.000	-0.027	-0.154
-563.558	6.585	-0.083	-0.062
-562.544	392.439	0.016	-0.033
-561.529	-200.000	-0.042	-0.304
-560.515	-31.371	-0.271	0.152
-559.500	-200.000	-0.036	0.284
-558.485	800.000	-0.058	0.244
-557.471	580.736	-0.119	-0.291
-556.456	-200.000	-0.024	0.166
-555.442	800.000	0.037	0.148
-554.427	-64.685	-0.210	0.085
-553.412	385.927	-0.121	-0.248
-552.398	218.606	-0.267	-0.425
-551.383	-200.000	-0.021	-0.152
-550.369	-200.000	0.012	0.100
-549.354	-149.787	-0.081	0.006
-548.339	-200.000	0.016	0.279
-547.325	-161.809	0.225	-0.011
-546.310	100.623	0.126	0.145
-545.296	-150.070	0.314	0.024
-544.281	-94.201	-0.175	0.048
-543.266	-48.872	0.094	-0.045
-542.252	-140.252	0.183	0.019
-541.237	800.000	0.089	-0.288
-540.223	14.110	-0.134	0.103
-539.208	-131.437	-0.210	-0.028
-538.193	-34.469	0.114	-0.062
-537.179	323.869	-0.112	-0.213
-536.164	23.054	-0.062	0.051
-535.150	-200.000	0.039	-0.232
-534.135	-123.116	0.031	0.005
-533.121	9.318	0.167	0.125
-532.106	-148.233	0.132	-0.011
-531.091	-103.718	-0.122	-0.028
-530.077	-136.546	-0.226	-0.026
-529.062	129.467	-0.192	0.244
-528.048	520.574	-0.086	0.200
-527.033	800.000	0.090	0.262
-526.018	800.000	0.100	0.313
-525.004	-127.879	-0.160	0.023
-523.989	-93.136	-0.011	0.003
-522.975	78.549	-0.069	-0.074
-521.960	-61.368	0.463	-0.194
-520.945	-136.179	0.181	-0.021
-519.931	-105.568	-0.062	0.014
-518.916	132.643	0.119	0.153
-517.902	50.841	0.077	0.072
-516.887	292.719	0.051	0.093
-515.872	-198.465	-0.322	0.002
-514.858	-165.024	0.143	-0.006
-513.843	-168.763	-0.216	-0.008
-512.829	800.000	-0.064	-0.227
-511.814	-30.736	-0.248	-0.139
-510.799	-200.000	0.060	-0.346
-509.785	-200.000	0.038	-0.216
-508.770	800.000	-0.050	-0.214
-507.756	-67.654	-0.125	0.049
-506.741	-82.602	-0.536	0.173
-505.726	-200.000	0.025	0.124
-504.712	15.256	-0.119	0.093
-503.697	16.380	-0.087	0.068
-502.683	-200.000	0.031	0.337
-501.668	146.729	0.243	-0.324
-500.653	674.348	0.115	-0.296
-499.639	800.000	-0.015	-0.054
-498.624	-35.294	-0.127	-0.069
-497.610	538.484	0.070	0.165
-496.595	-159.140	-0.041	0.002
-495.581	440.374	0.068	-0.147
-494.566	-167.501	0.081	-0.003
-493.551	33.765	0.037	-0.032
-492.537	659.191	-0.033	0.084
-491.522	-172.872	0.148	-0.005
-490.508	800.000	0.094	0.299
-489.493	635.454	-0.071	-0.178
-488.478	-65.709	-0.236	0.094
-487.464	201.168	0.280	0.427
-486.449	447.570	-0.041	-0.089
-485.435	-200.000	-0.033	-0.259
-484.420	50.648	0.139	-0.130
-483.405	-200.000	-0.029	-0.159
-482.391	28.087	-0.305	0.255
-481.376	-200.000	-0.004	-0.261
-480.362	-146.769	0.159	-0.014
-479.347	18.620	0.221	-0.175
-478.332	-13.199	-0.032	-0.021
-477.318	-138.211	-0.164	-0.018
-476.303	56.588	0.152	-0.147
-475.289	366.620	0.192	-0.385
-474.274	115.696	-0.204	0.247
-473.259	-200.000	-0.069	0.319
-472.245	-41.756	0.146	-0.074
-471.230	-113.260	-0.173	-0.034
-470.216	-64.857	-0.216	0.087
-469.201	-120.806	0.124	0.021
-468.186	-200.000	-0.032	0.209
-467.172	67.083	-0.055	0.056
-466.157	772.085	-0.083	0.226
-465.143	-200.000	0.006	0.117
-464.128	427.769	-0.232	0.497
-463.113	294.475	0.114	0.206
-462.099	67.325	-0.039	-0.039
-461.084	-200.000	0.004	0.186
-460.070	-143.373	0.224	0.021
-459.055	800.000	0.038	-0.119
-458.040	-200.000	-0.001	-0.054
-457.026	-79.889	-0.062	-0.021
-456.011	-114.280	0.205	0.039
-454.997	-138.090	0.075	-0.008
-453.982	-165.897	-0.309	0.013
-452.968	76.363	-0.177	-0.185
-451.953	-200.000	0.025	-0.201
-450.938	-133.399	0.147	-0.018
-449.924	-174.148	0.147	-0.004
-448.909	-37.505	0.181	-0.096
-447.895	-44.293	-0.205	-0.102
-446.880	162.758	-0.150	0.209
-445.865	207.468	-0.182	0.282
-444.851	87.353	0.237	-0.259
-443.836	1.050	-0.289	-0.205
-442.822	13.320	-0.099	-0.076
-441.807	59.496	-0.235	0.230
-440.792	-112.233	-0.112	-0.022
-439.778	-200.000	-0.032	0.160
-438.763	800.000	-0.057	0.243
-437.749	605.919	0.044	0.109
-436.734	237.890	-0.149	0.244
-435.719	241.102	0.281	-0.464
-434.705	-90.954	-0.138	0.039
-433.690	800.000	-0.144	-0.475
-432.676	-200.000	0.029	-0.294
-431.661	-115.806	-0.142	-0.026
-430.646	297.326	-0.113	-0.206
-429.632	225.738	-0.124	-0.199
-428.617	706.464	0.103	-0.269
-427.603	121.773	0.269	-0.332
-426.588	141.048	0.134	-0.175
-425.573	-200.000	-0.004	-0.025
-424.559	-200.000	0.031	0.217
-423.544	352.759	0.057	-0.112
-422.530	-71.064	0.313	0.117
-421.515	20.699	0.057	0.045
-420.500	133.109	0.115	0.148
-419.486	-15.173	-0.060	0.038
-418.471	41.032	0.255	0.228
-417.457	-200.000	0.020	0.101
-416.442	800.000	-0.097	0.345
-415.428	534.233	-0.068	0.159
-414.413	-200.000	-0.023	0.122
-413.398	-107.747	0.352	0.076
-412.384	-104.751	-0.329	0.075
-411.369	-54.112	-0.071	0.032
-410.355	121.599	-0.380	-0.469
-409.340	-200.000	0.056	0.336
-408.325	10.760	-0.121	0.091
-407.311	800.000	-0.081	0.227
-406.296	102.774	-0.112	0.129
-405.282	-111.620	-0.428	0.086
-404.267	-75.712	0.344	-0.121
-403.252	800.000	0.207	0.659
-402.238	-200.000	0.031	-0.359
-401.223	119.346	-0.077	0.095
-400.209	-200.000	-0.008	0.139
-399.194	-75.907	0.024	-0.009
-398.179	-96.652	0.178	-0.046
-397.165	-200.000	0.018	0.177
-396.150	416.422	-0.010	0.022
-395.136	-46.022	0.120	-0.058
-394.121	-27.607	0.424	-0.243
-393.106	-152.810	0.280	0.020
-392.092	-30.610	0.214	0.120
-391.077	-25.104	0.355	0.208
-390.063	550.466	-0.060	-0.141
-389.048	38.129	0.272	-0.240
-388.033	-86.060	-0.202	-0.062
-387.019	244.894	-0.163	0.271
-386.004	36.997	-0.246	0.215
-384.990	-95.346	0.419	0.111
-383.975	485.097	-0.229	0.515
-382.960	54.208	0.370	-0.352
-381.946	-145.413	-0.371	0.033
-380.931	243.119	-0.029	-0.048
-379.917	134.833	-0.033	0.042
-378.902	154.529	-0.089	-0.120
-377.888	-118.957	0.140	-0.024
-376.873	-200.000	0.013	0.087
-375.858	-200.000	-0.021	-0.154
-374.844	41.561	-0.076	-0.068
-373.829	163.297	0.124	0.173
-372.815	-11.168	0.089	0.058
-371.800	-171.131	-0.303	0.010
-370.785	-153.982	-0.222	-0.015
-369.771	245.404	-0.056	0.092
-368.756	-91.326	0.092	0.026
-367.742	263.511	0.110	0.189
-366.727	-13.422	-0.169	-0.108
-365.712	84.976	-0.036	0.039
-364.698	-200.000	-0.067	-0.416
-363.683	800.000	0.073	-0.208
-362.669	-25.208	0.183	-0.107
-361.654	-83.345	0.182	0.058
-360.639	-27.857	-0.141	-0.081
-359.625	-114.927	0.321	-0.060
-358.610	-41.443	-0.240	-0.122
-357.596	-59.719	0.130	-0.055
-356.581	-200.000	0.034	-0.157
-355.566	-200.000	0.034	-0.308
-354.552	342.924	-0.190	0.368
-353.537	-0.907	0.410	0.286
-352.523	-75.511	0.140	0.049
-351.508	-200.000	0.001	0.185
-350.493	201.456	-0.081	0.123
-349.479	35.668	0.256	0.222
-348.464	71.640	0.158	-0.162
-347.450	137.318	-0.194	-0.250
-346.435	495.357	0.095	0.215
-345.420	-10.113	-0.198	-0.130
-344.406	-104.888	0.184	0.042
-343.391	-48.296	0.127	-0.060
-342.377	144.933	-0.141	-0.186
-341.362	258.359	-0.095	0.161
-340.348	-47.497	0.237	0.114
-339.333	-200.000	0.001	0.318
-338.318	-40.976	-0.143	0.073
-337.304	-15.076	0.314	-0.199
-336.289	48.779	0.255	0.236
-335.275	-200.000	-0.056	0.314
-334.260	50.415	0.029	0.027
-333.245	533.711	0.066	-0.154
-332.231	-39.758	0.311	0.161
-331.216	-138.425	-0.235	-0.025
-330.202	-62.871	0.294	0.120
-329.187	-200.000	-0.051	0.286
-328.172	-129.103	0.134	0.018
-327.158	153.240	-0.159	-0.214
-326.143	-129.974	0.033	0.005
-325.129	29.341	0.396	-0.332
-324.114	-200.000	0.002	0.014
-323.099	305.729	-0.086	0.157
-322.085	-3.936	-0.175	0.120
-321.070	48.784	0.125	0.116
-320.056	-18.131	-0.321	-0.198
-319.041	28.641	0.235	-0.196
-318.026	-200.000	-0.007	0.117
-317.012	-200.000	0.019	0.184
-315.997	-200.000	-0.035	-0.230
-314.983	800.000	0.045	0.174
-313.968	-147.012	0.368	0.031
-312.953	800.000	-0.099	-0.357
-311.939	800.000	0.076	-0.298
-310.924	-200.000	0.002	-0.135
-309.910	308.541	-0.033	-0.061
-308.895	20.690	0.162	0.130
-307.880	22.135	0.174	0.140
-306.866	412.095	0.104	-0.219
-305.851	-75.955	0.085	-0.030
-304.837	-80.564	-0.410	-0.135
-303.822	125.751	0.150	-0.187
-302.807	178.420	0.077	-0.111
-301.793	459.410	-0.083	0.181
-300.778	363.870	0.144	-0.285
-299.764	31.882	0.243	-0.206
-298.749	169.486	-0.096	0.135
-297.735	-125.526	0.249	0.037
-296.720	-84.408	-0.051	0.016
-295.705	-110.960	-0.437	-0.089
-294.691	-64.672	0.041	0.017
-293.676	-200.000	-0.058	0.254
-292.662	-200.000	-0.022	0.195
-291.647	-29.752	0.211	0.118
-290.632	800.000	0.029	0.112
-289.618	-200.000	-0.022	0.115
-288.603	170.951	0.007	0.010
-287.589	169.750	-0.079	0.111
-286.574	-44.958	0.231	0.113
-285.559	46.166	-0.118	-0.108
-284.545	-9.074	-0.138	0.091
-283.530	-90.480	-0.237	0.067
-282.516	-91.449	0.216	0.061
-281.501	502.596	0.047	0.108
-280.486	39.170	-0.210	-0.185
-279.472	209.879	-0.188	0.290
-278.457	-145.867	-0.326	0.029
-277.443	-200.000	0.019	-0.146
-276.428	-67.369	-0.182	-0.070
-275.413	-200.000	0.009	0.056
-274.399	800.000	-0.056	-0.199
-273.384	-33.809	0.261	-0.141
-272.370	-139.301	0.166	0.018
-271.355	-82.603	0.137	0.044
-270.340	-53.116	0.181	0.082
-269.326	800.000	-0.002	-0.009
-268.311	800.000	0.061	0.192
-267.297	800.000	0.047	0.137
-266.282	398.332	0.107	-0.220
-265.267	518.138	-0.151	-0.348
-264.253	-90.065	0.120	0.034
-263.238	-73.653	0.171	-0.061
-262.224	800.000	-0.092	-0.336
-261.209	377.173	0.135	0.270
-260.195	79.211	0.047	-0.049
-259.180	147.207	0.081	-0.108
-258.165	-34.318	0.282	-0.152
-257.151	243.301	-0.122	0.202
-256.136	-41.944	0.268	0.135
-255.122	-200.000	-0.006	-0.246
-254.107	-4.609	-0.038	-0.026
-253.092	36.977	0.066	0.058
-252.078	-200.000	-0.008	0.100
-251.063	358.296	0.075	0.146
-250.049	-96.998	-0.019	0.005
-249.034	51.184	-0.177	0.165
-248.019	727.062	-0.056	-0.147
-247.005	4.078	0.128	0.092
-245.990	800.000	0.091	-0.292
-244.976	-149.869	0.288	0.022
-243.961	-122.066	0.321	0.052
-242.946	-58.303	0.097	0.041
-241.932	783.869	0.067	-0.180
-240.917	234.967	0.052	0.084
-239.903	77.051	-0.092	-0.096
-238.888	-200.000	-0.029	0.193
-237.873	-33.671	0.226	-0.123
-236.859	-109.011	-0.255	-0.053
-235.844	-44.911	0.173	-0.085
-234.830	130.416	-0.216	-0.272
-233.815	-34.951	0.148	0.079
-232.800	162.289	-0.198	-0.272
-231.786	108.705	0.211	0.247
-230.771	724.372	-0.134	0.350
-229.757	-111.941	-0.198	0.039
-228.742	-162.219	-0.388	-0.019
-227.727	-104.165	0.049	0.011
-226.713	135.701	-0.189	0.242
-225.698	800.000	-0.053	0.217
-224.684	-200.000	0.005	-0.031
-223.669	-121.790	0.201	-0.033
-222.655	-59.515	-0.111	-0.047
-221.640	-200.000	0.002	0.121
-220.625	-116.883	-0.262	-0.047
-219.611	90.369	-0.070	-0.077
-218.596	29.423	-0.181	0.151
-217.582	81.692	-0.148	-0.157
-216.567	-200.000	-0.012	-0.199
-215.552	26.747	0.222	-0.183
-214.538	-21.582	-0.184	0.110
-213.523	-9.619	-0.197	-0.129
-212.509	38.952	0.345	-0.302
-211.494	-183.760	-0.406	-0.007
-210.479	-200.000	-0.032	0.316
-209.465	52.687	-0.196	0.184
-208.450	0.016	0.157	0.110
-207.436	-196.868	-0.201	-0.001
-206.421	235.912	0.045	0.072
-205.406	27.947	0.203	0.168
-204.392	104.520	-0.113	-0.131
-203.377	-107.905	0.079	0.017
-202.363	-167.473	-0.335	-0.013
-201.348	-96.861	0.172	0.044
-200.333	103.112	-0.156	0.180
-199.319	-96.459	-0.155	0.040
-198.304	-112.859	0.349	-0.068
-197.290	0.623	0.070	-0.049
-196.275	-200.000	-0.003	-0.079
-195.260	99.173	0.052	-0.059
-194.246	81.094	-0.110	0.116
-193.231	-102.253	-0.293	0.069
-192.217	-65.762	0.202	-0.079
-191.202	-68.119	0.058	0.022
-190.187	-29.316	0.133	-0.075
-189.173	-200.000	-0.043	0.331
-188.158	-126.959	0.255	0.037
-187.144	-200.000	0.021	-0.119
-186.129	-200.000	-0.003	-0.123
-185.114	-200.000	-0.005	-0.033
-184.100	-161.899	0.193	0.010
-183.085	-148.883	-0.099	-0.008
-182.071	-6.179	-0.067	0.045
-181.056	-99.208	-0.111	-0.027
-180.042	-4.522	-0.224	-0.151
-179.027	-200.000	-0.003	0.090
-178.012	-200.000	0.032	-0.229
-176.998	800.000	0.058	-0.160
-175.983	-200.000	-0.034	-0.278
-174.969	-50.546	0.209	-0.097
-173.954	-28.313	-0.296	-0.168
-172.939	-55.012	-0.156	0.069
-171.925	131.334	0.171	-0.215
-170.910	200.578	-0.138	-0.208
-169.896	-152.034	-0.157	-0.011
-168.881	-200.000	0.003	-0.287
-167.866	115.409	-0.109	0.130
-166.852	-46.491	0.386	0.185
-165.837	-200.000	0.026	0.167
-164.823	134.679	0.117	0.149
-163.808	-200.000	-0.001	0.096
-162.793	800.000	-0.028	0.082
-161.779	-111.795	-0.282	-0.056
-160.764	-200.000	-0.041	0.296
-159.750	-81.876	0.272	-0.087
-158.735	-198.044	0.084	0.000
-157.720	800.000	-0.109	0.333
-156.706	-161.534	0.276	-0.014
-155.691	186.085	-0.123	-0.179
-154.677	-116.225	0.262	0.048
-153.662	419.866	-0.074	0.154
-152.647	-94.262	-0.512	-0.137
-151.633	638.718	0.046	-0.114
-150.618	-20.862	-0.236	-0.142
-149.604	54.750	0.153	0.145
-148.589	-200.000	0.018	0.114
-147.574	110.805	0.078	-0.091
-146.560	-57.349	-0.413	0.178
-145.545	-69.497	0.490	-0.184
-144.531	-121.990	-0.249	-0.040
-143.516	512.342	0.087	-0.199
-142.502	92.828	-0.162	0.179
-141.487	181.625	0.110	-0.159
-140.472	451.642	0.070	0.151
-139.458	-115.569	0.157	-0.029
-138.443	-16.330	0.020	0.013
-137.429	-15.533	0.151	-0.094
-136.414	800.000	-0.066	-0.261
-135.399	-1.578	-0.180	-0.124
-134.385	-17.079	0.154	0.095
-133.370	-200.000	-0.299	-0.001
-132.356	-177.504	-0.159	-0.004
-131.341	800.000	0.048	-0.131
-130.326	-136.741	-0.232	-0.026
-129.312	36.546	0.056	-0.049
-128.297	34.552	-0.231	0.197
-127.283	9.535	0.064	0.048
-126.268	-200.000	-0.001	0.015
-125.253	-200.000	-0.004	-0.112
-124.239	-82.199	-0.145	0.046
-123.224	-52.056	0.287	-0.130
-122.210	123.207	-0.140	-0.172
-121.195	-108.636	0.116	0.024
-120.180	-15.490	-0.284	0.177
-119.166	-45.152	0.197	0.096
-118.151	-42.903	0.247	0.123
-117.137	-0.699	0.308	-0.214
-116.122	-37.899	-0.101	0.053
-115.107	-110.426	0.240	0.049
-114.093	531.831	0.029	-0.066
-113.078	-132.096	0.381	-0.048
-112.064	800.000	0.125	0.340
-111.049	335.313	-0.237	0.449
-110.034	13.509	-0.173	-0.131
-109.020	-113.355	-0.125	-0.024
-108.005	504.864	0.035	0.079
-106.991	-89.426	-0.152	0.044
-105.976	-11.478	-0.335	0.216
-104.962	192.779	-0.012	0.018
-103.947	295.852	0.044	0.079
-102.932	57.707	0.141	0.135
-101.918	-200.000	0.054	-0.366
-100.903	-114.752	-0.227	0.042
-99.889	-64.653	-0.175	0.069
-98.874	-200.000	0.014	0.132
-97.859	-200.000	0.042	0.389
-96.845	88.753	-0.138	-0.150
-95.830	146.254	-0.161	0.211
-94.816	-7.586	0.193	0.128
-93.801	-200.000	-0.030	0.253
-92.786	45.140	0.097	-0.087
-91.772	-38.465	-0.089	0.046
-90.757	132.340	0.121	-0.153
-89.743	34.477	0.238	0.203
-88.728	123.680	-0.038	-0.047
-87.713	-114.468	0.075	0.014
-86.699	-200.000	-0.082	-0.487
-85.684	-200.000	-0.022	-0.093
-84.670	-50.585	0.381	-0.176
-83.655	-113.575	0.090	0.017
-82.640	-200.000	-0.021	0.238
-81.626	-106.699	0.339	0.074
-80.611	52.125	-0.185	-0.172
-79.597	33.246	0.466	-0.395
-78.582	-200.000	-0.222	-0.001
-77.567	56.931	0.141	-0.134
-76.553	792.040	0.021	0.057
-75.538	-2.964	-0.027	0.018
-74.524	-200.000	-0.081	-0.624
-73.509	-14.397	0.278	0.175
-72.494	567.046	0.149	-0.353
-71.480	-200.000	0.025	0.218
-70.465	-200.000	0.029	-0.143
-69.451	-200.000	0.039	0.227
-68.436	-200.000	0.013	0.285
-67.422	173.778	0.070	0.098
-66.407	-200.000	0.053	-0.573
-65.392	97.435	0.164	-0.184
-64.378	800.000	0.048	0.143
-63.363	161.776	-0.213	0.290
-62.349	-190.793	0.322	0.003
-61.334	46.612	-1.103	-0.999
-60.319	28.018	0.644	0.530
-59.305	437.019	-0.460	-0.979
-58.290	633.968	0.480	1.187
-57.276	800.000	0.494	1.481
-56.261	-200.000	118.159	600.481
-55.246	411.330	1519.701	3146.898
-54.232	149.321	2671.908	3529.124
-53.217	96.510	2123.918	2371.868
-52.203	36.684	1569.479	1352.457
-51.188	29.277	1314.962	1089.499
-50.173	26.392	1277.803	1042.075
-49.159	50.493	1340.184	1236.396
-48.144	48.991	1353.917	1240.118
-47.130	29.271	1305.141	1081.158
-46.115	26.200	1286.173	1047.619
-45.100	25.939	1281.331	1042.126
-44.086	25.838	1278.613	1039.290
-43.071	25.912	1276.427	1037.900
-42.057	25.770	1274.703	1035.636
-41.042	25.841	1273.202	1034.787
-40.027	25.878	1271.406	1033.499
-39.013	25.771	1269.624	1031.392
-37.998	25.898	1267.963	1030.732
-36.984	26.047	1266.290	1030.181
-35.969	26.015	1264.701	1028.663
-34.954	26.038	1262.826	1027.228
-33.940	26.041	1261.526	1026.151
-32.925	26.073	1260.249	1025.252
-31.911	26.120	1258.657	1024.179
-30.896	26.050	1257.574	1022.860
-29.881	26.072	1256.237	1021.862
-28.867	26.047	1254.508	1020.271
-27.852	26.004	1253.488	1019.161
-26.838	26.062	1251.765	1018.042
-25.823	25.977	1250.557	1016.540
-24.809	26.050	1249.176	1015.792
-23.794	26.103	1248.164	1015.227
-22.779	26.094	1246.981	1014.171
-21.765	26.108	1245.679	1013.151
-20.750	26.087	1244.399	1011.950
-19.736	26.041	1243.583	1010.991
-18.721	26.127	1241.954	1010.109
-17.706	25.940	1241.015	1008.256
-16.692	25.954	1239.757	1007.276
-15.677	25.990	1238.635	1006.525
-14.663	25.872	1237.853	1005.191
-13.648	26.060	1236.440	1005.050
-12.633	25.972	1235.231	1003.540
-11.619	25.865	1235.036	1002.744
-10.604	25.986	1233.853	1002.414
-9.590	25.891	1232.351	1000.627
-8.575	26.048	1231.578	1000.832
-7.560	26.013	1231.169	1000.267
-6.546	26.035	1230.257	999.610
-5.531	25.784	1229.708	997.730
-4.517	25.957	1228.440	997.619
-3.502	26.025	1227.506	997.201
-2.487	25.977	1227.259	996.695
-1.473	25.873	1222.065	991.862
-0.458	23.957	1207.629	969.673
0.556	18.499	1191.610	931.462
1.571	14.643	1198.350	915.533
2.586	13.831	1213.450	922.478
3.600	13.677	1201.766	912.668
4.615	10.096	1131.499	840.637
5.629	3.390	1061.275	755.601
6.644	0.432	1043.477	728.592
7.659	0.138	1041.872	725.990
8.673	0.113	1040.694	724.984
9.688	0.087	1039.708	724.109
10.702	0.251	1037.617	723.376
11.717	4.248	1041.989	745.606
12.731	11.410	1051.918	787.304
13.746	15.998	1056.942	813.183
14.761	16.703	1057.686	817.090
15.775	16.048	1055.694	812.324
16.790	14.975	1053.885	805.695
17.804	14.312	1052.232	801.168
18.819	13.898	1051.300	798.399
19.834	13.840	1050.053	797.102
20.848	13.590	1049.286	795.250
21.863	13.362	1048.329	793.363
22.877	13.030	1047.891	791.367
23.892	13.151	1046.909	791.134
24.907	13.185	1045.976	790.526
25.921	13.201	1045.563	790.218
26.936	13.156	1044.819	789.370
27.950	13.191	1043.704	788.624
28.965	13.334	1042.680	788.464
29.980	13.307	1041.209	787.151
30.994	13.312	1040.637	786.675
32.009	13.408	1039.225	785.993
33.023	13.230	1038.919	784.849
34.038	13.257	1037.538	783.862
35.053	13.285	1036.629	783.240
36.067	13.158	1036.409	782.403
37.082	13.277	1035.366	782.110
38.096	13.320	1034.583	781.653
39.111	13.303	1034.027	781.084
40.126	13.184	1032.762	779.496
41.140	13.083	1031.615	778.085
42.155	13.046	1030.563	777.052
43.169	13.076	1029.395	776.239
44.184	13.120	1028.526	775.723
45.199	13.096	1027.810	775.003
46.213	13.168	1026.628	774.380
47.228	13.197	1025.392	773.515
48.242	13.142	1024.459	772.484
49.257	13.150	1023.209	771.513
50.271	13.257	1022.544	771.440
51.286	13.187	1021.955	770.600
52.301	13.223	1021.022	770.001
53.315	13.200	1019.856	768.945
54.330	13.196	1018.723	768.004
55.344	13.178	1017.847	767.190
56.359	13.124	1017.271	766.437
57.374	13.098	1016.550	765.709
58.388	13.072	1015.216	764.515
59.403	13.145	1014.444	764.205
60.417	13.052	1014.197	763.521
61.432	13.042	1013.242	762.689
62.447	13.074	1012.281	762.043
63.461	13.073	1011.474	761.366
64.476	13.021	1010.501	760.325
65.490	12.975	1009.845	759.554
66.505	13.019	1009.274	759.257
67.520	13.083	1008.837	759.158
68.534	13.105	1008.012	758.569
69.549	13.022	1007.349	757.623
70.563	12.965	1006.496	756.652
71.578	13.048	1005.392	756.135
72.593	12.989	1004.882	755.415
73.607	13.156	1004.189	755.590
74.622	13.033	1003.639	754.547
75.636	12.974	1002.888	753.647
76.651	13.033	1002.066	753.232
77.666	13.004	1001.119	752.324
78.680	13.017	1000.751	752.039
79.695	13.142	999.867	751.878
80.709	13.019	999.409	750.904
81.724	13.052	998.985	750.672
82.739	13.127	997.917	750.144
83.753	13.204	996.956	749.704
84.768	13.437	995.932	749.924
85.782	13.213	995.541	748.547
86.797	13.313	994.221	747.942
87.812	13.219	993.723	747.076
88.826	13.308	992.261	746.312
89.841	13.251	991.631	745.513
90.855	13.307	990.849	745.112
91.870	13.181	990.292	744.061
92.884	13.329	989.379	743.974
93.899	13.334	988.280	743.105
94.914	13.262	988.216	742.666
95.928	13.266	987.001	741.706
96.943	13.424	985.705	741.373
97.957	13.361	984.915	740.435
98.972	13.268	984.503	739.642
99.987	13.387	983.537	739.381
101.001	13.250	982.187	737.689
102.016	13.412	981.015	737.469
103.030	13.263	980.981	736.712
104.045	13.304	980.040	736.124
105.060	13.332	979.406	735.706
106.074	13.155	978.495	734.171
107.089	13.227	977.375	733.587
108.103	13.232	976.440	732.840
109.118	13.162	975.576	731.817
110.133	13.110	974.773	730.921
111.147	13.232	973.527	730.462
112.162	13.181	973.084	729.837
113.176	13.320	972.302	729.799
114.191	13.266	971.837	729.150
115.206	13.312	970.825	728.526
116.220	13.299	969.734	727.587
117.235	13.361	968.971	727.223
118.249	13.439	967.858	726.666
119.264	13.175	967.791	725.394
120.279	13.232	966.799	724.836
121.293	13.280	965.709	724.163
122.308	13.254	964.800	723.303
123.322	13.292	964.271	723.009
124.337	13.275	963.043	721.950
125.352	13.240	961.940	720.905
126.366	13.196	961.034	719.974
127.381	13.215	959.901	719.144
128.395	13.273	959.203	718.808
129.410	13.284	958.461	718.237
130.424	13.322	957.534	717.644
131.439	13.298	956.718	716.865
132.454	13.313	956.056	716.370
133.468	13.219	955.330	715.356
134.483	13.233	954.181	714.493
135.497	13.275	953.617	714.189
136.512	13.286	953.210	713.865
137.527	13.310	951.914	712.935
138.541	13.354	950.737	712.183
139.556	13.387	950.375	711.991
140.570	13.370	949.943	711.529
141.585	13.347	949.226	710.830
142.600	13.490	948.121	710.555
143.614	13.473	947.472	709.932
144.629	13.524	946.765	709.560
145.643	13.454	945.840	708.504
146.658	13.436	944.230	707.157
147.673	13.509	943.894	707.155
148.687	13.433	943.300	706.324
149.702	13.280	942.296	704.858
150.716	13.443	941.792	705.109
151.731	13.494	941.233	704.845
152.746	13.400	940.551	703.875
153.760	13.364	939.744	703.055
154.775	13.541	939.458	703.530
155.789	13.510	938.619	702.707
156.804	13.562	937.897	702.326
157.819	13.641	936.928	701.873
158.833	13.563	936.505	701.164
159.848	13.766	935.258	701.028
160.862	13.795	934.594	700.589
161.877	13.606	933.778	699.118
162.892	13.353	932.892	697.326
163.906	13.634	931.788	697.621
164.921	13.480	931.174	696.454
165.935	13.597	930.306	696.236
166.950	13.621	929.354	695.560
167.964	13.601	928.432	694.728
168.979	13.576	927.457	693.830
169.994	13.673	926.401	693.384
171.008	13.700	926.186	693.275
172.023	13.640	925.562	692.498
173.037	13.726	924.294	691.844
174.052	13.659	924.129	691.381
175.067	13.528	923.770	690.504
176.081	13.627	923.149	690.392
177.096	13.701	922.205	689.933
178.110	13.708	921.416	689.310
179.125	13.663	921.045	688.786
180.140	13.668	920.309	688.196
181.154	13.725	919.970	688.115
182.169	13.813	919.421	688.009
183.183	13.821	918.693	687.437
184.198	14.015	917.731	687.458
185.213	13.881	917.222	686.463
186.227	13.846	916.605	685.795
187.242	14.007	915.962	685.918
188.256	13.939	915.608	685.314
189.271	13.916	914.383	684.240
190.286	13.767	914.106	683.359
191.300	13.814	913.260	682.859
192.315	13.801	912.654	682.292
193.329	13.672	912.089	681.278
194.344	13.869	911.792	681.805
195.359	13.722	911.009	680.559
196.373	13.891	910.418	680.751
197.388	13.969	909.930	680.642
198.402	14.018	909.674	680.592
199.417	14.053	908.744	679.979
200.432	14.128	908.065	679.716
201.446	13.959	908.106	678.998
202.461	14.138	907.116	678.928
203.475	14.107	906.391	678.200
204.490	14.088	905.955	677.735
205.504	14.131	905.057	677.179
206.519	14.028	904.416	676.221
207.534	14.066	903.626	675.722
208.548	14.155	902.895	675.480
209.563	14.170	902.243	674.994
210.577	14.215	901.766	674.758
211.592	14.205	900.932	674.033
212.607	14.277	900.470	673.920
213.621	14.232	899.563	673.000
214.636	14.327	899.051	672.940
215.650	14.377	898.193	672.441
216.665	14.309	897.690	671.731
217.680	14.432	896.746	671.461
218.694	14.505	896.097	671.209
219.709	14.428	895.545	670.427
220.723	14.447	894.483	669.647
221.738	14.449	894.209	669.392
222.753	14.379	893.485	668.508
223.767	14.450	892.932	668.320
224.782	14.499	892.715	668.296
225.796	14.554	891.804	667.777
226.811	14.381	890.855	666.315
227.826	14.540	890.637	666.727
228.840	14.332	890.410	665.668
229.855	14.564	888.753	665.295
230.869	14.484	888.601	664.802
231.884	14.298	887.880	663.464
232.899	14.499	886.928	663.494
233.913	14.501	886.440	663.079
234.928	14.417	885.769	662.185
235.942	14.375	885.560	661.802
236.957	14.297	884.960	660.984
237.972	14.412	883.907	660.598
238.986	14.472	883.393	660.390
240.001	14.352	883.060	659.610
241.015	14.610	882.118	659.868
242.030	14.570	881.616	659.277
243.045	14.476	881.339	658.639
244.059	14.537	880.731	658.366
245.074	14.667	880.181	658.409
246.088	14.718	879.103	657.747
247.103	14.652	878.597	657.050
248.117	14.667	877.917	656.543
249.132	14.847	877.169	656.630
250.147	14.823	876.649	656.089
251.161	14.928	875.901	655.883
252.176	14.727	876.000	655.111
253.190	14.951	874.851	655.071
254.205	14.954	874.104	654.466
255.220	14.923	873.668	653.961
256.234	15.080	872.633	653.742
257.249	15.074	872.021	653.200
258.263	14.976	871.415	652.308
259.278	15.020	870.493	651.729
260.293	15.186	870.040	651.982
261.307	15.235	869.608	651.791
262.322	15.238	868.761	651.107
263.336	15.295	867.744	650.512
264.351	15.232	867.354	649.914
265.366	15.119	867.279	649.362
266.380	15.217	866.431	649.052
267.395	15.110	865.900	648.183
268.409	15.169	864.773	647.507
269.424	15.215	864.107	647.131
270.439	15.097	863.703	646.316
271.453	15.248	862.934	646.266
272.468	15.131	862.585	645.496
273.482	15.239	861.856	645.309
274.497	15.175	861.387	644.656
275.512	15.204	861.114	644.505
276.526	15.255	860.709	644.340
277.541	15.232	859.825	643.535
278.555	15.414	859.256	643.749
279.570	15.397	858.373	642.966
280.585	15.299	857.997	642.252
281.599	15.409	856.636	641.598
282.614	15.331	856.339	641.019
283.628	15.295	856.088	640.637
284.643	15.451	855.235	640.538
285.657	15.371	854.355	639.516
286.672	15.402	853.982	639.298
287.687	15.492	853.545	639.258
288.701	15.381	852.996	638.368
289.716	15.420	852.377	637.995
290.730	15.597	851.645	638.062
291.745	15.562	851.327	637.638
292.760	15.411	850.726	636.556
293.774	15.485	850.165	636.363
294.789	15.610	849.303	636.132
295.803	15.520	848.830	635.384
296.818	15.550	848.005	634.823
297.833	15.552	847.357	634.289
298.847	15.629	846.499	633.880
299.862	15.545	846.481	633.495
300.876	15.631	845.797	633.248
301.891	15.645	845.289	632.866
302.906	15.711	844.471	632.448
303.920	15.671	844.053	631.929
304.935	15.817	843.296	631.854
305.949	15.785	842.795	631.302
306.964	15.864	842.102	631.022
307.979	15.795	841.745	630.442
308.993	15.810	841.249	630.067
310.008	15.806	840.411	629.370
311.022	15.821	839.657	628.806
312.037	16.079	839.237	629.399
313.052	15.906	838.736	628.324
314.066	15.840	838.154	627.585
315.081	15.764	837.833	627.005
316.095	15.817	836.935	626.475
317.110	15.863	836.878	626.548
318.125	15.898	836.222	626.131
319.139	15.858	835.533	625.413
320.154	15.868	835.322	625.236
321.168	15.894	834.555	624.704
322.183	15.897	834.016	624.256
323.197	16.002	833.481	624.190
324.212	15.958	832.736	623.414
325.227	16.059	832.486	623.543
326.241	16.008	831.871	622.839
327.256	15.995	830.961	622.057
328.270	15.997	830.704	621.814
329.285	16.006	830.277	621.473
330.300	15.785	829.649	620.133
331.314	15.872	829.162	620.038
332.329	16.156	828.678	620.664
333.343	16.124	828.057	620.028
334.358	16.250	827.753	620.206
335.373	16.081	827.433	619.291
336.387	16.236	827.415	619.794
337.402	16.185	827.002	619.242
338.416	16.154	826.528	618.719
339.431	16.229	825.964	618.516
340.446	16.245	825.542	618.203
341.460	16.115	825.567	617.693
342.475	16.233	824.948	617.606
343.489	16.462	824.151	617.791
344.504	16.337	823.948	617.128
345.519	16.253	823.510	616.440
346.533	16.452	823.004	616.732
347.548	16.536	821.916	616.167
348.562	16.317	821.954	615.344
349.577	16.263	821.401	614.678
350.592	16.394	820.788	614.643
351.606	16.435	819.868	614.047
352.621	16.209	819.441	612.855
353.635	16.376	818.780	612.910
354.650	16.409	818.038	612.421
355.665	16.418	817.792	612.213
356.679	16.393	817.268	611.676
357.694	16.439	816.488	611.207
358.708	16.512	815.945	611.009
359.723	16.570	814.927	610.401
360.738	16.470	814.805	609.896
361.752	16.514	814.112	609.483
362.767	16.601	813.684	609.420
363.781	16.621	813.203	609.078
364.796	16.617	812.735	608.659
365.810	16.671	812.521	608.639
366.825	16.921	811.516	608.729
367.840	16.735	811.475	607.979
368.854	16.633	810.833	607.078
369.869	16.812	810.615	607.502
370.883	16.824	809.912	606.966
371.898	16.798	810.073	606.940
372.913	16.805	809.647	606.590
373.927	16.747	808.885	605.758
374.942	16.903	808.736	606.151
375.956	16.986	808.145	605.952
376.971	16.906	807.562	605.174
377.986	16.937	807.157	604.928
379.000	17.091	806.532	604.954
380.015	17.117	805.775	604.426
381.029	16.920	805.695	603.612
382.044	16.962	805.096	603.261
383.059	17.041	804.079	602.725
384.073	17.034	803.767	602.414
385.088	17.097	803.309	602.241
386.102	17.099	802.477	601.568
387.117	16.970	802.357	600.971
388.132	17.103	801.615	600.833
389.146	17.109	800.656	600.081
390.161	17.204	800.556	600.286
391.175	17.061	800.334	599.564
392.190	17.147	799.491	599.183
393.205	17.088	799.581	598.987
394.219	17.104	798.889	598.474
395.234	16.930	798.815	597.750
396.248	17.119	798.473	598.107
397.263	17.104	797.898	597.574
398.278	17.117	797.306	597.120
399.292	17.020	796.845	596.384
400.307	17.128	796.389	596.370
401.321	17.177	796.150	596.310
402.336	17.089	795.690	595.602
403.350	17.226	794.906	595.442
404.365	17.289	794.471	595.283
405.380	17.261	794.210	594.940
406.394	17.203	793.541	594.182
407.409	17.467	793.066	594.697
408.423	17.269	793.066	593.952
409.438	17.328	792.648	593.794
410.453	17.348	791.921	593.266
411.467	17.439	791.859	593.484
412.482	17.415	791.559	593.123
413.496	17.505	790.814	592.827
414.511	17.434	790.711	592.448
415.526	17.491	790.090	592.129
416.540	17.571	789.183	591.674
417.555	17.457	789.107	591.169
418.569	17.489	788.987	591.140
419.584	17.570	788.394	590.922
420.599	17.503	788.151	590.455
421.613	113.262	1296.457	1482.660
422.628	97.284	1370.475	1482.721
