DTS Sentinel unit serial number:	SN413079Multiplexer serial number:	ORYXHardware model number:	OX4-SRSoftware version number:	ORYX F/W v4.00 Oryx Data Collector v3.7.2.0data status	okinstallation	princeton_trtdifferential loss correction	single-endedforward channel	channel 1reverse channel	N/Adate	2019/09/17time	01:18:35forward acquisition time	60.00reverse acquisition time	0.00gamma	496.2192k internal	0.2324k external	0.2324temperature offset calibration	0.9962default loss term (dB/km)	0.3790temperature slope calibration	1.0000multiplexer offset coefficient	1.0000multiplexer slope coefficient	1.0000fibre end	0.00T internal ref (°C)	29.50T ext. ref 1 (°C)	0.12T ext. ref 2 (°C)	24.18length (m)	temperature (°C)	Stokes	anti-Stokes-747.200	224.722	-0.108	0.176
-746.185	-39.776	-0.240	0.127
-745.171	-71.752	0.316	0.119
-744.156	362.974	-0.150	0.304
-743.142	85.199	0.127	0.141
-742.127	-200.000	-0.007	0.162
-741.112	-200.000	-0.015	0.166
-740.098	248.680	0.228	0.390
-739.083	-139.973	0.134	0.014
-738.069	-71.831	-0.076	0.028
-737.054	519.804	0.032	0.075
-736.039	-136.301	-0.321	-0.038
-735.025	800.000	-0.076	-0.231
-734.010	800.000	0.022	-0.079
-732.996	125.285	0.199	-0.254
-731.981	-200.000	0.021	-0.099
-730.966	-130.962	0.222	-0.030
-729.952	316.121	0.096	-0.184
-728.937	524.633	0.056	0.133
-727.923	-121.131	0.165	-0.028
-726.908	371.969	-0.147	-0.301
-725.894	-113.498	-0.087	0.017
-724.879	607.812	0.109	-0.275
-723.864	120.771	0.067	0.084
-722.850	84.353	-0.127	0.140
-721.835	-15.042	-0.297	-0.192
-720.821	199.157	0.136	0.210
-719.806	406.798	0.154	-0.328
-718.791	-43.354	-0.231	-0.118
-717.777	-200.000	-0.041	-0.233
-716.762	-200.000	-0.067	-0.396
-715.748	-147.283	0.407	0.035
-714.733	-200.000	-0.041	0.318
-713.718	-64.706	-0.082	0.033
-712.704	87.727	0.279	-0.312
-711.689	-200.000	0.039	0.285
-710.675	-111.452	0.386	-0.079
-709.660	-200.000	-0.044	-0.302
-708.645	-37.120	-0.269	0.145
-707.631	-200.000	-0.018	0.297
-706.616	-140.167	-0.115	-0.012
-705.602	313.231	-0.066	-0.125
-704.587	-200.000	0.003	0.295
-703.572	-26.228	-0.008	0.005
-702.558	125.312	-0.064	0.081
-701.543	800.000	-0.055	-0.171
-700.529	-149.753	-0.113	-0.009
-699.514	800.000	0.165	0.489
-698.499	350.765	0.041	-0.081
-697.485	800.000	-0.026	0.107
-696.470	-99.935	-0.423	0.106
-695.456	-110.270	-0.271	-0.057
-694.441	556.487	0.092	-0.223
-693.426	-192.657	0.276	-0.003
-692.412	172.413	0.079	-0.115
-691.397	800.000	0.103	-0.451
-690.383	743.219	0.099	-0.268
-689.368	316.130	0.128	-0.244
-688.354	-12.829	0.088	-0.058
-687.339	-121.514	0.231	0.039
-686.324	147.426	-0.178	-0.241
-685.310	-7.710	0.117	0.080
-684.295	-65.633	0.316	-0.128
-683.281	800.000	0.050	-0.190
-682.266	57.542	-0.224	-0.221
-681.251	-121.680	0.206	0.034
-680.237	-114.609	0.260	0.050
-679.222	-200.000	0.048	0.265
-678.208	233.424	-0.239	0.396
-677.193	-42.050	0.340	0.175
-676.178	197.328	0.047	0.072
-675.164	-87.903	-0.334	0.101
-674.149	-43.460	0.035	0.018
-673.135	72.152	0.110	0.115
-672.120	-136.965	0.098	-0.011
-671.105	39.226	-0.047	-0.043
-670.091	-200.000	-0.015	-0.096
-669.076	209.121	0.105	0.166
-668.062	-93.506	0.288	-0.080
-667.047	-92.685	-0.211	0.060
-666.032	17.494	-0.049	0.039
-665.018	84.474	0.198	0.218
-664.003	-82.044	0.296	0.097
-662.989	637.353	-0.063	0.160
-661.974	800.000	-0.055	-0.165
-660.959	-114.283	-0.145	0.028
-659.945	-77.699	-0.197	0.069
-658.930	-200.000	-0.032	-0.198
-657.916	800.000	-0.010	-0.040
-656.901	6.406	0.082	0.062
-655.886	-34.391	0.390	-0.215
-654.872	-9.273	-0.115	-0.077
-653.857	144.763	-0.279	-0.374
-652.843	-8.037	-0.217	0.147
-651.828	-200.000	-0.000	-0.066
-650.814	-22.254	0.185	0.113
-649.799	-100.949	-0.074	-0.018
-648.784	49.237	0.225	0.212
-647.770	-200.000	0.062	0.400
-646.755	159.752	0.264	-0.370
-645.741	152.220	-0.151	-0.207
-644.726	35.159	0.123	0.108
-643.711	-200.000	-0.011	-0.069
-642.697	342.357	-0.014	0.028
-641.682	375.781	-0.122	0.251
-640.668	-93.842	-0.138	-0.038
-639.653	-107.140	-0.135	-0.030
-638.638	307.103	-0.134	-0.251
-637.624	-81.427	0.324	-0.107
-636.609	-20.505	-0.180	0.112
-635.595	-29.320	0.131	-0.075
-634.580	-86.996	0.204	-0.063
-633.565	-200.000	-0.018	-0.086
-632.551	800.000	-0.012	-0.051
-631.536	265.873	-0.150	0.264
-630.522	-141.582	0.319	0.032
-629.507	-38.153	0.239	-0.127
-628.492	42.791	-0.127	0.116
-627.478	331.565	0.139	0.270
-626.463	183.686	-0.219	-0.325
-625.449	69.998	0.137	-0.142
-624.434	-29.138	0.078	-0.045
-623.419	-1.322	0.229	-0.163
-622.405	507.588	0.084	-0.196
-621.390	-133.429	-0.060	-0.008
-620.376	-63.066	0.510	-0.211
-619.361	82.465	0.102	-0.111
-618.346	-66.277	-0.089	-0.036
-617.332	800.000	-0.133	-0.424
-616.317	220.965	-0.054	0.087
-615.303	169.938	0.028	-0.040
-614.288	110.631	0.139	-0.168
-613.273	-115.174	-0.064	-0.012
-612.259	-200.000	0.028	-0.266
-611.244	-113.111	0.171	-0.034
-610.230	-66.233	-0.069	0.028
-609.215	-100.925	-0.103	0.025
-608.201	-200.000	-0.012	0.074
-607.186	40.859	-0.228	0.206
-606.171	287.085	0.098	-0.177
-605.157	-129.646	-0.065	0.009
-604.142	-119.434	0.118	-0.021
-603.128	-8.582	-0.038	0.026
-602.113	-200.000	-0.042	0.194
-601.098	262.448	-0.118	-0.205
-600.084	19.281	0.372	-0.300
-599.069	-165.944	-0.107	0.005
-598.055	-200.000	0.011	0.358
-597.040	800.000	-0.092	0.287
-596.025	-169.813	-0.369	0.013
-595.011	800.000	-0.070	0.247
-593.996	-65.299	-0.382	-0.155
-592.982	-107.216	0.037	-0.008
-591.967	-2.381	0.190	-0.134
-590.952	66.271	0.109	-0.111
-589.938	93.596	-0.080	-0.091
-588.923	-144.243	0.346	-0.032
-587.909	-30.408	-0.191	0.109
-586.894	-165.401	0.183	-0.008
-585.879	-100.937	-0.517	-0.127
-584.865	21.856	-0.292	-0.238
-583.850	95.101	0.275	0.314
-582.836	-200.000	0.009	0.252
-581.821	-200.000	0.008	0.152
-580.806	70.164	-0.037	-0.038
-579.792	-20.713	-0.150	-0.092
-578.777	-62.607	0.203	-0.085
-577.763	-197.037	-0.419	-0.003
-576.748	485.952	0.138	0.315
-575.733	142.047	0.107	0.143
-574.719	-108.716	-0.348	-0.075
-573.704	40.171	-0.243	-0.219
-572.690	38.409	-0.018	0.016
-571.675	-69.914	-0.162	0.062
-570.661	63.706	0.170	-0.171
-569.646	435.201	-0.071	0.154
-568.631	5.120	-0.184	-0.136
-567.617	126.313	0.118	-0.150
-566.602	244.852	-0.134	-0.225
-565.588	15.435	0.107	-0.084
-564.573	-48.168	-0.269	-0.130
-563.558	800.000	-0.092	-0.380
-562.544	-140.753	-0.217	-0.022
-561.529	800.000	-0.145	0.410
-560.515	-81.714	0.162	-0.053
-559.500	-11.219	-0.136	-0.090
-558.485	-152.528	0.375	-0.027
-557.471	-55.802	0.253	-0.113
-556.456	114.884	-0.049	-0.060
-555.442	121.345	0.129	-0.161
-554.427	416.048	-0.071	-0.152
-553.412	-34.866	-0.258	-0.141
-552.398	-200.000	-0.065	-0.329
-551.383	99.728	0.234	-0.271
-550.369	32.881	0.113	0.098
-549.354	472.437	0.088	0.198
-548.339	217.131	0.036	0.057
-547.325	-108.022	-0.311	0.068
-546.310	-3.226	-0.070	-0.049
-545.296	164.877	-0.170	-0.240
-544.281	-139.917	0.094	-0.010
-543.266	-50.164	-0.277	0.131
-542.252	798.570	0.076	-0.210
-541.237	-200.000	0.025	0.179
-540.223	800.000	-0.064	-0.222
-539.208	-81.467	-0.121	-0.040
-538.193	-200.000	-0.087	0.388
-537.179	553.000	0.052	0.126
-536.164	252.734	-0.084	-0.143
-535.150	800.000	-0.034	-0.145
-534.135	-200.000	0.013	0.059
-533.121	715.244	0.086	0.230
-532.106	318.813	-0.119	0.225
-531.091	208.661	0.065	0.102
-530.077	-200.000	0.027	-0.150
-529.062	-200.000	0.018	0.363
-528.048	-142.676	-0.081	-0.008
-527.033	-151.146	-0.443	-0.033
-526.018	-106.002	-0.371	-0.084
-525.004	-200.000	0.018	-0.088
-523.989	-98.623	-0.267	0.068
-522.975	800.000	0.022	-0.073
-521.960	800.000	0.064	-0.279
-520.945	164.596	0.124	-0.175
-519.931	-115.873	0.305	0.057
-518.916	800.000	0.086	-0.322
-517.902	346.237	0.073	-0.144
-516.887	-200.000	0.009	-0.176
-515.872	-125.986	-0.340	-0.051
-514.858	-169.057	-0.126	0.005
-513.843	-200.000	0.008	-0.125
-512.829	-152.829	-0.250	-0.018
-511.814	-28.965	0.213	-0.122
-510.799	-141.517	0.294	0.030
-509.785	-97.603	-0.128	0.033
-508.770	-17.859	0.065	-0.041
-507.756	-81.505	-0.036	0.012
-506.741	-200.000	-0.093	0.447
-505.726	-121.165	0.334	0.056
-504.712	26.357	-0.327	-0.274
-503.697	219.257	0.041	0.066
-502.683	-168.842	-0.151	-0.006
-501.668	-67.054	-0.503	-0.198
-500.653	-92.362	0.027	-0.008
-499.639	800.000	0.048	0.189
-498.624	251.568	0.071	-0.121
-497.610	52.697	-0.144	0.137
-496.595	5.840	-0.072	0.053
-495.581	-65.957	-0.314	0.125
-494.566	-200.000	0.009	-0.382
-493.551	-200.000	0.012	0.289
-492.537	800.000	0.060	0.173
-491.522	-133.772	0.280	0.035
-490.508	-93.251	-0.124	-0.034
-489.493	-50.035	-0.136	0.064
-488.478	-200.000	-0.015	-0.207
-487.464	136.903	0.336	-0.439
-486.449	-200.000	-0.001	0.150
-485.435	-75.180	-0.262	-0.094
-484.420	532.165	-0.128	-0.302
-483.405	492.998	0.084	-0.192
-482.391	-12.407	-0.161	-0.105
-481.376	-200.000	0.001	0.021
-480.362	-96.364	-0.191	0.050
-479.347	614.930	-0.052	-0.131
-478.332	-141.826	0.180	-0.018
-477.318	75.889	-0.232	-0.245
-476.303	-83.299	0.340	0.109
-475.289	307.851	-0.098	-0.182
-474.274	-39.243	-0.029	0.015
-473.259	-200.000	-0.013	0.154
-472.245	-47.739	-0.058	-0.028
-471.230	131.038	0.085	-0.109
-470.216	76.852	0.204	0.216
-469.201	1.752	-0.217	0.156
-468.186	-130.418	0.243	0.033
-467.172	-38.204	0.376	0.199
-466.157	-73.568	-0.312	-0.114
-465.143	-32.500	-0.156	0.087
-464.128	197.374	-0.107	0.164
-463.113	-200.000	0.001	-0.005
-462.099	800.000	-0.075	0.240
-461.084	117.255	0.237	0.290
-460.070	-200.000	0.048	-0.255
-459.055	280.385	0.057	-0.102
-458.040	8.896	0.118	0.088
-457.026	-102.918	-0.092	-0.022
-456.011	-152.664	-0.265	0.019
-454.997	254.747	0.019	0.033
-453.982	-117.843	0.300	0.054
-452.968	-200.000	0.055	0.273
-451.953	-25.983	-0.174	0.102
-450.938	-11.115	0.075	-0.049
-449.924	-61.810	-0.339	0.142
-448.909	-104.261	-0.285	0.066
-447.895	238.145	0.063	-0.104
-446.880	40.194	0.023	-0.021
-445.865	800.000	-0.067	0.204
-444.851	-61.809	0.159	-0.066
-443.836	-53.717	-0.362	0.165
-442.822	-90.119	-0.166	0.048
-441.807	800.000	-0.045	-0.185
-440.792	-105.261	0.287	0.065
-439.778	-142.986	0.126	0.012
-438.763	-200.000	0.002	-0.123
-437.749	50.273	0.131	-0.123
-436.734	201.307	-0.159	0.245
-435.719	-141.008	-0.435	-0.044
-434.705	800.000	-0.060	-0.204
-433.690	590.389	-0.046	-0.114
-432.676	89.784	-0.143	-0.159
-431.661	-151.935	0.343	-0.025
-430.646	136.501	0.084	-0.110
-429.632	-200.000	0.017	-0.307
-428.617	-112.228	-0.300	0.060
-427.603	-200.000	-0.125	0.000
-426.588	-93.888	0.335	-0.092
-425.573	-158.344	-0.259	-0.015
-424.559	-140.576	-0.138	-0.014
-423.544	-172.741	0.384	0.012
-422.530	249.278	-0.137	-0.232
-421.515	-200.000	0.005	0.060
-420.500	444.382	-0.056	0.123
-419.486	-39.804	-0.202	0.105
-418.471	-200.000	0.001	0.108
-417.457	-200.000	-0.014	0.265
-416.442	-75.384	-0.197	0.070
-415.428	131.277	-0.138	-0.177
-414.413	-108.853	0.335	0.071
-413.398	-88.706	-0.092	-0.027
-412.384	800.000	-0.035	0.099
-411.369	-200.000	-0.042	0.283
-410.355	-200.000	-0.052	0.292
-409.340	-3.563	-0.155	0.108
-408.325	-100.629	0.213	0.052
-407.311	437.125	0.126	0.273
-406.296	124.725	-0.217	-0.272
-405.282	628.535	0.050	0.127
-404.267	-52.276	0.091	-0.042
-403.252	-200.000	0.006	0.130
-402.238	-112.883	0.193	0.038
-401.223	-59.084	0.210	-0.090
-400.209	800.000	-0.083	-0.338
-399.194	-111.649	0.276	-0.056
-398.179	-37.681	-0.129	-0.068
-397.165	-186.635	-0.282	0.004
-396.150	143.442	0.052	0.070
-395.136	24.590	0.027	0.023
-394.121	16.274	-0.058	-0.046
-393.106	345.543	0.172	0.337
-392.092	-109.793	0.294	0.061
-391.077	-57.575	0.280	0.122
-390.063	-0.997	-0.333	0.235
-389.048	4.219	-0.202	0.147
-388.033	113.179	-0.034	0.041
-387.019	-47.022	0.025	0.012
-386.004	-136.283	-0.183	-0.021
-384.990	161.185	0.056	0.078
-383.975	800.000	-0.126	0.474
-382.960	-109.330	0.167	0.035
-381.946	-200.000	0.012	-0.067
-380.931	35.245	-0.103	0.090
-379.917	-35.270	0.222	-0.120
-378.902	800.000	0.008	0.033
-377.888	205.490	-0.032	-0.049
-376.873	356.659	-0.097	0.193
-375.858	-79.885	-0.124	-0.042
-374.844	800.000	0.069	-0.227
-373.829	-198.589	-0.212	-0.001
-372.815	-200.000	0.017	0.210
-371.800	-137.916	-0.070	-0.008
-370.785	127.978	0.128	-0.162
-369.771	-153.904	-0.059	0.004
-368.756	-133.594	-0.211	-0.026
-367.742	800.000	0.116	0.348
-366.727	379.204	-0.128	0.261
-365.712	-200.000	-0.018	-0.158
-364.698	-73.226	0.378	-0.138
-363.683	1.142	0.176	-0.126
-362.669	-37.400	-0.159	0.084
-361.654	248.666	0.065	0.109
-360.639	-70.473	0.223	-0.084
-359.625	-131.386	-0.060	-0.008
-358.610	283.534	-0.080	0.143
-357.596	-96.423	0.115	0.030
-356.581	7.969	-0.059	0.044
-355.566	266.680	-0.044	0.076
-354.552	-52.996	0.098	-0.045
-353.537	-54.496	-0.109	-0.049
-352.523	-128.505	0.208	-0.029
-351.508	18.816	0.111	-0.089
-350.493	431.694	0.125	0.268
-349.479	-200.000	0.061	0.335
-348.464	-47.848	0.206	0.099
-347.450	-136.393	0.300	0.035
-346.435	128.091	0.417	0.527
-345.420	800.000	-0.053	0.172
-344.406	-200.000	-0.002	-0.046
-343.391	-156.624	0.330	0.020
-342.377	-62.124	-0.303	0.126
-341.362	33.270	-0.090	0.077
-340.348	-40.941	-0.298	-0.153
-339.333	800.000	-0.054	0.191
-338.318	250.759	-0.078	0.132
-337.304	102.848	-0.262	0.305
-336.289	14.625	0.032	0.025
-335.275	174.056	0.188	-0.269
-334.260	-200.000	0.010	0.271
-333.245	208.120	-0.066	-0.103
-332.231	800.000	0.037	-0.139
-331.216	-155.557	0.102	-0.007
-330.202	-126.967	0.118	-0.017
-329.187	221.653	0.113	-0.181
-328.172	33.540	-0.172	-0.148
-327.158	-178.012	-0.182	-0.004
-326.143	-24.020	0.079	0.047
-325.129	-152.549	0.109	-0.008
-324.114	94.540	0.173	0.195
-323.099	-16.927	-0.114	0.071
-322.085	-157.653	0.067	0.004
-321.070	-200.000	0.007	0.101
-320.056	315.280	0.054	0.101
-319.041	126.207	0.132	-0.166
-318.026	-61.799	0.206	0.086
-317.012	-33.327	-0.258	-0.142
-315.997	-61.446	-0.090	0.038
-314.983	92.134	0.104	0.117
-313.968	800.000	0.032	-0.117
-312.953	800.000	0.082	-0.279
-311.939	134.331	-0.085	-0.110
-310.924	188.077	-0.167	-0.248
-309.910	-7.576	0.253	-0.170
-308.895	-200.000	-0.054	-0.261
-307.880	-57.066	-0.190	-0.083
-306.866	50.481	-0.015	0.014
-305.851	800.000	0.037	-0.133
-304.837	-12.708	-0.186	-0.120
-303.822	-56.930	-0.295	0.129
-302.807	19.564	0.302	0.241
-301.793	-24.355	0.092	-0.054
-300.778	404.565	-0.113	0.236
-299.764	-11.372	0.073	0.048
-298.749	42.579	0.222	-0.200
-297.735	139.007	0.060	-0.078
-296.720	-101.037	0.330	0.080
-295.705	56.308	-0.091	0.088
-294.691	7.665	-0.213	-0.158
-293.676	457.927	-0.080	-0.177
-292.662	-200.000	-0.023	-0.219
-291.647	-43.811	0.182	0.091
-290.632	800.000	-0.057	-0.201
-289.618	76.677	0.153	0.161
-288.603	-12.753	-0.238	-0.154
-287.589	129.134	-0.087	0.110
-286.574	789.966	-0.139	0.379
-285.559	226.181	0.124	0.200
-284.545	800.000	-0.089	0.273
-283.530	179.987	0.197	-0.286
-282.516	-132.917	0.089	0.011
-281.501	321.325	0.190	0.358
-280.486	-200.000	-0.038	0.208
-279.472	-53.349	-0.193	0.088
-278.457	13.163	0.240	0.184
-277.443	632.824	-0.082	0.207
-276.428	800.000	0.235	0.718
-275.413	-144.866	0.277	-0.025
-274.399	397.588	0.082	0.171
-273.384	-148.469	-0.393	0.032
-272.370	-200.000	0.006	0.121
-271.355	527.002	0.070	-0.162
-270.340	-135.044	0.060	-0.007
-269.326	-114.309	-0.096	0.018
-268.311	800.000	-0.138	0.436
-267.297	-200.000	-0.027	0.246
-266.282	-65.628	0.109	-0.043
-265.267	-91.414	-0.117	-0.033
-264.253	800.000	0.039	0.117
-263.238	-200.000	0.010	0.067
-262.224	-131.947	-0.325	-0.042
-261.209	-62.032	0.095	-0.039
-260.195	800.000	-0.062	-0.237
-259.180	-120.583	0.359	-0.060
-258.165	54.209	-0.394	-0.375
-257.151	127.144	-0.166	-0.209
-256.136	15.846	-0.169	-0.132
-255.122	198.515	-0.109	0.165
-254.107	-200.000	0.020	0.129
-253.092	18.801	-0.030	0.023
-252.078	5.750	0.136	-0.100
-251.063	67.901	0.154	-0.156
-250.049	-149.743	0.254	0.020
-249.034	800.000	-0.060	0.259
-248.019	150.862	-0.108	-0.145
-247.005	361.916	0.026	0.052
-245.990	-200.000	0.048	0.252
-244.976	5.212	-0.201	-0.147
-243.961	-200.000	0.000	-0.110
-242.946	-89.879	0.063	-0.018
-241.932	79.133	-0.135	-0.143
-240.917	-94.700	0.075	-0.020
-239.903	98.601	-0.060	0.068
-238.888	-121.758	0.251	-0.041
-237.873	-75.899	0.151	-0.053
-236.859	-54.598	0.399	-0.179
-235.844	-70.405	-0.373	0.140
-234.830	-167.388	-0.092	0.004
-233.815	-200.000	0.056	0.413
-232.800	117.525	0.088	-0.107
-231.786	42.188	0.061	-0.055
-230.771	-200.000	-0.019	0.181
-229.757	800.000	0.095	-0.349
-228.742	-82.075	0.338	0.109
-227.727	-52.557	0.180	-0.082
-226.713	214.166	-0.045	0.070
-225.698	800.000	-0.055	0.176
-224.684	-200.000	0.060	0.317
-223.669	-3.250	-0.176	-0.122
-222.655	225.529	0.085	-0.136
-221.640	-200.000	-0.016	0.231
-220.625	43.497	0.080	-0.073
-219.611	-200.000	0.006	0.124
-218.596	-12.114	-0.127	-0.082
-217.582	-200.000	0.068	0.294
-216.567	-61.131	0.064	-0.027
-215.552	800.000	-0.040	0.136
-214.538	-59.464	0.071	-0.030
-213.523	176.415	0.118	0.170
-212.509	-200.000	0.033	-0.213
-211.494	177.688	0.214	0.309
-210.479	-16.991	0.151	0.094
-209.465	66.349	-0.066	-0.066
-208.450	-100.943	-0.246	-0.060
-207.436	407.397	-0.151	-0.316
-206.421	-17.853	-0.383	-0.238
-205.406	-200.000	-0.022	-0.360
-204.392	479.724	0.011	0.026
-203.377	-143.030	0.326	0.031
-202.363	141.758	0.076	-0.100
-201.348	-200.000	-0.009	0.237
-200.333	-35.715	0.228	-0.122
-199.319	87.850	0.123	-0.135
-198.304	-53.068	0.236	0.107
-197.290	-153.305	0.127	0.009
-196.275	787.757	0.059	-0.160
-195.260	-109.443	-0.063	0.013
-194.246	-99.949	0.272	0.067
-193.231	-111.725	-0.190	-0.038
-192.217	-200.000	0.011	-0.301
-191.202	-69.227	0.167	-0.064
-190.187	373.536	-0.054	-0.108
-189.173	800.000	0.102	-0.374
-188.158	48.795	-0.145	-0.134
-187.144	-1.561	0.306	-0.213
-186.129	-200.000	0.006	0.101
-185.114	-200.000	0.025	0.147
-184.100	163.506	0.231	-0.320
-183.085	-5.011	0.312	-0.212
-182.071	610.568	0.026	0.063
-181.056	-141.623	0.387	-0.038
-180.042	28.373	-0.165	-0.138
-179.027	115.623	0.192	-0.232
-178.012	359.559	-0.086	-0.170
-176.998	-33.063	-0.109	-0.060
-175.983	-200.000	-0.022	0.159
-174.969	800.000	0.099	0.340
-173.954	-125.879	0.173	-0.026
-172.939	0.999	0.031	-0.022
-171.925	800.000	-0.036	0.150
-170.910	-98.281	0.067	0.017
-169.896	614.112	0.081	0.199
-168.881	-19.963	-0.217	-0.132
-167.866	752.639	0.084	-0.224
-166.852	-60.596	0.071	-0.030
-165.837	141.929	0.128	-0.168
-164.823	800.000	0.077	-0.242
-163.808	99.665	-0.133	-0.152
-162.793	-156.530	-0.121	-0.007
-161.779	800.000	-0.107	-0.318
-160.764	-28.528	0.252	-0.143
-159.750	-3.492	-0.185	-0.127
-158.735	-33.333	-0.084	0.046
-157.720	204.238	-0.110	-0.168
-156.706	-83.829	-0.060	0.019
-155.691	616.603	-0.101	0.249
-154.677	-200.000	-0.060	0.281
-153.662	-200.000	-0.050	0.231
-152.647	-200.000	-0.035	0.309
-151.633	604.844	-0.112	0.274
-150.618	-38.504	0.328	0.171
-149.604	128.258	0.141	0.176
-148.589	262.315	0.077	-0.132
-147.574	-91.152	-0.087	-0.025
-146.560	-200.000	-0.071	-0.412
-145.545	399.806	-0.130	-0.268
-144.531	-133.761	-0.192	-0.024
-143.516	-137.635	0.225	-0.025
-142.502	-119.094	-0.034	-0.006
-141.487	-39.090	-0.150	0.078
-140.472	-183.031	-0.144	-0.003
-139.458	-114.872	-0.038	-0.007
-138.443	2.668	-0.184	-0.132
-137.429	-200.000	0.071	-0.333
-136.414	-1.397	-0.060	-0.041
-135.399	112.955	-0.049	0.059
-134.385	-126.603	-0.218	-0.032
-133.370	329.925	-0.050	-0.094
-132.356	-43.466	0.378	0.188
-131.341	-74.253	0.263	0.094
-130.326	800.000	-0.029	0.080
-129.312	-200.000	0.000	0.046
-128.297	546.893	-0.076	0.179
-127.283	73.704	0.178	-0.184
-126.268	259.160	0.054	-0.092
-125.253	800.000	-0.026	0.079
-124.239	45.296	0.132	0.120
-123.224	-47.234	0.118	0.057
-122.210	-200.000	-0.003	0.074
-121.195	217.098	-0.182	0.285
-120.180	272.382	0.163	0.284
-119.166	-23.201	-0.133	0.079
-118.151	327.623	0.064	-0.122
-117.137	104.807	0.078	-0.090
-116.122	300.156	-0.062	0.113
-115.107	-200.000	0.008	0.286
-114.093	800.000	0.030	-0.125
-113.078	-116.477	-0.232	0.042
-112.064	134.574	0.143	0.183
-111.049	800.000	-0.020	-0.058
-110.034	-26.922	0.077	-0.044
-109.020	237.755	0.053	0.086
-108.005	800.000	-0.054	-0.155
-106.991	-162.081	0.188	0.009
-105.976	-200.000	0.016	-0.184
-104.962	-65.766	0.224	0.088
-103.947	-22.316	-0.243	0.145
-102.932	-200.000	-0.018	0.158
-101.918	138.482	-0.110	0.142
-100.903	-200.000	0.002	0.220
-99.889	41.335	-0.164	0.146
-98.874	15.889	0.185	-0.144
-97.859	-200.000	0.037	-0.229
-96.845	711.942	-0.097	0.252
-95.830	-139.470	-0.286	-0.030
-94.816	-73.446	-0.255	0.092
-93.801	-200.000	0.063	0.518
-92.786	800.000	-0.037	-0.122
-91.772	272.478	0.035	0.061
-90.757	396.747	-0.151	-0.310
-89.743	418.189	-0.135	-0.284
-88.728	-42.218	-0.200	-0.101
-87.713	-109.274	0.095	0.020
-86.699	70.059	-0.109	-0.111
-85.684	-181.493	0.302	0.006
-84.670	800.000	-0.022	0.064
-83.655	127.190	-0.198	0.247
-82.640	211.424	0.173	-0.269
-81.626	-179.101	0.088	-0.002
-80.611	-71.232	0.198	0.073
-79.597	-25.932	0.136	0.079
-78.582	-63.645	0.175	0.071
-77.567	-18.258	-0.224	-0.138
-76.553	7.829	0.146	-0.107
-75.538	800.000	-0.019	-0.068
-74.524	-180.283	0.262	-0.005
-73.509	800.000	0.067	0.201
-72.494	204.582	0.111	0.169
-71.480	-144.858	-0.109	-0.010
-70.465	-38.441	-0.135	0.070
-69.451	-149.456	0.297	0.023
-68.436	-48.938	-0.196	-0.092
-67.422	-141.529	0.257	0.026
-66.407	-200.000	-0.027	-0.217
-65.392	-64.718	0.292	0.116
-64.378	336.974	0.001	0.001
-63.363	24.869	0.093	-0.076
-62.349	800.000	0.037	-0.129
-61.334	93.231	-1.056	-1.174
-60.319	-90.929	0.591	0.167
-59.305	-200.000	-0.184	-1.083
-58.290	180.777	0.851	1.228
-57.276	-200.000	0.287	1.491
-56.261	-200.000	108.860	593.074
-55.246	443.888	1483.513	3197.381
-54.232	146.598	2664.422	3517.400
-53.217	105.911	2156.700	2507.749
-52.203	40.822	1605.793	1423.334
-51.188	32.979	1346.440	1146.046
-50.173	29.951	1305.345	1093.174
-49.159	54.380	1359.560	1286.399
-48.144	54.445	1375.648	1301.960
-47.130	33.026	1330.833	1132.864
-46.115	29.646	1312.457	1097.146
-45.100	29.467	1307.673	1092.043
-44.086	29.372	1305.563	1089.676
-43.071	29.414	1303.399	1088.074
-42.057	29.410	1300.846	1085.876
-41.042	29.404	1298.868	1084.151
-40.027	29.315	1297.994	1082.852
-39.013	29.403	1295.328	1081.102
-37.998	29.324	1293.866	1079.376
-36.984	29.466	1292.197	1078.771
-35.969	29.409	1290.489	1076.971
-34.954	29.532	1288.469	1075.960
-33.940	29.448	1287.848	1074.909
-32.925	29.562	1286.251	1074.193
-31.911	29.560	1284.780	1072.910
-30.896	29.551	1283.271	1071.557
-29.881	29.524	1282.329	1070.575
-28.867	29.695	1280.459	1069.956
-27.852	29.621	1279.107	1068.359
-26.838	29.682	1277.821	1067.595
-25.823	29.679	1276.789	1066.673
-24.809	29.564	1274.970	1064.445
-23.794	29.558	1274.059	1063.610
-22.779	29.627	1272.474	1062.641
-21.765	29.613	1271.090	1061.363
-20.750	29.688	1269.985	1060.828
-19.736	29.581	1268.803	1059.185
-18.721	29.431	1267.405	1057.117
-17.706	29.480	1266.468	1056.573
-16.692	29.465	1265.481	1055.621
-15.677	29.459	1264.410	1054.651
-14.663	29.432	1263.339	1053.564
-13.648	29.359	1262.166	1052.126
-12.633	29.472	1261.521	1052.192
-11.619	29.525	1260.153	1051.309
-10.604	29.478	1259.386	1050.364
-9.590	29.429	1258.401	1049.219
-8.575	29.450	1257.277	1048.360
-7.560	29.381	1256.663	1047.419
-6.546	29.341	1256.113	1046.691
-5.531	29.452	1254.427	1045.874
-4.517	29.407	1253.673	1044.948
-3.502	29.487	1253.039	1044.830
-2.487	29.430	1252.002	1043.599
-1.473	29.483	1247.801	1040.359
-0.458	28.133	1232.937	1020.398
0.556	22.937	1217.228	983.886
1.571	19.552	1223.058	969.538
2.586	18.820	1237.951	977.095
3.600	18.659	1226.515	967.072
4.615	13.686	1153.590	883.070
5.629	4.679	1077.667	779.891
6.644	0.591	1057.662	745.203
7.659	0.034	1055.990	741.211
8.673	-0.062	1054.704	739.775
9.688	-0.091	1053.418	738.661
10.702	0.199	1051.528	738.692
11.717	5.470	1058.428	769.453
12.731	13.960	1069.692	819.620
13.746	17.493	1073.379	839.831
14.761	17.147	1071.612	836.673
15.775	16.178	1069.334	830.055
16.790	15.055	1067.470	823.017
17.804	14.342	1066.513	818.703
18.819	14.006	1065.848	816.466
19.834	13.794	1064.482	814.307
20.848	13.481	1063.467	811.927
21.863	13.319	1062.149	810.053
22.877	13.106	1061.890	808.741
23.892	13.102	1061.136	808.076
24.907	13.082	1060.751	807.611
25.921	13.059	1059.772	806.684
26.936	13.208	1058.721	806.538
27.950	13.292	1057.526	805.966
28.965	13.165	1057.031	804.902
29.980	13.363	1055.217	804.411
30.994	13.393	1054.449	803.899
32.009	13.346	1053.667	803.003
33.023	13.358	1052.341	801.981
34.038	13.355	1051.351	801.140
35.053	13.261	1050.979	800.329
36.067	13.318	1049.727	799.585
37.082	13.249	1048.908	798.556
38.096	13.361	1048.485	798.701
39.111	13.367	1047.495	797.906
40.126	13.243	1046.266	796.302
41.140	13.261	1044.923	795.299
42.155	13.106	1044.427	794.107
43.169	13.048	1043.506	793.053
44.184	13.127	1041.992	792.214
45.199	13.147	1040.806	791.336
46.213	13.226	1040.051	791.072
47.228	13.294	1038.790	790.366
48.242	13.223	1038.494	789.734
49.257	13.227	1037.086	788.613
50.271	13.309	1036.258	788.302
51.286	13.301	1035.668	787.749
52.301	13.165	1034.809	786.375
53.315	13.170	1033.792	785.557
54.330	13.211	1032.404	784.627
55.344	13.015	1032.242	783.507
56.359	13.145	1030.984	783.098
57.374	13.084	1030.267	782.196
58.388	13.050	1029.105	781.084
59.403	13.053	1028.592	780.639
60.417	13.078	1027.542	779.888
61.432	12.999	1026.797	778.881
62.447	13.055	1026.307	778.706
63.461	13.074	1025.319	777.977
64.476	13.021	1024.187	776.802
65.490	13.020	1023.710	776.366
66.505	13.027	1022.828	775.661
67.520	13.132	1022.266	775.657
68.534	13.163	1021.272	774.980
69.549	13.029	1021.099	774.151
70.563	13.099	1020.016	773.590
71.578	13.021	1019.212	772.548
72.593	13.015	1018.480	771.895
73.607	12.949	1018.151	771.271
74.622	13.035	1016.931	770.679
75.636	13.000	1016.310	769.976
76.651	12.938	1016.101	769.462
77.666	12.935	1015.221	768.711
78.680	12.990	1014.448	768.317
79.695	13.039	1013.767	767.960
80.709	12.967	1013.429	767.300
81.724	13.258	1012.193	767.651
82.739	13.259	1011.317	766.919
83.753	13.231	1011.107	766.563
84.768	13.237	1010.429	766.011
85.782	13.361	1008.907	765.365
86.797	13.327	1008.414	764.765
87.812	13.198	1007.476	763.390
88.826	13.227	1006.410	762.645
89.841	13.281	1005.854	762.406
90.855	13.444	1004.903	762.369
91.870	13.301	1003.878	760.867
92.884	13.458	1003.065	760.907
93.899	13.402	1002.324	760.020
94.914	13.439	1001.473	759.476
95.928	13.472	1000.571	758.875
96.943	13.334	999.977	757.728
97.957	13.333	999.488	757.284
98.972	13.294	998.132	756.010
99.987	13.346	997.461	755.672
101.001	13.368	996.269	754.803
102.016	13.363	995.426	754.075
103.030	13.315	994.754	753.282
104.045	13.251	994.359	752.626
105.060	13.298	993.155	751.859
106.074	13.268	991.898	750.707
107.089	13.147	991.270	749.613
108.103	13.148	990.517	748.982
109.118	13.182	989.378	748.209
110.133	13.242	988.358	747.645
111.147	13.160	987.608	746.642
112.162	13.223	986.462	745.990
113.176	13.232	986.226	745.788
114.191	13.280	985.377	745.297
115.206	13.084	985.117	744.150
116.220	13.302	983.622	743.936
117.235	13.194	982.688	742.681
118.249	13.177	981.728	741.811
119.264	13.169	981.180	741.298
120.279	13.135	980.282	740.399
121.293	13.155	979.525	739.851
122.308	13.246	978.498	739.419
123.322	13.127	977.922	738.383
124.337	13.267	976.641	737.976
125.352	13.229	975.570	736.935
126.366	13.193	974.262	735.720
127.381	13.292	973.747	735.706
128.395	13.188	972.812	734.471
129.410	13.067	972.093	733.327
130.424	13.187	971.024	732.988
131.439	13.248	970.359	732.690
132.454	13.146	969.844	731.785
133.468	13.202	968.654	731.070
134.483	13.237	968.004	730.669
135.497	13.152	967.010	729.480
136.512	13.209	966.222	729.074
137.527	13.172	965.419	728.241
138.541	13.260	964.200	727.642
139.556	13.229	963.763	727.111
140.570	13.401	962.642	726.957
141.585	13.452	962.026	726.653
142.600	13.427	961.028	725.726
143.614	13.390	960.562	725.148
144.629	13.477	959.126	724.380
145.643	13.455	958.505	723.749
146.658	13.323	957.562	722.397
147.673	13.392	956.641	721.940
148.687	13.291	956.265	721.152
149.702	13.345	955.101	720.447
150.716	13.228	954.765	719.621
151.731	13.419	953.604	719.511
152.746	13.325	952.820	718.447
153.760	13.538	951.893	718.609
154.775	13.487	951.464	718.002
155.789	13.531	950.797	717.623
156.804	13.557	950.401	717.372
157.819	13.534	949.717	716.692
158.833	13.576	949.069	716.325
159.848	13.594	948.386	715.821
160.862	13.514	947.289	714.586
161.877	13.467	946.306	713.578
162.892	13.382	945.638	712.643
163.906	13.427	944.724	712.088
164.921	13.324	944.263	711.233
165.935	13.563	942.675	711.000
166.950	13.548	942.037	710.395
167.964	13.484	941.400	709.574
168.979	13.477	940.352	708.693
169.994	13.513	939.378	708.051
171.008	13.626	939.008	708.190
172.023	13.632	938.328	707.641
173.037	13.593	937.529	706.810
174.052	13.630	936.473	706.110
175.067	13.639	936.005	705.732
176.081	13.627	935.611	705.321
177.096	13.595	934.901	704.587
178.110	13.517	934.552	703.931
179.125	13.763	933.427	704.063
180.140	13.859	932.753	703.900
181.154	13.641	933.107	703.181
182.169	13.866	931.926	703.181
183.183	13.800	931.420	702.459
184.198	13.706	930.894	701.602
185.213	13.768	930.099	701.202
186.227	13.778	929.523	700.749
187.242	13.808	929.082	700.482
188.256	13.876	928.344	700.149
189.271	13.903	927.315	699.424
190.286	13.743	926.569	698.127
191.300	13.676	925.418	696.918
192.315	13.541	925.321	696.213
193.329	13.664	924.880	696.337
194.344	13.668	923.886	695.546
195.359	13.797	923.279	695.566
196.373	13.871	922.671	695.356
197.388	13.960	922.218	695.325
198.402	13.960	922.090	695.167
199.417	14.015	921.193	694.661
200.432	14.034	920.871	694.434
201.446	13.973	920.450	693.802
202.461	14.092	919.635	693.624
203.475	14.140	918.809	693.137
204.490	13.970	918.787	692.353
205.504	13.957	917.394	691.188
206.519	14.082	916.648	691.086
207.534	13.886	916.358	689.991
208.548	14.142	915.203	690.122
209.563	14.125	914.581	689.522
210.577	14.004	914.269	688.724
211.592	14.146	913.290	688.513
212.607	14.160	912.684	688.054
213.621	14.167	912.468	687.856
214.636	14.163	911.295	686.897
215.650	14.068	911.126	686.314
216.665	14.240	909.891	686.033
217.680	14.298	909.539	685.946
218.694	14.298	908.655	685.218
219.709	14.258	907.902	684.428
220.723	14.310	907.225	684.069
221.738	14.311	906.655	683.581
222.753	14.315	905.898	682.968
223.767	14.274	905.767	682.639
224.782	14.363	905.054	682.406
225.796	14.335	905.053	682.230
226.811	14.509	903.716	681.876
227.826	14.372	903.118	680.806
228.840	14.295	902.795	680.188
229.855	14.459	901.198	679.592
230.869	14.516	900.448	679.196
231.884	14.367	900.197	678.341
232.899	14.415	899.191	677.719
233.913	14.457	898.673	677.439
234.928	14.243	898.374	676.283
235.942	14.227	897.791	675.718
236.957	14.257	896.964	675.159
237.972	14.281	896.532	674.874
238.986	14.373	895.536	674.434
240.001	14.429	895.038	674.225
241.015	14.452	894.083	673.542
242.030	14.560	893.770	673.680
243.045	14.524	893.338	673.151
244.059	14.537	892.470	672.490
245.074	14.592	892.056	672.342
246.088	14.450	891.528	671.310
247.103	14.576	890.781	671.196
248.117	14.664	890.195	671.050
249.132	14.643	889.563	670.429
250.147	14.717	889.116	670.330
251.161	14.712	888.377	669.691
252.176	14.849	887.970	669.874
253.190	14.743	887.104	668.741
254.205	14.796	886.575	668.491
255.220	14.871	886.059	668.345
256.234	14.904	885.069	667.670
257.249	14.842	884.692	667.081
258.263	14.920	883.888	666.723
259.278	14.953	883.174	666.258
260.293	14.951	882.595	665.756
261.307	14.943	882.096	665.287
262.322	15.090	881.062	665.033
263.336	15.073	880.165	664.231
264.351	15.073	879.698	663.818
265.366	15.012	879.318	663.232
266.380	15.074	878.793	663.023
267.395	15.049	878.180	662.402
268.409	15.109	877.505	662.073
269.424	15.135	876.436	661.310
270.439	15.208	875.788	661.049
271.453	15.091	875.097	660.010
272.468	15.114	874.664	659.715
273.482	15.101	874.461	659.452
274.497	15.138	873.198	658.586
275.512	15.109	872.899	658.187
276.526	15.082	872.343	657.603
277.541	15.240	871.454	657.496
278.555	15.144	871.603	657.175
279.570	15.222	870.627	656.686
280.585	15.307	869.536	656.137
281.599	15.262	869.173	655.629
282.614	15.255	868.673	655.166
283.628	15.367	867.653	654.778
284.643	15.430	867.277	654.682
285.657	15.244	866.900	653.612
286.672	15.293	866.174	653.200
287.687	15.342	865.343	652.704
288.701	15.474	864.866	652.801
289.716	15.335	864.308	651.782
290.730	15.336	864.009	651.504
291.745	15.332	863.215	650.832
292.760	15.542	862.639	651.152
293.774	15.520	862.027	650.549
294.789	15.613	861.469	650.429
295.803	15.458	860.598	649.117
296.818	15.396	859.932	648.315
297.833	15.499	859.232	648.127
298.847	15.406	859.175	647.671
299.862	15.403	858.475	647.071
300.876	15.522	858.267	647.316
301.891	15.575	857.455	646.850
302.906	15.777	856.303	646.702
303.920	15.694	855.962	646.069
304.935	15.720	855.328	645.631
305.949	15.793	854.479	645.213
306.964	15.488	854.387	643.916
307.979	15.657	853.656	643.957
308.993	15.758	853.376	644.076
310.008	15.800	852.582	643.579
311.022	15.734	852.103	642.911
312.037	15.726	851.670	642.496
313.052	15.611	850.999	641.493
314.066	15.656	850.024	640.874
315.081	15.708	849.491	640.612
316.095	15.636	849.299	640.138
317.110	15.615	848.538	639.429
318.125	15.735	847.764	639.245
319.139	15.745	847.414	638.961
320.154	15.739	847.063	638.617
321.168	15.769	846.777	638.459
322.183	15.810	845.907	637.903
323.197	15.810	845.745	637.722
324.212	15.862	845.121	637.394
325.227	15.714	844.766	636.509
326.241	15.785	844.061	636.191
327.256	15.789	843.517	635.738
328.270	15.906	842.064	635.030
329.285	15.848	842.047	634.741
330.300	15.910	841.206	634.285
331.314	15.691	841.305	633.476
332.329	15.994	840.306	633.809
333.343	16.124	840.002	634.012
334.358	15.912	839.614	632.866
335.373	15.931	839.482	632.785
336.387	15.932	839.245	632.550
337.402	15.926	838.848	632.175
338.416	16.237	838.246	632.830
339.431	16.129	838.300	632.409
340.446	16.150	837.824	632.074
341.460	16.234	837.278	631.921
342.475	16.304	836.832	631.791
343.489	16.184	836.485	631.025
344.504	16.273	835.679	630.691
345.519	16.266	835.314	630.337
346.533	16.278	835.112	630.171
347.548	16.273	833.943	629.215
348.562	16.191	833.902	628.823
349.577	16.230	833.032	628.257
350.592	16.200	832.853	627.954
351.606	16.185	832.075	627.255
352.621	16.251	831.250	626.826
353.635	16.297	830.659	626.494
354.650	16.233	829.813	625.564
355.665	16.374	829.256	625.609
356.679	16.257	828.929	624.875
357.694	16.452	828.070	624.893
358.708	16.430	827.490	624.319
359.723	16.481	826.980	624.066
360.738	16.458	826.242	623.369
361.752	16.458	825.695	622.901
362.767	16.629	824.829	622.824
363.781	16.584	824.518	622.369
364.796	16.588	824.261	622.133
365.810	16.648	823.673	621.855
366.825	16.524	823.700	621.364
367.840	16.553	823.008	620.894
368.854	16.617	822.742	620.873
369.869	16.606	822.190	620.361
370.883	16.597	821.918	620.067
371.898	16.631	821.259	619.641
372.913	16.596	821.052	619.303
373.927	16.678	820.606	619.211
374.942	16.742	820.085	618.997
375.956	16.708	819.436	618.328
376.971	16.800	819.094	618.351
377.986	16.773	819.024	618.144
379.000	16.949	818.090	618.026
380.015	16.970	817.631	617.701
381.029	16.885	817.217	617.026
382.044	16.838	816.404	616.185
383.059	16.937	815.606	615.889
384.073	16.870	815.346	615.392
385.088	16.758	814.786	614.511
386.102	16.779	814.254	614.131
387.117	16.881	813.462	613.849
388.132	16.943	813.445	614.008
389.146	16.817	812.956	613.128
390.161	17.010	811.870	612.951
391.175	16.964	811.645	612.559
392.190	16.918	811.232	612.027
393.205	16.963	810.389	611.500
394.219	16.983	810.402	611.530
395.234	16.907	809.795	610.744
396.248	16.931	809.752	610.744
397.263	16.862	809.159	609.992
398.278	16.937	808.844	609.972
399.292	17.097	808.109	609.936
400.307	16.921	807.841	609.049
401.321	16.984	807.203	608.740
402.336	17.061	806.678	608.567
403.350	17.045	806.192	608.090
404.365	17.107	805.919	608.052
405.380	17.124	805.282	607.578
406.394	17.263	804.871	607.711
407.409	17.165	804.341	606.909
408.423	17.122	804.226	606.615
409.438	17.247	803.873	606.740
410.453	17.291	803.153	606.298
411.467	17.370	802.705	606.187
412.482	17.403	802.416	606.033
413.496	17.427	802.188	605.895
414.511	17.496	801.751	605.756
415.526	17.380	801.108	604.806
416.540	17.267	800.912	604.203
417.555	17.345	800.582	604.174
418.569	17.467	800.028	604.137
419.584	17.428	799.529	603.569
420.599	17.347	799.416	603.141
421.613	109.043	1292.969	1469.541
422.628	93.795	1364.857	1469.643
