DTS Sentinel unit serial number:	SN413079Multiplexer serial number:	ORYXHardware model number:	OX4-SRSoftware version number:	ORYX F/W v4.00 Oryx Data Collector v3.7.2.0data status	okinstallation	princeton_trtdifferential loss correction	single-endedforward channel	channel 1reverse channel	N/Adate	2019/09/18time	05:58:35forward acquisition time	60.00reverse acquisition time	0.00gamma	496.2192k internal	0.2339k external	0.2339temperature offset calibration	0.9978default loss term (dB/km)	0.3790temperature slope calibration	1.0000multiplexer offset coefficient	1.0000multiplexer slope coefficient	1.0000fibre end	0.00T internal ref (°C)	23.19T ext. ref 1 (°C)	0.19T ext. ref 2 (°C)	17.66length (m)	temperature (°C)	Stokes	anti-Stokes-747.200	29.849	0.172	-0.147
-746.185	-68.371	-0.277	0.108
-745.171	490.755	0.017	0.039
-744.156	-11.881	-0.103	-0.067
-743.142	800.000	0.051	-0.180
-742.127	-73.663	-0.126	0.046
-741.112	72.756	-0.177	0.185
-740.098	-128.271	-0.253	0.036
-739.083	-200.000	0.021	0.100
-738.069	-13.562	-0.465	0.302
-737.054	26.634	-0.206	0.173
-736.039	-185.938	-0.179	-0.003
-735.025	-111.450	0.483	0.099
-734.010	800.000	-0.132	-0.382
-732.996	-200.000	0.013	-0.179
-731.981	61.762	-0.179	-0.178
-730.966	-121.343	0.191	0.032
-729.952	88.534	0.101	-0.112
-728.937	-22.708	-0.216	0.131
-727.923	-13.499	-0.359	0.233
-726.908	-126.853	0.153	-0.023
-725.894	-200.000	-0.199	0.000
-724.879	73.159	0.057	-0.060
-723.864	-29.707	-0.235	-0.135
-722.850	-75.938	-0.173	-0.062
-721.835	800.000	0.078	-0.305
-720.821	-200.000	0.009	-0.101
-719.806	29.401	0.060	-0.051
-718.791	114.254	-0.253	-0.308
-717.777	-200.000	-0.000	0.310
-716.762	-160.115	0.177	0.010
-715.748	-20.567	-0.093	0.057
-714.733	61.280	0.308	-0.307
-713.718	-138.457	0.170	-0.019
-712.704	-124.767	-0.209	-0.032
-711.689	299.742	-0.170	0.313
-710.675	-178.953	0.296	0.007
-709.660	-103.320	-0.199	0.047
-708.645	352.499	-0.059	-0.116
-707.631	-200.000	-0.031	0.158
-706.616	-200.000	-0.013	-0.183
-705.602	800.000	-0.055	0.206
-704.587	61.943	0.115	-0.115
-703.572	22.338	-0.074	0.060
-702.558	-116.488	0.257	-0.047
-701.543	-55.215	-0.089	0.040
-700.529	-61.021	-0.190	0.080
-699.514	-106.531	0.355	-0.079
-698.499	5.846	0.144	-0.107
-697.485	43.365	-0.244	-0.223
-696.470	760.604	0.133	0.362
-695.456	-200.000	0.015	-0.113
-694.441	461.451	0.060	0.134
-693.426	800.000	-0.084	0.315
-692.412	-200.000	0.051	0.232
-691.397	-61.548	-0.210	-0.088
-690.383	-200.000	-0.036	-0.231
-689.368	28.537	0.134	0.114
-688.354	-69.575	-0.207	-0.079
-687.339	-53.933	-0.057	0.026
-686.324	59.503	0.127	0.125
-685.310	135.761	-0.107	0.139
-684.295	800.000	-0.126	-0.507
-683.281	-125.401	-0.419	-0.064
-682.266	587.031	0.053	-0.130
-681.251	-200.000	0.005	-0.161
-680.237	-200.000	-0.006	0.164
-679.222	-160.878	-0.242	-0.013
-678.208	-165.864	0.128	-0.005
-677.193	225.636	-0.074	0.121
-676.178	800.000	-0.028	0.083
-675.164	505.617	0.048	-0.111
-674.149	-89.849	-0.407	0.119
-673.135	-138.753	0.024	-0.003
-672.120	-54.045	0.171	-0.078
-671.105	118.528	0.056	-0.070
-670.091	102.999	0.295	0.346
-669.076	-200.000	-0.024	-0.346
-668.062	-23.611	0.197	0.118
-667.047	-167.733	0.236	-0.009
-666.032	191.994	-0.298	-0.449
-665.018	-116.450	0.252	-0.046
-664.003	-200.000	-0.031	-0.160
-662.989	-28.289	-0.179	0.103
-661.974	1.466	-0.229	-0.165
-660.959	-23.556	-0.165	-0.099
-659.945	-17.188	0.237	-0.149
-658.930	-146.755	-0.143	0.012
-657.916	800.000	-0.090	-0.335
-656.901	-200.000	-0.185	0.000
-655.886	23.082	-0.075	0.061
-654.872	198.635	0.042	0.064
-653.857	-200.000	0.081	0.424
-652.843	-69.822	0.188	0.072
-651.828	-25.728	0.295	0.174
-650.814	-200.000	0.057	0.411
-649.799	-32.486	0.050	0.028
-648.784	-27.005	-0.225	0.131
-647.770	-200.000	0.035	0.264
-646.755	-135.300	-0.195	0.023
-645.741	12.217	0.410	0.315
-644.726	32.601	-0.129	-0.111
-643.711	800.000	-0.049	0.175
-642.697	-86.646	-0.132	0.040
-641.682	485.376	-0.047	0.106
-640.668	13.414	-0.150	-0.116
-639.653	-200.000	0.054	-0.315
-638.638	-47.013	-0.182	-0.089
-637.624	-157.262	0.283	0.017
-636.609	88.437	0.063	0.070
-635.595	-200.000	-0.013	0.094
-634.580	-118.006	-0.421	-0.075
-633.565	12.298	-0.277	0.213
-632.551	-100.132	-0.248	0.062
-631.536	-82.358	-0.288	-0.094
-630.522	-200.000	0.015	-0.074
-629.507	270.549	-0.008	0.015
-628.492	631.147	0.068	0.173
-627.478	-200.000	-0.335	-0.001
-626.463	-48.125	0.163	-0.078
-625.449	800.000	-0.111	-0.344
-624.434	470.990	-0.110	-0.246
-623.419	-15.043	0.081	0.052
-622.405	74.615	-0.268	0.282
-621.390	-63.973	0.297	-0.121
-620.376	156.614	-0.049	0.068
-619.361	379.853	0.068	0.140
-618.346	-200.000	-0.059	0.280
-617.332	92.334	0.159	-0.179
-616.317	25.679	-0.133	-0.110
-615.303	66.834	0.116	-0.118
-614.288	-200.000	0.146	-0.745
-613.273	-37.008	0.190	0.101
-612.259	-12.782	-0.290	-0.189
-611.244	-200.000	-0.003	-0.206
-610.230	75.566	0.162	0.171
-609.215	-200.000	-0.025	0.204
-608.201	-200.000	0.029	-0.147
-607.186	236.124	-0.084	0.138
-606.171	-200.000	-0.040	0.344
-605.157	-200.000	0.024	-0.399
-604.142	6.454	0.269	-0.199
-603.128	-200.000	-0.020	0.313
-602.113	-200.000	-0.026	-0.133
-601.098	-119.850	-0.270	-0.046
-600.084	800.000	0.103	-0.312
-599.069	344.513	0.148	-0.290
-598.055	-23.898	-0.236	-0.141
-597.040	71.622	0.387	-0.401
-596.025	114.660	0.252	0.306
-595.011	-200.000	-0.035	0.283
-593.996	-11.739	-0.145	-0.095
-592.982	-12.999	-0.127	0.083
-591.967	-200.000	0.024	-0.262
-590.952	285.759	0.029	0.052
-589.938	213.731	-0.211	-0.332
-588.923	-200.000	-0.006	-0.405
-587.909	-55.141	0.080	0.036
-586.894	800.000	-0.022	-0.095
-585.879	-200.000	-0.012	0.312
-584.865	115.091	0.090	0.109
-583.850	217.340	-0.016	-0.025
-582.836	800.000	-0.057	0.163
-581.821	167.954	-0.195	-0.277
-580.806	134.778	0.225	0.291
-579.792	192.244	0.188	-0.283
-578.777	-147.172	-0.315	-0.027
-577.763	-21.435	-0.462	0.281
-576.748	-149.353	-0.202	0.016
-575.733	172.911	0.126	0.181
-574.719	63.447	-0.362	-0.361
-573.704	-72.075	-0.183	-0.068
-572.690	116.439	-0.117	0.143
-571.675	194.632	0.076	-0.114
-570.661	800.000	0.051	0.174
-569.646	344.093	-0.173	-0.338
-568.631	-66.890	0.243	-0.096
-567.617	-139.656	0.101	0.011
-566.602	-130.481	-0.268	0.036
-565.588	138.019	0.223	0.291
-564.573	800.000	-0.074	0.274
-563.558	-33.636	-0.204	0.112
-562.544	-200.000	-0.056	0.256
-561.529	800.000	0.091	0.282
-560.515	10.280	-0.335	0.254
-559.500	110.271	-0.180	-0.216
-558.485	206.244	0.075	-0.117
-557.471	-28.360	-0.182	-0.105
-556.456	42.692	0.274	0.249
-555.442	-200.000	0.047	-0.349
-554.427	-82.100	0.208	-0.067
-553.412	-200.000	0.029	0.173
-552.398	-200.000	0.228	0.000
-551.383	32.513	-0.233	-0.200
-550.369	-200.000	0.001	-0.489
-549.354	223.109	0.092	0.147
-548.339	-68.600	0.183	-0.070
-547.325	111.188	0.227	-0.272
-546.310	-200.000	-0.042	-0.228
-545.296	19.394	-0.188	-0.151
-544.281	496.577	0.088	0.201
-543.266	-91.686	-0.403	0.114
-542.252	-33.540	-0.160	0.088
-541.237	-200.000	-0.015	0.070
-540.223	-16.316	-0.167	-0.105
-539.208	-200.000	-0.030	-0.211
-538.193	-20.061	0.109	-0.067
-537.179	-168.215	0.189	0.007
-536.164	139.413	0.042	-0.055
-535.150	-23.732	-0.089	-0.053
-534.135	282.520	-0.009	-0.016
-533.121	-53.081	0.123	-0.056
-532.106	-96.010	0.236	-0.063
-531.091	-35.172	-0.210	-0.114
-530.077	-138.865	-0.366	-0.040
-529.062	0.869	-0.276	0.197
-528.048	197.152	0.101	-0.154
-527.033	-104.736	-0.256	-0.059
-526.018	-68.627	-0.313	-0.120
-525.004	138.112	0.288	-0.375
-523.989	-66.228	-0.397	-0.157
-522.975	-35.926	0.111	0.059
-521.960	-62.461	-0.074	-0.031
-520.945	-10.625	0.261	-0.172
-519.931	149.605	-0.046	0.062
-518.916	146.622	0.062	0.083
-517.902	800.000	0.135	0.586
-516.887	-95.172	0.162	0.043
-515.872	-159.753	-0.315	-0.017
-514.858	800.000	0.002	-0.007
-513.843	325.101	-0.116	-0.219
-512.829	-8.478	-0.260	-0.174
-511.814	-200.000	0.062	-0.411
-510.799	-23.070	-0.083	0.050
-509.785	168.717	-0.122	-0.173
-508.770	60.782	0.198	0.195
-507.756	-101.883	0.082	-0.020
-506.741	154.368	-0.010	-0.014
-505.726	-121.714	-0.077	0.013
-504.712	52.081	0.595	0.563
-503.697	800.000	0.064	-0.233
-502.683	800.000	-0.097	0.289
-501.668	800.000	-0.085	-0.238
-500.653	-200.000	-0.026	-0.286
-499.639	182.035	0.221	-0.324
-498.624	-200.000	0.048	0.244
-497.610	-58.940	-0.141	0.060
-496.595	-115.657	0.225	0.042
-495.581	383.564	0.087	-0.178
-494.566	-200.000	-0.059	-0.312
-493.551	-106.598	-0.039	0.009
-492.537	117.427	0.144	-0.175
-491.522	18.370	-0.236	-0.187
-490.508	-108.071	0.244	0.052
-489.493	151.489	0.101	0.137
-488.478	-64.833	-0.152	-0.061
-487.464	-169.444	0.131	-0.005
-486.449	127.928	-0.132	0.167
-485.435	-51.168	0.271	-0.126
-484.420	212.690	0.073	-0.114
-483.405	78.891	0.232	0.246
-482.391	800.000	0.067	0.208
-481.376	-61.344	0.163	-0.068
-480.362	462.431	-0.045	-0.100
-479.347	54.931	-0.368	0.353
-478.332	-137.578	-0.235	-0.026
-477.318	-57.233	-0.117	0.051
-476.303	130.854	0.098	-0.125
-475.289	259.635	-0.098	-0.168
-474.274	156.487	0.069	0.094
-473.259	98.788	-0.044	-0.050
-472.245	-200.000	0.007	0.052
-471.230	12.213	0.059	-0.045
-470.216	-200.000	-0.026	-0.260
-469.201	-56.487	-0.157	0.069
-468.186	-75.784	0.440	-0.155
-467.172	800.000	0.089	-0.246
-466.157	710.791	-0.189	-0.497
-465.143	130.767	0.233	0.297
-464.128	-126.213	-0.287	-0.043
-463.113	374.110	0.224	-0.453
-462.099	-165.746	-0.445	0.019
-461.084	-22.587	-0.251	0.151
-460.070	117.442	-0.293	-0.358
-459.055	52.544	-0.136	0.128
-458.040	116.738	0.006	0.007
-457.026	602.713	-0.020	-0.048
-456.011	800.000	-0.104	-0.349
-454.997	-200.000	0.006	-0.274
-453.982	-100.898	0.308	-0.075
-452.968	-85.298	0.187	-0.058
-451.953	14.071	0.355	-0.274
-450.938	118.330	0.294	0.359
-449.924	254.321	-0.060	0.101
-448.909	-200.000	0.047	-0.243
-447.895	15.437	0.114	0.089
-446.880	-200.000	-0.052	-0.509
-445.865	-57.588	0.228	-0.099
-444.851	15.269	0.227	-0.177
-443.836	267.549	0.176	0.305
-442.822	-156.793	0.346	0.021
-441.807	400.457	-0.090	-0.187
-440.792	-48.485	-0.307	0.147
-439.778	-200.000	-0.084	-0.389
-438.763	-93.646	-0.325	0.089
-437.749	800.000	-0.017	-0.063
-436.734	52.249	0.161	-0.152
-435.719	-149.278	-0.297	0.023
-434.705	-200.000	0.008	-0.149
-433.690	-55.259	0.142	0.063
-432.676	278.871	0.152	-0.268
-431.661	283.943	-0.048	0.086
-430.646	-77.442	-0.153	-0.053
-429.632	259.078	0.117	0.200
-428.617	-79.308	0.369	0.124
-427.603	-200.000	-0.009	-0.084
-426.588	800.000	0.061	-0.259
-425.573	800.000	0.080	-0.300
-424.559	7.178	0.064	0.047
-423.544	37.069	0.253	-0.221
-422.530	800.000	-0.063	-0.185
-421.515	-200.000	-0.082	0.445
-420.500	-119.506	0.267	-0.046
-419.486	180.120	0.120	-0.174
-418.471	0.429	-0.206	0.146
-417.457	-48.231	0.196	0.093
-416.442	-200.000	0.001	-0.103
-415.428	437.077	0.021	-0.045
-414.413	405.404	-0.058	0.121
-413.398	143.426	0.062	0.082
-412.384	800.000	-0.085	-0.240
-411.369	-116.845	0.219	-0.040
-410.355	82.001	0.091	0.098
-409.340	-200.000	-0.029	0.156
-408.325	-170.689	-0.178	-0.006
-407.311	-200.000	-0.017	0.166
-406.296	-115.758	-0.100	-0.019
-405.282	685.353	-0.068	-0.177
-404.267	-46.197	-0.437	-0.213
-403.252	800.000	0.016	-0.063
-402.238	-200.000	0.038	0.186
-401.223	-200.000	0.012	0.234
-400.209	800.000	0.028	0.092
-399.194	-96.084	0.150	0.040
-398.179	-40.440	0.242	0.124
-397.165	800.000	-0.086	0.250
-396.150	139.848	0.112	0.146
-395.136	84.988	-0.285	-0.309
-394.121	-200.000	0.062	0.446
-393.106	228.082	0.021	-0.034
-392.092	158.695	0.177	0.243
-391.077	-87.348	-0.247	0.074
-390.063	800.000	-0.052	0.149
-389.048	64.039	0.305	0.304
-388.033	26.092	-0.199	-0.165
-387.019	-25.668	0.397	0.232
-386.004	-50.230	0.117	0.055
-384.990	-20.302	0.169	0.103
-383.975	-28.028	0.020	0.011
-382.960	331.270	0.069	0.132
-381.946	23.451	-0.232	-0.189
-380.931	7.075	0.320	-0.236
-379.917	148.521	-0.157	0.210
-378.902	-16.905	-0.136	-0.085
-377.888	153.339	-0.104	0.140
-376.873	104.828	-0.121	0.141
-375.858	125.078	-0.105	0.131
-374.844	-117.409	-0.091	0.016
-373.829	19.662	-0.035	0.028
-372.815	372.664	0.213	-0.427
-371.800	-35.917	0.161	-0.086
-370.785	36.788	0.035	-0.031
-369.771	83.418	0.142	-0.153
-368.756	-129.374	-0.106	-0.015
-367.742	-200.000	0.043	-0.216
-366.727	800.000	-0.077	-0.236
-365.712	-58.078	0.200	0.086
-364.698	-140.108	-0.362	-0.038
-363.683	-134.722	0.330	-0.040
-362.669	-79.186	-0.199	-0.067
-361.654	96.635	0.127	-0.144
-360.639	81.376	-0.190	-0.203
-359.625	-200.000	-0.004	-0.124
-358.610	32.389	0.244	0.208
-357.596	284.777	-0.098	0.175
-356.581	-79.747	-0.133	0.044
-355.566	-197.631	0.050	0.000
-354.552	800.000	0.124	-0.383
-353.537	-149.025	-0.181	0.014
-352.523	583.346	-0.011	0.027
-351.508	-175.109	-0.282	0.008
-350.493	463.861	0.176	-0.389
-349.479	20.372	-0.253	-0.202
-348.464	20.583	-0.078	-0.062
-347.450	-51.565	-0.268	0.124
-346.435	-62.153	0.187	-0.077
-345.420	-11.210	0.149	0.097
-344.406	-38.911	-0.304	0.158
-343.391	76.062	0.098	-0.102
-342.377	-49.643	-0.184	0.086
-341.362	800.000	-0.065	-0.182
-340.348	579.702	-0.105	0.255
-339.333	71.598	-0.121	0.124
-338.318	-136.013	0.196	-0.023
-337.304	-59.093	-0.171	-0.073
-336.289	-200.000	-0.026	0.251
-335.275	-33.524	-0.163	-0.089
-334.260	800.000	-0.033	0.090
-333.245	-160.212	-0.398	0.021
-332.231	76.045	0.126	0.131
-331.216	-96.129	-0.245	0.064
-330.202	182.671	-0.137	-0.199
-329.187	105.744	-0.134	0.156
-328.172	-130.353	0.183	-0.024
-327.158	408.625	0.147	0.307
-326.143	405.077	0.250	-0.519
-325.129	-128.552	0.318	0.044
-324.114	-60.916	0.020	0.008
-323.099	-200.000	-0.028	0.587
-322.085	800.000	0.016	0.056
-321.070	-89.430	-0.465	-0.135
-320.056	201.157	0.117	0.178
-319.041	-60.232	0.070	0.030
-318.026	-157.313	0.237	0.014
-317.012	-74.440	0.101	0.036
-315.997	-200.000	-0.025	0.171
-314.983	40.511	0.124	-0.111
-313.968	143.951	0.320	0.421
-312.953	800.000	0.003	-0.012
-311.939	-57.870	0.158	0.068
-310.924	-71.751	0.061	-0.022
-309.910	-140.137	-0.426	-0.044
-308.895	664.769	0.105	0.268
-307.880	-106.177	0.176	0.039
-306.866	-79.323	-0.241	0.081
-305.851	-200.000	-0.040	0.331
-304.837	118.152	-0.052	0.063
-303.822	37.497	0.168	0.147
-302.807	-200.000	-0.049	0.230
-301.793	-50.073	0.170	0.080
-300.778	444.493	0.212	-0.459
-299.764	-50.974	-0.167	0.077
-298.749	720.125	-0.060	-0.157
-297.735	-30.882	-0.359	-0.200
-296.720	465.687	0.058	0.127
-295.705	310.587	-0.032	0.059
-294.691	-17.732	0.204	0.126
-293.676	800.000	-0.055	0.190
-292.662	-200.000	-0.007	0.192
-291.647	621.131	0.084	0.208
-290.632	279.045	0.072	-0.127
-289.618	-200.000	0.000	0.022
-288.603	563.282	-0.108	0.257
-287.589	519.737	-0.161	-0.372
-286.574	-34.265	0.088	-0.048
-285.559	17.000	0.222	-0.173
-284.545	114.950	-0.280	-0.336
-283.530	358.513	-0.101	-0.200
-282.516	369.535	0.029	0.058
-281.501	135.790	-0.200	0.257
-280.486	136.362	0.201	0.259
-279.472	326.306	0.062	-0.117
-278.457	47.994	-0.057	-0.052
-277.443	-51.293	-0.270	-0.124
-276.428	-180.180	-0.036	0.001
-275.413	-200.000	0.012	-0.090
-274.399	-200.000	0.048	-0.215
-273.384	-61.012	-0.314	0.131
-272.370	-180.692	0.104	0.002
-271.355	276.498	-0.144	0.252
-270.340	70.092	-0.152	-0.155
-269.326	-139.931	0.270	-0.028
-268.311	-200.000	0.035	-0.414
-267.297	142.586	-0.124	0.162
-266.282	82.112	-0.119	-0.127
-265.267	-200.000	-0.021	0.388
-264.253	-95.955	-0.216	-0.057
-263.238	60.580	0.164	0.160
-262.224	-200.000	0.034	0.274
-261.209	-58.889	-0.366	0.156
-260.195	-19.240	0.220	-0.134
-259.180	800.000	-0.038	-0.127
-258.165	-22.121	0.181	-0.108
-257.151	-200.000	-0.005	-0.039
-256.136	8.883	-0.198	0.147
-255.122	9.449	-0.236	-0.176
-254.107	800.000	-0.068	0.264
-253.092	-200.000	-0.004	0.383
-252.078	-140.803	-0.346	-0.035
-251.063	-164.723	0.308	-0.014
-250.049	-200.000	0.033	0.317
-249.034	-118.972	-0.155	-0.027
-248.019	-117.088	0.216	-0.039
-247.005	26.475	0.138	-0.114
-245.990	120.694	-0.288	-0.352
-244.976	-23.405	-0.172	0.101
-243.961	-64.206	0.058	-0.023
-242.946	402.657	0.170	0.351
-241.932	120.271	-0.231	0.282
-240.917	-93.178	0.251	0.069
-239.903	-51.519	0.228	-0.105
-238.888	-72.971	-0.163	-0.059
-237.873	6.874	0.161	0.118
-236.859	-72.957	0.193	-0.070
-235.844	-25.012	-0.074	0.043
-234.830	-83.966	0.269	-0.084
-233.815	-200.000	0.012	0.072
-232.800	-195.939	0.194	0.001
-231.786	618.181	0.082	0.202
-230.771	-129.581	-0.263	-0.036
-229.757	-171.344	0.172	0.006
-228.742	400.221	0.113	0.233
-227.727	525.273	0.086	0.199
-226.713	353.400	-0.126	0.246
-225.698	-12.985	0.238	0.152
-224.684	164.682	0.131	0.181
-223.669	70.607	-0.041	-0.042
-222.655	-85.711	0.186	0.057
-221.640	313.656	-0.040	0.074
-220.625	800.000	0.072	-0.223
-219.611	80.554	0.108	-0.114
-218.596	800.000	0.015	0.052
-217.582	-6.347	-0.101	-0.067
-216.567	-126.914	0.113	-0.016
-215.552	576.253	0.025	0.060
-214.538	25.338	-0.120	-0.098
-213.523	-200.000	0.062	-0.275
-212.509	208.530	-0.112	-0.172
-211.494	-7.773	0.167	0.111
-210.479	-189.547	0.325	-0.004
-209.465	-80.400	0.243	-0.080
-208.450	-92.980	-0.424	0.116
-207.436	-137.088	-0.083	-0.009
-206.421	-47.750	-0.040	0.019
-205.406	-200.000	-0.007	0.031
-204.392	-27.635	0.208	-0.118
-203.377	-200.000	-0.040	-0.176
-202.363	217.255	-0.205	0.321
-201.348	316.783	0.135	0.251
-200.333	-200.000	0.012	-0.183
-199.319	-200.000	0.051	-0.254
-198.304	-142.978	0.024	0.002
-197.290	128.719	0.159	0.199
-196.275	-33.258	-0.237	-0.129
-195.260	-139.439	-0.017	0.002
-194.246	-103.100	0.111	0.026
-193.231	303.870	0.166	0.302
-192.217	-142.731	0.185	-0.018
-191.202	-85.902	-0.257	-0.078
-190.187	-200.000	0.043	0.336
-189.173	-3.213	0.114	0.078
-188.158	-25.601	-0.173	-0.100
-187.144	279.246	0.149	0.260
-186.129	105.430	0.289	0.335
-185.114	159.862	0.071	0.097
-184.100	-166.171	0.168	0.007
-183.085	800.000	-0.098	-0.320
-182.071	208.803	-0.094	-0.144
-181.056	-200.000	0.016	0.413
-180.042	-200.000	0.014	0.120
-179.027	-55.797	0.049	0.021
-178.012	37.912	-0.063	-0.055
-176.998	-142.923	0.280	0.027
-175.983	189.319	-0.059	0.087
-174.969	-116.476	-0.174	0.032
-173.954	-101.309	0.228	-0.055
-172.939	800.000	-0.075	0.270
-171.925	-112.688	0.206	0.040
-170.910	129.765	0.208	-0.261
-169.896	800.000	0.072	-0.306
-168.881	93.364	0.078	0.086
-167.866	-98.064	0.205	-0.052
-166.852	-145.241	-0.529	0.047
-165.837	157.042	-0.132	0.178
-164.823	372.143	-0.079	-0.157
-163.808	106.180	-0.297	0.345
-162.793	136.406	0.102	0.130
-161.779	548.308	0.142	0.334
-160.764	-24.486	0.223	-0.130
-159.750	-200.000	0.001	0.025
-158.735	-129.580	0.080	-0.011
-157.720	-30.422	0.176	0.098
-156.706	35.302	0.134	0.115
-155.691	800.000	-0.080	0.248
-154.677	-87.999	-0.086	-0.025
-153.662	-45.842	0.137	0.066
-152.647	-200.000	0.002	0.084
-151.633	208.040	0.254	0.389
-150.618	53.844	-0.209	0.196
-149.604	207.748	0.137	-0.210
-148.589	511.822	0.033	0.074
-147.574	176.396	0.123	-0.175
-146.560	-46.890	0.168	-0.080
-145.545	-200.000	-0.015	0.114
-144.531	-68.152	0.109	-0.042
-143.516	-120.004	0.097	-0.016
-142.502	800.000	0.032	-0.132
-141.487	-68.433	-0.306	0.116
-140.472	104.049	-0.161	0.186
-139.458	-200.000	0.030	0.305
-138.443	168.289	0.146	-0.203
-137.429	290.161	-0.076	0.135
-136.414	-161.299	-0.187	-0.010
-135.399	23.183	0.117	-0.094
-134.385	-151.441	0.127	0.009
-133.370	-95.169	0.346	0.091
-132.356	800.000	0.039	-0.109
-131.341	-182.085	-0.291	0.005
-130.326	-28.985	0.093	-0.052
-129.312	101.142	0.250	0.285
-128.297	-131.988	-0.024	-0.003
-127.283	-79.992	-0.425	-0.140
-126.268	-92.088	-0.178	-0.049
-125.253	58.657	0.210	0.202
-124.239	206.053	-0.137	-0.208
-123.224	-22.896	0.168	-0.099
-122.210	230.457	0.071	0.113
-121.195	-200.000	0.019	0.129
-120.180	-200.000	0.005	-0.062
-119.166	158.664	0.120	-0.164
-118.151	-17.269	0.115	0.071
-117.137	-200.000	0.025	0.115
-116.122	-132.042	0.089	-0.011
-115.107	91.844	0.171	0.188
-114.093	-194.957	-0.256	-0.002
-113.078	-16.040	-0.201	0.125
-112.064	344.497	-0.157	0.301
-111.049	-110.031	-0.202	0.041
-110.034	800.000	0.071	0.194
-109.020	72.979	0.116	0.119
-108.005	-200.000	0.017	0.259
-106.991	-99.366	-0.301	0.074
-105.976	-39.321	0.242	-0.124
-104.962	50.581	-0.136	-0.126
-103.947	268.546	0.184	-0.315
-102.932	306.674	-0.043	0.079
-101.918	47.172	0.172	0.156
-100.903	-200.000	-0.052	-0.245
-99.889	-156.271	0.177	0.011
-98.874	800.000	0.048	0.205
-97.859	30.193	-0.228	0.191
-96.845	44.445	-0.341	-0.307
-95.830	-200.000	0.039	-0.204
-94.816	446.960	-0.173	-0.373
-93.801	-95.889	0.392	0.102
-92.786	48.196	-0.214	0.195
-91.772	-169.565	-0.025	0.001
-90.757	-64.303	0.494	0.197
-89.743	-200.000	0.033	-0.167
-88.728	-83.396	-0.140	-0.044
-87.713	249.757	-0.195	-0.323
-86.699	-75.054	-0.321	-0.112
-85.684	-27.158	0.183	0.104
-84.670	-49.981	0.079	-0.037
-83.655	-200.000	0.012	-0.155
-82.640	800.000	-0.043	-0.181
-81.626	281.315	0.014	0.025
-80.611	6.611	0.094	0.068
-79.597	800.000	-0.079	0.329
-78.582	-96.064	-0.119	-0.031
-77.567	188.092	0.138	0.202
-76.553	-84.784	-0.459	0.141
-75.538	-48.863	0.185	-0.087
-74.524	19.541	0.118	0.092
-73.509	624.704	-0.024	0.059
-72.494	182.236	0.082	-0.118
-71.480	-200.000	-0.059	-0.535
-70.465	722.515	-0.055	0.142
-69.451	-108.712	-0.119	-0.025
-68.436	-200.000	0.047	0.334
-67.422	-3.942	-0.051	-0.035
-66.407	-200.000	0.003	0.167
-65.392	-128.826	-0.134	0.018
-64.378	67.325	-0.206	-0.205
-63.363	-21.471	-0.175	-0.104
-62.349	155.639	0.217	0.292
-61.334	69.908	-1.057	-1.065
-60.319	21.120	0.865	0.685
-59.305	157.190	-0.539	-0.728
-58.290	569.490	0.613	1.455
-57.276	800.000	0.500	1.694
-56.261	-200.000	124.956	649.512
-55.246	403.913	1581.782	3250.983
-54.232	140.468	2743.480	3535.263
-53.217	94.800	2167.693	2406.770
-52.203	34.759	1596.884	1362.962
-51.188	26.450	1339.805	1093.518
-50.173	23.906	1302.112	1047.742
-49.159	52.307	1371.890	1277.076
-48.144	48.828	1382.839	1266.185
-47.130	26.561	1331.221	1087.006
-46.115	23.423	1312.066	1052.716
-45.100	23.188	1307.186	1047.369
-44.086	22.977	1304.933	1044.277
-43.071	23.048	1302.257	1042.512
-42.057	22.981	1299.898	1040.184
-41.042	23.087	1298.136	1039.358
-40.027	23.060	1297.013	1038.258
-39.013	23.088	1295.219	1036.950
-37.998	23.044	1293.224	1035.051
-36.984	23.159	1291.479	1034.285
-35.969	23.184	1289.643	1032.922
-34.954	23.171	1287.965	1031.459
-33.940	23.265	1287.035	1031.221
-32.925	23.314	1285.232	1030.020
-31.911	23.314	1284.013	1029.002
-30.896	23.287	1282.601	1027.672
-29.881	23.346	1281.379	1026.997
-28.867	23.251	1280.431	1025.647
-27.852	23.352	1278.767	1024.857
-26.838	23.290	1277.621	1023.537
-25.823	23.367	1275.688	1022.394
-24.809	23.319	1274.108	1020.807
-23.794	23.336	1273.072	1020.035
-22.779	23.261	1271.625	1018.408
-21.765	23.310	1270.701	1017.905
-20.750	23.236	1269.450	1016.442
-19.736	23.243	1267.809	1015.127
-18.721	23.165	1267.268	1014.206
-17.706	23.179	1265.887	1013.137
-16.692	23.173	1264.496	1011.953
-15.677	23.123	1263.603	1010.911
-14.663	23.042	1262.756	1009.729
-13.648	23.068	1261.340	1008.705
-12.633	23.116	1260.266	1008.080
-11.619	23.086	1260.020	1007.674
-10.604	23.112	1258.815	1006.821
-9.590	23.076	1257.973	1005.898
-8.575	23.103	1256.903	1005.161
-7.560	23.043	1256.288	1004.283
-6.546	23.032	1255.603	1003.638
-5.531	23.126	1254.564	1003.297
-4.517	23.088	1253.981	1002.577
-3.502	23.147	1252.907	1002.011
-2.487	23.062	1252.108	1000.850
-1.473	23.125	1247.129	997.187
-0.458	21.546	1232.711	976.818
0.556	16.600	1217.404	940.801
1.571	13.206	1225.623	928.044
2.586	12.666	1241.476	936.891
3.600	12.907	1229.046	928.783
4.615	9.459	1157.567	856.375
5.629	3.153	1086.043	771.830
6.644	0.363	1069.287	746.061
7.659	0.162	1067.420	743.697
8.673	0.119	1066.647	742.885
9.688	0.117	1065.360	741.909
10.702	0.378	1062.564	741.181
11.717	4.194	1067.391	763.299
12.731	11.080	1076.373	803.749
13.746	15.556	1082.133	830.147
14.761	16.701	1083.104	836.477
15.775	16.048	1081.254	831.755
16.790	15.093	1079.369	825.526
17.804	14.501	1077.879	821.396
18.819	13.991	1077.085	818.208
19.834	13.823	1076.090	816.554
20.848	13.582	1075.236	814.647
21.863	13.314	1074.265	812.526
22.877	13.228	1073.600	811.525
23.892	13.109	1072.984	810.404
24.907	13.222	1071.545	809.801
25.921	13.104	1071.342	809.000
26.936	13.189	1070.616	808.796
27.950	13.250	1069.511	808.188
28.965	13.241	1068.413	807.242
29.980	13.364	1067.181	806.838
30.994	13.286	1066.091	805.565
32.009	13.510	1065.196	805.907
33.023	13.306	1064.429	804.264
34.038	13.348	1062.962	803.288
35.053	13.354	1062.130	802.613
36.067	13.368	1061.156	801.878
37.082	13.250	1060.634	800.841
38.096	13.333	1059.672	800.444
39.111	13.345	1058.775	799.752
40.126	13.280	1057.474	798.385
41.140	13.008	1056.836	796.522
42.155	13.191	1055.182	796.085
43.169	13.137	1054.076	794.920
44.184	13.075	1053.500	794.119
45.199	13.104	1052.475	793.415
46.213	13.251	1051.287	793.157
47.228	13.224	1049.974	791.967
48.242	13.039	1049.481	790.637
49.257	13.118	1047.990	789.823
50.271	13.239	1047.042	789.615
51.286	13.284	1046.313	789.210
52.301	13.200	1045.383	788.038
53.315	13.116	1044.450	786.865
54.330	13.159	1043.062	785.956
55.344	13.220	1042.438	785.706
56.359	13.178	1041.711	784.890
57.374	13.226	1040.335	784.008
58.388	13.029	1040.152	782.867
59.403	12.975	1039.476	782.034
60.417	13.060	1038.609	781.714
61.432	13.059	1038.237	781.359
62.447	13.036	1037.116	780.338
63.461	12.951	1036.134	779.130
64.476	13.011	1035.120	778.581
65.490	13.015	1034.470	778.042
66.505	13.167	1033.371	777.860
67.520	13.070	1032.781	776.892
68.534	13.154	1032.042	776.663
69.549	13.112	1031.556	776.032
70.563	13.103	1030.468	775.101
71.578	12.939	1030.135	774.015
72.593	12.940	1029.457	773.440
73.607	13.039	1028.480	773.105
74.622	12.965	1027.694	772.095
75.636	12.956	1027.242	771.648
76.651	12.990	1026.455	771.147
77.666	13.014	1026.066	770.896
78.680	13.011	1025.468	770.364
79.695	13.001	1024.565	769.574
80.709	13.093	1023.813	769.369
81.724	13.087	1023.074	768.718
82.739	13.124	1022.404	768.319
83.753	13.221	1021.623	768.112
84.768	13.351	1020.486	767.794
85.782	13.403	1019.692	767.371
86.797	13.400	1018.632	766.491
87.812	13.290	1017.703	765.216
88.826	13.112	1017.198	763.945
89.841	13.184	1016.502	763.688
90.855	13.289	1015.047	763.011
91.870	13.393	1014.094	762.705
92.884	13.323	1013.977	762.229
93.899	13.393	1012.783	761.586
94.914	13.372	1012.438	761.161
95.928	13.361	1011.552	760.380
96.943	13.297	1010.383	759.137
97.957	13.282	1010.158	758.835
98.972	13.300	1008.935	757.929
99.987	13.327	1007.924	757.228
101.001	13.278	1006.871	756.142
102.016	13.375	1006.096	755.938
103.030	13.291	1005.558	755.085
104.045	13.340	1004.787	754.661
105.060	13.171	1004.014	753.243
106.074	13.284	1002.750	752.746
107.089	13.226	1001.858	751.745
108.103	13.236	1000.884	750.993
109.118	13.242	1000.015	750.299
110.133	13.182	998.814	749.059
111.147	13.273	998.132	748.897
112.162	13.211	997.278	747.908
113.176	13.324	996.492	747.762
114.191	13.302	995.770	747.057
115.206	13.314	994.804	746.321
116.220	13.294	994.425	745.879
117.235	13.273	993.000	744.649
118.249	13.212	992.734	744.109
119.264	13.332	991.542	743.688
120.279	13.103	991.716	742.722
121.293	13.375	990.195	742.741
122.308	13.276	989.014	741.347
123.322	13.351	987.813	740.716
124.337	13.240	987.171	739.673
125.352	13.292	985.811	738.822
126.366	13.200	985.289	737.950
127.381	13.126	984.107	736.670
128.395	13.115	983.236	735.904
129.410	13.348	981.765	735.778
130.424	13.199	981.938	735.178
131.439	13.209	981.018	734.469
132.454	13.096	980.400	733.439
133.468	13.253	978.944	732.980
134.483	13.322	978.109	732.596
135.497	13.342	977.298	732.011
136.512	13.201	976.372	730.631
137.527	13.353	975.278	730.418
138.541	13.244	974.627	729.387
139.556	13.358	974.623	729.823
140.570	13.482	973.297	729.311
141.585	13.400	972.543	728.319
142.600	13.442	971.755	727.848
143.614	13.439	970.415	726.769
144.629	13.505	969.820	726.548
145.643	13.501	969.186	725.991
146.658	13.411	968.193	724.787
147.673	13.518	967.024	724.316
148.687	13.483	966.420	723.650
149.702	13.479	965.272	722.710
150.716	13.462	964.636	722.094
151.731	13.440	964.418	721.771
152.746	13.431	963.495	720.977
153.760	13.497	962.697	720.601
154.775	13.577	962.227	720.537
155.789	13.621	961.771	720.320
156.804	13.480	961.076	719.124
157.819	13.482	960.396	718.560
158.833	13.635	959.647	718.600
159.848	13.631	958.488	717.651
160.862	13.580	958.213	717.159
161.877	13.640	956.774	716.281
162.892	13.526	955.931	715.092
163.906	13.473	954.978	714.090
164.921	13.508	954.183	713.581
165.935	13.540	953.441	713.101
166.950	13.780	952.184	713.131
167.964	13.640	951.387	711.870
168.979	13.617	950.545	711.075
169.994	13.613	949.481	710.200
171.008	13.697	949.201	710.287
172.023	13.735	948.382	709.774
173.037	13.684	948.007	709.216
174.052	13.783	947.007	708.826
175.067	13.680	946.588	708.009
176.081	13.581	945.850	706.972
177.096	13.802	944.962	707.189
178.110	13.711	944.515	706.404
179.125	13.713	943.822	705.833
180.140	13.660	943.497	705.300
181.154	13.786	942.734	705.204
182.169	13.821	942.304	704.967
183.183	13.784	941.420	704.088
184.198	13.841	941.078	704.009
185.213	13.978	939.986	703.711
186.227	13.825	939.349	702.527
187.242	13.888	938.807	702.323
188.256	13.832	938.148	701.533
189.271	13.829	937.330	700.847
190.286	13.719	936.941	700.031
191.300	13.622	936.342	699.110
192.315	13.638	935.314	698.349
193.329	13.727	935.179	698.561
194.344	13.909	934.073	698.438
195.359	13.834	933.488	697.623
196.373	13.886	933.135	697.515
197.388	13.860	932.248	696.682
198.402	14.061	931.999	697.277
199.417	14.057	931.261	696.650
200.432	14.131	930.788	696.543
201.446	14.211	929.887	696.141
202.461	14.100	929.615	695.412
203.475	14.155	928.982	695.105
204.490	14.221	927.908	694.517
205.504	14.094	927.210	693.402
206.519	14.146	926.788	693.244
207.534	14.085	926.030	692.360
208.548	14.139	925.330	692.001
209.563	14.161	924.222	691.204
210.577	14.169	924.102	691.083
211.592	14.183	923.513	690.640
212.607	14.272	922.937	690.517
213.621	14.273	921.998	689.757
214.636	14.231	921.309	689.008
215.650	14.151	920.803	688.237
216.665	14.414	919.680	688.425
217.680	14.400	918.894	687.719
218.694	14.349	918.152	686.889
219.709	14.356	917.912	686.679
220.723	14.436	917.068	686.317
221.738	14.411	916.363	685.626
222.753	14.338	916.130	685.090
223.767	14.395	915.133	684.521
224.782	14.443	914.607	684.262
225.796	14.502	914.278	684.195
226.811	14.466	913.289	683.249
227.826	14.318	912.847	682.253
228.840	14.480	911.815	682.084
229.855	14.418	911.185	681.296
230.869	14.557	910.299	681.143
231.884	14.476	909.752	680.340
232.899	14.453	909.199	679.773
233.913	14.442	908.291	678.992
234.928	14.434	907.767	678.507
235.942	14.542	907.060	678.356
236.957	14.522	906.344	677.678
237.972	14.605	905.818	677.562
238.986	14.588	904.992	676.818
240.001	14.397	904.830	675.862
241.015	14.504	903.934	675.567
242.030	14.519	903.339	675.121
243.045	14.561	902.975	674.960
244.059	14.610	901.980	674.354
245.074	14.513	901.954	673.884
246.088	14.665	900.503	673.355
247.103	14.593	900.073	672.684
248.117	14.772	899.589	672.980
249.132	14.801	898.988	672.592
250.147	14.961	898.022	672.449
251.161	14.865	897.896	671.911
252.176	14.950	896.987	671.511
253.190	15.019	896.140	671.096
254.205	14.999	895.759	670.673
255.220	14.990	895.183	670.143
256.234	15.057	894.183	669.606
257.249	14.939	893.702	668.713
258.263	15.023	892.952	668.430
259.278	14.999	892.368	667.837
260.293	15.067	891.915	667.709
261.307	15.099	891.091	667.162
262.322	15.069	890.645	666.649
263.336	15.271	889.187	666.301
264.351	15.109	888.659	665.202
265.366	15.291	888.144	665.482
266.380	15.204	887.772	664.798
267.395	15.056	887.322	663.816
268.409	15.052	886.448	663.087
269.424	15.228	885.239	662.822
270.439	15.095	884.874	661.964
271.453	15.235	884.135	661.903
272.468	15.040	883.681	660.738
273.482	15.124	883.144	660.608
274.497	15.257	882.543	660.623
275.512	15.324	881.295	659.895
276.526	15.284	881.456	659.801
277.541	15.381	880.915	659.718
278.555	15.388	880.288	659.217
279.570	15.399	879.504	658.615
280.585	15.377	878.900	658.020
281.599	15.339	877.889	657.052
282.614	15.277	877.560	656.507
283.628	15.323	877.064	656.258
284.643	15.423	876.243	655.978
285.657	15.284	875.875	655.102
286.672	15.444	875.130	655.109
287.687	15.434	874.263	654.362
288.701	15.424	873.645	653.803
289.716	15.548	873.274	653.950
290.730	15.578	872.512	653.437
291.745	15.488	872.056	652.688
292.760	15.565	870.991	652.135
293.774	15.526	871.079	651.991
294.789	15.438	870.065	650.834
295.803	15.660	869.109	650.920
296.818	15.661	868.633	650.510
297.833	15.652	867.738	649.748
298.847	15.573	867.747	649.390
299.862	15.523	867.006	648.586
300.876	15.681	866.565	648.809
301.891	15.601	865.920	647.959
302.906	15.844	865.483	648.511
303.920	15.765	864.853	647.679
304.935	15.811	864.311	647.393
305.949	15.916	863.533	647.154
306.964	15.701	862.996	645.871
307.979	15.825	862.165	645.665
308.993	15.809	861.939	645.378
310.008	15.840	861.241	644.920
311.022	15.850	860.692	644.490
312.037	15.825	859.892	643.736
313.052	15.783	859.718	643.388
314.066	15.821	858.822	642.805
315.081	15.796	858.137	642.142
316.095	15.723	857.907	641.633
317.110	15.889	856.941	641.487
318.125	15.915	856.817	641.435
319.139	15.890	856.187	640.815
320.154	15.766	855.791	639.990
321.168	15.965	855.001	640.099
322.183	15.882	854.584	639.412
323.197	15.803	853.955	638.586
324.212	15.850	853.568	638.417
325.227	15.910	853.050	638.202
326.241	15.811	852.602	637.434
327.256	16.026	851.584	637.433
328.270	16.055	851.331	637.294
329.285	16.177	850.470	637.055
330.300	15.878	850.082	635.580
331.314	15.920	849.809	635.478
332.329	15.997	849.204	635.258
333.343	16.095	848.336	634.921
334.358	16.088	848.345	634.847
335.373	16.054	847.977	634.387
336.387	16.060	847.621	634.089
337.402	16.212	847.188	634.279
338.416	16.294	846.469	633.991
339.431	16.294	846.090	633.651
340.446	16.283	846.049	633.523
341.460	16.216	845.873	633.085
342.475	16.284	845.173	632.758
343.489	16.241	844.666	632.164
344.504	16.382	844.234	632.310
345.519	16.353	843.962	631.945
346.533	16.375	842.895	631.170
347.548	16.215	842.873	630.499
348.562	16.261	842.158	630.083
349.577	16.307	841.529	629.727
350.592	16.271	840.858	629.037
351.606	16.408	840.007	628.854
352.621	16.315	839.402	627.997
353.635	16.297	839.113	627.658
354.650	16.388	838.575	627.539
355.665	16.374	837.485	626.616
356.679	16.366	837.026	626.188
357.694	16.436	836.618	626.085
358.708	16.446	835.954	625.571
359.723	16.554	834.902	625.128
360.738	16.570	834.637	624.934
361.752	16.431	834.378	624.170
362.767	16.547	833.379	623.797
363.781	16.556	832.934	623.439
364.796	16.570	832.625	623.208
365.810	16.568	832.156	622.791
366.825	16.836	831.807	623.463
367.840	16.690	831.162	622.389
368.854	16.666	830.878	622.030
369.869	16.908	830.117	622.294
370.883	16.704	830.009	621.410
371.898	16.809	829.647	621.468
372.913	16.825	829.044	621.021
373.927	16.782	828.419	620.339
374.942	16.859	828.153	620.370
375.956	16.793	827.984	619.944
376.971	16.979	827.275	620.040
377.986	16.965	827.054	619.767
379.000	16.990	826.293	619.236
380.015	16.934	825.950	618.719
381.029	16.845	825.370	617.905
382.044	17.037	824.587	617.962
383.059	17.070	823.877	617.497
384.073	17.043	823.414	616.996
385.088	17.041	822.852	616.513
386.102	17.201	822.039	616.430
387.117	16.878	822.109	615.254
388.132	16.970	821.432	615.030
389.146	16.972	820.974	614.640
390.161	17.137	820.234	614.629
391.175	17.190	819.504	614.217
392.190	17.015	819.046	613.186
393.205	16.939	819.210	612.980
394.219	17.086	818.804	613.152
395.234	17.065	818.133	612.521
396.248	17.050	817.509	611.945
397.263	17.030	817.481	611.798
398.278	17.083	817.078	611.635
399.292	17.042	816.176	610.757
400.307	16.892	816.226	610.203
401.321	17.121	815.204	610.207
402.336	17.133	814.965	610.015
403.350	17.184	814.822	610.039
404.365	17.267	814.272	609.870
405.380	17.358	813.484	609.552
406.394	17.253	813.320	608.999
407.409	17.260	812.972	608.711
408.423	17.333	812.229	608.362
409.438	17.451	811.949	608.519
410.453	17.431	811.355	607.947
411.467	17.395	811.289	607.717
412.482	17.450	810.364	607.168
413.496	17.586	810.114	607.411
414.511	17.558	810.079	607.231
415.526	17.553	809.336	606.601
416.540	17.458	809.141	606.063
417.555	17.443	808.604	605.555
418.569	17.519	808.022	605.335
419.584	17.612	807.367	605.121
420.599	17.543	807.256	604.739
421.613	113.812	1299.352	1488.264
422.628	98.306	1370.981	1488.329
