DTS Sentinel unit serial number:	SN413079Multiplexer serial number:	ORYXHardware model number:	OX4-SRSoftware version number:	ORYX F/W v4.00 Oryx Data Collector v3.7.2.0data status	okinstallation	princeton_trtdifferential loss correction	single-endedforward channel	channel 1reverse channel	N/Adate	2019/09/13time	06:54:35forward acquisition time	60.00reverse acquisition time	0.00gamma	496.2192k internal	0.2336k external	0.2336temperature offset calibration	1.0157default loss term (dB/km)	0.3790temperature slope calibration	1.0000multiplexer offset coefficient	1.0000multiplexer slope coefficient	1.0000fibre end	0.00T internal ref (°C)	26.00T ext. ref 1 (°C)	4.12T ext. ref 2 (°C)	20.70length (m)	temperature (°C)	Stokes	anti-Stokes-747.200	139.082	-0.208	-0.275
-746.185	-127.826	-0.361	0.052
-745.171	308.401	-0.052	-0.098
-744.156	-140.476	-0.281	-0.029
-743.142	160.144	0.182	0.255
-742.127	59.330	-0.016	0.016
-741.112	-11.751	0.109	0.072
-740.098	6.092	-0.308	0.229
-739.083	-21.005	0.154	0.095
-738.069	-169.718	-0.556	-0.020
-737.054	188.285	0.043	0.065
-736.039	-200.000	-0.009	-0.075
-735.025	-123.495	-0.034	0.005
-734.010	-128.569	-0.480	0.068
-732.996	-125.776	0.025	0.004
-731.981	-152.415	0.269	-0.019
-730.966	71.742	-0.180	-0.188
-729.952	651.021	0.086	-0.222
-728.937	-145.962	-0.448	-0.040
-727.923	-9.369	0.103	-0.069
-726.908	-29.898	-0.055	0.032
-725.894	-56.045	-0.044	0.020
-724.879	-120.290	0.126	0.022
-723.864	-200.000	0.054	-0.322
-722.850	-142.465	0.257	0.025
-721.835	179.323	0.101	0.149
-720.821	604.781	-0.122	0.305
-719.806	-200.000	-0.003	0.061
-718.791	79.739	0.018	0.019
-717.777	31.589	-0.086	-0.074
-716.762	130.727	0.301	-0.388
-715.748	501.621	0.030	0.070
-714.733	421.080	-0.048	0.102
-713.718	119.148	0.128	0.159
-712.704	-50.990	0.063	-0.030
-711.689	-200.000	-0.075	-0.336
-710.675	-23.924	-0.512	0.307
-709.660	-84.902	0.184	-0.058
-708.645	219.745	-0.294	0.472
-707.631	800.000	-0.046	-0.152
-706.616	-81.952	0.202	-0.066
-705.602	-200.000	0.024	-0.162
-704.587	-51.806	0.434	0.203
-703.572	-200.000	-0.027	0.295
-702.558	-200.000	0.004	-0.064
-701.543	-200.000	0.043	-0.280
-700.529	-200.000	-0.021	-0.122
-699.514	-43.613	0.149	0.075
-698.499	82.764	-0.072	-0.079
-697.485	-34.912	-0.185	-0.101
-696.470	-200.000	0.007	-0.176
-695.456	184.606	-0.146	0.217
-694.441	-21.123	0.033	0.020
-693.426	3.388	-0.142	0.104
-692.412	144.366	-0.131	-0.175
-691.397	-200.000	-0.027	-0.133
-690.383	116.256	-0.134	0.164
-689.368	-122.529	0.282	0.046
-688.354	-53.651	0.151	0.069
-687.339	1.994	-0.197	0.143
-686.324	-70.808	-0.147	0.055
-685.310	-200.000	-0.039	0.418
-684.295	-56.922	-0.167	-0.074
-683.281	335.253	-0.121	0.235
-682.266	-134.740	-0.092	0.011
-681.251	-86.027	-0.336	-0.104
-680.237	146.931	-0.134	-0.181
-679.222	108.175	0.112	0.134
-678.208	-95.896	0.138	0.037
-677.193	36.982	0.205	-0.182
-676.178	40.214	-0.096	-0.087
-675.164	354.598	0.057	-0.113
-674.149	67.543	-0.272	-0.279
-673.135	-23.099	-0.086	-0.052
-672.120	-85.792	-0.413	-0.128
-671.105	-130.040	-0.225	-0.031
-670.091	7.627	0.181	0.136
-669.076	-84.348	0.119	0.038
-668.062	-63.717	-0.155	-0.064
-667.047	82.958	-0.342	0.372
-666.032	54.926	0.101	0.097
-665.018	4.992	-0.052	0.038
-664.003	-12.388	0.397	-0.260
-662.989	13.117	-0.187	-0.145
-661.974	-200.000	0.034	-0.158
-660.959	-134.388	-0.111	-0.014
-659.945	-128.497	0.279	0.040
-658.930	-45.337	0.082	0.041
-657.916	800.000	-0.018	-0.065
-656.901	-69.902	0.292	0.111
-655.886	285.084	-0.122	0.219
-654.872	-6.188	-0.110	-0.075
-653.857	349.818	-0.123	-0.243
-652.843	377.467	0.054	0.111
-651.828	-133.408	0.187	-0.023
-650.814	-105.388	-0.291	-0.066
-649.799	-200.000	-0.032	-0.263
-648.784	368.193	0.103	-0.208
-647.770	47.128	0.084	-0.078
-646.755	-71.598	-0.209	-0.078
-645.741	-200.000	-0.005	0.051
-644.726	95.270	0.034	0.039
-643.711	800.000	-0.032	0.089
-642.697	800.000	-0.073	-0.245
-641.682	-8.550	-0.101	-0.068
-640.668	-200.000	0.051	-0.287
-639.653	69.197	0.104	-0.107
-638.638	800.000	-0.028	-0.110
-637.624	197.644	-0.104	0.159
-636.609	191.008	-0.106	-0.159
-635.595	33.389	0.352	0.305
-634.580	-88.122	0.063	-0.019
-633.565	-59.263	-0.247	-0.106
-632.551	-70.170	0.137	-0.052
-631.536	-0.782	0.180	-0.128
-630.522	55.033	-0.084	-0.081
-629.507	-50.047	-0.215	-0.102
-628.492	800.000	-0.041	-0.128
-627.478	800.000	-0.099	0.321
-626.463	800.000	-0.056	-0.199
-625.449	240.360	-0.092	0.154
-624.434	-149.128	-0.207	-0.017
-623.419	-143.802	0.148	-0.014
-622.405	54.467	-0.049	-0.047
-621.390	16.967	0.124	-0.098
-620.376	229.580	-0.114	-0.187
-619.361	-152.223	-0.225	0.016
-618.346	-159.483	-0.011	-0.001
-617.332	-65.221	0.191	0.077
-616.317	323.071	0.178	0.340
-615.303	2.871	0.172	0.124
-614.288	-137.171	0.194	0.022
-613.273	51.163	-0.159	0.151
-612.259	-112.931	0.141	0.028
-611.244	25.517	0.196	-0.163
-610.230	-117.288	-0.171	-0.031
-609.215	122.893	0.181	-0.227
-608.201	-200.000	0.039	0.305
-607.186	255.055	0.158	-0.270
-606.171	-95.316	-0.273	-0.073
-605.157	500.757	0.162	-0.373
-604.142	-57.460	0.049	0.022
-603.128	160.039	0.173	-0.241
-602.113	-105.087	0.254	0.058
-601.098	-13.345	0.147	0.095
-600.084	158.301	0.184	0.255
-599.069	60.707	0.072	-0.071
-598.055	-200.000	-0.042	0.355
-597.040	-140.985	0.015	0.002
-596.025	-155.356	-0.229	0.015
-595.011	-0.394	0.155	-0.110
-593.996	-31.528	-0.132	0.074
-592.982	-31.635	-0.203	-0.114
-591.967	-7.073	0.446	-0.302
-590.952	-28.770	0.249	-0.143
-589.938	-200.000	-0.019	-0.185
-588.923	-84.575	-0.135	0.043
-587.909	-3.193	-0.287	-0.200
-586.894	12.186	0.282	-0.217
-585.879	-144.018	-0.182	0.017
-584.865	-125.334	-0.270	0.041
-583.850	144.651	0.185	0.246
-582.836	265.255	0.111	-0.193
-581.821	556.664	-0.063	0.151
-580.806	0.618	0.229	-0.163
-579.792	130.705	0.157	0.201
-578.777	-89.274	-0.216	0.063
-577.763	38.701	0.113	-0.101
-576.748	-152.524	-0.239	-0.017
-575.733	120.199	0.195	0.241
-574.719	-99.377	-0.040	-0.010
-573.704	-200.000	-0.106	-0.602
-572.690	-38.561	-0.388	0.204
-571.675	299.019	0.078	0.144
-570.661	-200.000	0.006	0.039
-569.646	-200.000	0.039	0.211
-568.631	180.893	-0.216	0.316
-567.617	-200.000	0.010	-0.347
-566.602	-200.000	0.024	-0.508
-565.588	-55.965	0.372	0.165
-564.573	59.090	-0.261	0.256
-563.558	-200.000	-0.049	-0.220
-562.544	-186.752	-0.268	-0.004
-561.529	-53.899	0.154	0.070
-560.515	692.644	-0.122	-0.320
-559.500	-200.000	0.024	0.312
-558.485	-22.510	0.233	0.140
-557.471	-85.789	0.159	-0.049
-556.456	100.318	-0.287	0.332
-555.442	53.106	0.103	0.099
-554.427	205.999	0.110	-0.170
-553.412	7.469	0.209	0.156
-552.398	-29.608	0.129	-0.073
-551.383	-69.155	-0.161	-0.062
-550.369	-4.141	-0.225	0.155
-549.354	800.000	0.060	0.167
-548.339	-200.000	0.031	-0.143
-547.325	444.728	0.053	-0.117
-546.310	-200.000	0.007	-0.047
-545.296	499.348	-0.073	-0.167
-544.281	95.236	0.198	-0.224
-543.266	-190.477	0.234	0.003
-542.252	-160.585	-0.183	0.010
-541.237	28.203	0.069	-0.058
-540.223	800.000	0.106	0.319
-539.208	-200.000	-0.003	0.338
-538.193	-200.000	0.011	0.180
-537.179	433.663	-0.137	-0.296
-536.164	-46.194	0.309	-0.151
-535.150	459.180	-0.057	-0.125
-534.135	-30.944	-0.212	0.119
-533.121	9.744	0.154	0.116
-532.106	181.837	-0.173	-0.253
-531.091	449.681	-0.053	0.115
-530.077	72.915	-0.170	0.177
-529.062	313.762	-0.067	-0.126
-528.048	48.897	-0.213	0.199
-527.033	-112.663	0.413	-0.082
-526.018	-67.603	-0.331	-0.129
-525.004	-160.333	0.312	-0.017
-523.989	34.960	-0.276	0.241
-522.975	800.000	-0.067	0.217
-521.960	-200.000	0.016	0.475
-520.945	-200.000	0.038	-0.265
-519.931	-200.000	-0.000	0.005
-518.916	-81.866	-0.107	0.035
-517.902	39.756	0.193	-0.172
-516.887	-35.883	-0.256	-0.138
-515.872	-5.541	-0.195	-0.133
-514.858	175.516	0.125	-0.181
-513.843	-200.000	-0.037	-0.330
-512.829	33.792	0.101	0.088
-511.814	-74.204	-0.131	0.047
-510.799	-82.208	-0.066	0.021
-509.785	800.000	-0.059	-0.164
-508.770	101.546	0.057	0.066
-507.756	88.222	0.207	0.228
-506.741	72.490	-0.039	0.040
-505.726	565.525	0.050	-0.120
-504.712	114.889	-0.112	0.136
-503.697	31.170	-0.053	-0.045
-502.683	-200.000	0.010	0.208
-501.668	800.000	0.075	0.220
-500.653	697.103	-0.160	-0.418
-499.639	19.649	0.245	0.196
-498.624	486.466	-0.069	0.157
-497.610	-200.000	-0.010	-0.185
-496.595	58.699	-0.156	0.152
-495.581	-13.398	0.328	0.212
-494.566	-105.326	0.451	0.102
-493.551	-163.985	-0.301	0.014
-492.537	800.000	-0.113	-0.386
-491.522	655.877	-0.030	0.077
-490.508	111.091	0.017	0.021
-489.493	55.204	-0.214	0.206
-488.478	-155.102	0.335	0.022
-487.464	-96.061	0.220	-0.058
-486.449	-39.670	-0.191	0.100
-485.435	166.846	0.213	0.300
-484.420	-36.685	0.141	-0.076
-483.405	-200.000	-0.023	0.168
-482.391	-132.995	-0.349	-0.044
-481.376	-13.185	0.287	0.185
-480.362	106.906	0.237	-0.279
-479.347	-62.930	-0.521	0.214
-478.332	-142.614	0.355	-0.035
-477.318	800.000	0.082	-0.349
-476.303	-93.897	0.142	-0.039
-475.289	-143.467	-0.320	-0.030
-474.274	3.503	0.194	0.140
-473.259	312.719	-0.088	0.163
-472.245	-162.481	-0.320	0.016
-471.230	707.459	-0.112	0.295
-470.216	-4.152	-0.319	0.220
-469.201	-83.172	0.151	-0.048
-468.186	-117.425	0.437	-0.079
-467.172	207.704	-0.060	-0.094
-466.157	88.160	-0.103	0.113
-465.143	-102.364	0.295	-0.070
-464.128	-76.232	-0.201	-0.070
-463.113	-14.070	-0.198	-0.127
-462.099	-200.000	-0.030	-0.191
-461.084	-25.605	-0.215	-0.126
-460.070	-73.701	-0.259	0.094
-459.055	-57.139	0.183	0.080
-458.040	-32.293	0.228	-0.126
-457.026	309.712	-0.053	-0.099
-456.011	129.653	0.060	-0.076
-454.997	382.471	-0.243	0.496
-453.982	-200.000	-0.296	-0.000
-452.968	-49.006	0.142	0.067
-451.953	-28.861	0.226	0.129
-450.938	800.000	-0.129	0.387
-449.924	-194.354	-0.185	-0.001
-448.909	-63.147	0.037	-0.015
-447.895	54.129	-0.172	-0.164
-446.880	-174.932	0.372	0.010
-445.865	-182.547	-0.237	0.004
-444.851	8.414	0.111	-0.083
-443.836	-200.000	-0.040	-0.286
-442.822	-122.001	-0.404	0.066
-441.807	-108.852	0.288	-0.061
-440.792	90.240	0.038	0.043
-439.778	175.366	-0.109	-0.157
-438.763	-200.000	-0.029	0.165
-437.749	-200.000	-0.015	0.197
-436.734	-200.000	0.017	0.329
-435.719	611.959	-0.102	-0.254
-434.705	141.124	0.118	-0.155
-433.690	225.844	0.051	0.083
-432.676	240.454	-0.077	0.128
-431.661	169.423	-0.136	0.192
-430.646	-56.762	0.465	-0.204
-429.632	-40.809	-0.305	-0.157
-428.617	-200.000	-0.101	-0.449
-427.603	128.530	-0.164	-0.207
-426.588	-105.369	-0.264	-0.060
-425.573	800.000	0.045	0.167
-424.559	-85.363	-0.416	0.129
-423.544	-129.687	-0.213	-0.029
-422.530	-176.827	0.220	-0.006
-421.515	-59.259	-0.292	0.125
-420.500	122.309	-0.161	-0.199
-419.486	35.974	0.190	-0.165
-418.471	552.284	-0.174	0.413
-417.457	-200.000	-0.004	0.023
-416.442	63.352	-0.471	-0.468
-415.428	800.000	-0.065	-0.264
-414.413	-17.807	0.266	0.166
-413.398	-76.414	0.220	0.077
-412.384	58.270	0.267	0.259
-411.369	-200.000	0.013	-0.062
-410.355	-1.406	-0.073	-0.051
-409.340	44.871	0.368	0.336
-408.325	-20.046	0.161	-0.098
-407.311	107.842	-0.183	-0.216
-406.296	-175.233	0.101	0.003
-405.282	15.655	0.055	0.043
-404.267	-86.925	-0.325	0.098
-403.252	-93.080	0.071	-0.020
-402.238	-200.000	-0.012	0.088
-401.223	800.000	0.119	0.360
-400.209	-47.490	-0.327	0.157
-399.194	-200.000	0.025	0.321
-398.179	18.053	-0.095	0.075
-397.165	-24.544	0.141	-0.083
-396.150	-64.847	0.104	-0.042
-395.136	-200.000	0.027	0.161
-394.121	-55.301	0.195	-0.087
-393.106	-200.000	-0.067	0.397
-392.092	800.000	-0.011	-0.039
-391.077	6.737	-0.162	0.119
-390.063	-39.509	-0.156	0.081
-389.048	22.552	-0.099	0.080
-388.033	646.440	-0.095	-0.241
-387.019	-5.385	0.355	-0.241
-386.004	-128.409	0.112	-0.016
-384.990	7.478	0.182	-0.135
-383.975	-75.573	-0.115	0.040
-382.960	-49.362	0.271	0.128
-381.946	310.150	0.064	-0.118
-380.931	-42.086	-0.021	0.011
-379.917	47.516	-0.142	-0.131
-378.902	800.000	0.099	-0.373
-377.888	74.612	-0.345	0.360
-376.873	-99.341	-0.146	-0.036
-375.858	-7.463	0.080	0.054
-374.844	800.000	0.035	0.099
-373.829	800.000	0.044	-0.129
-372.815	160.980	0.127	-0.175
-371.800	-145.054	-0.223	-0.020
-370.785	128.688	-0.159	-0.201
-369.771	-91.011	0.343	-0.098
-368.756	-87.368	-0.370	0.111
-367.742	298.648	0.079	0.144
-366.727	-77.509	0.288	0.099
-365.712	800.000	0.112	0.308
-364.698	371.107	0.074	-0.148
-363.683	800.000	-0.046	-0.169
-362.669	-102.558	0.149	0.035
-361.654	-158.402	0.208	-0.012
-360.639	-102.257	-0.309	0.073
-359.625	103.719	0.096	-0.112
-358.610	-67.029	-0.429	0.167
-357.596	800.000	-0.050	-0.212
-356.581	-14.193	-0.102	0.065
-355.566	295.224	0.034	0.062
-354.552	-156.211	0.181	-0.011
-353.537	-30.722	0.144	-0.080
-352.523	35.961	-0.082	-0.071
-351.508	-135.856	0.340	-0.040
-350.493	-200.000	-0.069	0.344
-349.479	24.817	-0.099	-0.081
-348.464	296.067	-0.126	-0.228
-347.450	800.000	-0.035	-0.141
-346.435	-4.640	0.369	-0.252
-345.420	-100.450	-0.071	0.017
-344.406	144.348	0.113	0.149
-343.391	-116.533	0.060	0.011
-342.377	-104.589	-0.314	-0.072
-341.362	137.264	0.167	0.216
-340.348	-133.681	0.190	-0.023
-339.333	-200.000	-0.054	-0.266
-338.318	800.000	-0.049	0.173
-337.304	718.542	0.057	-0.151
-336.289	301.949	0.073	-0.133
-335.275	144.427	0.087	-0.115
-334.260	-200.000	0.001	-0.073
-333.245	-40.856	-0.058	-0.030
-332.231	-125.996	-0.126	0.019
-331.216	800.000	-0.089	-0.306
-330.202	-51.701	0.071	0.033
-329.187	-108.031	-0.027	-0.006
-328.172	-200.000	0.027	-0.164
-327.158	381.866	-0.060	-0.122
-326.143	-70.458	0.137	-0.051
-325.129	416.151	0.084	-0.177
-324.114	90.371	0.193	0.214
-323.099	-91.463	-0.201	0.057
-322.085	73.269	-0.195	-0.202
-321.070	-45.908	0.093	-0.045
-320.056	-75.348	-0.471	-0.166
-319.041	-138.616	0.156	0.017
-318.026	-200.000	0.039	0.305
-317.012	-141.678	0.199	-0.020
-315.997	106.319	-0.190	0.222
-314.983	29.491	-0.315	-0.264
-313.968	-200.000	0.008	-0.308
-312.953	-200.000	-0.003	-0.432
-311.939	-200.000	0.021	-0.312
-310.924	231.633	-0.011	0.017
-309.910	204.244	0.111	0.170
-308.895	-100.170	0.309	0.076
-307.880	247.463	0.111	0.184
-306.866	4.198	0.338	-0.244
-305.851	194.187	-0.032	-0.047
-304.837	1.130	0.164	-0.116
-303.822	155.376	-0.059	0.080
-302.807	54.170	0.103	-0.098
-301.793	52.288	-0.140	0.131
-300.778	-117.463	-0.193	0.034
-299.764	-200.000	-0.007	0.049
-298.749	-77.419	0.221	0.076
-297.735	-200.000	0.025	-0.148
-296.720	-142.565	0.293	0.028
-295.705	-200.000	-0.009	0.146
-294.691	-200.000	-0.010	0.233
-293.676	105.047	0.079	0.092
-292.662	800.000	0.027	-0.095
-291.647	428.055	0.050	0.106
-290.632	-102.100	0.159	-0.038
-289.618	80.781	-0.169	0.180
-288.603	800.000	0.082	0.312
-287.589	-110.611	0.384	-0.078
-286.574	-200.000	-0.043	0.274
-285.559	-83.326	0.170	-0.054
-284.545	213.091	-0.065	-0.101
-283.530	-19.676	0.104	-0.063
-282.516	106.830	-0.222	-0.260
-281.501	235.320	0.170	-0.276
-280.486	185.414	-0.032	-0.047
-279.472	62.303	0.140	0.137
-278.457	800.000	-0.081	0.236
-277.443	149.145	-0.226	-0.301
-276.428	-189.202	0.275	0.003
-275.413	-112.402	0.259	0.051
-274.399	3.955	0.155	0.112
-273.384	-62.724	-0.369	-0.151
-272.370	-105.600	0.357	-0.080
-271.355	-130.950	-0.181	-0.024
-270.340	800.000	0.060	-0.218
-269.326	800.000	-0.084	-0.237
-268.311	423.035	0.295	0.626
-267.297	-200.000	0.014	-0.109
-266.282	-149.214	-0.159	0.013
-265.267	-86.504	0.054	0.016
-264.253	515.594	-0.067	0.155
-263.238	-200.000	-0.006	0.232
-262.224	185.156	-0.038	-0.056
-261.209	800.000	-0.027	0.107
-260.195	-121.688	0.148	-0.024
-259.180	-64.506	0.185	0.074
-258.165	-53.214	0.373	0.169
-257.151	194.484	0.079	-0.118
-256.136	-200.000	-0.029	-0.202
-255.122	800.000	-0.064	0.200
-254.107	-200.000	-0.003	0.186
-253.092	-200.000	-0.060	0.527
-252.078	303.549	-0.048	-0.087
-251.063	-41.880	-0.070	-0.035
-250.049	222.571	-0.178	-0.282
-249.034	57.234	-0.234	-0.225
-248.019	-200.000	-0.012	-0.126
-247.005	-20.288	-0.135	-0.082
-245.990	-200.000	-0.115	-0.501
-244.976	91.712	-0.194	-0.215
-243.961	55.461	0.279	-0.266
-242.946	45.518	-0.251	0.228
-241.932	-136.049	-0.155	0.018
-240.917	-134.262	-0.420	-0.051
-239.903	20.856	-0.142	0.113
-238.888	133.379	0.097	-0.124
-237.873	221.851	-0.055	0.087
-236.859	-101.857	0.158	0.038
-235.844	623.235	0.084	-0.208
-234.830	-195.012	-0.158	0.001
-233.815	-158.370	0.259	0.015
-232.800	-40.154	0.054	0.028
-231.786	-200.000	0.129	0.820
-230.771	-161.452	-0.120	-0.006
-229.757	-200.000	0.001	0.070
-228.742	-200.000	-0.015	0.070
-227.727	-200.000	0.073	0.358
-226.713	716.031	-0.035	0.092
-225.698	-83.121	-0.204	-0.065
-224.684	-200.000	0.043	-0.631
-223.669	-200.000	0.014	-0.393
-222.655	-149.876	-0.042	0.003
-221.640	-7.369	0.115	0.076
-220.625	-67.096	-0.165	0.064
-219.611	-92.269	0.226	-0.063
-218.596	-148.248	-0.088	-0.007
-217.582	-200.000	-0.003	-0.125
-216.567	-178.147	0.179	0.004
-215.552	800.000	-0.096	-0.330
-214.538	-100.946	-0.353	-0.085
-213.523	800.000	0.082	-0.230
-212.509	-62.498	0.216	-0.088
-211.494	183.308	-0.118	0.172
-210.479	-200.000	-0.006	0.119
-209.465	800.000	-0.189	0.546
-208.450	800.000	0.187	0.551
-207.436	-70.006	-0.026	0.010
-206.421	-160.695	-0.196	-0.010
-205.406	800.000	0.048	0.155
-204.392	-43.156	0.032	-0.016
-203.377	-53.981	-0.148	0.066
-202.363	693.592	0.108	0.279
-201.348	-200.000	0.055	-0.236
-200.333	248.388	0.186	-0.309
-199.319	58.773	-0.189	-0.183
-198.304	8.642	0.263	-0.195
-197.290	177.688	-0.080	0.115
-196.275	336.749	-0.128	0.244
-195.260	-146.431	0.108	-0.009
-194.246	-120.009	-0.216	0.036
-193.231	709.431	0.061	-0.158
-192.217	-22.324	0.190	-0.113
-191.202	-38.701	0.220	-0.114
-190.187	-200.000	0.014	0.081
-189.173	-42.357	-0.180	0.090
-188.158	304.471	-0.127	-0.231
-187.144	458.124	-0.119	-0.260
-186.129	-44.996	0.292	0.143
-185.114	-200.000	-0.000	0.061
-184.100	-171.375	0.212	-0.007
-183.085	-122.112	-0.189	0.031
-182.071	-61.664	0.139	-0.057
-181.056	800.000	0.063	0.184
-180.042	34.917	-0.202	-0.174
-179.027	-200.000	-0.039	0.221
-178.012	-8.301	0.366	0.242
-176.998	541.575	0.068	0.159
-175.983	-4.181	-0.234	0.159
-174.969	-200.000	0.019	0.102
-173.954	-4.272	-0.220	0.149
-172.939	328.711	0.114	-0.216
-171.925	133.139	0.138	-0.175
-170.910	-2.733	-0.327	0.224
-169.896	-39.923	0.155	-0.080
-168.881	-83.504	-0.147	-0.046
-167.866	-200.000	0.039	0.280
-166.852	-158.068	0.112	0.006
-165.837	-135.256	-0.165	0.019
-164.823	-200.000	0.023	-0.173
-163.808	-200.000	-0.073	0.365
-162.793	418.311	0.057	0.120
-161.779	-169.890	-0.333	0.012
-160.764	-166.714	0.178	0.007
-159.750	-8.539	0.287	0.189
-158.735	-200.000	0.002	-0.129
-157.720	-52.207	-0.058	-0.027
-156.706	800.000	-0.072	0.237
-155.691	-17.165	-0.241	-0.149
-154.677	-61.289	0.065	-0.027
-153.662	83.052	0.123	0.132
-152.647	-63.967	-0.539	0.216
-151.633	123.416	-0.244	0.300
-150.618	-63.890	-0.196	0.079
-149.604	-34.755	0.062	-0.033
-148.589	-111.678	0.216	-0.043
-147.574	800.000	0.038	-0.147
-146.560	800.000	-0.047	0.131
-145.545	447.374	-0.016	-0.035
-144.531	748.572	-0.035	0.092
-143.516	-128.437	0.124	0.017
-142.502	337.055	-0.050	0.095
-141.487	-161.931	-0.284	-0.014
-140.472	101.664	-0.051	-0.059
-139.458	-200.000	-0.019	0.467
-138.443	-13.600	0.251	-0.159
-137.429	45.300	-0.021	0.019
-136.414	317.056	0.034	-0.063
-135.399	-99.361	0.319	-0.079
-134.385	800.000	-0.124	0.530
-133.370	318.778	0.136	-0.253
-132.356	800.000	-0.081	-0.310
-131.341	-156.127	0.448	-0.028
-130.326	149.179	-0.177	-0.235
-129.312	237.580	-0.191	0.311
-128.297	7.576	-0.095	0.069
-127.283	-153.287	0.141	-0.010
-126.268	104.577	-0.094	0.109
-125.253	46.976	-0.123	0.112
-124.239	-124.458	0.106	-0.016
-123.224	4.648	-0.104	-0.075
-122.210	-94.392	0.278	-0.074
-121.195	-200.000	0.005	-0.311
-120.180	-200.000	-0.005	-0.323
-119.166	800.000	-0.056	-0.191
-118.151	-200.000	-0.037	0.396
-117.137	177.538	-0.052	0.074
-116.122	153.830	-0.058	0.077
-115.107	-200.000	-0.007	-0.097
-114.093	-52.975	-0.320	-0.144
-113.078	-200.000	-0.067	0.417
-112.064	-200.000	-0.001	-0.185
-111.049	78.286	-0.099	-0.104
-110.034	28.542	0.219	0.181
-109.020	-200.000	-0.009	0.104
-108.005	-200.000	-0.056	0.335
-106.991	98.412	-0.030	0.034
-105.976	-200.000	-0.046	-0.241
-104.962	247.931	0.155	0.257
-103.947	-200.000	0.007	0.143
-102.932	257.330	0.027	0.045
-101.918	-28.694	0.136	-0.076
-100.903	-143.128	0.272	-0.026
-99.889	-51.475	0.083	-0.038
-98.874	371.405	-0.141	-0.280
-97.859	373.669	-0.051	0.102
-96.845	32.772	0.102	0.086
-95.830	-14.444	0.227	-0.143
-94.816	54.661	0.148	-0.140
-93.801	-43.614	-0.243	0.120
-92.786	48.599	-0.087	0.080
-91.772	-42.753	-0.035	-0.018
-90.757	9.584	-0.276	-0.205
-89.743	-126.566	-0.273	0.040
-88.728	12.175	0.194	0.146
-87.713	292.102	0.134	0.238
-86.699	63.822	-0.245	-0.241
-85.684	-166.420	-0.030	-0.001
-84.670	-111.119	-0.210	0.042
-83.655	105.617	-0.116	-0.134
-82.640	-67.876	0.306	0.117
-81.626	4.225	-0.182	-0.130
-80.611	262.592	-0.047	-0.080
-79.597	-153.282	-0.065	0.004
-78.582	-47.128	-0.088	0.042
-77.567	800.000	-0.014	-0.044
-76.553	-200.000	0.077	-0.381
-75.538	498.562	0.075	0.169
-74.524	-92.178	-0.295	0.082
-73.509	16.589	0.306	-0.237
-72.494	-104.994	-0.121	0.027
-71.480	-170.907	-0.083	0.003
-70.465	52.343	0.188	0.175
-69.451	65.244	-0.161	0.159
-68.436	-52.265	0.254	-0.115
-67.422	-16.348	-0.292	-0.181
-66.407	-151.591	-0.480	0.035
-65.392	-52.707	0.176	-0.079
-64.378	-104.637	0.234	0.053
-63.363	-200.000	-0.046	0.208
-62.349	-200.000	0.046	-0.315
-61.334	67.005	-0.898	-0.894
-60.319	-10.558	0.850	0.551
-59.305	556.903	-0.405	-0.955
-58.290	643.918	0.517	1.288
-57.276	165.922	0.998	1.380
-56.261	-200.000	119.082	642.566
-55.246	472.493	1562.073	3439.106
-54.232	173.388	2726.084	3843.021
-53.217	104.427	2154.725	2479.496
-52.203	37.669	1586.735	1376.801
-51.188	29.482	1330.499	1105.622
-50.173	26.535	1292.259	1056.624
-49.159	51.892	1352.419	1258.244
-48.144	50.597	1365.189	1262.343
-47.130	29.337	1318.677	1094.760
-46.115	26.060	1300.575	1060.465
-45.100	25.801	1295.698	1054.929
-44.086	25.806	1293.234	1052.914
-43.071	25.830	1291.025	1051.211
-42.057	25.817	1288.598	1049.114
-41.042	25.778	1287.838	1048.228
-40.027	25.847	1285.804	1046.935
-39.013	25.885	1283.441	1045.190
-37.998	25.834	1282.028	1043.702
-36.984	25.870	1279.917	1042.148
-35.969	25.952	1278.509	1041.437
-34.954	26.072	1276.125	1040.145
-33.940	25.927	1275.559	1038.803
-32.925	26.100	1273.415	1038.013
-31.911	26.085	1272.230	1036.918
-30.896	26.102	1270.675	1035.712
-29.881	26.182	1269.247	1034.966
-28.867	26.220	1268.057	1034.168
-27.852	26.045	1266.769	1032.079
-26.838	26.119	1265.462	1031.392
-25.823	26.128	1264.124	1030.313
-24.809	26.020	1263.023	1028.757
-23.794	26.094	1261.570	1027.955
-22.779	26.080	1260.184	1026.708
-21.765	26.156	1259.018	1026.148
-20.750	26.077	1257.579	1024.484
-19.736	25.976	1256.331	1022.855
-18.721	25.939	1254.748	1021.318
-17.706	25.919	1254.259	1020.763
-16.692	25.983	1252.844	1019.934
-15.677	26.065	1251.513	1019.272
-14.663	25.983	1250.450	1017.907
-13.648	26.026	1249.497	1017.334
-12.633	26.000	1248.376	1016.231
-11.619	25.928	1247.752	1015.277
-10.604	25.954	1246.805	1014.615
-9.590	25.826	1246.287	1013.429
-8.575	25.829	1245.262	1012.574
-7.560	25.958	1244.095	1012.312
-6.546	25.944	1243.617	1011.804
-5.531	25.956	1242.641	1011.038
-4.517	26.004	1241.337	1010.201
-3.502	25.875	1241.033	1009.196
-2.487	25.974	1239.766	1008.679
-1.473	25.863	1235.750	1004.751
-0.458	24.439	1220.655	984.586
0.556	22.647	1204.368	948.227
1.571	18.952	1210.294	932.805
2.586	18.104	1225.463	939.749
3.600	17.907	1213.652	929.536
4.615	13.915	1142.484	854.455
5.629	7.121	1071.681	768.544
6.644	4.404	1054.402	743.094
7.659	4.119	1052.443	740.282
8.673	3.951	1051.158	738.514
9.688	4.017	1049.589	737.660
10.702	4.296	1047.450	737.417
11.717	8.541	1053.581	761.932
12.731	16.185	1064.214	806.213
13.746	21.138	1069.875	834.166
14.761	22.089	1071.245	839.708
15.775	21.428	1069.458	835.074
16.790	20.459	1067.674	828.986
17.804	19.872	1065.731	824.608
18.819	19.492	1065.382	822.457
19.834	19.378	1064.655	821.277
20.848	19.576	1063.680	821.394
21.863	19.455	1062.909	820.151
22.877	19.077	1062.377	817.874
23.892	19.113	1061.654	817.416
24.907	19.075	1060.985	816.646
25.921	19.046	1059.839	815.556
26.936	19.041	1058.509	814.437
27.950	19.082	1057.172	813.528
28.965	19.091	1056.008	812.604
29.980	19.306	1054.700	812.542
30.994	19.542	1053.465	812.630
32.009	19.606	1052.497	812.110
33.023	19.416	1051.867	810.660
34.038	19.363	1050.186	809.041
35.053	19.040	1050.050	807.351
36.067	19.238	1048.797	807.246
37.082	19.223	1048.520	806.892
38.096	19.311	1048.041	806.860
39.111	19.445	1046.590	806.302
40.126	19.230	1045.075	804.058
41.140	18.888	1043.727	801.353
42.155	18.786	1042.559	799.914
43.169	18.598	1041.742	798.340
44.184	18.693	1040.524	797.779
45.199	18.654	1039.693	796.888
46.213	18.933	1038.625	797.294
47.228	19.135	1038.151	797.794
48.242	19.215	1036.968	797.184
49.257	19.198	1036.376	796.583
50.271	19.342	1035.290	796.342
51.286	19.275	1035.060	795.785
52.301	19.174	1034.070	794.486
53.315	18.976	1032.898	792.603
54.330	18.889	1031.819	791.306
55.344	19.035	1030.552	790.934
56.359	18.875	1030.151	789.823
57.374	18.917	1028.703	788.835
58.388	18.890	1027.797	787.947
59.403	18.764	1026.845	786.568
60.417	18.575	1026.790	785.591
61.432	18.657	1026.189	785.438
62.447	18.604	1024.809	784.071
63.461	18.582	1024.329	783.535
64.476	18.554	1023.101	782.396
65.490	18.559	1022.123	781.602
66.505	18.501	1021.877	781.082
67.520	18.603	1021.243	780.993
68.534	18.558	1020.408	780.081
69.549	18.483	1019.968	779.335
70.563	18.353	1018.823	777.798
71.578	18.262	1018.044	776.720
72.593	18.196	1017.159	775.681
73.607	18.224	1016.406	775.162
74.622	18.228	1015.629	774.520
75.636	18.354	1015.127	774.638
76.651	18.309	1014.844	774.151
77.666	18.402	1014.092	773.927
78.680	18.435	1012.994	773.172
79.695	18.381	1012.914	772.799
80.709	18.575	1012.392	773.205
81.724	18.928	1011.198	773.817
82.739	18.918	1010.820	773.413
83.753	19.195	1010.551	774.383
84.768	19.509	1009.944	775.260
85.782	19.634	1009.060	775.075
86.797	19.391	1008.168	773.228
87.812	19.125	1007.401	771.381
88.826	19.400	1005.793	771.312
89.841	19.407	1005.328	770.919
90.855	19.637	1004.465	771.217
91.870	19.513	1003.454	769.821
92.884	19.353	1003.186	768.831
93.899	19.386	1002.299	768.231
94.914	19.621	1001.204	768.368
95.928	19.535	1000.555	767.422
96.943	19.338	999.612	765.757
97.957	19.373	998.467	764.965
98.972	19.427	997.507	764.402
99.987	19.444	997.007	764.027
101.001	19.425	995.685	762.859
102.016	19.377	995.178	762.194
103.030	19.432	993.939	761.421
104.045	19.377	993.668	760.903
105.060	19.136	992.547	758.912
106.074	18.978	991.182	757.106
107.089	18.812	989.672	755.156
108.103	18.652	989.365	754.155
109.118	18.593	988.244	752.973
110.133	18.628	986.859	752.006
111.147	18.462	986.796	751.165
112.162	18.685	985.722	751.256
113.176	18.747	985.470	751.268
114.191	18.772	984.790	750.791
115.206	18.788	983.727	749.986
116.220	18.723	983.078	749.142
117.235	18.709	982.223	748.360
118.249	18.633	981.584	747.479
119.264	18.520	980.839	746.352
120.279	18.475	979.764	745.271
121.293	18.483	978.720	744.448
122.308	18.436	977.905	743.559
123.322	18.450	976.525	742.502
124.337	18.224	975.811	740.915
125.352	18.365	974.623	740.558
126.366	18.411	973.717	740.003
127.381	18.414	972.807	739.258
128.395	18.335	972.203	738.395
129.410	18.553	971.239	738.535
130.424	18.523	970.646	737.890
131.439	18.541	970.131	737.509
132.454	18.771	969.250	737.763
133.468	18.729	968.850	737.211
134.483	18.860	967.843	736.942
135.497	18.693	967.044	735.557
136.512	18.744	966.374	735.199
137.527	18.838	965.572	734.924
138.541	18.925	964.722	734.585
139.556	18.886	964.200	733.957
140.570	19.068	963.735	734.314
141.585	19.200	963.015	734.262
142.600	19.244	961.853	733.498
143.614	19.552	961.310	734.331
144.629	19.522	960.640	733.627
145.643	19.315	959.684	731.951
146.658	19.080	958.644	730.097
147.673	19.011	957.426	728.812
148.687	18.778	956.470	727.036
149.702	19.000	955.302	727.022
150.716	18.705	955.045	725.516
151.731	18.785	954.521	725.389
152.746	18.970	953.321	725.194
153.760	19.092	952.774	725.228
154.775	19.226	951.874	725.044
155.789	19.095	951.788	724.364
156.804	19.182	950.774	723.893
157.819	19.318	950.131	723.911
158.833	19.626	949.321	724.520
159.848	19.576	948.962	723.973
160.862	19.248	948.232	721.978
161.877	19.010	946.525	719.619
162.892	18.882	945.642	718.348
163.906	18.841	944.301	717.094
164.921	18.885	943.852	716.876
165.935	19.005	942.489	716.277
166.950	18.961	942.421	715.979
167.964	18.977	941.281	715.113
168.979	18.871	940.284	713.853
169.994	19.022	939.270	713.645
171.008	19.050	938.929	713.440
172.023	19.264	938.311	713.797
173.037	19.424	937.721	713.944
174.052	19.349	936.599	712.716
175.067	18.926	935.968	710.428
176.081	18.779	935.235	709.201
177.096	18.737	934.800	708.635
178.110	18.995	934.039	709.056
179.125	18.995	933.610	708.671
180.140	18.979	933.390	708.373
181.154	19.193	933.119	708.988
182.169	19.464	932.267	709.390
183.183	19.415	932.079	708.984
184.198	19.320	930.822	707.576
185.213	19.436	930.229	707.539
186.227	19.422	929.666	706.989
187.242	19.509	929.472	707.137
188.256	19.598	928.513	706.709
189.271	19.692	927.479	706.245
190.286	19.237	926.864	703.852
191.300	18.774	925.716	701.032
192.315	18.783	924.623	700.176
193.329	18.840	924.584	700.318
194.344	19.056	923.865	700.591
195.359	19.174	923.238	700.532
196.373	19.295	922.690	700.548
197.388	19.344	922.752	700.731
198.402	19.697	922.353	701.801
199.417	19.917	921.329	701.850
200.432	19.903	921.225	701.652
201.446	19.939	921.340	701.823
202.461	20.026	920.471	701.453
203.475	19.789	919.870	699.972
204.490	19.625	918.627	698.302
205.504	19.531	917.790	697.223
206.519	19.422	917.156	696.243
207.534	19.287	916.627	695.236
208.548	19.480	915.923	695.416
209.563	19.351	915.492	694.507
210.577	19.686	914.342	694.920
211.592	19.902	913.757	695.283
212.607	20.052	912.836	695.124
213.621	19.791	912.711	693.919
214.636	19.945	911.468	693.528
215.650	19.857	910.926	692.705
216.665	19.883	910.620	692.513
217.680	19.885	910.368	692.269
218.694	19.967	909.537	691.903
219.709	19.779	908.945	690.641
220.723	19.818	908.113	690.103
221.738	19.942	907.652	690.185
222.753	19.919	906.709	689.317
223.767	20.006	906.509	689.448
224.782	20.160	905.795	689.459
225.796	20.087	905.579	688.941
226.811	20.160	904.457	688.319
227.826	19.737	903.861	686.125
228.840	19.743	903.045	685.470
229.855	19.716	902.362	684.781
230.869	19.836	901.301	684.393
231.884	19.731	900.905	683.614
232.899	19.623	900.356	682.713
233.913	19.535	899.088	681.342
234.928	19.499	898.639	680.799
235.942	19.572	897.658	680.283
236.957	19.677	896.962	680.109
237.972	19.549	897.071	679.628
238.986	19.552	895.841	678.648
240.001	19.507	895.461	678.123
241.015	19.740	894.975	678.608
242.030	19.765	894.538	678.316
243.045	19.779	894.154	678.019
244.059	19.916	893.455	677.965
245.074	19.864	892.654	677.097
246.088	19.949	892.458	677.220
247.103	20.152	891.837	677.483
248.117	20.219	891.684	677.569
249.132	20.500	891.591	678.535
250.147	20.738	890.993	678.947
251.161	20.756	890.232	678.376
252.176	20.834	889.627	678.161
253.190	20.935	889.134	678.118
254.205	20.964	888.944	678.026
255.220	20.825	888.216	676.870
256.234	20.895	887.002	676.157
257.249	20.877	886.055	675.305
258.263	20.790	885.391	674.404
259.278	20.724	885.169	673.919
260.293	20.774	885.037	673.953
261.307	20.948	884.319	674.017
262.322	20.959	883.221	673.163
263.336	20.939	882.749	672.668
264.351	21.059	881.619	672.209
265.366	21.041	881.004	671.610
266.380	20.906	881.078	671.089
267.395	20.892	879.888	670.070
268.409	20.782	879.041	668.944
269.424	20.741	878.325	668.182
270.439	20.715	877.482	667.381
271.453	20.650	876.822	666.572
272.468	20.655	876.357	666.179
273.482	20.555	876.114	665.551
274.497	20.643	875.250	665.172
275.512	20.636	874.423	664.456
276.526	20.716	874.226	664.554
277.541	20.712	873.710	664.088
278.555	20.791	873.599	664.247
279.570	21.134	872.663	664.782
280.585	21.267	871.764	664.545
281.599	20.824	871.113	662.307
282.614	20.862	870.181	661.682
283.628	20.802	870.003	661.261
284.643	20.796	869.490	660.788
285.657	20.704	868.507	659.636
286.672	20.803	867.845	659.451
287.687	20.841	867.411	659.205
288.701	20.770	866.870	658.469
289.716	20.963	866.418	658.797
290.730	20.900	865.465	657.776
291.745	20.957	865.097	657.651
292.760	20.873	865.213	657.366
293.774	21.145	864.713	657.951
294.789	21.096	863.586	656.853
295.803	20.946	862.499	655.402
296.818	20.779	861.601	654.035
297.833	20.860	861.302	654.054
298.847	20.797	860.834	653.404
299.862	20.880	860.143	653.133
300.876	21.078	860.150	653.824
301.891	21.203	859.322	653.607
302.906	21.311	858.829	653.577
303.920	21.555	858.511	654.187
304.935	21.548	857.755	653.528
305.949	21.220	857.349	651.936
306.964	21.166	856.675	651.164
307.979	21.083	856.130	650.385
308.993	21.348	855.708	650.994
310.008	21.372	854.884	650.397
311.022	21.114	854.538	649.119
312.037	21.064	853.394	648.005
313.052	20.864	852.819	646.767
314.066	20.881	852.049	646.189
315.081	20.910	851.556	645.866
316.095	20.947	850.640	645.253
317.110	20.865	850.473	644.765
318.125	20.823	850.278	644.405
319.139	20.701	849.825	643.555
320.154	20.840	849.258	643.581
321.168	20.769	848.892	642.982
322.183	21.041	847.815	643.114
323.197	21.081	847.662	643.090
324.212	20.948	846.984	642.026
325.227	20.885	846.579	641.430
326.241	20.967	845.679	640.993
327.256	20.992	844.966	640.489
328.270	21.040	844.378	640.163
329.285	20.926	843.557	639.067
330.300	21.033	842.896	638.900
331.314	20.890	843.025	638.417
332.329	21.140	842.630	638.977
333.343	21.139	842.582	638.880
334.358	21.328	841.753	638.888
335.373	21.347	841.333	638.582
336.387	21.459	841.286	638.899
337.402	21.440	841.381	638.844
338.416	21.635	840.918	639.149
339.431	21.855	840.215	639.358
340.446	21.682	840.400	638.813
341.460	21.849	839.934	639.010
342.475	21.808	839.409	638.406
343.489	21.851	839.215	638.357
344.504	22.039	838.607	638.522
345.519	22.092	838.028	638.219
346.533	22.016	837.253	637.294
347.548	21.759	836.659	635.853
348.562	21.476	835.733	634.069
349.577	21.468	834.974	633.408
350.592	21.524	834.021	632.831
351.606	21.410	833.756	632.164
352.621	21.269	833.268	631.225
353.635	21.565	832.451	631.619
354.650	21.519	831.828	630.925
355.665	21.573	831.238	630.616
356.679	21.657	830.946	630.644
357.694	21.583	830.401	629.907
358.708	21.720	829.502	629.661
359.723	21.510	829.133	628.571
360.738	21.603	828.533	628.396
361.752	21.746	828.103	628.526
362.767	21.929	827.415	628.604
363.781	22.085	827.225	628.961
364.796	22.140	826.861	628.828
365.810	22.302	826.679	629.212
366.825	22.312	825.960	628.643
367.840	22.341	825.445	628.299
368.854	22.142	824.596	626.889
369.869	22.023	824.239	626.138
370.883	21.904	824.120	625.568
371.898	22.181	823.839	626.285
372.913	22.331	823.079	626.185
373.927	22.381	822.121	625.580
374.942	22.091	822.310	624.636
375.956	22.359	822.193	625.444
376.971	22.470	821.598	625.334
377.986	22.733	820.736	625.553
379.000	22.561	820.616	624.796
380.015	22.523	819.957	624.106
381.029	22.518	819.259	623.502
382.044	22.571	818.455	623.022
383.059	22.536	818.032	622.521
384.073	22.443	817.347	621.616
385.088	22.076	816.796	619.848
386.102	22.265	815.971	619.834
387.117	21.892	815.995	618.479
388.132	22.027	814.923	618.088
389.146	22.258	814.100	618.224
390.161	22.504	813.806	618.808
391.175	22.472	813.478	618.393
392.190	22.131	813.668	617.284
393.205	22.040	812.547	616.062
394.219	22.031	812.134	615.662
395.234	21.949	811.710	614.997
396.248	21.865	810.943	614.066
397.263	21.778	810.714	613.537
398.278	21.967	809.729	613.398
399.292	21.916	809.584	613.055
400.307	21.845	809.263	612.509
401.321	21.845	809.090	612.323
402.336	21.959	808.802	612.450
403.350	22.192	808.092	612.670
404.365	22.506	807.899	613.562
405.380	22.527	807.557	613.321
406.394	22.422	807.197	612.629
407.409	22.630	806.837	613.026
408.423	22.767	806.602	613.269
409.438	22.832	806.003	612.984
410.453	22.846	805.441	612.551
411.467	22.853	804.954	612.150
412.482	22.848	804.948	612.075
413.496	22.963	804.784	612.295
414.511	23.014	804.082	611.883
415.526	22.960	803.359	611.092
416.540	22.873	802.947	610.423
417.555	22.893	802.710	610.260
418.569	22.922	802.187	609.906
419.584	22.883	801.569	609.250
420.599	22.948	801.441	609.321
421.613	165.575	1371.846	1798.252
422.628	143.932	1454.944	1798.309
