DTS Sentinel unit serial number:	SN413079Multiplexer serial number:	ORYXHardware model number:	OX4-SRSoftware version number:	ORYX F/W v4.00 Oryx Data Collector v3.7.2.0data status	okinstallation	princeton_trtdifferential loss correction	single-endedforward channel	channel 1reverse channel	N/Adate	2019/09/12time	18:00:34forward acquisition time	15.00reverse acquisition time	0.00gamma	496.2192k internal	0.2319k external	0.2319temperature offset calibration	1.0097default loss term (dB/km)	0.3790temperature slope calibration	1.0000multiplexer offset coefficient	1.0000multiplexer slope coefficient	1.0000fibre end	0.00T internal ref (°C)	33.81T ext. ref 1 (°C)	2.89T ext. ref 2 (°C)	28.26length (m)	temperature (°C)	Stokes	anti-Stokes-747.200	1.508	-0.629	0.458
-746.185	-54.755	-0.715	-0.327
-745.171	267.818	0.413	0.732
-744.156	-49.830	-0.935	-0.449
-743.142	-71.888	0.444	0.167
-742.127	369.497	0.258	-0.529
-741.112	-200.000	-0.143	-1.148
-740.098	107.563	0.551	0.663
-739.083	-97.719	0.545	-0.143
-738.069	-22.638	0.482	0.294
-737.054	119.707	0.350	0.439
-736.039	-49.217	0.607	-0.293
-735.025	-112.362	0.295	-0.060
-734.010	145.998	0.084	0.114
-732.996	-200.000	0.050	0.245
-731.981	-115.402	-0.417	-0.080
-730.966	-90.363	-0.324	0.095
-729.952	88.368	0.725	-0.814
-728.937	-200.000	-0.215	1.247
-727.923	-137.118	-0.335	-0.039
-726.908	-200.000	0.101	-0.472
-725.894	190.003	0.041	0.062
-724.879	-200.000	0.131	0.817
-723.864	-53.016	-0.763	-0.355
-722.850	18.974	0.317	0.257
-721.835	800.000	0.099	-0.326
-720.821	-81.144	0.966	0.323
-719.806	4.273	0.165	-0.122
-718.791	96.531	0.384	-0.444
-717.777	-58.830	0.291	-0.127
-716.762	-94.294	-0.507	0.140
-715.748	-65.200	0.395	-0.161
-714.733	-83.397	-0.323	-0.105
-713.718	-200.000	0.027	0.122
-712.704	115.088	0.261	0.322
-711.689	291.365	0.594	1.092
-710.675	49.411	-0.339	-0.322
-709.660	-200.000	0.001	-0.054
-708.645	800.000	-0.102	0.408
-707.631	-112.350	-0.465	-0.094
-706.616	79.185	-0.656	-0.710
-705.602	800.000	-0.079	-0.330
-704.587	24.558	-0.561	-0.469
-703.572	441.597	-0.043	0.096
-702.558	-82.490	0.643	-0.211
-701.543	-50.184	0.078	-0.037
-700.529	-200.000	-0.067	-0.556
-699.514	-67.383	0.128	-0.051
-698.499	-164.712	-1.062	-0.048
-697.485	45.625	0.324	0.302
-696.470	-149.768	-0.556	-0.044
-695.456	135.047	-0.495	-0.650
-694.441	275.052	0.570	-1.020
-693.426	25.006	0.406	-0.340
-692.412	-90.006	-0.163	-0.048
-691.397	-13.055	-0.714	0.469
-690.383	26.133	0.079	-0.067
-689.368	448.926	-0.208	-0.463
-688.354	-133.132	-0.517	0.066
-687.339	225.106	0.370	-0.604
-686.324	-31.607	0.777	0.440
-685.310	-26.860	-1.043	0.615
-684.295	-200.000	0.626	-0.001
-683.281	148.877	-0.022	-0.030
-682.266	-53.107	-0.993	0.461
-681.251	-200.000	-0.055	0.402
-680.237	57.333	-0.712	-0.702
-679.222	447.957	-0.134	-0.297
-678.208	-200.000	0.176	-0.857
-677.193	-116.180	0.515	0.096
-676.178	800.000	-0.160	-0.461
-675.164	800.000	-0.207	-0.644
-674.149	71.648	-0.322	0.338
-673.135	165.426	0.207	-0.296
-672.120	-154.500	0.592	-0.040
-671.105	-200.000	-0.001	-0.255
-670.091	-39.110	-0.493	0.262
-669.076	-106.539	0.783	-0.176
-668.062	-200.000	0.087	-0.561
-667.047	-123.348	0.807	0.130
-666.032	-62.243	-0.275	-0.116
-665.018	-45.424	0.440	-0.220
-664.003	379.740	-0.130	-0.270
-662.989	800.000	-0.270	0.825
-661.974	-84.131	-0.313	0.100
-660.959	111.584	0.063	-0.076
-659.945	-32.858	-0.269	0.151
-658.930	66.813	0.449	0.461
-657.916	493.699	-0.339	0.785
-656.901	-200.000	-0.009	0.285
-655.886	800.000	0.185	-0.749
-654.872	-200.000	-0.011	0.967
-653.857	140.322	-0.402	-0.534
-652.843	-52.924	-0.263	-0.122
-651.828	800.000	0.093	0.365
-650.814	91.492	0.501	-0.567
-649.799	157.395	0.184	0.257
-648.784	327.869	-0.205	0.396
-647.770	-143.126	-0.507	0.049
-646.755	163.890	-0.226	-0.321
-645.741	-125.592	-0.390	-0.060
-644.726	598.083	-0.356	0.889
-643.711	259.689	0.279	-0.485
-642.697	800.000	-0.267	-0.942
-641.682	-134.353	0.417	-0.052
-640.668	107.849	0.419	-0.503
-639.653	-10.477	-0.324	0.217
-638.638	-73.168	-0.289	0.107
-637.624	-132.692	-0.502	0.065
-636.609	-119.685	0.774	-0.135
-635.595	193.164	0.216	-0.329
-634.580	250.562	0.426	-0.729
-633.565	800.000	0.270	-0.873
-632.551	-73.118	-0.321	0.118
-631.536	171.921	0.278	0.402
-630.522	4.039	0.420	-0.309
-629.507	-120.683	0.343	-0.058
-628.492	11.775	-0.280	0.217
-627.478	-200.000	-0.077	-0.705
-626.463	-20.559	0.332	0.205
-625.449	-55.493	-0.359	0.162
-624.434	-200.000	-0.017	0.521
-623.419	-78.581	-0.599	0.206
-622.405	-200.000	-0.101	0.657
-621.390	109.258	0.299	0.361
-620.376	-200.000	0.061	0.484
-619.361	476.438	-0.202	-0.459
-618.346	-200.000	-0.124	0.619
-617.332	91.371	0.066	0.074
-616.317	-200.000	0.017	0.256
-615.303	-44.985	-0.201	0.101
-614.288	-97.537	-0.515	0.135
-613.273	-121.642	0.432	-0.072
-612.259	-10.885	-0.669	0.445
-611.244	144.378	-0.030	-0.040
-610.230	183.935	-0.223	-0.332
-609.215	-182.092	0.245	-0.005
-608.201	-93.906	-0.725	-0.201
-607.186	-200.000	-0.062	-0.412
-606.171	52.670	-0.530	0.510
-605.157	-200.000	0.051	-0.570
-604.142	1.944	-0.497	-0.361
-603.128	51.613	0.701	-0.671
-602.113	-56.211	0.217	-0.097
-601.098	-34.414	-0.650	0.358
-600.084	-200.000	-0.128	0.683
-599.069	69.465	-0.134	0.139
-598.055	-66.932	-0.556	0.221
-597.040	-21.703	0.352	-0.215
-596.025	173.120	0.103	-0.149
-595.011	236.412	-0.313	0.521
-593.996	-67.229	-0.228	-0.090
-592.982	-176.972	-0.673	0.017
-591.967	-195.615	-0.171	0.001
-590.952	19.653	-0.390	0.316
-589.938	315.669	0.132	-0.250
-588.923	-110.757	-0.771	0.160
-587.909	8.265	0.637	0.481
-586.894	-200.000	0.016	0.106
-585.879	-17.658	0.353	0.223
-584.865	-57.504	-0.640	0.282
-583.850	-140.283	0.579	0.061
-582.836	106.287	0.232	0.276
-581.821	42.510	0.268	-0.245
-580.806	-200.000	0.029	1.155
-579.792	-21.478	-0.137	-0.084
-578.777	-88.524	0.257	-0.077
-577.763	-83.703	0.654	-0.210
-576.748	-1.561	0.601	-0.426
-575.733	-135.146	0.482	0.058
-574.719	52.904	0.537	-0.516
-573.704	207.388	0.460	-0.722
-572.690	-107.870	-0.366	0.080
-571.675	800.000	0.298	-1.081
-570.661	7.687	-0.334	-0.251
-569.646	15.567	-0.667	-0.526
-568.631	-152.066	-0.929	0.068
-567.617	-63.714	0.296	-0.122
-566.602	267.459	0.307	-0.539
-565.588	-92.077	0.097	0.027
-564.573	-6.907	-0.383	-0.262
-563.558	-25.287	-0.351	-0.209
-562.544	-163.209	0.287	-0.014
-561.529	-185.413	-1.366	0.021
-560.515	96.692	-0.640	0.736
-559.500	-139.006	-0.792	0.086
-558.485	-200.000	-0.095	0.475
-557.471	241.250	0.324	0.543
-556.456	285.789	0.294	-0.533
-555.442	500.560	-0.353	0.817
-554.427	-126.915	0.256	0.038
-553.412	-200.000	0.030	0.515
-552.398	-27.506	-0.536	0.313
-551.383	-181.519	-0.598	0.012
-550.369	-26.290	-0.311	-0.183
-549.354	19.046	0.752	-0.605
-548.339	73.148	0.602	-0.632
-547.325	48.377	0.098	-0.092
-546.310	-200.000	0.032	-0.745
-545.296	224.134	-0.195	0.316
-544.281	36.600	-0.222	0.197
-543.266	-38.349	0.130	-0.069
-542.252	-20.966	0.555	0.341
-541.237	-200.000	0.089	-0.472
-540.223	-129.647	0.386	-0.054
-539.208	800.000	0.136	-0.480
-538.193	-117.570	-0.749	0.136
-537.179	-200.000	-0.005	0.070
-536.164	800.000	0.269	-0.814
-535.150	-51.705	0.374	0.175
-534.135	-88.741	0.349	0.104
-533.121	-63.907	-1.127	0.462
-532.106	-149.068	-0.460	0.037
-531.091	-45.647	-0.306	0.152
-530.077	-200.000	-0.078	0.650
-529.062	-200.000	-0.021	-0.311
-528.048	-26.912	-0.316	0.185
-527.033	800.000	0.113	-0.362
-526.018	-200.000	0.061	0.418
-525.004	448.818	-0.157	0.347
-523.989	76.833	-0.221	-0.236
-522.975	-200.000	-0.093	0.527
-521.960	234.727	0.573	0.948
-520.945	22.504	0.504	-0.413
-519.931	-77.488	0.403	0.140
-518.916	-72.218	0.349	0.130
-517.902	330.814	0.153	0.296
-516.887	-121.680	-0.739	-0.123
-515.872	258.555	-0.259	0.447
-514.858	485.621	0.077	-0.176
-513.843	11.153	0.262	0.201
-512.829	685.494	-0.092	0.241
-511.814	-148.689	-0.962	0.078
-510.799	500.975	0.110	0.255
-509.785	-200.000	-0.095	0.470
-508.770	-200.000	-0.043	-0.316
-507.756	31.907	-0.083	-0.072
-506.741	-28.923	0.276	-0.159
-505.726	-200.000	-0.056	-0.578
-504.712	-34.525	0.157	-0.086
-503.697	-79.086	-0.590	-0.201
-502.683	119.662	-0.220	-0.273
-501.668	-31.939	0.356	0.200
-500.653	-125.693	-1.154	-0.175
-499.639	346.411	-0.201	-0.396
-498.624	-200.000	-0.659	-0.003
-497.610	-72.176	-0.578	0.215
-496.595	164.501	0.386	0.545
-495.581	-53.530	-1.370	0.628
-494.566	7.311	-0.116	0.086
-493.551	209.389	0.566	0.888
-492.537	800.000	0.322	0.961
-491.522	800.000	0.046	0.195
-490.508	95.355	0.311	-0.355
-489.493	-60.406	0.515	0.220
-488.478	-200.000	-0.024	0.150
-487.464	800.000	0.140	-0.557
-486.449	132.625	-0.258	-0.333
-485.435	44.908	-0.184	-0.170
-484.420	232.806	0.181	-0.298
-483.405	800.000	-0.150	0.435
-482.391	-200.000	-0.095	1.049
-481.376	-59.993	-0.706	-0.302
-480.362	50.893	0.542	0.515
-479.347	800.000	0.355	1.070
-478.332	269.532	0.147	0.258
-477.318	-116.291	0.764	-0.142
-476.303	-200.000	0.044	0.616
-475.289	-49.421	-0.012	0.006
-474.274	25.349	-0.341	-0.284
-473.259	379.611	0.219	-0.449
-472.245	-15.203	0.117	0.075
-471.230	-5.563	0.364	0.250
-470.216	52.105	0.534	-0.510
-469.201	-56.083	-0.442	-0.197
-468.186	77.955	-0.581	-0.620
-467.172	-126.026	0.594	-0.089
-466.157	-58.329	-0.575	-0.250
-465.143	-90.486	-0.514	-0.149
-464.128	-25.043	-0.143	0.085
-463.113	-68.116	-0.272	-0.106
-462.099	376.854	0.260	0.532
-461.084	77.391	-0.206	-0.220
-460.070	-75.263	0.400	-0.143
-459.055	-63.670	0.581	0.238
-458.040	-37.434	-0.211	-0.113
-457.026	-200.000	-0.021	0.240
-456.011	-4.090	0.432	-0.300
-454.997	350.002	-0.089	0.175
-453.982	10.391	0.365	0.278
-452.968	-117.737	0.352	-0.063
-451.953	154.870	0.360	-0.495
-450.938	70.026	-0.200	-0.207
-449.924	-133.238	0.903	-0.114
-448.909	217.000	-0.445	0.709
-447.895	-40.089	0.624	-0.325
-446.880	-200.000	-0.036	-0.368
-445.865	277.395	0.412	0.733
-444.851	-42.819	-0.405	-0.206
-443.836	71.693	0.405	0.421
-442.822	130.490	-0.035	0.044
-441.807	-200.000	-0.038	0.499
-440.792	348.679	-0.384	0.757
-439.778	231.078	0.145	0.238
-438.763	97.206	-0.524	0.601
-437.749	-24.847	-0.434	0.257
-436.734	-200.000	0.033	0.294
-435.719	-200.000	-0.000	-0.565
-434.705	0.179	0.324	0.231
-433.690	-200.000	0.083	-0.673
-432.676	-200.000	0.077	-0.427
-431.661	-48.734	0.347	-0.167
-430.646	-163.762	0.775	-0.036
-429.632	-54.714	-0.500	-0.226
-428.617	252.001	0.490	-0.833
-427.603	642.868	0.270	0.689
-426.588	586.048	-0.103	0.252
-425.573	-127.610	-0.573	0.083
-424.559	220.327	0.321	0.514
-423.544	268.453	-0.080	0.140
-422.530	14.988	-0.132	0.103
-421.515	26.677	-0.540	-0.451
-420.500	394.286	0.229	-0.476
-419.486	-113.718	0.122	0.024
-418.471	-200.000	-0.079	0.725
-417.457	91.228	0.433	0.486
-416.442	94.578	-0.390	-0.443
-415.428	182.190	-0.390	-0.574
-414.413	214.297	0.360	-0.569
-413.398	266.931	-0.391	0.683
-412.384	391.499	0.229	-0.476
-411.369	235.016	-0.196	-0.324
-410.355	800.000	0.035	-0.112
-409.340	165.508	0.300	-0.424
-408.325	159.947	-0.509	0.709
-407.311	367.571	0.138	-0.279
-406.296	-35.355	0.378	-0.205
-405.282	29.399	0.457	-0.388
-404.267	-85.624	0.844	-0.262
-403.252	104.770	-0.602	-0.708
-402.238	-59.187	0.762	-0.328
-401.223	-200.000	0.107	-0.501
-400.209	-36.034	0.560	-0.302
-399.194	796.549	-0.033	0.091
-398.179	23.884	-0.414	0.340
-397.165	-200.000	0.092	-0.489
-396.150	62.863	-0.116	0.116
-395.136	-162.502	-0.280	0.014
-394.121	115.449	-0.381	0.465
-393.106	-30.327	0.282	-0.160
-392.092	532.873	0.247	0.583
-391.077	800.000	-0.120	-0.499
-390.063	0.541	-0.596	0.425
-389.048	-139.983	0.806	0.085
-388.033	-95.974	0.377	-0.100
-387.019	-200.000	-0.052	0.386
-386.004	184.095	0.169	0.249
-384.990	-36.493	-0.473	0.254
-383.975	-73.042	0.449	0.164
-382.960	-59.066	-0.470	0.202
-381.946	-200.000	-0.023	-0.894
-380.931	-143.110	-0.279	0.027
-379.917	-200.000	-0.043	0.190
-378.902	-168.528	1.326	0.050
-377.888	278.327	-0.353	-0.628
-376.873	18.771	-0.099	-0.079
-375.858	-170.980	0.692	-0.024
-374.844	-200.000	0.063	0.417
-373.829	37.170	-0.373	0.329
-372.815	-99.853	-0.191	-0.048
-371.800	451.334	-0.128	0.282
-370.785	121.164	-0.461	-0.572
-369.771	-149.262	-0.954	-0.076
-368.756	178.163	-0.291	-0.423
-367.742	66.718	-0.540	-0.547
-366.727	8.667	0.240	0.180
-365.712	737.380	0.346	-0.925
-364.698	53.481	-0.389	-0.372
-363.683	-200.000	0.039	-0.706
-362.669	27.367	-0.437	-0.366
-361.654	-4.769	0.583	-0.401
-360.639	-119.043	0.403	0.070
-359.625	291.270	0.321	-0.582
-358.610	-200.000	0.168	-0.837
-357.596	-200.000	0.098	-0.765
-356.581	-200.000	0.047	0.662
-355.566	800.000	0.195	-0.646
-354.552	800.000	-0.156	0.494
-353.537	-35.051	-0.117	0.064
-352.523	8.883	0.791	0.594
-351.508	188.606	0.147	0.219
-350.493	-200.000	0.012	0.232
-349.479	-29.925	0.269	-0.152
-348.464	800.000	0.124	0.441
-347.450	57.483	0.282	0.274
-346.435	7.232	-0.369	0.274
-345.420	27.397	-0.563	0.472
-344.406	-176.871	-1.079	0.027
-343.391	800.000	0.138	-0.489
-342.377	-94.659	0.182	-0.049
-341.362	139.748	-0.102	0.134
-340.348	103.068	0.333	-0.389
-339.333	-39.257	0.153	0.080
-338.318	-164.029	-0.201	-0.009
-337.304	-157.881	0.302	-0.018
-336.289	145.865	-0.301	0.401
-335.275	793.675	-0.173	0.473
-334.260	-102.448	0.285	-0.068
-333.245	-87.180	0.386	0.117
-332.231	41.124	0.499	0.449
-331.216	-184.013	-0.092	0.002
-330.202	541.726	0.265	-0.629
-329.187	59.882	0.554	-0.544
-328.172	-123.776	1.165	0.183
-327.158	656.132	0.104	-0.266
-326.143	322.802	0.176	0.335
-325.129	-28.387	-0.273	0.157
-324.114	-174.523	-0.786	0.022
-323.099	-200.000	-0.028	0.421
-322.085	-63.119	0.306	-0.126
-321.070	-58.377	0.093	-0.040
-320.056	-138.751	0.194	-0.021
-319.041	-200.000	-0.009	0.505
-318.026	-179.691	0.465	0.010
-317.012	800.000	-0.153	-0.442
-315.997	101.715	0.163	-0.189
-314.983	42.364	0.427	-0.386
-313.968	-129.136	-0.319	0.044
-312.953	-8.761	-0.394	0.263
-311.939	-49.145	0.024	-0.011
-310.924	-176.134	-0.415	0.011
-309.910	-15.000	0.682	-0.435
-308.895	59.623	0.436	0.428
-307.880	151.186	-0.151	0.205
-306.866	-171.777	-0.642	-0.021
-305.851	800.000	0.205	0.764
-304.837	-86.496	0.985	-0.301
-303.822	63.551	0.361	0.361
-302.807	474.939	-0.173	0.387
-301.793	-92.249	-0.625	0.175
-300.778	-87.799	-0.604	-0.181
-299.764	409.455	-0.205	0.432
-298.749	-92.109	0.343	0.096
-297.735	741.013	-0.102	-0.271
-296.720	23.458	-0.156	-0.127
-295.705	-11.296	0.948	-0.621
-294.691	108.260	0.401	-0.476
-293.676	139.100	0.162	0.211
-292.662	-177.485	0.326	0.008
-291.647	80.072	0.444	-0.474
-290.632	418.233	0.292	-0.621
-289.618	-92.745	0.676	0.188
-288.603	163.453	0.501	0.700
-287.589	-57.524	0.430	-0.187
-286.574	83.236	-0.824	-0.891
-285.559	203.509	0.516	0.793
-284.545	-81.879	0.412	0.134
-283.530	-123.692	-0.534	-0.084
-282.516	-22.114	-0.403	-0.243
-281.501	800.000	0.080	-0.303
-280.486	272.412	-0.149	-0.261
-279.472	-10.954	0.293	-0.192
-278.457	70.744	-0.649	0.667
-277.443	-130.960	-0.325	-0.043
-276.428	800.000	-0.054	-0.195
-275.413	17.561	-0.467	-0.369
-274.399	-120.367	0.283	-0.048
-273.384	-200.000	0.071	0.554
-272.370	422.727	-0.136	-0.291
-271.355	143.802	-0.501	-0.663
-270.340	354.624	-0.085	-0.168
-269.326	-200.000	-0.026	0.231
-268.311	429.969	0.075	0.160
-267.297	-78.388	-0.249	0.085
-266.282	-101.712	-0.414	-0.100
-265.267	125.439	0.114	-0.143
-264.253	97.423	0.366	-0.417
-263.238	-14.899	-0.583	0.371
-262.224	-200.000	-0.120	0.686
-261.209	69.473	0.708	-0.724
-260.195	-153.797	0.498	-0.034
-259.180	-200.000	-0.584	-0.001
-258.165	-98.107	-0.349	0.089
-257.151	-28.535	-0.091	0.052
-256.136	66.556	0.357	0.360
-255.122	-200.000	-0.003	-0.425
-254.107	267.406	0.025	0.043
-253.092	-26.644	0.734	-0.426
-252.078	117.118	-0.245	0.298
-251.063	-18.024	0.209	0.130
-250.049	-126.406	0.309	-0.046
-249.034	44.021	0.168	-0.153
-248.019	800.000	0.101	-0.394
-247.005	-109.629	-0.619	0.129
-245.990	-200.000	0.121	0.654
-244.976	46.897	0.408	0.376
-243.961	-200.000	0.067	-0.447
-242.946	-75.478	0.584	0.206
-241.932	218.388	0.222	0.351
-240.917	477.193	0.375	-0.842
-239.903	73.096	0.190	-0.197
-238.888	-200.000	-0.050	0.708
-237.873	18.012	-0.346	0.273
-236.859	-200.000	-0.125	0.643
-235.844	800.000	-0.065	0.231
-234.830	-200.000	-0.014	0.652
-233.815	-24.506	-0.122	0.072
-232.800	800.000	-0.092	0.266
-231.786	76.080	-0.254	0.267
-230.771	-113.662	-0.732	-0.142
-229.757	-107.634	0.231	0.050
-228.742	85.282	-0.163	-0.178
-227.727	-193.073	-0.453	0.004
-226.713	-200.000	-0.000	0.255
-225.698	-200.000	-0.007	0.303
-224.684	-134.103	-0.276	0.034
-223.669	369.275	0.257	0.516
-222.655	-180.608	0.860	-0.018
-221.640	-48.112	0.545	-0.261
-220.625	800.000	0.204	0.682
-219.611	-84.313	0.876	0.275
-218.596	106.617	0.416	0.489
-217.582	-41.168	0.215	-0.110
-216.567	-143.332	-0.329	0.031
-215.552	-70.247	0.233	-0.088
-214.538	95.268	-0.432	0.488
-213.523	492.404	0.560	-1.272
-212.509	43.420	0.486	-0.440
-211.494	-171.470	0.125	0.004
-210.479	19.332	-0.069	0.055
-209.465	-200.000	0.204	0.906
-208.450	-140.472	0.658	-0.068
-207.436	130.134	0.412	-0.523
-206.421	-22.022	-0.726	-0.437
-205.406	429.601	-0.275	0.590
-204.392	-167.226	0.146	0.006
-203.377	-200.000	-0.034	0.306
-202.363	489.197	-0.162	0.367
-201.348	-145.697	-0.792	0.070
-200.333	800.000	-0.060	-0.247
-199.319	179.265	-0.084	-0.122
-198.304	287.787	0.054	-0.097
-197.290	-200.000	-0.009	0.516
-196.275	800.000	-0.234	0.861
-195.260	81.783	-0.616	0.660
-194.246	-83.270	0.224	0.071
-193.231	26.330	-0.160	0.132
-192.217	-63.087	0.114	-0.046
-191.202	-121.959	0.350	0.057
-190.187	-200.000	0.069	-0.559
-189.173	201.527	0.325	-0.495
-188.158	-58.011	0.285	0.123
-187.144	739.071	-0.224	-0.596
-186.129	124.478	-0.411	-0.511
-185.114	-52.054	-1.109	0.510
-184.100	-60.596	-0.600	-0.252
-183.085	-200.000	0.247	-1.260
-182.071	289.299	-0.112	-0.200
-181.056	-200.000	-0.128	-0.791
-180.042	96.271	0.111	-0.125
-179.027	800.000	0.063	-0.246
-178.012	-44.643	-0.533	-0.264
-176.998	107.391	-0.155	0.182
-175.983	42.504	-0.705	-0.634
-174.969	-24.542	-0.491	-0.289
-173.954	-89.740	-0.555	-0.161
-172.939	367.815	-0.357	-0.713
-171.925	-200.000	-0.074	-0.688
-170.910	272.848	0.089	-0.155
-169.896	346.007	0.215	-0.418
-168.881	-27.367	0.420	0.242
-167.866	159.280	-0.362	-0.498
-166.852	609.418	-0.118	0.291
-165.837	-125.496	-0.902	0.136
-164.823	-49.426	0.442	-0.209
-163.808	8.379	0.620	-0.461
-162.793	273.383	-0.245	0.429
-161.779	-1.246	0.408	-0.285
-160.764	159.240	0.235	0.323
-159.750	-157.030	-0.446	-0.027
-158.735	-111.299	-0.159	-0.032
-157.720	-73.712	-0.675	-0.243
-156.706	-50.465	0.732	0.342
-155.691	-200.000	-0.068	0.830
-154.677	-200.000	-0.093	0.496
-153.662	-177.643	0.488	0.012
-152.647	800.000	-0.066	-0.248
-151.633	9.955	0.719	0.540
-150.618	800.000	0.018	-0.071
-149.604	-125.091	-0.156	0.024
-148.589	-13.315	-0.324	-0.208
-147.574	47.456	0.518	0.478
-146.560	615.408	0.393	0.973
-145.545	-200.000	-0.233	1.275
-144.531	800.000	0.216	0.643
-143.516	153.973	0.251	0.341
-142.502	75.659	0.411	-0.429
-141.487	747.645	-0.112	0.298
-140.472	-200.000	-0.033	-0.510
-139.458	473.401	-0.202	-0.451
-138.443	-87.917	-0.159	-0.047
-137.429	30.884	0.687	-0.581
-136.414	690.635	-0.152	-0.394
-135.399	78.364	0.087	-0.092
-134.385	769.516	0.069	0.184
-133.370	-151.163	-0.576	-0.043
-132.356	-200.000	0.034	0.164
-131.341	-66.517	0.495	0.194
-130.326	-101.211	-0.308	0.074
-129.312	-70.042	0.497	-0.187
-128.297	-200.000	0.064	-0.494
-127.283	-200.000	-0.101	0.977
-126.268	-86.117	0.554	0.169
-125.253	-95.315	0.821	-0.218
-124.239	741.052	0.188	-0.499
-123.224	-128.102	0.473	0.067
-122.210	-173.995	-0.574	-0.017
-121.195	-115.847	0.542	-0.100
-120.180	-68.707	0.700	-0.267
-119.166	-200.000	0.093	0.584
-118.151	-200.000	-0.100	0.659
-117.137	-60.399	0.333	-0.140
-116.122	31.255	-0.200	0.169
-115.107	-200.000	-0.204	1.497
-114.093	-200.000	-0.091	-0.604
-113.078	759.378	0.042	0.112
-112.064	-200.000	0.022	-0.296
-111.049	-108.988	0.252	0.053
-110.034	800.000	0.141	-0.464
-109.020	-118.515	-0.109	0.019
-108.005	292.667	0.098	-0.177
-106.991	-124.076	0.201	0.031
-105.976	-200.000	-0.148	0.692
-104.962	800.000	-0.116	-0.356
-103.947	214.214	0.067	-0.104
-102.932	192.940	0.128	-0.191
-101.918	43.971	0.550	0.497
-100.903	-99.434	-0.545	-0.135
-99.889	-157.570	-0.321	0.019
-98.874	233.693	-0.487	0.792
-97.859	32.757	-0.115	0.098
-96.845	405.754	-0.221	0.460
-95.830	-28.855	1.055	0.598
-94.816	-200.000	-0.041	-0.386
-93.801	296.556	-0.067	-0.121
-92.786	64.302	-0.258	0.256
-91.772	71.128	-0.328	0.335
-90.757	-116.017	0.433	0.079
-89.743	-24.586	0.394	0.231
-88.728	528.879	-0.305	-0.709
-87.713	327.357	-0.146	0.275
-86.699	-188.872	-0.318	-0.004
-85.684	122.375	-0.237	0.291
-84.670	35.012	-0.177	-0.153
-83.655	800.000	0.112	-0.309
-82.640	-62.601	0.276	-0.113
-81.626	20.925	0.396	0.316
-80.611	130.483	0.079	-0.100
-79.597	-138.535	-0.342	-0.037
-78.582	609.239	0.182	-0.448
-77.567	-71.060	0.300	-0.111
-76.553	-200.000	-0.085	-0.479
-75.538	-23.971	0.395	-0.233
-74.524	-63.273	0.466	0.189
-73.509	-87.783	0.337	-0.100
-72.494	-99.184	0.264	0.066
-71.480	-35.364	0.238	0.127
-70.465	-50.600	-0.498	0.232
-69.451	-137.227	-0.204	0.023
-68.436	-20.842	-0.563	0.340
-67.422	-200.000	0.134	0.743
-66.407	800.000	0.080	0.313
-65.392	-146.726	-0.354	-0.030
-64.378	412.554	0.069	-0.145
-63.363	-120.329	-0.597	-0.100
-62.349	-151.145	-0.511	-0.038
-61.334	161.840	-0.521	-0.718
-60.319	800.000	-0.182	0.615
-59.305	-200.000	-0.041	-0.812
-58.290	800.000	0.420	1.440
-57.276	800.000	0.483	1.863
-56.261	-200.000	96.960	588.180
-55.246	634.046	1379.685	3445.350
-54.232	197.115	2555.552	3838.915
-53.217	118.610	2136.026	2597.054
-52.203	45.185	1601.587	1453.873
-51.188	37.405	1341.169	1170.798
-50.173	34.181	1300.518	1116.396
-49.159	58.958	1349.373	1306.564
-48.144	59.601	1367.875	1328.259
-47.130	37.544	1323.824	1156.305
-46.115	33.929	1305.189	1118.743
-45.100	33.793	1301.239	1114.520
-44.086	33.743	1298.782	1112.077
-43.071	33.629	1297.042	1109.874
-42.057	33.449	1294.990	1107.022
-41.042	33.815	1293.637	1107.957
-40.027	33.719	1292.139	1106.071
-39.013	33.745	1289.654	1104.054
-37.998	33.525	1288.552	1101.789
-36.984	33.564	1286.811	1100.482
-35.969	33.689	1285.348	1099.908
-34.954	33.935	1283.159	1099.415
-33.940	33.870	1282.084	1098.076
-32.925	33.863	1280.127	1096.315
-31.911	33.904	1278.568	1095.172
-30.896	33.872	1277.191	1093.765
-29.881	33.850	1276.893	1093.339
-28.867	33.867	1275.620	1092.306
-27.852	34.210	1274.175	1092.993
-26.838	33.854	1272.535	1089.503
-25.823	34.089	1269.756	1088.424
-24.809	33.887	1269.671	1087.153
-23.794	33.939	1268.182	1086.131
-22.779	33.962	1266.529	1084.806
-21.765	34.080	1265.943	1084.936
-20.750	33.911	1264.783	1082.932
-19.736	33.805	1263.517	1081.200
-18.721	34.182	1261.628	1081.689
-17.706	33.722	1261.399	1078.835
-16.692	33.869	1260.054	1078.473
-15.677	33.845	1258.581	1077.032
-14.663	33.575	1258.348	1075.261
-13.648	33.654	1256.389	1073.992
-12.633	33.924	1255.717	1074.903
-11.619	33.529	1256.158	1073.002
-10.604	33.975	1253.139	1072.898
-9.590	33.573	1253.967	1071.293
-8.575	33.514	1251.978	1069.221
-7.560	33.715	1251.114	1069.570
-6.546	33.802	1249.367	1068.524
-5.531	33.558	1250.009	1067.656
-4.517	33.879	1248.126	1067.814
-3.502	33.818	1248.502	1067.747
-2.487	33.551	1247.129	1065.034
-1.473	33.647	1243.797	1062.680
-0.458	32.294	1227.359	1041.113
0.556	29.133	1209.293	1000.310
1.571	25.009	1214.267	981.790
2.586	23.937	1229.037	987.696
3.600	23.094	1218.315	974.351
4.615	17.370	1145.611	886.384
5.629	7.612	1070.039	780.124
6.644	3.295	1049.887	744.529
7.659	2.989	1046.821	740.813
8.673	2.812	1044.950	738.572
9.688	2.467	1044.050	736.213
10.702	3.089	1042.163	737.800
11.717	8.918	1050.534	771.787
12.731	19.178	1065.417	832.501
13.746	24.358	1072.387	863.006
14.761	25.969	1074.388	872.342
15.775	26.131	1073.551	872.366
16.790	26.140	1073.337	872.158
17.804	26.101	1072.930	871.561
18.819	26.039	1072.616	870.928
19.834	26.095	1072.135	870.733
20.848	26.098	1072.253	870.765
21.863	26.375	1070.013	870.204
22.877	26.039	1070.748	869.105
23.892	26.181	1069.290	868.530
24.907	26.124	1069.004	867.947
25.921	26.178	1066.945	866.456
26.936	25.947	1066.638	865.021
27.950	26.044	1064.704	863.840
28.965	26.022	1063.139	862.392
29.980	26.004	1060.890	860.405
30.994	26.482	1060.545	862.325
32.009	26.341	1059.375	860.629
33.023	25.949	1058.613	858.065
34.038	26.129	1058.012	858.359
35.053	26.096	1057.018	857.323
36.067	26.297	1056.129	857.476
37.082	26.574	1054.377	857.293
38.096	26.596	1055.638	858.344
39.111	26.776	1054.183	857.939
40.126	26.326	1052.353	854.244
41.140	26.023	1050.857	851.525
42.155	25.952	1050.269	850.641
43.169	25.870	1048.770	848.966
44.184	25.638	1049.002	847.983
45.199	25.784	1047.606	847.467
46.213	25.858	1046.548	846.883
47.228	25.641	1046.029	845.369
48.242	26.256	1043.601	846.214
49.257	26.267	1043.504	846.110
50.271	26.599	1043.820	847.849
51.286	26.292	1042.826	845.531
52.301	26.329	1041.605	844.638
53.315	26.185	1040.574	843.054
54.330	25.985	1040.678	842.132
55.344	26.311	1039.638	842.737
56.359	26.178	1038.048	840.751
57.374	26.186	1036.995	839.861
58.388	26.119	1036.338	838.944
59.403	25.974	1035.865	837.815
60.417	25.637	1035.404	835.803
61.432	26.034	1034.391	836.752
62.447	26.151	1032.838	835.963
63.461	26.025	1032.744	835.228
64.476	26.009	1031.493	834.069
65.490	25.790	1031.201	832.749
66.505	25.784	1031.271	832.704
67.520	25.958	1029.945	832.363
68.534	25.591	1029.587	830.304
69.549	25.491	1027.971	828.466
70.563	25.535	1026.919	827.751
71.578	25.854	1025.564	828.048
72.593	25.057	1025.347	824.139
73.607	25.486	1024.367	825.250
74.622	25.908	1023.897	826.732
75.636	25.811	1024.143	826.413
76.651	25.800	1022.115	824.651
77.666	25.425	1022.119	822.865
78.680	25.617	1020.829	822.634
79.695	25.703	1021.156	823.214
80.709	25.474	1020.311	821.414
81.724	25.967	1019.693	823.098
82.739	25.932	1018.516	821.914
83.753	26.260	1018.813	823.575
84.768	26.662	1017.737	824.464
85.782	26.615	1017.378	823.884
86.797	26.434	1015.627	821.573
87.812	26.440	1014.884	820.926
88.826	26.388	1013.607	819.586
89.841	26.406	1013.255	819.309
90.855	26.390	1012.221	818.328
91.870	26.412	1011.991	818.169
92.884	26.594	1009.941	817.261
93.899	26.241	1008.396	814.347
94.914	26.512	1008.702	815.746
95.928	26.456	1007.147	814.164
96.943	25.896	1005.870	810.542
97.957	25.795	1005.408	809.643
98.972	25.942	1003.687	808.844
99.987	26.003	1003.160	808.622
101.001	26.323	1003.163	809.989
102.016	26.411	1001.491	808.960
103.030	25.973	1001.003	806.535
104.045	26.170	999.855	806.421
105.060	26.101	998.573	805.009
106.074	26.294	998.080	805.398
107.089	26.358	998.830	806.216
108.103	26.025	997.723	803.768
109.118	25.853	995.173	800.878
110.133	25.942	994.257	800.466
111.147	25.841	993.192	799.089
112.162	25.794	992.882	798.562
113.176	26.005	991.957	798.683
114.191	25.923	991.163	797.611
115.206	25.397	989.871	794.175
116.220	25.622	988.928	794.341
117.235	25.705	988.995	794.691
118.249	25.672	988.733	794.265
119.264	25.713	986.639	792.693
120.279	25.386	986.254	790.875
121.293	25.425	986.131	790.875
122.308	25.856	984.644	791.509
123.322	25.843	983.791	790.694
124.337	25.700	981.449	788.116
125.352	24.792	981.278	783.932
126.366	24.939	979.770	783.302
127.381	25.409	980.918	786.206
128.395	25.860	980.632	787.880
129.410	26.116	978.348	787.093
130.424	26.208	977.538	786.772
131.439	26.037	977.247	785.725
132.454	26.043	977.330	785.748
133.468	25.989	974.894	783.483
134.483	26.164	973.951	783.418
135.497	26.260	973.679	783.547
136.512	26.499	972.090	783.233
137.527	26.357	971.696	782.233
138.541	26.552	971.602	782.932
139.556	26.607	969.999	781.806
140.570	26.475	969.405	780.689
141.585	26.668	968.438	780.671
142.600	26.261	968.820	779.157
143.614	26.631	966.897	779.134
144.629	26.915	966.272	779.780
145.643	26.578	965.445	777.599
146.658	26.242	964.763	775.539
147.673	26.725	962.417	775.651
148.687	26.369	961.868	773.618
149.702	26.134	961.527	772.269
150.716	26.398	960.377	772.406
151.731	26.193	960.601	771.641
152.746	26.409	958.866	771.102
153.760	26.896	957.997	772.408
154.775	26.643	957.912	771.195
155.789	27.007	955.907	771.057
156.804	26.713	956.214	769.989
157.819	26.584	956.018	769.214
158.833	26.727	955.110	769.024
159.848	26.778	954.342	768.551
160.862	26.630	952.358	766.258
161.877	26.710	952.159	766.370
162.892	26.845	950.670	765.672
163.906	26.754	949.780	764.504
164.921	26.612	948.964	763.184
165.935	26.508	947.739	761.692
166.950	26.551	947.096	761.289
167.964	26.553	946.139	760.459
168.979	26.421	945.327	759.187
169.994	26.492	944.009	758.358
171.008	26.612	944.347	759.064
172.023	26.626	943.268	758.191
173.037	26.371	942.210	756.206
174.052	26.301	941.410	755.204
175.067	26.424	940.320	754.778
176.081	26.678	940.026	755.533
177.096	26.315	939.767	753.743
178.110	26.041	938.421	751.460
179.125	25.852	937.992	750.260
180.140	26.013	937.458	750.437
181.154	26.107	937.638	750.904
182.169	26.681	936.354	752.194
183.183	26.374	936.583	751.036
184.198	26.527	935.490	750.729
185.213	26.395	935.685	750.271
186.227	26.756	934.299	750.587
187.242	26.524	933.986	749.311
188.256	26.616	933.506	749.240
189.271	26.587	932.606	748.330
190.286	25.993	932.164	745.457
191.300	25.781	929.548	742.423
192.315	24.952	927.913	737.639
193.329	24.808	927.271	736.471
194.344	25.483	929.368	740.856
195.359	26.178	928.419	742.894
196.373	26.404	927.132	742.728
197.388	26.242	927.223	742.068
198.402	26.419	927.066	742.603
199.417	26.968	925.734	743.720
200.432	26.329	924.974	740.427
201.446	26.187	924.191	739.155
202.461	26.364	923.046	738.898
203.475	25.130	921.923	732.894
204.490	24.512	920.549	729.214
205.504	25.306	921.743	733.337
206.519	26.056	921.190	735.895
207.534	26.286	920.178	735.957
208.548	26.502	920.611	737.117
209.563	26.806	918.924	736.938
210.577	26.593	918.421	735.604
211.592	26.833	918.128	736.281
212.607	26.690	917.496	735.128
213.621	26.416	918.043	734.389
214.636	26.637	917.086	734.455
215.650	26.583	915.689	733.051
216.665	27.036	914.642	733.981
217.680	26.471	915.326	732.177
218.694	25.932	913.661	728.604
219.709	26.244	911.834	728.340
220.723	26.350	912.613	729.326
221.738	26.462	911.160	728.549
222.753	26.407	910.501	727.736
223.767	26.493	910.781	728.243
224.782	26.843	910.430	729.307
225.796	26.702	909.009	727.535
226.811	26.158	908.513	724.891
227.826	25.541	906.602	720.833
228.840	25.385	906.539	720.091
229.855	25.497	905.610	719.738
230.869	25.318	905.305	718.717
231.884	25.617	904.493	719.203
232.899	26.296	904.834	722.125
233.913	26.776	903.053	722.552
234.928	26.408	903.338	721.250
235.942	26.402	903.398	721.210
236.957	25.913	902.062	718.130
237.972	25.921	901.345	717.528
238.986	26.193	901.021	718.289
240.001	26.309	900.671	718.409
241.015	26.371	899.281	717.484
242.030	26.126	899.988	717.009
243.045	26.341	898.838	716.882
244.059	26.633	898.801	717.948
245.074	26.584	897.056	716.297
246.088	26.293	895.602	713.921
247.103	26.351	896.850	715.082
248.117	26.724	896.803	716.458
249.132	27.397	895.619	718.105
250.147	27.483	895.469	718.261
251.161	27.374	894.735	717.177
252.176	27.271	894.609	716.607
253.190	27.292	893.974	716.120
254.205	27.864	892.811	717.371
255.220	27.787	892.085	716.424
256.234	27.216	891.699	713.810
257.249	27.160	891.527	713.386
258.263	27.212	890.669	712.843
259.278	27.809	889.381	714.083
260.293	27.493	889.649	713.000
261.307	27.335	889.133	711.905
262.322	27.331	887.537	710.550
263.336	26.021	886.505	704.546
264.351	25.255	884.242	699.699
265.366	25.450	883.986	700.196
266.380	26.624	884.620	705.212
267.395	26.823	884.180	705.573
268.409	26.762	883.578	704.792
269.424	27.177	883.795	706.517
270.439	27.020	883.532	705.632
271.453	27.022	882.644	704.870
272.468	27.472	882.346	706.313
273.482	27.420	881.478	705.356
274.497	27.121	880.556	703.400
275.512	26.825	879.105	701.031
276.526	27.222	879.294	702.656
277.541	27.260	879.225	702.685
278.555	26.867	878.558	700.573
279.570	26.919	877.206	699.635
280.585	27.100	876.999	700.102
281.599	27.191	875.840	699.467
282.614	26.321	874.757	695.195
283.628	26.255	874.211	694.446
284.643	26.901	873.386	696.207
285.657	26.548	873.119	694.579
286.672	26.341	871.949	692.796
287.687	26.485	871.493	692.924
288.701	27.127	870.935	694.873
289.716	26.484	870.844	692.281
290.730	26.848	869.893	692.855
291.745	26.352	868.871	690.085
292.760	26.490	869.308	690.899
293.774	27.633	870.375	696.053
294.789	27.705	869.962	695.936
295.803	27.631	868.412	694.354
296.818	27.770	868.538	694.919
297.833	27.560	867.336	693.100
298.847	27.092	865.842	690.064
299.862	27.345	866.231	691.277
300.876	27.823	865.461	692.413
301.891	27.998	864.501	692.248
302.906	27.054	863.861	688.101
303.920	27.242	864.296	689.098
304.935	28.166	863.790	692.131
305.949	27.664	862.791	689.372
306.964	27.385	862.251	687.824
307.979	27.706	861.451	688.337
308.993	27.841	861.117	688.519
310.008	27.586	861.012	687.412
311.022	27.585	860.751	687.140
312.037	27.437	858.525	684.746
313.052	27.391	858.577	684.551
314.066	25.800	857.514	677.664
315.081	25.782	856.740	676.923
316.095	27.126	856.094	681.397
317.110	27.169	857.000	682.222
318.125	26.581	853.630	677.277
319.139	25.499	852.944	672.626
320.154	25.642	852.340	672.627
321.168	26.188	853.651	675.643
322.183	26.814	853.503	677.809
323.197	27.114	853.469	678.843
324.212	27.244	853.304	679.137
325.227	27.622	851.774	679.269
326.241	27.600	851.028	678.533
327.256	27.141	851.554	677.182
328.270	27.309	850.275	676.729
329.285	26.800	849.353	674.045
330.300	26.899	848.362	673.563
331.314	27.553	847.645	675.361
332.329	27.458	848.397	675.546
333.343	27.477	848.524	675.660
334.358	27.207	848.706	674.742
335.373	28.040	846.994	676.404
336.387	27.836	846.857	675.483
337.402	28.120	846.937	676.536
338.416	28.058	845.617	675.192
339.431	27.898	846.752	675.447
340.446	28.114	846.056	675.630
341.460	28.128	845.126	674.881
342.475	27.595	845.568	673.204
343.489	28.305	844.019	674.529
344.504	28.442	843.582	674.624
345.519	28.450	843.842	674.802
346.533	28.674	842.776	674.714
347.548	28.108	843.299	672.990
348.562	28.159	842.784	672.707
349.577	28.270	842.484	672.815
350.592	28.327	841.310	672.028
351.606	28.431	840.132	671.408
352.621	28.119	839.845	669.978
353.635	27.906	839.696	669.020
354.650	27.396	837.167	665.081
355.665	26.507	835.862	660.740
356.679	26.771	836.199	661.913
357.694	27.739	834.791	664.268
358.708	26.988	834.953	661.601
359.723	27.564	835.637	664.186
360.738	28.282	834.258	665.640
361.752	28.311	833.155	664.808
362.767	28.304	833.634	665.106
363.781	28.330	833.682	665.178
364.796	28.705	832.683	665.685
365.810	28.536	832.537	664.894
366.825	28.522	832.035	664.384
367.840	28.405	831.430	663.419
368.854	28.087	830.149	661.189
369.869	28.099	830.647	661.571
370.883	28.207	829.588	661.060
371.898	28.106	829.073	660.227
372.913	28.116	829.257	660.349
373.927	28.224	828.488	660.070
374.942	28.163	827.927	659.342
375.956	28.346	827.296	659.439
376.971	28.629	827.362	660.455
377.986	28.948	826.336	660.724
379.000	28.973	826.394	660.800
380.015	28.662	826.009	659.317
381.029	28.631	825.277	658.562
382.044	28.931	824.538	658.990
383.059	28.666	823.349	657.032
384.073	28.789	823.166	657.271
385.088	28.725	822.936	656.798
386.102	28.173	822.706	654.581
387.117	28.293	822.891	655.101
388.132	27.983	820.816	652.287
389.146	27.700	819.478	650.156
390.161	27.843	820.867	651.711
391.175	28.471	820.163	653.332
392.190	27.876	818.141	649.550
393.205	26.418	816.185	642.762
394.219	25.395	813.950	637.317
395.234	25.239	814.495	637.134
396.248	27.079	815.162	644.131
397.263	28.345	816.292	649.456
398.278	28.343	815.290	648.597
399.292	27.867	815.160	646.748
400.307	28.177	814.335	647.135
401.321	28.532	813.950	648.024
402.336	28.782	813.654	648.614
403.350	28.976	813.638	649.229
404.365	29.191	814.253	650.421
405.380	29.394	813.935	650.828
406.394	29.523	813.481	650.862
407.409	29.550	812.549	650.153
408.423	29.042	812.797	648.505
409.438	29.215	812.065	648.471
410.453	29.377	811.319	648.390
411.467	29.750	810.434	648.934
412.482	29.408	810.858	648.015
413.496	29.360	810.543	647.537
414.511	29.283	810.524	647.195
415.526	29.737	809.141	647.622
416.540	29.536	809.117	646.842
417.555	29.237	808.205	645.009
418.569	29.263	808.535	645.305
419.584	28.885	808.375	643.800
420.599	29.398	805.854	643.522
421.613	159.577	1370.656	1792.599
422.628	138.662	1453.039	1792.671
