DTS Sentinel unit serial number:	SN413079Multiplexer serial number:	ORYXHardware model number:	OX4-SRSoftware version number:	ORYX F/W v4.00 Oryx Data Collector v3.7.2.0data status	okinstallation	princeton_trtdifferential loss correction	single-endedforward channel	channel 1reverse channel	N/Adate	2019/09/19time	02:18:35forward acquisition time	60.00reverse acquisition time	0.00gamma	496.2192k internal	0.2344k external	0.2344temperature offset calibration	1.0019default loss term (dB/km)	0.3790temperature slope calibration	1.0000multiplexer offset coefficient	1.0000multiplexer slope coefficient	1.0000fibre end	0.00T internal ref (°C)	21.12T ext. ref 1 (°C)	0.68T ext. ref 2 (°C)	14.55length (m)	temperature (°C)	Stokes	anti-Stokes-747.200	796.929	0.117	0.322
-746.185	-58.572	-0.149	0.065
-745.171	-200.000	-0.003	-0.030
-744.156	-10.075	-0.277	-0.184
-743.142	-167.218	0.478	0.019
-742.127	176.100	0.081	0.118
-741.112	159.209	0.181	0.252
-740.098	57.667	0.132	0.129
-739.083	23.986	-0.047	0.039
-738.069	800.000	0.110	0.466
-737.054	-86.716	-0.292	0.089
-736.039	16.243	-0.233	-0.184
-735.025	-150.629	-0.129	0.010
-734.010	-37.163	-0.150	-0.080
-732.996	-200.000	-0.044	-0.286
-731.981	502.214	0.057	-0.133
-730.966	-200.000	0.041	-0.257
-729.952	-173.222	0.181	-0.006
-728.937	-117.070	-0.406	0.074
-727.923	673.927	0.095	-0.246
-726.908	-44.423	-0.171	-0.086
-725.894	-2.712	0.285	0.200
-724.879	-200.000	0.042	-0.203
-723.864	-177.820	0.075	-0.002
-722.850	-55.742	-0.148	0.066
-721.835	-49.299	-0.222	0.106
-720.821	484.760	0.103	-0.233
-719.806	83.322	-0.112	0.122
-718.791	-61.928	-0.264	-0.110
-717.777	-200.000	-0.003	-0.198
-716.762	419.453	0.110	-0.236
-715.748	179.817	0.022	0.032
-714.733	-200.000	0.177	0.000
-713.718	-59.469	-0.409	-0.176
-712.704	-21.329	0.300	-0.183
-711.689	-10.298	-0.047	-0.031
-710.675	-93.345	-0.191	-0.053
-709.660	194.008	-0.057	0.087
-708.645	-144.242	0.372	0.035
-707.631	-40.775	0.315	0.163
-706.616	-39.563	0.184	0.096
-705.602	800.000	0.022	-0.065
-704.587	715.064	-0.077	-0.204
-703.572	12.806	0.348	0.269
-702.558	429.161	-0.122	0.264
-701.543	-66.751	-0.106	-0.042
-700.529	474.650	0.016	-0.035
-699.514	363.250	0.036	0.072
-698.499	800.000	-0.118	0.330
-697.485	-46.959	0.145	0.071
-696.470	-72.113	0.194	-0.072
-695.456	-57.989	0.086	-0.037
-694.441	-62.244	0.098	-0.041
-693.426	-81.828	-0.428	0.140
-692.412	765.311	-0.159	-0.430
-691.397	-129.003	-0.152	-0.021
-690.383	108.793	0.196	0.234
-689.368	478.803	0.100	0.227
-688.354	-26.509	0.179	-0.105
-687.339	-183.393	-0.113	-0.002
-686.324	800.000	-0.040	0.146
-685.310	16.600	-0.235	-0.186
-684.295	-200.000	0.007	0.111
-683.281	-13.817	-0.340	0.219
-682.266	-152.121	0.069	-0.005
-681.251	-200.000	0.028	-0.255
-680.237	-200.000	0.005	0.245
-679.222	342.896	-0.204	0.398
-678.208	-62.162	0.174	-0.072
-677.193	-200.000	-0.042	0.206
-676.178	-98.585	-0.345	0.088
-675.164	800.000	-0.037	0.118
-674.149	-77.441	0.275	0.095
-673.135	13.295	0.311	-0.241
-672.120	137.056	-0.060	0.079
-671.105	-137.312	0.253	-0.029
-670.091	-200.000	-0.023	-0.124
-669.076	-200.000	0.002	0.025
-668.062	186.356	0.116	-0.172
-667.047	76.685	-0.084	0.088
-666.032	44.676	0.158	0.145
-665.018	-200.000	0.044	0.244
-664.003	585.553	-0.127	-0.311
-662.989	-200.000	-0.008	-0.260
-661.974	-54.420	0.122	-0.055
-660.959	33.074	-0.104	0.090
-659.945	-138.327	-0.064	-0.007
-658.930	37.099	-0.224	-0.198
-657.916	-200.000	-0.019	0.221
-656.901	-174.018	-0.382	-0.011
-655.886	-200.000	-0.085	-0.424
-654.872	-182.798	-0.246	0.004
-653.857	-0.173	-0.090	-0.064
-652.843	-26.839	-0.236	-0.138
-651.828	656.132	-0.061	0.156
-650.814	-200.000	-0.063	0.278
-649.799	-31.554	0.336	-0.188
-648.784	-200.000	-0.010	0.303
-647.770	-2.594	0.058	0.041
-646.755	63.369	-0.177	0.177
-645.741	-200.000	0.029	-0.150
-644.726	30.760	0.202	-0.172
-643.711	103.507	0.158	-0.185
-642.697	71.934	-0.277	0.287
-641.682	326.188	0.103	-0.196
-640.668	-99.644	-0.220	-0.055
-639.653	-151.022	-0.437	-0.033
-638.638	-200.000	0.015	-0.077
-637.624	-1.457	0.068	0.048
-636.609	65.634	0.123	0.125
-635.595	756.315	-0.088	0.236
-634.580	128.195	-0.149	-0.189
-633.565	55.319	0.141	-0.136
-632.551	108.806	0.122	-0.145
-631.536	-85.089	0.079	0.025
-630.522	324.679	0.068	-0.129
-629.507	-200.000	-0.027	-0.381
-628.492	-59.923	-0.115	0.049
-627.478	-111.864	0.125	0.025
-626.463	127.360	0.129	0.163
-625.449	5.936	-0.370	-0.273
-624.434	89.025	0.152	-0.168
-623.419	-149.769	-0.308	0.024
-622.405	-200.000	0.004	-0.118
-621.390	-120.884	0.347	0.058
-620.376	800.000	0.079	0.290
-619.361	510.369	-0.097	0.225
-618.346	-19.109	-0.073	-0.045
-617.332	-81.720	0.110	-0.036
-616.317	20.819	-0.164	-0.132
-615.303	-200.000	-0.053	0.272
-614.288	26.143	-0.164	-0.136
-613.273	199.432	-0.091	0.138
-612.259	800.000	-0.115	-0.340
-611.244	800.000	0.042	-0.159
-610.230	-27.868	0.322	-0.186
-609.215	-200.000	0.005	-0.174
-608.201	56.166	0.053	-0.051
-607.186	238.140	-0.050	0.083
-606.171	800.000	0.039	0.166
-605.157	90.816	0.305	0.340
-604.142	184.940	0.021	-0.031
-603.128	-200.000	0.004	0.238
-602.113	-36.593	0.106	-0.057
-601.098	-18.065	0.297	0.185
-600.084	128.006	0.024	0.030
-599.069	-95.800	-0.116	-0.031
-598.055	-70.402	-0.181	-0.068
-597.040	-96.588	-0.277	0.073
-596.025	-200.000	-0.005	0.077
-595.011	88.611	0.207	-0.229
-593.996	-124.578	0.218	0.034
-592.982	-200.000	0.041	0.252
-591.967	146.898	0.061	0.081
-590.952	-106.270	0.201	0.045
-589.938	168.854	-0.118	-0.167
-588.923	703.305	0.087	0.228
-587.909	-200.000	-0.032	0.189
-586.894	-81.877	-0.096	0.031
-585.879	43.933	0.092	-0.084
-584.865	289.654	0.102	-0.184
-583.850	86.943	-0.173	0.190
-582.836	-41.890	-0.126	0.064
-581.821	311.398	-0.143	-0.267
-580.806	-74.305	-0.084	-0.030
-579.792	-200.000	0.024	-0.178
-578.777	800.000	0.041	0.130
-577.763	-37.878	0.035	-0.018
-576.748	-200.000	-0.040	-0.417
-575.733	308.361	-0.101	-0.187
-574.719	759.974	0.050	-0.134
-573.704	-49.894	0.218	0.103
-572.690	-148.045	-0.307	0.025
-571.675	92.329	-0.133	0.149
-570.661	-28.487	-0.205	-0.117
-569.646	-167.764	-0.211	0.008
-568.631	609.121	0.095	0.235
-567.617	800.000	0.062	0.239
-566.602	81.100	-0.083	-0.089
-565.588	111.684	0.204	-0.244
-564.573	-200.000	0.007	-0.075
-563.558	-34.632	-0.381	0.207
-562.544	17.103	0.196	-0.155
-561.529	-102.522	0.149	0.035
-560.515	33.960	0.207	-0.179
-559.500	-200.000	0.009	0.153
-558.485	163.483	0.016	0.023
-557.471	-17.206	-0.188	-0.118
-556.456	-200.000	0.021	-0.179
-555.442	203.286	-0.215	0.330
-554.427	-30.700	-0.152	-0.086
-553.412	-200.000	0.015	0.226
-552.398	800.000	-0.114	0.327
-551.383	62.586	-0.248	0.246
-550.369	596.692	0.138	0.340
-549.354	800.000	-0.077	0.283
-548.339	-57.061	0.130	-0.057
-547.325	280.912	-0.050	0.089
-546.310	-116.124	0.186	0.034
-545.296	-200.000	-0.027	0.161
-544.281	-128.865	-0.224	0.031
-543.266	-78.760	0.366	0.124
-542.252	-200.000	0.016	0.296
-541.237	51.228	-0.149	-0.140
-540.223	603.066	-0.064	0.158
-539.208	-177.693	0.279	-0.007
-538.193	-200.000	0.042	0.222
-537.179	63.127	-0.167	0.166
-536.164	-200.000	0.013	0.221
-535.150	-149.542	-0.212	0.017
-534.135	226.695	-0.289	-0.466
-533.121	64.577	0.036	-0.036
-532.106	-79.855	-0.334	-0.111
-531.091	46.038	0.095	-0.087
-530.077	-10.472	-0.119	-0.078
-529.062	457.795	0.058	-0.128
-528.048	-200.000	0.018	-0.244
-527.033	127.872	0.241	0.304
-526.018	728.741	-0.043	-0.115
-525.004	251.685	0.149	0.251
-523.989	182.695	-0.176	-0.257
-522.975	734.932	-0.029	0.076
-521.960	-127.251	-0.288	-0.042
-520.945	525.688	0.150	0.350
-519.931	255.334	-0.248	0.421
-518.916	63.154	-0.215	-0.214
-517.902	-133.374	0.194	0.024
-516.887	800.000	-0.085	0.336
-515.872	37.553	-0.133	0.117
-514.858	-200.000	-0.033	0.214
-513.843	-58.987	0.197	0.085
-512.829	-200.000	-0.001	-0.188
-511.814	-151.213	0.196	-0.015
-510.799	60.794	0.189	0.186
-509.785	-93.621	-0.328	-0.090
-508.770	-152.620	0.432	0.031
-507.756	-200.000	-0.018	0.171
-506.741	35.974	0.144	0.125
-505.726	468.838	-0.065	-0.145
-504.712	800.000	-0.089	-0.320
-503.697	34.532	0.198	0.172
-502.683	80.749	-0.157	0.168
-501.668	-82.267	0.140	-0.045
-500.653	-87.841	0.225	-0.067
-499.639	-90.901	0.395	-0.113
-498.624	-88.961	0.140	-0.041
-497.610	-38.058	-0.274	-0.144
-496.595	238.033	-0.132	-0.217
-495.581	-66.258	-0.151	-0.059
-494.566	-108.560	0.087	-0.018
-493.551	133.846	-0.055	0.071
-492.537	-40.656	0.067	-0.034
-491.522	257.793	0.260	0.443
-490.508	-200.000	-0.033	-0.203
-489.493	-91.813	-0.131	-0.037
-488.478	642.687	0.112	0.284
-487.464	-56.087	-0.046	-0.020
-486.449	-17.114	0.145	0.090
-485.435	-200.000	-0.022	-0.215
-484.420	800.000	0.092	-0.307
-483.405	-63.658	0.069	-0.028
-482.391	39.967	-0.194	0.173
-481.376	-37.807	-0.073	-0.038
-480.362	632.650	-0.076	0.191
-479.347	-77.489	0.140	-0.048
-478.332	800.000	-0.034	0.103
-477.318	-141.101	-0.140	0.014
-476.303	64.231	-0.057	0.057
-475.289	-32.836	0.186	-0.103
-474.274	315.035	-0.104	-0.195
-473.259	-102.494	-0.114	-0.027
-472.245	94.192	-0.262	-0.294
-471.230	-147.745	0.350	0.029
-470.216	800.000	0.064	-0.177
-469.201	354.142	-0.113	-0.223
-468.186	234.664	0.170	0.278
-467.172	14.724	-0.353	0.273
-466.157	-200.000	0.014	-0.214
-465.143	248.850	-0.132	-0.220
-464.128	95.740	-0.113	0.128
-463.113	800.000	-0.059	0.196
-462.099	-84.994	-0.404	-0.125
-461.084	176.986	-0.088	0.126
-460.070	-200.000	-0.022	0.288
-459.055	800.000	0.064	-0.226
-458.040	393.308	-0.070	0.143
-457.026	36.810	0.091	0.080
-456.011	-136.930	0.125	0.014
-454.997	-200.000	-0.027	0.214
-453.982	800.000	0.065	0.264
-452.968	-200.000	-0.019	0.306
-451.953	-110.446	0.038	-0.008
-450.938	-72.408	0.200	-0.073
-449.924	12.414	0.149	-0.114
-448.909	-177.482	-0.176	-0.004
-447.895	-200.000	-0.017	-0.149
-446.880	110.907	0.037	0.044
-445.865	46.594	0.102	0.094
-444.851	117.472	-0.098	0.120
-443.836	-94.138	-0.048	0.013
-442.822	-200.000	-0.003	0.081
-441.807	-19.872	0.345	-0.211
-440.792	115.062	0.163	0.197
-439.778	-2.439	0.181	-0.126
-438.763	361.791	0.189	-0.375
-437.749	-200.000	0.023	-0.190
-436.734	-200.000	0.062	-0.359
-435.719	231.257	-0.093	-0.150
-434.705	343.432	0.103	-0.199
-433.690	53.478	0.167	0.159
-432.676	-150.520	-0.462	-0.035
-431.661	-2.000	-0.236	0.164
-430.646	-200.000	-0.024	-0.206
-429.632	-22.526	-0.109	-0.065
-428.617	175.468	-0.119	0.171
-427.603	-200.000	-0.023	-0.268
-426.588	-62.723	0.177	-0.072
-425.573	269.727	-0.023	0.040
-424.559	155.757	-0.087	0.118
-423.544	129.412	-0.212	-0.268
-422.530	-82.274	-0.298	-0.096
-421.515	206.510	-0.024	-0.037
-420.500	-103.559	-0.302	-0.070
-419.486	-94.059	0.310	0.084
-418.471	215.781	-0.078	0.122
-417.457	-66.626	0.398	-0.156
-416.442	361.518	0.060	0.119
-415.428	-200.000	-0.020	-0.174
-414.413	-79.100	0.085	0.028
-413.398	26.835	0.223	-0.185
-412.384	65.428	0.121	-0.121
-411.369	-136.128	-0.138	-0.016
-410.355	149.326	0.062	0.083
-409.340	-50.842	0.133	-0.062
-408.325	-53.031	0.069	0.031
-407.311	-60.342	0.161	0.068
-406.296	-52.853	0.423	-0.193
-405.282	-82.899	-0.434	-0.138
-404.267	67.452	0.300	0.302
-403.252	-42.139	-0.183	-0.093
-402.238	39.243	-0.044	-0.039
-401.223	-18.066	0.201	0.124
-400.209	563.714	-0.145	0.347
-399.194	-9.407	-0.150	0.099
-398.179	-69.539	-0.273	-0.103
-397.165	209.597	-0.046	-0.071
-396.150	-66.431	0.025	0.010
-395.136	-200.000	-0.056	-0.517
-394.121	-52.432	0.038	0.018
-393.106	197.787	-0.318	-0.480
-392.092	800.000	-0.117	0.372
-391.077	164.165	0.073	0.101
-390.063	25.761	0.040	-0.032
-389.048	437.899	0.096	-0.206
-388.033	93.533	0.273	-0.305
-387.019	768.936	-0.071	-0.190
-386.004	-117.555	0.246	-0.044
-384.990	771.596	-0.092	0.247
-383.975	241.310	0.055	-0.091
-382.960	-85.868	0.183	0.056
-381.946	-31.190	-0.273	-0.152
-380.931	-124.864	-0.131	0.020
-379.917	-154.118	-0.486	-0.032
-378.902	-200.000	-0.034	0.269
-377.888	290.770	-0.080	-0.143
-376.873	55.397	0.140	-0.134
-375.858	800.000	0.073	0.297
-374.844	184.199	0.056	-0.082
-373.829	-7.741	-0.151	-0.100
-372.815	51.315	0.236	-0.221
-371.800	443.547	-0.051	0.109
-370.785	-46.962	-0.087	0.042
-369.771	240.713	0.053	-0.087
-368.756	-104.586	-0.227	-0.052
-367.742	350.091	0.033	-0.064
-366.727	305.768	0.120	0.220
-365.712	-200.000	0.011	-0.078
-364.698	9.410	-0.163	0.122
-363.683	42.839	0.319	0.286
-362.669	40.859	-0.170	0.151
-361.654	-27.396	-0.289	0.166
-360.639	-171.231	0.232	0.008
-359.625	303.853	0.111	0.203
-358.610	376.171	-0.029	-0.058
-357.596	-74.898	-0.373	0.132
-356.581	-94.520	0.256	-0.069
-355.566	124.451	-0.208	0.258
-354.552	745.094	-0.192	0.510
-353.537	128.442	-0.100	0.126
-352.523	357.973	-0.123	0.243
-351.508	-23.022	0.164	0.098
-350.493	-97.183	-0.142	0.037
-349.479	19.684	0.379	-0.300
-348.464	65.990	0.076	0.076
-347.450	-94.598	0.294	0.079
-346.435	-200.000	0.005	0.130
-345.420	225.612	0.118	0.189
-344.406	88.568	0.075	0.082
-343.391	108.419	0.132	-0.155
-342.377	-8.717	0.048	-0.032
-341.362	126.975	-0.150	-0.187
-340.348	-118.232	-0.063	-0.011
-339.333	-2.310	0.335	0.231
-338.318	-88.239	0.163	-0.048
-337.304	-200.000	-0.033	0.231
-336.289	0.132	-0.263	0.184
-335.275	77.195	0.181	0.190
-334.260	783.566	0.126	-0.340
-333.245	290.213	-0.066	-0.117
-332.231	-130.801	-0.233	0.031
-331.216	-162.982	-0.121	-0.006
-330.202	474.842	-0.072	-0.159
-329.187	-83.914	-0.229	0.072
-328.172	-95.230	-0.155	-0.041
-327.158	496.783	-0.106	-0.240
-326.143	100.495	0.072	-0.082
-325.129	-120.490	0.083	0.014
-324.114	237.685	0.105	-0.172
-323.099	-169.548	0.413	-0.015
-322.085	7.809	-0.203	-0.150
-321.070	-68.716	-0.178	0.068
-320.056	-200.000	-0.028	0.205
-319.041	-108.793	0.476	-0.100
-318.026	-200.000	0.003	-0.089
-317.012	5.435	-0.253	0.184
-315.997	-200.000	-0.023	0.161
-314.983	-141.291	-0.020	-0.002
-313.968	-61.083	-0.172	-0.071
-312.953	-200.000	-0.055	0.276
-311.939	-60.605	-0.164	0.069
-310.924	304.557	-0.119	0.217
-309.910	800.000	0.045	0.182
-308.895	41.119	-0.347	-0.308
-307.880	145.362	-0.228	-0.300
-306.866	404.945	-0.130	0.269
-305.851	-136.365	0.264	0.030
-304.837	-41.551	-0.109	0.055
-303.822	-127.264	0.225	-0.032
-302.807	-81.063	0.126	-0.041
-301.793	178.709	-0.058	-0.083
-300.778	60.424	0.089	0.086
-299.764	13.566	0.137	-0.104
-298.749	-1.907	-0.208	0.144
-297.735	151.146	-0.194	-0.259
-296.720	349.020	0.198	0.384
-295.705	-200.000	0.022	-0.150
-294.691	284.430	0.150	-0.266
-293.676	800.000	0.018	-0.075
-292.662	488.360	0.042	-0.095
-291.647	800.000	-0.014	-0.039
-290.632	-200.000	-0.011	-0.130
-289.618	-200.000	-0.467	0.001
-288.603	533.667	-0.065	-0.152
-287.589	94.671	-0.149	0.166
-286.574	-119.911	0.178	0.030
-285.559	-200.000	0.057	0.312
-284.545	-165.938	-0.031	-0.001
-283.530	71.332	0.106	-0.108
-282.516	56.463	0.210	0.201
-281.501	69.922	-0.063	0.064
-280.486	-166.057	0.326	-0.014
-279.472	31.259	0.224	-0.189
-278.457	-65.176	-0.312	-0.124
-277.443	80.015	0.300	0.316
-276.428	-32.469	-0.138	0.075
-275.413	-70.158	0.334	0.125
-274.399	-120.608	-0.185	-0.031
-273.384	800.000	0.080	-0.269
-272.370	-200.000	-0.026	-0.192
-271.355	292.908	0.057	0.103
-270.340	-93.257	-0.362	0.099
-269.326	800.000	0.113	-0.410
-268.311	-45.453	0.281	-0.137
-267.297	-90.151	-0.341	-0.098
-266.282	-39.844	-0.332	-0.171
-265.267	800.000	0.088	0.260
-264.253	-200.000	-0.045	-0.313
-263.238	-44.483	0.031	-0.015
-262.224	111.335	0.166	-0.197
-261.209	-57.223	-0.077	-0.033
-260.195	800.000	-0.135	-0.454
-259.180	-111.327	0.199	0.040
-258.165	-200.000	-0.012	0.306
-257.151	9.831	-0.087	0.065
-256.136	176.241	-0.206	-0.293
-255.122	381.600	-0.035	0.071
-254.107	56.833	-0.252	-0.241
-253.092	318.970	0.108	0.201
-252.078	-152.762	0.107	0.007
-251.063	-50.540	-0.119	-0.055
-250.049	-142.320	0.177	-0.017
-249.034	-200.000	0.006	-0.111
-248.019	253.074	0.106	0.177
-247.005	2.212	0.152	-0.108
-245.990	-87.187	0.157	-0.047
-244.976	-68.224	-0.249	-0.095
-243.961	800.000	-0.062	-0.176
-242.946	-200.000	-0.001	0.083
-241.932	-108.605	-0.165	-0.035
-240.917	-200.000	-0.010	0.116
-239.903	-39.283	0.371	0.191
-238.888	114.744	0.105	-0.125
-237.873	-84.011	0.247	-0.077
-236.859	-75.964	-0.247	-0.086
-235.844	-159.097	0.157	-0.009
-234.830	63.869	0.130	0.128
-233.815	84.406	-0.148	-0.159
-232.800	-138.640	0.204	-0.022
-231.786	800.000	-0.069	-0.290
-230.771	800.000	-0.117	-0.344
-229.757	360.599	0.109	-0.215
-228.742	546.890	-0.093	-0.218
-227.727	-200.000	0.015	0.142
-226.713	-200.000	-0.058	-0.357
-225.698	-200.000	0.022	-0.291
-224.684	130.122	-0.034	-0.043
-223.669	-83.402	0.099	0.031
-222.655	172.645	-0.106	-0.149
-221.640	647.085	0.111	-0.278
-220.625	-95.375	0.372	-0.098
-219.611	721.813	-0.123	0.321
-218.596	800.000	0.023	-0.082
-217.582	-83.031	0.142	0.045
-216.567	-22.524	-0.216	0.128
-215.552	707.420	0.021	0.055
-214.538	-144.368	-0.262	0.024
-213.523	-200.000	-0.042	-0.279
-212.509	-200.000	0.011	0.067
-211.494	143.840	-0.163	0.213
-210.479	418.653	-0.043	0.090
-209.465	-44.781	0.177	0.087
-208.450	207.465	-0.182	0.278
-207.436	62.882	0.136	0.134
-206.421	-31.203	-0.233	0.129
-205.406	-200.000	0.015	-0.234
-204.392	-200.000	0.022	-0.322
-203.377	-126.093	-0.250	-0.037
-202.363	-200.000	0.046	-0.211
-201.348	556.303	0.116	0.274
-200.333	-200.000	-0.046	-0.237
-199.319	184.609	0.081	0.118
-198.304	-32.349	0.158	0.087
-197.290	-200.000	-0.032	0.155
-196.275	800.000	0.037	0.134
-195.260	-98.344	-0.243	0.061
-194.246	-94.553	-0.199	0.053
-193.231	73.037	-0.248	0.254
-192.217	596.345	-0.070	0.169
-191.202	-200.000	0.072	0.337
-190.187	-107.383	0.158	0.034
-189.173	111.431	0.042	-0.050
-188.158	273.322	-0.048	-0.083
-187.144	-171.196	0.258	0.009
-186.129	-61.068	0.344	-0.142
-185.114	277.221	0.215	-0.374
-184.100	-36.458	0.345	-0.182
-183.085	-193.591	-0.147	0.001
-182.071	63.409	0.131	-0.128
-181.056	-78.620	0.221	0.074
-180.042	-158.461	0.159	0.009
-179.027	-164.745	0.066	-0.003
-178.012	800.000	-0.026	0.109
-176.998	-200.000	0.131	-0.000
-175.983	360.305	0.070	0.138
-174.969	-135.763	0.199	0.023
-173.954	105.707	0.176	0.204
-172.939	-200.000	0.028	0.130
-171.925	-1.574	-0.102	-0.070
-170.910	5.770	0.092	0.066
-169.896	800.000	-0.055	-0.235
-168.881	-49.791	0.111	0.052
-167.866	-200.000	-0.010	0.163
-166.852	-95.377	-0.424	0.111
-165.837	371.869	-0.030	-0.060
-164.823	-200.000	-0.079	-0.607
-163.808	37.575	-0.066	0.057
-162.793	800.000	-0.062	0.189
-161.779	209.943	-0.027	-0.041
-160.764	-82.709	-0.035	-0.011
-159.750	350.299	0.281	0.543
-158.735	109.129	0.029	-0.034
-157.720	88.783	0.032	-0.035
-156.706	-62.060	-0.122	-0.050
-155.691	-200.000	0.015	0.176
-154.677	120.539	-0.150	-0.182
-153.662	5.979	-0.268	0.194
-152.647	-61.401	0.282	-0.116
-151.633	543.408	0.107	0.250
-150.618	-26.300	-0.109	0.063
-149.604	66.384	0.097	0.096
-148.589	-7.426	0.160	0.106
-147.574	-44.825	-0.288	0.140
-146.560	-82.976	-0.385	-0.122
-145.545	-131.043	0.688	0.090
-144.531	355.537	-0.119	0.232
-143.516	141.006	-0.158	-0.204
-142.502	-138.735	-0.292	-0.031
-141.487	190.413	0.199	0.292
-140.472	-13.634	0.167	-0.106
-139.458	-91.916	0.269	0.075
-138.443	-75.941	0.272	0.094
-137.429	312.826	-0.107	0.197
-136.414	-104.794	-0.169	-0.038
-135.399	-74.746	0.260	0.091
-134.385	800.000	-0.069	-0.221
-133.370	159.943	-0.193	0.262
-132.356	-53.297	0.378	0.170
-131.341	373.978	0.082	0.162
-130.326	-200.000	0.035	-0.216
-129.312	743.417	0.067	-0.175
-128.297	195.299	-0.242	-0.359
-127.283	1.573	0.444	-0.313
-126.268	271.293	0.116	-0.200
-125.253	-200.000	-0.016	0.356
-124.239	-200.000	-0.010	0.063
-123.224	25.371	0.089	0.073
-122.210	-41.147	-0.278	-0.140
-121.195	82.204	0.310	-0.328
-120.180	-51.235	0.224	-0.102
-119.166	-200.000	-0.031	0.319
-118.151	318.970	0.126	0.234
-117.137	-106.624	-0.101	0.022
-116.122	-89.692	0.417	-0.119
-115.107	62.629	0.105	-0.102
-114.093	160.908	-0.144	0.196
-113.078	-140.711	-0.160	0.016
-112.064	83.585	-0.197	-0.210
-111.049	-133.300	-0.396	0.049
-110.034	800.000	0.085	-0.241
-109.020	12.246	0.108	0.082
-108.005	709.377	-0.084	-0.216
-106.991	-63.929	-0.237	0.095
-105.976	-47.372	-0.171	-0.081
-104.962	-200.000	-0.014	-0.107
-103.947	430.664	-0.123	0.259
-102.932	153.012	-0.053	0.071
-101.918	-200.000	-0.149	0.665
-100.903	194.425	-0.170	-0.251
-99.889	60.571	0.074	0.072
-98.874	85.147	0.240	0.257
-97.859	-24.979	0.266	0.154
-96.845	800.000	-0.144	0.415
-95.830	-200.000	-0.067	-0.380
-94.816	-200.000	-0.030	-0.144
-93.801	-200.000	0.006	-0.253
-92.786	-200.000	0.029	0.212
-91.772	-200.000	0.005	-0.239
-90.757	0.434	0.250	0.174
-89.743	-179.473	0.352	-0.008
-88.728	133.507	0.082	-0.104
-87.713	-200.000	-0.018	-0.104
-86.699	33.218	0.186	0.158
-85.684	261.484	0.149	0.251
-84.670	800.000	0.052	-0.141
-83.655	239.824	-0.069	0.112
-82.640	228.612	-0.093	-0.147
-81.626	-87.006	0.158	0.047
-80.611	-22.719	-0.057	-0.034
-79.597	-57.797	0.180	0.077
-78.582	-143.943	-0.277	0.025
-77.567	439.240	0.129	-0.274
-76.553	-93.019	0.310	0.084
-75.538	-79.695	0.356	0.117
-74.524	234.292	0.039	-0.063
-73.509	800.000	0.164	0.522
-72.494	-200.000	0.025	0.183
-71.480	149.186	0.142	-0.188
-70.465	-112.284	-0.071	-0.014
-69.451	-200.000	0.004	-0.364
-68.436	-117.051	0.350	-0.062
-67.422	-18.135	-0.186	-0.114
-66.407	-56.099	-0.136	-0.059
-65.392	-192.102	0.392	-0.004
-64.378	-138.966	0.100	-0.011
-63.363	69.517	0.226	0.227
-62.349	-81.724	0.359	0.115
-61.334	101.243	-1.043	-1.184
-60.319	32.899	0.934	0.788
-59.305	599.526	-0.500	-1.208
-58.290	487.952	0.734	1.633
-57.276	790.277	0.551	1.475
-56.261	-200.000	135.601	685.814
-55.246	336.883	1679.660	3178.576
-54.232	133.949	2804.396	3537.797
-53.217	88.021	2170.985	2345.403
-52.203	32.184	1601.324	1345.567
-51.188	24.310	1350.044	1086.610
-50.173	22.064	1313.594	1043.897
-49.159	50.054	1387.654	1275.498
-48.144	46.296	1396.537	1260.635
-47.130	24.420	1344.187	1082.392
-46.115	21.258	1324.374	1047.464
-45.100	21.093	1319.108	1042.270
-44.086	21.077	1316.247	1039.873
-43.071	20.847	1314.629	1037.185
-42.057	20.922	1312.366	1035.804
-41.042	20.966	1310.938	1034.898
-40.027	21.052	1309.000	1033.838
-39.013	20.994	1307.691	1032.418
-37.998	21.118	1305.472	1031.360
-36.984	21.084	1304.311	1030.200
-35.969	21.129	1302.339	1028.869
-34.954	21.113	1300.869	1027.574
-33.940	21.062	1299.412	1026.081
-32.925	21.147	1298.137	1025.533
-31.911	21.250	1296.462	1024.770
-30.896	21.221	1295.270	1023.620
-29.881	21.196	1293.708	1022.197
-28.867	21.173	1292.801	1021.306
-27.852	21.238	1291.095	1020.297
-26.838	21.183	1289.957	1019.036
-25.823	21.280	1288.372	1018.310
-24.809	21.158	1286.962	1016.441
-23.794	21.172	1285.945	1015.683
-22.779	21.237	1284.080	1014.546
-21.765	21.145	1283.313	1013.369
-20.750	21.239	1281.561	1012.489
-19.736	21.087	1280.897	1011.043
-18.721	21.055	1279.662	1009.844
-17.706	21.058	1278.382	1008.808
-16.692	21.047	1277.462	1007.978
-15.677	21.076	1276.298	1007.191
-14.663	21.116	1274.878	1006.259
-13.648	21.021	1273.932	1004.927
-12.633	21.068	1273.381	1004.719
-11.619	21.182	1271.834	1004.115
-10.604	21.135	1271.592	1003.614
-9.590	21.078	1270.715	1002.555
-8.575	21.091	1269.024	1001.256
-7.560	21.173	1268.236	1001.062
-6.546	21.104	1267.952	1000.405
-5.531	21.045	1267.012	999.285
-4.517	21.060	1266.225	998.712
-3.502	21.050	1265.564	998.094
-2.487	21.073	1264.469	997.322
-1.473	21.006	1259.954	993.340
-0.458	19.266	1244.789	971.545
0.556	14.961	1229.316	935.098
1.571	11.417	1238.017	921.653
2.586	10.684	1253.679	929.035
3.600	10.751	1241.079	919.999
4.615	8.030	1169.511	852.327
5.629	3.060	1100.521	776.912
6.644	0.829	1084.455	754.384
7.659	0.590	1082.506	751.772
8.673	0.700	1081.390	751.480
9.688	0.601	1080.346	750.197
10.702	0.902	1077.877	749.906
11.717	3.846	1080.922	766.568
12.731	10.065	1089.510	803.586
13.746	15.442	1096.223	835.295
14.761	17.228	1098.377	845.759
15.775	16.497	1096.806	840.842
16.790	15.631	1094.405	834.626
17.804	14.899	1093.084	829.915
18.819	14.492	1091.729	826.793
19.834	14.302	1091.303	825.455
20.848	14.063	1090.503	823.596
21.863	13.813	1089.473	821.506
22.877	13.729	1088.611	820.369
23.892	13.729	1087.429	819.407
24.907	13.766	1086.844	819.072
25.921	13.608	1086.515	817.975
26.936	13.908	1085.456	818.583
27.950	13.784	1084.472	817.159
28.965	13.717	1083.196	815.797
29.980	13.864	1081.740	815.349
30.994	13.962	1080.460	814.794
32.009	13.755	1080.135	813.459
33.023	13.915	1079.168	813.444
34.038	13.869	1078.086	812.330
35.053	13.936	1077.177	811.904
36.067	13.820	1076.677	810.886
37.082	13.743	1075.690	809.693
38.096	13.849	1074.743	809.426
39.111	13.815	1073.847	808.514
40.126	13.698	1073.092	807.304
41.140	13.808	1071.366	806.471
42.155	13.738	1070.599	805.481
43.169	13.760	1068.980	804.300
44.184	13.700	1068.423	803.521
45.199	13.736	1067.000	802.550
46.213	13.811	1065.897	802.013
47.228	13.770	1064.909	801.002
48.242	13.727	1064.132	800.140
49.257	13.806	1063.297	799.819
50.271	13.871	1062.060	799.132
51.286	13.787	1061.160	797.979
52.301	13.820	1060.132	797.295
53.315	13.709	1059.730	796.391
54.330	13.758	1058.374	795.532
55.344	13.762	1057.190	794.596
56.359	13.718	1056.559	793.837
57.374	13.700	1055.801	793.111
58.388	13.639	1054.952	792.113
59.403	13.645	1053.963	791.327
60.417	13.675	1053.093	790.748
61.432	13.728	1052.110	790.192
62.447	13.647	1051.288	789.119
63.461	13.590	1050.769	788.391
64.476	13.578	1049.658	787.428
65.490	13.565	1048.826	786.675
66.505	13.722	1048.170	786.859
67.520	13.592	1047.890	785.963
68.534	13.763	1046.789	785.875
69.549	13.695	1046.174	785.022
70.563	13.559	1045.208	783.582
71.578	13.636	1044.437	783.302
72.593	13.674	1042.930	782.280
73.607	13.538	1043.363	781.894
74.622	13.624	1042.359	781.478
75.636	13.580	1041.252	780.373
76.651	13.526	1040.928	779.809
77.666	13.537	1040.028	779.114
78.680	13.489	1039.640	778.531
79.695	13.612	1038.153	777.923
80.709	13.609	1038.300	777.951
81.724	13.728	1037.276	777.672
82.739	13.646	1036.505	776.642
83.753	13.778	1035.656	776.556
84.768	13.919	1034.396	776.201
85.782	13.900	1033.950	775.711
86.797	13.910	1032.625	774.692
87.812	13.688	1032.420	773.435
88.826	13.776	1031.029	772.735
89.841	13.724	1030.042	771.683
90.855	13.906	1028.817	771.545
91.870	13.831	1028.062	770.560
92.884	13.818	1027.440	769.968
93.899	13.750	1026.852	769.145
94.914	14.017	1025.355	769.191
95.928	13.953	1024.884	768.471
96.943	13.902	1023.896	767.426
97.957	13.851	1022.861	766.347
98.972	13.872	1022.047	765.766
99.987	13.904	1021.022	765.081
101.001	13.798	1020.414	764.066
102.016	13.873	1019.039	763.318
103.030	13.913	1018.367	762.931
104.045	13.850	1018.055	762.337
105.060	13.791	1017.107	761.291
106.074	13.774	1016.230	760.488
107.089	13.687	1015.243	759.286
108.103	13.817	1014.260	759.079
109.118	13.801	1013.106	758.072
110.133	13.723	1012.190	756.965
111.147	13.790	1011.663	756.808
112.162	13.709	1010.885	755.791
113.176	13.658	1010.540	755.234
114.191	13.853	1009.563	755.324
115.206	13.734	1008.732	754.094
116.220	13.822	1007.911	753.812
117.235	13.865	1006.411	752.821
118.249	13.893	1005.902	752.499
119.264	13.748	1005.406	751.405
120.279	13.796	1004.639	750.983
121.293	13.715	1003.581	749.760
122.308	13.762	1003.100	749.547
123.322	13.950	1001.590	749.200
124.337	13.816	1000.395	747.637
125.352	13.656	999.697	746.325
126.366	13.676	998.299	745.306
127.381	13.685	997.488	744.678
128.395	13.757	996.582	744.260
129.410	13.928	995.351	744.039
130.424	13.828	995.026	743.284
131.439	13.917	993.852	742.735
132.454	13.834	993.121	741.755
133.468	13.861	992.189	741.114
134.483	13.808	991.645	740.404
135.497	13.789	990.598	739.474
136.512	13.743	989.939	738.711
137.527	13.892	989.096	738.681
138.541	13.784	988.474	737.670
139.556	13.821	987.616	737.130
140.570	13.861	987.066	736.830
141.585	13.910	986.127	736.283
142.600	13.888	985.034	735.302
143.614	13.898	984.321	734.747
144.629	14.083	983.187	734.653
145.643	14.027	982.497	733.829
146.658	13.926	981.152	732.311
147.673	13.951	980.127	731.593
148.687	14.012	979.133	731.057
149.702	13.870	978.744	730.074
150.716	13.965	977.525	729.517
151.731	13.939	977.024	728.968
152.746	13.977	976.496	728.673
153.760	14.023	975.673	728.196
154.775	14.055	975.208	727.928
155.789	14.112	974.626	727.675
156.804	13.968	973.916	726.452
157.819	14.085	972.977	726.199
158.833	14.176	972.248	725.986
159.848	14.128	971.414	725.089
160.862	14.170	970.560	724.572
161.877	14.019	969.658	723.177
162.892	13.944	968.921	722.236
163.906	14.042	967.657	721.656
164.921	14.006	966.867	720.848
165.935	14.033	966.060	720.300
166.950	14.149	965.162	720.070
167.964	14.088	964.620	719.335
168.979	14.257	963.299	719.017
169.994	14.144	962.681	718.008
171.008	14.209	962.148	717.824
172.023	14.363	961.151	717.682
173.037	14.273	960.473	716.723
174.052	14.281	960.136	716.442
175.067	14.351	959.178	715.968
176.081	14.175	959.073	715.068
177.096	14.173	958.184	714.334
178.110	14.258	957.817	714.360
179.125	14.197	957.309	713.657
180.140	14.322	956.421	713.467
181.154	14.351	956.149	713.328
182.169	14.118	955.465	711.755
183.183	14.436	954.657	712.452
184.198	14.472	953.634	711.776
185.213	14.526	952.858	711.368
186.227	14.476	952.362	710.720
187.242	14.449	952.172	710.402
188.256	14.533	950.961	709.790
189.271	14.594	950.337	709.521
190.286	14.292	949.931	707.871
191.300	14.277	949.088	707.116
192.315	14.382	948.366	706.961
193.329	14.260	947.943	706.068
194.344	14.455	947.103	706.203
195.359	14.541	946.505	706.061
196.373	14.532	945.711	705.368
197.388	14.308	945.918	704.513
198.402	14.597	944.861	704.884
199.417	14.534	944.055	703.953
200.432	14.565	944.014	703.992
201.446	14.709	943.133	703.880
202.461	14.667	942.686	703.306
203.475	14.767	941.859	703.049
204.490	14.692	941.403	702.332
205.504	14.671	940.384	701.420
206.519	14.712	939.868	701.146
207.534	14.792	939.039	700.799
208.548	14.699	938.513	699.955
209.563	14.575	937.563	698.666
210.577	14.803	936.880	699.050
211.592	14.768	936.322	698.425
212.607	14.830	935.397	697.933
213.621	14.970	934.338	697.663
214.636	14.843	933.875	696.727
215.650	14.864	933.556	696.515
216.665	14.821	932.873	695.766
217.680	14.767	932.230	694.998
218.694	14.983	931.164	695.040
219.709	14.952	930.856	694.622
220.723	14.996	929.809	693.961
221.738	14.974	929.148	693.316
222.753	14.832	928.875	692.460
223.767	14.961	928.044	692.316
224.782	14.965	927.546	691.898
225.796	14.891	927.165	691.245
226.811	14.996	925.975	690.731
227.826	14.892	925.806	690.117
228.840	15.082	924.386	689.778
229.855	14.891	923.840	688.524
230.869	14.822	922.813	687.413
231.884	14.942	922.770	687.813
232.899	14.943	921.441	686.766
233.913	15.035	920.994	686.752
234.928	15.026	920.206	686.064
235.942	14.902	919.979	685.327
236.957	15.058	919.709	685.704
237.972	14.998	918.650	684.608
238.986	15.018	918.221	684.310
240.001	15.088	917.155	683.740
241.015	15.247	916.509	683.848
242.030	14.941	916.504	682.535
243.045	15.220	915.643	682.970
244.059	15.096	914.912	681.862
245.074	15.254	914.162	681.885
246.088	15.245	913.321	681.159
247.103	15.160	913.022	680.532
248.117	15.303	912.486	680.654
249.132	15.346	912.145	680.512
250.147	15.243	911.245	679.361
251.161	15.414	910.451	679.403
252.176	15.560	909.594	679.295
253.190	15.475	909.436	678.772
254.205	15.555	908.428	678.281
255.220	15.458	908.133	677.610
256.234	15.572	907.126	677.259
257.249	15.517	906.305	676.365
258.263	15.565	905.410	675.832
259.278	15.504	905.336	675.470
260.293	15.557	904.789	675.213
261.307	15.552	904.069	674.599
262.322	15.774	903.097	674.701
263.336	15.781	902.284	674.064
264.351	15.769	901.642	673.475
265.366	15.732	901.184	672.928
266.380	15.817	900.622	672.787
267.395	15.712	899.957	671.812
268.409	15.763	899.157	671.359
269.424	15.710	898.453	670.562
270.439	15.761	897.423	669.937
271.453	15.723	897.000	669.410
272.468	15.648	896.735	668.857
273.482	15.697	896.172	668.572
274.497	15.665	895.661	668.006
275.512	15.663	895.086	667.507
276.526	15.740	894.376	667.223
277.541	15.813	893.364	666.701
278.555	15.864	893.344	666.830
279.570	15.891	892.186	666.011
280.585	15.893	891.599	665.521
281.599	15.922	890.733	664.933
282.614	15.816	890.118	663.996
283.628	15.869	889.627	663.778
284.643	15.857	889.160	663.325
285.657	15.916	888.506	663.012
286.672	15.862	887.911	662.296
287.687	15.932	887.112	661.916
288.701	15.898	886.761	661.463
289.716	16.040	886.083	661.455
290.730	15.998	885.890	661.088
291.745	16.060	884.585	660.297
292.760	16.066	884.133	659.925
293.774	16.046	883.375	659.223
294.789	16.146	882.586	658.969
295.803	16.162	881.886	658.449
296.818	16.142	881.483	658.012
297.833	16.137	880.517	657.211
298.847	16.222	880.051	657.137
299.862	16.145	879.584	656.430
300.876	16.364	878.831	656.664
301.891	16.251	878.247	655.729
302.906	16.407	877.844	655.978
303.920	16.338	877.648	655.503
304.935	16.380	876.560	654.796
305.949	16.441	876.041	654.587
306.964	16.327	875.245	653.493
307.979	16.356	875.077	653.422
308.993	16.414	874.272	652.987
310.008	16.483	873.602	652.696
311.022	16.350	873.430	651.995
312.037	16.431	872.392	651.473
313.052	16.351	872.046	650.850
314.066	16.346	871.450	650.328
315.081	16.393	870.591	649.813
316.095	16.329	870.342	649.322
317.110	16.236	869.408	648.210
318.125	16.330	869.044	648.244
319.139	16.431	868.830	648.412
320.154	16.424	868.260	647.903
321.168	16.494	867.543	647.581
322.183	16.464	866.740	646.810
323.197	16.494	866.325	646.554
324.212	16.567	865.770	646.364
325.227	16.593	865.061	645.877
326.241	16.282	864.963	644.557
327.256	16.573	864.270	645.096
328.270	16.514	863.477	644.220
329.285	16.639	862.732	644.083
330.300	16.432	862.600	643.142
331.314	16.471	861.895	642.706
332.329	16.509	861.407	642.431
333.343	16.615	861.041	642.503
334.358	16.549	860.470	641.768
335.373	16.725	860.017	642.041
336.387	16.699	859.391	641.419
337.402	16.691	859.299	641.263
338.416	16.772	859.385	641.577
339.431	16.763	858.844	641.084
340.446	16.763	858.441	640.728
341.460	16.942	857.692	640.786
342.475	16.743	857.610	639.918
343.489	16.852	856.571	639.497
344.504	16.928	856.119	639.390
345.519	16.957	855.792	639.197
346.533	16.820	855.681	638.541
347.548	16.993	855.105	638.705
348.562	16.935	854.370	637.882
349.577	16.947	853.654	637.339
350.592	16.927	853.187	636.858
351.606	16.789	852.694	635.913
352.621	16.899	851.701	635.530
353.635	16.948	851.139	635.238
354.650	16.970	850.177	634.547
355.665	16.986	850.006	634.422
356.679	17.032	849.200	633.938
357.694	17.117	848.300	633.527
358.708	17.123	847.982	633.255
359.723	17.061	847.271	632.437
360.738	17.112	846.979	632.352
361.752	17.142	846.098	631.750
362.767	17.198	845.554	631.498
363.781	17.138	845.284	631.015
364.796	17.205	844.830	630.868
365.810	17.259	844.209	630.550
366.825	17.244	843.569	629.962
367.840	17.359	843.134	630.006
368.854	17.193	842.880	629.147
369.869	17.297	842.301	629.045
370.883	17.171	842.118	628.386
371.898	17.303	841.808	628.586
372.913	17.408	841.115	628.402
373.927	17.412	840.655	628.017
374.942	17.355	840.269	627.464
375.956	17.482	839.761	627.495
376.971	17.590	839.108	627.351
377.986	17.503	838.888	626.809
379.000	17.348	838.532	625.919
380.015	17.475	838.121	626.022
381.029	17.505	837.662	625.736
382.044	17.629	836.623	625.360
383.059	17.672	836.116	625.081
384.073	17.740	835.462	624.785
385.088	17.712	834.731	624.083
386.102	17.585	834.342	623.271
387.117	17.515	833.967	622.679
388.132	17.597	833.316	622.439
389.146	17.652	832.758	622.167
390.161	17.634	832.121	621.572
391.175	17.633	831.909	621.353
392.190	17.721	830.910	620.871
393.205	17.666	830.569	620.362
394.219	17.530	830.538	619.791
395.234	17.624	830.314	619.910
396.248	17.722	829.436	619.556
397.263	17.709	829.188	619.269
398.278	17.704	828.728	618.853
399.292	17.652	828.307	618.294
400.307	17.596	827.719	617.599
401.321	17.637	827.229	617.325
402.336	17.840	826.548	617.497
403.350	17.779	826.429	617.134
404.365	17.805	825.974	616.832
405.380	17.755	825.270	616.071
406.394	17.926	824.881	616.345
407.409	17.821	824.567	615.676
408.423	17.984	823.982	615.774
409.438	17.964	824.080	615.721
410.453	18.020	823.195	615.206
411.467	18.107	822.821	615.186
412.482	18.198	822.167	614.969
413.496	18.090	821.825	614.269
414.511	17.975	821.911	613.868
415.526	17.925	821.474	613.308
416.540	18.123	820.507	613.239
417.555	17.965	820.543	612.646
418.569	18.049	819.552	612.155
419.584	18.208	819.027	612.274
420.599	18.186	818.512	611.759
421.613	115.925	1301.358	1491.888
422.628	100.552	1371.665	1491.983
