DTS Sentinel unit serial number:	SN413079Multiplexer serial number:	ORYXHardware model number:	OX4-SRSoftware version number:	ORYX F/W v4.00 Oryx Data Collector v3.7.2.0data status	okinstallation	princeton_trtdifferential loss correction	single-endedforward channel	channel 1reverse channel	N/Adate	2019/09/12time	21:26:35forward acquisition time	60.00reverse acquisition time	0.00gamma	496.2192k internal	0.2326k external	0.2326temperature offset calibration	1.0135default loss term (dB/km)	0.3790temperature slope calibration	1.0000multiplexer offset coefficient	1.0000multiplexer slope coefficient	1.0000fibre end	0.00T internal ref (°C)	30.50T ext. ref 1 (°C)	3.61T ext. ref 2 (°C)	25.10length (m)	temperature (°C)	Stokes	anti-Stokes-747.200	274.841	0.044	-0.079
-746.185	-57.989	-0.113	-0.050
-745.171	19.452	0.098	0.079
-744.156	-66.114	0.166	0.067
-743.142	-63.253	0.397	-0.165
-742.127	-29.795	0.229	0.132
-741.112	1.232	0.255	0.184
-740.098	-96.661	0.063	-0.017
-739.083	-200.000	-0.005	-0.062
-738.069	76.059	0.175	0.186
-737.054	800.000	0.030	0.107
-736.039	29.805	-0.092	0.079
-735.025	130.493	-0.094	0.122
-734.010	-200.000	-0.004	-0.154
-732.996	-32.765	0.247	-0.138
-731.981	-200.000	0.011	0.120
-730.966	94.873	0.045	-0.051
-729.952	330.082	-0.051	0.100
-728.937	-200.000	0.020	0.262
-727.923	-200.000	0.024	0.163
-726.908	154.859	-0.092	-0.128
-725.894	232.010	0.109	0.180
-724.879	-67.258	-0.101	0.040
-723.864	35.840	-0.090	0.080
-722.850	264.274	0.090	-0.158
-721.835	-200.000	0.021	-0.216
-720.821	20.627	-0.212	-0.172
-719.806	68.376	-0.115	-0.119
-718.791	-20.318	-0.222	-0.137
-717.777	800.000	0.039	-0.113
-716.762	342.234	0.117	0.230
-715.748	-200.000	0.030	0.196
-714.733	7.231	0.039	0.030
-713.718	-200.000	-0.015	0.076
-712.704	-82.803	0.017	-0.006
-711.689	-200.000	0.052	-0.439
-710.675	-97.991	-0.121	0.031
-709.660	-125.788	-0.364	-0.055
-708.645	-33.814	-0.216	-0.120
-707.631	67.304	0.131	-0.135
-706.616	-13.092	-0.138	0.090
-705.602	42.240	0.096	0.088
-704.587	-200.000	0.004	-0.124
-703.572	-200.000	0.021	0.169
-702.558	38.863	0.309	-0.278
-701.543	78.257	-0.202	0.217
-700.529	-99.294	-0.425	-0.108
-699.514	-118.563	-0.135	-0.024
-698.499	-200.000	-0.005	-0.253
-697.485	-200.000	0.097	-0.000
-696.470	298.455	-0.150	-0.278
-695.456	-200.000	-0.054	-0.300
-694.441	-93.662	0.144	0.040
-693.426	230.616	-0.145	0.239
-692.412	-132.732	-0.225	0.029
-691.397	384.352	-0.105	-0.217
-690.383	530.066	-0.110	0.260
-689.368	696.585	-0.026	0.068
-688.354	64.209	0.117	-0.118
-687.339	87.514	-0.158	-0.176
-686.324	432.498	-0.048	-0.104
-685.310	-112.389	-0.329	-0.066
-684.295	-133.482	-0.049	-0.006
-683.281	-200.000	0.037	-0.396
-682.266	-20.145	-0.403	-0.250
-681.251	-200.000	-0.029	-0.165
-680.237	273.511	0.041	0.074
-679.222	-80.269	0.194	0.065
-678.208	800.000	-0.029	-0.102
-677.193	-108.629	0.245	-0.053
-676.178	263.478	0.057	-0.100
-675.164	10.927	-0.398	-0.306
-674.149	800.000	-0.005	0.021
-673.135	-52.308	0.148	-0.069
-672.120	63.548	0.130	-0.131
-671.105	39.872	0.045	-0.041
-670.091	-80.730	0.049	0.016
-669.076	196.541	-0.151	0.232
-668.062	240.134	0.041	0.069
-667.047	37.951	-0.073	0.065
-666.032	-200.000	-0.069	-0.419
-665.018	262.762	0.052	-0.091
-664.003	-11.583	0.199	-0.131
-662.989	93.397	0.180	-0.205
-661.974	11.230	-0.126	-0.097
-660.959	-200.000	-0.071	0.376
-659.945	-200.000	0.028	-0.202
-658.930	598.189	-0.121	0.302
-657.916	653.873	-0.070	0.180
-656.901	5.304	-0.090	0.067
-655.886	555.224	0.101	0.243
-654.872	-142.728	0.374	-0.037
-653.857	-200.000	-0.024	0.188
-652.843	-133.625	0.209	0.026
-651.828	110.341	-0.092	-0.111
-650.814	-157.133	-0.212	0.013
-649.799	-200.000	-0.007	0.074
-648.784	121.828	0.091	0.114
-647.770	400.485	0.083	-0.175
-646.755	459.693	0.091	-0.204
-645.741	800.000	0.129	-0.407
-644.726	800.000	-0.066	0.188
-643.711	34.789	-0.152	-0.133
-642.697	7.024	0.052	0.039
-641.682	2.583	-0.127	0.092
-640.668	119.383	-0.113	0.140
-639.653	-54.677	-0.118	-0.054
-638.638	15.355	-0.063	-0.050
-637.624	800.000	-0.041	-0.160
-636.609	-110.838	-0.141	0.029
-635.595	800.000	0.057	-0.196
-634.580	-200.000	-0.040	-0.227
-633.565	75.908	0.245	0.260
-632.551	511.901	-0.085	-0.199
-631.536	800.000	0.046	0.190
-630.522	-194.375	0.243	0.002
-629.507	58.845	0.045	0.044
-628.492	800.000	-0.134	-0.389
-627.478	-200.000	-0.014	-0.202
-626.463	686.608	-0.085	0.223
-625.449	-32.506	-0.197	-0.110
-624.434	-99.458	0.339	0.086
-623.419	-121.625	-0.219	-0.036
-622.405	-200.000	0.066	-0.403
-621.390	-106.568	0.242	-0.054
-620.376	388.910	0.097	0.202
-619.361	-120.102	-0.078	-0.013
-618.346	47.373	0.163	0.152
-617.332	-58.068	-0.266	0.117
-616.317	-42.866	0.130	0.066
-615.303	105.073	-0.036	-0.043
-614.288	-69.531	-0.037	-0.014
-613.273	800.000	0.048	-0.191
-612.259	-35.877	-0.128	-0.069
-611.244	-115.534	-0.080	0.015
-610.230	-189.209	-0.171	-0.002
-609.215	88.117	-0.256	-0.285
-608.201	26.979	-0.240	-0.202
-607.186	96.859	0.104	-0.120
-606.171	-31.985	-0.121	0.068
-605.157	469.376	-0.134	0.301
-604.142	51.370	0.092	0.087
-603.128	-94.483	0.317	-0.087
-602.113	268.355	0.084	0.147
-601.098	-200.000	0.038	0.260
-600.084	-200.000	-0.014	-0.178
-599.069	-12.575	-0.220	0.144
-598.055	-173.612	-0.229	0.007
-597.040	-200.000	0.005	0.121
-596.025	-64.750	-0.525	0.213
-595.011	800.000	-0.132	-0.486
-593.996	-130.786	-0.103	-0.014
-592.982	95.632	-0.244	-0.280
-591.967	-157.835	-0.248	0.015
-590.952	-45.506	-0.244	-0.121
-589.938	-200.000	-0.041	-0.392
-588.923	10.132	-0.089	-0.068
-587.909	632.765	0.099	0.251
-586.894	-37.398	0.089	-0.048
-585.879	800.000	-0.035	0.146
-584.865	-114.531	0.344	0.066
-583.850	-177.403	-0.125	-0.003
-582.836	-40.217	0.258	-0.134
-581.821	-97.131	0.116	0.030
-580.806	-74.997	-0.151	-0.054
-579.792	-200.000	-0.013	-0.086
-578.777	-70.547	0.177	-0.067
-577.763	800.000	-0.029	0.126
-576.748	65.527	-0.122	0.124
-575.733	-200.000	0.059	0.371
-574.719	18.037	0.225	-0.180
-573.704	32.311	-0.019	0.016
-572.690	-58.503	0.033	0.014
-571.675	800.000	0.110	-0.320
-570.661	107.037	-0.149	0.177
-569.646	373.450	0.027	-0.054
-568.631	-128.632	-0.270	0.038
-567.617	128.527	0.121	0.154
-566.602	143.318	0.136	0.182
-565.588	48.555	0.069	-0.065
-564.573	-55.960	-0.181	-0.081
-563.558	-200.000	0.026	-0.163
-562.544	-161.445	-0.141	-0.007
-561.529	-104.003	-0.288	-0.067
-560.515	-81.094	-0.360	0.119
-559.500	-110.617	-0.153	0.032
-558.485	311.621	0.103	-0.193
-557.471	800.000	0.055	0.178
-556.456	800.000	-0.070	-0.249
-555.442	-200.000	-0.090	0.442
-554.427	-4.462	-0.382	-0.264
-553.412	264.912	-0.078	0.136
-552.398	-72.684	0.379	-0.140
-551.383	-121.161	0.223	0.037
-550.369	-200.000	0.046	-0.260
-549.354	-81.054	0.221	-0.073
-548.339	800.000	-0.025	0.088
-547.325	125.954	-0.112	-0.141
-546.310	471.261	0.206	-0.464
-545.296	32.337	-0.157	0.136
-544.281	-86.599	0.167	0.051
-543.266	-200.000	0.052	0.554
-542.252	-138.832	-0.200	-0.022
-541.237	-62.999	0.707	0.292
-540.223	-200.000	0.022	0.523
-539.208	-20.923	-0.231	0.141
-538.193	135.197	-0.202	-0.263
-537.179	418.823	0.063	0.135
-536.164	136.391	0.149	-0.194
-535.150	-49.914	0.073	-0.035
-534.135	121.320	0.129	0.161
-533.121	122.401	0.279	-0.349
-532.106	211.163	0.075	0.119
-531.091	800.000	-0.032	0.126
-530.077	150.196	-0.061	0.082
-529.062	-30.919	0.043	0.025
-528.048	176.222	-0.316	-0.458
-527.033	4.976	-0.214	-0.157
-526.018	-116.375	-0.214	-0.040
-525.004	138.518	-0.092	-0.121
-523.989	8.839	0.202	-0.152
-522.975	800.000	-0.055	-0.200
-521.960	129.131	-0.168	-0.214
-520.945	-97.653	0.322	0.083
-519.931	-63.891	-0.388	-0.159
-518.916	-122.632	0.308	0.050
-517.902	-71.011	-0.436	-0.164
-516.887	139.298	0.190	-0.250
-515.872	133.459	0.089	-0.115
-514.858	45.542	-0.067	-0.062
-513.843	-23.226	0.067	0.040
-512.829	-98.945	-0.205	-0.052
-511.814	-40.108	-0.093	-0.048
-510.799	-200.000	0.011	-0.104
-509.785	57.432	0.068	0.066
-508.770	374.449	0.103	0.209
-507.756	44.417	-0.110	-0.101
-506.741	66.798	-0.154	0.157
-505.726	-200.000	0.078	0.402
-504.712	39.978	-0.231	0.207
-503.697	59.149	-0.181	0.178
-502.683	101.005	-0.207	0.240
-501.668	119.130	-0.110	0.136
-500.653	291.595	0.225	0.409
-499.639	616.024	0.056	-0.141
-498.624	-200.000	0.101	-0.465
-497.610	101.678	0.132	-0.153
-496.595	-200.000	0.017	0.263
-495.581	405.107	0.180	0.379
-494.566	-70.187	0.229	-0.087
-493.551	209.982	0.143	-0.224
-492.537	290.404	0.053	-0.096
-491.522	504.442	0.152	-0.351
-490.508	-6.360	0.274	-0.186
-489.493	106.833	0.267	0.317
-488.478	197.234	-0.171	0.260
-487.464	-65.813	0.206	0.082
-486.449	126.272	-0.101	-0.128
-485.435	-157.296	-0.123	0.007
-484.420	63.610	-0.278	-0.279
-483.405	-49.234	-0.132	-0.063
-482.391	-192.485	-0.235	-0.002
-481.376	301.408	0.060	0.110
-480.362	3.213	0.258	0.188
-479.347	151.375	-0.109	0.148
-478.332	314.929	0.102	0.192
-477.318	800.000	0.055	-0.184
-476.303	501.681	0.011	-0.025
-475.289	196.264	0.201	-0.305
-474.274	-16.772	0.112	0.071
-473.259	8.162	-0.169	-0.127
-472.245	384.593	-0.113	-0.232
-471.230	-145.354	-0.190	-0.017
-470.216	-200.000	0.051	0.408
-469.201	231.878	-0.041	0.067
-468.186	-120.875	-0.414	-0.070
-467.172	-46.479	0.091	-0.045
-466.157	343.194	0.192	-0.375
-465.143	-86.295	0.258	-0.079
-464.128	391.112	0.045	-0.094
-463.113	81.998	0.111	-0.120
-462.099	178.530	-0.146	-0.213
-461.084	-123.923	0.433	0.068
-460.070	-184.815	-0.199	0.003
-459.055	166.401	-0.148	0.209
-458.040	690.018	0.064	0.166
-457.026	800.000	-0.113	-0.431
-456.011	131.502	0.100	0.129
-454.997	260.074	-0.225	0.388
-453.982	-200.000	-0.027	0.162
-452.968	800.000	-0.011	-0.030
-451.953	-142.438	0.165	-0.016
-450.938	-136.937	-0.067	0.008
-449.924	-25.207	-0.010	0.006
-448.909	-8.795	0.227	-0.152
-447.895	-200.000	-0.031	-0.275
-446.880	209.332	0.099	-0.155
-445.865	800.000	0.042	-0.143
-444.851	800.000	-0.021	0.091
-443.836	-32.404	-0.215	0.119
-442.822	-81.603	-0.196	0.064
-441.807	263.711	0.136	0.236
-440.792	22.581	0.145	-0.118
-439.778	161.276	-0.094	-0.131
-438.763	-200.000	-0.020	-0.113
-437.749	-60.367	0.262	0.111
-436.734	27.308	-0.074	-0.062
-435.719	-11.935	0.294	-0.192
-434.705	196.005	0.104	-0.158
-433.690	18.663	0.140	-0.112
-432.676	-38.660	0.035	-0.018
-431.661	-200.000	0.037	0.200
-430.646	53.957	0.311	0.298
-429.632	131.992	-0.204	0.261
-428.617	215.227	0.138	0.218
-427.603	800.000	0.033	-0.143
-426.588	-69.609	0.101	0.039
-425.573	42.501	0.143	0.129
-424.559	-10.243	-0.109	0.072
-423.544	-200.000	-0.040	0.287
-422.530	64.286	0.011	-0.011
-421.515	520.608	0.162	-0.378
-420.500	97.959	-0.243	0.278
-419.486	-30.049	-0.179	0.102
-418.471	383.412	0.100	0.206
-417.457	-82.185	0.275	0.089
-416.442	288.861	-0.085	0.154
-415.428	800.000	0.092	-0.272
-414.413	27.295	0.269	-0.225
-413.398	800.000	-0.019	0.061
-412.384	-200.000	-0.026	-0.143
-411.369	-70.535	0.120	-0.045
-410.355	292.394	-0.074	0.134
-409.340	-181.547	0.102	0.002
-408.325	-200.000	0.001	-0.183
-407.311	607.451	0.102	-0.253
-406.296	-37.734	0.134	0.071
-405.282	335.317	0.054	0.104
-404.267	-113.130	-0.149	-0.029
-403.252	659.676	-0.023	-0.059
-402.238	-200.000	0.002	0.043
-401.223	-156.806	-0.305	-0.019
-400.209	111.270	0.057	0.068
-399.194	98.197	-0.209	0.240
-398.179	184.154	0.156	0.230
-397.165	710.420	-0.116	-0.306
-396.150	9.495	-0.224	-0.169
-395.136	-145.643	0.096	0.008
-394.121	-80.842	-0.210	0.069
-393.106	-65.003	0.077	-0.031
-392.092	299.607	0.156	0.286
-391.077	104.621	0.272	0.319
-390.063	173.081	0.271	0.388
-389.048	-20.122	-0.210	-0.129
-388.033	-117.808	0.191	-0.034
-387.019	-73.239	0.264	0.096
-386.004	330.501	0.019	-0.036
-384.990	-106.479	-0.075	-0.017
-383.975	-200.000	0.015	0.087
-382.960	-46.624	-0.164	0.080
-381.946	-13.194	-0.273	0.176
-380.931	-179.008	-0.221	0.005
-379.917	-200.000	0.011	0.231
-378.902	5.841	-0.151	-0.111
-377.888	-200.000	-0.016	0.076
-376.873	-29.097	-0.086	-0.049
-375.858	-27.151	-0.150	0.087
-374.844	-84.936	0.122	0.038
-373.829	79.444	-0.378	0.403
-372.815	383.716	-0.096	-0.196
-371.800	-0.449	0.501	0.353
-370.785	-49.139	0.114	-0.054
-369.771	-162.362	0.093	-0.005
-368.756	-19.703	0.361	0.222
-367.742	-162.654	0.292	-0.014
-366.727	-36.808	0.191	-0.102
-365.712	-102.235	-0.365	0.087
-364.698	24.968	-0.406	0.335
-363.683	69.360	0.133	-0.136
-362.669	356.821	-0.074	0.146
-361.654	6.585	-0.235	0.173
-360.639	21.595	-0.106	0.086
-359.625	-78.618	-0.052	0.018
-358.610	-81.571	0.249	-0.081
-357.596	-24.742	-0.038	-0.022
-356.581	800.000	-0.137	0.453
-355.566	-72.762	-0.087	-0.032
-354.552	8.105	-0.306	-0.228
-353.537	-108.216	0.206	0.044
-352.523	-6.744	-0.106	-0.071
-351.508	20.769	-0.164	0.132
-350.493	190.015	0.213	-0.318
-349.479	-4.260	0.188	-0.129
-348.464	-66.730	0.407	-0.160
-347.450	-146.411	-0.199	-0.017
-346.435	-72.035	-0.060	0.022
-345.420	55.823	-0.088	-0.084
-344.406	-200.000	-0.016	-0.221
-343.391	-200.000	-0.053	-0.250
-342.377	375.282	-0.064	0.130
-341.362	-0.843	0.017	-0.012
-340.348	-200.000	0.027	0.224
-339.333	800.000	0.157	0.528
-338.318	68.819	0.153	0.156
-337.304	-150.795	-0.364	0.027
-336.289	45.793	-0.181	0.166
-335.275	-119.276	0.247	-0.043
-334.260	800.000	0.035	-0.140
-333.245	-200.000	0.005	-0.158
-332.231	-200.000	0.016	-0.108
-331.216	800.000	0.050	0.217
-330.202	-25.271	0.225	-0.132
-329.187	709.137	0.035	0.091
-328.172	-96.671	-0.136	0.036
-327.158	-200.000	-0.025	0.216
-326.143	800.000	-0.021	-0.058
-325.129	-78.114	0.070	-0.024
-324.114	-50.783	0.107	-0.050
-323.099	-117.407	0.354	0.064
-322.085	115.713	-0.216	-0.262
-321.070	-120.669	0.336	-0.056
-320.056	-124.779	-0.232	-0.036
-319.041	506.072	-0.107	0.246
-318.026	54.181	-0.246	-0.235
-317.012	72.563	-0.262	-0.272
-315.997	443.191	0.097	0.210
-314.983	-200.000	0.049	-0.259
-313.968	-105.911	-0.102	0.023
-312.953	800.000	-0.067	0.223
-311.939	800.000	-0.079	0.256
-310.924	-112.714	0.321	0.063
-309.910	117.776	-0.306	0.373
-308.895	400.793	0.135	-0.281
-307.880	-149.379	0.255	0.020
-306.866	-200.000	-0.060	0.288
-305.851	106.313	-0.070	0.083
-304.837	722.982	-0.097	-0.255
-303.822	185.894	-0.222	-0.328
-302.807	-75.063	0.200	-0.071
-301.793	56.973	-0.132	0.128
-300.778	-66.858	-0.153	-0.060
-299.764	-46.981	0.173	0.084
-298.749	37.170	0.103	-0.090
-297.735	-119.132	-0.368	0.064
-296.720	-94.565	-0.193	0.052
-295.705	-200.000	-0.252	-0.001
-294.691	800.000	0.134	-0.392
-293.676	-146.591	0.277	-0.024
-292.662	-151.519	0.329	0.024
-291.647	550.630	-0.087	-0.207
-290.632	-82.225	0.291	0.094
-289.618	-161.390	-0.201	0.010
-288.603	800.000	0.071	-0.225
-287.589	589.026	0.124	-0.303
-286.574	-9.759	-0.164	-0.109
-285.559	800.000	0.037	0.152
-284.545	305.420	-0.210	-0.387
-283.530	68.459	0.060	-0.061
-282.516	644.332	0.073	0.184
-281.501	86.638	-0.030	0.033
-280.486	5.903	0.122	-0.089
-279.472	-107.927	-0.324	-0.070
-278.457	800.000	-0.040	-0.168
-277.443	242.952	-0.059	-0.098
-276.428	-115.389	0.217	-0.041
-275.413	-125.615	0.239	-0.036
-274.399	-200.000	-0.000	-0.115
-273.384	444.958	0.130	0.283
-272.370	-24.295	-0.165	-0.098
-271.355	-159.515	-0.118	-0.006
-270.340	12.438	0.045	0.034
-269.326	83.705	0.102	0.110
-268.311	-112.159	-0.156	-0.031
-267.297	-42.025	-0.318	-0.161
-266.282	564.440	-0.187	0.448
-265.267	-21.786	-0.111	0.067
-264.253	-86.304	0.272	-0.083
-263.238	153.371	-0.177	-0.240
-262.224	800.000	0.061	0.168
-261.209	24.367	-0.130	-0.106
-260.195	116.890	-0.122	0.148
-259.180	-113.789	-0.193	-0.037
-258.165	-148.971	0.199	-0.016
-257.151	271.970	-0.087	0.152
-256.136	800.000	0.088	0.366
-255.122	-49.075	-0.140	-0.066
-254.107	-200.000	0.005	0.041
-253.092	-200.000	0.007	-0.102
-252.078	150.361	0.256	-0.344
-251.063	684.174	0.111	-0.287
-250.049	78.995	0.244	0.258
-249.034	96.713	-0.096	0.108
-248.019	-200.000	-0.048	-0.280
-247.005	570.214	0.038	0.092
-245.990	-16.228	-0.111	-0.069
-244.976	-200.000	0.005	0.239
-243.961	-19.038	0.212	-0.130
-242.946	439.451	0.200	0.432
-241.932	-200.000	-0.011	0.114
-240.917	-72.111	0.053	0.019
-239.903	-139.595	-0.377	0.040
-238.888	-164.113	0.121	0.006
-237.873	-109.828	0.480	0.100
-236.859	-98.263	-0.024	-0.006
-235.844	149.781	0.112	0.150
-234.830	200.043	-0.236	0.358
-233.815	-47.020	-0.113	0.054
-232.800	-58.252	0.075	0.032
-231.786	165.894	-0.113	0.159
-230.771	361.986	0.076	0.151
-229.757	-21.448	0.321	-0.194
-228.742	-111.906	-0.251	-0.050
-227.727	-200.000	-0.029	0.237
-226.713	-82.031	0.542	-0.175
-225.698	284.571	-0.233	0.415
-224.684	-79.291	0.121	-0.041
-223.669	17.766	-0.243	-0.191
-222.655	-126.552	0.418	-0.061
-221.640	-65.624	0.307	-0.122
-220.625	-19.487	-0.220	-0.135
-219.611	800.000	0.065	-0.265
-218.596	-63.633	-0.438	-0.177
-217.582	-66.201	0.135	0.053
-216.567	-200.000	-0.051	-0.315
-215.552	-15.913	-0.094	-0.059
-214.538	800.000	0.090	0.297
-213.523	-28.970	-0.212	-0.120
-212.509	-200.000	0.053	-0.265
-211.494	43.432	-0.192	-0.174
-210.479	-200.000	0.002	-0.067
-209.465	-200.000	0.018	0.082
-208.450	800.000	0.088	-0.342
-207.436	369.112	0.072	0.144
-206.421	-96.399	0.141	0.037
-205.406	-115.949	-0.215	0.040
-204.392	122.379	-0.179	0.221
-203.377	-200.000	-0.035	0.247
-202.363	129.963	0.190	-0.240
-201.348	-115.443	0.381	0.071
-200.333	-200.000	0.015	-0.123
-199.319	47.757	-0.178	0.164
-198.304	143.146	-0.095	0.124
-197.290	-108.284	0.354	0.075
-196.275	800.000	0.042	0.149
-195.260	278.317	-0.148	-0.261
-194.246	-104.807	-0.142	0.032
-193.231	800.000	-0.033	-0.129
-192.217	800.000	0.002	-0.010
-191.202	-39.542	-0.297	0.153
-190.187	320.306	0.075	-0.140
-189.173	-127.703	0.225	0.032
-188.158	215.467	0.066	-0.104
-187.144	-129.128	0.057	0.008
-186.129	8.616	-0.280	-0.208
-185.114	-75.260	0.098	-0.034
-184.100	-128.411	0.417	-0.058
-183.085	9.041	-0.100	0.075
-182.071	-200.000	0.016	-0.084
-181.056	-0.419	0.191	0.134
-180.042	-34.037	-0.169	-0.092
-179.027	38.418	-0.114	0.101
-178.012	-200.000	0.007	-0.062
-176.998	-96.244	-0.124	0.032
-175.983	-127.825	0.173	0.025
-174.969	-24.902	-0.380	-0.223
-173.954	-43.690	0.206	0.102
-172.939	800.000	-0.158	0.442
-171.925	800.000	0.052	0.142
-170.910	610.213	-0.041	0.101
-169.896	800.000	0.067	0.182
-168.881	-84.822	-0.232	-0.072
-167.866	800.000	0.026	0.087
-166.852	630.880	0.088	0.220
-165.837	0.548	0.163	-0.115
-164.823	-200.000	0.015	0.127
-163.808	-33.019	0.399	-0.218
-162.793	-89.715	-0.124	-0.036
-161.779	379.332	0.153	-0.310
-160.764	800.000	-0.093	-0.264
-159.750	75.133	-0.202	-0.210
-158.735	-200.000	0.006	0.045
-157.720	64.740	0.140	0.139
-156.706	672.025	0.070	0.179
-155.691	-130.054	0.491	-0.066
-154.677	-96.798	-0.060	0.016
-153.662	203.964	-0.311	-0.475
-152.647	-82.439	-0.076	0.024
-151.633	800.000	-0.173	0.520
-150.618	-81.498	0.081	0.026
-149.604	-200.000	-0.006	-0.124
-148.589	800.000	0.057	0.230
-147.574	67.382	0.061	-0.061
-146.560	-30.236	0.336	0.188
-145.545	28.139	-0.124	-0.103
-144.531	-200.000	-0.020	0.339
-143.516	800.000	-0.153	0.440
-142.502	574.829	-0.120	0.288
-141.487	-33.431	0.261	-0.142
-140.472	26.984	0.167	0.138
-139.458	-40.044	-0.071	-0.037
-138.443	800.000	-0.102	0.323
-137.429	-200.000	-0.012	-0.285
-136.414	37.528	0.104	-0.091
-135.399	13.994	0.024	0.018
-134.385	-200.000	0.023	-0.102
-133.370	56.375	-0.098	0.094
-132.356	-200.000	0.029	0.394
-131.341	-65.495	0.234	0.093
-130.326	-200.000	0.007	-0.134
-129.312	-89.579	0.223	0.064
-128.297	-15.473	-0.241	0.152
-127.283	66.458	-0.058	-0.058
-126.268	-200.000	-0.045	0.246
-125.253	-27.298	-0.085	0.049
-124.239	94.115	0.136	0.152
-123.224	-42.447	0.304	-0.152
-122.210	107.024	0.128	-0.150
-121.195	134.405	-0.191	-0.244
-120.180	202.323	0.064	0.098
-119.166	619.483	0.048	-0.118
-118.151	-76.175	0.375	-0.130
-117.137	20.783	0.319	-0.254
-116.122	327.787	-0.119	0.224
-115.107	-50.816	0.207	0.096
-114.093	-200.000	-0.000	0.024
-113.078	93.020	-0.070	0.078
-112.064	81.758	0.247	-0.263
-111.049	-200.000	0.048	-0.366
-110.034	-200.000	0.011	-0.232
-109.020	-146.269	-0.410	0.035
-108.005	800.000	-0.044	-0.131
-106.991	70.835	-0.054	0.055
-105.976	-200.000	-0.067	0.453
-104.962	-200.000	0.168	-0.000
-103.947	625.016	-0.066	-0.165
-102.932	-200.000	-0.011	-0.172
-101.918	-62.050	0.201	-0.083
-100.903	-69.010	-0.084	-0.032
-99.889	-165.802	0.077	0.003
-98.874	-18.496	0.111	-0.068
-97.859	439.555	-0.024	0.051
-96.845	654.269	0.089	0.225
-95.830	800.000	-0.055	0.235
-94.816	-200.000	0.002	0.124
-93.801	-19.456	-0.183	0.112
-92.786	141.567	0.174	0.227
-91.772	79.955	0.055	0.058
-90.757	-178.268	0.208	0.005
-89.743	800.000	0.067	0.210
-88.728	-200.000	-0.007	-0.092
-87.713	190.211	-0.067	0.098
-86.699	-133.434	0.181	0.022
-85.684	-96.087	0.077	-0.020
-84.670	48.121	0.095	-0.087
-83.655	-200.000	-0.004	-0.126
-82.640	-57.213	0.259	0.112
-81.626	-200.000	0.052	0.445
-80.611	110.835	0.099	-0.118
-79.597	-35.406	0.140	-0.075
-78.582	-78.026	0.236	-0.080
-77.567	-200.000	-0.012	-0.115
-76.553	377.812	0.173	0.347
-75.538	-158.885	0.226	-0.013
-74.524	800.000	0.091	-0.332
-73.509	148.539	0.049	-0.065
-72.494	-54.691	0.247	0.110
-71.480	-142.300	0.191	-0.019
-70.465	725.704	0.070	-0.184
-69.451	-194.513	-0.191	-0.001
-68.436	800.000	0.055	0.208
-67.422	25.357	0.124	0.101
-66.407	-0.032	-0.051	0.036
-65.392	-27.376	-0.112	0.064
-64.378	-114.134	0.241	-0.046
-63.363	-125.149	0.206	0.031
-62.349	800.000	0.097	0.276
-61.334	130.532	-0.699	-0.879
-60.319	57.916	0.554	0.533
-59.305	146.519	-0.431	-0.568
-58.290	800.000	0.369	1.039
-57.276	800.000	0.508	1.498
-56.261	-200.000	103.574	577.320
-55.246	541.345	1437.110	3361.481
-54.232	188.029	2620.197	3842.841
-53.217	114.480	2136.404	2554.591
-52.203	42.071	1588.405	1415.379
-51.188	34.182	1324.643	1133.561
-50.173	30.840	1283.587	1079.060
-49.159	54.293	1335.440	1261.834
-48.144	55.388	1352.540	1284.413
-47.130	34.059	1307.772	1118.220
-46.115	30.589	1290.277	1083.048
-45.100	30.480	1285.526	1078.387
-44.086	30.324	1282.594	1074.981
-43.071	30.421	1280.303	1073.577
-42.057	30.368	1278.184	1071.452
-41.042	30.361	1276.684	1070.110
-40.027	30.393	1275.451	1069.221
-39.013	30.339	1273.531	1067.254
-37.998	30.368	1271.683	1065.831
-36.984	30.544	1269.514	1064.980
-35.969	30.629	1267.984	1064.144
-34.954	30.552	1266.320	1062.260
-33.940	30.447	1265.253	1060.724
-32.925	30.545	1263.977	1060.172
-31.911	30.541	1262.553	1058.912
-30.896	30.602	1260.766	1057.723
-29.881	30.641	1259.914	1057.184
-28.867	30.721	1257.896	1055.907
-27.852	30.699	1256.452	1054.523
-26.838	30.642	1255.385	1053.266
-25.823	30.570	1254.244	1051.859
-24.809	30.488	1252.959	1050.279
-23.794	30.575	1251.393	1049.414
-22.779	30.563	1249.867	1048.025
-21.765	30.628	1249.069	1047.677
-20.750	30.642	1247.636	1046.512
-19.736	30.613	1246.585	1045.430
-18.721	30.439	1245.231	1043.277
-17.706	30.450	1244.002	1042.265
-16.692	30.516	1242.708	1041.511
-15.677	30.375	1242.031	1040.113
-14.663	30.352	1241.054	1039.124
-13.648	30.397	1239.857	1038.331
-12.633	30.483	1238.507	1037.641
-11.619	30.444	1237.876	1036.854
-10.604	30.360	1237.064	1035.661
-9.590	30.473	1235.659	1035.072
-8.575	30.501	1234.473	1034.196
-7.560	30.402	1233.863	1033.092
-6.546	30.367	1233.484	1032.538
-5.531	30.327	1232.593	1031.533
-4.517	30.492	1231.512	1031.503
-3.502	30.395	1231.086	1030.563
-2.487	30.503	1229.546	1029.835
-1.473	30.302	1225.934	1025.658
-0.458	28.784	1210.904	1004.745
0.556	26.522	1193.317	966.332
1.571	22.699	1197.573	949.162
2.586	21.766	1212.033	955.453
3.600	21.240	1201.218	944.002
4.615	16.138	1130.835	862.584
5.629	7.645	1057.609	765.871
6.644	3.948	1038.759	734.628
7.659	3.675	1035.797	731.178
8.673	3.431	1034.728	729.205
9.688	3.397	1033.337	728.001
10.702	3.886	1031.510	728.955
11.717	9.191	1039.281	759.515
12.731	17.980	1051.573	810.305
13.746	23.064	1056.899	838.509
14.761	23.712	1057.531	842.010
15.775	23.141	1056.064	838.062
16.790	22.372	1055.100	833.586
17.804	22.080	1053.960	831.229
18.819	21.854	1053.145	829.445
19.834	21.984	1052.928	829.814
20.848	21.992	1052.470	829.418
21.863	22.012	1051.457	828.641
22.877	21.727	1050.752	826.668
23.892	21.690	1049.868	825.724
24.907	21.667	1049.085	824.928
25.921	21.650	1048.008	823.926
26.936	21.494	1046.642	822.048
27.950	21.622	1045.099	821.361
28.965	21.626	1044.059	820.488
29.980	21.688	1042.830	819.742
30.994	21.862	1041.906	819.759
32.009	21.978	1040.945	819.472
33.023	21.882	1039.825	818.068
34.038	21.709	1039.246	816.732
35.053	21.532	1038.691	815.402
36.067	21.565	1036.922	814.093
37.082	21.424	1036.701	813.191
38.096	21.726	1036.103	814.053
39.111	21.832	1035.537	814.028
40.126	21.640	1033.800	811.704
41.140	21.234	1032.332	808.600
42.155	21.002	1030.992	806.407
43.169	21.077	1029.644	805.625
44.184	20.832	1029.164	804.049
45.199	20.902	1028.322	803.642
46.213	21.203	1027.755	804.514
47.228	21.549	1027.522	805.854
48.242	21.711	1026.718	805.899
49.257	21.748	1025.595	805.117
50.271	21.820	1025.396	805.218
51.286	21.873	1024.316	804.540
52.301	21.836	1023.398	803.580
53.315	21.872	1021.910	802.505
54.330	21.436	1021.033	799.752
55.344	21.402	1020.111	798.806
56.359	21.361	1019.421	798.004
57.374	21.285	1018.388	796.779
58.388	21.065	1017.831	795.270
59.403	20.934	1016.956	793.919
60.417	21.146	1015.875	793.971
61.432	20.971	1015.190	792.571
62.447	21.027	1014.585	792.281
63.461	20.970	1014.099	791.572
64.476	20.831	1013.060	790.059
65.490	20.725	1012.052	788.724
66.505	20.783	1011.662	788.615
67.520	20.910	1010.691	788.363
68.534	20.759	1009.764	786.886
69.549	20.610	1008.946	785.505
70.563	20.410	1008.205	783.959
71.578	20.257	1007.188	782.409
72.593	20.142	1006.612	781.371
73.607	20.222	1006.055	781.229
74.622	20.429	1005.388	781.574
75.636	20.552	1004.618	781.460
76.651	20.489	1004.166	780.758
77.666	20.684	1003.373	780.949
78.680	20.454	1002.913	779.490
79.695	20.494	1002.476	779.260
80.709	20.925	1001.494	780.357
81.724	20.930	1001.238	780.109
82.739	21.054	1000.478	780.004
83.753	21.628	1000.553	782.558
84.768	22.254	999.324	784.321
85.782	22.268	999.443	784.408
86.797	22.250	997.963	783.098
87.812	21.934	997.176	781.005
88.826	22.024	995.976	780.397
89.841	22.075	995.639	780.287
90.855	22.160	994.614	779.794
91.870	22.035	993.923	778.627
92.884	22.031	992.949	777.777
93.899	21.949	992.079	776.666
94.914	22.129	990.960	776.516
95.928	21.926	990.461	775.161
96.943	21.741	989.167	773.260
97.957	21.578	988.576	772.011
98.972	21.759	987.621	771.997
99.987	21.804	986.947	771.597
101.001	21.868	985.564	770.730
102.016	21.899	984.637	770.075
103.030	22.030	984.298	770.317
104.045	21.932	983.386	769.102
105.060	21.732	982.964	767.832
106.074	21.454	981.595	765.477
107.089	21.219	980.478	763.512
108.103	20.968	979.412	761.517
109.118	20.818	977.918	759.633
110.133	20.735	976.614	758.191
111.147	20.678	976.006	757.405
112.162	20.657	975.585	756.918
113.176	20.863	975.074	757.353
114.191	21.136	974.212	757.802
115.206	21.077	973.413	756.855
116.220	20.950	972.440	755.480
117.235	20.933	971.456	754.575
118.249	20.760	970.800	753.252
119.264	20.721	969.814	752.251
120.279	20.516	969.470	751.034
121.293	20.459	968.496	749.967
122.308	20.463	967.170	748.891
123.322	20.422	965.948	747.699
124.337	20.201	964.852	745.838
125.352	20.414	964.286	746.247
126.366	20.434	963.090	745.344
127.381	20.735	962.242	745.910
128.395	20.655	961.968	745.291
129.410	20.612	961.311	744.532
130.424	20.997	960.006	745.097
131.439	21.094	959.642	745.165
132.454	21.043	959.385	744.682
133.468	20.981	958.427	743.607
134.483	21.115	957.564	743.445
135.497	21.157	956.882	743.026
136.512	21.106	955.677	741.810
137.527	21.176	954.582	741.192
138.541	21.056	954.580	740.612
139.556	21.120	954.157	740.492
140.570	21.493	953.439	741.448
141.585	21.764	952.507	741.806
142.600	21.886	951.822	741.722
143.614	22.179	950.991	742.248
144.629	22.188	950.216	741.613
145.643	21.918	949.173	739.596
146.658	21.681	947.779	737.448
147.673	21.445	946.925	735.727
148.687	21.250	945.712	733.901
149.702	21.168	944.616	732.640
150.716	21.197	943.839	732.092
151.731	21.196	943.481	731.748
152.746	21.319	942.979	731.806
153.760	21.470	942.072	731.672
154.775	21.549	941.622	731.587
155.789	21.561	941.262	731.292
156.804	21.517	940.508	730.458
157.819	21.756	939.468	730.584
158.833	22.014	938.778	731.055
159.848	22.099	938.449	731.087
160.862	21.844	936.833	728.706
161.877	21.314	935.991	725.785
162.892	21.150	934.478	723.867
163.906	20.911	933.431	722.005
164.921	21.035	932.829	721.985
165.935	21.192	932.007	721.934
166.950	21.242	931.336	721.561
167.964	21.283	930.210	720.790
168.979	21.291	929.399	720.131
169.994	21.261	928.186	719.006
171.008	21.493	927.889	719.666
172.023	21.726	927.558	720.305
173.037	21.847	927.027	720.322
174.052	21.670	926.211	718.902
175.067	21.195	924.999	715.948
176.081	20.897	924.191	714.041
177.096	20.804	923.994	713.445
178.110	20.920	923.140	713.194
179.125	20.895	922.678	712.675
180.140	21.183	922.432	713.598
181.154	21.408	922.404	714.432
182.169	21.563	922.388	714.989
183.183	21.755	921.252	714.826
184.198	21.707	920.412	713.919
185.213	21.513	919.960	712.715
186.227	21.668	919.266	712.745
187.242	21.783	919.032	712.965
188.256	22.064	918.393	713.551
189.271	21.926	917.671	712.365
190.286	21.661	916.403	710.244
191.300	21.043	915.063	706.640
192.315	20.779	914.440	705.027
193.329	20.792	914.186	704.823
194.344	20.956	913.546	704.931
195.359	21.266	913.158	705.819
196.373	21.380	912.737	705.892
197.388	21.727	912.595	707.122
198.402	22.047	911.977	707.871
199.417	22.152	911.782	708.077
200.432	22.365	911.540	708.688
201.446	22.386	911.016	708.299
202.461	22.385	910.542	707.867
203.475	22.135	909.904	706.301
204.490	21.628	908.533	703.140
205.504	21.678	907.309	702.330
206.519	21.614	907.039	701.803
207.534	21.490	906.332	700.699
208.548	21.729	905.863	701.231
209.563	21.759	904.809	700.472
210.577	21.662	904.711	699.948
211.592	22.145	904.170	701.392
212.607	22.406	903.354	701.739
213.621	21.958	902.914	699.548
214.636	21.979	902.062	698.913
215.650	22.008	901.622	698.625
216.665	22.089	900.649	698.131
217.680	22.264	900.489	698.640
218.694	22.282	899.569	697.937
219.709	21.978	898.939	696.181
220.723	21.990	898.305	695.675
221.738	21.908	897.369	694.562
222.753	21.806	896.969	693.790
223.767	22.025	896.729	694.410
224.782	22.346	896.013	695.061
225.796	22.408	895.731	695.024
226.811	22.142	894.681	693.101
227.826	21.853	894.088	691.441
228.840	21.784	893.117	690.355
229.855	21.803	892.385	689.806
230.869	21.608	891.969	688.654
231.884	21.655	891.336	688.289
232.899	21.562	890.651	687.336
233.913	21.532	889.501	686.268
234.928	21.244	889.032	684.715
235.942	21.117	888.735	683.931
236.957	21.192	888.003	683.599
237.972	21.242	887.589	683.415
238.986	21.284	886.974	683.045
240.001	21.310	886.263	682.542
241.015	21.556	885.675	682.986
242.030	21.574	885.645	682.976
243.045	21.658	885.245	682.932
244.059	21.711	884.559	682.548
245.074	21.870	884.022	682.692
246.088	21.918	883.424	682.358
247.103	22.243	883.175	683.368
248.117	22.426	883.418	684.208
249.132	22.865	882.812	685.380
250.147	23.192	882.620	686.440
251.161	23.083	882.154	685.594
252.176	23.233	881.496	685.605
253.190	23.451	880.518	685.624
254.205	23.416	880.292	685.253
255.220	23.062	879.452	683.174
256.234	22.926	879.033	682.260
257.249	22.963	878.087	681.609
258.263	22.881	877.088	680.458
259.278	22.946	876.809	680.430
260.293	22.939	876.533	680.128
261.307	23.114	875.919	680.266
262.322	23.190	875.128	679.882
263.336	23.071	874.500	678.877
264.351	22.957	873.818	677.853
265.366	23.102	873.049	677.750
266.380	23.269	872.809	678.144
267.395	22.973	872.086	676.390
268.409	22.797	871.168	674.946
269.424	22.880	870.546	674.721
270.439	22.929	869.097	673.723
271.453	22.731	868.593	672.521
272.468	22.652	868.158	671.822
273.482	22.710	867.697	671.625
274.497	22.597	867.422	670.925
275.512	22.631	866.939	670.621
276.526	22.729	866.235	670.388
277.541	22.815	866.209	670.636
278.555	22.955	866.208	671.108
279.570	23.289	865.065	671.430
280.585	23.236	864.086	670.409
281.599	22.927	863.104	668.419
282.614	22.650	861.868	666.356
283.628	22.671	861.825	666.345
284.643	22.618	861.599	665.908
285.657	22.764	860.464	665.524
286.672	22.767	859.910	665.047
287.687	22.817	859.409	664.790
288.701	22.864	859.058	664.636
289.716	22.937	858.694	664.573
290.730	22.883	857.941	663.728
291.745	22.897	857.308	663.230
292.760	23.071	857.497	663.971
293.774	23.346	856.897	664.482
294.789	23.248	856.016	663.369
295.803	22.859	855.113	661.156
296.818	22.687	854.455	659.946
297.833	22.725	853.438	659.243
298.847	22.922	852.904	659.510
299.862	22.908	852.712	659.248
300.876	23.038	852.431	659.460
301.891	23.280	852.250	660.161
302.906	23.451	851.728	660.338
303.920	23.718	851.042	660.739
304.935	23.755	850.572	660.455
305.949	23.418	850.277	658.912
306.964	23.221	848.892	657.051
307.979	23.167	848.419	656.425
308.993	23.313	848.374	656.876
310.008	23.454	847.552	656.702
311.022	23.168	847.107	655.241
312.037	22.998	846.173	653.831
313.052	22.814	845.045	652.223
314.066	22.634	844.799	651.311
315.081	22.581	844.219	650.609
316.095	22.627	843.513	650.176
317.110	22.693	842.677	649.720
318.125	22.582	842.321	648.977
319.139	22.335	841.848	647.649
320.154	22.404	841.341	647.456
321.168	22.759	840.455	648.017
322.183	22.692	840.155	647.486
323.197	22.811	839.673	647.492
324.212	22.789	839.457	647.187
325.227	22.536	838.974	645.832
326.241	22.691	838.184	645.733
327.256	22.540	837.554	644.640
328.270	22.537	837.076	644.202
329.285	22.538	835.993	643.315
330.300	22.518	835.742	642.994
331.314	22.537	835.575	642.877
332.329	22.848	835.096	643.585
333.343	23.131	834.733	644.280
334.358	22.999	834.775	643.771
335.373	22.961	834.387	643.280
336.387	23.248	833.546	643.618
337.402	23.301	833.988	644.093
338.416	23.536	833.871	644.802
339.431	23.909	833.546	645.848
340.446	23.940	833.073	645.536
341.460	23.941	832.921	645.365
342.475	23.886	832.463	644.755
343.489	24.149	832.233	645.471
344.504	24.006	832.086	644.783
345.519	24.264	831.406	645.132
346.533	23.888	830.551	643.053
347.548	23.710	829.704	641.695
348.562	23.526	828.468	640.020
349.577	23.394	827.774	638.953
350.592	23.205	826.892	637.535
351.606	23.069	826.172	636.433
352.621	23.058	825.555	635.863
353.635	23.190	825.278	636.066
354.650	23.262	824.374	635.572
355.665	23.285	824.340	635.571
356.679	23.417	823.522	635.358
357.694	23.397	823.073	634.883
358.708	23.447	822.341	634.440
359.723	23.304	821.742	633.413
360.738	23.298	821.035	632.788
361.752	23.511	820.513	633.093
362.767	23.773	820.590	634.030
363.781	24.141	820.071	634.884
364.796	24.085	820.055	634.618
365.810	24.341	819.409	634.973
366.825	24.381	819.148	634.855
367.840	24.220	818.555	633.769
368.854	23.980	817.854	632.315
369.869	23.684	817.406	630.864
370.883	23.889	816.848	631.103
371.898	24.170	816.611	631.861
372.913	24.146	816.280	631.466
373.927	24.045	815.213	630.228
374.942	23.970	814.926	629.684
375.956	24.029	815.143	630.004
376.971	24.238	814.737	630.373
377.986	24.519	814.369	631.027
379.000	24.398	813.748	630.062
380.015	24.382	813.063	629.419
381.029	24.216	812.717	628.512
382.044	24.454	811.926	628.681
383.059	24.436	811.337	628.105
384.073	24.339	810.513	627.073
385.088	23.935	809.677	624.950
386.102	23.732	808.910	623.591
387.117	23.775	808.176	623.122
388.132	23.542	807.693	621.875
389.146	23.715	807.530	622.300
390.161	24.148	807.093	623.427
391.175	24.344	806.859	623.876
392.190	24.063	805.939	622.127
393.205	23.800	805.314	620.672
394.219	23.515	805.009	619.385
395.234	23.494	804.447	618.826
396.248	23.399	803.687	617.854
397.263	23.517	803.473	618.048
398.278	23.412	802.754	617.074
399.292	23.224	802.235	615.964
400.307	23.238	801.732	615.574
401.321	23.263	801.419	615.367
402.336	23.539	801.317	616.190
403.350	23.840	801.150	617.053
404.365	24.149	800.954	617.920
405.380	24.468	800.539	618.652
406.394	24.562	800.389	618.805
407.409	24.762	799.975	619.125
408.423	24.791	799.692	618.950
409.438	24.784	799.358	618.614
410.453	24.727	798.810	617.938
411.467	24.857	797.867	617.602
412.482	24.734	798.065	617.276
413.496	24.992	797.676	617.810
414.511	24.859	797.386	617.074
415.526	24.632	796.595	615.624
416.540	24.540	796.198	614.947
417.555	24.594	795.760	614.739
418.569	24.625	794.875	614.108
419.584	24.716	794.679	614.215
420.599	24.620	794.536	613.719
421.613	163.076	1370.538	1796.463
422.628	141.461	1454.478	1796.556
