DTS Sentinel unit serial number:	SN413079Multiplexer serial number:	ORYXHardware model number:	OX4-SRSoftware version number:	ORYX F/W v4.00 Oryx Data Collector v3.7.2.0data status	okinstallation	princeton_trtdifferential loss correction	single-endedforward channel	channel 1reverse channel	N/Adate	2019/09/13time	19:06:35forward acquisition time	60.00reverse acquisition time	0.00gamma	496.2192k internal	0.2324k external	0.2324temperature offset calibration	1.0119default loss term (dB/km)	0.3790temperature slope calibration	1.0000multiplexer offset coefficient	1.0000multiplexer slope coefficient	1.0000fibre end	0.00T internal ref (°C)	31.67T ext. ref 1 (°C)	3.87T ext. ref 2 (°C)	24.99length (m)	temperature (°C)	Stokes	anti-Stokes-747.200	-167.487	-0.250	-0.010
-746.185	68.683	-0.448	0.464
-745.171	125.731	-0.153	0.196
-744.156	-123.545	-0.232	-0.037
-743.142	102.408	-0.028	0.033
-742.127	800.000	0.040	-0.165
-741.112	18.199	-0.073	0.059
-740.098	10.737	0.264	0.203
-739.083	-192.268	0.215	-0.002
-738.069	-99.865	-0.114	0.029
-737.054	-200.000	0.029	0.141
-736.039	24.809	-0.244	-0.204
-735.025	129.219	0.077	0.099
-734.010	-116.017	-0.023	0.004
-732.996	116.783	-0.149	-0.184
-731.981	800.000	0.210	0.595
-730.966	-200.000	0.032	0.270
-729.952	66.953	-0.151	0.156
-728.937	-112.689	0.127	-0.026
-727.923	282.341	-0.263	0.477
-726.908	-149.442	-0.074	0.006
-725.894	76.498	0.149	0.159
-724.879	156.999	-0.122	0.171
-723.864	800.000	-0.097	0.286
-722.850	-76.864	-0.281	0.099
-721.835	20.951	-0.298	0.244
-720.821	256.824	0.135	-0.234
-719.806	-200.000	0.004	-0.098
-718.791	192.929	0.091	-0.138
-717.777	-137.518	-0.322	0.037
-716.762	57.633	-0.159	0.156
-715.748	726.925	0.144	0.389
-714.733	-200.000	-0.053	-0.240
-713.718	-122.024	0.276	0.046
-712.704	-2.023	-0.256	-0.181
-711.689	148.863	0.099	0.135
-710.675	800.000	0.032	-0.128
-709.660	-135.660	-0.213	-0.025
-708.645	-54.955	-0.222	0.101
-707.631	-200.000	-0.010	-0.198
-706.616	-93.336	-0.087	0.024
-705.602	-86.678	0.185	0.057
-704.587	493.228	0.048	-0.111
-703.572	632.494	-0.023	-0.060
-702.558	-200.000	-0.003	-0.137
-701.543	-95.614	0.256	-0.069
-700.529	-106.688	-0.333	-0.075
-699.514	107.049	0.029	-0.035
-698.499	-38.260	0.183	0.098
-697.485	475.057	0.078	-0.178
-696.470	800.000	-0.073	0.259
-695.456	163.958	0.118	0.167
-694.441	79.188	-0.180	-0.195
-693.426	800.000	-0.060	0.248
-692.412	565.619	0.048	0.116
-691.397	-168.204	0.124	0.005
-690.383	-200.000	0.014	-0.117
-689.368	-95.799	-0.203	-0.055
-688.354	15.490	0.327	-0.259
-687.339	-124.342	-0.125	-0.020
-686.324	66.235	0.069	0.071
-685.310	-110.503	-0.273	0.057
-684.295	-44.709	-0.283	-0.142
-683.281	94.312	0.133	0.152
-682.266	-200.000	0.024	0.269
-681.251	73.985	-0.287	0.304
-680.237	-108.529	0.299	0.065
-679.222	572.041	0.032	-0.078
-678.208	-81.375	0.445	-0.148
-677.193	-200.000	0.024	-0.148
-676.178	-181.738	-0.114	-0.002
-675.164	-157.080	-0.266	0.016
-674.149	105.742	0.040	0.048
-673.135	-37.258	0.200	0.108
-672.120	800.000	-0.023	0.072
-671.105	-200.000	-0.018	0.283
-670.091	13.101	-0.211	-0.164
-669.076	-200.000	-0.005	-0.150
-668.062	-59.355	0.118	-0.051
-667.047	-53.910	0.145	-0.066
-666.032	-113.741	0.170	-0.033
-665.018	-134.711	-0.128	0.016
-664.003	-113.621	-0.156	-0.031
-662.989	-77.325	0.284	-0.099
-661.974	-116.821	0.054	-0.010
-660.959	706.648	0.036	0.096
-659.945	-200.000	0.004	-0.048
-658.930	-162.845	-0.140	-0.007
-657.916	-200.000	-0.076	-0.423
-656.901	66.801	0.200	0.205
-655.886	-92.295	-0.194	0.055
-654.872	501.561	-0.170	-0.395
-653.857	-87.255	-0.303	-0.093
-652.843	-166.541	0.051	-0.002
-651.828	83.219	-0.041	-0.045
-650.814	56.811	-0.101	0.099
-649.799	-200.000	0.042	-0.329
-648.784	640.685	0.078	0.200
-647.770	-200.000	0.039	-0.256
-646.755	575.290	-0.052	0.128
-645.741	-69.224	-0.149	0.058
-644.726	-185.097	-0.116	-0.002
-643.711	140.756	0.080	0.106
-642.697	800.000	-0.039	-0.134
-641.682	-200.000	0.003	-0.246
-640.668	129.658	0.103	0.133
-639.653	800.000	-0.078	-0.318
-638.638	-45.270	0.237	-0.118
-637.624	-44.844	0.240	0.120
-636.609	-53.675	0.083	-0.038
-635.595	504.765	0.044	-0.103
-634.580	-200.000	0.002	-0.145
-633.565	-45.444	-0.276	-0.138
-632.551	211.325	0.075	-0.119
-631.536	-0.382	0.169	0.120
-630.522	-200.000	0.027	-0.377
-629.507	-99.126	-0.249	-0.063
-628.492	-200.000	-0.061	-0.298
-627.478	4.516	0.068	-0.050
-626.463	800.000	-0.164	-0.457
-625.449	268.015	-0.108	-0.190
-624.434	150.384	-0.141	-0.192
-623.419	206.580	0.115	-0.180
-622.405	30.337	-0.205	0.176
-621.390	78.049	-0.114	0.122
-620.376	440.813	0.026	-0.057
-619.361	174.003	-0.082	0.118
-618.346	-31.369	-0.317	-0.179
-617.332	-70.293	0.471	0.180
-616.317	800.000	0.127	-0.485
-615.303	800.000	-0.098	0.275
-614.288	55.584	-0.108	0.105
-613.273	240.691	0.154	-0.258
-612.259	-195.131	0.501	0.004
-611.244	800.000	-0.070	0.231
-610.230	31.601	-0.066	-0.057
-609.215	96.716	0.266	0.306
-608.201	18.166	0.058	-0.047
-607.186	-64.088	0.143	-0.059
-606.171	4.918	0.199	0.147
-605.157	-200.000	0.024	0.238
-604.142	-111.682	-0.243	-0.050
-603.128	184.315	-0.123	0.182
-602.113	273.735	-0.045	0.080
-601.098	-99.182	0.330	-0.084
-600.084	-133.902	0.142	-0.018
-599.069	-200.000	0.063	-0.452
-598.055	106.903	-0.166	0.198
-597.040	-52.851	0.294	-0.136
-596.025	800.000	-0.028	-0.092
-595.011	409.148	-0.196	-0.417
-593.996	70.341	0.116	-0.121
-592.982	420.213	-0.144	0.311
-591.967	-91.960	-0.256	0.073
-590.952	800.000	-0.165	-0.488
-589.938	97.351	0.316	-0.364
-588.923	-145.351	0.287	-0.026
-587.909	-17.734	-0.092	0.058
-586.894	140.924	0.198	0.263
-585.879	34.000	0.288	0.252
-584.865	-149.861	0.318	-0.025
-583.850	800.000	0.012	-0.042
-582.836	800.000	0.051	0.184
-581.821	270.615	0.040	0.071
-580.806	86.166	-0.298	-0.329
-579.792	16.351	-0.247	-0.195
-578.777	359.925	-0.067	-0.135
-577.763	-148.925	-0.533	-0.043
-576.748	59.016	0.191	0.189
-575.733	73.156	0.178	-0.186
-574.719	-176.229	0.238	0.006
-573.704	-148.152	0.142	-0.012
-572.690	109.151	0.201	0.241
-571.675	-73.794	-0.340	-0.124
-570.661	299.918	-0.008	-0.014
-569.646	57.386	-0.263	-0.257
-568.631	-32.804	0.113	-0.063
-567.617	-6.721	0.120	0.082
-566.602	-200.000	0.016	0.220
-565.588	633.723	-0.037	-0.095
-564.573	18.301	-0.119	0.095
-563.558	2.759	-0.129	-0.093
-562.544	357.697	0.042	0.083
-561.529	-11.920	0.222	0.146
-560.515	433.386	0.094	-0.204
-559.500	171.490	0.164	-0.235
-558.485	106.495	-0.101	-0.120
-557.471	235.196	-0.223	-0.369
-556.456	-15.652	-0.373	-0.238
-555.442	-8.782	-0.130	0.088
-554.427	-179.142	0.326	0.007
-553.412	-94.944	0.284	0.077
-552.398	-200.000	-0.015	0.166
-551.383	19.711	-0.135	-0.109
-550.369	-200.000	0.046	0.313
-549.354	-100.518	0.152	-0.038
-548.339	-200.000	-0.007	0.218
-547.325	-200.000	-0.081	-0.433
-546.310	114.052	0.039	0.048
-545.296	-187.091	0.349	-0.005
-544.281	-110.332	-0.444	0.093
-543.266	-200.000	-0.056	-0.372
-542.252	-150.783	-0.272	0.021
-541.237	-114.674	0.463	0.089
-540.223	-168.739	-0.428	0.016
-539.208	139.415	-0.263	-0.347
-538.193	-55.656	-0.362	0.162
-537.179	212.807	0.132	-0.208
-536.164	207.840	0.047	0.074
-535.150	-136.252	-0.194	-0.023
-534.135	-70.519	0.066	-0.025
-533.121	149.499	-0.116	0.157
-532.106	372.980	0.110	0.224
-531.091	62.397	-0.101	-0.101
-530.077	-89.420	-0.244	0.072
-529.062	445.704	0.070	-0.153
-528.048	800.000	-0.064	-0.220
-527.033	-200.000	0.030	-0.235
-526.018	-157.224	0.151	-0.009
-525.004	-101.329	0.171	0.042
-523.989	-200.000	0.047	-0.247
-522.975	250.538	0.052	0.088
-521.960	157.901	-0.063	0.087
-520.945	-200.000	-0.064	0.477
-519.931	-144.170	0.311	0.029
-518.916	800.000	-0.044	0.189
-517.902	133.212	0.041	-0.053
-516.887	-200.000	0.002	-0.099
-515.872	-102.228	-0.306	0.074
-514.858	-22.562	-0.333	-0.202
-513.843	800.000	0.055	0.226
-512.829	194.424	-0.209	0.316
-511.814	-134.051	-0.326	0.040
-510.799	-200.000	0.055	0.260
-509.785	-11.263	-0.258	0.170
-508.770	-54.931	-0.326	-0.147
-507.756	800.000	-0.100	-0.321
-506.741	2.175	-0.244	-0.176
-505.726	66.874	-0.183	-0.186
-504.712	104.589	0.139	0.164
-503.697	-98.761	-0.171	0.044
-502.683	-184.354	0.006	0.000
-501.668	-167.570	-0.276	0.011
-500.653	800.000	0.026	-0.074
-499.639	-200.000	0.014	0.249
-498.624	91.766	-0.269	0.302
-497.610	-66.580	0.030	0.012
-496.595	-21.578	0.125	-0.076
-495.581	800.000	0.109	-0.364
-494.566	154.172	-0.066	0.091
-493.551	-181.593	0.430	0.008
-492.537	452.602	-0.119	0.263
-491.522	-99.523	0.109	-0.027
-490.508	-50.878	0.238	0.112
-489.493	53.455	-0.087	0.083
-488.478	-20.038	0.178	0.110
-487.464	-200.000	-0.002	-0.054
-486.449	484.686	0.121	0.275
-485.435	71.587	-0.163	0.170
-484.420	-200.000	0.035	-0.208
-483.405	7.685	0.191	-0.143
-482.391	-200.000	0.441	0.001
-481.376	-35.429	-0.162	-0.088
-480.362	135.148	-0.087	-0.113
-479.347	29.457	-0.249	-0.211
-478.332	46.611	0.126	0.117
-477.318	800.000	-0.053	-0.165
-476.303	27.176	-0.094	0.079
-475.289	-17.869	-0.121	0.076
-474.274	54.978	-0.396	-0.382
-473.259	210.513	0.173	0.271
-472.245	93.065	0.233	0.263
-471.230	-142.532	-0.235	-0.023
-470.216	88.627	0.115	0.128
-469.201	-27.487	0.264	-0.153
-468.186	-68.653	-0.101	0.039
-467.172	390.684	0.124	0.257
-466.157	52.298	0.153	-0.146
-465.143	-73.285	-0.385	0.141
-464.128	161.319	-0.172	-0.241
-463.113	-200.000	0.048	0.215
-462.099	-76.679	0.365	-0.128
-461.084	167.923	0.281	-0.398
-460.070	411.866	-0.082	-0.174
-459.055	-70.674	0.278	-0.105
-458.040	800.000	0.072	0.310
-457.026	-200.000	-0.059	0.297
-456.011	45.067	-0.194	-0.179
-454.997	121.222	-0.154	0.191
-453.982	250.339	0.090	-0.152
-452.968	-49.244	-0.166	0.079
-451.953	437.780	0.034	-0.074
-450.938	-23.091	-0.088	-0.053
-449.924	23.697	0.247	0.203
-448.909	192.659	0.061	0.092
-447.895	157.646	0.141	0.194
-446.880	76.025	-0.096	0.101
-445.865	122.813	0.154	0.193
-444.851	-34.249	-0.192	-0.105
-443.836	-200.000	-0.006	0.098
-442.822	390.331	-0.062	-0.129
-441.807	800.000	0.053	0.193
-440.792	-123.144	0.139	0.022
-439.778	40.819	-0.173	0.156
-438.763	36.763	-0.144	0.127
-437.749	-53.658	0.159	0.073
-436.734	-200.000	0.006	0.080
-435.719	208.428	0.146	-0.227
-434.705	-17.076	-0.146	0.092
-433.690	-41.356	-0.091	0.047
-432.676	-61.932	0.190	0.079
-431.661	-200.000	-0.003	0.068
-430.646	-68.487	0.162	0.063
-429.632	-75.059	-0.243	-0.087
-428.617	-102.857	-0.074	-0.018
-427.603	201.996	0.102	-0.157
-426.588	-43.533	-0.043	0.022
-425.573	-170.537	0.151	-0.005
-424.559	-93.334	-0.188	0.052
-423.544	310.248	-0.168	0.313
-422.530	-200.000	-0.008	0.069
-421.515	-200.000	-0.064	0.396
-420.500	-110.697	0.180	-0.037
-419.486	381.610	-0.202	0.414
-418.471	99.887	0.273	0.316
-417.457	98.892	0.333	0.383
-416.442	-138.813	0.370	-0.040
-415.428	-106.764	0.188	-0.041
-414.413	337.159	-0.072	0.139
-413.398	7.904	-0.092	-0.069
-412.384	30.700	0.079	-0.068
-411.369	132.795	0.125	-0.160
-410.355	800.000	-0.032	0.099
-409.340	-87.505	0.188	-0.057
-408.325	-22.625	0.113	-0.068
-407.311	800.000	-0.062	0.211
-406.296	98.680	0.180	-0.206
-405.282	-41.144	-0.225	0.116
-404.267	320.081	-0.053	0.100
-403.252	11.701	-0.326	0.249
-402.238	11.908	0.400	0.306
-401.223	284.896	0.029	0.052
-400.209	220.775	-0.197	-0.315
-399.194	72.996	-0.076	-0.079
-398.179	13.447	0.128	-0.099
-397.165	-79.326	-0.309	-0.104
-396.150	33.771	0.197	0.171
-395.136	134.766	0.079	-0.102
-394.121	800.000	-0.036	0.155
-393.106	-55.730	0.116	-0.052
-392.092	9.883	0.137	-0.103
-391.077	-200.000	0.013	-0.337
-390.063	427.459	0.083	0.179
-389.048	-200.000	-0.042	0.269
-388.033	-162.879	-0.116	-0.006
-387.019	-126.861	0.051	0.008
-386.004	-54.914	-0.225	0.101
-384.990	-127.164	-0.073	-0.011
-383.975	86.236	0.156	-0.171
-382.960	-26.623	-0.308	-0.180
-381.946	-200.000	0.061	0.317
-380.931	560.328	-0.059	0.143
-379.917	325.476	-0.012	-0.023
-378.902	-200.000	0.028	0.140
-377.888	800.000	0.065	0.220
-376.873	38.925	-0.059	0.052
-375.858	-78.383	0.108	-0.037
-374.844	128.320	-0.171	-0.217
-373.829	-108.159	0.136	-0.029
-372.815	800.000	0.017	0.063
-371.800	800.000	-0.151	-0.444
-370.785	-125.826	0.152	0.023
-369.771	758.087	-0.064	0.173
-368.756	-181.087	0.212	-0.004
-367.742	-79.162	0.326	-0.110
-366.727	-125.166	-0.178	0.027
-365.712	-200.000	0.003	-0.047
-364.698	341.010	0.099	0.191
-363.683	800.000	0.054	0.166
-362.669	-98.312	0.267	0.068
-361.654	-97.153	0.226	-0.059
-360.639	35.670	-0.176	-0.153
-359.625	58.804	-0.179	-0.175
-358.610	-107.407	0.157	-0.034
-357.596	-57.708	-0.121	-0.053
-356.581	-200.000	-0.063	0.276
-355.566	-131.898	0.339	-0.044
-354.552	470.070	0.073	0.163
-353.537	120.971	-0.253	0.313
-352.523	-200.000	0.057	-0.258
-351.508	-128.111	0.360	-0.051
-350.493	492.675	0.131	0.299
-349.479	-50.056	-0.174	0.082
-348.464	33.400	-0.087	-0.075
-347.450	-9.276	-0.299	-0.199
-346.435	30.426	0.163	-0.138
-345.420	93.057	0.124	0.139
-344.406	481.324	-0.187	0.421
-343.391	8.850	-0.098	0.073
-342.377	-69.014	-0.362	-0.139
-341.362	-22.315	0.096	0.058
-340.348	-200.000	0.059	-0.291
-339.333	467.122	-0.203	0.452
-338.318	-200.000	0.007	0.206
-337.304	-87.581	0.117	-0.035
-336.289	18.142	-0.257	-0.204
-335.275	-67.166	0.253	-0.099
-334.260	800.000	-0.031	-0.126
-333.245	-92.284	-0.332	0.093
-332.231	698.809	-0.047	-0.122
-331.216	168.022	0.298	-0.421
-330.202	-90.961	-0.231	-0.066
-329.187	-193.189	0.172	0.002
-328.172	106.322	0.095	0.112
-327.158	431.513	-0.062	-0.133
-326.143	-16.826	0.048	0.030
-325.129	-167.397	-0.097	0.004
-324.114	-139.153	-0.350	0.038
-323.099	322.749	0.040	0.075
-322.085	87.464	0.085	0.093
-321.070	-74.677	0.075	-0.027
-320.056	800.000	-0.051	0.170
-319.041	-181.001	0.185	-0.004
-318.026	-200.000	0.018	0.099
-317.012	-200.000	0.000	0.207
-315.997	-200.000	-0.016	0.159
-314.983	14.391	-0.255	-0.198
-313.968	-200.000	-0.008	-0.063
-312.953	128.828	-0.229	-0.289
-311.939	177.138	0.040	-0.057
-310.924	800.000	-0.123	-0.366
-309.910	5.090	-0.134	0.098
-308.895	-26.543	0.207	0.120
-307.880	-200.000	0.017	0.129
-306.866	335.384	0.117	0.225
-305.851	800.000	-0.067	-0.211
-304.837	-112.013	-0.235	0.047
-303.822	-94.923	-0.153	-0.041
-302.807	-129.581	-0.191	0.026
-301.793	-200.000	0.016	0.075
-300.778	800.000	0.038	-0.135
-299.764	-128.117	0.126	-0.018
-298.749	800.000	-0.143	0.448
-297.735	-98.229	0.289	-0.074
-296.720	-75.112	0.294	-0.104
-295.705	512.982	0.158	-0.366
-294.691	234.688	-0.062	-0.101
-293.676	-57.271	0.129	-0.056
-292.662	-200.000	0.030	-0.658
-291.647	262.690	-0.164	-0.281
-290.632	-119.679	-0.297	-0.051
-289.618	99.497	-0.106	0.122
-288.603	-110.362	-0.267	-0.055
-287.589	-110.140	0.265	-0.055
-286.574	-57.106	0.204	-0.089
-285.559	30.089	-0.088	-0.074
-284.545	-152.854	-0.283	-0.020
-283.530	-135.245	0.082	0.010
-282.516	194.513	-0.124	-0.186
-281.501	20.436	-0.184	0.147
-280.486	-200.000	0.006	-0.435
-279.472	103.030	0.123	0.143
-278.457	118.125	-0.183	0.223
-277.443	182.815	0.045	-0.066
-276.428	-56.537	0.361	0.159
-275.413	19.207	0.079	-0.062
-274.399	-84.098	0.167	0.053
-273.384	-200.000	-0.083	0.546
-272.370	-6.528	0.112	0.076
-271.355	-85.855	0.233	-0.072
-270.340	800.000	0.071	0.211
-269.326	47.184	0.183	0.169
-268.311	-99.975	0.179	-0.044
-267.297	-92.855	-0.233	-0.065
-266.282	-148.175	0.247	0.020
-265.267	-17.566	0.047	-0.029
-264.253	9.945	-0.160	-0.120
-263.238	158.790	0.095	0.130
-262.224	-169.079	0.080	-0.003
-261.209	-200.000	-0.002	0.139
-260.195	-200.000	-0.011	-0.342
-259.180	-130.172	-0.205	-0.028
-258.165	800.000	0.063	-0.268
-257.151	-35.568	-0.216	-0.116
-256.136	-144.220	-0.149	-0.014
-255.122	-88.650	-0.167	0.049
-254.107	292.403	-0.134	-0.241
-253.092	14.437	0.139	-0.108
-252.078	-200.000	0.043	-0.293
-251.063	160.371	-0.128	0.177
-250.049	800.000	-0.113	0.464
-249.034	800.000	-0.054	0.192
-248.019	-200.000	0.013	0.095
-247.005	19.014	0.175	0.139
-245.990	303.271	0.203	0.372
-244.976	800.000	0.035	0.147
-243.961	-42.852	-0.231	0.116
-242.946	21.860	0.115	0.093
-241.932	-200.000	-0.027	-0.194
-240.917	-200.000	0.026	0.207
-239.903	-46.512	0.151	0.073
-238.888	-200.000	0.041	-0.348
-237.873	-81.753	-0.206	0.067
-236.859	-138.909	-0.358	-0.039
-235.844	-200.000	-0.002	-0.091
-234.830	568.783	0.041	-0.098
-233.815	56.932	0.227	-0.219
-232.800	11.200	-0.282	-0.214
-231.786	334.189	-0.057	0.109
-230.771	-45.090	-0.255	0.125
-229.757	47.364	-0.105	-0.097
-228.742	0.505	0.127	0.090
-227.727	85.516	0.256	-0.278
-226.713	800.000	-0.052	0.143
-225.698	393.738	0.180	0.371
-224.684	-200.000	-0.012	0.270
-223.669	269.547	-0.026	0.046
-222.655	-73.078	-0.231	-0.084
-221.640	-64.692	-0.117	-0.047
-220.625	125.691	0.083	-0.104
-219.611	-200.000	0.004	-0.231
-218.596	235.251	0.100	-0.164
-217.582	624.615	0.080	0.200
-216.567	-100.731	0.189	-0.046
-215.552	3.595	-0.133	0.096
-214.538	-81.099	0.293	0.096
-213.523	358.956	-0.184	-0.364
-212.509	-103.852	-0.314	0.072
-211.494	142.770	0.169	-0.222
-210.479	-49.064	0.148	-0.070
-209.465	-98.039	-0.384	-0.098
-208.450	-83.794	0.377	-0.119
-207.436	-61.066	-0.266	0.111
-206.421	-200.000	-0.003	0.030
-205.406	-200.000	0.021	0.123
-204.392	-200.000	-0.010	-0.189
-203.377	-200.000	-0.008	0.080
-202.363	47.501	0.070	-0.065
-201.348	-200.000	-0.013	0.055
-200.333	-200.000	0.014	0.087
-199.319	89.777	0.032	0.036
-198.304	19.165	0.317	0.251
-197.290	344.488	0.114	-0.222
-196.275	141.532	-0.062	-0.081
-195.260	-156.921	-0.272	-0.016
-194.246	81.549	0.076	-0.081
-193.231	-127.778	0.040	0.006
-192.217	-156.060	0.260	-0.016
-191.202	125.193	-0.101	-0.126
-190.187	800.000	0.075	-0.211
-189.173	-99.892	0.071	0.018
-188.158	89.227	0.045	0.049
-187.144	-87.367	-0.314	-0.094
-186.129	800.000	-0.025	-0.094
-185.114	-200.000	-0.005	0.268
-184.100	630.090	-0.133	0.331
-183.085	-72.441	-0.008	0.003
-182.071	108.302	0.208	0.245
-181.056	-84.770	-0.178	-0.055
-180.042	-72.761	-0.158	0.057
-179.027	298.777	-0.195	-0.353
-178.012	259.188	0.034	-0.058
-176.998	-155.623	0.199	-0.013
-175.983	-134.040	0.227	-0.028
-174.969	291.286	0.031	0.056
-173.954	-50.420	0.127	0.059
-172.939	96.693	0.119	-0.134
-171.925	800.000	-0.035	-0.106
-170.910	-200.000	-0.029	0.368
-169.896	350.806	0.055	-0.107
-168.881	49.697	0.253	0.235
-167.866	41.951	-0.145	0.130
-166.852	214.100	-0.019	-0.029
-165.837	-56.761	-0.282	0.123
-164.823	-132.435	0.209	-0.027
-163.808	-200.000	-0.071	0.338
-162.793	499.101	0.095	0.217
-161.779	-83.355	-0.084	0.027
-160.764	-200.000	-0.018	-0.124
-159.750	95.305	0.216	-0.243
-158.735	-29.498	-0.087	-0.049
-157.720	800.000	0.085	0.247
-156.706	59.327	-0.222	0.216
-155.691	-200.000	0.017	-0.268
-154.677	504.828	-0.055	0.125
-153.662	-200.000	0.051	0.269
-152.647	800.000	0.051	0.157
-151.633	624.364	-0.114	-0.283
-150.618	601.168	-0.096	0.235
-149.604	-103.826	0.231	0.053
-148.589	-200.000	-0.016	-0.126
-147.574	-25.843	0.226	-0.131
-146.560	223.643	0.130	0.207
-145.545	176.170	-0.086	-0.124
-144.531	237.280	-0.144	-0.236
-143.516	800.000	-0.030	0.094
-142.502	722.410	0.031	0.081
-141.487	405.688	-0.141	0.293
-140.472	-105.079	-0.117	0.026
-139.458	56.521	-0.030	-0.029
-138.443	193.174	-0.103	-0.154
-137.429	-16.135	-0.300	-0.188
-136.414	800.000	-0.019	0.059
-135.399	529.664	0.199	0.464
-134.385	-53.142	0.178	0.081
-133.370	-118.000	0.338	0.060
-132.356	-117.704	0.292	-0.052
-131.341	800.000	0.026	-0.072
-130.326	1.564	0.185	0.131
-129.312	74.339	-0.255	-0.265
-128.297	-87.020	-0.306	0.092
-127.283	-90.225	0.148	-0.043
-126.268	-124.980	-0.195	0.030
-125.253	-34.368	-0.232	-0.125
-124.239	243.611	-0.023	-0.037
-123.224	-68.356	-0.082	-0.031
-122.210	-80.244	-0.106	0.035
-121.195	-87.224	-0.148	-0.044
-120.180	50.717	0.224	0.208
-119.166	-200.000	-0.010	-0.264
-118.151	-200.000	-0.042	0.278
-117.137	489.668	0.093	-0.209
-116.122	395.393	0.237	-0.487
-115.107	354.595	-0.076	-0.150
-114.093	-52.702	0.194	-0.088
-113.078	-119.279	0.089	-0.015
-112.064	-163.714	0.302	0.014
-111.049	800.000	-0.137	0.415
-110.034	800.000	0.006	0.019
-109.020	-200.000	0.001	-0.219
-108.005	26.256	0.105	0.086
-106.991	800.000	0.071	0.217
-105.976	-188.761	-0.035	-0.000
-104.962	-79.483	-0.287	0.095
-103.947	270.196	-0.133	0.230
-102.932	164.204	-0.156	-0.216
-101.918	-18.968	-0.269	-0.165
-100.903	-172.281	0.418	0.013
-99.889	-200.000	0.024	-0.195
-98.874	-30.147	-0.268	-0.150
-97.859	-35.177	-0.252	0.135
-96.845	87.500	0.156	-0.170
-95.830	570.613	0.134	0.321
-94.816	-120.507	0.108	0.018
-93.801	-200.000	0.014	0.315
-92.786	-91.500	0.026	0.007
-91.772	128.189	0.343	0.429
-90.757	800.000	-0.042	0.120
-89.743	15.361	-0.124	-0.095
-88.728	-37.010	-0.194	0.102
-87.713	-200.000	0.024	0.501
-86.699	39.805	-0.184	-0.163
-85.684	-156.814	-0.310	0.019
-84.670	-11.779	-0.181	0.117
-83.655	226.909	-0.075	0.120
-82.640	800.000	0.085	0.278
-81.626	19.655	-0.106	-0.084
-80.611	-44.874	-0.153	0.075
-79.597	24.720	0.152	0.124
-78.582	-85.049	0.060	0.018
-77.567	-129.952	-0.108	-0.015
-76.553	289.146	-0.055	-0.097
-75.538	-200.000	-0.018	0.360
-74.524	-148.231	-0.300	0.024
-73.509	484.436	0.052	-0.116
-72.494	-141.126	-0.151	-0.015
-71.480	-200.000	-0.003	0.069
-70.465	800.000	-0.056	0.175
-69.451	-12.972	0.096	-0.062
-68.436	64.885	0.276	-0.274
-67.422	-158.986	-0.040	-0.002
-66.407	215.309	-0.120	-0.187
-65.392	800.000	-0.074	-0.210
-64.378	-49.923	0.544	0.254
-63.363	130.106	0.094	-0.118
-62.349	800.000	-0.018	0.051
-61.334	95.705	-0.919	-1.031
-60.319	15.867	0.655	0.507
-59.305	609.187	-0.419	-1.029
-58.290	157.798	0.603	0.821
-57.276	800.000	0.271	1.130
-56.261	-200.000	100.149	603.680
-55.246	587.299	1404.872	3397.611
-54.232	193.579	2583.997	3841.788
-53.217	118.547	2136.671	2591.272
-52.203	43.636	1595.387	1433.904
-51.188	35.277	1332.705	1147.979
-50.173	32.030	1290.912	1093.065
-49.159	54.338	1340.907	1268.334
-48.144	56.830	1357.706	1298.951
-47.130	35.338	1315.156	1133.044
-46.115	31.754	1298.008	1097.284
-45.100	31.667	1292.120	1091.756
-44.086	31.599	1289.734	1089.297
-43.071	31.624	1287.288	1087.335
-42.057	31.485	1285.617	1085.075
-41.042	31.571	1283.556	1083.789
-40.027	31.592	1282.618	1083.077
-39.013	31.581	1280.595	1081.263
-37.998	31.715	1278.182	1079.956
-36.984	31.571	1277.145	1078.208
-35.969	31.735	1274.626	1076.979
-34.954	31.700	1273.281	1075.597
-33.940	31.757	1272.051	1074.843
-32.925	31.828	1270.676	1074.046
-31.911	31.761	1269.579	1072.694
-30.896	31.754	1268.176	1071.424
-29.881	31.815	1266.781	1070.551
-28.867	31.846	1265.096	1069.260
-27.852	31.924	1263.696	1068.480
-26.838	31.758	1262.839	1066.767
-25.823	31.761	1261.168	1065.331
-24.809	31.645	1259.964	1063.615
-23.794	31.821	1258.161	1063.048
-22.779	31.668	1257.174	1061.306
-21.765	31.718	1255.925	1060.494
-20.750	31.719	1254.402	1059.167
-19.736	31.690	1253.106	1057.869
-18.721	31.559	1252.126	1056.262
-17.706	31.752	1250.765	1056.161
-16.692	31.535	1249.891	1054.155
-15.677	31.574	1248.808	1053.420
-14.663	31.558	1247.656	1052.318
-13.648	31.634	1246.528	1051.749
-12.633	31.629	1245.466	1050.784
-11.619	31.590	1244.657	1049.841
-10.604	31.542	1244.176	1049.126
-9.590	31.546	1243.213	1048.297
-8.575	31.591	1242.179	1047.630
-7.560	31.561	1241.144	1046.551
-6.546	31.656	1240.375	1046.392
-5.531	31.573	1239.456	1045.111
-4.517	31.622	1238.871	1044.852
-3.502	31.607	1237.499	1043.570
-2.487	31.694	1236.312	1043.012
-1.473	31.514	1232.599	1038.836
-0.458	29.578	1216.655	1014.733
0.556	26.397	1197.466	971.372
1.571	21.969	1200.547	949.883
2.586	20.818	1213.983	954.127
3.600	19.972	1202.185	940.177
4.615	14.982	1132.466	859.987
5.629	7.428	1060.461	768.754
6.644	4.053	1041.482	738.844
7.659	3.772	1039.401	735.967
8.673	3.877	1037.859	735.308
9.688	3.798	1036.789	734.112
10.702	3.981	1034.796	733.499
11.717	8.286	1039.928	757.540
12.731	15.849	1051.396	801.991
13.746	20.223	1056.675	826.848
14.761	20.675	1056.462	828.758
15.775	19.927	1054.391	823.503
16.790	18.769	1052.811	816.694
17.804	18.073	1051.315	812.153
18.819	17.808	1049.712	809.585
19.834	17.652	1049.488	808.603
20.848	17.489	1048.717	807.164
21.863	17.293	1048.160	805.737
22.877	17.230	1047.156	804.592
23.892	17.190	1046.798	804.057
24.907	17.141	1045.496	802.757
25.921	17.108	1044.810	802.000
26.936	17.188	1043.468	801.279
27.950	17.259	1041.807	800.265
28.965	17.362	1040.356	799.566
29.980	17.464	1039.346	799.195
30.994	17.569	1037.959	798.550
32.009	17.443	1037.232	797.332
33.023	17.488	1036.375	796.813
34.038	17.390	1034.892	795.145
35.053	17.405	1033.922	794.398
36.067	17.319	1033.500	793.602
37.082	17.216	1032.966	792.641
38.096	17.410	1032.223	792.906
39.111	17.537	1031.365	792.769
40.126	17.282	1030.296	790.690
41.140	17.030	1028.618	788.160
42.155	16.974	1027.368	786.876
43.169	16.895	1026.818	786.017
44.184	16.862	1025.942	785.126
45.199	16.968	1024.098	784.135
46.213	17.030	1023.514	783.905
47.228	17.266	1022.402	784.071
48.242	17.285	1021.647	783.513
49.257	17.306	1020.386	782.574
50.271	17.301	1019.878	782.089
51.286	17.195	1019.111	780.946
52.301	17.249	1018.501	780.659
53.315	17.179	1017.359	779.391
54.330	17.143	1016.129	778.213
55.344	17.010	1015.139	776.777
56.359	17.023	1014.798	776.507
57.374	17.036	1013.432	775.455
58.388	16.858	1012.931	774.191
59.403	16.985	1011.228	773.400
60.417	16.826	1011.405	772.742
61.432	16.861	1010.388	772.056
62.447	16.762	1009.583	770.918
63.461	16.709	1008.985	770.152
64.476	16.850	1007.507	769.596
65.490	16.757	1006.970	768.699
66.505	16.843	1006.632	768.761
67.520	16.822	1006.029	768.138
68.534	16.738	1005.489	767.279
69.549	16.876	1004.439	767.034
70.563	16.704	1003.503	765.472
71.578	16.663	1002.317	764.314
72.593	16.613	1001.577	763.455
73.607	16.590	1001.143	762.956
74.622	16.700	1000.492	762.890
75.636	16.790	999.655	762.589
76.651	16.617	999.199	761.393
77.666	16.714	998.648	761.343
78.680	16.822	997.757	761.081
79.695	16.806	997.274	760.573
80.709	16.820	996.937	760.312
81.724	16.891	996.499	760.229
82.739	17.003	995.834	760.154
83.753	17.338	994.596	760.644
84.768	17.488	994.486	761.160
85.782	17.656	993.298	760.934
86.797	17.464	992.177	759.155
87.812	17.226	991.271	757.331
88.826	17.398	990.340	757.318
89.841	17.323	989.577	756.335
90.855	17.495	989.022	756.608
91.870	17.548	987.894	755.913
92.884	17.524	986.854	754.946
93.899	17.478	986.402	754.331
94.914	17.581	985.278	753.857
95.928	17.480	984.639	752.856
96.943	17.485	983.529	751.963
97.957	17.477	982.462	751.046
98.972	17.473	982.132	750.709
99.987	17.370	981.233	749.499
101.001	17.429	979.972	748.731
102.016	17.457	979.203	748.201
103.030	17.547	978.535	748.018
104.045	17.502	977.548	747.003
105.060	17.287	977.221	745.744
106.074	17.046	975.655	743.427
107.089	16.958	974.713	742.257
108.103	16.813	973.833	740.886
109.118	16.950	972.630	740.506
110.133	16.864	972.003	739.588
111.147	16.826	971.142	738.702
112.162	16.898	970.485	738.451
113.176	16.934	969.759	737.990
114.191	17.043	969.134	737.921
115.206	17.038	968.334	737.226
116.220	16.948	967.237	735.932
117.235	16.974	966.377	735.326
118.249	16.829	965.652	734.081
119.264	16.888	964.754	733.592
120.279	16.876	963.996	732.900
121.293	16.854	963.230	732.154
122.308	16.833	962.092	731.133
123.322	16.768	960.769	729.786
124.337	16.630	960.520	728.935
125.352	16.769	959.118	728.404
126.366	16.800	957.644	727.354
127.381	16.750	956.995	726.583
128.395	16.844	956.318	726.407
129.410	16.731	955.554	725.280
130.424	16.833	954.726	725.024
131.439	17.049	954.241	725.514
132.454	16.932	953.412	724.322
133.468	17.104	952.343	724.176
134.483	17.158	951.382	723.614
135.497	17.111	950.654	722.795
136.512	17.149	949.937	722.346
137.527	17.008	949.164	721.095
138.541	17.180	948.189	721.024
139.556	17.125	948.300	720.809
140.570	17.287	947.309	720.677
141.585	17.447	946.605	720.759
142.600	17.464	945.699	720.078
143.614	17.645	944.963	720.216
144.629	17.589	944.235	719.362
145.643	17.387	943.429	717.831
146.658	17.314	942.143	716.480
147.673	17.269	940.632	715.079
148.687	17.120	940.509	714.296
149.702	17.156	939.401	713.542
150.716	17.081	938.667	712.609
151.731	17.199	938.032	712.558
152.746	17.100	937.524	711.692
153.760	17.328	936.556	711.851
154.775	17.314	936.221	711.476
155.789	17.209	935.594	710.495
156.804	17.377	934.652	710.419
157.819	17.387	934.345	710.166
158.833	17.567	933.590	710.277
159.848	17.693	932.541	709.942
160.862	17.597	931.543	708.720
161.877	17.301	930.595	706.708
162.892	17.222	929.495	705.481
163.906	17.166	928.565	704.478
164.921	17.182	927.621	703.769
165.935	17.284	927.161	703.780
166.950	17.362	926.487	703.527
167.964	17.298	925.301	702.301
168.979	17.250	924.442	701.388
169.994	17.255	923.905	700.942
171.008	17.228	923.459	700.426
172.023	17.549	922.788	701.178
173.037	17.621	921.891	700.730
174.052	17.441	921.380	699.543
175.067	17.267	920.799	698.322
176.081	17.220	920.121	697.556
177.096	17.189	919.385	696.806
178.110	17.354	918.633	696.853
179.125	17.381	918.119	696.511
180.140	17.322	918.041	696.148
181.154	17.446	917.651	696.298
182.169	17.623	917.301	696.695
183.183	17.696	916.394	696.242
184.198	17.597	915.979	695.464
185.213	17.672	915.387	695.255
186.227	17.593	914.882	694.489
187.242	17.658	913.961	693.996
188.256	17.799	913.109	693.857
189.271	17.781	912.667	693.387
190.286	17.504	911.518	691.330
191.300	17.240	910.546	689.460
192.315	17.041	909.733	687.979
193.329	17.230	909.628	688.601
194.344	17.259	909.348	688.449
195.359	17.426	908.520	688.436
196.373	17.572	907.713	688.351
197.388	17.761	907.394	688.813
198.402	17.758	907.342	688.701
199.417	17.961	906.744	689.004
200.432	18.071	905.937	688.773
201.446	18.152	905.551	688.748
202.461	18.178	904.925	688.315
203.475	18.048	904.454	687.370
204.490	17.702	903.638	685.300
205.504	17.758	902.633	684.702
206.519	17.693	902.062	683.949
207.534	17.678	901.515	683.413
208.548	17.764	900.857	683.199
209.563	17.653	900.282	682.258
210.577	17.755	899.652	682.127
211.592	18.082	898.759	682.694
212.607	18.112	898.269	682.382
213.621	18.089	897.266	681.469
214.636	18.060	896.743	680.894
215.650	17.954	896.379	680.136
216.665	18.132	895.577	680.175
217.680	18.264	895.015	680.216
218.694	18.224	894.360	679.498
219.709	18.121	894.091	678.824
220.723	18.104	893.191	678.014
221.738	18.076	892.419	677.257
222.753	18.022	891.772	676.490
223.767	18.177	891.443	676.797
224.782	18.264	890.808	676.598
225.796	18.336	890.257	676.402
226.811	18.192	889.841	675.458
227.826	18.140	888.861	674.449
228.840	18.146	888.050	673.800
229.855	17.993	887.257	672.535
230.869	18.046	886.349	671.995
231.884	17.964	885.865	671.248
232.899	17.978	885.123	670.679
233.913	17.936	884.533	670.010
234.928	17.933	883.612	669.241
235.942	17.860	883.527	668.831
236.957	17.945	882.261	668.148
237.972	18.074	881.914	668.328
238.986	17.826	881.716	667.151
240.001	17.824	881.173	666.674
241.015	18.219	880.363	667.542
242.030	18.080	880.011	666.674
243.045	18.161	879.223	666.335
244.059	18.190	878.820	666.082
245.074	18.282	878.104	665.840
246.088	18.345	877.580	665.626
247.103	18.349	877.256	665.339
248.117	18.388	876.587	664.923
249.132	18.608	876.399	665.577
250.147	18.955	875.953	666.525
251.161	18.785	875.341	665.340
252.176	18.950	874.224	665.069
253.190	19.033	873.540	664.813
254.205	18.862	873.560	664.109
255.220	19.003	872.730	663.961
256.234	18.834	872.301	662.925
257.249	18.839	871.376	662.181
258.263	18.870	870.404	661.503
259.278	18.720	869.944	660.518
260.293	18.922	869.622	660.992
261.307	19.139	868.929	661.240
262.322	18.913	868.401	659.913
263.336	19.036	867.577	659.701
264.351	19.058	866.760	659.104
265.366	19.181	866.213	659.100
266.380	19.108	866.004	658.604
267.395	19.011	864.778	657.242
268.409	18.980	863.660	656.219
269.424	19.054	862.852	655.828
270.439	18.987	862.170	654.997
271.453	18.885	861.947	654.380
272.468	18.817	861.511	653.735
273.482	18.888	861.064	653.608
274.497	18.835	860.606	652.999
275.512	18.871	860.102	652.698
276.526	18.812	859.370	651.861
277.541	18.900	859.043	651.889
278.555	19.101	858.552	652.220
279.570	19.260	857.592	652.034
280.585	19.121	857.062	651.046
281.599	19.003	856.244	649.922
282.614	19.020	855.672	649.493
283.628	18.933	855.034	648.624
284.643	19.221	854.200	649.020
285.657	19.128	853.800	648.310
286.672	19.078	852.862	647.350
287.687	19.151	852.226	647.086
288.701	18.793	852.470	645.868
289.716	19.087	851.437	646.131
290.730	19.180	850.814	645.949
291.745	19.144	850.314	645.378
292.760	19.257	849.898	645.427
293.774	19.269	849.501	645.115
294.789	19.363	848.413	644.584
295.803	19.240	847.814	643.610
296.818	19.063	847.337	642.530
297.833	19.185	846.241	642.098
298.847	19.160	845.848	641.649
299.862	19.263	845.314	641.572
300.876	19.285	844.951	641.322
301.891	19.442	844.320	641.369
302.906	19.423	844.456	641.347
303.920	19.606	843.623	641.336
304.935	19.730	843.409	641.576
305.949	19.544	842.251	639.949
306.964	19.392	842.011	639.146
307.979	19.400	841.540	638.762
308.993	19.533	840.678	638.545
310.008	19.585	840.081	638.227
311.022	19.643	839.678	638.077
312.037	19.373	838.717	636.294
313.052	19.332	837.662	635.287
314.066	19.261	837.659	634.968
315.081	19.202	837.077	634.253
316.095	19.224	836.599	633.914
317.110	19.292	835.979	633.639
318.125	19.238	835.839	633.277
319.139	19.265	835.184	632.823
320.154	19.340	834.627	632.625
321.168	19.359	834.117	632.248
322.183	19.383	833.818	632.053
323.197	19.359	833.140	631.395
324.212	19.450	832.534	631.214
325.227	19.463	831.811	630.657
326.241	19.379	831.502	630.061
327.256	19.416	830.733	629.558
328.270	19.456	829.942	629.051
329.285	19.349	829.783	628.482
330.300	19.375	829.260	628.127
331.314	19.475	828.413	627.793
332.329	19.623	827.845	627.843
333.343	19.593	827.874	627.703
334.358	19.648	827.550	627.601
335.373	19.631	827.012	627.076
336.387	19.605	826.852	626.805
337.402	19.702	826.529	626.855
338.416	19.728	826.815	627.110
339.431	20.062	825.679	627.404
340.446	20.065	825.555	627.266
341.460	20.043	824.951	626.672
342.475	20.139	824.801	626.849
343.489	20.322	824.121	626.937
344.504	20.103	824.080	626.061
345.519	20.264	823.428	626.090
346.533	20.126	822.741	625.014
347.548	19.959	822.370	624.074
348.562	19.924	821.475	623.214
349.577	19.785	821.140	622.404
350.592	19.759	820.450	621.735
351.606	19.709	819.771	620.987
352.621	19.829	818.940	620.731
353.635	19.730	818.909	620.298
354.650	19.813	817.874	619.756
355.665	20.002	817.001	619.715
356.679	20.136	816.277	619.590
357.694	20.063	815.918	619.001
358.708	20.064	815.598	618.710
359.723	19.996	814.901	617.882
360.738	20.078	814.239	617.618
361.752	20.156	813.762	617.479
362.767	20.137	813.481	617.145
363.781	20.246	813.248	617.300
364.796	20.437	812.467	617.334
365.810	20.606	812.219	617.688
366.825	20.665	811.677	617.431
367.840	20.518	811.009	616.349
368.854	20.308	810.914	615.478
369.869	20.344	809.933	614.804
370.883	20.418	809.809	614.921
371.898	20.578	809.405	615.123
372.913	20.535	809.307	614.842
373.927	20.333	808.799	613.689
374.942	20.571	808.055	613.910
375.956	20.541	807.636	613.432
376.971	20.638	807.549	613.655
377.986	20.713	807.046	613.481
379.000	20.651	806.372	612.696
380.015	20.541	806.255	612.165
381.029	20.821	805.196	612.291
382.044	20.566	805.065	611.242
383.059	20.598	804.489	610.862
384.073	20.607	803.500	610.089
385.088	20.530	802.908	609.316
386.102	20.538	802.250	608.789
387.117	20.590	801.587	608.416
388.132	20.428	800.917	607.288
389.146	20.574	800.817	607.668
390.161	20.541	800.601	607.335
391.175	20.701	799.870	607.285
392.190	20.558	799.434	606.400
393.205	20.358	799.115	605.408
394.219	20.518	798.518	605.459
395.234	20.409	798.220	604.800
396.248	20.305	797.325	603.708
397.263	20.215	797.510	603.481
398.278	20.180	796.863	602.816
399.292	20.264	796.461	602.750
400.307	20.313	796.112	602.603
401.321	20.353	795.522	602.241
402.336	20.385	794.879	601.813
403.350	20.465	794.725	601.919
404.365	20.717	793.939	602.145
405.380	20.812	793.908	602.395
406.394	20.766	793.764	602.074
407.409	20.999	792.857	602.137
408.423	20.964	792.995	602.070
409.438	21.008	792.615	601.878
410.453	21.074	792.067	601.637
411.467	21.060	791.720	601.272
412.482	21.338	791.132	601.729
413.496	21.329	790.670	601.291
414.511	21.178	790.534	600.618
415.526	21.155	789.874	599.984
416.540	21.148	789.605	599.702
417.555	21.161	788.763	599.054
418.569	21.214	788.559	599.028
419.584	21.112	788.404	598.508
420.599	21.212	787.802	598.342
421.613	161.963	1369.809	1794.635
422.628	140.247	1454.606	1794.755
