DTS Sentinel unit serial number:	SN413079Multiplexer serial number:	ORYXHardware model number:	OX4-SRSoftware version number:	ORYX F/W v4.00 Oryx Data Collector v3.7.2.0data status	okinstallation	princeton_trtdifferential loss correction	single-endedforward channel	channel 1reverse channel	N/Adate	2019/09/16time	07:26:35forward acquisition time	60.00reverse acquisition time	0.00gamma	496.2192k internal	0.2330k external	0.2330temperature offset calibration	0.9982default loss term (dB/km)	0.3790temperature slope calibration	1.0000multiplexer offset coefficient	1.0000multiplexer slope coefficient	1.0000fibre end	0.00T internal ref (°C)	27.53T ext. ref 1 (°C)	11.61T ext. ref 2 (°C)	23.40length (m)	temperature (°C)	Stokes	anti-Stokes-747.200	36.322	0.332	-0.295
-746.185	101.474	0.186	0.218
-745.171	-52.523	-0.143	-0.067
-744.156	146.279	-0.116	0.157
-743.142	-112.247	-0.135	-0.027
-742.127	271.393	0.238	0.421
-741.112	-31.838	0.203	-0.115
-740.098	800.000	-0.111	0.370
-739.083	86.221	0.116	0.129
-738.069	-27.086	0.155	0.091
-737.054	-26.878	0.200	0.117
-736.039	-200.000	-0.006	-0.487
-735.025	113.381	0.064	0.078
-734.010	372.180	-0.098	0.200
-732.996	-107.917	-0.373	-0.082
-731.981	122.328	0.270	-0.339
-730.966	-98.086	0.200	0.052
-729.952	-24.933	-0.153	0.091
-728.937	-200.000	-0.034	0.170
-727.923	600.583	-0.091	-0.228
-726.908	102.292	0.115	-0.136
-725.894	124.726	-0.152	0.193
-724.879	554.734	0.116	-0.280
-723.864	308.598	-0.146	-0.274
-722.850	800.000	-0.072	-0.223
-721.835	-74.851	0.121	0.044
-720.821	31.896	-0.200	0.174
-719.806	-17.688	0.045	-0.028
-718.791	16.433	-0.185	0.147
-717.777	-61.801	-0.271	0.114
-716.762	800.000	0.128	-0.362
-715.748	95.717	-0.096	-0.111
-714.733	-30.688	-0.099	0.056
-713.718	621.475	-0.054	-0.135
-712.704	185.846	0.183	-0.274
-711.689	-71.283	0.274	0.103
-710.675	-12.024	0.147	-0.097
-709.660	98.499	0.126	0.146
-708.645	472.897	-0.060	0.136
-707.631	409.467	-0.004	0.009
-706.616	-31.763	0.098	0.055
-705.602	115.014	-0.190	-0.233
-704.587	5.762	-0.155	0.115
-703.572	800.000	0.030	-0.109
-702.558	166.859	0.131	0.187
-701.543	-105.408	-0.174	0.040
-700.529	-7.209	0.385	-0.262
-699.514	-200.000	0.001	-0.408
-698.499	-150.000	-0.167	-0.013
-697.485	55.585	0.354	0.344
-696.470	-200.000	0.002	-0.179
-695.456	-25.736	0.242	-0.144
-694.441	-117.999	0.256	-0.046
-693.426	-200.000	0.025	0.243
-692.412	800.000	-0.035	-0.116
-691.397	-89.440	0.081	0.024
-690.383	800.000	-0.061	-0.197
-689.368	-107.621	-0.205	-0.045
-688.354	800.000	-0.041	-0.136
-687.339	334.138	0.082	-0.159
-686.324	-200.000	-0.050	0.221
-685.310	800.000	0.049	0.210
-684.295	-112.770	-0.069	-0.014
-683.281	-181.239	-0.204	0.004
-682.266	-62.855	0.106	0.044
-681.251	-99.836	0.199	-0.050
-680.237	250.302	-0.202	-0.344
-679.222	27.963	0.081	-0.068
-678.208	-200.000	0.004	-0.079
-677.193	800.000	0.076	-0.216
-676.178	-200.000	0.025	-0.478
-675.164	156.099	-0.043	0.060
-674.149	-42.621	-0.295	0.151
-673.135	-200.000	0.005	-0.075
-672.120	5.759	0.092	0.068
-671.105	143.006	-0.413	-0.551
-670.091	-43.509	0.163	0.082
-669.076	-200.000	-0.012	-0.134
-668.062	-30.206	-0.352	-0.201
-667.047	-146.705	0.183	0.016
-666.032	-57.845	-0.042	-0.019
-665.018	-112.908	0.160	0.032
-664.003	-200.000	0.010	0.436
-662.989	365.013	0.095	-0.192
-661.974	-24.550	-0.296	0.177
-660.959	191.829	-0.013	-0.020
-659.945	-48.544	-0.115	-0.056
-658.930	800.000	-0.084	-0.329
-657.916	-45.412	-0.081	0.040
-656.901	17.435	-0.229	-0.182
-655.886	-2.729	-0.098	-0.068
-654.872	89.337	0.303	-0.339
-653.857	219.780	-0.007	0.011
-652.843	-44.476	-0.226	-0.113
-651.828	-200.000	-0.004	-0.114
-650.814	-200.000	0.007	0.197
-649.799	-14.752	-0.239	0.154
-648.784	262.689	0.050	0.088
-647.770	-20.765	0.119	-0.073
-646.755	-200.000	0.038	-0.302
-645.741	149.922	0.040	0.055
-644.726	-200.000	-0.048	-0.228
-643.711	-16.907	-0.280	0.177
-642.697	-200.000	-0.078	0.402
-641.682	-68.995	0.173	-0.067
-640.668	-200.000	0.012	0.134
-639.653	56.101	0.125	-0.121
-638.638	56.405	-0.283	0.275
-637.624	132.441	0.113	0.146
-636.609	-65.266	-0.217	-0.087
-635.595	-139.081	-0.150	0.016
-634.580	1.194	-0.059	-0.043
-633.565	0.822	0.224	0.161
-632.551	214.556	0.120	-0.190
-631.536	800.000	-0.044	0.139
-630.522	59.556	-0.309	0.305
-629.507	69.448	0.222	-0.229
-628.492	93.930	-0.139	-0.158
-627.478	-71.960	-0.382	0.142
-626.463	336.212	-0.084	0.163
-625.449	-114.614	0.120	0.023
-624.434	172.705	0.087	0.125
-623.419	22.906	-0.058	0.047
-622.405	-137.906	-0.147	-0.016
-621.390	15.332	-0.126	-0.099
-620.376	406.140	0.021	-0.044
-619.361	-178.410	0.167	-0.004
-618.346	-157.197	0.430	0.026
-617.332	-83.370	0.209	-0.067
-616.317	800.000	0.073	-0.308
-615.303	-186.201	-0.232	0.003
-614.288	294.908	-0.103	-0.189
-613.273	-124.214	-0.227	0.036
-612.259	-200.000	-0.009	0.251
-611.244	-76.715	0.221	0.078
-610.230	-75.758	-0.272	0.096
-609.215	151.154	0.144	-0.196
-608.201	-92.409	0.401	-0.113
-607.186	-200.000	-0.002	-0.191
-606.171	210.859	-0.178	-0.280
-605.157	-200.000	0.025	0.169
-604.142	-200.000	-0.024	0.144
-603.128	-166.897	-0.212	0.009
-602.113	325.108	0.256	-0.490
-601.098	288.589	-0.069	-0.126
-600.084	-15.964	0.156	0.099
-599.069	245.579	-0.096	0.162
-598.055	-101.743	-0.149	-0.036
-597.040	153.255	-0.082	0.112
-596.025	-0.794	0.160	-0.113
-595.011	24.482	0.061	0.051
-593.996	-175.209	-0.063	-0.002
-592.982	-200.000	0.011	0.108
-591.967	-32.077	0.201	0.113
-590.952	114.661	0.158	-0.193
-589.938	-23.615	0.276	0.165
-588.923	468.076	0.132	0.297
-587.909	501.903	0.102	0.237
-586.894	85.296	-0.059	-0.065
-585.879	675.010	-0.060	0.156
-584.865	7.986	0.076	-0.057
-583.850	204.366	0.247	0.383
-582.836	55.333	-0.207	-0.200
-581.821	800.000	-0.163	-0.545
-580.806	-200.000	-0.003	0.045
-579.792	0.207	0.265	0.189
-578.777	-42.176	-0.328	-0.168
-577.763	-77.231	0.143	-0.050
-576.748	511.125	0.159	0.369
-575.733	129.828	0.295	-0.378
-574.719	-106.115	0.324	-0.073
-573.704	-200.000	0.000	0.152
-572.690	-200.000	0.003	-0.174
-571.675	800.000	-0.108	0.455
-570.661	-45.101	0.089	-0.044
-569.646	-127.042	0.101	-0.015
-568.631	287.726	-0.025	0.045
-567.617	-94.668	-0.273	-0.074
-566.602	-95.238	-0.199	-0.054
-565.588	-149.818	0.471	-0.037
-564.573	-53.694	-0.321	-0.146
-563.558	30.981	0.084	0.072
-562.544	-124.120	-0.609	0.095
-561.529	522.669	-0.165	-0.388
-560.515	-200.000	-0.014	0.151
-559.500	-22.961	-0.152	0.092
-558.485	800.000	-0.019	-0.072
-557.471	31.624	0.161	-0.138
-556.456	18.536	-0.206	-0.165
-555.442	-86.837	-0.195	0.060
-554.427	69.333	-0.018	0.019
-553.412	-200.000	-0.028	0.205
-552.398	-55.886	0.118	0.053
-551.383	-175.421	-0.279	0.008
-550.369	-31.064	-0.177	0.100
-549.354	532.271	0.053	-0.126
-548.339	-179.422	-0.154	0.003
-547.325	277.239	0.155	-0.275
-546.310	11.876	-0.225	0.173
-545.296	800.000	-0.046	0.153
-544.281	68.632	0.283	0.290
-543.266	-85.104	0.290	-0.091
-542.252	583.209	-0.143	0.350
-541.237	118.108	0.170	-0.209
-540.223	67.179	0.099	0.100
-539.208	-168.020	0.176	0.007
-538.193	-200.000	-0.056	-0.340
-537.179	-200.000	-0.037	0.533
-536.164	231.154	0.076	0.125
-535.150	-93.314	-0.285	-0.079
-534.135	-194.773	-0.290	-0.002
-533.121	800.000	-0.119	-0.359
-532.106	-200.000	0.079	-0.432
-531.091	-137.335	-0.421	-0.048
-530.077	-22.138	0.264	0.160
-529.062	-54.054	0.079	0.036
-528.048	178.362	-0.218	0.318
-527.033	696.270	-0.047	0.123
-526.018	-200.000	0.104	-0.564
-525.004	-61.642	0.374	-0.157
-523.989	2.152	0.292	0.211
-522.975	-155.036	-0.220	0.014
-521.960	-200.000	0.016	-0.172
-520.945	62.163	-0.080	0.080
-519.931	-28.600	0.094	0.054
-518.916	-181.617	-0.210	0.004
-517.902	-45.373	-0.246	0.122
-516.887	800.000	-0.072	-0.205
-515.872	477.106	-0.071	0.161
-514.858	-50.732	0.077	0.036
-513.843	142.963	-0.203	0.270
-512.829	81.769	-0.126	-0.136
-511.814	-79.214	-0.249	-0.084
-510.799	167.205	0.077	0.110
-509.785	227.918	0.171	0.277
-508.770	-50.772	-0.170	-0.080
-507.756	250.866	-0.072	0.122
-506.741	-68.407	0.144	-0.056
-505.726	-116.238	0.333	0.062
-504.712	9.369	-0.439	-0.331
-503.697	655.722	0.097	-0.248
-502.683	16.325	0.081	-0.064
-501.668	-134.491	0.148	0.018
-500.653	-114.565	0.269	-0.051
-499.639	-116.630	0.279	-0.051
-498.624	-200.000	-0.075	0.373
-497.610	-83.281	0.075	-0.024
-496.595	-200.000	0.026	-0.260
-495.581	190.364	-0.101	0.152
-494.566	567.701	0.127	0.309
-493.551	-95.309	-0.297	0.080
-492.537	-1.045	0.064	-0.045
-491.522	-161.918	-0.280	-0.014
-490.508	-133.063	-0.101	-0.013
-489.493	288.056	0.106	0.192
-488.478	800.000	-0.065	-0.192
-487.464	116.770	-0.151	0.185
-486.449	-34.909	-0.101	0.055
-485.435	-79.352	-0.269	0.091
-484.420	-200.000	0.036	0.401
-483.405	-23.553	0.237	0.142
-482.391	216.813	-0.124	0.197
-481.376	-78.103	0.370	0.127
-480.362	796.605	-0.011	-0.030
-479.347	-126.797	-0.157	0.023
-478.332	800.000	-0.056	-0.182
-477.318	311.529	-0.139	-0.259
-476.303	-200.000	0.035	0.270
-475.289	51.679	-0.037	-0.035
-474.274	-92.243	0.356	0.100
-473.259	-200.000	0.010	0.123
-472.245	-54.524	-0.096	-0.043
-471.230	116.681	0.055	-0.067
-470.216	-96.511	0.083	0.022
-469.201	-198.152	-0.325	0.002
-468.186	-200.000	0.026	-0.273
-467.172	-200.000	0.181	0.000
-466.157	-18.539	0.427	-0.265
-465.143	126.988	0.162	-0.204
-464.128	-46.872	0.088	0.043
-463.113	488.116	-0.147	-0.335
-462.099	-96.872	-0.209	-0.055
-461.084	381.670	-0.195	-0.398
-460.070	800.000	-0.102	0.341
-459.055	800.000	-0.144	0.412
-458.040	233.157	0.065	-0.107
-457.026	65.647	0.308	0.310
-456.011	-52.292	-0.146	-0.067
-454.997	16.171	0.146	-0.114
-453.982	524.662	0.093	-0.217
-452.968	433.261	-0.124	-0.269
-451.953	77.120	0.135	-0.143
-450.938	158.911	-0.180	-0.249
-449.924	-56.093	0.255	-0.113
-448.909	-200.000	0.015	-0.225
-447.895	761.963	0.054	-0.145
-446.880	-200.000	0.012	-0.081
-445.865	21.796	-0.086	0.069
-444.851	384.754	0.025	0.051
-443.836	800.000	-0.085	0.248
-442.822	86.722	-0.184	0.202
-441.807	-79.126	0.151	0.051
-440.792	-200.000	0.271	-0.001
-439.778	234.233	0.224	0.367
-438.763	800.000	0.023	-0.085
-437.749	37.920	-0.293	-0.259
-436.734	-99.235	0.361	0.091
-435.719	-55.235	-0.211	-0.094
-434.705	-19.762	0.084	-0.052
-433.690	185.457	0.123	-0.182
-432.676	-48.039	-0.176	0.085
-431.661	-118.974	-0.280	0.049
-430.646	-200.000	-0.024	0.250
-429.632	-74.818	-0.235	0.084
-428.617	272.268	-0.081	0.142
-427.603	570.358	0.123	0.297
-426.588	41.855	-0.234	0.211
-425.573	42.730	-0.082	-0.074
-424.559	-200.000	-0.012	0.108
-423.544	-13.869	0.227	0.146
-422.530	115.542	-0.247	-0.300
-421.515	162.169	-0.207	0.288
-420.500	146.071	-0.144	-0.192
-419.486	-118.473	0.293	0.052
-418.471	129.634	-0.091	-0.116
-417.457	-128.284	0.258	0.037
-416.442	-122.749	-0.315	0.051
-415.428	-7.455	0.167	-0.112
-414.413	-136.769	0.149	0.017
-413.398	-66.392	0.255	0.101
-412.384	-158.162	0.192	-0.011
-411.369	800.000	0.056	0.201
-410.355	73.302	-0.101	-0.105
-409.340	302.940	-0.053	0.097
-408.325	-57.576	-0.217	-0.094
-407.311	9.235	0.053	0.040
-406.296	-200.000	-0.008	-0.045
-405.282	-21.668	-0.100	-0.060
-404.267	-200.000	0.084	-0.466
-403.252	-130.817	0.203	0.027
-402.238	701.813	-0.118	0.309
-401.223	-200.000	-0.009	0.062
-400.209	-200.000	0.049	0.297
-399.194	-21.157	-0.161	-0.098
-398.179	-85.071	0.094	0.029
-397.165	-126.858	-0.171	0.025
-396.150	-86.166	-0.294	0.090
-395.136	-79.157	0.461	-0.155
-394.121	-200.000	-0.027	-0.202
-393.106	-110.439	-0.173	-0.036
-392.092	313.908	0.094	-0.175
-391.077	-200.000	0.005	0.280
-390.063	800.000	0.017	0.072
-389.048	-200.000	-0.013	-0.171
-388.033	23.041	0.242	-0.197
-387.019	-116.280	-0.292	-0.054
-386.004	-126.661	-0.180	0.027
-384.990	211.340	0.153	0.240
-383.975	-133.592	-0.233	-0.029
-382.960	800.000	-0.028	0.114
-381.946	-47.895	0.175	0.084
-380.931	584.464	0.143	-0.348
-379.917	126.947	-0.257	-0.324
-378.902	35.085	0.222	0.193
-377.888	382.776	0.014	-0.029
-376.873	36.504	0.212	-0.186
-375.858	-200.000	0.038	-0.199
-374.844	-19.806	-0.216	-0.132
-373.829	-12.269	0.133	-0.086
-372.815	186.980	-0.093	-0.138
-371.800	104.294	0.092	0.108
-370.785	241.982	0.034	-0.056
-369.771	800.000	0.069	-0.238
-368.756	-200.000	-0.032	-0.386
-367.742	-16.393	0.313	-0.197
-366.727	800.000	0.053	0.173
-365.712	41.616	0.164	-0.147
-364.698	253.562	0.149	0.252
-363.683	-200.000	-0.001	0.269
-362.669	-75.472	-0.211	-0.075
-361.654	214.609	0.199	0.312
-360.639	269.941	0.021	-0.036
-359.625	800.000	-0.016	0.046
-358.610	251.951	-0.173	0.292
-357.596	800.000	0.061	-0.235
-356.581	800.000	-0.075	-0.299
-355.566	201.148	0.109	-0.167
-354.552	432.317	0.111	0.238
-353.537	-81.112	0.163	-0.054
-352.523	185.961	-0.212	0.313
-351.508	-99.590	0.142	-0.035
-350.493	800.000	-0.056	0.184
-349.479	487.312	-0.191	0.431
-348.464	800.000	0.105	0.290
-347.450	-5.659	0.233	0.158
-346.435	55.412	-0.044	-0.042
-345.420	800.000	0.086	-0.253
-344.406	-200.000	-0.015	-0.160
-343.391	4.584	0.215	0.156
-342.377	-200.000	-0.024	0.117
-341.362	176.510	0.289	-0.416
-340.348	132.918	-0.225	0.288
-339.333	-70.735	-0.171	-0.064
-338.318	800.000	0.054	0.221
-337.304	47.888	-0.051	0.047
-336.289	-119.034	-0.287	0.050
-335.275	-200.000	0.004	-0.035
-334.260	22.054	-0.178	0.144
-333.245	-200.000	0.001	-0.018
-332.231	-98.190	0.183	-0.047
-331.216	276.558	0.246	0.432
-330.202	-55.782	-0.260	0.115
-329.187	727.354	0.089	-0.236
-328.172	326.309	-0.169	-0.320
-327.158	-200.000	-0.018	-0.357
-326.143	-6.202	-0.219	-0.148
-325.129	32.972	0.128	0.110
-324.114	-34.506	0.364	0.197
-323.099	-200.000	0.012	-0.194
-322.085	-72.261	0.169	-0.062
-321.070	-200.000	-0.032	-0.251
-320.056	14.718	0.030	0.023
-319.041	-149.911	-0.282	-0.022
-318.026	-200.000	-0.057	0.333
-317.012	800.000	-0.072	0.224
-315.997	-200.000	-0.044	-0.246
-314.983	-18.656	-0.079	0.049
-313.968	-194.385	0.385	-0.003
-312.953	53.349	0.150	0.143
-311.939	-97.169	0.246	0.064
-310.924	33.252	0.101	-0.087
-309.910	-200.000	0.029	-0.182
-308.895	565.061	-0.119	-0.286
-307.880	-128.739	0.227	0.032
-306.866	-137.064	0.479	-0.054
-305.851	5.114	-0.152	0.111
-304.837	-200.000	-0.027	-0.123
-303.822	-126.929	0.403	-0.059
-302.807	-87.451	-0.107	-0.032
-301.793	785.369	-0.032	-0.088
-300.778	-121.054	-0.004	-0.001
-299.764	-200.000	0.013	-0.285
-298.749	81.119	0.110	-0.117
-297.735	-64.454	-0.383	-0.154
-296.720	800.000	-0.065	0.249
-295.705	-71.636	-0.144	-0.053
-294.691	800.000	-0.018	-0.077
-293.676	-39.979	-0.143	0.074
-292.662	-97.646	0.221	-0.057
-291.647	73.136	-0.225	0.233
-290.632	-138.581	0.250	-0.027
-289.618	-112.278	0.234	-0.046
-288.603	800.000	-0.076	0.329
-287.589	-200.000	-0.008	-0.271
-286.574	-200.000	-0.000	0.058
-285.559	29.024	-0.404	0.339
-284.545	-17.381	-0.253	-0.158
-283.530	800.000	0.069	0.219
-282.516	-128.420	-0.368	-0.052
-281.501	-64.470	0.304	0.122
-280.486	-156.776	0.041	0.002
-279.472	28.441	-0.199	-0.166
-278.457	11.627	-0.094	0.071
-277.443	20.188	0.261	-0.208
-276.428	-87.865	-0.059	-0.018
-275.413	76.547	0.050	0.052
-274.399	-102.451	-0.329	-0.078
-273.384	-28.043	0.239	0.137
-272.370	252.107	0.094	0.157
-271.355	135.277	0.162	-0.208
-270.340	73.081	0.066	-0.068
-269.326	8.659	0.065	-0.049
-268.311	-44.925	-0.229	-0.113
-267.297	49.605	0.190	0.177
-266.282	-76.203	-0.265	-0.092
-265.267	-91.664	-0.229	0.064
-264.253	-200.000	-0.001	0.099
-263.238	-40.201	0.285	-0.147
-262.224	-200.000	-0.020	-0.133
-261.209	88.014	0.143	-0.157
-260.195	-103.037	-0.067	-0.016
-259.180	-18.357	-0.169	0.104
-258.165	54.011	0.126	0.120
-257.151	427.882	-0.041	-0.087
-256.136	-200.000	-0.030	-0.214
-255.122	-3.630	-0.258	0.177
-254.107	-38.725	-0.151	-0.079
-253.092	-158.802	-0.159	0.009
-252.078	-149.189	0.206	0.016
-251.063	584.279	-0.076	-0.184
-250.049	-48.095	0.256	-0.122
-249.034	15.476	0.119	0.093
-248.019	153.029	-0.029	0.040
-247.005	-73.626	-0.203	0.073
-245.990	-104.322	0.287	0.066
-244.976	-200.000	-0.052	-0.274
-243.961	-105.144	-0.380	0.086
-242.946	187.399	-0.121	0.178
-241.932	143.649	0.131	0.172
-240.917	800.000	0.081	0.253
-239.903	-80.734	0.144	0.047
-238.888	63.202	-0.128	0.127
-237.873	800.000	-0.059	0.220
-236.859	-200.000	-0.022	0.109
-235.844	-107.547	0.049	0.011
-234.830	353.813	0.166	0.325
-233.815	-86.505	0.218	0.066
-232.800	-60.842	-0.252	-0.105
-231.786	800.000	-0.084	0.239
-230.771	329.069	0.142	-0.269
-229.757	208.650	0.091	-0.141
-228.742	-180.102	0.182	-0.004
-227.727	-48.908	0.224	0.106
-226.713	271.215	-0.191	0.333
-225.698	-200.000	-0.011	0.436
-224.684	66.295	-0.074	-0.074
-223.669	-200.000	-0.068	0.297
-222.655	267.688	-0.187	-0.322
-221.640	17.496	0.246	0.193
-220.625	-200.000	-0.027	0.143
-219.611	-152.089	-0.340	-0.024
-218.596	70.980	-0.217	-0.222
-217.582	250.342	0.063	-0.106
-216.567	-31.133	-0.150	-0.084
-215.552	-200.000	0.004	0.044
-214.538	-71.028	0.345	0.128
-213.523	315.736	-0.112	-0.208
-212.509	-125.762	0.173	-0.026
-211.494	800.000	-0.044	0.179
-210.479	-1.420	0.146	-0.102
-209.465	-200.000	-0.013	0.287
-208.450	-57.764	-0.102	-0.044
-207.436	800.000	0.019	-0.078
-206.421	280.260	-0.173	-0.305
-205.406	-122.353	0.204	-0.033
-204.392	-200.000	-0.021	0.197
-203.377	329.316	0.067	-0.126
-202.363	65.288	0.088	0.087
-201.348	-116.122	0.058	-0.011
-200.333	106.787	0.059	-0.069
-199.319	486.915	0.118	-0.266
-198.304	800.000	-0.048	-0.191
-197.290	330.970	0.027	-0.051
-196.275	-132.430	-0.109	-0.014
-195.260	609.207	0.086	-0.211
-194.246	48.797	-0.208	-0.192
-193.231	-200.000	-0.082	-0.532
-192.217	-27.404	-0.371	-0.213
-191.202	-53.387	0.307	0.138
-190.187	70.132	0.117	-0.119
-189.173	450.608	0.071	-0.155
-188.158	172.590	0.053	-0.075
-187.144	50.810	0.158	-0.147
-186.129	177.496	0.040	-0.058
-185.114	-14.486	0.267	-0.169
-184.100	-83.190	0.069	0.022
-183.085	74.699	0.129	-0.134
-182.071	338.450	0.082	-0.157
-181.056	108.778	-0.152	0.179
-180.042	-119.880	0.187	0.032
-179.027	-50.384	-0.157	-0.073
-178.012	319.678	-0.127	0.238
-176.998	800.000	0.098	0.320
-175.983	-200.000	0.017	-0.167
-174.969	-200.000	-0.002	0.026
-173.954	-148.327	-0.215	0.017
-172.939	-200.000	-0.036	0.250
-171.925	-129.905	-0.448	-0.060
-170.910	800.000	-0.085	-0.269
-169.896	-82.182	0.199	-0.064
-168.881	-200.000	0.004	0.070
-167.866	279.145	0.122	-0.213
-166.852	800.000	-0.048	0.182
-165.837	-200.000	0.031	-0.296
-164.823	800.000	0.075	0.302
-163.808	56.175	0.170	0.163
-162.793	-77.831	-0.116	-0.039
-161.779	35.755	-0.127	0.110
-160.764	-19.965	-0.153	-0.093
-159.750	-66.558	-0.440	-0.172
-158.735	-39.761	0.300	0.155
-157.720	-200.000	0.004	-0.033
-156.706	1.870	-0.156	-0.111
-155.691	-200.000	0.023	0.335
-154.677	-81.329	0.184	0.060
-153.662	-118.960	0.328	0.057
-152.647	-62.470	-0.309	-0.126
-151.633	-77.746	-0.170	0.058
-150.618	-18.735	0.184	0.113
-149.604	351.075	-0.036	0.071
-148.589	-179.659	-0.186	0.004
-147.574	136.499	0.171	-0.219
-146.560	700.673	-0.119	-0.307
-145.545	-65.995	-0.203	0.080
-144.531	290.562	0.078	0.140
-143.516	85.072	0.086	-0.093
-142.502	126.568	-0.199	-0.247
-141.487	-76.050	0.321	0.111
-140.472	-154.980	-0.335	-0.022
-139.458	-178.720	0.117	-0.003
-138.443	-69.691	0.179	0.067
-137.429	-104.809	-0.274	0.062
-136.414	-34.544	0.097	0.052
-135.399	-200.000	-0.004	-0.035
-134.385	516.741	0.070	0.162
-133.370	-200.000	0.114	0.593
-132.356	-133.538	-0.150	-0.018
-131.341	205.183	0.101	-0.154
-130.326	800.000	0.029	-0.085
-129.312	-1.712	0.297	0.205
-128.297	164.903	0.135	-0.187
-127.283	800.000	0.122	0.420
-126.268	337.223	0.089	-0.170
-125.253	124.997	-0.267	-0.331
-124.239	-11.987	0.188	-0.121
-123.224	-113.945	0.548	-0.105
-122.210	-101.731	-0.057	0.013
-121.195	-50.388	-0.188	0.087
-120.180	636.267	0.103	0.256
-119.166	-125.331	-0.272	0.041
-118.151	-25.997	0.166	-0.096
-117.137	156.491	-0.276	0.374
-116.122	85.539	-0.150	-0.162
-115.107	134.619	0.201	0.256
-114.093	800.000	0.109	0.353
-113.078	-159.858	-0.106	-0.006
-112.064	800.000	-0.125	-0.375
-111.049	-88.679	0.276	-0.081
-110.034	800.000	-0.136	0.400
-109.020	64.627	0.212	0.209
-108.005	174.520	-0.135	-0.192
-106.991	-200.000	-0.028	0.319
-105.976	235.830	-0.135	-0.220
-104.962	800.000	0.011	0.033
-103.947	-200.000	0.008	-0.266
-102.932	-104.021	0.316	-0.072
-101.918	-67.184	-0.299	-0.116
-100.903	-61.052	-0.129	-0.053
-99.889	-133.550	-0.294	0.036
-98.874	196.013	0.063	-0.094
-97.859	-182.306	0.315	0.006
-96.845	800.000	0.052	-0.211
-95.830	-31.884	-0.280	-0.154
-94.816	144.331	0.117	-0.153
-93.801	366.863	0.100	-0.198
-92.786	-82.821	0.128	-0.041
-91.772	-70.958	0.339	0.125
-90.757	141.985	0.198	0.258
-89.743	800.000	0.066	0.209
-88.728	93.775	0.011	-0.012
-87.713	-96.838	-0.086	0.022
-86.699	366.805	-0.042	-0.084
-85.684	36.623	0.147	-0.127
-84.670	591.555	-0.156	0.378
-83.655	315.232	0.136	-0.252
-82.640	321.224	0.084	0.156
-81.626	-148.525	0.326	-0.026
-80.611	31.297	-0.020	0.017
-79.597	206.437	-0.201	0.307
-78.582	800.000	0.097	0.341
-77.567	-65.175	-0.177	0.070
-76.553	-200.000	-0.005	0.178
-75.538	284.166	-0.084	-0.148
-74.524	194.939	0.111	0.165
-73.509	-200.000	-0.012	-0.267
-72.494	-22.601	0.352	0.209
-71.480	694.419	0.021	-0.055
-70.465	-1.204	0.144	0.100
-69.451	414.534	0.023	-0.049
-68.436	292.588	-0.041	0.074
-67.422	779.186	0.099	-0.266
-66.407	-13.873	-0.023	0.015
-65.392	-16.647	0.280	0.174
-64.378	-148.840	0.275	0.022
-63.363	-156.582	0.151	0.009
-62.349	68.662	0.053	0.054
-61.334	155.753	-0.770	-1.040
-60.319	-41.277	0.797	0.402
-59.305	-200.000	-0.160	-1.116
-58.290	114.974	0.902	1.078
-57.276	800.000	0.418	1.357
-56.261	-200.000	112.056	629.790
-55.246	463.529	1506.583	3298.257
-54.232	146.565	2677.606	3524.531
-53.217	103.966	2160.664	2488.427
-52.203	39.011	1607.022	1407.449
-51.188	30.757	1352.848	1134.729
-50.173	28.024	1314.024	1085.911
-49.159	54.833	1370.546	1295.853
-48.144	53.868	1385.084	1303.715
-47.130	31.185	1340.096	1126.436
-46.115	27.615	1322.594	1090.376
-45.100	27.409	1317.449	1084.860
-44.086	27.372	1314.936	1082.526
-43.071	27.434	1312.619	1080.947
-42.057	27.314	1311.323	1079.127
-41.042	27.462	1309.053	1078.091
-40.027	27.466	1307.439	1076.739
-39.013	27.401	1305.371	1074.613
-37.998	27.394	1304.271	1073.625
-36.984	27.454	1302.581	1072.542
-35.969	27.488	1300.223	1070.759
-34.954	27.541	1298.693	1069.768
-33.940	27.520	1297.514	1068.631
-32.925	27.563	1295.775	1067.408
-31.911	27.604	1294.564	1066.607
-30.896	27.606	1293.450	1065.661
-29.881	27.712	1291.598	1064.709
-28.867	27.745	1289.796	1063.372
-27.852	27.624	1288.811	1061.817
-26.838	27.610	1287.463	1060.582
-25.823	27.622	1286.092	1059.481
-24.809	27.446	1285.128	1057.621
-23.794	27.622	1283.196	1057.007
-22.779	27.615	1282.371	1056.249
-21.765	27.623	1280.807	1054.964
-20.750	27.575	1279.490	1053.556
-19.736	27.517	1278.370	1052.262
-18.721	27.543	1277.048	1051.283
-17.706	27.467	1276.352	1050.228
-16.692	27.515	1275.093	1049.428
-15.677	27.523	1273.777	1048.350
-14.663	27.567	1272.549	1047.545
-13.648	27.568	1271.358	1046.534
-12.633	27.432	1271.000	1045.418
-11.619	27.396	1269.994	1044.337
-10.604	27.516	1268.857	1044.049
-9.590	27.505	1267.971	1043.218
-8.575	27.459	1266.841	1041.985
-7.560	27.490	1265.882	1041.329
-6.546	27.530	1265.040	1040.824
-5.531	27.496	1264.479	1040.129
-4.517	27.420	1263.352	1038.728
-3.502	27.398	1262.813	1038.117
-2.487	27.452	1261.611	1037.394
-1.473	27.475	1257.699	1034.265
-0.458	26.161	1243.042	1014.795
0.556	21.842	1226.872	980.827
1.571	18.472	1234.690	967.988
2.586	17.898	1250.120	976.713
3.600	17.949	1239.096	968.308
4.615	16.393	1172.752	908.020
5.629	13.336	1105.967	840.722
6.644	11.776	1089.684	820.454
7.659	11.607	1087.269	817.715
8.673	11.557	1085.841	816.318
9.688	11.501	1084.321	814.825
10.702	11.797	1081.876	814.391
11.717	13.803	1084.167	826.037
12.731	16.604	1087.941	842.812
13.746	18.044	1089.082	850.793
14.761	17.801	1088.164	848.793
15.775	16.707	1086.059	841.644
16.790	15.584	1084.063	834.446
17.804	14.903	1082.265	829.610
18.819	14.437	1081.406	826.567
19.834	14.304	1080.162	824.886
20.848	13.974	1079.558	822.717
21.863	13.856	1077.922	820.812
22.877	13.667	1077.834	819.742
23.892	13.557	1077.266	818.691
24.907	13.599	1076.540	818.276
25.921	13.571	1075.419	817.213
26.936	13.652	1074.206	816.620
27.950	13.776	1072.416	815.797
28.965	13.722	1071.293	814.603
29.980	13.845	1069.607	813.854
30.994	13.812	1068.598	812.853
32.009	13.816	1067.475	811.943
33.023	13.814	1065.802	810.588
34.038	13.835	1065.078	810.071
35.053	13.722	1064.427	808.954
36.067	13.634	1063.798	807.974
37.082	13.733	1062.836	807.653
38.096	13.918	1061.865	807.746
39.111	13.799	1061.133	806.538
40.126	13.517	1060.268	804.438
41.140	13.593	1058.785	803.614
42.155	13.524	1057.617	802.320
43.169	13.528	1056.191	801.185
44.184	13.611	1054.841	800.493
45.199	13.604	1054.307	799.982
46.213	13.664	1052.965	799.181
47.228	13.706	1051.868	798.481
48.242	13.622	1051.026	797.368
49.257	13.688	1049.948	796.797
50.271	13.717	1049.097	796.218
51.286	13.754	1048.252	795.686
52.301	13.642	1047.433	794.458
53.315	13.689	1046.291	793.746
54.330	13.696	1045.256	792.923
55.344	13.675	1043.934	791.750
56.359	13.593	1043.642	791.065
57.374	13.591	1042.654	790.237
58.388	13.586	1041.944	789.608
59.403	13.585	1040.746	788.624
60.417	13.477	1040.163	787.600
61.432	13.522	1039.359	787.134
62.447	13.566	1038.398	786.546
63.461	13.448	1037.490	785.226
64.476	13.452	1036.688	784.570
65.490	13.487	1035.925	784.088
66.505	13.448	1035.364	783.409
67.520	13.443	1034.752	782.857
68.534	13.590	1034.073	782.965
69.549	13.530	1032.921	781.740
70.563	13.499	1032.376	781.115
71.578	13.395	1031.651	780.005
72.593	13.380	1031.033	779.400
73.607	13.390	1030.278	778.806
74.622	13.476	1029.794	778.776
75.636	13.499	1028.894	778.135
76.651	13.332	1028.292	776.829
77.666	13.347	1027.705	776.386
78.680	13.366	1026.884	775.785
79.695	13.417	1026.130	775.388
80.709	13.572	1025.361	775.462
81.724	13.496	1025.047	774.800
82.739	13.611	1024.050	774.515
83.753	13.705	1023.242	774.277
84.768	13.769	1022.355	773.836
85.782	13.780	1021.696	773.316
86.797	13.693	1020.829	772.186
87.812	13.697	1019.777	771.341
88.826	13.648	1018.652	770.196
89.841	13.815	1017.561	770.076
90.855	13.779	1016.743	769.225
91.870	13.716	1016.314	768.539
92.884	13.863	1015.373	768.438
93.899	13.795	1014.503	767.400
94.914	13.839	1014.003	767.157
95.928	13.806	1013.082	766.241
96.943	13.785	1012.151	765.373
97.957	13.817	1011.092	764.651
98.972	13.871	1009.920	763.946
99.987	13.717	1009.284	762.685
101.001	13.830	1008.465	762.518
102.016	13.813	1007.362	761.539
103.030	13.815	1007.139	761.313
104.045	13.865	1005.401	760.162
105.060	13.837	1004.967	759.639
106.074	13.766	1003.785	758.354
107.089	13.587	1003.084	756.939
108.103	13.579	1001.937	755.969
109.118	13.650	1001.223	755.686
110.133	13.541	1000.300	754.426
111.147	13.569	999.266	753.707
112.162	13.589	998.706	753.310
113.176	13.723	997.728	753.117
114.191	13.725	997.223	752.677
115.206	13.633	996.111	751.352
116.220	13.593	995.531	750.669
117.235	13.628	994.458	749.948
118.249	13.690	993.933	749.771
119.264	13.757	993.209	749.458
120.279	13.596	992.406	748.059
121.293	13.623	991.280	747.267
122.308	13.609	990.547	746.584
123.322	13.617	989.732	745.939
124.337	13.676	988.410	745.145
125.352	13.428	987.454	743.243
126.366	13.617	986.009	742.936
127.381	13.682	984.819	742.267
128.395	13.609	984.706	741.787
129.410	13.714	983.477	741.267
130.424	13.727	983.027	740.919
131.439	13.718	981.911	739.973
132.454	13.689	981.590	739.534
133.468	13.738	980.488	738.860
134.483	13.795	979.588	738.368
135.497	13.785	978.698	737.586
136.512	13.665	977.969	736.441
137.527	13.752	977.108	736.111
138.541	13.665	976.432	735.154
139.556	13.702	975.717	734.713
140.570	13.851	974.980	734.755
141.585	13.814	974.158	733.905
142.600	13.906	973.276	733.584
143.614	13.962	972.543	733.212
144.629	13.939	971.578	732.319
145.643	14.000	970.644	731.816
146.658	13.853	969.714	730.406
147.673	13.991	968.455	729.997
148.687	13.804	967.950	728.730
149.702	13.735	967.193	727.794
150.716	13.778	966.275	727.226
151.731	13.799	965.411	726.604
152.746	13.896	964.833	726.529
153.760	13.852	964.268	725.849
154.775	13.888	964.028	725.760
155.789	13.910	963.014	725.031
156.804	13.969	961.919	724.397
157.819	13.995	961.479	724.115
158.833	14.126	960.771	724.091
159.848	13.963	960.135	722.837
160.862	13.957	959.254	722.085
161.877	13.869	958.025	720.714
162.892	13.959	956.731	720.065
163.906	13.918	956.172	719.402
164.921	13.909	955.645	718.904
165.935	13.940	954.813	718.347
166.950	14.087	953.580	717.991
167.964	13.965	952.681	716.726
168.979	13.980	952.122	716.304
169.994	13.983	951.020	715.427
171.008	14.095	950.156	715.195
172.023	13.993	949.602	714.277
173.037	14.290	948.473	714.639
174.052	14.070	948.714	713.811
175.067	14.079	947.413	712.810
176.081	13.950	947.229	712.057
177.096	14.015	946.373	711.628
178.110	14.181	945.802	711.846
179.125	14.011	945.524	710.844
180.140	14.027	944.935	710.409
181.154	14.053	944.572	710.186
182.169	14.136	943.519	709.685
183.183	14.267	942.884	709.702
184.198	14.369	942.111	709.492
185.213	14.313	941.217	708.516
186.227	14.323	940.784	708.170
187.242	14.305	940.390	707.735
188.256	14.407	939.379	707.345
189.271	14.386	938.856	706.802
190.286	14.206	937.980	705.315
191.300	13.989	937.728	704.141
192.315	14.080	936.549	703.581
193.329	14.078	936.242	703.278
194.344	14.137	935.411	702.843
195.359	14.269	934.489	702.645
196.373	14.272	934.120	702.316
197.388	14.335	933.845	702.312
198.402	14.358	933.717	702.251
199.417	14.534	932.663	702.139
200.432	14.498	932.221	701.593
201.446	14.658	931.808	701.894
202.461	14.589	930.867	700.833
203.475	14.580	930.104	700.158
204.490	14.452	929.749	699.291
205.504	14.428	929.032	698.587
206.519	14.498	928.244	698.229
207.534	14.534	927.398	697.680
208.548	14.388	926.668	696.457
209.563	14.560	926.264	696.811
210.577	14.484	925.620	695.947
211.592	14.667	924.445	695.766
212.607	14.748	923.883	695.618
213.621	14.484	923.537	694.199
214.636	14.680	922.686	694.312
215.650	14.677	921.565	693.397
216.665	14.728	920.992	693.112
217.680	14.830	920.239	692.911
218.694	14.784	919.633	692.200
219.709	14.787	919.015	691.685
220.723	14.821	918.279	691.214
221.738	14.740	917.868	690.509
222.753	14.902	917.009	690.468
223.767	14.960	916.423	690.205
224.782	14.919	915.988	689.648
225.796	14.918	915.954	689.558
226.811	14.915	914.929	688.712
227.826	14.860	913.890	687.642
228.840	14.705	913.268	686.476
229.855	14.874	912.424	686.475
230.869	14.700	912.184	685.520
231.884	14.936	911.130	685.636
232.899	14.725	910.221	684.026
233.913	14.745	909.615	683.591
234.928	14.784	908.838	683.107
235.942	14.837	908.068	682.685
236.957	14.783	908.069	682.406
237.972	14.811	907.411	681.962
238.986	14.847	906.403	681.294
240.001	14.897	905.902	681.060
241.015	14.862	905.346	680.439
242.030	15.011	904.530	680.370
243.045	14.960	903.928	679.652
244.059	15.010	903.715	679.635
245.074	15.080	902.870	679.221
246.088	14.990	902.084	678.206
247.103	14.969	901.675	677.753
248.117	15.007	901.208	677.496
249.132	15.148	900.447	677.434
250.147	15.302	899.480	677.269
251.161	15.255	899.562	677.083
252.176	15.240	898.587	676.228
253.190	15.297	898.107	676.037
254.205	15.287	897.371	675.382
255.220	15.436	896.530	675.288
256.234	15.456	895.687	674.675
257.249	15.443	895.219	674.210
258.263	15.485	894.298	673.624
259.278	15.448	893.558	672.860
260.293	15.410	893.075	672.286
261.307	15.556	892.812	672.611
262.322	15.418	892.439	671.718
263.336	15.449	891.313	670.937
264.351	15.511	890.514	670.524
265.366	15.500	890.198	670.183
266.380	15.518	889.857	669.939
267.395	15.601	888.990	669.554
268.409	15.537	888.104	668.572
269.424	15.701	886.917	668.273
270.439	15.600	886.314	667.359
271.453	15.643	885.671	666.985
272.468	15.532	885.265	666.181
273.482	15.569	884.562	665.739
274.497	15.602	884.047	665.426
275.512	15.367	883.908	664.331
276.526	15.622	882.963	664.569
277.541	15.520	882.418	663.698
278.555	15.668	882.262	664.106
279.570	15.774	881.327	663.760
280.585	15.787	880.305	662.985
281.599	15.753	879.460	662.157
282.614	15.662	879.086	661.459
283.628	15.574	878.949	660.949
284.643	15.674	877.987	660.561
285.657	15.787	876.892	660.122
286.672	15.951	875.966	660.010
287.687	15.707	875.987	659.011
288.701	15.837	875.384	659.008
289.716	15.742	874.800	658.136
290.730	15.823	874.050	657.833
291.745	15.835	873.645	657.515
292.760	15.843	872.624	656.723
293.774	15.955	872.190	656.774
294.789	15.845	871.759	655.962
295.803	15.792	870.943	655.081
296.818	15.915	870.223	654.962
297.833	15.889	869.362	654.155
298.847	15.877	868.971	653.755
299.862	15.850	868.600	653.313
300.876	16.064	867.647	653.367
301.891	16.058	867.122	652.893
302.906	16.165	866.595	652.854
303.920	16.074	866.564	652.419
304.935	16.274	865.284	652.170
305.949	16.295	864.954	651.943
306.964	16.053	864.475	650.593
307.979	16.163	863.784	650.439
308.993	16.180	863.208	650.015
310.008	16.218	862.559	649.614
311.022	16.232	861.882	649.100
312.037	16.144	861.366	648.317
313.052	16.137	860.928	647.904
314.066	16.081	860.389	647.223
315.081	16.055	859.835	646.652
316.095	16.086	859.238	646.263
317.110	16.160	858.227	645.728
318.125	16.042	857.914	644.982
319.139	16.044	857.730	644.796
320.154	16.157	857.594	645.069
321.168	16.241	856.697	644.657
322.183	16.298	855.846	644.180
323.197	16.199	855.761	643.679
324.212	16.329	854.725	643.338
325.227	16.277	854.290	642.757
326.241	16.175	853.992	642.086
327.256	16.283	853.352	641.960
328.270	16.369	852.336	641.464
329.285	16.432	851.658	641.137
330.300	16.279	851.224	640.173
331.314	16.219	851.262	639.920
332.329	16.464	850.555	640.260
333.343	16.348	849.956	639.313
334.358	16.331	849.836	639.101
335.373	16.386	849.362	638.897
336.387	16.517	848.687	638.828
337.402	16.628	848.433	638.998
338.416	16.555	848.386	638.630
339.431	16.731	847.310	638.426
340.446	16.716	847.441	638.412
341.460	16.672	847.116	637.945
342.475	16.559	846.679	637.135
343.489	16.868	845.842	637.612
344.504	16.675	845.778	636.779
345.519	16.667	845.535	636.510
346.533	16.741	844.817	636.190
347.548	16.565	844.042	634.889
348.562	16.621	843.742	634.821
349.577	16.575	843.416	634.348
350.592	16.653	842.228	633.689
351.606	16.551	841.630	632.803
352.621	16.719	840.930	632.845
353.635	16.708	840.243	632.232
354.650	16.658	839.735	631.607
355.665	16.674	839.524	631.452
356.679	16.742	838.710	631.039
357.694	16.862	837.639	630.624
358.708	16.807	836.937	629.834
359.723	16.763	836.771	629.491
360.738	16.899	835.794	629.202
361.752	16.921	835.352	628.897
362.767	16.821	834.725	627.999
363.781	17.119	834.344	628.760
364.796	17.026	833.915	628.036
365.810	17.052	833.333	627.641
366.825	17.176	833.044	627.825
367.840	17.133	832.773	627.407
368.854	17.179	832.366	627.212
369.869	17.063	831.920	626.393
370.883	17.153	831.035	626.005
371.898	17.089	831.046	625.722
372.913	17.215	830.414	625.652
373.927	17.064	830.405	625.036
374.942	17.123	829.427	624.459
375.956	17.379	828.852	624.914
376.971	17.296	828.453	624.253
377.986	17.242	828.231	623.833
379.000	17.392	827.618	623.867
380.015	17.575	826.732	623.811
381.029	17.339	826.648	622.831
382.044	17.413	826.107	622.637
383.059	17.442	825.267	622.055
384.073	17.368	824.745	621.335
385.088	17.264	824.274	620.546
386.102	17.292	823.898	620.312
387.117	17.275	823.251	619.708
388.132	17.434	822.185	619.429
389.146	17.470	822.067	619.414
390.161	17.402	821.871	618.965
391.175	17.359	821.408	618.407
392.190	17.431	820.596	618.001
393.205	17.295	820.375	617.285
394.219	17.436	819.707	617.240
395.234	17.544	819.373	617.326
396.248	17.362	819.031	616.354
397.263	17.375	818.529	615.968
398.278	17.361	817.988	615.458
399.292	17.501	817.309	615.399
400.307	17.427	816.916	614.780
401.321	17.435	816.573	614.497
402.336	17.545	816.319	614.647
403.350	17.566	815.656	614.171
404.365	17.527	815.391	613.776
405.380	17.598	814.833	613.557
406.394	17.527	814.581	613.057
407.409	17.741	813.880	613.245
408.423	17.604	813.592	612.481
409.438	17.663	813.488	612.560
410.453	17.773	813.113	612.621
411.467	17.747	812.499	612.009
412.482	17.883	811.886	611.980
413.496	17.900	811.593	611.765
414.511	17.818	811.465	611.323
415.526	18.101	810.580	611.613
416.540	17.930	810.416	610.827
417.555	17.848	809.873	610.070
418.569	17.787	809.239	609.319
419.584	17.875	809.097	609.471
420.599	17.895	808.504	609.043
421.613	111.472	1294.882	1476.748
422.628	96.260	1365.737	1476.839
