DTS Sentinel unit serial number:	SN413079Multiplexer serial number:	ORYXHardware model number:	OX4-SRSoftware version number:	ORYX F/W v4.00 Oryx Data Collector v3.7.2.0data status	okinstallation	princeton_trtdifferential loss correction	single-endedforward channel	channel 1reverse channel	N/Adate	2019/09/12time	23:54:35forward acquisition time	60.00reverse acquisition time	0.00gamma	496.2192k internal	0.2328k external	0.2328temperature offset calibration	1.0147default loss term (dB/km)	0.3790temperature slope calibration	1.0000multiplexer offset coefficient	1.0000multiplexer slope coefficient	1.0000fibre end	0.00T internal ref (°C)	28.72T ext. ref 1 (°C)	3.77T ext. ref 2 (°C)	23.41length (m)	temperature (°C)	Stokes	anti-Stokes-747.200	27.235	0.098	-0.083
-746.185	-138.067	-0.075	-0.008
-745.171	-74.218	0.135	0.049
-744.156	-124.171	0.174	-0.028
-743.142	307.908	-0.099	0.185
-742.127	284.124	0.188	0.340
-741.112	800.000	0.053	0.190
-740.098	374.092	-0.056	0.114
-739.083	-94.252	0.114	-0.032
-738.069	800.000	-0.024	0.077
-737.054	-200.000	-0.004	0.046
-736.039	-76.438	-0.112	0.040
-735.025	-63.829	0.253	0.104
-734.010	7.067	-0.295	-0.221
-732.996	-38.985	-0.355	-0.188
-731.981	-200.000	-0.029	-0.192
-730.966	4.966	-0.237	-0.175
-729.952	-91.241	0.109	-0.032
-728.937	159.352	0.077	0.108
-727.923	98.401	0.077	0.090
-726.908	-122.822	-0.319	-0.052
-725.894	-100.366	0.241	0.060
-724.879	-128.622	0.163	-0.023
-723.864	33.697	0.178	0.156
-722.850	-102.863	-0.027	-0.007
-721.835	-129.784	0.229	-0.032
-720.821	800.000	0.049	-0.152
-719.806	-4.021	0.050	0.035
-718.791	-96.065	-0.437	-0.117
-717.777	-11.471	0.058	0.038
-716.762	172.014	-0.165	-0.239
-715.748	-200.000	-0.070	-0.322
-714.733	153.493	-0.183	0.252
-713.718	-24.390	-0.225	-0.135
-712.704	-200.000	-0.004	-0.147
-711.689	218.152	0.025	-0.040
-710.675	800.000	-0.095	-0.300
-709.660	286.496	-0.181	-0.328
-708.645	-76.824	-0.063	-0.022
-707.631	392.244	-0.216	-0.451
-706.616	512.255	0.165	-0.387
-705.602	-89.657	0.152	0.045
-704.587	419.076	0.091	-0.197
-703.572	331.502	0.175	-0.339
-702.558	800.000	0.071	0.224
-701.543	11.433	0.067	-0.052
-700.529	-65.498	0.128	0.052
-699.514	-96.227	0.239	0.064
-698.499	-179.526	0.204	-0.004
-697.485	-200.000	-0.018	-0.309
-696.470	-200.000	0.051	0.358
-695.456	107.881	0.111	-0.132
-694.441	-0.985	0.104	0.074
-693.426	800.000	-0.126	0.540
-692.412	-20.873	0.051	0.032
-691.397	156.822	0.051	-0.071
-690.383	-170.563	0.084	0.003
-689.368	-50.177	-0.167	-0.079
-688.354	-200.000	-0.021	-0.666
-687.339	-25.619	-0.310	-0.184
-686.324	118.477	0.125	0.155
-685.310	-123.794	0.123	-0.020
-684.295	-186.165	0.018	0.000
-683.281	-185.433	-0.188	-0.003
-682.266	347.474	0.090	-0.178
-681.251	-200.000	0.030	-0.285
-680.237	-138.842	-0.275	0.030
-679.222	317.669	-0.170	0.324
-678.208	800.000	-0.063	0.253
-677.193	-124.571	-0.282	0.044
-676.178	-131.906	-0.045	0.006
-675.164	-190.987	-0.191	-0.002
-674.149	237.395	0.078	-0.130
-673.135	-200.000	-0.061	-0.356
-672.120	-50.819	-0.428	-0.202
-671.105	800.000	-0.030	0.094
-670.091	391.090	0.060	-0.126
-669.076	800.000	0.056	0.223
-668.062	-200.000	-0.017	0.236
-667.047	-200.000	0.001	0.317
-666.032	-3.206	-0.217	-0.152
-665.018	441.506	-0.135	-0.296
-664.003	147.800	-0.136	-0.184
-662.989	132.337	-0.118	0.153
-661.974	800.000	-0.081	-0.267
-660.959	-172.259	0.131	0.004
-659.945	800.000	0.063	0.208
-658.930	312.497	-0.181	-0.341
-657.916	-101.598	0.308	-0.075
-656.901	-200.000	-0.009	-0.111
-655.886	301.174	-0.114	-0.211
-654.872	-13.804	-0.115	0.074
-653.857	84.959	-0.190	0.209
-652.843	300.301	-0.128	0.238
-651.828	800.000	-0.050	0.159
-650.814	-200.000	0.051	-0.235
-649.799	193.832	-0.187	-0.284
-648.784	-200.000	-0.021	0.336
-647.770	-200.000	-0.006	0.088
-646.755	198.069	0.149	-0.229
-645.741	-41.070	0.126	0.065
-644.726	-200.000	-0.003	0.164
-643.711	800.000	-0.027	0.112
-642.697	-200.000	-0.036	-0.310
-641.682	541.339	-0.063	-0.150
-640.668	792.749	0.041	0.113
-639.653	-40.009	0.172	-0.090
-638.638	426.263	0.224	-0.484
-637.624	-80.559	0.346	0.116
-636.609	-112.003	-0.562	0.114
-635.595	-200.000	-0.028	-0.161
-634.580	71.335	-0.105	0.110
-633.565	-138.656	-0.541	-0.059
-632.551	166.766	-0.219	-0.312
-631.536	-118.252	-0.386	-0.069
-630.522	485.977	-0.083	0.191
-629.507	292.875	-0.082	0.150
-628.492	-200.000	-0.016	-0.089
-627.478	-105.721	0.400	-0.091
-626.463	-146.385	-0.365	0.032
-625.449	29.122	0.143	-0.121
-624.434	-103.249	-0.188	0.044
-623.419	-72.164	-0.120	0.045
-622.405	665.883	0.054	-0.140
-621.390	-0.181	-0.101	-0.072
-620.376	-98.164	0.119	0.031
-619.361	-119.891	-0.203	0.035
-618.346	-22.772	0.082	-0.050
-617.332	-130.528	0.328	-0.044
-616.317	671.746	-0.063	-0.164
-615.303	-110.082	-0.314	0.066
-614.288	15.516	-0.147	-0.116
-613.273	437.011	-0.052	0.114
-612.259	638.128	0.089	-0.227
-611.244	500.047	-0.047	-0.109
-610.230	687.138	-0.025	-0.067
-609.215	418.160	-0.172	-0.369
-608.201	5.220	0.100	-0.074
-607.186	791.629	-0.047	-0.130
-606.171	289.795	0.163	-0.297
-605.157	4.983	0.219	0.162
-604.142	138.755	0.131	-0.173
-603.128	13.358	0.162	-0.126
-602.113	-43.100	0.161	-0.082
-601.098	-200.000	-0.011	0.368
-600.084	-44.485	-0.221	-0.111
-599.069	-143.830	-0.112	-0.011
-598.055	-194.353	-0.211	0.002
-597.040	117.170	0.170	-0.209
-596.025	-30.569	0.152	0.086
-595.011	-200.000	0.021	0.137
-593.996	-73.796	-0.200	0.073
-592.982	-97.958	0.070	0.018
-591.967	-97.009	-0.230	0.060
-590.952	-200.000	-0.062	-0.278
-589.938	-200.000	0.039	-0.407
-588.923	-117.232	-0.147	0.027
-587.909	-36.433	0.049	-0.027
-586.894	-96.432	0.035	-0.009
-585.879	9.067	-0.102	0.077
-584.865	-200.000	0.036	-0.290
-583.850	-80.573	-0.043	0.014
-582.836	800.000	-0.094	0.331
-581.821	-15.840	0.076	-0.048
-580.806	-151.495	0.132	-0.010
-579.792	178.381	0.087	0.127
-578.777	136.763	0.041	0.053
-577.763	-82.696	0.140	-0.045
-576.748	-122.085	0.224	0.037
-575.733	420.879	-0.040	-0.085
-574.719	800.000	0.082	-0.322
-573.704	55.111	0.110	-0.107
-572.690	-129.700	-0.118	-0.016
-571.675	51.804	-0.424	-0.404
-570.661	-92.127	0.330	-0.093
-569.646	-164.251	-0.366	-0.017
-568.631	451.766	0.089	0.198
-567.617	-183.069	-0.255	-0.005
-566.602	800.000	0.085	0.278
-565.588	-127.244	0.263	0.039
-564.573	-101.593	-0.209	0.051
-563.558	-147.161	-0.237	0.020
-562.544	-200.000	-0.057	0.279
-561.529	-200.000	-0.002	0.214
-560.515	-129.527	-0.293	0.041
-559.500	-106.121	-0.267	-0.060
-558.485	68.561	0.058	-0.059
-557.471	108.502	-0.180	0.215
-556.456	501.436	0.080	-0.186
-555.442	-200.000	-0.033	-0.235
-554.427	24.559	-0.202	-0.167
-553.412	800.000	-0.047	-0.132
-552.398	800.000	0.048	0.131
-551.383	-118.177	-0.219	0.039
-550.369	-38.396	-0.149	0.079
-549.354	137.158	0.111	0.145
-548.339	-200.000	-0.005	0.044
-547.325	203.534	0.100	-0.155
-546.310	-101.761	0.249	-0.060
-545.296	-94.449	-0.242	-0.066
-544.281	-50.824	-0.255	-0.120
-543.266	-101.745	0.114	-0.028
-542.252	-135.947	0.357	-0.042
-541.237	-28.650	-0.131	-0.076
-540.223	-40.667	-0.202	-0.105
-539.208	-117.982	-0.180	-0.032
-538.193	-23.293	-0.356	-0.214
-537.179	487.663	-0.072	-0.165
-536.164	-200.000	-0.002	0.045
-535.150	-200.000	-0.038	-0.177
-534.135	154.513	0.085	-0.117
-533.121	-127.436	0.241	0.035
-532.106	-200.000	-0.026	0.218
-531.091	67.179	0.202	-0.206
-530.077	-170.638	-0.361	-0.013
-529.062	-37.205	0.329	-0.176
-528.048	88.683	-0.183	0.203
-527.033	44.566	-0.092	0.085
-526.018	90.078	0.139	-0.155
-525.004	84.776	0.122	0.134
-523.989	24.502	-0.194	0.161
-522.975	-200.000	-0.041	-0.316
-521.960	-200.000	-0.019	-0.297
-520.945	-200.000	0.036	-0.399
-519.931	40.110	0.105	0.095
-518.916	384.970	-0.065	-0.135
-517.902	-74.672	0.209	0.075
-516.887	-200.000	-0.004	0.297
-515.872	-200.000	0.059	0.336
-514.858	-27.520	0.315	-0.183
-513.843	228.534	0.091	0.149
-512.829	324.814	-0.110	0.210
-511.814	-38.019	0.290	-0.154
-510.799	-200.000	-0.017	0.178
-509.785	800.000	0.103	0.415
-508.770	42.707	0.143	0.130
-507.756	-78.659	-0.063	-0.021
-506.741	767.567	0.140	-0.381
-505.726	800.000	-0.044	-0.152
-504.712	45.711	0.291	0.268
-503.697	-200.000	-0.004	-0.071
-502.683	161.414	-0.112	0.157
-501.668	-164.141	0.205	0.009
-500.653	800.000	-0.103	0.287
-499.639	-66.304	-0.099	-0.039
-498.624	-51.259	-0.214	0.100
-497.610	800.000	-0.012	-0.051
-496.595	-29.481	-0.137	-0.078
-495.581	315.945	-0.093	0.175
-494.566	800.000	-0.031	0.119
-493.551	190.296	0.054	-0.080
-492.537	-72.972	0.267	0.098
-491.522	-200.000	-0.012	-0.118
-490.508	800.000	-0.070	-0.269
-489.493	3.804	-0.191	-0.139
-488.478	-112.091	0.393	0.079
-487.464	79.229	0.031	0.034
-486.449	-164.544	0.113	-0.005
-485.435	450.028	-0.026	-0.058
-484.420	-179.558	-0.188	-0.004
-483.405	6.922	0.177	0.131
-482.391	-149.141	-0.276	-0.022
-481.376	-163.146	0.324	0.016
-480.362	-200.000	0.002	-0.089
-479.347	-0.649	-0.088	-0.062
-478.332	48.091	0.137	-0.128
-477.318	35.430	-0.128	-0.112
-476.303	74.973	0.164	-0.172
-475.289	-200.000	0.041	0.194
-474.274	-157.975	0.193	0.011
-473.259	87.197	-0.043	0.048
-472.245	696.910	0.027	0.071
-471.230	53.522	-0.123	0.118
-470.216	-4.175	0.223	-0.154
-469.201	-200.000	-0.000	-0.259
-468.186	-91.266	-0.114	-0.033
-467.172	432.900	0.096	-0.209
-466.157	143.922	-0.084	-0.112
-465.143	-84.800	0.393	-0.123
-464.128	277.530	-0.107	-0.191
-463.113	-200.000	-0.036	-0.386
-462.099	-59.290	-0.228	-0.098
-461.084	800.000	0.008	0.030
-460.070	-39.306	0.177	-0.093
-459.055	-26.484	0.166	-0.097
-458.040	-200.000	0.024	0.177
-457.026	-13.912	0.085	0.055
-456.011	69.443	-0.250	-0.256
-454.997	63.404	0.226	-0.226
-453.982	128.376	-0.111	0.141
-452.968	-200.000	-0.002	0.214
-451.953	48.473	-0.248	0.232
-450.938	79.889	-0.128	0.137
-449.924	-168.006	-0.162	-0.006
-448.909	125.336	0.099	0.124
-447.895	-117.016	0.105	-0.019
-446.880	-151.993	-0.154	-0.011
-445.865	-126.102	-0.152	0.023
-444.851	316.399	-0.180	-0.339
-443.836	-85.588	0.159	-0.049
-442.822	-84.401	-0.176	0.055
-441.807	-200.000	-0.026	-0.143
-440.792	-200.000	-0.024	0.118
-439.778	556.968	0.100	-0.240
-438.763	-88.060	-0.198	0.059
-437.749	105.408	-0.164	-0.193
-436.734	-58.718	-0.166	-0.071
-435.719	-149.791	-0.121	-0.009
-434.705	-104.547	0.102	0.023
-433.690	800.000	0.010	-0.036
-432.676	-186.633	-0.034	-0.000
-431.661	-51.311	0.317	-0.147
-430.646	800.000	0.073	-0.237
-429.632	51.993	0.215	-0.204
-428.617	-10.277	-0.269	-0.178
-427.603	139.735	0.066	-0.087
-426.588	5.219	-0.112	-0.082
-425.573	-88.755	-0.231	0.068
-424.559	-191.913	0.180	0.002
-423.544	-86.831	-0.378	0.115
-422.530	-200.000	0.011	-0.114
-421.515	-64.460	0.027	-0.011
-420.500	774.797	-0.105	0.285
-419.486	48.928	0.205	-0.192
-418.471	396.443	0.082	-0.170
-417.457	-164.416	0.309	0.014
-416.442	-190.410	-0.031	-0.000
-415.428	-47.939	0.139	-0.067
-414.413	450.276	-0.190	-0.418
-413.398	-41.012	0.233	0.120
-412.384	7.218	0.215	-0.160
-411.369	53.380	0.221	-0.211
-410.355	70.752	-0.185	0.190
-409.340	92.229	0.185	-0.208
-408.325	-78.272	0.182	0.062
-407.311	-157.493	-0.088	0.005
-406.296	-200.000	-0.071	-0.435
-405.282	-83.457	-0.230	0.073
-404.267	-200.000	0.068	0.433
-403.252	30.238	0.276	-0.235
-402.238	339.763	-0.084	-0.163
-401.223	800.000	0.037	0.103
-400.209	-170.150	-0.106	-0.004
-399.194	-200.000	0.019	0.204
-398.179	-200.000	0.066	0.290
-397.165	-148.792	0.421	0.034
-396.150	146.853	-0.192	-0.256
-395.136	490.651	0.064	0.146
-394.121	47.480	-0.163	-0.151
-393.106	-110.453	-0.130	-0.027
-392.092	-0.555	-0.397	0.280
-391.077	-153.663	-0.138	0.009
-390.063	283.869	-0.056	0.101
-389.048	-64.778	-0.120	0.048
-388.033	-82.048	-0.102	-0.033
-387.019	595.605	-0.134	0.330
-386.004	800.000	-0.055	-0.207
-384.990	17.607	-0.428	0.338
-383.975	-200.000	-0.057	-0.285
-382.960	-200.000	0.008	-0.092
-381.946	-170.055	0.610	-0.022
-380.931	-112.250	-0.308	-0.061
-379.917	800.000	0.044	0.150
-378.902	-95.504	0.496	-0.132
-377.888	19.653	-0.083	0.066
-376.873	54.682	-0.165	-0.158
-375.858	455.914	0.043	0.094
-374.844	138.892	-0.113	0.148
-373.829	-34.462	0.076	0.041
-372.815	123.308	0.042	-0.053
-371.800	-200.000	-0.001	0.028
-370.785	27.393	0.152	-0.127
-369.771	-102.610	-0.322	0.076
-368.756	800.000	0.072	0.249
-367.742	-3.173	0.060	0.041
-366.727	334.422	0.027	-0.052
-365.712	-84.608	-0.233	0.073
-364.698	55.345	0.298	-0.286
-363.683	800.000	-0.045	-0.143
-362.669	800.000	0.087	-0.241
-361.654	-107.929	-0.115	-0.025
-360.639	-133.223	-0.136	-0.017
-359.625	172.142	-0.163	0.233
-358.610	486.903	0.125	0.284
-357.596	-93.279	0.200	0.055
-356.581	19.204	0.315	-0.251
-355.566	-30.453	0.041	0.023
-354.552	-61.529	-0.155	0.064
-353.537	-106.451	0.332	0.074
-352.523	-115.726	0.280	0.052
-351.508	499.866	0.067	-0.154
-350.493	63.754	-0.126	-0.126
-349.479	-32.335	0.216	-0.119
-348.464	-200.000	-0.091	0.475
-347.450	-71.914	-0.261	0.096
-346.435	130.915	0.136	-0.173
-345.420	-200.000	0.049	0.251
-344.406	-72.027	-0.150	0.055
-343.391	-200.000	0.004	0.229
-342.377	-200.000	-0.023	0.159
-341.362	-200.000	0.002	-0.150
-340.348	-200.000	0.004	-0.072
-339.333	-33.870	0.271	-0.148
-338.318	800.000	0.059	0.202
-337.304	116.080	0.097	-0.118
-336.289	-178.009	-0.380	0.009
-335.275	308.774	0.061	-0.114
-334.260	-200.000	0.000	-0.206
-333.245	-47.214	-0.179	-0.086
-332.231	242.145	0.091	0.151
-331.216	-200.000	-0.028	0.253
-330.202	800.000	-0.037	0.132
-329.187	-124.693	-0.265	-0.041
-328.172	-126.331	0.346	-0.051
-327.158	57.390	0.074	-0.072
-326.143	-48.889	0.123	0.058
-325.129	35.542	-0.233	0.203
-324.114	-200.000	0.023	0.508
-323.099	84.991	-0.055	0.059
-322.085	260.752	0.119	-0.204
-321.070	151.939	0.110	0.149
-320.056	-118.585	0.283	-0.050
-319.041	-67.918	0.089	-0.034
-318.026	417.804	-0.039	0.083
-317.012	-200.000	-0.007	0.340
-315.997	477.373	0.006	0.014
-314.983	433.950	0.084	-0.180
-313.968	800.000	-0.066	0.275
-312.953	800.000	-0.128	-0.365
-311.939	-64.978	0.361	-0.145
-310.924	800.000	-0.055	-0.152
-309.910	800.000	0.058	-0.169
-308.895	161.610	0.135	-0.188
-307.880	-26.487	0.020	-0.011
-306.866	-200.000	-0.002	0.139
-305.851	336.691	0.094	0.180
-304.837	-200.000	0.042	0.216
-303.822	800.000	0.120	0.373
-302.807	-99.066	0.075	-0.019
-301.793	-23.356	0.163	-0.097
-300.778	-152.129	0.009	-0.001
-299.764	-10.685	-0.267	0.175
-298.749	167.427	0.132	0.185
-297.735	-200.000	0.007	-0.200
-296.720	-53.118	-0.251	-0.114
-295.705	-119.136	0.272	0.047
-294.691	-163.342	0.269	0.013
-293.676	34.812	-0.226	0.196
-292.662	208.662	-0.089	-0.138
-291.647	69.324	0.069	0.070
-290.632	-127.042	0.161	-0.023
-289.618	96.885	-0.086	0.098
-288.603	-10.073	-0.069	0.046
-287.589	406.915	0.124	-0.259
-286.574	123.070	0.143	0.177
-285.559	-200.000	0.016	-0.238
-284.545	-37.160	0.094	0.050
-283.530	-40.519	0.152	0.078
-282.516	87.939	0.187	0.205
-281.501	-112.364	-0.197	0.039
-280.486	-200.000	-0.005	0.334
-279.472	800.000	0.029	-0.125
-278.457	247.246	-0.098	-0.164
-277.443	115.562	0.134	0.162
-276.428	-128.106	0.184	-0.026
-275.413	166.164	0.259	0.362
-274.399	35.726	-0.471	-0.409
-273.384	-43.702	0.365	0.182
-272.370	-200.000	0.025	-0.160
-271.355	347.791	0.079	-0.155
-270.340	-200.000	0.050	0.242
-269.326	-200.000	-0.004	0.205
-268.311	-97.520	0.047	0.012
-267.297	-200.000	-0.022	0.357
-266.282	-200.000	0.032	0.383
-265.267	418.732	0.161	0.340
-264.253	399.547	-0.092	0.191
-263.238	-67.427	0.052	0.020
-262.224	-51.184	0.015	-0.007
-261.209	-120.643	-0.370	0.062
-260.195	-103.162	0.385	-0.090
-259.180	-46.833	-0.359	-0.174
-258.165	233.866	-0.243	-0.396
-257.151	-160.669	-0.298	-0.016
-256.136	-200.000	0.012	0.101
-255.122	800.000	-0.085	0.290
-254.107	-55.161	0.147	0.065
-253.092	781.644	-0.058	0.156
-252.078	283.880	-0.093	0.165
-251.063	-200.000	0.026	0.159
-250.049	800.000	-0.055	0.169
-249.034	-11.602	-0.132	-0.086
-248.019	800.000	0.016	-0.048
-247.005	-200.000	0.001	0.243
-245.990	258.740	0.113	0.193
-244.976	-13.138	0.030	-0.020
-243.961	14.551	0.145	-0.112
-242.946	800.000	-0.057	0.199
-241.932	800.000	0.021	-0.066
-240.917	-90.734	-0.243	-0.069
-239.903	800.000	0.142	-0.461
-238.888	800.000	0.057	0.241
-237.873	136.299	0.023	0.030
-236.859	396.603	0.075	-0.154
-235.844	486.432	-0.035	0.080
-234.830	110.802	-0.104	0.124
-233.815	-200.000	-0.023	0.102
-232.800	800.000	-0.075	0.231
-231.786	7.095	0.158	0.116
-230.771	44.955	-0.277	0.252
-229.757	87.624	-0.016	-0.018
-228.742	-153.764	-0.176	0.012
-227.727	86.674	-0.148	-0.161
-226.713	-97.403	-0.289	0.074
-225.698	-114.029	0.329	-0.063
-224.684	-200.000	0.119	-0.598
-223.669	-83.639	-0.319	-0.101
-222.655	-137.483	-0.190	-0.021
-221.640	-143.920	0.252	0.023
-220.625	227.699	0.190	0.305
-219.611	-200.000	0.004	0.272
-218.596	1.413	0.122	0.087
-217.582	-128.607	0.531	0.074
-216.567	-127.043	-0.314	0.045
-215.552	-141.407	-0.205	-0.021
-214.538	800.000	-0.044	-0.130
-213.523	51.761	-0.319	0.300
-212.509	-12.165	0.201	-0.130
-211.494	361.475	-0.087	-0.171
-210.479	45.938	0.120	0.110
-209.465	-9.136	0.042	-0.028
-208.450	800.000	0.037	-0.106
-207.436	684.026	-0.077	0.198
-206.421	-200.000	0.006	-0.052
-205.406	792.697	0.101	0.274
-204.392	-50.653	0.672	0.312
-203.377	-128.894	-0.390	0.054
-202.363	13.716	-0.158	-0.121
-201.348	135.666	0.130	-0.166
-200.333	-84.987	-0.257	-0.079
-199.319	-152.770	-0.198	-0.014
-198.304	639.392	-0.087	0.219
-197.290	-105.918	0.059	0.013
-196.275	-120.875	-0.293	0.049
-195.260	-74.872	-0.101	-0.036
-194.246	-142.569	0.047	-0.005
-193.231	637.390	0.125	-0.314
-192.217	-85.511	-0.189	-0.058
-191.202	-200.000	0.021	0.276
-190.187	-33.841	0.192	0.104
-189.173	-5.839	-0.232	0.157
-188.158	-99.932	-0.160	-0.039
-187.144	240.758	-0.071	0.117
-186.129	-74.165	0.088	0.031
-185.114	0.251	0.181	0.128
-184.100	-90.845	0.042	0.012
-183.085	-37.977	0.120	0.063
-182.071	800.000	0.042	-0.171
-181.056	-119.282	-0.067	-0.011
-180.042	-104.783	-0.284	0.064
-179.027	-62.682	0.170	-0.069
-178.012	-75.512	-0.103	0.036
-176.998	227.427	0.119	0.191
-175.983	-36.072	-0.150	0.080
-174.969	-101.557	-0.181	0.043
-173.954	40.304	-0.275	0.244
-172.939	-44.229	-0.362	-0.179
-171.925	-34.299	0.275	0.149
-170.910	232.702	0.072	-0.117
-169.896	225.662	0.149	0.237
-168.881	-159.442	0.172	0.009
-167.866	-11.245	-0.153	0.099
-166.852	143.826	-0.097	0.127
-165.837	106.158	0.082	-0.095
-164.823	741.224	0.100	-0.264
-163.808	212.244	0.078	-0.121
-162.793	-47.984	0.052	-0.025
-161.779	-10.844	0.298	-0.194
-160.764	-128.738	-0.073	0.010
-159.750	61.188	0.119	0.116
-158.735	221.132	0.229	0.362
-157.720	-109.982	0.420	0.087
-156.706	800.000	0.064	0.213
-155.691	770.172	0.056	-0.150
-154.677	800.000	0.070	-0.223
-153.662	-200.000	0.040	-0.187
-152.647	127.038	0.072	0.090
-151.633	-200.000	0.041	0.390
-150.618	-44.942	-0.227	-0.112
-149.604	-134.547	-0.015	-0.002
-148.589	-84.300	0.111	-0.034
-147.574	293.776	0.034	-0.061
-146.560	-200.000	-0.019	0.135
-145.545	-103.435	0.114	0.026
-144.531	141.764	-0.340	0.444
-143.516	123.100	-0.102	-0.125
-142.502	-200.000	0.005	-0.372
-141.487	-200.000	0.001	0.164
-140.472	-68.256	-0.180	-0.069
-139.458	-200.000	0.015	0.250
-138.443	-132.777	-0.206	-0.026
-137.429	-29.496	0.202	0.113
-136.414	-71.341	0.364	-0.134
-135.399	-99.832	-0.030	-0.007
-134.385	-200.000	-0.001	0.217
-133.370	-200.000	-0.015	-0.091
-132.356	800.000	-0.143	0.391
-131.341	472.435	0.254	0.564
-130.326	373.689	-0.047	-0.094
-129.312	181.937	0.016	-0.024
-128.297	-200.000	0.016	0.086
-127.283	-127.636	0.023	0.003
-126.268	-123.036	0.117	0.019
-125.253	-5.738	0.260	0.175
-124.239	-200.000	-0.004	0.171
-123.224	33.610	0.115	-0.098
-122.210	191.920	0.209	-0.310
-121.195	-45.375	-0.203	0.099
-120.180	123.666	-0.100	0.124
-119.166	-74.102	-0.239	0.085
-118.151	-200.000	-0.064	-0.363
-117.137	-200.000	-0.074	0.444
-116.122	-80.890	0.478	-0.156
-115.107	-200.000	-0.027	-0.142
-114.093	26.043	-0.281	-0.231
-113.078	12.683	-0.185	-0.141
-112.064	-169.855	0.186	-0.007
-111.049	-200.000	0.018	0.184
-110.034	-147.074	-0.365	0.031
-109.020	285.630	0.179	-0.318
-108.005	-200.000	-0.052	0.467
-106.991	-112.846	-0.352	-0.069
-105.976	549.485	0.038	0.089
-104.962	-199.261	0.129	-0.001
-103.947	-28.178	-0.156	-0.088
-102.932	800.000	-0.067	0.207
-101.918	-200.000	0.005	0.274
-100.903	800.000	-0.026	0.108
-99.889	515.143	0.091	0.209
-98.874	-70.486	-0.309	-0.115
-97.859	-54.673	0.175	-0.078
-96.845	-107.637	-0.294	0.063
-95.830	-200.000	-0.118	0.000
-94.816	800.000	-0.029	0.116
-93.801	177.520	0.189	0.271
-92.786	-70.669	0.373	0.139
-91.772	-200.000	-0.032	0.177
-90.757	621.441	-0.089	-0.219
-89.743	266.676	-0.135	-0.232
-88.728	-200.000	0.038	-0.380
-87.713	-200.000	-0.010	0.343
-86.699	-90.672	-0.136	0.039
-85.684	208.099	0.024	0.036
-84.670	-148.676	-0.315	-0.025
-83.655	71.508	-0.217	0.221
-82.640	800.000	-0.062	-0.245
-81.626	556.505	0.064	-0.151
-80.611	-67.459	-0.118	-0.045
-79.597	-42.024	-0.185	-0.093
-78.582	-99.729	-0.216	-0.053
-77.567	800.000	0.045	0.135
-76.553	112.510	0.258	0.306
-75.538	-200.000	0.001	0.122
-74.524	-82.964	0.110	0.035
-73.509	800.000	-0.031	0.100
-72.494	-200.000	-0.013	-0.240
-71.480	-200.000	0.027	0.176
-70.465	25.447	-0.211	0.173
-69.451	-12.433	-0.184	-0.118
-68.436	28.862	0.101	-0.084
-67.422	-71.322	-0.056	0.021
-66.407	-29.895	0.133	0.074
-65.392	-102.411	0.085	0.020
-64.378	-200.000	0.032	-0.149
-63.363	-52.765	0.243	-0.110
-62.349	800.000	0.073	-0.257
-61.334	122.911	-0.899	-1.104
-60.319	38.669	0.552	0.484
-59.305	800.000	-0.399	-1.215
-58.290	246.125	0.487	0.805
-57.276	800.000	0.566	1.824
-56.261	-200.000	111.165	623.461
-55.246	515.587	1517.049	3475.781
-54.232	176.933	2693.206	3843.453
-53.217	111.407	2153.005	2546.200
-52.203	40.354	1598.827	1411.311
-51.188	32.403	1340.223	1135.256
-50.173	29.171	1300.822	1082.873
-49.159	54.041	1358.032	1280.660
-48.144	54.024	1372.118	1293.795
-47.130	32.323	1326.633	1123.089
-46.115	28.958	1308.525	1087.850
-45.100	28.710	1303.711	1082.345
-44.086	28.615	1301.357	1079.790
-43.071	28.634	1298.361	1077.373
-42.057	28.502	1297.048	1075.467
-41.042	28.571	1295.311	1074.384
-40.027	28.580	1293.617	1072.988
-39.013	28.653	1291.928	1071.972
-37.998	28.548	1290.295	1069.961
-36.984	28.744	1288.202	1069.327
-35.969	28.647	1287.067	1067.780
-34.954	28.728	1284.921	1066.424
-33.940	28.769	1283.477	1065.424
-32.925	28.893	1282.251	1065.081
-31.911	28.797	1280.778	1063.258
-30.896	28.751	1279.484	1061.877
-29.881	28.798	1277.918	1060.808
-28.867	28.781	1276.526	1059.512
-27.852	28.782	1275.169	1058.352
-26.838	28.912	1273.840	1057.950
-25.823	28.851	1272.522	1056.467
-24.809	28.691	1271.655	1054.786
-23.794	28.732	1270.151	1053.729
-22.779	28.820	1268.819	1053.086
-21.765	28.802	1267.374	1051.746
-20.750	28.806	1266.060	1050.635
-19.736	28.675	1264.876	1048.863
-18.721	28.683	1263.624	1047.830
-17.706	28.568	1262.840	1046.476
-16.692	28.657	1261.762	1046.053
-15.677	28.625	1260.506	1044.789
-14.663	28.632	1259.010	1043.544
-13.648	28.622	1258.317	1042.874
-12.633	28.637	1257.261	1042.042
-11.619	28.707	1256.101	1041.438
-10.604	28.718	1255.478	1040.938
-9.590	28.729	1254.572	1040.207
-8.575	28.704	1253.442	1039.090
-7.560	28.713	1252.772	1038.546
-6.546	28.778	1251.818	1038.080
-5.531	28.714	1250.934	1036.943
-4.517	28.567	1250.766	1035.934
-3.502	28.623	1249.638	1035.272
-2.487	28.739	1247.962	1034.496
-1.473	28.645	1244.340	1030.929
-0.458	27.008	1228.877	1008.986
0.556	25.094	1211.448	971.357
1.571	21.107	1216.924	953.911
2.586	20.219	1231.261	960.149
3.600	19.839	1219.788	949.033
4.615	15.331	1148.963	870.505
5.629	7.496	1076.617	777.379
6.644	4.112	1057.519	747.220
7.659	3.827	1054.996	744.001
8.673	3.595	1053.812	741.984
9.688	3.528	1052.646	740.774
10.702	3.880	1051.399	741.519
11.717	8.914	1057.801	770.204
12.731	17.205	1069.704	818.924
13.746	22.141	1075.336	847.013
14.761	22.971	1076.439	851.811
15.775	22.388	1074.362	847.288
16.790	21.642	1072.749	842.353
17.804	21.053	1071.566	838.521
18.819	20.743	1071.068	836.565
19.834	20.904	1070.406	836.746
20.848	20.889	1070.098	836.361
21.863	20.760	1069.024	834.831
22.877	20.601	1068.314	833.438
23.892	20.605	1067.204	832.520
24.907	20.566	1066.543	831.740
25.921	20.401	1065.766	830.273
26.936	20.437	1063.967	828.972
27.950	20.451	1062.893	828.126
28.965	20.376	1061.549	826.652
29.980	20.703	1060.164	827.054
30.994	20.883	1059.054	826.971
32.009	20.793	1058.422	825.977
33.023	20.856	1057.051	825.132
34.038	20.688	1055.975	823.422
35.053	20.537	1055.302	822.108
36.067	20.555	1054.025	821.131
37.082	20.498	1053.804	820.615
38.096	20.662	1053.212	820.857
39.111	20.847	1052.265	820.915
40.126	20.493	1050.930	818.133
41.140	20.126	1049.434	815.173
42.155	19.966	1048.098	813.313
43.169	19.865	1047.250	812.107
44.184	19.830	1045.975	810.881
45.199	20.008	1045.291	811.115
46.213	20.290	1044.372	811.649
47.228	20.540	1043.903	812.379
48.242	20.671	1042.755	812.029
49.257	20.532	1042.044	810.753
50.271	20.758	1041.134	811.027
51.286	20.838	1040.650	810.949
52.301	20.551	1040.006	809.044
53.315	20.420	1038.367	807.087
54.330	20.339	1037.402	805.886
55.344	20.312	1036.510	804.998
56.359	20.329	1035.488	804.215
57.374	20.107	1034.872	802.638
58.388	19.922	1033.989	801.025
59.403	19.848	1032.996	799.843
60.417	19.887	1032.026	799.200
61.432	19.801	1031.705	798.484
62.447	19.727	1030.837	797.398
63.461	19.755	1029.755	796.619
64.476	19.716	1028.712	795.564
65.490	19.662	1027.527	794.331
66.505	19.755	1026.956	794.245
67.520	19.665	1026.962	793.767
68.534	19.801	1025.643	793.300
69.549	19.532	1025.137	791.604
70.563	19.601	1024.129	791.073
71.578	19.485	1022.637	789.321
72.593	19.273	1022.350	788.060
73.607	19.342	1021.853	787.923
74.622	19.468	1021.044	787.801
75.636	19.608	1020.022	787.583
76.651	19.505	1020.033	787.052
77.666	19.618	1019.218	786.867
78.680	19.517	1018.494	785.780
79.695	19.587	1017.815	785.508
80.709	19.825	1017.705	786.433
81.724	19.886	1017.173	786.230
82.739	20.036	1016.718	786.492
83.753	20.402	1016.504	787.914
84.768	20.780	1015.625	788.878
85.782	21.045	1014.972	789.499
86.797	21.021	1014.241	788.752
87.812	20.777	1012.765	786.436
88.826	20.967	1011.922	786.568
89.841	20.798	1011.230	785.195
90.855	20.961	1010.327	785.163
91.870	20.942	1009.824	784.616
92.884	20.928	1008.972	783.821
93.899	20.914	1007.830	782.800
94.914	21.000	1006.904	782.397
95.928	20.993	1005.970	781.571
96.943	20.745	1004.929	779.585
97.957	20.688	1004.021	778.555
98.972	20.771	1003.201	778.221
99.987	20.853	1002.543	778.010
101.001	20.766	1001.451	776.706
102.016	20.533	1000.858	775.137
103.030	20.729	1000.291	775.504
104.045	20.780	999.357	774.935
105.060	20.583	998.354	773.215
106.074	20.211	997.349	770.716
107.089	20.115	995.640	768.902
108.103	19.866	994.663	766.974
109.118	19.738	993.808	765.681
110.133	19.676	992.241	764.131
111.147	19.646	991.787	763.580
112.162	19.734	991.179	763.435
113.176	20.038	990.223	763.972
114.191	19.982	990.096	763.560
115.206	20.015	989.160	762.917
116.220	19.882	988.395	761.673
117.235	19.816	987.135	760.342
118.249	19.714	986.129	759.055
119.264	19.667	985.458	758.262
120.279	19.566	984.591	757.088
121.293	19.459	983.774	755.922
122.308	19.348	982.783	754.610
123.322	19.352	981.382	753.483
124.337	19.292	980.587	752.544
125.352	19.364	979.813	752.198
126.366	19.345	978.741	751.228
127.381	19.439	977.757	750.814
128.395	19.552	977.063	750.705
129.410	19.550	976.458	750.165
130.424	19.735	975.908	750.477
131.439	19.926	975.330	750.798
132.454	19.932	974.570	750.170
133.468	19.932	973.866	749.565
134.483	19.896	972.931	748.622
135.497	20.033	971.874	748.333
136.512	19.942	971.328	747.456
137.527	19.970	970.511	746.882
138.541	19.971	969.627	746.139
139.556	20.090	968.972	746.080
140.570	20.376	968.653	747.000
141.585	20.554	967.964	747.166
142.600	20.741	967.063	747.208
143.614	20.882	966.309	747.165
144.629	20.896	965.523	746.552
145.643	20.768	964.547	745.184
146.658	20.422	963.266	742.647
147.673	20.243	961.962	740.813
148.687	20.071	961.116	739.362
149.702	20.019	959.878	738.122
150.716	20.060	958.957	737.521
151.731	20.164	958.352	737.436
152.746	20.007	958.085	736.495
153.760	20.252	957.181	736.775
154.775	20.324	956.782	736.710
155.789	20.492	956.441	737.096
156.804	20.379	955.662	735.952
157.819	20.532	954.760	735.839
158.833	20.602	954.527	735.892
159.848	20.783	953.896	736.106
160.862	20.625	952.249	734.101
161.877	20.155	950.827	730.961
162.892	20.069	949.417	729.446
163.906	19.803	948.656	727.678
164.921	19.931	947.497	727.263
165.935	20.061	946.920	727.304
166.950	20.263	945.864	727.273
167.964	20.058	945.664	726.195
168.979	20.004	944.338	724.887
169.994	19.988	943.365	724.009
171.008	20.202	943.174	724.693
172.023	20.545	942.728	725.722
173.037	20.747	941.904	725.865
174.052	20.395	940.983	723.624
175.067	19.986	940.005	721.104
176.081	19.800	939.156	719.616
177.096	19.672	938.820	718.762
178.110	19.958	938.082	719.323
179.125	20.040	937.907	719.463
180.140	20.085	937.511	719.284
181.154	20.346	937.282	720.127
182.169	20.511	937.283	720.748
183.183	20.464	936.464	719.858
184.198	20.527	935.242	719.119
185.213	20.501	934.782	718.592
186.227	20.589	934.459	718.647
187.242	20.750	933.336	718.384
188.256	20.936	933.023	718.846
189.271	20.798	932.206	717.584
190.286	20.404	931.000	714.968
191.300	19.937	929.431	711.780
192.315	19.713	929.023	710.486
193.329	19.785	928.810	710.558
194.344	19.970	928.087	710.702
195.359	20.187	927.561	711.125
196.373	20.357	927.243	711.515
197.388	20.512	927.424	712.223
198.402	20.672	927.165	712.620
199.417	20.962	926.743	713.416
200.432	21.170	925.867	713.531
201.446	21.327	925.351	713.711
202.461	21.198	925.370	713.136
203.475	21.168	923.800	711.739
204.490	20.795	922.620	709.250
205.504	20.641	921.966	708.056
206.519	20.624	920.790	707.023
207.534	20.509	920.782	706.488
208.548	20.569	920.115	706.153
209.563	20.572	919.394	705.554
210.577	20.653	918.670	705.263
211.592	20.887	918.229	705.809
212.607	21.157	917.905	706.589
213.621	20.918	917.384	705.160
214.636	20.861	916.332	704.059
215.650	20.864	915.797	703.597
216.665	21.067	915.031	703.766
217.680	21.161	914.461	703.645
218.694	21.230	913.815	703.363
219.709	20.956	913.275	701.784
220.723	20.997	912.369	701.190
221.738	20.833	911.409	699.730
222.753	20.926	910.733	699.521
223.767	20.917	910.777	699.457
224.782	21.148	910.295	699.954
225.796	21.189	909.929	699.775
226.811	21.144	909.165	698.946
227.826	20.813	907.738	696.460
228.840	20.822	907.266	696.072
229.855	20.731	906.388	694.974
230.869	20.688	905.382	693.973
231.884	20.601	905.034	693.294
232.899	20.420	904.436	692.056
233.913	20.362	903.641	691.154
234.928	20.357	902.695	690.352
235.942	20.301	902.239	689.717
236.957	20.312	901.783	689.352
237.972	20.282	901.135	688.677
238.986	20.317	900.861	688.545
240.001	20.329	900.331	688.129
241.015	20.560	899.257	688.161
242.030	20.547	899.059	687.895
243.045	20.602	898.761	687.826
244.059	20.657	897.894	687.315
245.074	20.718	897.405	687.121
246.088	21.040	896.680	687.777
247.103	21.129	896.555	687.970
248.117	21.530	895.931	689.009
249.132	21.886	896.046	690.440
250.147	22.102	895.346	690.688
251.161	22.068	895.092	690.296
252.176	22.126	894.692	690.156
253.190	22.193	893.879	689.731
254.205	22.190	893.236	689.161
255.220	21.997	892.596	687.851
256.234	21.904	891.939	686.919
257.249	22.006	891.110	686.618
258.263	21.849	890.633	685.578
259.278	21.999	889.584	685.293
260.293	21.945	889.618	685.048
261.307	22.196	888.571	685.163
262.322	22.161	888.090	684.593
263.336	22.228	887.231	684.132
264.351	22.163	886.928	683.586
265.366	22.059	886.708	682.949
266.380	21.984	885.657	681.788
267.395	21.823	885.401	680.908
268.409	21.810	884.097	679.791
269.424	21.775	883.391	679.054
270.439	21.798	882.662	678.522
271.453	21.705	881.670	677.342
272.468	21.584	881.679	676.818
273.482	21.519	881.455	676.337
274.497	21.549	880.202	675.432
275.512	21.634	879.513	675.172
276.526	21.651	879.706	675.322
277.541	21.663	879.048	674.805
278.555	22.004	878.513	675.646
279.570	22.211	877.859	675.879
280.585	22.121	877.016	674.826
281.599	21.944	875.808	673.159
282.614	21.713	874.942	671.546
283.628	21.742	874.656	671.379
284.643	21.766	874.033	670.935
285.657	21.776	873.316	670.361
286.672	21.821	872.742	670.034
287.687	21.860	872.155	669.673
288.701	21.800	871.760	669.081
289.716	21.774	871.492	668.717
290.730	21.721	870.984	668.069
291.745	21.913	870.143	668.094
292.760	21.902	869.863	667.778
293.774	22.322	869.426	668.982
294.789	22.239	868.374	667.796
295.803	21.941	867.184	665.693
296.818	21.823	866.839	664.922
297.833	21.656	866.133	663.689
298.847	21.708	865.846	663.609
299.862	21.895	865.013	663.617
300.876	22.053	864.985	664.133
301.891	22.343	864.559	664.843
302.906	22.373	864.521	664.870
303.920	22.539	863.951	664.998
304.935	22.504	863.823	664.708
305.949	22.558	862.091	663.522
306.964	22.096	861.589	661.338
307.979	22.201	861.174	661.356
308.993	22.264	860.823	661.265
310.008	22.379	859.968	660.980
311.022	22.272	859.467	660.137
312.037	22.023	858.650	658.514
313.052	21.881	857.231	656.839
314.066	21.529	856.857	655.175
315.081	21.468	856.993	654.991
316.095	21.814	855.835	655.342
317.110	21.644	855.339	654.270
318.125	21.567	855.046	653.702
319.139	21.533	854.831	653.351
320.154	21.662	853.902	653.065
321.168	21.683	853.929	653.107
322.183	21.790	853.154	652.855
323.197	21.758	852.556	652.220
324.212	21.854	852.086	652.160
325.227	21.751	851.127	650.985
326.241	21.799	850.224	650.414
327.256	21.642	849.836	649.480
328.270	21.638	849.337	649.026
329.285	21.380	848.990	647.748
330.300	21.564	848.418	647.934
331.314	21.688	847.889	647.931
332.329	21.939	847.518	648.518
333.343	22.136	847.267	648.997
334.358	22.172	846.688	648.628
335.373	22.253	846.452	648.690
336.387	22.283	846.374	648.683
337.402	22.415	845.957	648.792
338.416	22.554	846.131	649.382
339.431	22.810	845.700	649.935
340.446	22.977	845.397	650.260
341.460	22.919	845.149	649.796
342.475	22.835	844.802	649.164
343.489	23.122	844.414	649.862
344.504	23.105	843.800	649.270
345.519	23.138	843.801	649.336
346.533	22.939	843.088	648.001
347.548	22.574	841.885	645.681
348.562	22.366	841.011	644.192
349.577	22.281	840.247	643.240
350.592	22.083	839.392	641.802
351.606	22.294	838.395	641.756
352.621	22.292	838.148	641.501
353.635	22.316	837.643	641.144
354.650	22.342	836.934	640.641
355.665	22.240	836.770	640.088
356.679	22.528	836.191	640.634
357.694	22.472	835.240	639.646
358.708	22.475	834.734	639.212
359.723	22.469	834.107	638.654
360.738	22.674	833.081	638.555
361.752	22.657	833.038	638.405
362.767	22.931	832.804	639.160
363.781	23.120	832.244	639.355
364.796	23.300	831.845	639.644
365.810	23.253	832.054	639.579
366.825	23.365	831.543	639.531
367.840	23.199	830.895	638.379
368.854	22.946	830.054	636.763
369.869	22.889	829.721	636.248
370.883	22.999	828.791	635.874
371.898	23.020	828.991	636.045
372.913	23.159	828.735	636.295
373.927	23.083	827.909	635.330
374.942	23.085	827.451	634.931
375.956	23.205	827.005	634.961
376.971	23.391	826.634	635.289
377.986	23.429	826.446	635.224
379.000	23.419	825.888	634.703
380.015	23.407	825.034	633.946
381.029	23.369	824.255	633.157
382.044	23.392	823.752	632.794
383.059	23.463	823.373	632.704
384.073	23.254	822.567	631.282
385.088	23.042	821.568	629.703
386.102	22.887	820.715	628.443
387.117	22.880	820.159	627.936
388.132	22.826	819.700	627.338
389.146	22.936	819.170	627.268
390.161	23.098	819.167	627.784
391.175	23.241	818.960	628.080
392.190	23.013	818.066	626.530
393.205	22.863	817.505	625.511
394.219	22.705	816.822	624.375
395.234	22.730	816.136	623.883
396.248	22.721	815.716	623.478
397.263	22.492	815.404	622.374
398.278	22.441	814.857	621.721
399.292	22.564	814.235	621.626
400.307	22.559	813.989	621.367
401.321	22.468	813.709	620.775
402.336	22.775	813.058	621.306
403.350	23.013	812.775	621.872
404.365	23.298	812.522	622.623
405.380	23.487	812.405	623.143
406.394	23.523	812.174	623.040
407.409	23.599	811.720	622.901
408.423	23.740	811.208	622.947
409.438	23.806	811.128	623.063
410.453	23.689	810.613	622.202
411.467	23.873	809.960	622.288
412.482	23.760	810.060	621.915
413.496	23.903	809.683	622.072
414.511	23.659	809.291	620.861
415.526	23.706	808.553	620.405
416.540	23.744	807.732	619.855
417.555	23.758	807.282	619.501
418.569	23.819	806.876	619.347
419.584	23.720	806.404	618.587
420.599	23.744	805.876	618.210
421.613	163.636	1371.703	1797.077
422.628	142.332	1454.159	1797.140
