DTS Sentinel unit serial number:	SN413079Multiplexer serial number:	ORYXHardware model number:	OX4-SRSoftware version number:	ORYX F/W v4.00 Oryx Data Collector v3.7.2.0data status	okinstallation	princeton_trtdifferential loss correction	single-endedforward channel	channel 1reverse channel	N/Adate	2019/09/13time	00:06:35forward acquisition time	60.00reverse acquisition time	0.00gamma	496.2192k internal	0.2329k external	0.2329temperature offset calibration	1.0147default loss term (dB/km)	0.3790temperature slope calibration	1.0000multiplexer offset coefficient	1.0000multiplexer slope coefficient	1.0000fibre end	0.00T internal ref (°C)	28.62T ext. ref 1 (°C)	3.76T ext. ref 2 (°C)	23.27length (m)	temperature (°C)	Stokes	anti-Stokes-747.200	-30.404	-0.038	-0.021
-746.185	407.248	0.076	0.162
-745.171	-22.303	0.414	0.253
-744.156	45.513	0.278	0.258
-743.142	-98.323	0.311	0.080
-742.127	11.694	-0.248	0.191
-741.112	-61.120	0.194	0.083
-740.098	-106.005	-0.153	-0.035
-739.083	-78.055	0.049	0.017
-738.069	-183.971	-0.207	0.004
-737.054	-200.000	-0.002	-0.027
-736.039	-102.637	-0.087	0.021
-735.025	70.601	-0.407	0.424
-734.010	42.786	0.084	-0.077
-732.996	-200.000	0.010	-0.323
-731.981	-37.984	-0.200	-0.107
-730.966	-2.043	0.162	-0.114
-729.952	-90.491	-0.299	0.087
-728.937	-2.096	-0.356	-0.252
-727.923	104.971	-0.049	0.058
-726.908	-200.000	-0.017	-0.426
-725.894	161.636	0.066	0.093
-724.879	-104.863	-0.238	0.055
-723.864	-151.227	0.448	0.034
-722.850	-40.990	0.083	-0.043
-721.835	80.109	-0.145	-0.157
-720.821	370.786	-0.156	-0.319
-719.806	-136.517	0.283	-0.033
-718.791	110.674	-0.141	-0.170
-717.777	2.364	-0.107	-0.078
-716.762	-71.333	0.440	-0.166
-715.748	-200.000	0.006	-0.037
-714.733	-85.648	0.202	0.063
-713.718	-200.000	-0.057	0.382
-712.704	4.780	-0.029	-0.022
-711.689	-200.000	-0.066	-0.305
-710.675	-69.451	-0.111	-0.043
-709.660	22.124	0.131	-0.108
-708.645	70.853	-0.102	-0.106
-707.631	335.335	-0.222	-0.433
-706.616	-200.000	-0.027	0.193
-705.602	132.218	0.039	-0.050
-704.587	-92.122	-0.188	0.053
-703.572	-200.000	-0.024	0.207
-702.558	-200.000	-0.026	-0.176
-701.543	172.893	0.155	-0.224
-700.529	9.409	-0.306	-0.233
-699.514	-68.594	0.206	-0.080
-698.499	-19.139	0.216	-0.135
-697.485	-104.468	-0.161	0.037
-696.470	2.507	0.156	-0.113
-695.456	-200.000	0.016	-0.171
-694.441	-114.088	-0.223	-0.043
-693.426	15.332	0.145	0.115
-692.412	124.969	0.230	-0.292
-691.397	36.438	-0.150	0.133
-690.383	-200.000	-0.067	-0.416
-689.368	239.245	-0.087	0.146
-688.354	782.829	0.115	-0.316
-687.339	-10.461	-0.138	-0.092
-686.324	-125.420	-0.204	0.031
-685.310	-75.466	0.202	-0.072
-684.295	7.795	0.286	0.215
-683.281	144.959	-0.159	-0.214
-682.266	-58.591	-0.114	0.050
-681.251	-200.000	0.059	0.292
-680.237	-117.637	-0.150	0.027
-679.222	-200.000	0.072	0.322
-678.208	74.577	0.053	-0.056
-677.193	433.148	0.047	0.103
-676.178	51.941	-0.097	-0.093
-675.164	149.308	-0.023	0.031
-674.149	-15.100	0.212	-0.137
-673.135	-14.636	-0.466	0.301
-672.120	406.286	-0.235	-0.498
-671.105	108.900	-0.237	-0.285
-670.091	-100.001	-0.129	-0.032
-669.076	800.000	-0.049	-0.141
-668.062	-133.640	-0.262	-0.033
-667.047	-200.000	0.008	-0.224
-666.032	159.675	-0.267	-0.373
-665.018	800.000	0.046	-0.146
-664.003	130.469	0.132	-0.170
-662.989	800.000	-0.043	-0.130
-661.974	-200.000	-0.027	-0.355
-660.959	-200.000	0.025	-0.119
-659.945	-200.000	0.025	-0.119
-658.930	-200.000	0.027	0.124
-657.916	693.399	0.029	0.077
-656.901	-3.201	-0.179	-0.125
-655.886	186.693	0.112	-0.168
-654.872	-200.000	-0.005	0.084
-653.857	16.707	-0.153	-0.121
-652.843	-104.356	-0.413	0.096
-651.828	-144.117	-0.119	-0.011
-650.814	259.491	0.184	-0.319
-649.799	800.000	0.024	-0.084
-648.784	-200.000	0.040	0.199
-647.770	-111.386	0.232	0.047
-646.755	304.603	0.056	0.104
-645.741	-3.423	0.266	-0.186
-644.726	-150.981	0.216	-0.016
-643.711	-179.569	-0.030	-0.001
-642.697	171.363	0.078	0.112
-641.682	-200.000	0.010	0.087
-640.668	10.177	0.355	0.271
-639.653	140.572	-0.175	-0.232
-638.638	-39.213	-0.305	0.161
-637.624	-200.000	0.001	0.098
-636.609	800.000	0.010	0.031
-635.595	-81.197	-0.232	0.077
-634.580	783.001	-0.057	0.155
-633.565	-70.753	-0.148	0.056
-632.551	-50.930	-0.211	0.099
-631.536	48.608	0.076	0.072
-630.522	59.599	0.259	-0.256
-629.507	-199.318	-0.631	0.003
-628.492	162.546	-0.113	-0.159
-627.478	226.431	0.147	0.239
-626.463	280.951	-0.109	-0.196
-625.449	-131.498	0.082	-0.011
-624.434	-31.915	0.219	0.123
-623.419	-10.596	-0.224	-0.149
-622.405	-200.000	0.039	0.330
-621.390	800.000	0.080	0.318
-620.376	-76.645	0.132	0.046
-619.361	-70.569	-0.072	-0.027
-618.346	800.000	-0.125	-0.349
-617.332	800.000	0.050	0.193
-616.317	-200.000	-0.067	0.683
-615.303	-155.110	0.284	0.019
-614.288	728.738	0.024	0.065
-613.273	-66.511	-0.403	0.160
-612.259	160.406	-0.139	-0.195
-611.244	800.000	-0.098	-0.300
-610.230	800.000	0.081	0.248
-609.215	-3.626	0.181	0.126
-608.201	-200.000	-0.038	0.640
-607.186	126.049	0.067	0.085
-606.171	-200.000	-0.022	-0.279
-605.157	-200.000	0.000	0.190
-604.142	305.374	-0.050	0.093
-603.128	93.478	0.109	-0.123
-602.113	586.117	-0.119	-0.294
-601.098	800.000	-0.030	0.089
-600.084	-200.000	0.032	-0.198
-599.069	7.018	0.126	0.094
-598.055	-59.945	-0.134	0.057
-597.040	-55.469	0.343	-0.154
-596.025	-119.601	0.023	-0.004
-595.011	-200.000	0.033	0.195
-593.996	-70.642	-0.130	0.049
-592.982	-70.984	0.106	0.040
-591.967	-146.130	-0.255	0.022
-590.952	3.083	-0.157	0.114
-589.938	800.000	-0.112	0.365
-588.923	110.113	0.107	0.129
-587.909	-72.029	-0.455	0.169
-586.894	-200.000	0.003	-0.299
-585.879	218.624	-0.062	-0.099
-584.865	-144.331	-0.289	-0.027
-583.850	-107.008	-0.120	0.027
-582.836	-200.000	-0.057	-0.471
-581.821	92.611	0.141	-0.159
-580.806	-171.557	0.145	-0.005
-579.792	2.480	0.196	-0.142
-578.777	-73.427	-0.196	0.072
-577.763	-160.039	-0.453	0.025
-576.748	784.386	-0.065	-0.177
-575.733	69.318	-0.117	-0.121
-574.719	-102.770	-0.281	0.067
-573.704	800.000	-0.027	-0.108
-572.690	66.785	-0.189	-0.193
-571.675	-200.000	-0.017	0.168
-570.661	-200.000	-0.001	-0.220
-569.646	155.698	-0.199	-0.274
-568.631	-200.000	-0.003	0.176
-567.617	21.121	-0.224	-0.182
-566.602	-200.000	0.043	-0.268
-565.588	-86.150	0.072	-0.022
-564.573	-116.208	0.223	-0.041
-563.558	179.244	0.142	-0.208
-562.544	105.628	0.322	0.381
-561.529	-200.000	0.007	-0.211
-560.515	-120.576	-0.288	0.049
-559.500	-200.000	0.049	0.250
-558.485	-82.429	0.122	0.040
-557.471	33.404	0.104	0.091
-556.456	-200.000	-0.020	0.098
-555.442	-200.000	0.020	0.143
-554.427	-16.973	-0.050	0.032
-553.412	-200.000	-0.512	0.001
-552.398	97.658	0.236	0.271
-551.383	591.125	-0.059	-0.145
-550.369	11.253	0.080	-0.061
-549.354	305.542	0.054	0.101
-548.339	-103.362	-0.282	-0.066
-547.325	-157.457	0.129	-0.008
-546.310	-46.607	0.114	0.056
-545.296	-15.052	-0.202	-0.129
-544.281	-122.780	0.172	-0.028
-543.266	-42.660	-0.229	-0.116
-542.252	-143.457	0.195	-0.019
-541.237	84.922	-0.201	-0.221
-540.223	800.000	-0.080	0.297
-539.208	-200.000	0.018	-0.193
-538.193	-74.718	0.266	0.096
-537.179	347.074	0.103	0.203
-536.164	-10.522	-0.049	0.033
-535.150	-47.610	-0.165	-0.080
-534.135	-9.277	-0.090	-0.060
-533.121	-200.000	0.387	0.001
-532.106	-81.130	-0.105	-0.035
-531.091	31.943	0.228	0.196
-530.077	-41.514	-0.268	-0.138
-529.062	800.000	-0.055	0.155
-528.048	69.661	0.254	0.261
-527.033	8.163	0.086	-0.064
-526.018	32.496	0.105	0.091
-525.004	-61.891	0.056	0.023
-523.989	-65.798	0.129	0.052
-522.975	-49.871	-0.083	0.039
-521.960	800.000	0.053	0.200
-520.945	92.684	-0.068	-0.077
-519.931	362.743	-0.117	0.234
-518.916	-200.000	0.002	-0.164
-517.902	-200.000	0.010	0.083
-516.887	-15.781	0.156	0.099
-515.872	-200.000	-0.010	-0.160
-514.858	165.184	-0.125	0.176
-513.843	-98.611	0.068	0.017
-512.829	34.510	0.122	0.107
-511.814	-164.833	-0.319	-0.014
-510.799	212.857	0.109	-0.172
-509.785	-86.952	-0.171	0.052
-508.770	800.000	0.043	0.156
-507.756	-49.479	0.154	-0.073
-506.741	750.939	0.023	0.062
-505.726	-200.000	-0.198	-0.001
-504.712	-200.000	-0.041	0.215
-503.697	-123.595	-0.076	0.012
-502.683	321.566	-0.039	-0.073
-501.668	125.802	-0.128	0.161
-500.653	575.614	0.068	-0.166
-499.639	616.424	-0.039	0.098
-498.624	-99.181	-0.187	-0.047
-497.610	-46.388	-0.465	0.228
-496.595	-92.384	0.259	0.073
-495.581	73.450	-0.156	-0.163
-494.566	-1.504	-0.334	-0.235
-493.551	-49.176	-0.073	0.035
-492.537	-138.735	-0.136	0.015
-491.522	-200.000	0.018	-0.108
-490.508	6.961	-0.383	-0.284
-489.493	-200.000	0.037	-0.204
-488.478	38.224	0.201	-0.179
-487.464	-111.794	0.351	0.071
-486.449	-200.000	-0.005	-0.101
-485.435	-200.000	0.004	0.213
-484.420	20.380	0.113	0.091
-483.405	-200.000	0.021	0.244
-482.391	-157.081	-0.126	0.008
-481.376	-11.696	0.337	-0.221
-480.362	800.000	-0.067	-0.198
-479.347	-13.596	-0.037	0.024
-478.332	-95.885	-0.228	0.061
-477.318	-200.000	-0.008	0.163
-476.303	-162.627	-0.358	-0.018
-475.289	-8.142	-0.090	-0.060
-474.274	169.151	0.160	-0.227
-473.259	430.866	-0.085	0.184
-472.245	-160.254	0.498	0.027
-471.230	48.260	-0.203	0.190
-470.216	800.000	-0.032	0.097
-469.201	21.830	-0.200	0.162
-468.186	195.995	0.089	0.135
-467.172	-200.000	0.039	-0.316
-466.157	800.000	-0.027	-0.095
-465.143	580.186	-0.042	0.103
-464.128	-124.345	-0.230	-0.036
-463.113	800.000	-0.076	-0.213
-462.099	-200.000	0.018	0.125
-461.084	583.958	0.156	0.383
-460.070	-200.000	0.072	-0.362
-459.055	101.996	-0.197	-0.230
-458.040	158.542	0.195	-0.270
-457.026	243.047	-0.151	-0.252
-456.011	-87.578	0.281	0.085
-454.997	-183.098	0.349	-0.006
-453.982	-112.599	-0.305	-0.061
-452.968	64.131	-0.115	-0.115
-451.953	19.075	-0.193	-0.154
-450.938	-128.152	-0.097	0.014
-449.924	-93.185	0.259	0.072
-448.909	202.512	0.085	-0.131
-447.895	10.135	0.349	-0.264
-446.880	290.616	0.085	-0.154
-445.865	-137.316	-0.159	-0.018
-444.851	-200.000	0.029	-0.227
-443.836	-63.509	-0.092	-0.038
-442.822	-200.000	-0.063	-0.282
-441.807	-29.686	-0.018	-0.010
-440.792	-13.034	0.194	0.125
-439.778	758.284	-0.033	0.088
-438.763	51.145	0.024	-0.022
-437.749	-88.777	-0.288	0.085
-436.734	-200.000	0.007	-0.097
-435.719	727.367	0.098	-0.259
-434.705	-200.000	0.044	-0.433
-433.690	-21.769	0.188	-0.114
-432.676	800.000	0.019	-0.064
-431.661	53.429	-0.046	0.044
-430.646	-47.070	-0.345	0.167
-429.632	-46.684	-0.271	0.132
-428.617	634.305	-0.124	0.313
-427.603	-200.000	-0.007	0.150
-426.588	-144.215	0.186	0.017
-425.573	-40.153	0.098	0.051
-424.559	800.000	0.075	0.227
-423.544	800.000	-0.070	-0.204
-422.530	800.000	0.070	-0.263
-421.515	622.220	-0.155	-0.388
-420.500	-5.387	-0.075	0.052
-419.486	-45.311	-0.032	0.016
-418.471	-200.000	-0.013	-0.227
-417.457	61.708	-0.206	-0.204
-416.442	4.951	-0.194	-0.142
-415.428	-200.000	0.019	-0.194
-414.413	800.000	0.047	-0.161
-413.398	144.775	0.186	-0.247
-412.384	145.110	-0.041	-0.055
-411.369	-87.314	-0.272	0.082
-410.355	-152.886	0.067	0.005
-409.340	-200.000	0.034	-0.198
-408.325	118.414	-0.124	0.152
-407.311	-91.168	0.410	-0.117
-406.296	-87.909	0.085	-0.025
-405.282	-200.000	0.022	0.194
-404.267	644.655	-0.140	0.355
-403.252	-200.000	0.003	0.162
-402.238	62.762	0.205	-0.204
-401.223	-105.394	-0.271	-0.061
-400.209	408.790	0.068	-0.144
-399.194	800.000	0.089	0.255
-398.179	-47.030	-0.114	0.055
-397.165	-200.000	0.008	0.061
-396.150	-35.341	0.067	-0.036
-395.136	155.669	0.158	-0.216
-394.121	647.182	-0.132	-0.335
-393.106	86.960	-0.256	-0.281
-392.092	-161.357	0.348	-0.018
-391.077	29.403	0.339	-0.286
-390.063	-4.426	0.265	-0.182
-389.048	-122.216	0.179	0.029
-388.033	159.963	0.152	-0.211
-387.019	-200.000	-0.004	0.069
-386.004	139.923	-0.086	-0.112
-384.990	-74.636	0.222	-0.079
-383.975	-123.356	-0.214	0.034
-382.960	-72.716	-0.194	-0.071
-381.946	-170.438	0.194	-0.007
-380.931	-168.502	-0.107	-0.004
-379.917	-56.199	-0.223	0.099
-378.902	-7.682	-0.065	0.043
-377.888	444.791	0.104	-0.226
-376.873	-127.227	-0.120	-0.017
-375.858	-21.649	-0.241	0.146
-374.844	28.657	0.116	-0.098
-373.829	239.397	-0.112	-0.185
-372.815	-151.006	0.209	-0.016
-371.800	-200.000	-0.032	-0.220
-370.785	424.874	0.078	0.168
-369.771	122.362	0.205	-0.255
-368.756	315.291	0.149	0.279
-367.742	-70.057	0.331	-0.125
-366.727	-9.696	0.047	-0.031
-365.712	111.618	-0.098	0.118
-364.698	-152.855	-0.115	-0.008
-363.683	-107.769	0.150	-0.032
-362.669	-50.830	0.052	-0.024
-361.654	800.000	-0.045	0.188
-360.639	-200.000	0.059	-0.259
-359.625	-15.278	-0.270	0.171
-358.610	-12.225	0.349	-0.227
-357.596	-108.039	-0.166	-0.036
-356.581	-85.324	0.238	-0.074
-355.566	-200.000	0.003	-0.160
-354.552	-28.306	-0.051	0.029
-353.537	274.308	-0.100	-0.175
-352.523	-200.000	0.009	0.195
-351.508	-200.000	-0.019	0.213
-350.493	27.911	0.066	0.055
-349.479	-117.833	0.155	-0.028
-348.464	8.297	-0.116	-0.087
-347.450	20.293	-0.048	0.038
-346.435	462.971	0.130	0.288
-345.420	-200.000	-0.013	0.296
-344.406	80.853	-0.129	0.138
-343.391	740.735	0.016	0.043
-342.377	605.823	0.042	0.104
-341.362	75.332	0.228	-0.239
-340.348	-168.026	0.074	-0.003
-339.333	184.518	0.026	0.039
-338.318	-46.620	0.044	-0.021
-337.304	-39.006	-0.055	-0.029
-336.289	-26.891	-0.304	0.176
-335.275	-56.104	-0.191	0.085
-334.260	-149.086	-0.145	0.012
-333.245	-2.951	0.283	-0.196
-332.231	-23.996	0.221	0.131
-331.216	-84.483	-0.315	-0.099
-330.202	44.654	-0.212	-0.193
-329.187	31.782	0.039	0.033
-328.172	68.868	0.087	0.088
-327.158	800.000	-0.051	-0.181
-326.143	-200.000	-0.025	-0.190
-325.129	95.833	0.222	-0.251
-324.114	800.000	-0.048	-0.194
-323.099	561.383	0.064	-0.153
-322.085	-34.105	0.325	0.177
-321.070	-200.000	0.002	-0.038
-320.056	800.000	-0.021	0.064
-319.041	-53.181	-0.191	-0.087
-318.026	-200.000	0.010	0.157
-317.012	-110.447	-0.169	0.035
-315.997	-200.000	-0.248	-0.001
-314.983	-70.497	-0.188	0.071
-313.968	285.223	0.114	-0.204
-312.953	-113.864	-0.220	0.042
-311.939	-86.776	-0.422	0.128
-310.924	-200.000	0.021	0.095
-309.910	51.977	0.177	0.167
-308.895	-200.000	-0.011	0.151
-307.880	-200.000	-0.046	0.452
-306.866	666.538	0.064	0.165
-305.851	33.410	-0.156	-0.134
-304.837	800.000	-0.014	0.040
-303.822	-31.847	0.227	0.126
-302.807	5.612	0.128	-0.093
-301.793	414.558	0.147	0.309
-300.778	92.476	0.253	-0.283
-299.764	-107.522	0.246	0.053
-298.749	-5.982	0.211	-0.143
-297.735	-200.000	0.042	-0.316
-296.720	-200.000	-0.041	-0.202
-295.705	-96.760	0.253	-0.066
-294.691	800.000	0.083	0.323
-293.676	195.379	-0.003	-0.004
-292.662	110.941	0.048	-0.057
-291.647	-119.990	-0.305	0.052
-290.632	-200.000	-0.016	0.155
-289.618	66.636	-0.125	0.126
-288.603	-96.006	-0.165	0.043
-287.589	190.765	-0.133	0.197
-286.574	413.232	0.169	0.356
-285.559	-132.424	0.501	-0.064
-284.545	-65.636	-0.288	-0.114
-283.530	116.872	-0.264	-0.320
-282.516	59.074	0.111	0.108
-281.501	6.635	0.237	-0.175
-280.486	-138.926	-0.112	-0.012
-279.472	321.720	0.045	0.085
-278.457	-73.911	0.077	-0.028
-277.443	16.324	0.127	0.099
-276.428	118.723	0.105	0.128
-275.413	212.775	0.121	0.189
-274.399	-3.104	-0.087	-0.060
-273.384	108.874	0.067	0.079
-272.370	-34.651	0.112	0.060
-271.355	32.266	-0.483	0.412
-270.340	142.026	-0.094	-0.123
-269.326	1.742	0.200	-0.143
-268.311	348.148	-0.105	0.206
-267.297	65.084	-0.085	-0.085
-266.282	-136.686	-0.514	-0.059
-265.267	-82.088	0.125	-0.040
-264.253	165.655	-0.218	0.305
-263.238	-86.959	0.137	-0.041
-262.224	474.099	-0.028	-0.063
-261.209	-95.264	0.117	0.031
-260.195	59.499	0.273	0.266
-259.180	-90.053	0.224	0.065
-258.165	800.000	0.052	-0.212
-257.151	-200.000	0.005	0.121
-256.136	800.000	0.080	0.279
-255.122	-200.000	-0.029	-0.236
-254.107	257.035	0.158	0.269
-253.092	-68.591	0.177	-0.068
-252.078	-115.899	0.052	-0.010
-251.063	-200.000	0.014	0.060
-250.049	800.000	-0.034	0.142
-249.034	90.138	0.111	0.123
-248.019	292.194	0.123	0.222
-247.005	-200.000	-0.017	0.329
-245.990	66.661	-0.226	0.227
-244.976	363.958	-0.137	0.272
-243.961	49.136	0.319	-0.296
-242.946	800.000	-0.031	0.105
-241.932	800.000	0.049	-0.191
-240.917	-32.934	-0.272	-0.149
-239.903	-72.773	0.178	0.065
-238.888	-200.000	0.007	-0.227
-237.873	-200.000	0.015	-0.270
-236.859	-200.000	-0.012	-0.217
-235.844	503.925	0.050	0.114
-234.830	221.521	0.107	0.170
-233.815	-52.434	-0.158	-0.072
-232.800	39.758	0.068	0.061
-231.786	-69.272	0.032	-0.012
-230.771	-19.817	-0.158	0.096
-229.757	-69.756	-0.086	0.032
-228.742	275.184	-0.021	0.037
-227.727	250.946	0.247	0.415
-226.713	36.400	0.038	-0.033
-225.698	-163.657	0.065	0.003
-224.684	800.000	0.061	-0.205
-223.669	-200.000	0.012	-0.131
-222.655	38.235	0.280	0.246
-221.640	800.000	-0.034	0.145
-220.625	-18.222	0.223	-0.138
-219.611	-27.351	-0.053	-0.030
-218.596	34.718	-0.128	0.111
-217.582	260.712	0.098	0.167
-216.567	7.145	0.402	0.296
-215.552	-200.000	-0.036	-0.307
-214.538	119.374	0.183	0.224
-213.523	-113.361	-0.276	-0.053
-212.509	-200.000	0.078	0.373
-211.494	185.314	0.126	0.185
-210.479	5.135	-0.104	-0.076
-209.465	800.000	0.052	0.158
-208.450	-17.237	0.061	-0.038
-207.436	-159.866	-0.144	0.008
-206.421	-160.159	-0.229	-0.012
-205.406	172.016	0.043	-0.062
-204.392	473.779	-0.060	0.134
-203.377	-82.595	0.126	0.040
-202.363	-96.734	0.178	-0.046
-201.348	800.000	0.033	0.113
-200.333	-200.000	0.085	-0.497
-199.319	-200.000	-0.036	-0.177
-198.304	333.610	0.134	-0.256
-197.290	82.260	0.060	0.064
-196.275	76.999	-0.193	0.202
-195.260	800.000	-0.110	-0.307
-194.246	266.820	-0.082	-0.142
-193.231	274.617	-0.039	-0.068
-192.217	755.187	-0.100	0.266
-191.202	800.000	0.041	-0.160
-190.187	-65.659	-0.073	0.029
-189.173	48.792	0.144	-0.133
-188.158	41.213	-0.186	-0.166
-187.144	-200.000	0.007	0.048
-186.129	62.429	-0.146	0.144
-185.114	-176.368	0.101	-0.003
-184.100	0.375	-0.176	0.124
-183.085	800.000	-0.033	-0.114
-182.071	-175.496	0.179	-0.005
-181.056	-23.513	0.151	-0.089
-180.042	-200.000	-0.010	-0.339
-179.027	614.696	-0.045	-0.110
-178.012	-94.311	0.200	0.054
-176.998	-80.593	-0.173	0.057
-175.983	67.797	0.071	0.071
-174.969	800.000	0.165	0.450
-173.954	529.370	0.102	-0.238
-172.939	11.409	0.183	-0.138
-171.925	-19.020	-0.192	0.118
-170.910	265.989	-0.120	-0.206
-169.896	800.000	-0.034	-0.100
-168.881	-200.000	-0.014	0.089
-167.866	-200.000	-0.047	0.246
-166.852	536.433	0.123	-0.288
-165.837	-200.000	0.022	-0.397
-164.823	-115.768	0.186	0.034
-163.808	114.100	0.175	-0.209
-162.793	-30.201	0.104	0.058
-161.779	-200.000	0.003	0.099
-160.764	-198.252	-0.245	-0.001
-159.750	-8.356	-0.144	-0.096
-158.735	-95.250	0.222	0.059
-157.720	800.000	0.132	0.370
-156.706	-129.797	0.195	0.026
-155.691	-200.000	-0.043	0.236
-154.677	-170.630	-0.216	0.007
-153.662	-30.708	-0.357	-0.199
-152.647	490.863	0.029	0.065
-151.633	-9.353	0.194	-0.128
-150.618	-34.494	0.251	-0.135
-149.604	-2.681	-0.102	-0.070
-148.589	31.347	-0.188	-0.159
-147.574	-87.636	0.392	-0.116
-146.560	-200.000	-0.003	0.283
-145.545	-119.876	0.247	0.042
-144.531	800.000	-0.023	0.084
-143.516	-200.000	-0.004	-0.086
-142.502	-116.804	-0.176	-0.032
-141.487	80.634	-0.283	-0.301
-140.472	-200.000	-0.007	-0.053
-139.458	-200.000	0.026	0.127
-138.443	567.298	0.017	-0.041
-137.429	-0.362	0.274	-0.192
-136.414	-98.545	-0.166	-0.042
-135.399	800.000	0.043	-0.139
-134.385	-26.852	0.202	0.116
-133.370	389.862	0.126	0.257
-132.356	-163.267	0.273	0.013
-131.341	-128.143	0.177	0.025
-130.326	-103.957	0.176	-0.040
-129.312	800.000	-0.054	0.165
-128.297	261.832	0.126	0.214
-127.283	506.599	-0.237	-0.540
-126.268	800.000	0.067	-0.225
-125.253	-111.341	-0.090	0.018
-124.239	-119.205	-0.244	0.042
-123.224	-122.692	0.058	0.009
-122.210	-99.191	0.171	-0.043
-121.195	143.519	0.357	-0.467
-120.180	137.894	-0.067	-0.087
-119.166	-56.020	0.211	-0.092
-118.151	3.760	0.364	0.261
-117.137	-55.076	0.332	0.147
-116.122	-143.324	0.294	0.028
-115.107	800.000	0.107	-0.302
-114.093	-2.274	0.315	0.217
-113.078	516.429	-0.115	0.264
-112.064	-88.652	-0.094	-0.027
-111.049	674.645	0.136	0.346
-110.034	-146.356	0.303	0.026
-109.020	269.311	-0.141	-0.243
-108.005	-59.330	-0.224	0.095
-106.991	106.399	0.153	0.178
-105.976	-166.608	-0.274	0.011
-104.962	-76.642	0.152	0.052
-103.947	43.911	0.181	-0.163
-102.932	-49.563	-0.365	-0.171
-101.918	-65.143	0.180	0.071
-100.903	-132.007	0.220	-0.028
-99.889	-200.000	-0.053	-0.303
-98.874	14.132	-0.278	0.212
-97.859	-125.093	-0.292	0.044
-96.845	-123.149	-0.109	-0.017
-95.830	-20.637	-0.143	-0.086
-94.816	-3.297	0.177	-0.121
-93.801	37.920	0.245	-0.214
-92.786	13.025	0.307	0.233
-91.772	-108.619	0.249	-0.052
-90.757	115.931	-0.099	0.119
-89.743	-118.032	-0.185	0.032
-88.728	-100.398	0.189	0.046
-87.713	130.251	-0.170	-0.214
-86.699	-57.637	-0.217	0.093
-85.684	-48.341	-0.096	-0.046
-84.670	-23.806	-0.202	-0.119
-83.655	-200.000	-0.027	0.209
-82.640	800.000	0.091	-0.277
-81.626	31.791	-0.139	-0.118
-80.611	20.059	-0.122	-0.096
-79.597	11.674	-0.158	0.119
-78.582	-18.628	0.148	-0.091
-77.567	162.679	0.113	-0.156
-76.553	-200.000	0.016	0.345
-75.538	37.783	0.120	-0.105
-74.524	403.040	-0.168	0.346
-73.509	54.248	0.142	-0.134
-72.494	-200.000	0.028	0.170
-71.480	800.000	0.091	0.274
-70.465	76.272	-0.446	0.463
-69.451	-200.000	0.009	0.097
-68.436	241.584	0.149	-0.244
-67.422	372.913	-0.105	-0.209
-66.407	569.243	-0.078	-0.186
-65.392	227.216	-0.176	0.280
-64.378	-200.000	-0.011	0.052
-63.363	573.502	-0.094	-0.225
-62.349	225.882	-0.058	0.092
-61.334	73.158	-1.029	-1.056
-60.319	16.003	0.456	0.352
-59.305	800.000	-0.339	-0.923
-58.290	415.514	0.586	1.225
-57.276	276.543	0.889	1.550
-56.261	-200.000	112.168	628.409
-55.246	516.911	1520.401	3486.338
-54.232	177.053	2693.193	3843.678
-53.217	110.747	2151.987	2538.781
-52.203	40.252	1597.404	1409.008
-51.188	32.163	1341.307	1134.465
-50.173	29.132	1301.679	1083.107
-49.159	53.527	1358.021	1277.310
-48.144	53.682	1372.517	1291.823
-47.130	32.195	1326.901	1122.294
-46.115	28.752	1309.571	1087.254
-45.100	28.534	1304.731	1081.908
-44.086	28.487	1302.432	1079.677
-43.071	28.432	1299.867	1077.187
-42.057	28.393	1298.083	1075.439
-41.042	28.552	1296.315	1074.864
-40.027	28.538	1294.977	1073.626
-39.013	28.510	1292.709	1071.539
-37.998	28.487	1291.191	1070.103
-36.984	28.574	1289.179	1068.904
-35.969	28.711	1287.259	1068.068
-34.954	28.664	1285.932	1066.649
-33.940	28.711	1284.408	1065.616
-32.925	28.699	1282.976	1064.314
-31.911	28.681	1281.951	1063.321
-30.896	28.737	1280.278	1062.211
-29.881	28.698	1279.112	1060.976
-28.867	28.709	1277.686	1059.818
-27.852	28.785	1275.880	1058.714
-26.838	28.757	1274.753	1057.577
-25.823	28.717	1273.746	1056.471
-24.809	28.710	1272.247	1055.142
-23.794	28.684	1270.817	1053.768
-22.779	28.663	1269.530	1052.535
-21.765	28.716	1268.408	1051.870
-20.750	28.702	1266.901	1050.499
-19.736	28.648	1265.599	1049.067
-18.721	28.580	1264.561	1047.777
-17.706	28.562	1263.801	1047.001
-16.692	28.552	1262.529	1045.852
-15.677	28.648	1260.631	1044.782
-14.663	28.549	1260.096	1043.736
-13.648	28.504	1259.400	1042.863
-12.633	28.481	1258.225	1041.717
-11.619	28.453	1257.744	1041.115
-10.604	28.641	1256.209	1040.873
-9.590	28.624	1255.742	1040.345
-8.575	28.554	1254.503	1038.881
-7.560	28.580	1253.752	1038.364
-6.546	28.644	1252.815	1037.909
-5.531	28.550	1252.376	1036.973
-4.517	28.617	1251.361	1036.474
-3.502	28.622	1250.337	1035.612
-2.487	28.527	1249.781	1034.577
-1.473	28.517	1245.146	1030.642
-0.458	27.024	1229.729	1009.542
0.556	24.966	1212.660	971.418
1.571	21.121	1218.286	954.848
2.586	20.052	1232.901	960.290
3.600	19.766	1220.812	949.221
4.615	15.107	1150.147	870.048
5.629	7.474	1076.725	777.180
6.644	4.095	1058.501	747.668
7.659	3.799	1055.895	744.339
8.673	3.563	1054.440	742.113
9.688	3.594	1053.406	741.465
10.702	3.954	1051.641	741.885
11.717	8.939	1058.076	770.352
12.731	17.182	1069.743	818.662
13.746	22.071	1076.273	847.232
14.761	23.057	1076.725	852.266
15.775	22.233	1075.097	846.937
16.790	21.559	1073.725	842.536
17.804	21.102	1071.729	838.701
18.819	20.842	1071.079	836.868
19.834	20.809	1071.142	836.686
20.848	20.911	1070.767	836.808
21.863	20.658	1069.727	834.708
22.877	20.569	1069.100	833.719
23.892	20.449	1068.166	832.339
24.907	20.492	1067.296	831.795
25.921	20.341	1066.438	830.328
26.936	20.238	1065.116	828.734
27.950	20.475	1063.204	828.302
28.965	20.463	1062.081	827.298
29.980	20.690	1060.787	827.298
30.994	20.716	1060.467	827.098
32.009	20.771	1059.210	826.305
33.023	20.736	1058.250	825.316
34.038	20.664	1056.835	823.799
35.053	20.315	1056.150	821.541
36.067	20.425	1054.980	821.080
37.082	20.453	1054.660	820.891
38.096	20.591	1053.950	820.915
39.111	20.651	1053.062	820.434
40.126	20.393	1051.579	817.992
41.140	20.124	1050.062	815.473
42.155	19.887	1048.745	813.265
43.169	19.920	1047.839	812.645
44.184	19.870	1047.270	811.896
45.199	19.889	1046.320	811.177
46.213	20.201	1045.629	812.033
47.228	20.462	1045.219	812.864
48.242	20.757	1043.745	813.025
49.257	20.516	1043.070	811.302
50.271	20.650	1042.479	811.392
51.286	20.755	1041.604	811.129
52.301	20.638	1040.643	809.765
53.315	20.429	1039.990	808.211
54.330	20.294	1038.645	806.471
55.344	20.214	1037.779	805.356
56.359	20.216	1036.800	804.532
57.374	20.181	1035.708	803.454
58.388	20.011	1035.259	802.246
59.403	19.925	1034.181	800.942
60.417	19.837	1033.498	799.932
61.432	19.781	1033.028	799.240
62.447	19.753	1032.095	798.319
63.461	19.650	1031.188	797.070
64.476	19.702	1030.216	796.491
65.490	19.628	1028.987	795.127
66.505	19.608	1029.035	795.003
67.520	19.739	1028.238	794.918
68.534	19.548	1027.233	793.192
69.549	19.625	1026.480	792.898
70.563	19.446	1025.572	791.302
71.578	19.262	1024.753	789.759
72.593	19.183	1023.903	788.672
73.607	19.178	1023.502	788.268
74.622	19.368	1022.730	788.475
75.636	19.442	1021.938	788.132
76.651	19.355	1021.941	787.666
77.666	19.491	1020.687	787.250
78.680	19.499	1019.784	786.524
79.695	19.431	1019.593	785.997
80.709	19.635	1019.324	786.649
81.724	19.808	1018.611	786.814
82.739	19.923	1017.984	786.784
83.753	20.444	1017.291	788.543
84.768	20.827	1017.193	790.135
85.782	21.134	1016.458	790.886
86.797	20.900	1015.545	789.047
87.812	20.650	1014.534	787.061
88.826	20.638	1013.463	786.106
89.841	20.733	1012.421	785.659
90.855	20.952	1011.563	785.907
91.870	20.907	1010.953	785.163
92.884	20.825	1010.257	784.185
93.899	20.860	1009.054	783.336
94.914	20.936	1008.230	782.969
95.928	20.883	1007.176	781.846
96.943	20.605	1006.199	779.773
97.957	20.474	1005.735	778.756
98.972	20.639	1004.513	778.478
99.987	20.724	1003.868	778.289
101.001	20.602	1002.751	776.810
102.016	20.545	1002.145	776.017
103.030	20.739	1001.120	776.022
104.045	20.704	1000.529	775.339
105.060	20.555	999.434	773.759
106.074	20.279	998.169	771.482
107.089	19.938	997.093	769.068
108.103	19.761	995.905	767.297
109.118	19.666	995.115	766.200
110.133	19.623	993.558	764.741
111.147	19.693	992.775	764.383
112.162	19.627	992.511	763.820
113.176	19.938	991.600	764.425
114.191	19.918	991.086	763.872
115.206	19.823	990.238	762.734
116.220	19.691	989.576	761.572
117.235	19.775	988.205	760.822
118.249	19.638	987.380	759.518
119.264	19.495	986.660	758.265
120.279	19.409	986.015	757.325
121.293	19.418	984.843	756.398
122.308	19.339	983.651	755.069
123.322	19.182	982.750	753.627
124.337	19.266	981.593	753.040
125.352	19.263	980.443	752.076
126.366	19.280	979.474	751.339
127.381	19.293	979.328	751.219
128.395	19.326	978.331	750.533
129.410	19.516	977.239	750.451
130.424	19.617	976.641	750.365
131.439	19.814	975.555	750.320
132.454	19.898	975.082	750.252
133.468	19.897	974.329	749.605
134.483	19.942	973.367	748.990
135.497	20.016	972.513	748.588
136.512	19.840	972.251	747.560
137.527	19.939	971.055	747.001
138.541	19.932	970.620	746.573
139.556	20.099	969.770	746.573
140.570	20.298	969.288	746.991
141.585	20.560	968.669	747.575
142.600	20.553	967.874	746.864
143.614	20.716	967.124	746.918
144.629	20.767	966.332	746.460
145.643	20.568	965.174	744.649
146.658	20.396	963.800	742.785
147.673	20.169	962.836	741.006
148.687	19.971	962.017	739.465
149.702	19.946	960.849	738.394
150.716	19.826	960.001	737.168
151.731	20.044	959.540	737.675
152.746	20.001	958.752	736.824
153.760	20.035	958.453	736.671
154.775	20.353	957.370	737.127
155.789	20.431	957.069	737.158
156.804	20.206	956.271	735.523
157.819	20.466	955.731	736.147
158.833	20.583	955.216	736.182
159.848	20.720	954.302	735.988
160.862	20.628	952.890	734.446
161.877	20.095	951.519	731.079
162.892	19.877	950.369	729.211
163.906	19.779	949.252	727.877
164.921	19.819	948.286	727.238
165.935	19.998	947.426	727.268
166.950	20.170	946.743	727.402
167.964	20.011	946.217	726.268
168.979	19.975	945.085	725.181
169.994	19.947	943.835	724.043
171.008	20.016	943.667	724.139
172.023	20.519	942.910	725.592
173.037	20.531	942.952	725.613
174.052	20.369	941.593	723.827
175.067	19.988	940.302	721.184
176.081	19.641	939.593	719.129
177.096	19.748	939.157	719.179
178.110	19.950	938.612	719.538
179.125	19.851	938.146	718.705
180.140	20.141	938.115	719.821
181.154	20.349	937.716	720.316
182.169	20.514	937.604	720.850
183.183	20.423	937.004	719.948
184.198	20.376	936.125	719.014
185.213	20.427	934.879	718.203
186.227	20.580	934.503	718.485
187.242	20.694	934.393	718.805
188.256	20.864	933.469	718.734
189.271	20.795	932.680	717.780
190.286	20.283	931.892	714.999
191.300	19.798	930.391	711.788
192.315	19.641	929.808	710.635
193.329	19.682	929.419	710.444
194.344	19.826	928.860	710.543
195.359	20.114	928.039	711.037
196.373	20.225	927.545	711.047
197.388	20.432	927.757	711.999
198.402	20.724	927.439	712.888
199.417	20.957	926.930	713.388
200.432	21.063	926.490	713.419
201.446	21.097	926.183	713.256
202.461	21.219	925.055	712.821
203.475	21.015	924.470	711.478
204.490	20.666	923.717	709.411
205.504	20.548	922.558	707.977
206.519	20.552	921.735	707.299
207.534	20.453	920.943	706.228
208.548	20.543	920.450	706.154
209.563	20.583	919.774	705.733
210.577	20.682	919.553	705.904
211.592	21.110	918.571	706.822
212.607	21.122	918.045	706.402
213.621	20.948	917.020	704.849
214.636	20.822	916.764	704.081
215.650	20.819	916.018	703.434
216.665	20.957	915.588	703.597
217.680	21.212	915.091	704.182
218.694	21.020	914.264	702.710
219.709	20.986	913.747	702.113
220.723	20.891	912.698	700.861
221.738	20.753	912.272	699.919
222.753	20.824	911.674	699.683
223.767	20.990	911.019	699.783
224.782	21.155	910.808	700.224
225.796	21.104	910.564	699.766
226.811	21.094	909.094	698.539
227.826	20.843	908.261	696.830
228.840	20.632	907.909	695.657
229.855	20.652	907.252	695.172
230.869	20.636	906.241	694.270
231.884	20.685	905.455	693.803
232.899	20.581	904.406	692.521
233.913	20.438	903.500	691.200
234.928	20.258	903.228	690.215
235.942	20.214	902.802	689.653
236.957	20.369	901.973	689.571
237.972	20.263	901.747	688.919
238.986	20.330	900.993	688.546
240.001	20.280	900.533	687.938
241.015	20.329	899.833	687.537
242.030	20.610	899.514	688.342
243.045	20.675	899.037	688.174
244.059	20.633	898.402	687.460
245.074	20.768	898.008	687.631
246.088	20.976	897.099	687.696
247.103	21.102	896.823	687.920
248.117	21.436	896.322	688.792
249.132	21.788	896.566	690.304
250.147	21.919	896.112	690.409
251.161	21.986	895.503	690.143
252.176	21.925	895.214	689.620
253.190	22.135	894.437	689.781
254.205	21.984	893.925	688.735
255.220	21.930	893.199	687.903
256.234	21.992	892.258	687.361
257.249	21.933	891.758	686.684
258.263	21.877	890.688	685.580
259.278	21.833	890.197	684.968
260.293	21.888	890.114	685.060
261.307	22.058	889.771	685.399
262.322	22.099	888.938	684.854
263.336	22.066	888.247	684.134
264.351	22.132	887.481	683.739
265.366	22.128	887.015	683.305
266.380	22.099	886.203	682.507
267.395	21.938	885.368	681.177
268.409	21.745	884.655	679.819
269.424	21.834	884.066	679.652
270.439	21.811	883.049	678.721
271.453	21.509	882.442	677.029
272.468	21.484	881.744	676.335
273.482	21.591	881.113	676.205
274.497	21.553	880.808	675.762
275.512	21.594	880.151	675.358
276.526	21.665	879.746	675.260
277.541	21.656	879.656	675.098
278.555	22.087	878.768	676.016
279.570	22.200	878.363	676.080
280.585	22.093	877.515	674.954
281.599	21.741	876.405	672.691
282.614	21.659	875.712	671.785
283.628	21.617	875.207	671.179
284.643	21.668	874.417	670.706
285.657	21.542	874.043	669.878
286.672	21.611	873.573	669.722
287.687	21.717	872.618	669.336
288.701	21.703	872.335	669.007
289.716	21.636	871.583	668.116
290.730	21.895	870.933	668.546
291.745	21.930	870.741	668.472
292.760	21.950	870.306	668.155
293.774	22.240	869.614	668.668
294.789	21.934	869.091	667.042
295.803	21.866	867.832	665.761
296.818	21.737	867.040	664.605
297.833	21.672	866.778	664.100
298.847	21.736	866.263	663.886
299.862	21.914	865.534	663.944
300.876	22.063	865.606	664.504
301.891	22.192	864.990	664.462
302.906	22.294	864.530	664.433
303.920	22.611	863.825	665.030
304.935	22.711	863.462	665.066
305.949	22.527	862.427	663.518
306.964	22.195	862.010	661.888
307.979	22.270	861.402	661.646
308.993	22.449	861.001	661.953
310.008	22.269	860.644	660.944
311.022	22.153	859.774	659.780
312.037	22.022	858.891	658.553
313.052	21.829	858.050	657.128
314.066	21.613	856.913	655.390
315.081	21.546	856.881	655.056
316.095	21.470	856.626	654.521
317.110	21.553	855.964	654.265
318.125	21.617	855.139	653.817
319.139	21.686	854.482	653.513
320.154	21.500	854.315	652.633
321.168	21.680	853.765	652.826
322.183	21.745	853.405	652.736
323.197	21.725	852.982	652.280
324.212	21.739	852.258	651.720
325.227	21.735	851.497	651.067
326.241	21.598	850.823	649.986
327.256	21.662	850.562	649.967
328.270	21.717	849.307	649.152
329.285	21.613	849.115	648.563
330.300	21.477	848.545	647.568
331.314	21.722	847.823	647.864
332.329	21.947	848.312	649.012
333.343	21.995	848.001	648.897
334.358	21.932	847.574	648.278
335.373	22.078	847.162	648.444
336.387	22.289	846.421	648.598
337.402	22.391	846.229	648.769
338.416	22.516	845.793	648.838
339.431	22.917	845.674	650.167
340.446	22.811	845.307	649.436
341.460	22.710	845.463	649.128
342.475	22.927	844.919	649.449
343.489	22.762	844.940	648.802
344.504	23.056	844.553	649.526
345.519	23.192	843.730	649.338
346.533	22.977	843.049	647.967
347.548	22.703	841.866	645.995
348.562	22.359	841.405	644.325
349.577	22.221	840.549	643.109
350.592	21.986	839.835	641.649
351.606	22.062	838.718	641.015
352.621	22.111	838.388	640.885
353.635	22.330	837.925	641.272
354.650	22.241	837.523	640.584
355.665	22.363	836.677	640.325
356.679	22.599	836.081	640.668
357.694	22.475	835.402	639.643
358.708	22.485	835.049	639.351
359.723	22.470	834.184	638.578
360.738	22.499	833.546	638.137
361.752	22.506	833.401	637.995
362.767	22.864	832.960	638.898
363.781	23.070	832.672	639.366
364.796	23.116	832.149	639.074
365.810	23.512	831.754	640.143
366.825	23.351	831.358	639.200
367.840	23.298	831.049	638.716
368.854	23.052	830.166	637.093
369.869	23.030	829.483	636.433
370.883	22.982	829.110	635.918
371.898	23.154	829.198	636.550
372.913	23.337	828.534	636.640
373.927	23.062	827.665	634.930
374.942	23.100	827.566	634.933
375.956	23.220	827.346	635.138
376.971	23.401	826.917	635.402
377.986	23.467	826.544	635.294
379.000	23.541	825.763	634.903
380.015	23.320	825.521	633.871
381.029	23.296	824.478	632.930
382.044	23.458	823.818	632.943
383.059	23.377	823.681	632.493
384.073	23.189	822.798	631.092
385.088	22.953	821.808	629.433
386.102	22.768	821.271	628.307
387.117	22.948	820.149	628.034
388.132	22.753	820.045	627.206
389.146	22.775	819.765	627.014
390.161	23.226	819.708	628.517
391.175	23.395	818.705	628.293
392.190	23.086	818.399	626.908
393.205	22.906	817.508	625.531
394.219	22.789	817.211	624.834
395.234	22.707	816.582	624.009
396.248	22.666	815.935	623.314
397.263	22.588	815.368	622.551
398.278	22.579	815.201	622.336
399.292	22.507	814.620	621.584
400.307	22.412	814.078	620.777
401.321	22.514	814.020	621.039
402.336	22.645	813.492	621.042
403.350	22.811	813.397	621.499
404.365	23.123	813.176	622.375
405.380	23.318	812.831	622.741
406.394	23.604	812.398	623.359
407.409	23.621	812.005	623.062
408.423	23.697	811.591	622.957
409.438	23.612	811.588	622.601
410.453	23.924	810.870	623.087
411.467	23.569	810.451	621.468
412.482	23.883	810.153	622.283
413.496	23.940	809.902	622.235
414.511	23.886	809.476	621.661
415.526	23.713	808.810	620.492
416.540	23.607	808.097	619.521
417.555	23.670	807.653	619.344
418.569	23.605	807.325	618.810
419.584	23.639	806.775	618.454
420.599	23.651	806.436	618.182
421.613	163.610	1372.254	1797.288
422.628	142.334	1454.681	1797.400
