DTS Sentinel unit serial number:	SN413079Multiplexer serial number:	ORYXHardware model number:	OX4-SRSoftware version number:	ORYX F/W v4.00 Oryx Data Collector v3.7.2.0data status	okinstallation	princeton_trtdifferential loss correction	single-endedforward channel	channel 1reverse channel	N/Adate	2019/09/11time	09:16:11forward acquisition time	60.00reverse acquisition time	0.00gamma	496.2192k internal	0.2308k external	0.2308temperature offset calibration	0.9948default loss term (dB/km)	0.3790temperature slope calibration	1.0000multiplexer offset coefficient	1.0000multiplexer slope coefficient	1.0000fibre end	0.00T internal ref (°C)	34.37T ext. ref 1 (°C)	0.09T ext. ref 2 (°C)	30.94length (m)	temperature (°C)	Stokes	anti-Stokes-747.200	170.429	0.043	0.063
-746.185	800.000	0.078	0.290
-745.171	-33.553	0.267	0.150
-744.156	123.484	-0.044	0.057
-743.142	-200.000	0.021	-0.177
-742.127	466.523	-0.106	0.242
-741.112	800.000	0.018	-0.051
-740.098	6.313	0.144	0.109
-739.083	-12.398	-0.092	0.061
-738.069	35.055	-0.154	0.137
-737.054	-106.888	-0.049	-0.011
-736.039	-200.000	-0.064	-0.446
-735.025	40.976	0.171	0.157
-734.010	-32.348	-0.225	-0.128
-732.996	-37.672	-0.417	-0.225
-731.981	-87.182	-0.517	-0.160
-730.966	-200.000	0.197	-0.000
-729.952	169.623	-0.110	0.159
-728.937	-125.247	-0.143	-0.022
-727.923	211.324	0.225	0.359
-726.908	212.025	-0.021	-0.033
-725.894	-200.000	-0.047	0.346
-724.879	-75.883	0.126	-0.045
-723.864	-16.787	-0.186	0.119
-722.850	144.728	0.167	0.227
-721.835	-116.873	-0.105	0.020
-720.821	-67.751	0.179	0.071
-719.806	18.234	-0.068	0.055
-718.791	800.000	0.045	0.154
-717.777	-75.986	0.056	-0.020
-716.762	221.386	0.133	0.217
-715.748	-58.293	0.145	-0.064
-714.733	-41.737	-0.034	0.018
-713.718	708.135	0.052	-0.141
-712.704	142.560	-0.264	-0.357
-711.689	-26.710	-0.169	-0.101
-710.675	340.290	0.183	0.363
-709.660	-200.000	-0.091	0.453
-708.645	-14.551	-0.209	-0.136
-707.631	601.467	-0.060	-0.152
-706.616	-120.252	-0.323	-0.056
-705.602	114.446	-0.256	0.317
-704.587	-26.293	-0.415	0.247
-703.572	514.118	-0.218	0.517
-702.558	-105.236	-0.235	-0.054
-701.543	252.138	0.028	-0.049
-700.529	-40.051	-0.083	0.044
-699.514	449.914	0.105	-0.236
-698.499	-38.344	-0.036	-0.019
-697.485	-80.009	-0.331	-0.113
-696.470	-200.000	0.052	-0.276
-695.456	-113.539	0.125	0.025
-694.441	159.613	0.145	0.205
-693.426	155.880	-0.071	-0.100
-692.412	800.000	0.021	-0.084
-691.397	-63.588	0.117	0.049
-690.383	-200.000	-0.033	0.163
-689.368	800.000	-0.062	0.187
-688.354	55.658	-0.117	-0.115
-687.339	-200.000	0.032	0.150
-686.324	73.466	0.064	0.068
-685.310	225.342	-0.157	-0.257
-684.295	800.000	0.112	-0.393
-683.281	385.968	-0.026	-0.055
-682.266	-171.206	-0.357	0.012
-681.251	-54.530	-0.237	-0.109
-680.237	-138.420	0.318	0.036
-679.222	78.951	0.148	-0.160
-678.208	176.714	0.093	-0.137
-677.193	800.000	0.035	0.152
-676.178	29.397	-0.237	0.204
-675.164	-111.161	-0.162	-0.034
-674.149	800.000	-0.036	0.139
-673.135	-200.000	-0.008	-0.234
-672.120	-77.836	0.255	0.089
-671.105	-42.995	0.082	0.042
-670.091	-128.864	0.099	0.014
-669.076	-26.573	0.277	-0.165
-668.062	7.790	0.301	-0.228
-667.047	702.308	-0.062	-0.167
-666.032	-80.515	-0.122	-0.041
-665.018	117.535	-0.112	-0.140
-664.003	-165.603	-0.267	0.012
-662.989	58.537	0.195	-0.194
-661.974	137.937	0.086	-0.115
-660.959	-200.000	0.000	-0.169
-659.945	14.284	-0.281	0.222
-658.930	-200.000	0.008	0.073
-657.916	800.000	0.011	-0.040
-656.901	800.000	-0.066	-0.288
-655.886	-200.000	0.035	-0.226
-654.872	153.017	0.132	-0.183
-653.857	-51.336	-0.147	-0.070
-652.843	17.553	0.204	-0.164
-651.828	-16.685	-0.233	-0.149
-650.814	-48.767	-0.121	-0.059
-649.799	281.809	0.091	-0.166
-648.784	-200.000	0.010	-0.258
-647.770	-85.205	-0.379	0.120
-646.755	-200.000	-0.028	-0.431
-645.741	277.832	-0.053	0.095
-644.726	-200.000	0.033	-0.297
-643.711	42.244	-0.194	-0.179
-642.697	33.974	0.135	-0.119
-641.682	-119.940	0.042	0.007
-640.668	-6.589	0.128	0.089
-639.653	230.417	-0.080	-0.132
-638.638	-139.933	0.367	0.039
-637.624	48.809	-0.081	0.077
-636.609	-73.880	0.270	-0.099
-635.595	707.819	-0.017	-0.045
-634.580	-159.808	-0.381	-0.021
-633.565	141.012	-0.124	-0.166
-632.551	59.111	-0.089	-0.088
-631.536	-146.253	-0.142	-0.013
-630.522	-6.034	-0.162	0.112
-629.507	-13.539	0.195	0.128
-628.492	-163.797	-0.306	-0.015
-627.478	260.518	0.095	0.167
-626.463	-200.000	0.029	-0.299
-625.449	1.037	-0.045	-0.033
-624.434	800.000	0.018	0.063
-623.419	-26.959	-0.293	0.173
-622.405	-7.525	0.131	0.090
-621.390	36.598	0.086	0.077
-620.376	-77.652	-0.205	0.072
-619.361	-200.000	0.009	0.211
-618.346	-200.000	0.017	-0.353
-617.332	-200.000	-0.025	-0.217
-616.317	-16.528	0.145	-0.093
-615.303	35.448	-0.228	-0.203
-614.288	-78.527	0.086	-0.030
-613.273	-200.000	-0.042	-0.364
-612.259	-86.908	0.306	-0.094
-611.244	-82.576	-0.180	-0.059
-610.230	138.975	-0.202	-0.268
-609.215	52.281	-0.086	-0.083
-608.201	89.501	-0.036	0.041
-607.186	31.982	0.081	-0.071
-606.171	-38.928	0.260	0.138
-605.157	586.164	-0.033	0.081
-604.142	-68.490	-0.055	0.022
-603.128	10.641	0.027	0.021
-602.113	645.233	-0.066	-0.171
-601.098	44.934	0.125	-0.117
-600.084	800.000	0.071	0.291
-599.069	191.379	-0.141	0.215
-598.055	574.022	0.083	-0.205
-597.040	-18.047	-0.106	-0.067
-596.025	800.000	-0.123	0.464
-595.011	-200.000	0.041	0.183
-593.996	768.053	0.034	-0.093
-592.982	-55.926	0.078	-0.035
-591.967	-24.046	-0.150	-0.091
-590.952	24.251	0.111	0.092
-589.938	-37.323	0.334	-0.181
-588.923	-200.000	0.074	-0.336
-587.909	210.966	-0.103	0.163
-586.894	800.000	0.044	-0.162
-585.879	-200.000	0.004	-0.188
-584.865	197.857	-0.043	0.067
-583.850	-163.776	-0.183	0.009
-582.836	-200.000	-0.012	-0.086
-581.821	-65.052	0.161	-0.065
-580.806	-116.379	-0.052	0.010
-579.792	118.399	0.119	-0.148
-578.777	800.000	0.040	0.168
-577.763	-36.468	0.183	-0.099
-576.748	-124.548	0.159	0.025
-575.733	128.932	-0.055	-0.071
-574.719	326.576	0.158	-0.305
-573.704	-54.479	-0.165	-0.076
-572.690	86.026	0.033	-0.036
-571.675	-181.425	0.265	0.005
-570.661	-26.564	-0.214	-0.127
-569.646	-200.000	0.034	-0.218
-568.631	-200.000	-0.036	0.210
-567.617	2.802	-0.214	0.157
-566.602	799.184	0.051	-0.142
-565.588	24.383	-0.070	0.058
-564.573	-200.000	-0.027	0.219
-563.558	171.809	0.246	0.357
-562.544	-200.000	0.024	0.150
-561.529	-20.364	-0.170	0.105
-560.515	-47.415	-0.262	0.129
-559.500	-200.000	-0.009	-0.123
-558.485	-26.866	0.124	0.073
-557.471	-200.000	0.021	0.107
-556.456	-69.508	-0.184	-0.071
-555.442	-200.000	-0.006	0.298
-554.427	-200.000	-0.052	0.327
-553.412	-39.467	-0.197	0.104
-552.398	213.453	0.098	-0.156
-551.383	-200.000	0.029	0.153
-550.369	-200.000	-0.011	0.139
-549.354	486.355	0.061	0.140
-548.339	3.968	0.212	-0.156
-547.325	-22.521	-0.081	0.050
-546.310	800.000	0.030	-0.088
-545.296	-200.000	-0.009	-0.074
-544.281	351.800	0.099	0.197
-543.266	-8.257	-0.116	0.079
-542.252	453.257	0.012	-0.026
-541.237	-79.601	0.130	-0.044
-540.223	-3.175	0.036	0.025
-539.208	-97.354	-0.229	0.060
-538.193	178.951	-0.167	-0.247
-537.179	-130.692	-0.086	0.012
-536.164	-34.346	-0.225	0.124
-535.150	23.024	0.137	0.113
-534.135	-57.062	-0.160	-0.071
-533.121	65.476	0.160	-0.163
-532.106	800.000	0.028	-0.112
-531.091	-200.000	-0.011	-0.095
-530.077	-131.057	0.207	-0.028
-529.062	-200.000	-0.017	0.309
-528.048	-200.000	0.059	0.517
-527.033	-64.524	-0.150	0.062
-526.018	-200.000	-0.005	0.090
-525.004	-158.768	0.210	-0.012
-523.989	363.001	-0.244	-0.495
-522.975	800.000	-0.094	-0.338
-521.960	-11.475	-0.334	0.221
-520.945	101.076	0.016	0.019
-519.931	-92.598	0.225	0.064
-518.916	154.342	-0.143	0.198
-517.902	-200.000	-0.048	0.254
-516.887	-200.000	-0.015	0.487
-515.872	-200.000	-0.039	0.241
-514.858	-113.347	-0.335	-0.066
-513.843	800.000	-0.085	-0.257
-512.829	-45.881	0.308	-0.153
-511.814	174.616	-0.053	0.077
-510.799	599.175	0.055	-0.137
-509.785	-200.000	0.015	-0.324
-508.770	10.027	-0.100	0.077
-507.756	-200.000	-0.019	-0.147
-506.741	389.081	-0.056	-0.117
-505.726	800.000	-0.135	-0.427
-504.712	101.861	-0.064	-0.075
-503.697	800.000	0.129	0.383
-502.683	-200.000	-0.019	-0.116
-501.668	-140.459	0.217	-0.023
-500.653	-200.000	-0.036	0.244
-499.639	17.834	0.183	-0.147
-498.624	-24.059	-0.124	-0.074
-497.610	-200.000	0.005	0.165
-496.595	169.746	0.064	0.092
-495.581	-200.000	0.055	0.295
-494.566	87.767	-0.257	-0.287
-493.551	72.538	-0.172	0.180
-492.537	-166.880	0.278	0.011
-491.522	-200.000	-0.022	0.290
-490.508	7.217	-0.267	0.200
-489.493	283.467	0.110	-0.199
-488.478	-68.368	0.153	-0.060
-487.464	-71.882	0.279	0.105
-486.449	-115.040	-0.307	0.059
-485.435	121.518	0.136	0.171
-484.420	-10.464	0.224	0.149
-483.405	-142.310	0.360	-0.036
-482.391	-91.382	0.390	0.112
-481.376	203.446	0.154	-0.240
-480.362	-134.258	-0.088	0.011
-479.347	-43.632	-0.219	0.111
-478.332	191.810	-0.125	-0.189
-477.318	-200.000	-0.004	-0.050
-476.303	-128.227	0.374	-0.054
-475.289	176.152	-0.064	-0.094
-474.274	-5.534	-0.313	0.216
-473.259	-18.498	0.165	-0.103
-472.245	-123.312	-0.057	-0.009
-471.230	800.000	0.074	0.230
-470.216	-157.609	0.260	0.016
-469.201	260.137	-0.081	-0.140
-468.186	44.216	-0.107	0.099
-467.172	-200.000	0.060	0.460
-466.157	585.402	0.113	-0.279
-465.143	98.781	-0.131	0.152
-464.128	-107.234	0.102	-0.023
-463.113	19.096	-0.264	-0.213
-462.099	167.307	0.018	0.025
-461.084	-96.973	0.163	-0.043
-460.070	-159.351	-0.531	0.030
-459.055	-200.000	-0.005	0.088
-458.040	-66.280	-0.137	-0.055
-457.026	-30.793	0.142	-0.080
-456.011	-59.286	0.416	0.180
-454.997	-69.792	-0.188	0.072
-453.982	52.514	-0.273	-0.262
-452.968	143.261	-0.075	-0.100
-451.953	-88.029	0.183	-0.055
-450.938	-29.118	-0.206	0.119
-449.924	219.199	-0.078	0.125
-448.909	109.404	-0.087	0.105
-447.895	-73.711	0.236	-0.086
-446.880	16.567	-0.224	-0.178
-445.865	-200.000	-0.018	0.231
-444.851	784.134	-0.055	-0.152
-443.836	37.177	-0.231	0.206
-442.822	-200.000	0.014	-0.080
-441.807	-93.509	-0.156	-0.043
-440.792	-200.000	0.024	-0.223
-439.778	2.382	0.079	0.058
-438.763	717.131	-0.071	-0.190
-437.749	-200.000	0.028	-0.166
-436.734	25.867	-0.088	0.074
-435.719	-200.000	0.024	0.506
-434.705	-121.492	-0.211	0.035
-433.690	-3.130	-0.149	0.104
-432.676	-7.284	0.223	0.152
-431.661	115.218	-0.325	0.399
-430.646	-68.582	0.195	-0.076
-429.632	-72.047	0.222	0.083
-428.617	-172.958	-0.268	0.008
-427.603	-23.295	0.015	0.009
-426.588	123.152	0.291	0.366
-425.573	-139.519	0.083	0.009
-424.559	230.542	-0.208	-0.342
-423.544	-153.762	-0.131	-0.009
-422.530	-136.850	-0.148	0.017
-421.515	-143.679	0.258	0.025
-420.500	-200.000	0.019	0.325
-419.486	-52.081	0.169	-0.079
-418.471	80.531	-0.257	0.278
-417.457	90.784	-0.141	-0.159
-416.442	171.498	-0.203	-0.293
-415.428	800.000	0.106	-0.359
-414.413	-200.000	0.051	0.235
-413.398	-102.528	0.173	-0.042
-412.384	-200.000	-0.031	-0.158
-411.369	219.293	-0.087	0.140
-410.355	-52.055	0.280	-0.131
-409.340	-200.000	0.005	-0.296
-408.325	149.792	0.200	0.272
-407.311	-9.789	0.254	-0.169
-406.296	-128.513	0.260	0.037
-405.282	800.000	0.059	0.244
-404.267	-135.230	0.244	-0.029
-403.252	800.000	0.092	-0.294
-402.238	101.142	-0.144	0.168
-401.223	-99.904	0.143	0.036
-400.209	496.900	-0.093	-0.215
-399.194	75.050	-0.237	-0.251
-398.179	-34.686	0.118	0.065
-397.165	221.396	-0.124	-0.200
-396.150	-1.806	0.098	-0.069
-395.136	96.054	0.196	-0.225
-394.121	53.648	-0.224	-0.216
-393.106	3.809	-0.082	0.060
-392.092	552.640	0.031	0.076
-391.077	-83.034	0.262	-0.085
-390.063	-158.907	0.245	0.014
-389.048	144.167	-0.100	0.133
-388.033	80.698	-0.225	-0.244
-387.019	-200.000	0.016	-0.097
-386.004	42.114	0.111	-0.101
-384.990	53.908	-0.195	-0.188
-383.975	-3.510	-0.164	-0.115
-382.960	800.000	-0.084	0.285
-381.946	-200.000	-0.092	0.427
-380.931	24.976	0.248	0.206
-379.917	53.665	0.122	0.117
-378.902	105.369	0.019	-0.023
-377.888	-156.307	-0.276	-0.017
-376.873	-11.062	0.340	-0.225
-375.858	570.502	-0.087	-0.211
-374.844	-80.811	0.279	-0.093
-373.829	153.497	-0.102	0.141
-372.815	-20.231	0.120	0.074
-371.800	101.325	0.076	-0.089
-370.785	-103.581	-0.198	0.047
-369.771	-27.985	-0.197	-0.114
-368.756	-59.494	0.132	-0.057
-367.742	-147.521	-0.102	0.009
-366.727	800.000	0.047	0.171
-365.712	-7.179	0.238	0.162
-364.698	-139.945	0.160	-0.017
-363.683	-200.000	0.015	0.084
-362.669	272.941	-0.196	-0.347
-361.654	150.421	-0.199	-0.271
-360.639	51.843	-0.166	-0.158
-359.625	-66.194	-0.216	-0.086
-358.610	-127.208	-0.149	-0.022
-357.596	-200.000	-0.021	0.219
-356.581	174.695	-0.104	0.150
-355.566	-12.039	0.285	0.187
-354.552	-125.716	-0.297	-0.045
-353.537	-119.540	0.436	0.076
-352.523	-106.935	-0.452	0.100
-351.508	474.122	0.016	-0.035
-350.493	-200.000	-0.019	0.154
-349.479	-107.745	-0.541	0.118
-348.464	-52.284	-0.171	0.079
-347.450	12.179	-0.191	0.147
-346.435	347.143	-0.113	-0.223
-345.420	-90.570	0.147	0.042
-344.406	111.849	0.126	0.152
-343.391	484.493	0.144	0.328
-342.377	258.744	-0.078	0.134
-341.362	169.619	0.052	0.075
-340.348	-66.400	-0.112	0.045
-339.333	-200.000	-0.033	0.154
-338.318	-78.410	-0.253	-0.087
-337.304	-200.000	-0.041	-0.293
-336.289	-23.581	0.142	-0.085
-335.275	-200.000	-0.000	0.221
-334.260	51.578	0.080	0.076
-333.245	-190.471	-0.207	0.002
-332.231	-160.248	-0.155	0.008
-331.216	85.859	-0.253	-0.278
-330.202	-158.898	0.237	-0.013
-329.187	-15.375	0.114	-0.073
-328.172	-200.000	0.012	0.154
-327.158	-200.000	-0.010	0.055
-326.143	-162.128	-0.251	-0.013
-325.129	-82.426	-0.089	0.029
-324.114	96.109	-0.048	-0.055
-323.099	-36.996	-0.396	-0.212
-322.085	409.047	-0.071	0.151
-321.070	-122.800	0.061	0.010
-320.056	103.844	-0.229	-0.269
-319.041	-200.000	0.024	-0.123
-318.026	313.473	-0.032	0.060
-317.012	-148.932	-0.460	-0.037
-315.997	799.621	-0.078	-0.214
-314.983	-168.237	-0.066	0.003
-313.968	110.179	-0.176	-0.212
-312.953	127.740	0.125	-0.159
-311.939	800.000	0.078	0.248
-310.924	2.176	-0.378	0.273
-309.910	249.198	0.166	-0.281
-308.895	292.743	0.193	-0.352
-307.880	630.510	-0.005	0.013
-306.866	800.000	0.095	-0.378
-305.851	-200.000	-0.031	-0.311
-304.837	-200.000	0.007	-0.120
-303.822	232.100	-0.058	-0.094
-302.807	-77.285	0.245	0.085
-301.793	-91.518	0.045	0.013
-300.778	40.125	0.024	0.021
-299.764	-74.707	-0.155	0.056
-298.749	800.000	0.101	-0.290
-297.735	-27.986	0.135	0.078
-296.720	-200.000	0.022	0.282
-295.705	-200.000	0.003	0.195
-294.691	-167.111	-0.183	0.007
-293.676	75.368	0.157	-0.166
-292.662	646.773	0.192	0.491
-291.647	253.377	-0.128	-0.219
-290.632	39.264	0.279	0.249
-289.618	408.808	0.126	0.267
-288.603	800.000	0.135	-0.399
-287.589	2.808	0.103	-0.075
-286.574	139.466	-0.068	0.089
-285.559	-83.957	-0.208	-0.066
-284.545	65.236	0.123	0.124
-283.530	294.601	-0.100	0.183
-282.516	473.035	0.124	0.279
-281.501	800.000	0.079	0.343
-280.486	800.000	0.096	-0.319
-279.472	73.675	-0.199	-0.209
-278.457	135.146	-0.197	-0.256
-277.443	-200.000	-0.045	0.336
-276.428	19.934	0.176	0.141
-275.413	-200.000	0.012	0.174
-274.399	-5.849	-0.030	0.021
-273.384	-200.000	-0.015	0.100
-272.370	-53.971	0.265	-0.120
-271.355	-138.460	0.118	0.013
-270.340	800.000	-0.046	0.138
-269.326	-42.255	-0.210	0.107
-268.311	-32.265	-0.099	-0.055
-267.297	-200.000	0.043	0.198
-266.282	226.120	-0.058	-0.095
-265.267	-63.175	-0.233	0.096
-264.253	800.000	0.040	-0.124
-263.238	800.000	0.052	-0.187
-262.224	-188.118	0.045	-0.001
-261.209	-136.289	-0.230	0.027
-260.195	800.000	-0.105	-0.332
-259.180	-123.134	0.598	-0.096
-258.165	-56.662	0.072	-0.032
-257.151	800.000	0.051	-0.206
-256.136	-54.586	0.270	0.122
-255.122	640.526	-0.058	0.147
-254.107	45.545	0.082	-0.075
-253.092	-30.864	0.238	-0.134
-252.078	-200.000	-0.047	0.310
-251.063	-85.140	-0.093	-0.029
-250.049	-67.426	-0.154	0.060
-249.034	572.279	-0.053	0.130
-248.019	135.304	0.078	0.101
-247.005	102.306	-0.187	0.218
-245.990	800.000	-0.089	0.252
-244.976	-200.000	-0.016	0.220
-243.961	-69.562	0.200	0.076
-242.946	163.630	-0.102	-0.143
-241.932	98.870	0.122	-0.140
-240.917	-151.425	0.065	0.005
-239.903	-87.303	0.209	-0.063
-238.888	800.000	-0.038	-0.131
-237.873	-72.837	0.177	0.065
-236.859	87.867	-0.189	0.209
-235.844	-77.830	-0.458	-0.158
-234.830	106.026	-0.120	-0.141
-233.815	-41.357	0.268	0.138
-232.800	-27.594	0.319	0.185
-231.786	-134.286	0.166	0.020
-230.771	-88.874	-0.130	0.038
-229.757	-35.994	-0.223	-0.120
-228.742	800.000	-0.064	0.247
-227.727	-200.000	0.018	-0.266
-226.713	-126.675	0.338	0.050
-225.698	-46.639	-0.143	-0.070
-224.684	-200.000	-0.009	-0.070
-223.669	-3.525	0.237	-0.164
-222.655	800.000	-0.051	0.201
-221.640	-200.000	-0.045	-0.261
-220.625	-200.000	-0.014	-0.226
-219.611	49.669	-0.399	0.375
-218.596	-166.652	0.289	0.012
-217.582	107.702	0.086	-0.102
-216.567	-39.681	-0.183	-0.095
-215.552	389.557	0.108	-0.224
-214.538	-122.046	-0.206	0.034
-213.523	12.692	0.122	0.093
-212.509	-159.603	0.143	0.008
-211.494	-200.000	-0.005	-0.172
-210.479	800.000	0.021	0.081
-209.465	800.000	0.072	-0.243
-208.450	-200.000	-0.002	-0.161
-207.436	112.839	0.124	0.149
-206.421	341.989	-0.113	-0.219
-205.406	800.000	0.064	0.256
-204.392	126.765	0.108	0.137
-203.377	-200.000	0.032	0.146
-202.363	110.317	0.136	0.162
-201.348	-119.123	0.457	-0.079
-200.333	-105.257	0.119	0.027
-199.319	265.487	0.124	-0.215
-198.304	-15.609	-0.126	-0.080
-197.290	-84.535	-0.233	0.073
-196.275	-29.011	0.216	0.123
-195.260	185.418	0.076	-0.112
-194.246	340.822	-0.059	0.115
-193.231	-200.000	-0.045	0.338
-192.217	-55.699	-0.105	0.047
-191.202	-200.000	-0.005	0.139
-190.187	-35.306	-0.178	-0.096
-189.173	-200.000	-0.008	-0.303
-188.158	66.431	0.246	-0.248
-187.144	-200.000	0.483	-0.002
-186.129	-55.011	0.308	0.138
-185.114	-52.361	0.162	0.074
-184.100	-7.731	-0.207	0.139
-183.085	-112.154	0.126	0.025
-182.071	-78.243	0.390	0.133
-181.056	251.439	-0.103	-0.175
-180.042	-200.000	-0.046	0.279
-179.027	-200.000	-0.006	0.194
-178.012	316.706	0.218	0.409
-176.998	-200.000	0.080	-0.485
-175.983	-200.000	0.029	-0.161
-174.969	211.023	-0.062	-0.097
-173.954	800.000	0.113	-0.383
-172.939	-7.243	0.197	0.133
-171.925	-80.560	0.243	-0.081
-170.910	-200.000	-0.004	0.277
-169.896	-142.108	0.416	-0.041
-168.881	-69.620	-0.197	-0.075
-167.866	-200.000	0.005	-0.236
-166.852	66.604	0.080	0.081
-165.837	-85.776	-0.329	0.101
-164.823	800.000	0.116	-0.363
-163.808	-96.166	-0.269	-0.071
-162.793	-32.602	-0.155	-0.086
-161.779	-121.340	-0.472	-0.078
-160.764	-200.000	0.055	0.357
-159.750	-64.626	-0.141	-0.057
-158.735	800.000	-0.077	0.253
-157.720	20.952	0.121	-0.098
-156.706	-171.296	0.072	0.002
-155.691	-25.555	0.248	0.146
-154.677	-128.853	0.156	-0.022
-153.662	90.106	0.102	0.113
-152.647	-6.229	-0.057	0.038
-151.633	-77.469	0.057	0.020
-150.618	-200.000	-0.047	0.255
-149.604	800.000	0.049	-0.137
-148.589	-53.249	0.119	0.054
-147.574	-106.593	0.079	0.018
-146.560	-136.956	0.363	0.041
-145.545	-82.802	0.235	0.075
-144.531	-147.348	-0.275	-0.023
-143.516	-142.412	0.470	0.046
-142.502	186.842	-0.146	-0.217
-141.487	2.771	0.082	0.059
-140.472	196.553	-0.221	-0.335
-139.458	-46.986	-0.116	-0.056
-138.443	-85.577	0.172	-0.053
-137.429	237.050	-0.073	0.120
-136.414	240.728	0.126	0.209
-135.399	175.031	-0.028	-0.041
-134.385	744.314	-0.058	0.155
-133.370	-200.000	-0.005	-0.046
-132.356	137.413	0.086	-0.112
-131.341	442.358	-0.041	0.089
-130.326	-111.412	0.242	0.049
-129.312	-200.000	0.048	0.306
-128.297	-200.000	-0.074	-0.341
-127.283	12.850	0.207	-0.159
-126.268	-200.000	0.135	-0.001
-125.253	268.117	-0.066	-0.114
-124.239	344.693	-0.113	-0.221
-123.224	-200.000	0.009	0.224
-122.210	-53.124	0.204	-0.093
-121.195	-44.762	-0.184	0.091
-120.180	-200.000	-0.037	0.616
-119.166	800.000	0.036	0.149
-118.151	-102.353	-0.294	-0.070
-117.137	307.939	-0.048	0.088
-116.122	-110.034	-0.292	0.060
-115.107	-200.000	-0.007	0.273
-114.093	800.000	0.026	-0.076
-113.078	250.888	0.096	-0.162
-112.064	-200.000	-0.016	0.070
-111.049	83.899	0.147	0.159
-110.034	-119.160	0.138	0.024
-109.020	-157.301	-0.148	-0.009
-108.005	-200.000	0.015	0.314
-106.991	36.474	-0.112	0.098
-105.976	-200.000	0.007	-0.208
-104.962	-115.323	-0.281	0.053
-103.947	-200.000	0.020	-0.246
-102.932	-15.870	0.120	-0.076
-101.918	-200.000	-0.082	-0.382
-100.903	108.044	0.161	0.190
-99.889	-200.000	0.043	-0.215
-98.874	-200.000	-0.012	-0.326
-97.859	288.244	-0.124	-0.223
-96.845	75.444	0.074	-0.077
-95.830	227.138	-0.157	-0.253
-94.816	-109.493	-0.093	0.020
-93.801	44.369	-0.144	0.131
-92.786	-68.017	0.196	0.076
-91.772	-5.154	0.268	0.183
-90.757	-138.940	-0.160	-0.017
-89.743	-96.892	-0.234	0.061
-88.728	120.655	0.157	0.193
-87.713	94.735	-0.288	0.324
-86.699	-135.877	-0.124	-0.015
-85.684	629.299	0.039	0.097
-84.670	-3.427	0.195	0.135
-83.655	-174.157	-0.257	-0.007
-82.640	468.404	0.119	0.265
-81.626	132.468	-0.163	-0.208
-80.611	-200.000	-0.011	0.110
-79.597	-122.462	-0.069	-0.011
-78.582	-135.192	0.083	-0.010
-77.567	99.580	0.215	0.247
-76.553	-72.810	-0.178	-0.065
-75.538	800.000	-0.074	0.291
-74.524	-200.000	-0.029	0.285
-73.509	28.303	0.236	0.198
-72.494	-99.995	-0.440	-0.109
-71.480	-16.849	-0.170	0.106
-70.465	-21.944	0.584	-0.351
-69.451	-200.000	0.052	0.235
-68.436	34.522	-0.100	-0.087
-67.422	-200.000	-0.012	-0.336
-66.407	412.731	0.182	-0.382
-65.392	-160.742	0.028	-0.001
-64.378	-182.026	-0.418	-0.008
-63.363	24.903	-0.147	-0.121
-62.349	134.913	-0.194	-0.250
-61.334	118.695	-0.804	-0.983
-60.319	13.821	0.083	0.064
-59.305	800.000	0.204	-0.804
-58.290	137.326	0.566	0.733
-57.276	602.362	0.551	1.354
-56.261	-200.000	95.872	538.742
-55.246	581.820	1384.844	3360.171
-54.232	184.048	2622.171	3839.773
-53.217	117.809	2202.401	2683.258
-52.203	46.094	1649.288	1510.839
-51.188	38.000	1382.366	1216.094
-50.173	34.616	1339.265	1157.655
-49.159	54.893	1389.264	1326.663
-48.144	58.989	1406.921	1368.774
-47.130	38.079	1361.154	1197.732
-46.115	34.484	1343.328	1160.179
-45.100	34.417	1338.206	1155.304
-44.086	34.305	1335.793	1152.497
-43.071	34.279	1333.626	1150.422
-42.057	34.196	1331.408	1147.964
-41.042	34.199	1330.282	1146.965
-40.027	34.282	1328.091	1145.530
-39.013	34.315	1326.033	1143.908
-37.998	34.326	1324.238	1142.381
-36.984	34.350	1322.382	1140.876
-35.969	34.446	1319.975	1139.331
-34.954	34.383	1318.939	1138.012
-33.940	34.427	1317.165	1136.702
-32.925	34.363	1316.358	1135.576
-31.911	34.504	1314.527	1134.789
-30.896	34.521	1313.030	1133.556
-29.881	34.374	1312.165	1131.892
-28.867	34.454	1310.769	1131.118
-27.852	34.498	1308.788	1129.623
-26.838	34.488	1307.421	1128.336
-25.823	34.491	1305.879	1126.978
-24.809	34.524	1304.092	1125.589
-23.794	34.429	1303.631	1124.582
-22.779	34.431	1301.723	1122.909
-21.765	34.493	1300.713	1122.353
-20.750	34.315	1299.612	1120.317
-19.736	34.392	1297.795	1119.156
-18.721	34.292	1296.708	1117.589
-17.706	34.315	1295.358	1116.515
-16.692	34.375	1294.209	1115.830
-15.677	34.368	1292.939	1114.650
-14.663	34.446	1291.793	1114.072
-13.648	34.265	1290.696	1112.027
-12.633	34.260	1289.919	1111.287
-11.619	34.284	1289.008	1110.594
-10.604	34.377	1287.763	1110.021
-9.590	34.322	1286.964	1108.966
-8.575	34.342	1285.927	1108.144
-7.560	34.232	1285.612	1107.189
-6.546	34.338	1284.308	1106.639
-5.531	34.250	1283.472	1105.367
-4.517	34.312	1281.991	1104.407
-3.502	34.386	1281.401	1104.281
-2.487	34.433	1280.144	1103.423
-1.473	34.289	1276.470	1099.384
-0.458	33.230	1261.747	1080.617
0.556	28.033	1244.075	1043.054
1.571	24.862	1249.956	1029.684
2.586	23.972	1266.208	1037.787
3.600	22.970	1254.512	1022.319
4.615	15.948	1177.181	920.955
5.629	5.108	1096.651	802.394
6.644	0.527	1074.718	763.150
7.659	-0.019	1072.582	758.810
8.673	-0.062	1071.027	757.429
9.688	-0.074	1069.659	756.331
10.702	0.400	1068.153	757.585
11.717	7.090	1078.385	798.617
12.731	17.142	1092.687	860.300
13.746	21.370	1098.238	886.072
14.761	21.821	1098.720	888.669
15.775	21.945	1098.006	888.644
16.790	21.614	1097.601	886.558
17.804	21.631	1096.721	885.857
18.819	21.711	1095.988	885.592
19.834	21.732	1095.703	885.386
20.848	21.778	1095.054	885.016
21.863	21.812	1094.287	884.492
22.877	21.686	1093.937	883.496
23.892	21.562	1093.577	882.502
24.907	21.729	1092.473	882.373
25.921	21.871	1091.157	881.944
26.936	21.771	1090.182	880.576
27.950	21.636	1088.440	878.416
28.965	21.500	1086.936	876.442
29.980	21.612	1085.323	875.624
30.994	21.780	1084.296	875.560
32.009	21.721	1083.365	874.432
33.023	21.508	1081.965	872.167
34.038	21.627	1081.067	871.955
35.053	21.728	1080.890	872.242
36.067	21.753	1079.810	871.415
37.082	21.867	1078.863	871.142
38.096	21.928	1078.236	870.859
39.111	21.934	1077.798	870.458
40.126	21.873	1076.157	868.754
41.140	21.530	1074.059	865.287
42.155	21.447	1072.123	863.243
43.169	21.373	1071.602	862.381
44.184	21.499	1070.786	862.268
45.199	21.317	1069.607	860.347
46.213	21.426	1068.534	859.947
47.228	21.556	1067.649	859.796
48.242	21.814	1066.310	859.908
49.257	21.672	1066.428	859.226
50.271	21.704	1065.619	858.660
51.286	21.822	1064.341	858.131
52.301	21.916	1063.428	857.779
53.315	21.728	1062.543	856.067
54.330	21.744	1061.287	855.059
55.344	21.672	1060.814	854.250
56.359	21.831	1059.545	853.930
57.374	21.368	1059.010	851.166
58.388	21.511	1058.435	851.326
59.403	21.614	1057.117	850.689
60.417	21.349	1056.265	848.642
61.432	21.509	1055.640	848.841
62.447	21.514	1055.218	848.452
63.461	21.582	1054.159	847.856
64.476	21.577	1053.368	847.121
65.490	21.428	1052.093	845.301
66.505	21.539	1051.633	845.393
67.520	21.610	1050.847	845.027
68.534	21.375	1049.956	843.102
69.549	21.052	1048.204	840.067
70.563	21.058	1047.720	839.634
71.578	21.082	1046.553	838.737
72.593	20.921	1045.790	837.278
73.607	21.121	1045.401	837.855
74.622	21.340	1045.036	838.537
75.636	21.404	1044.286	838.170
76.651	21.283	1043.046	836.523
77.666	21.121	1042.901	835.554
78.680	21.181	1041.932	834.990
79.695	21.301	1041.572	835.200
80.709	21.375	1040.862	834.915
81.724	21.391	1039.680	833.965
82.739	21.578	1038.889	834.151
83.753	21.811	1038.194	834.626
84.768	21.947	1037.836	834.912
85.782	22.050	1036.827	834.517
86.797	21.998	1035.632	833.236
87.812	21.850	1034.396	831.463
88.826	21.941	1033.649	831.219
89.841	22.022	1032.808	830.854
90.855	22.014	1031.580	829.756
91.870	21.986	1030.886	828.992
92.884	21.734	1029.903	826.942
93.899	21.718	1028.741	825.856
94.914	21.997	1027.554	826.144
95.928	21.930	1026.901	825.233
96.943	21.587	1025.415	822.355
97.957	21.352	1024.510	820.450
98.972	21.103	1023.495	818.399
99.987	21.421	1022.943	819.376
101.001	21.706	1022.076	819.943
102.016	21.723	1020.984	819.073
103.030	21.619	1020.189	817.875
104.045	21.547	1018.672	816.254
105.060	21.455	1017.903	815.138
106.074	21.490	1017.062	814.553
107.089	21.895	1017.109	816.406
108.103	21.731	1015.870	814.577
109.118	21.597	1014.243	812.577
110.133	21.602	1013.162	811.662
111.147	21.197	1012.574	809.242
112.162	21.114	1011.187	807.676
113.176	21.583	1010.019	808.841
114.191	21.332	1009.581	807.259
115.206	21.005	1008.444	804.769
116.220	21.021	1007.736	804.208
117.235	21.252	1006.173	803.951
118.249	21.208	1005.870	803.437
119.264	21.028	1005.319	802.100
120.279	21.230	1004.151	802.022
121.293	21.269	1003.424	801.552
122.308	21.410	1002.327	801.249
123.322	21.230	1001.153	799.418
124.337	21.054	999.798	797.457
125.352	20.634	997.999	794.039
126.366	20.521	997.358	792.940
127.381	21.301	997.241	796.333
128.395	21.709	996.397	797.447
129.410	21.803	995.884	797.393
130.424	21.685	994.486	795.670
131.439	21.718	993.617	795.050
132.454	21.823	992.622	794.659
133.468	21.598	992.086	793.142
134.483	21.840	990.962	793.270
135.497	21.967	990.336	793.271
136.512	21.978	989.218	792.354
137.527	22.042	988.619	792.096
138.541	22.060	987.914	791.541
139.556	22.040	987.252	790.850
140.570	22.059	986.453	790.226
141.585	22.072	985.204	789.213
142.600	21.870	983.966	787.246
143.614	22.181	983.784	788.427
144.629	22.261	983.153	788.209
145.643	22.169	981.463	786.370
146.658	21.952	980.144	784.276
147.673	21.993	978.446	783.030
148.687	21.755	978.068	781.597
149.702	21.740	976.938	780.560
150.716	21.707	975.986	779.584
151.731	21.851	975.617	779.858
152.746	21.971	974.811	779.681
153.760	22.149	974.408	780.079
154.775	22.200	973.569	779.562
155.789	22.146	972.448	778.359
156.804	21.942	971.694	776.782
157.819	22.156	970.865	776.997
158.833	22.300	970.343	777.145
159.848	22.125	969.668	775.766
160.862	22.109	967.878	774.193
161.877	22.213	966.752	773.681
162.892	22.242	965.499	772.740
163.906	22.054	964.799	771.287
164.921	22.124	963.801	770.725
165.935	22.002	963.377	769.783
166.950	22.049	962.307	769.067
167.964	22.109	961.717	768.788
168.979	21.934	960.190	766.735
169.994	21.964	959.325	766.109
171.008	22.224	958.755	766.717
172.023	22.163	957.976	765.765
173.037	21.849	957.058	763.595
174.052	21.833	955.889	762.523
175.067	21.839	955.424	762.112
176.081	22.099	954.690	762.590
177.096	21.961	954.206	761.536
178.110	21.535	953.278	758.880
179.125	21.536	952.056	757.844
180.140	21.690	951.770	758.216
181.154	21.736	951.748	758.330
182.169	22.043	951.180	759.138
183.183	22.228	951.173	759.865
184.198	22.080	949.781	758.046
185.213	22.041	949.618	757.682
186.227	22.063	948.817	757.071
187.242	22.231	947.649	756.793
188.256	22.047	947.473	755.795
189.271	22.113	946.831	755.500
190.286	21.867	945.411	753.242
191.300	21.289	944.046	749.613
192.315	20.653	942.185	745.345
193.329	20.515	942.289	744.769
194.344	21.400	942.421	748.599
195.359	21.910	942.140	750.489
196.373	22.067	941.861	750.871
197.388	21.899	941.199	749.559
198.402	21.750	941.076	748.758
199.417	21.982	939.861	748.715
200.432	21.784	938.508	746.730
201.446	21.603	937.782	745.316
202.461	21.543	937.629	744.872
203.475	20.731	935.203	739.433
204.490	20.107	934.016	735.780
205.504	20.981	934.499	739.807
206.519	21.575	934.562	742.309
207.534	21.682	933.881	742.156
208.548	22.086	933.901	743.818
209.563	21.800	932.751	741.625
210.577	21.804	932.133	741.084
211.592	22.315	931.790	742.906
212.607	22.204	930.964	741.713
213.621	22.229	930.254	741.186
214.636	22.150	929.915	740.520
215.650	22.055	928.885	739.234
216.665	22.270	928.423	739.706
217.680	22.183	927.560	738.585
218.694	21.781	925.930	735.536
219.709	21.584	925.626	734.404
220.723	21.848	925.320	735.201
221.738	21.898	924.753	734.896
222.753	21.901	924.022	734.263
223.767	22.013	923.391	734.167
224.782	22.336	922.638	734.848
225.796	22.268	922.463	734.360
226.811	21.668	920.750	730.434
227.826	21.050	919.687	726.948
228.840	21.395	919.032	727.802
229.855	21.354	918.458	727.113
230.869	21.027	917.229	724.719
231.884	21.299	917.561	726.047
232.899	21.972	917.634	728.834
233.913	21.836	917.029	727.728
234.928	21.974	916.059	727.463
235.942	21.983	915.412	726.924
236.957	21.577	914.732	724.640
237.972	21.677	913.729	724.196
238.986	21.775	913.261	724.166
240.001	21.637	913.173	723.462
241.015	21.805	912.130	723.260
242.030	21.960	911.658	723.463
243.045	22.054	911.426	723.602
244.059	22.250	910.930	723.949
245.074	21.924	909.876	721.709
246.088	21.688	908.528	719.606
247.103	21.999	908.249	720.597
248.117	22.523	908.277	722.709
249.132	22.672	907.976	723.013
250.147	22.802	907.565	723.158
251.161	22.819	907.580	723.173
252.176	22.688	906.720	721.887
253.190	22.864	905.931	721.915
254.205	23.047	905.494	722.251
255.220	22.964	905.070	721.511
256.234	22.776	903.899	719.745
257.249	22.706	903.347	718.957
258.263	22.702	902.751	718.404
259.278	22.789	901.974	718.077
260.293	22.915	900.904	717.670
261.307	22.838	900.309	716.822
262.322	22.532	899.566	714.926
263.336	21.790	897.669	710.351
264.351	20.845	895.869	705.041
265.366	20.981	895.545	705.272
266.380	22.008	895.923	709.660
267.395	22.569	895.429	711.472
268.409	22.493	895.079	710.825
269.424	22.530	894.402	710.373
270.439	22.780	893.640	710.710
271.453	22.727	892.986	709.918
272.468	23.037	892.952	711.075
273.482	22.983	892.489	710.426
274.497	22.558	891.203	707.631
275.512	22.255	890.426	705.738
276.526	22.616	890.553	707.221
277.541	22.760	890.042	707.332
278.555	22.574	888.609	705.385
279.570	22.471	888.079	704.491
280.585	22.590	887.430	704.388
281.599	22.631	886.634	703.857
282.614	21.918	885.444	700.007
283.628	22.007	884.588	699.624
284.643	22.297	884.676	700.789
285.657	21.922	883.193	698.059
286.672	21.766	882.548	696.868
287.687	22.212	882.332	698.408
288.701	22.386	881.675	698.518
289.716	21.755	881.613	695.901
290.730	21.813	881.033	695.613
291.745	21.710	879.385	693.841
292.760	21.905	879.571	694.697
293.774	22.923	879.832	698.873
294.789	23.275	879.517	699.952
295.803	23.343	878.550	699.390
296.818	23.281	877.936	698.595
297.833	22.910	876.860	696.214
298.847	22.732	876.164	694.901
299.862	23.054	875.955	695.941
300.876	23.202	876.154	696.620
301.891	23.043	875.245	695.209
302.906	22.767	874.223	693.251
303.920	22.955	873.625	693.452
304.935	23.221	873.271	694.156
305.949	23.231	872.389	693.431
306.964	22.961	871.711	691.776
307.979	22.972	871.707	691.752
308.993	23.261	871.659	692.787
310.008	23.280	870.960	692.244
311.022	23.166	869.671	690.711
312.037	22.899	869.267	689.288
313.052	22.627	868.451	687.518
314.066	21.814	866.994	683.139
315.081	21.640	866.369	681.910
316.095	22.406	866.422	684.870
317.110	22.901	866.217	686.575
318.125	22.037	865.038	682.223
319.139	21.071	863.121	676.904
320.154	21.004	863.170	676.622
321.168	21.905	863.154	680.044
322.183	22.629	863.229	682.850
323.197	22.741	863.025	683.061
324.212	22.952	862.803	683.641
325.227	23.026	861.827	683.092
326.241	22.936	861.395	682.342
327.256	22.877	860.652	681.464
328.270	22.727	859.783	680.138
329.285	22.378	859.599	678.587
330.300	22.201	858.627	677.078
331.314	22.589	858.389	678.325
332.329	23.077	857.636	679.545
333.343	23.084	857.636	679.513
334.358	23.069	857.213	679.059
335.373	23.259	856.871	679.457
336.387	23.421	856.841	679.994
337.402	23.486	856.779	680.135
338.416	23.427	856.233	679.415
339.431	23.640	855.654	679.714
340.446	23.627	855.518	679.494
341.460	23.534	855.006	678.670
342.475	23.406	854.236	677.511
343.489	23.544	853.799	677.633
344.504	23.824	853.459	678.370
345.519	23.984	853.497	678.953
346.533	23.899	853.037	678.202
347.548	23.955	852.098	677.608
348.562	23.924	851.673	677.091
349.577	23.813	851.154	676.199
350.592	23.918	850.279	675.841
351.606	23.859	849.203	674.703
352.621	23.672	848.703	673.536
353.635	23.469	848.370	672.442
354.650	23.158	846.063	669.376
355.665	22.002	844.687	663.860
356.679	22.582	844.508	665.855
357.694	22.826	844.479	666.695
358.708	22.938	843.447	666.241
359.723	23.148	843.780	667.239
360.738	23.580	843.216	668.363
361.752	23.724	842.771	668.490
362.767	23.884	842.621	668.915
363.781	24.153	841.928	669.318
364.796	24.323	841.436	669.504
365.810	24.359	841.446	669.589
366.825	24.219	840.671	668.388
367.840	23.950	840.002	666.788
368.854	23.465	839.292	664.350
369.869	23.476	839.032	664.126
370.883	23.481	838.672	663.802
371.898	23.356	838.075	662.800
372.913	23.488	838.086	663.245
373.927	23.701	836.901	663.043
374.942	23.890	836.564	663.423
375.956	23.795	836.464	662.930
376.971	24.107	836.196	663.825
377.986	24.110	835.819	663.478
379.000	24.171	834.962	662.966
380.015	24.066	834.286	661.979
381.029	24.050	833.976	661.616
382.044	24.116	833.372	661.321
383.059	24.193	832.984	661.242
384.073	24.204	832.419	660.774
385.088	24.361	831.367	660.463
386.102	24.064	830.673	658.757
387.117	23.913	830.284	657.828
388.132	23.498	829.517	655.629
389.146	23.164	828.090	653.211
390.161	23.449	828.070	654.190
391.175	23.819	828.166	655.570
392.190	23.502	827.029	653.446
393.205	22.172	825.023	646.913
394.219	20.917	822.856	640.547
395.234	20.783	823.063	640.156
396.248	22.413	824.291	647.053
397.263	23.743	825.228	652.619
398.278	23.808	824.657	652.348
399.292	23.501	824.155	650.767
400.307	23.399	823.630	649.921
401.321	23.610	822.961	650.110
402.336	24.068	822.608	651.450
403.350	24.335	822.702	652.445
404.365	24.592	822.972	653.539
405.380	24.851	822.423	653.995
406.394	24.909	821.876	653.712
407.409	24.776	821.253	652.674
408.423	24.659	820.976	651.968
409.438	24.994	820.270	652.573
410.453	24.889	820.192	652.067
411.467	24.891	819.489	651.460
412.482	24.866	819.290	651.152
413.496	24.820	818.886	650.605
414.511	24.768	818.396	649.972
415.526	24.914	817.877	650.033
416.540	24.800	817.280	649.086
417.555	24.641	816.315	647.686
418.569	24.553	816.336	647.327
419.584	24.462	815.829	646.538
420.599	24.450	814.980	645.765
421.613	153.656	1365.921	1792.800
422.628	133.714	1446.219	1792.889
