DTS Sentinel unit serial number:	SN413079Multiplexer serial number:	ORYXHardware model number:	OX4-SRSoftware version number:	ORYX F/W v4.00 Oryx Data Collector v3.7.2.0data status	okinstallation	princeton_trtdifferential loss correction	single-endedforward channel	channel 1reverse channel	N/Adate	2019/09/12time	05:20:11forward acquisition time	60.00reverse acquisition time	0.00gamma	496.2192k internal	0.2322k external	0.2322temperature offset calibration	1.0053default loss term (dB/km)	0.3790temperature slope calibration	1.0000multiplexer offset coefficient	1.0000multiplexer slope coefficient	1.0000fibre end	0.00T internal ref (°C)	31.87T ext. ref 1 (°C)	1.63T ext. ref 2 (°C)	27.35length (m)	temperature (°C)	Stokes	anti-Stokes-747.200	257.203	-0.037	0.064
-746.185	96.271	-0.259	-0.299
-745.171	26.860	-0.096	-0.081
-744.156	-154.636	-0.402	0.027
-743.142	-108.238	-0.259	-0.056
-742.127	-69.186	-0.529	0.206
-741.112	-11.816	-0.241	0.160
-740.098	-84.095	-0.324	0.104
-739.083	35.797	0.335	0.298
-738.069	-200.000	0.008	0.266
-737.054	267.074	-0.032	0.057
-736.039	-200.000	0.015	-0.100
-735.025	89.475	0.274	0.309
-734.010	-87.690	0.393	-0.120
-732.996	-151.318	-0.135	-0.010
-731.981	26.445	-0.272	-0.230
-730.966	-200.000	0.004	-0.301
-729.952	-200.000	-0.000	-0.043
-728.937	-76.871	-0.461	-0.163
-727.923	-57.672	-0.229	0.101
-726.908	-51.394	-0.185	0.087
-725.894	-104.233	0.200	-0.047
-724.879	-200.000	0.009	0.106
-723.864	31.579	-0.352	-0.305
-722.850	6.562	-0.060	-0.045
-721.835	77.958	0.166	-0.178
-720.821	35.510	-0.068	0.060
-719.806	-200.000	0.003	-0.111
-718.791	-200.000	-0.001	0.134
-717.777	354.778	0.124	0.249
-716.762	-161.708	-0.211	0.011
-715.748	-167.334	-0.106	-0.004
-714.733	-81.054	-0.143	0.048
-713.718	85.096	-0.137	0.152
-712.704	3.967	-0.213	0.157
-711.689	346.087	-0.101	0.200
-710.675	7.718	0.400	-0.302
-709.660	-200.000	-0.451	0.001
-708.645	248.565	0.040	-0.069
-707.631	-92.165	-0.157	0.045
-706.616	-5.348	0.224	-0.156
-705.602	800.000	0.043	-0.164
-704.587	-57.093	0.202	-0.090
-703.572	-21.734	-0.130	0.080
-702.558	-90.950	-0.146	-0.042
-701.543	800.000	-0.053	-0.184
-700.529	-19.807	0.358	-0.223
-699.514	-86.139	-0.075	-0.023
-698.499	-200.000	0.013	0.266
-697.485	-128.217	-0.224	-0.032
-696.470	387.396	-0.131	-0.274
-695.456	586.949	0.120	-0.298
-694.441	7.069	-0.217	0.163
-693.426	-48.557	-0.160	0.078
-692.412	0.147	-0.437	0.314
-691.397	-20.015	-0.252	-0.157
-690.383	165.240	0.165	0.235
-689.368	66.868	-0.231	-0.238
-688.354	-77.163	-0.203	-0.071
-687.339	-38.735	-0.338	0.180
-686.324	503.523	-0.086	-0.200
-685.310	-200.000	-0.004	0.284
-684.295	-200.000	-0.069	0.389
-683.281	800.000	-0.117	-0.416
-682.266	185.977	-0.163	0.245
-681.251	-200.000	-0.068	0.315
-680.237	800.000	0.049	-0.181
-679.222	-200.000	0.031	0.390
-678.208	-127.463	-0.192	-0.028
-677.193	323.364	-0.093	-0.178
-676.178	-169.221	0.321	-0.012
-675.164	800.000	-0.077	0.240
-674.149	60.824	0.091	0.091
-673.135	-200.000	-0.007	0.033
-672.120	-133.551	-0.262	-0.033
-671.105	800.000	0.028	0.113
-670.091	226.484	0.116	-0.189
-669.076	-200.000	0.043	-0.227
-668.062	-134.760	-0.081	-0.010
-667.047	438.544	-0.098	-0.216
-666.032	72.414	-0.019	-0.020
-665.018	456.472	0.163	-0.365
-664.003	623.637	0.049	-0.124
-662.989	38.764	0.042	-0.038
-661.974	10.961	0.077	-0.060
-660.959	-200.000	-0.016	-0.113
-659.945	243.855	-0.118	-0.200
-658.930	28.468	0.340	-0.289
-657.916	9.603	0.227	-0.174
-656.901	319.930	0.062	0.119
-655.886	800.000	0.028	0.110
-654.872	-28.121	0.047	-0.027
-653.857	104.608	-0.062	-0.074
-652.843	-4.297	-0.284	0.198
-651.828	267.256	-0.159	-0.280
-650.814	-121.457	-0.152	0.025
-649.799	-156.201	-0.156	0.010
-648.784	163.364	-0.134	-0.190
-647.770	681.975	-0.012	-0.032
-646.755	294.518	-0.008	0.015
-645.741	-66.145	-0.318	-0.128
-644.726	204.811	0.053	-0.083
-643.711	143.200	-0.168	-0.225
-642.697	205.192	-0.118	0.184
-641.682	800.000	-0.081	0.259
-640.668	-28.667	-0.220	-0.128
-639.653	-77.914	0.125	-0.043
-638.638	166.522	0.154	0.220
-637.624	-93.188	-0.410	-0.115
-636.609	-24.573	-0.120	-0.072
-635.595	88.858	-0.051	0.057
-634.580	75.779	-0.121	0.129
-633.565	-200.000	-0.025	0.291
-632.551	-41.391	-0.273	-0.141
-631.536	-99.375	0.130	-0.033
-630.522	-63.236	-0.226	-0.094
-629.507	-126.367	-0.318	-0.048
-628.492	-200.000	-0.050	0.427
-627.478	-53.089	-0.167	-0.077
-626.463	159.318	0.110	0.154
-625.449	351.461	-0.050	0.099
-624.434	-157.676	0.220	-0.013
-623.419	488.622	-0.094	-0.216
-622.405	-25.912	0.410	-0.243
-621.390	-84.002	0.098	-0.031
-620.376	46.821	0.183	-0.171
-619.361	-200.000	-0.029	0.215
-618.346	-95.729	0.155	-0.042
-617.332	-200.000	0.009	0.259
-616.317	800.000	-0.039	-0.137
-615.303	44.155	0.166	-0.153
-614.288	33.686	0.286	0.250
-613.273	800.000	0.100	-0.315
-612.259	-78.760	-0.345	-0.118
-611.244	-200.000	0.012	0.288
-610.230	-189.593	-0.243	0.003
-609.215	-144.649	0.083	-0.008
-608.201	29.086	-0.205	-0.175
-607.186	800.000	-0.092	-0.261
-606.171	127.366	-0.119	0.152
-605.157	-200.000	-0.033	0.193
-604.142	800.000	-0.077	0.274
-603.128	367.413	-0.098	-0.198
-602.113	-89.862	0.260	-0.076
-601.098	279.883	-0.098	-0.176
-600.084	800.000	0.024	-0.100
-599.069	79.451	0.066	0.071
-598.055	131.247	0.140	-0.180
-597.040	-80.029	0.150	0.051
-596.025	-130.707	-0.103	-0.014
-595.011	202.189	0.074	0.114
-593.996	277.289	-0.191	0.341
-592.982	-149.234	0.301	-0.024
-591.967	563.311	-0.023	-0.055
-590.952	31.595	0.055	-0.047
-589.938	800.000	-0.034	-0.101
-588.923	-64.460	0.056	0.023
-587.909	-71.364	0.106	0.040
-586.894	59.985	0.404	-0.401
-585.879	-200.000	0.016	-0.265
-584.865	49.514	-0.246	0.233
-583.850	-200.000	0.020	0.242
-582.836	172.793	0.142	-0.205
-581.821	-53.958	0.229	0.105
-580.806	-118.465	0.336	-0.060
-579.792	-200.000	-0.026	0.381
-578.777	-95.296	0.185	0.050
-577.763	-33.598	-0.183	-0.101
-576.748	-95.247	0.235	0.063
-575.733	61.960	-0.200	0.200
-574.719	254.457	-0.121	0.207
-573.704	49.679	-0.015	-0.014
-572.690	-54.931	-0.166	0.075
-571.675	-91.337	0.065	0.019
-570.661	-41.380	-0.299	-0.154
-569.646	-152.113	-0.138	0.010
-568.631	-49.030	0.409	0.197
-567.617	512.243	0.211	-0.494
-566.602	-118.649	-0.296	0.052
-565.588	14.426	-0.095	0.074
-564.573	-138.567	0.398	0.044
-563.558	-11.793	0.315	0.207
-562.544	536.175	-0.111	-0.264
-561.529	614.350	0.071	-0.178
-560.515	425.897	-0.119	0.258
-559.500	-39.506	-0.043	0.022
-558.485	-74.855	0.097	0.035
-557.471	104.258	-0.211	-0.249
-556.456	-27.523	0.084	-0.049
-555.442	-72.845	-0.354	0.131
-554.427	-35.419	-0.186	-0.101
-553.412	13.821	0.176	-0.137
-552.398	29.731	-0.338	0.289
-551.383	-91.451	0.178	0.051
-550.369	-86.044	-0.312	-0.097
-549.354	-82.011	0.154	-0.050
-548.339	-22.743	0.102	-0.062
-547.325	800.000	0.056	-0.175
-546.310	479.977	0.042	0.095
-545.296	-7.714	-0.336	0.227
-544.281	800.000	-0.038	0.128
-543.266	87.041	0.054	0.060
-542.252	114.779	-0.082	0.101
-541.237	-200.000	0.009	-0.114
-540.223	-159.736	0.305	-0.017
-539.208	-53.302	0.441	0.203
-538.193	201.746	-0.007	0.011
-537.179	800.000	0.071	-0.299
-536.164	-91.518	-0.237	0.068
-535.150	243.385	0.148	0.248
-534.135	-108.623	-0.125	0.027
-533.121	-200.000	-0.026	-0.147
-532.106	-63.232	-0.091	0.037
-531.091	-12.207	0.095	0.062
-530.077	-11.292	-0.186	0.123
-529.062	14.177	-0.248	0.193
-528.048	800.000	-0.006	0.019
-527.033	-200.000	0.015	0.172
-526.018	800.000	0.072	0.224
-525.004	221.389	0.063	0.102
-523.989	148.815	-0.026	-0.035
-522.975	286.517	0.067	0.121
-521.960	-17.716	0.216	-0.136
-520.945	698.814	0.095	-0.250
-519.931	-200.000	0.016	-0.187
-518.916	364.469	-0.041	-0.082
-517.902	48.568	-0.224	-0.210
-516.887	-17.041	0.262	-0.165
-515.872	52.084	-0.113	0.108
-514.858	-136.204	-0.270	-0.032
-513.843	-98.492	-0.092	-0.024
-512.829	-200.000	-0.036	0.338
-511.814	70.393	-0.141	0.146
-510.799	259.889	-0.140	0.242
-509.785	-62.457	-0.113	0.047
-508.770	-68.753	0.296	-0.114
-507.756	71.894	-0.364	-0.379
-506.741	364.066	-0.047	-0.094
-505.726	107.888	-0.208	0.248
-504.712	-122.819	-0.291	0.047
-503.697	303.739	0.059	0.109
-502.683	-200.000	-0.024	0.236
-501.668	5.592	0.186	0.137
-500.653	-65.368	-0.253	-0.102
-499.639	-25.960	-0.344	0.203
-498.624	-24.663	0.200	0.119
-497.610	-73.202	-0.264	-0.097
-496.595	-200.000	0.006	-0.053
-495.581	-64.103	-0.108	-0.044
-494.566	-56.785	0.243	-0.108
-493.551	305.165	-0.243	0.452
-492.537	217.236	-0.221	-0.352
-491.522	193.313	-0.194	0.293
-490.508	-59.664	-0.126	0.054
-489.493	37.299	0.376	0.333
-488.478	-113.341	-0.406	0.080
-487.464	-200.000	0.027	0.224
-486.449	800.000	-0.051	-0.201
-485.435	-66.335	-0.060	0.024
-484.420	6.358	-0.060	0.044
-483.405	-83.168	-0.230	-0.074
-482.391	-117.643	0.370	0.067
-481.376	-54.533	0.242	-0.109
-480.362	-90.377	-0.244	-0.071
-479.347	-200.000	-0.001	0.035
-478.332	-4.894	-0.185	-0.128
-477.318	486.897	-0.085	-0.194
-476.303	216.920	0.159	-0.254
-475.289	731.218	0.095	0.255
-474.274	88.401	-0.063	0.070
-473.259	-44.562	-0.127	0.064
-472.245	-150.996	0.158	0.012
-471.230	-25.169	-0.060	-0.035
-470.216	-25.442	0.278	-0.164
-469.201	-89.778	-0.079	-0.023
-468.186	-200.000	0.030	-0.198
-467.172	-200.000	0.186	0.000
-466.157	276.605	-0.134	0.237
-465.143	16.257	-0.213	-0.168
-464.128	-51.692	0.284	-0.132
-463.113	63.985	0.141	-0.142
-462.099	-200.000	-0.039	0.230
-461.084	800.000	0.060	-0.219
-460.070	-79.966	0.093	-0.031
-459.055	372.920	-0.163	-0.330
-458.040	-89.777	0.375	-0.110
-457.026	-200.000	0.039	0.235
-456.011	-102.973	-0.145	-0.034
-454.997	800.000	0.043	0.160
-453.982	260.676	0.102	0.176
-452.968	124.652	0.061	-0.077
-451.953	-39.679	0.057	-0.030
-450.938	89.155	-0.127	0.141
-449.924	34.995	0.036	-0.032
-448.909	-200.000	-0.003	-0.160
-447.895	12.739	-0.050	0.039
-446.880	144.330	0.045	0.060
-445.865	295.379	0.253	0.463
-444.851	50.905	0.122	-0.116
-443.836	-94.496	0.148	0.040
-442.822	800.000	-0.044	-0.132
-441.807	800.000	-0.022	-0.061
-440.792	-74.282	0.272	0.098
-439.778	75.640	-0.021	0.022
-438.763	105.552	0.104	-0.123
-437.749	-200.000	0.012	0.165
-436.734	-92.999	0.121	-0.034
-435.719	-40.588	-0.404	-0.209
-434.705	696.520	-0.160	0.420
-433.690	800.000	0.031	0.119
-432.676	800.000	0.109	0.455
-431.661	-138.799	0.298	-0.032
-430.646	-200.000	-0.006	0.136
-429.632	-8.753	-0.266	-0.178
-428.617	703.842	0.085	-0.223
-427.603	-200.000	0.070	0.324
-426.588	-174.019	-0.200	-0.006
-425.573	368.403	-0.019	0.039
-424.559	102.386	0.173	-0.201
-423.544	170.306	-0.101	0.144
-422.530	-72.839	0.185	0.068
-421.515	-43.768	-0.219	-0.110
-420.500	-200.000	-0.009	-0.301
-419.486	800.000	-0.037	0.123
-418.471	-200.000	0.056	0.318
-417.457	7.662	0.150	-0.112
-416.442	-66.212	0.074	0.030
-415.428	-200.000	-0.021	0.279
-414.413	-131.957	0.207	-0.027
-413.398	-114.249	-0.126	0.024
-412.384	-118.669	0.248	-0.044
-411.369	278.397	0.124	0.221
-410.355	-61.710	-0.244	0.102
-409.340	-200.000	-0.133	-0.591
-408.325	-40.792	-0.321	-0.166
-407.311	2.102	-0.134	-0.096
-406.296	-200.000	0.022	-0.182
-405.282	-30.800	-0.353	-0.199
-404.267	65.403	-0.171	0.172
-403.252	790.876	0.126	-0.346
-402.238	474.928	0.065	-0.145
-401.223	41.239	0.033	-0.029
-400.209	242.821	0.081	0.136
-399.194	253.748	-0.055	-0.094
-398.179	-86.048	-0.119	0.037
-397.165	-101.483	0.335	-0.081
-396.150	-170.413	-0.228	-0.008
-395.136	-200.000	0.012	0.120
-394.121	800.000	-0.060	0.202
-393.106	800.000	0.008	0.029
-392.092	634.165	-0.035	0.089
-391.077	-80.617	0.279	-0.093
-390.063	96.821	-0.152	-0.174
-389.048	800.000	0.023	-0.072
-388.033	-156.729	0.298	-0.018
-387.019	-87.460	0.209	0.063
-386.004	-200.000	0.054	-0.355
-384.990	-200.000	0.158	-0.001
-383.975	-200.000	0.067	-0.313
-382.960	217.108	-0.125	0.199
-381.946	210.786	-0.316	0.494
-380.931	-173.699	0.085	-0.003
-379.917	157.718	-0.129	0.179
-378.902	800.000	0.022	-0.095
-377.888	-200.000	0.005	0.145
-376.873	-165.772	0.252	0.011
-375.858	-200.000	-0.030	-0.279
-374.844	675.182	0.034	0.089
-373.829	40.294	0.130	-0.117
-372.815	-200.000	-0.098	0.446
-371.800	164.601	0.144	-0.202
-370.785	-129.643	-0.274	0.038
-369.771	-25.229	-0.124	0.073
-368.756	-90.984	0.115	0.033
-367.742	44.651	0.182	0.166
-366.727	-94.388	0.331	-0.090
-365.712	299.772	-0.045	-0.082
-364.698	-200.000	-0.017	0.150
-363.683	-90.974	-0.148	-0.042
-362.669	1.042	0.249	0.178
-361.654	316.917	0.036	-0.068
-360.639	-156.593	0.163	0.010
-359.625	229.128	0.092	-0.149
-358.610	29.283	-0.195	-0.165
-357.596	800.000	0.083	-0.345
-356.581	42.356	0.171	-0.155
-355.566	-13.354	0.047	-0.030
-354.552	748.307	-0.121	0.325
-353.537	218.852	-0.141	-0.224
-352.523	43.356	0.063	-0.057
-351.508	800.000	-0.104	-0.301
-350.493	-68.436	0.335	-0.130
-349.479	-66.246	-0.555	-0.220
-348.464	800.000	-0.034	0.098
-347.450	-68.362	0.345	-0.133
-346.435	37.871	-0.154	0.136
-345.420	18.523	-0.105	0.083
-344.406	55.752	-0.026	0.025
-343.391	482.183	0.069	-0.155
-342.377	113.972	-0.092	0.112
-341.362	800.000	-0.102	-0.311
-340.348	-71.027	0.259	-0.097
-339.333	132.111	-0.149	0.190
-338.318	-136.948	0.502	-0.057
-337.304	-176.993	-0.210	0.005
-336.289	450.426	0.062	0.137
-335.275	-200.000	-0.009	-0.356
-334.260	800.000	0.159	-0.485
-333.245	28.910	-0.059	-0.050
-332.231	-141.056	0.430	-0.044
-331.216	-96.339	-0.332	-0.087
-330.202	776.465	0.046	0.124
-329.187	-36.165	-0.032	0.017
-328.172	-155.299	0.415	-0.027
-327.158	-68.522	0.292	-0.113
-326.143	-72.106	-0.136	-0.050
-325.129	136.546	0.043	-0.056
-324.114	-74.307	-0.062	-0.022
-323.099	321.795	0.089	0.169
-322.085	73.825	0.121	0.126
-321.070	-200.000	-0.002	0.061
-320.056	800.000	-0.051	-0.169
-319.041	34.641	0.393	0.341
-318.026	800.000	-0.056	-0.156
-317.012	45.538	0.235	-0.215
-315.997	68.063	-0.268	-0.272
-314.983	-56.818	-0.221	0.097
-313.968	-104.070	0.148	0.034
-312.953	-20.714	-0.187	-0.114
-311.939	-14.185	-0.063	-0.040
-310.924	44.352	-0.217	0.198
-309.910	210.935	-0.082	-0.127
-308.895	545.518	0.080	-0.189
-307.880	-18.643	0.173	0.107
-306.866	-65.715	-0.221	0.088
-305.851	338.895	-0.079	-0.153
-304.837	-72.558	0.092	0.034
-303.822	140.234	0.091	0.119
-302.807	-183.081	0.224	-0.004
-301.793	233.367	0.165	0.270
-300.778	-149.988	0.447	0.035
-299.764	54.671	0.104	-0.100
-298.749	162.613	0.057	-0.080
-297.735	-73.364	0.105	-0.038
-296.720	-97.734	0.239	-0.062
-295.705	423.750	-0.190	0.406
-294.691	-169.749	0.578	-0.021
-293.676	223.660	-0.143	-0.229
-292.662	356.287	0.139	-0.275
-291.647	-91.454	0.320	0.091
-290.632	-200.000	0.006	-0.285
-289.618	800.000	0.019	-0.071
-288.603	800.000	-0.054	0.158
-287.589	41.328	-0.275	-0.247
-286.574	37.626	0.090	-0.079
-285.559	-161.941	-0.308	0.015
-284.545	800.000	-0.061	0.249
-283.530	26.868	-0.149	-0.124
-282.516	800.000	-0.067	0.234
-281.501	800.000	0.048	0.199
-280.486	314.002	0.093	-0.174
-279.472	-200.000	0.029	0.215
-278.457	167.307	0.294	0.414
-277.443	56.016	0.190	-0.183
-276.428	-33.677	-0.496	0.271
-275.413	3.144	0.257	0.185
-274.399	-77.016	0.225	-0.078
-273.384	-73.185	0.076	-0.028
-272.370	-80.941	0.061	0.020
-271.355	-200.000	0.013	-0.087
-270.340	-200.000	0.066	-0.362
-269.326	-200.000	0.001	-0.132
-268.311	548.028	0.092	0.219
-267.297	49.008	-0.435	0.405
-266.282	338.840	0.102	-0.197
-265.267	62.817	0.145	-0.144
-264.253	152.608	0.104	0.141
-263.238	444.545	0.051	0.111
-262.224	-200.000	-0.037	0.227
-261.209	1.469	-0.120	-0.086
-260.195	100.018	-0.002	-0.003
-259.180	-200.000	-0.035	-0.316
-258.165	105.204	0.198	-0.232
-257.151	-7.212	-0.251	0.169
-256.136	800.000	-0.040	0.130
-255.122	-200.000	-0.010	0.110
-254.107	-200.000	0.056	0.385
-253.092	-200.000	0.026	0.230
-252.078	-133.716	0.154	-0.019
-251.063	-24.151	0.189	-0.112
-250.049	-200.000	0.018	0.122
-249.034	800.000	-0.088	-0.257
-248.019	187.052	0.144	-0.213
-247.005	-95.431	-0.220	0.059
-245.990	250.637	0.041	0.069
-244.976	-88.626	-0.406	0.120
-243.961	-59.248	-0.088	0.038
-242.946	-200.000	-0.017	-0.081
-241.932	-200.000	-0.099	-0.691
-240.917	-200.000	0.025	0.288
-239.903	786.474	0.049	0.133
-238.888	-200.000	-0.086	-0.478
-237.873	-52.975	-0.212	0.097
-236.859	123.028	-0.213	0.264
-235.844	20.562	-0.236	0.189
-234.830	-134.556	0.303	0.037
-233.815	465.114	-0.115	0.254
-232.800	18.097	-0.382	-0.301
-231.786	66.493	0.169	-0.170
-230.771	299.855	-0.168	-0.307
-229.757	57.852	-0.200	0.194
-228.742	12.743	0.142	0.109
-227.727	-28.284	0.278	-0.159
-226.713	-80.452	-0.109	-0.036
-225.698	-51.124	0.292	-0.135
-224.684	-47.609	0.048	0.023
-223.669	203.997	0.101	0.154
-222.655	745.165	-0.132	0.350
-221.640	-200.000	0.009	0.070
-220.625	3.191	-0.311	-0.224
-219.611	-200.000	0.014	-0.080
-218.596	-34.233	0.052	0.028
-217.582	-5.078	-0.225	-0.153
-216.567	30.048	-0.290	-0.245
-215.552	-200.000	-0.039	-0.331
-214.538	7.086	0.173	-0.127
-213.523	-26.408	-0.026	0.015
-212.509	-111.489	-0.462	0.093
-211.494	112.581	-0.072	-0.087
-210.479	-107.616	-0.159	0.034
-209.465	-139.835	-0.345	-0.036
-208.450	361.053	0.054	0.106
-207.436	-200.000	-0.001	0.142
-206.421	528.733	0.020	0.046
-205.406	-18.422	0.156	0.096
-204.392	764.272	-0.110	-0.294
-203.377	14.654	-0.117	-0.091
-202.363	-200.000	0.075	0.422
-201.348	-47.670	0.137	0.066
-200.333	77.767	-0.252	0.266
-199.319	180.115	0.155	0.224
-198.304	-200.000	0.016	-0.213
-197.290	-66.716	0.277	0.108
-196.275	235.637	0.091	0.149
-195.260	36.972	0.061	0.053
-194.246	800.000	-0.083	0.298
-193.231	578.446	-0.101	-0.245
-192.217	487.226	0.009	0.019
-191.202	-200.000	0.023	-0.273
-190.187	-134.772	-0.096	-0.012
-189.173	-200.000	0.005	0.268
-188.158	-200.000	-0.003	0.139
-187.144	229.930	0.124	-0.201
-186.129	-200.000	-0.010	-0.074
-185.114	210.175	0.067	0.103
-184.100	-37.213	-0.355	-0.188
-183.085	-123.770	-0.126	0.020
-182.071	40.653	-0.115	0.102
-181.056	349.349	0.095	-0.186
-180.042	-200.000	0.062	-0.272
-179.027	4.221	0.178	-0.129
-178.012	175.492	0.046	-0.066
-176.998	-20.410	0.212	0.129
-175.983	39.446	0.082	0.073
-174.969	97.283	0.103	0.117
-173.954	2.600	-0.082	-0.059
-172.939	-200.000	0.003	-0.092
-171.925	-106.467	-0.063	0.014
-170.910	800.000	0.142	0.454
-169.896	-167.828	-0.301	-0.012
-168.881	224.821	0.239	-0.382
-167.866	9.204	0.231	0.173
-166.852	654.540	-0.088	0.223
-165.837	-112.852	0.307	-0.060
-164.823	-200.000	-0.002	-0.105
-163.808	800.000	-0.017	0.071
-162.793	-200.000	-0.025	0.360
-161.779	62.970	-0.057	0.057
-160.764	123.640	-0.091	-0.113
-159.750	-54.956	0.111	-0.049
-158.735	-55.960	-0.286	0.126
-157.720	120.051	-0.130	-0.160
-156.706	151.664	-0.061	-0.082
-155.691	-200.000	-0.016	-0.153
-154.677	3.630	0.202	0.146
-153.662	-6.929	0.101	-0.068
-152.647	-200.000	0.004	-0.178
-151.633	-143.512	0.058	-0.005
-150.618	-56.482	-0.186	0.081
-149.604	356.876	0.094	0.184
-148.589	-196.647	0.148	-0.001
-147.574	-200.000	0.007	0.093
-146.560	407.436	0.048	0.100
-145.545	800.000	0.046	0.143
-144.531	-35.884	-0.080	0.042
-143.516	361.308	-0.080	0.158
-142.502	-200.000	-0.013	0.184
-141.487	-200.000	0.032	0.376
-140.472	-200.000	-0.003	-0.058
-139.458	-43.018	-0.097	0.049
-138.443	-200.000	0.011	0.142
-137.429	-53.522	-0.374	-0.169
-136.414	-62.336	0.476	0.195
-135.399	79.982	-0.063	-0.066
-134.385	-36.830	0.284	0.150
-133.370	-55.106	0.257	0.114
-132.356	60.946	-0.230	0.225
-131.341	30.403	-0.127	0.107
-130.326	-149.292	-0.088	-0.007
-129.312	-123.773	-0.263	-0.041
-128.297	128.878	0.113	-0.142
-127.283	800.000	0.122	0.355
-126.268	800.000	0.082	0.304
-125.253	215.635	-0.101	0.159
-124.239	-65.360	0.388	-0.154
-123.224	-19.473	-0.136	-0.083
-122.210	62.162	0.178	0.175
-121.195	629.452	-0.055	0.136
-120.180	-87.392	0.237	-0.071
-119.166	-200.000	0.039	0.214
-118.151	-67.749	-0.116	-0.045
-117.137	-200.000	0.002	-0.040
-116.122	-3.325	0.300	-0.206
-115.107	51.502	0.215	0.202
-114.093	218.265	-0.188	0.295
-113.078	800.000	0.101	0.318
-112.064	757.790	-0.075	0.199
-111.049	-200.000	0.058	0.277
-110.034	166.062	0.242	0.337
-109.020	-3.574	-0.029	-0.020
-108.005	-68.398	-0.249	-0.095
-106.991	-36.808	-0.170	-0.090
-105.976	-71.810	0.381	0.140
-104.962	-116.206	0.091	0.017
-103.947	220.749	-0.127	0.202
-102.932	-127.992	-0.147	-0.021
-101.918	-172.501	0.306	0.010
-100.903	64.088	-0.263	-0.260
-99.889	49.590	0.128	-0.119
-98.874	-95.963	-0.259	-0.068
-97.859	800.000	0.086	0.256
-96.845	290.418	0.165	0.296
-95.830	43.928	0.180	-0.163
-94.816	161.047	-0.067	-0.092
-93.801	800.000	-0.080	0.342
-92.786	137.309	0.074	0.096
-91.772	-135.780	0.066	-0.008
-90.757	800.000	0.033	0.112
-89.743	282.352	-0.054	-0.096
-88.728	-69.201	-0.067	-0.025
-87.713	3.983	-0.165	-0.119
-86.699	-200.000	0.008	-0.087
-85.684	207.264	-0.182	0.279
-84.670	21.244	-0.429	0.343
-83.655	-200.000	0.201	-0.001
-82.640	-200.000	-0.045	0.428
-81.626	-84.405	0.199	0.062
-80.611	800.000	-0.125	0.378
-79.597	-7.440	0.151	0.101
-78.582	-200.000	0.020	-0.108
-77.567	36.135	-0.186	-0.161
-76.553	-200.000	0.053	0.311
-75.538	800.000	0.060	0.167
-74.524	207.158	-0.091	0.140
-73.509	207.771	-0.210	-0.323
-72.494	-109.408	-0.276	0.057
-71.480	800.000	-0.077	0.303
-70.465	76.250	-0.101	0.105
-69.451	-200.000	-0.059	0.297
-68.436	96.495	0.162	-0.183
-67.422	-200.000	0.018	0.296
-66.407	-95.479	0.117	0.031
-65.392	154.841	-0.096	-0.130
-64.378	800.000	-0.033	-0.127
-63.363	3.481	0.287	0.206
-62.349	-139.165	0.538	-0.057
-61.334	372.501	-0.621	-1.241
-60.319	-13.497	0.499	0.318
-59.305	-200.000	0.135	-0.998
-58.290	112.775	0.866	1.032
-57.276	800.000	0.563	1.722
-56.261	-200.000	95.888	596.251
-55.246	562.719	1367.532	3255.181
-54.232	161.987	2546.222	3508.164
-53.217	113.429	2138.100	2552.619
-52.203	43.800	1600.217	1440.963
-51.188	35.409	1337.921	1154.508
-50.173	32.219	1296.411	1100.008
-49.159	54.660	1343.633	1274.168
-48.144	56.963	1360.011	1303.341
-47.130	35.632	1319.505	1139.755
-46.115	32.088	1301.500	1103.378
-45.100	31.852	1296.287	1097.536
-44.086	31.890	1293.972	1095.753
-43.071	31.723	1291.719	1092.828
-42.057	31.680	1289.916	1091.011
-41.042	31.737	1287.903	1089.594
-40.027	31.807	1286.804	1089.025
-39.013	31.799	1284.903	1087.328
-37.998	31.948	1282.487	1086.106
-36.984	31.905	1280.994	1084.548
-35.969	31.911	1279.164	1082.990
-34.954	31.978	1277.704	1082.100
-33.940	31.903	1276.283	1080.418
-32.925	31.925	1274.684	1079.149
-31.911	31.843	1273.645	1077.755
-30.896	31.936	1272.204	1077.027
-29.881	32.031	1270.323	1075.935
-28.867	32.026	1269.185	1074.901
-27.852	32.075	1267.576	1073.776
-26.838	31.905	1266.880	1072.171
-25.823	32.000	1264.730	1070.852
-24.809	31.869	1264.251	1069.659
-23.794	32.011	1262.665	1069.084
-22.779	32.036	1261.219	1067.956
-21.765	32.020	1260.129	1066.904
-20.750	31.942	1258.486	1065.026
-19.736	31.873	1257.471	1063.730
-18.721	31.829	1256.370	1062.508
-17.706	31.889	1254.918	1061.578
-16.692	31.815	1254.069	1060.400
-15.677	31.834	1252.663	1059.277
-14.663	31.758	1251.804	1058.080
-13.648	31.809	1250.825	1057.499
-12.633	31.759	1249.460	1056.021
-11.619	31.805	1248.592	1055.504
-10.604	31.844	1247.743	1054.963
-9.590	31.870	1246.641	1054.134
-8.575	31.801	1245.424	1052.676
-7.560	31.723	1245.424	1052.200
-6.546	31.580	1244.797	1050.821
-5.531	31.733	1243.702	1050.714
-4.517	31.790	1242.686	1050.133
-3.502	31.697	1241.995	1048.989
-2.487	31.740	1240.495	1047.919
-1.473	31.882	1236.404	1045.215
-0.458	30.569	1222.067	1025.814
0.556	27.297	1205.196	990.083
1.571	23.872	1210.966	975.971
2.586	23.067	1226.727	984.107
3.600	22.629	1215.458	972.564
4.615	16.085	1142.470	880.039
5.629	6.269	1065.407	772.608
6.644	1.920	1045.772	737.303
7.659	1.608	1043.193	733.914
8.673	1.485	1042.048	732.454
9.688	1.529	1040.576	731.564
10.702	1.729	1038.512	731.012
11.717	7.773	1047.480	766.455
12.731	17.958	1062.429	826.879
13.746	23.561	1069.505	859.540
14.761	24.871	1070.846	866.893
15.775	24.887	1070.163	866.337
16.790	24.615	1069.564	864.462
17.804	24.626	1068.625	863.677
18.819	24.724	1068.173	863.713
19.834	25.015	1067.751	864.695
20.848	25.023	1067.330	864.321
21.863	25.005	1066.842	863.761
22.877	24.955	1065.775	862.580
23.892	24.829	1065.375	861.571
24.907	24.929	1065.103	861.759
25.921	24.890	1063.822	860.459
26.936	24.859	1062.251	858.964
27.950	24.847	1060.671	857.550
28.965	24.663	1059.242	855.440
29.980	24.764	1057.487	854.428
30.994	24.951	1056.827	854.713
32.009	24.911	1055.752	853.576
33.023	24.777	1054.371	851.747
34.038	24.746	1054.232	851.414
35.053	24.883	1053.355	851.280
36.067	24.983	1052.573	851.049
37.082	25.038	1051.532	850.392
38.096	25.140	1051.209	850.541
39.111	25.194	1050.514	850.157
40.126	25.020	1048.606	847.716
41.140	24.761	1047.021	845.136
42.155	24.516	1045.602	842.760
43.169	24.572	1044.797	842.300
44.184	24.679	1044.060	842.134
45.199	24.411	1043.232	840.132
46.213	24.575	1041.942	839.790
47.228	24.799	1041.002	840.009
48.242	24.816	1040.786	839.841
49.257	24.807	1040.235	839.281
50.271	24.944	1039.616	839.348
51.286	25.029	1038.482	838.758
52.301	24.958	1037.676	837.700
53.315	24.855	1036.469	836.169
54.330	24.985	1035.771	836.137
55.344	24.840	1035.238	834.956
56.359	24.913	1034.199	834.386
57.374	24.744	1032.705	832.319
58.388	24.765	1032.196	831.934
59.403	24.670	1031.739	831.050
60.417	24.480	1030.803	829.340
61.432	24.574	1030.381	829.365
62.447	24.813	1029.337	829.558
63.461	24.644	1028.946	828.388
64.476	24.753	1027.417	827.589
65.490	24.632	1026.654	826.340
66.505	24.669	1026.163	826.044
67.520	24.729	1025.704	825.879
68.534	24.464	1024.138	823.319
69.549	24.195	1023.180	821.237
70.563	24.115	1022.865	820.546
71.578	24.167	1021.415	819.549
72.593	23.965	1021.294	818.448
73.607	24.143	1020.806	818.805
74.622	24.388	1020.418	819.547
75.636	24.479	1019.364	819.044
76.651	24.489	1018.082	817.986
77.666	24.218	1018.059	816.656
78.680	24.339	1016.902	816.209
79.695	24.445	1016.691	816.452
80.709	24.441	1016.280	816.029
81.724	24.532	1014.899	815.264
82.739	24.596	1014.208	814.932
83.753	25.010	1013.522	816.192
84.768	25.300	1013.141	817.135
85.782	25.204	1012.675	816.251
86.797	25.117	1011.129	814.535
87.812	25.072	1010.227	813.535
88.826	25.172	1009.097	813.004
89.841	25.198	1008.474	812.547
90.855	25.253	1007.339	811.810
91.870	25.169	1006.546	810.722
92.884	25.058	1005.428	809.247
93.899	25.104	1004.128	808.337
94.914	25.242	1003.685	808.531
95.928	24.968	1002.673	806.409
96.943	24.790	1001.735	804.783
97.957	24.525	1000.262	802.340
98.972	24.455	999.386	801.250
99.987	24.654	998.961	801.731
101.001	24.910	997.813	801.884
102.016	24.824	996.994	800.772
103.030	24.825	996.140	800.021
104.045	24.673	995.268	798.572
105.060	24.586	994.190	797.246
106.074	24.718	993.729	797.394
107.089	24.937	993.109	797.804
108.103	24.808	992.110	796.357
109.118	24.807	990.970	795.364
110.133	24.661	989.959	793.836
111.147	24.481	988.673	791.933
112.162	24.365	987.908	790.737
113.176	24.614	987.604	791.529
114.191	24.456	986.846	790.149
115.206	24.163	985.531	787.732
116.220	24.120	984.899	786.968
117.235	24.374	984.054	787.343
118.249	24.292	983.148	786.187
119.264	24.225	982.440	785.256
120.279	24.288	981.898	785.034
121.293	24.395	980.857	784.601
122.308	24.315	980.388	783.803
123.322	24.374	978.933	782.833
124.337	24.152	977.695	780.801
125.352	23.643	976.108	777.233
126.366	23.543	975.517	776.259
127.381	24.451	975.340	780.018
128.395	24.742	975.230	781.131
129.410	24.881	974.049	780.724
130.424	24.922	973.082	780.057
131.439	24.869	971.803	778.733
132.454	24.937	971.024	778.337
133.468	24.833	970.002	776.998
134.483	24.939	969.989	777.377
135.497	25.132	968.986	777.341
136.512	25.105	968.074	776.424
137.527	25.118	967.329	775.813
138.541	25.150	966.613	775.312
139.556	25.105	966.026	774.575
140.570	25.226	965.258	774.413
141.585	25.287	963.701	773.361
142.600	25.117	963.079	772.058
143.614	25.368	962.753	772.811
144.629	25.407	961.567	771.957
145.643	25.239	960.671	770.449
146.658	25.186	959.377	769.117
147.673	25.169	958.110	767.958
148.687	24.929	957.540	766.407
149.702	24.876	956.203	765.042
150.716	24.713	955.715	763.888
151.731	25.055	954.668	764.441
152.746	25.282	954.441	765.160
153.760	25.340	953.878	764.890
154.775	25.382	953.093	764.373
155.789	25.324	952.228	763.363
156.804	25.255	951.148	762.137
157.819	25.344	950.534	761.955
158.833	25.454	949.704	761.690
159.848	25.397	948.965	760.788
160.862	25.262	947.341	758.846
161.877	25.238	946.786	758.233
162.892	25.296	945.994	757.778
163.906	25.124	945.321	756.448
164.921	25.259	943.651	755.610
165.935	25.236	942.957	754.889
166.950	25.321	942.067	754.469
167.964	25.102	941.489	753.021
168.979	25.140	940.709	752.490
169.994	25.070	939.369	751.056
171.008	25.261	939.088	751.565
172.023	25.319	938.001	750.871
173.037	25.087	937.240	749.227
174.052	24.872	936.141	747.385
175.067	25.064	935.284	747.435
176.081	24.874	935.559	746.795
177.096	24.969	934.350	746.161
178.110	24.666	933.384	744.061
179.125	24.440	932.946	742.706
180.140	24.691	932.232	743.118
181.154	24.862	931.916	743.509
182.169	25.130	931.848	744.501
183.183	25.239	931.893	744.926
184.198	25.151	930.360	743.268
185.213	25.192	929.626	742.785
186.227	25.193	929.277	742.445
187.242	25.253	928.779	742.229
188.256	25.194	927.969	741.273
189.271	25.514	926.738	741.546
190.286	25.058	925.601	738.690
191.300	24.274	925.061	734.965
192.315	23.536	923.221	730.397
193.329	23.568	922.689	730.047
194.344	24.554	923.121	734.379
195.359	25.137	922.902	736.536
196.373	25.282	922.803	736.984
197.388	25.114	921.605	735.275
198.402	25.148	921.227	735.048
199.417	25.231	920.660	734.869
200.432	24.865	919.825	732.641
201.446	24.726	919.331	731.613
202.461	25.002	918.086	731.687
203.475	23.952	916.800	726.312
204.490	23.241	915.381	722.225
205.504	24.288	915.411	726.451
206.519	24.784	915.466	728.451
207.534	24.927	914.955	728.563
208.548	25.344	914.969	730.207
209.563	24.853	914.127	727.473
210.577	24.899	913.385	727.007
211.592	25.487	912.651	728.743
212.607	25.454	912.037	728.054
213.621	25.530	911.391	727.781
214.636	25.313	911.189	726.679
215.650	25.379	910.019	725.945
216.665	25.338	909.700	725.464
217.680	25.312	909.051	724.776
218.694	24.930	907.886	722.242
219.709	24.688	907.361	720.786
220.723	25.106	906.657	721.847
221.738	25.279	906.104	722.038
222.753	25.054	905.806	720.831
223.767	25.217	905.139	720.890
224.782	25.524	904.998	721.948
225.796	25.395	904.530	720.992
226.811	24.787	902.699	717.035
227.826	24.130	901.456	713.355
228.840	24.258	901.476	713.820
229.855	24.262	900.854	713.279
230.869	24.000	899.478	711.081
231.884	24.639	899.096	713.267
232.899	25.211	899.281	715.633
233.913	24.981	898.926	714.368
234.928	25.082	898.310	714.219
235.942	25.124	897.357	713.565
236.957	24.673	896.635	711.134
237.972	24.746	895.865	710.752
238.986	24.860	895.673	710.986
240.001	24.754	895.165	710.102
241.015	24.945	894.814	710.518
242.030	25.052	894.002	710.233
243.045	25.137	893.620	710.205
244.059	25.205	893.331	710.180
245.074	25.116	892.404	709.028
246.088	24.743	891.320	706.633
247.103	25.147	890.848	707.789
248.117	25.597	891.363	709.912
249.132	25.760	890.855	710.089
250.147	25.893	890.231	710.054
251.161	26.043	889.660	710.124
252.176	26.107	888.893	709.701
253.190	26.115	888.359	709.246
254.205	26.177	888.613	709.625
255.220	26.261	887.356	708.890
256.234	26.022	886.887	707.516
257.249	25.933	886.045	706.432
258.263	26.031	885.230	706.103
259.278	26.146	884.653	706.030
260.293	26.186	883.850	705.484
261.307	25.898	883.392	703.929
262.322	25.727	882.578	702.552
263.336	25.084	880.233	698.122
264.351	24.172	878.763	693.345
265.366	24.171	878.456	693.038
266.380	25.349	879.102	698.067
267.395	25.739	878.974	699.422
268.409	25.567	878.499	698.314
269.424	25.802	878.296	699.004
270.439	25.782	877.443	698.185
271.453	25.872	877.013	698.128
272.468	26.173	876.435	698.773
273.482	26.148	876.012	698.277
274.497	25.752	874.825	695.740
275.512	25.409	874.017	693.711
276.526	25.852	873.748	695.145
277.541	25.729	873.654	694.535
278.555	25.766	872.785	693.923
279.570	25.603	871.931	692.555
280.585	25.886	871.220	693.019
281.599	25.753	870.338	691.746
282.614	25.204	868.943	688.469
283.628	25.097	868.446	687.602
284.643	25.534	868.746	689.458
285.657	24.988	867.446	686.273
286.672	24.791	866.535	684.738
287.687	25.439	866.877	687.426
288.701	25.504	866.168	687.055
289.716	25.099	865.331	684.780
290.730	25.163	864.416	684.240
291.745	24.903	863.434	682.411
292.760	25.230	863.637	683.756
293.774	25.977	864.430	687.174
294.789	26.352	863.997	688.197
295.803	26.478	863.131	687.927
296.818	26.433	862.476	687.172
297.833	25.918	861.426	684.321
298.847	25.929	860.610	683.651
299.862	26.129	860.467	684.238
300.876	26.334	860.442	684.934
301.891	26.306	859.423	683.954
302.906	25.874	858.773	681.743
303.920	26.134	858.328	682.314
304.935	26.506	858.233	683.582
305.949	26.345	857.492	682.323
306.964	26.102	856.634	680.664
307.979	26.229	856.206	680.744
308.993	26.517	856.049	681.643
310.008	26.509	855.383	681.021
311.022	26.328	854.035	679.207
312.037	26.269	853.724	678.680
313.052	25.853	852.999	676.479
314.066	24.985	851.531	672.001
315.081	24.623	850.992	670.159
316.095	25.577	851.310	673.927
317.110	25.918	851.140	675.010
318.125	25.140	849.509	670.750
319.139	24.116	848.193	665.826
320.154	24.219	847.726	665.782
321.168	25.016	848.230	669.100
322.183	25.811	847.992	671.820
323.197	25.829	847.997	671.828
324.212	26.058	847.554	672.272
325.227	26.246	846.824	672.333
326.241	26.067	846.092	671.028
327.256	25.841	845.891	669.970
328.270	25.837	845.079	669.252
329.285	25.560	844.234	667.494
330.300	25.490	843.263	666.408
331.314	25.773	842.870	667.088
332.329	26.162	843.053	668.615
333.343	26.235	842.848	668.664
334.358	26.200	842.317	668.054
335.373	26.264	842.032	668.004
336.387	26.543	842.059	668.999
337.402	26.862	841.598	669.751
338.416	26.734	841.078	668.805
339.431	26.837	840.720	668.842
340.446	26.993	840.409	669.109
341.460	26.842	840.306	668.414
342.475	26.681	839.476	667.101
343.489	26.689	839.272	666.907
344.504	26.935	839.092	667.611
345.519	26.993	839.052	667.735
346.533	27.157	838.357	667.724
347.548	27.140	837.697	667.078
348.562	26.997	837.242	666.130
349.577	27.041	836.285	665.473
350.592	26.995	835.801	664.861
351.606	27.010	835.089	664.290
352.621	26.849	834.023	662.792
353.635	26.779	833.541	662.096
354.650	26.022	832.042	658.085
355.665	25.072	830.380	653.254
356.679	25.574	830.426	655.062
357.694	26.128	830.040	656.716
358.708	26.071	829.250	655.823
359.723	26.397	829.416	657.083
360.738	26.655	828.997	657.630
361.752	26.774	828.818	657.862
362.767	27.233	828.423	659.155
363.781	27.311	828.337	659.308
364.796	27.466	827.532	659.170
365.810	27.348	827.428	658.603
366.825	27.438	826.565	658.185
367.840	27.284	825.624	656.818
368.854	26.794	824.732	654.283
369.869	26.848	824.639	654.348
370.883	26.760	824.247	653.660
371.898	26.706	823.796	653.053
372.913	26.926	823.099	653.231
373.927	27.009	822.788	653.227
374.942	26.932	822.787	652.892
375.956	27.171	822.556	653.510
376.971	27.223	821.838	653.069
377.986	27.433	821.578	653.557
379.000	27.382	820.897	652.774
380.015	27.198	820.420	651.677
381.029	27.268	819.891	651.452
382.044	27.376	819.211	651.240
383.059	27.341	818.909	650.818
384.073	27.482	818.033	650.568
385.088	27.392	817.501	649.766
386.102	27.136	816.677	648.140
387.117	27.262	816.043	648.028
388.132	26.884	815.010	645.803
389.146	26.417	813.870	643.185
390.161	26.746	814.227	644.581
391.175	26.991	814.270	645.428
392.190	26.815	812.764	643.553
393.205	25.476	810.736	637.146
394.219	23.919	808.933	630.161
395.234	23.896	808.914	630.007
396.248	25.455	810.248	636.519
397.263	26.912	811.156	642.339
398.278	26.922	810.495	641.794
399.292	26.737	809.785	640.520
400.307	26.714	809.433	640.104
401.321	26.698	809.116	639.739
402.336	27.168	808.884	641.160
403.350	27.465	809.112	642.329
404.365	27.853	808.835	643.422
405.380	28.063	808.311	643.688
406.394	28.103	808.150	643.642
407.409	28.140	807.426	643.137
408.423	28.054	806.966	642.414
409.438	28.064	806.722	642.196
410.453	28.023	806.222	641.600
411.467	28.138	805.570	641.427
412.482	28.071	805.605	641.161
413.496	28.188	805.033	641.062
414.511	28.037	804.943	640.404
415.526	28.172	804.558	640.513
416.540	28.138	803.518	639.507
417.555	27.800	802.921	637.797
418.569	27.742	802.866	637.495
419.584	27.793	802.025	636.949
420.599	27.717	801.271	636.027
421.613	110.923	1287.015	1460.220
422.628	95.686	1357.777	1460.308
