DTS Sentinel unit serial number:	SN413079Multiplexer serial number:	ORYXHardware model number:	OX4-SRSoftware version number:	ORYX F/W v4.00 Oryx Data Collector v3.7.2.0data status	okinstallation	princeton_trtdifferential loss correction	single-endedforward channel	channel 1reverse channel	N/Adate	2019/09/19time	05:18:35forward acquisition time	60.00reverse acquisition time	0.00gamma	496.2192k internal	0.2343k external	0.2343temperature offset calibration	1.0019default loss term (dB/km)	0.3790temperature slope calibration	1.0000multiplexer offset coefficient	1.0000multiplexer slope coefficient	1.0000fibre end	0.00T internal ref (°C)	19.48T ext. ref 1 (°C)	0.60T ext. ref 2 (°C)	12.76length (m)	temperature (°C)	Stokes	anti-Stokes-747.200	-17.879	-0.162	0.102
-746.185	342.095	0.112	-0.220
-745.171	350.517	-0.106	0.210
-744.156	485.478	-0.144	0.328
-743.142	365.849	0.075	0.151
-742.127	-200.000	0.058	0.395
-741.112	-200.000	0.059	0.323
-740.098	41.002	-0.533	0.482
-739.083	140.828	-0.172	0.228
-738.069	10.370	-0.104	0.080
-737.054	-200.000	0.022	0.256
-736.039	-161.724	-0.431	0.022
-735.025	224.823	-0.039	0.063
-734.010	-36.573	-0.191	-0.103
-732.996	-200.000	-0.042	-0.189
-731.981	0.593	0.397	-0.284
-730.966	-200.000	-0.004	-0.197
-729.952	-193.828	-0.508	-0.004
-728.937	-28.970	0.046	0.027
-727.923	-18.753	-0.127	0.079
-726.908	17.025	-0.470	0.373
-725.894	38.251	-0.375	0.334
-724.879	800.000	-0.053	0.229
-723.864	-200.000	-0.007	-0.190
-722.850	-174.450	-0.271	0.008
-721.835	367.213	-0.016	0.032
-720.821	277.510	0.150	0.267
-719.806	-63.877	0.150	0.061
-718.791	-19.041	0.139	0.086
-717.777	184.463	-0.067	0.099
-716.762	-200.000	0.028	-0.234
-715.748	237.608	0.108	0.179
-714.733	105.870	-0.217	-0.257
-713.718	-101.270	0.083	0.020
-712.704	-200.000	-0.026	-0.233
-711.689	-40.773	0.158	-0.082
-710.675	-77.562	-0.235	-0.081
-709.660	-165.015	-0.153	-0.007
-708.645	304.305	0.045	-0.084
-707.631	62.453	0.084	-0.084
-706.616	-200.000	0.014	0.062
-705.602	800.000	-0.081	0.231
-704.587	18.171	0.133	-0.106
-703.572	-200.000	0.028	0.259
-702.558	800.000	-0.069	-0.229
-701.543	-10.177	-0.183	-0.121
-700.529	1.830	0.273	0.197
-699.514	370.101	0.093	-0.189
-698.499	-195.706	-0.176	0.001
-697.485	-77.348	0.200	-0.070
-696.470	-184.479	-0.488	-0.008
-695.456	-200.000	-0.015	0.184
-694.441	-200.000	-0.007	0.062
-693.426	-29.369	-0.126	0.072
-692.412	-200.000	0.008	-0.129
-691.397	687.574	-0.032	-0.083
-690.383	139.678	-0.034	-0.045
-689.368	390.336	0.143	-0.296
-688.354	-200.000	-0.062	-0.427
-687.339	800.000	-0.043	0.159
-686.324	47.332	0.238	-0.222
-685.310	-164.190	0.157	-0.007
-684.295	588.654	-0.017	-0.041
-683.281	182.969	-0.048	0.070
-682.266	-60.501	-0.080	-0.034
-681.251	53.868	-0.099	-0.095
-680.237	57.752	0.169	0.165
-679.222	205.505	-0.212	0.329
-678.208	-2.285	-0.115	0.081
-677.193	-179.503	0.252	0.006
-676.178	800.000	-0.068	0.254
-675.164	504.636	-0.051	0.119
-674.149	-96.356	0.040	0.011
-673.135	-3.955	0.310	-0.215
-672.120	800.000	-0.080	0.284
-671.105	0.010	0.106	-0.075
-670.091	-182.492	-0.384	0.007
-669.076	-186.823	0.279	0.004
-668.062	-153.500	-0.153	-0.011
-667.047	-200.000	0.019	0.140
-666.032	203.141	0.022	-0.034
-665.018	-16.471	-0.269	0.170
-664.003	44.641	0.119	0.110
-662.989	-27.603	-0.291	-0.168
-661.974	800.000	-0.074	-0.218
-660.959	-141.297	0.114	0.012
-659.945	-200.000	0.000	-0.225
-658.930	-200.000	-0.001	-0.171
-657.916	96.494	-0.105	0.119
-656.901	-66.608	0.075	-0.030
-655.886	-200.000	0.064	-0.361
-654.872	-151.357	0.355	-0.026
-653.857	-200.000	-0.037	-0.343
-652.843	-91.618	-0.195	-0.055
-651.828	192.564	-0.174	-0.262
-650.814	-63.900	-0.154	0.063
-649.799	246.611	0.213	0.358
-648.784	-59.313	-0.421	0.181
-647.770	210.566	-0.145	0.227
-646.755	-56.799	-0.092	-0.041
-645.741	137.258	-0.050	-0.065
-644.726	800.000	-0.079	-0.253
-643.711	348.674	-0.037	0.073
-642.697	-200.000	0.004	0.095
-641.682	548.120	0.063	-0.152
-640.668	45.800	-0.087	-0.080
-639.653	198.725	-0.034	0.051
-638.638	17.142	0.123	-0.097
-637.624	98.301	-0.082	0.094
-636.609	800.000	-0.063	0.213
-635.595	-103.764	-0.091	-0.021
-634.580	-200.000	0.002	0.306
-633.565	21.227	0.119	-0.096
-632.551	795.526	0.055	-0.152
-631.536	-200.000	-0.043	0.261
-630.522	-17.062	0.102	0.064
-629.507	225.651	0.034	0.054
-628.492	-200.000	0.076	0.447
-627.478	252.699	-0.034	0.058
-626.463	179.137	0.129	0.188
-625.449	54.531	-0.135	-0.130
-624.434	126.002	0.185	-0.233
-623.419	-76.089	-0.265	-0.093
-622.405	208.972	0.138	0.215
-621.390	-85.496	-0.238	0.074
-620.376	-200.000	-0.017	0.248
-619.361	-200.000	-0.014	-0.327
-618.346	-200.000	0.016	-0.105
-617.332	588.336	0.103	0.253
-616.317	-200.000	0.010	0.155
-615.303	800.000	-0.031	-0.125
-614.288	800.000	-0.078	-0.292
-613.273	-200.000	-0.060	0.298
-612.259	-155.157	-0.230	-0.015
-611.244	67.149	0.151	-0.153
-610.230	-200.000	0.089	0.452
-609.215	597.169	0.059	-0.146
-608.201	-22.488	0.206	-0.124
-607.186	-158.356	0.117	0.007
-606.171	800.000	0.085	-0.304
-605.157	-141.586	-0.183	-0.018
-604.142	337.682	-0.143	0.276
-603.128	-200.000	-0.006	0.203
-602.113	140.398	-0.177	-0.232
-601.098	-200.000	0.006	-0.116
-600.084	-45.411	0.073	0.036
-599.069	588.835	-0.093	0.229
-598.055	-73.445	-0.191	-0.069
-597.040	211.199	0.114	0.178
-596.025	800.000	-0.067	-0.279
-595.011	-15.234	-0.262	0.167
-593.996	800.000	0.021	0.071
-592.982	294.695	0.069	0.126
-591.967	-200.000	-0.031	0.289
-590.952	-200.000	-0.030	-0.173
-589.938	-200.000	-0.050	0.232
-588.923	224.098	-0.158	0.254
-587.909	-38.953	0.095	0.050
-586.894	207.548	0.174	0.270
-585.879	-200.000	-0.182	-0.001
-584.865	-200.000	-0.004	0.286
-583.850	-200.000	0.060	0.376
-582.836	-200.000	-0.010	0.124
-581.821	-172.696	-0.442	-0.014
-580.806	-200.000	-0.010	0.051
-579.792	17.038	-0.210	-0.165
-578.777	-200.000	0.003	0.082
-577.763	-176.258	-0.212	0.006
-576.748	-200.000	-0.001	0.193
-575.733	-144.239	0.243	-0.023
-574.719	-101.097	-0.212	0.052
-573.704	-156.623	-0.126	0.008
-572.690	-8.237	0.217	-0.145
-571.675	-1.622	-0.142	-0.100
-570.661	-200.000	-0.039	0.280
-569.646	249.963	-0.091	-0.153
-568.631	-91.113	-0.240	0.069
-567.617	-132.041	-0.180	0.023
-566.602	549.845	-0.100	-0.238
-565.588	123.338	-0.172	-0.214
-564.573	290.392	-0.174	0.314
-563.558	800.000	-0.066	-0.252
-562.544	-200.000	0.026	-0.174
-561.529	18.765	0.110	-0.087
-560.515	-70.425	0.024	0.009
-559.500	-122.245	-0.298	0.048
-558.485	124.513	-0.079	0.099
-557.471	118.083	-0.112	0.138
-556.456	473.303	0.027	0.061
-555.442	102.340	0.071	0.083
-554.427	-200.000	0.014	0.126
-553.412	-97.300	0.087	0.022
-552.398	-200.000	-0.058	-0.430
-551.383	800.000	0.043	-0.176
-550.369	27.074	-0.247	-0.206
-549.354	51.718	0.062	-0.058
-548.339	201.463	0.131	0.201
-547.325	-150.115	0.456	-0.035
-546.310	-31.530	0.117	0.066
-545.296	526.833	-0.023	-0.054
-544.281	-52.442	0.266	-0.122
-543.266	-64.925	0.107	0.043
-542.252	-56.434	-0.129	-0.057
-541.237	-91.439	0.256	0.073
-540.223	-4.652	-0.127	-0.087
-539.208	-200.000	-0.031	-0.219
-538.193	86.872	0.338	0.371
-537.179	122.354	-0.162	-0.201
-536.164	800.000	-0.126	-0.450
-535.150	107.622	-0.148	0.175
-534.135	639.738	0.062	0.157
-533.121	229.426	-0.042	0.067
-532.106	-82.022	-0.183	-0.059
-531.091	-177.215	-0.059	-0.001
-530.077	-107.836	-0.312	-0.067
-529.062	-67.964	0.295	-0.114
-528.048	-45.798	-0.168	-0.082
-527.033	145.810	-0.181	0.240
-526.018	36.641	0.289	-0.254
-525.004	53.676	-0.143	0.137
-523.989	96.050	-0.133	-0.150
-522.975	209.222	-0.149	-0.231
-521.960	-129.936	0.341	-0.046
-520.945	61.177	-0.078	0.076
-519.931	-122.431	-0.015	0.002
-518.916	27.610	0.078	-0.065
-517.902	62.803	-0.039	-0.039
-516.887	-200.000	-0.012	-0.100
-515.872	-200.000	0.031	-0.201
-514.858	-200.000	0.034	-0.187
-513.843	416.643	-0.077	0.162
-512.829	800.000	0.087	0.306
-511.814	-180.751	0.290	0.006
-510.799	-38.407	-0.266	0.140
-509.785	-96.209	0.375	0.099
-508.770	800.000	0.060	-0.204
-507.756	-79.536	-0.149	0.050
-506.741	-94.181	0.344	-0.093
-505.726	-50.060	0.084	-0.039
-504.712	754.836	0.109	0.291
-503.697	56.143	0.166	0.160
-502.683	349.508	-0.186	-0.364
-501.668	-143.842	0.036	0.003
-500.653	155.959	-0.147	-0.201
-499.639	-200.000	-0.034	0.451
-498.624	-200.000	-0.036	0.296
-497.610	-200.000	0.020	0.166
-496.595	-100.549	0.255	-0.063
-495.581	19.457	0.046	-0.036
-494.566	-200.000	-0.029	0.156
-493.551	-21.131	-0.049	0.029
-492.537	96.019	0.185	-0.209
-491.522	475.716	0.144	-0.323
-490.508	-50.701	0.034	0.016
-489.493	-32.962	0.103	-0.057
-488.478	149.840	0.224	0.301
-487.464	-89.202	0.263	-0.077
-486.449	-200.000	0.033	-0.165
-485.435	-184.335	-0.342	-0.006
-484.420	193.605	0.120	-0.181
-483.405	245.316	0.083	-0.138
-482.391	-15.482	-0.226	0.143
-481.376	142.041	0.186	0.244
-480.362	-8.670	-0.087	-0.058
-479.347	85.313	0.267	-0.290
-478.332	-2.744	0.174	0.120
-477.318	-200.000	0.014	-0.159
-476.303	-95.382	-0.145	-0.039
-475.289	-200.000	-0.059	-0.275
-474.274	800.000	0.020	-0.060
-473.259	-200.000	-0.037	-0.166
-472.245	239.464	0.112	0.184
-471.230	-200.000	0.001	0.488
-470.216	-167.359	0.010	-0.000
-469.201	-77.038	0.332	0.115
-468.186	91.003	-0.123	-0.137
-467.172	-49.318	-0.198	0.093
-466.157	-200.000	0.022	0.124
-465.143	515.053	-0.113	0.262
-464.128	-16.176	-0.168	0.105
-463.113	-78.590	-0.058	0.020
-462.099	800.000	-0.071	0.210
-461.084	190.495	-0.168	0.250
-460.070	-175.120	-0.048	-0.001
-459.055	222.050	-0.035	-0.056
-458.040	-15.311	-0.236	0.150
-457.026	33.344	0.133	0.115
-456.011	179.208	0.104	-0.150
-454.997	75.331	-0.121	0.126
-453.982	-200.000	-0.022	-0.332
-452.968	13.040	-0.242	-0.185
-451.953	-35.080	0.285	0.154
-450.938	652.562	0.158	-0.401
-449.924	-27.257	-0.507	0.292
-448.909	-20.148	0.084	0.051
-447.895	21.597	0.244	0.196
-446.880	-94.441	-0.156	0.042
-445.865	-200.000	0.011	-0.303
-444.851	25.104	-0.057	0.047
-443.836	-33.251	0.193	0.106
-442.822	308.751	-0.143	0.264
-441.807	-122.638	0.264	-0.042
-440.792	-200.000	0.004	0.212
-439.778	-79.661	-0.008	0.003
-438.763	151.222	0.082	0.110
-437.749	41.878	0.130	-0.116
-436.734	-200.000	-0.076	-0.352
-435.719	73.769	-0.071	0.073
-434.705	11.079	0.260	0.197
-433.690	800.000	-0.076	-0.239
-432.676	130.958	-0.266	-0.337
-431.661	37.907	-0.104	0.091
-430.646	-169.262	0.120	-0.004
-429.632	-54.656	-0.053	-0.024
-428.617	-199.236	0.241	0.001
-427.603	-200.000	0.033	-0.145
-426.588	-37.860	0.325	0.171
-425.573	-155.459	-0.106	-0.007
-424.559	-200.000	-0.061	-0.269
-423.544	218.555	0.101	-0.160
-422.530	94.920	0.417	-0.469
-421.515	-138.525	0.145	0.016
-420.500	123.961	-0.208	-0.259
-419.486	-172.508	0.047	-0.001
-418.471	-137.226	-0.676	-0.076
-417.457	-110.252	0.227	0.047
-416.442	-200.000	-0.092	-0.472
-415.428	239.733	0.120	0.198
-414.413	-62.437	-0.141	-0.058
-413.398	-200.000	-0.011	0.086
-412.384	-51.256	-0.262	0.121
-411.369	204.874	-0.017	0.026
-410.355	-8.732	-0.262	0.173
-409.340	800.000	0.011	0.040
-408.325	144.614	-0.171	-0.226
-407.311	755.911	0.139	-0.372
-406.296	-46.656	-0.396	0.192
-405.282	-200.000	-0.047	0.296
-404.267	-23.806	0.278	-0.165
-403.252	800.000	0.109	0.328
-402.238	-26.312	0.233	-0.135
-401.223	17.954	0.182	0.143
-400.209	-49.364	0.134	0.063
-399.194	800.000	-0.006	0.027
-398.179	-110.005	0.145	0.030
-397.165	71.085	0.058	-0.059
-396.150	-200.000	-0.017	-0.175
-395.136	334.900	0.048	-0.093
-394.121	-179.644	0.204	0.004
-393.106	-200.000	0.061	0.389
-392.092	-47.850	-0.152	0.073
-391.077	316.497	0.065	0.121
-390.063	-200.000	0.042	0.188
-389.048	109.111	-0.182	0.215
-388.033	387.378	-0.071	0.146
-387.019	-200.000	-0.063	0.304
-386.004	116.647	0.123	-0.149
-384.990	-183.964	-0.190	0.003
-383.975	-200.000	-0.027	0.222
-382.960	85.013	0.084	0.091
-381.946	-13.564	-0.024	-0.016
-380.931	800.000	-0.052	-0.162
-379.917	694.003	0.102	-0.263
-378.902	446.523	0.060	-0.130
-377.888	-117.241	0.340	0.061
-376.873	-200.000	-0.062	0.365
-375.858	502.992	-0.133	-0.304
-374.844	-200.000	0.028	-0.125
-373.829	-200.000	0.024	-0.326
-372.815	604.842	0.047	-0.115
-371.800	69.801	-0.053	0.054
-370.785	11.726	0.139	0.105
-369.771	504.678	0.054	-0.124
-368.756	-200.000	-0.039	-0.227
-367.742	181.496	-0.051	-0.074
-366.727	14.975	0.084	-0.065
-365.712	-200.000	0.028	-0.210
-364.698	-200.000	-0.041	0.310
-363.683	132.023	0.063	-0.080
-362.669	-121.058	0.270	-0.045
-361.654	-140.320	0.228	-0.024
-360.639	-41.896	-0.236	0.119
-359.625	-200.000	-0.012	-0.109
-358.610	-76.824	-0.532	-0.183
-357.596	-100.120	0.139	0.034
-356.581	800.000	-0.116	-0.456
-355.566	-1.599	0.061	0.043
-354.552	-200.000	-0.013	0.081
-353.537	-22.221	-0.262	-0.156
-352.523	26.111	-0.219	0.181
-351.508	545.722	0.143	0.336
-350.493	-40.136	0.211	0.108
-349.479	136.567	-0.128	-0.165
-348.464	-200.000	0.064	-0.471
-347.450	408.777	0.216	-0.450
-346.435	264.611	-0.212	0.364
-345.420	164.254	-0.097	-0.134
-344.406	-200.000	0.019	0.405
-343.391	15.639	0.176	-0.137
-342.377	800.000	-0.072	-0.215
-341.362	226.869	0.052	-0.083
-340.348	800.000	-0.076	0.231
-339.333	-200.000	0.019	0.333
-338.318	-200.000	-0.008	0.197
-337.304	426.291	-0.060	0.127
-336.289	-164.750	0.369	0.016
-335.275	-66.138	0.230	-0.090
-334.260	-200.000	-0.082	-0.471
-333.245	-148.253	0.440	0.036
-332.231	-68.564	-0.087	-0.033
-331.216	-129.974	0.260	-0.035
-330.202	-90.395	0.290	-0.083
-329.187	674.972	-0.059	-0.152
-328.172	119.882	-0.165	0.201
-327.158	71.900	-0.386	0.395
-326.143	-200.000	0.033	0.201
-325.129	131.335	0.084	-0.106
-324.114	-21.149	0.067	0.040
-323.099	-121.657	-0.141	0.023
-322.085	-116.330	0.290	-0.053
-321.070	800.000	0.113	0.450
-320.056	-62.488	-0.096	-0.039
-319.041	-136.707	-0.402	-0.046
-318.026	19.198	0.343	-0.271
-317.012	679.072	-0.115	0.293
-315.997	-200.000	-0.002	0.119
-314.983	-166.885	0.233	-0.009
-313.968	23.492	-0.035	0.029
-312.953	-44.602	-0.170	0.084
-311.939	-126.791	0.247	-0.036
-310.924	-37.303	-0.289	0.152
-309.910	17.625	0.193	0.151
-308.895	250.180	0.203	-0.339
-307.880	800.000	0.019	0.057
-306.866	-122.598	-0.237	-0.038
-305.851	-102.437	-0.214	-0.050
-304.837	347.836	0.022	-0.043
-303.822	265.488	0.063	-0.109
-302.807	-200.000	0.015	0.094
-301.793	117.298	0.113	-0.137
-300.778	800.000	0.095	-0.257
-299.764	-200.000	0.060	-0.265
-298.749	77.674	-0.192	-0.201
-297.735	205.787	-0.161	-0.246
-296.720	800.000	0.040	-0.163
-295.705	217.694	-0.205	-0.322
-294.691	712.750	-0.171	-0.445
-293.676	312.670	0.071	-0.132
-292.662	-101.523	0.404	0.097
-291.647	298.146	-0.074	-0.134
-290.632	57.433	-0.120	0.116
-289.618	373.194	-0.065	0.129
-288.603	-82.775	0.195	-0.062
-287.589	-200.000	-0.017	0.143
-286.574	-200.000	0.005	0.178
-285.559	-193.514	0.329	-0.003
-284.545	800.000	-0.115	-0.398
-283.530	100.641	0.179	0.204
-282.516	-148.892	0.577	0.046
-281.501	26.264	-0.125	-0.103
-280.486	-37.097	0.113	-0.059
-279.472	-87.755	-0.365	-0.108
-278.457	203.091	-0.052	-0.079
-277.443	-37.902	0.108	-0.057
-276.428	-170.871	-0.174	0.006
-275.413	-101.972	0.267	-0.063
-274.399	-40.263	-0.235	-0.120
-273.384	-73.509	0.132	-0.047
-272.370	-62.960	-0.270	0.110
-271.355	157.024	-0.070	0.095
-270.340	-116.252	0.462	0.084
-269.326	-1.659	-0.135	0.094
-268.311	800.000	-0.088	-0.339
-267.297	800.000	0.052	0.196
-266.282	173.123	0.097	0.137
-265.267	299.145	-0.177	0.320
-264.253	140.653	0.265	0.345
-263.238	-200.000	-0.013	0.272
-262.224	238.811	0.048	-0.078
-261.209	62.619	-0.131	-0.129
-260.195	-200.000	-0.012	-0.210
-259.180	-200.000	-0.036	0.437
-258.165	36.105	0.110	-0.096
-257.151	-53.662	0.081	0.037
-256.136	679.933	-0.035	0.090
-255.122	133.148	0.223	0.283
-254.107	-200.000	0.053	0.257
-253.092	14.259	-0.232	0.177
-252.078	545.330	0.016	-0.038
-251.063	-200.000	-0.017	-0.243
-250.049	-124.628	0.133	-0.020
-249.034	800.000	-0.084	-0.250
-248.019	18.803	0.145	-0.114
-247.005	28.205	-0.232	0.193
-245.990	-200.000	0.010	-0.049
-244.976	-107.779	-0.069	-0.015
-243.961	344.384	-0.047	0.090
-242.946	288.072	-0.048	0.085
-241.932	212.267	0.062	0.096
-240.917	122.014	-0.140	-0.172
-239.903	45.840	0.136	0.123
-238.888	-72.844	0.174	-0.063
-237.873	-11.571	0.062	0.040
-236.859	419.567	-0.131	-0.276
-235.844	-19.831	-0.216	0.131
-234.830	-20.612	0.356	0.214
-233.815	79.638	-0.202	-0.213
-232.800	-117.828	-0.410	0.072
-231.786	-87.736	-0.168	0.050
-230.771	800.000	0.014	-0.043
-229.757	113.795	-0.083	0.099
-228.742	412.509	0.063	0.131
-227.727	264.666	-0.031	-0.053
-226.713	187.788	0.201	-0.294
-225.698	16.182	0.135	0.104
-224.684	174.931	-0.047	-0.066
-223.669	-92.373	-0.169	-0.047
-222.655	31.965	0.106	0.090
-221.640	-200.000	0.041	-0.185
-220.625	-200.000	-0.022	-0.129
-219.611	-200.000	-0.040	-0.198
-218.596	800.000	-0.082	0.260
-217.582	-200.000	-0.048	0.228
-216.567	148.654	0.185	-0.246
-215.552	-75.654	-0.044	0.015
-214.538	-150.965	-0.159	0.012
-213.523	-72.221	0.225	0.082
-212.509	-115.995	0.225	-0.041
-211.494	-157.544	0.065	0.004
-210.479	-200.000	0.043	0.259
-209.465	330.507	-0.049	0.093
-208.450	9.192	0.363	-0.269
-207.436	-78.808	0.140	0.047
-206.421	68.462	-0.264	-0.265
-205.406	13.176	0.103	-0.078
-204.392	-100.234	0.212	-0.052
-203.377	194.252	-0.153	-0.227
-202.363	800.000	-0.077	-0.237
-201.348	80.004	-0.083	-0.088
-200.333	540.353	-0.070	0.164
-199.319	-79.725	-0.287	-0.095
-198.304	28.803	0.168	0.140
-197.290	-200.000	-0.021	0.147
-196.275	563.611	0.131	-0.310
-195.260	-121.211	-0.121	-0.020
-194.246	63.947	0.054	0.053
-193.231	-126.070	-0.356	0.052
-192.217	800.000	-0.033	0.134
-191.202	800.000	0.046	0.127
-190.187	-113.318	0.165	0.032
-189.173	79.377	-0.129	0.136
-188.158	800.000	-0.106	-0.290
-187.144	-200.000	-0.020	0.237
-186.129	75.230	0.209	0.216
-185.114	800.000	-0.103	-0.315
-184.100	-111.957	-0.588	0.116
-183.085	120.016	-0.290	0.353
-182.071	647.683	-0.103	0.257
-181.056	-52.232	-0.407	-0.185
-180.042	800.000	-0.069	-0.230
-179.027	-200.000	0.012	0.229
-178.012	92.247	-0.174	0.192
-176.998	-191.400	0.158	0.002
-175.983	-4.630	0.568	-0.384
-174.969	-82.287	0.235	0.075
-173.954	13.105	-0.113	-0.086
-172.939	428.101	-0.062	-0.131
-171.925	675.599	0.162	-0.412
-170.910	-19.704	-0.088	0.054
-169.896	601.724	0.096	-0.234
-168.881	-56.595	-0.126	-0.055
-167.866	-56.072	-0.236	-0.103
-166.852	494.490	-0.075	-0.168
-165.837	66.859	0.261	-0.260
-164.823	229.560	0.054	0.087
-163.808	-88.676	-0.285	-0.083
-162.793	800.000	0.046	-0.162
-161.779	-13.839	0.119	0.075
-160.764	580.652	-0.210	0.504
-159.750	373.768	0.055	-0.110
-158.735	135.159	-0.127	0.162
-157.720	-108.255	0.060	0.013
-156.706	-150.323	0.333	-0.025
-155.691	-171.102	-0.288	0.010
-154.677	-108.838	0.517	0.108
-153.662	800.000	-0.068	-0.201
-152.647	-54.014	0.262	-0.117
-151.633	486.019	0.095	-0.211
-150.618	174.667	0.034	-0.047
-149.604	53.241	-0.220	-0.206
-148.589	-41.562	-0.138	-0.070
-147.574	-157.520	-0.205	-0.012
-146.560	253.076	0.036	-0.060
-145.545	-103.528	0.361	-0.083
-144.531	749.993	-0.130	0.343
-143.516	800.000	0.104	-0.317
-142.502	-172.141	0.247	-0.008
-141.487	-130.933	-0.284	-0.037
-140.472	-35.344	-0.317	0.168
-139.458	90.800	0.085	0.093
-138.443	-40.390	0.155	-0.079
-137.429	800.000	-0.056	0.170
-136.414	-22.745	-0.288	0.170
-135.399	-200.000	0.081	-0.417
-134.385	-200.000	0.001	-0.125
-133.370	-200.000	0.004	-0.053
-132.356	564.683	0.246	0.582
-131.341	-200.000	0.015	-0.185
-130.326	800.000	0.047	0.138
-129.312	-50.834	-0.125	0.058
-128.297	-173.246	0.167	-0.005
-127.283	137.701	-0.045	-0.058
-126.268	-126.116	-0.216	-0.032
-125.253	61.058	-0.239	-0.231
-124.239	-108.235	-0.417	-0.088
-123.224	-17.155	0.222	-0.137
-122.210	246.507	0.183	-0.302
-121.195	-69.496	0.074	-0.028
-120.180	11.750	0.110	-0.083
-119.166	-73.636	-0.122	0.044
-118.151	-200.000	0.057	0.275
-117.137	-177.731	0.062	-0.001
-116.122	135.912	-0.197	0.250
-115.107	227.252	0.170	0.270
-114.093	422.230	0.040	-0.084
-113.078	-106.899	0.202	0.044
-112.064	-23.064	-0.169	0.100
-111.049	-35.479	0.172	0.091
-110.034	-91.267	0.173	0.048
-109.020	131.128	-0.240	-0.301
-108.005	-77.152	-0.165	0.056
-106.991	800.000	-0.079	-0.265
-105.976	-200.000	0.022	0.356
-104.962	-31.116	-0.402	0.221
-103.947	-200.000	0.021	-0.299
-102.932	-126.204	0.162	-0.024
-101.918	249.102	0.045	-0.075
-100.903	800.000	-0.044	0.119
-99.889	-52.091	-0.309	0.140
-98.874	800.000	0.010	-0.036
-97.859	-146.103	-0.309	-0.027
-96.845	-45.210	0.128	-0.062
-95.830	-96.742	-0.212	0.054
-94.816	-2.394	0.086	0.059
-93.801	-69.544	0.174	-0.065
-92.786	158.851	-0.183	0.248
-91.772	-72.727	0.084	-0.030
-90.757	800.000	0.137	-0.470
-89.743	-105.293	-0.220	0.049
-88.728	116.756	0.259	0.311
-87.713	113.007	0.066	0.078
-86.699	-58.114	-0.116	-0.050
-85.684	-200.000	0.016	-0.265
-84.670	-200.000	0.012	0.197
-83.655	-110.972	-0.185	0.037
-82.640	89.340	0.405	-0.441
-81.626	-112.505	-0.244	-0.047
-80.611	140.513	-0.072	0.093
-79.597	800.000	-0.065	-0.179
-78.582	409.080	-0.070	0.146
-77.567	19.819	0.275	-0.216
-76.553	131.876	-0.065	-0.081
-75.538	410.721	-0.090	0.187
-74.524	800.000	0.065	-0.201
-73.509	31.064	0.027	-0.022
-72.494	52.147	0.201	0.187
-71.480	-134.834	-0.187	0.022
-70.465	205.783	-0.049	0.074
-69.451	448.619	0.171	-0.367
-68.436	-200.000	-0.016	0.219
-67.422	78.279	-0.148	-0.154
-66.407	328.165	0.030	0.056
-65.392	334.801	0.084	-0.159
-64.378	373.064	0.066	0.130
-63.363	-84.980	-0.074	-0.022
-62.349	-88.429	0.062	-0.018
-61.334	90.102	-1.129	-1.230
-60.319	47.773	0.995	0.906
-59.305	484.649	-0.655	-1.454
-58.290	765.978	0.649	1.720
-57.276	415.043	0.625	1.299
-56.261	-200.000	136.523	631.288
-55.246	344.556	1642.649	3141.984
-54.232	137.172	2774.002	3535.238
-53.217	82.591	2154.428	2280.575
-52.203	29.947	1591.061	1321.793
-51.188	22.355	1344.524	1070.928
-50.173	20.422	1310.681	1032.452
-49.159	46.835	1384.462	1253.805
-48.144	42.290	1392.931	1233.557
-47.130	22.552	1341.074	1069.210
-46.115	19.656	1322.491	1036.993
-45.100	19.470	1317.294	1031.767
-44.086	19.243	1315.182	1028.716
-43.071	19.479	1312.189	1027.742
-42.057	19.274	1310.744	1025.347
-41.042	19.286	1309.103	1024.097
-40.027	19.353	1307.285	1023.030
-39.013	19.421	1305.284	1021.825
-37.998	19.366	1303.542	1020.097
-36.984	19.440	1302.298	1019.518
-35.969	19.510	1300.633	1018.588
-34.954	19.465	1298.605	1016.693
-33.940	19.475	1297.586	1015.916
-32.925	19.550	1295.485	1014.671
-31.911	19.492	1294.461	1013.486
-30.896	19.555	1292.911	1012.603
-29.881	19.585	1291.679	1011.775
-28.867	19.683	1289.210	1010.376
-27.852	19.682	1288.119	1009.475
-26.838	19.636	1287.242	1008.476
-25.823	19.599	1285.972	1007.225
-24.809	19.569	1284.715	1006.026
-23.794	19.535	1283.490	1004.831
-22.779	19.515	1282.561	1003.944
-21.765	19.607	1280.996	1003.214
-20.750	19.526	1279.639	1001.640
-19.736	19.559	1278.282	1000.731
-18.721	19.458	1277.362	999.388
-17.706	19.468	1275.848	998.219
-16.692	19.456	1275.168	997.582
-15.677	19.435	1274.080	996.566
-14.663	19.503	1272.352	995.568
-13.648	19.365	1271.415	993.998
-12.633	19.466	1270.674	993.963
-11.619	19.446	1270.002	993.281
-10.604	19.412	1268.839	992.140
-9.590	19.405	1267.924	991.345
-8.575	19.378	1267.040	990.461
-7.560	19.372	1266.146	989.688
-6.546	19.410	1265.242	989.155
-5.531	19.340	1264.309	987.990
-4.517	19.498	1263.116	987.922
-3.502	19.372	1262.786	986.904
-2.487	19.479	1261.875	986.765
-1.473	19.372	1257.311	982.547
-0.458	17.620	1241.662	960.410
0.556	13.144	1226.476	923.281
1.571	9.586	1234.168	908.945
2.586	8.855	1249.720	916.144
3.600	9.091	1237.094	908.145
4.615	6.841	1166.553	844.270
5.629	2.620	1098.670	773.793
6.644	0.696	1083.127	753.198
7.659	0.596	1081.461	751.474
8.673	0.509	1080.783	750.502
9.688	0.599	1079.029	749.663
10.702	0.711	1076.574	748.450
11.717	3.476	1079.277	763.973
12.731	9.481	1087.431	799.579
13.746	14.999	1094.574	832.273
14.761	17.095	1097.428	844.814
15.775	16.572	1095.392	840.571
16.790	15.421	1093.769	833.539
17.804	14.837	1091.893	829.140
18.819	14.377	1091.035	826.132
19.834	14.264	1089.778	824.547
20.848	14.015	1089.189	822.799
21.863	13.766	1088.482	820.959
22.877	13.727	1087.483	819.940
23.892	13.669	1086.622	818.931
24.907	13.648	1086.014	818.296
25.921	13.715	1085.054	817.831
26.936	13.701	1084.598	817.349
27.950	13.722	1083.497	816.548
28.965	13.693	1082.489	815.574
29.980	13.806	1080.714	814.720
30.994	13.824	1079.591	813.891
32.009	13.830	1078.730	813.198
33.023	13.859	1077.619	812.429
34.038	13.877	1076.111	811.307
35.053	13.880	1075.680	810.928
36.067	13.702	1074.714	809.258
37.082	13.702	1074.289	808.867
38.096	13.917	1072.851	808.758
39.111	13.794	1072.334	807.699
40.126	13.755	1071.348	806.697
41.140	13.739	1070.012	805.539
42.155	13.639	1068.886	804.136
43.169	13.604	1067.968	803.205
44.184	13.694	1066.810	802.700
45.199	13.709	1065.722	801.882
46.213	13.574	1064.995	800.612
47.228	13.716	1063.471	800.079
48.242	13.710	1062.542	799.280
49.257	13.808	1061.471	798.875
50.271	13.726	1060.613	797.766
51.286	13.659	1059.998	796.911
52.301	13.741	1058.688	796.249
53.315	13.674	1057.862	795.238
54.330	13.641	1056.693	794.130
55.344	13.611	1056.033	793.421
56.359	13.708	1054.857	792.931
57.374	13.573	1054.045	791.604
58.388	13.536	1053.675	791.077
59.403	13.701	1052.337	790.793
60.417	13.592	1051.616	789.660
61.432	13.563	1050.422	788.557
62.447	13.652	1049.543	788.251
63.461	13.507	1048.947	787.042
64.476	13.560	1048.253	786.706
65.490	13.550	1047.094	785.717
66.505	13.620	1046.250	785.345
67.520	13.630	1045.682	784.897
68.534	13.541	1044.986	783.886
69.549	13.730	1043.887	783.884
70.563	13.612	1043.568	783.017
71.578	13.553	1042.760	782.064
72.593	13.609	1041.353	781.201
73.607	13.468	1040.989	780.196
74.622	13.416	1040.716	779.679
75.636	13.455	1039.833	779.130
76.651	13.437	1038.925	778.299
77.666	13.536	1037.977	777.983
78.680	13.570	1037.641	777.822
79.695	13.527	1036.601	776.772
80.709	13.583	1036.434	776.841
81.724	13.601	1035.691	776.299
82.739	13.645	1034.796	775.766
83.753	13.769	1033.857	775.575
84.768	13.706	1033.124	774.659
85.782	13.772	1032.089	774.123
86.797	13.640	1031.241	772.804
87.812	13.685	1030.399	772.313
88.826	13.644	1029.663	771.503
89.841	13.793	1028.218	771.046
90.855	13.909	1027.543	771.011
91.870	13.921	1026.394	770.137
92.884	13.804	1025.891	769.148
93.899	13.867	1024.736	768.502
94.914	13.892	1024.002	768.003
95.928	13.843	1023.222	767.124
96.943	13.864	1022.492	766.604
97.957	13.747	1021.956	765.592
98.972	13.868	1020.695	765.141
99.987	13.860	1019.751	764.326
101.001	13.833	1019.214	763.732
102.016	13.866	1017.883	762.821
103.030	13.814	1017.194	761.996
104.045	13.861	1016.388	761.540
105.060	13.848	1015.336	760.627
106.074	13.736	1014.940	759.750
107.089	13.764	1013.804	758.961
108.103	13.771	1012.658	758.066
109.118	13.655	1012.233	757.150
110.133	13.802	1011.372	757.113
111.147	13.671	1010.338	755.675
112.162	13.751	1009.172	755.100
113.176	13.749	1008.572	754.572
114.191	13.769	1007.802	754.022
115.206	13.592	1007.064	752.597
116.220	13.773	1005.985	752.545
117.235	13.716	1005.129	751.582
118.249	13.768	1004.129	751.002
119.264	13.854	1003.386	750.768
120.279	13.791	1002.680	749.892
121.293	13.785	1001.635	749.016
122.308	13.806	1000.962	748.543
123.322	13.696	999.752	747.076
124.337	13.726	998.784	746.421
125.352	13.719	997.765	745.563
126.366	13.702	996.925	744.791
127.381	13.667	995.964	743.848
128.395	13.691	994.833	743.047
129.410	13.790	993.590	742.495
130.424	13.762	992.809	741.722
131.439	13.856	992.273	741.677
132.454	13.753	991.246	740.384
133.468	13.713	990.727	739.750
134.483	13.675	990.089	739.041
135.497	13.857	988.861	738.866
136.512	13.771	988.083	737.840
137.527	13.729	987.158	736.896
138.541	13.780	986.634	736.668
139.556	13.747	986.079	736.039
140.570	13.858	985.133	735.760
141.585	13.910	984.569	735.506
142.600	13.892	983.286	734.401
143.614	13.883	982.520	733.727
144.629	13.959	981.946	733.568
145.643	13.938	980.945	732.664
146.658	14.015	979.613	731.943
147.673	13.868	978.980	730.756
148.687	13.813	978.331	729.967
149.702	13.800	977.399	729.147
150.716	13.888	976.342	728.683
151.731	13.981	975.351	728.287
152.746	13.961	975.168	727.997
153.760	14.068	974.045	727.560
154.775	13.946	973.811	726.790
155.789	14.079	972.690	726.470
156.804	14.071	972.304	726.080
157.819	14.006	971.374	725.039
158.833	14.053	971.065	724.951
159.848	14.155	969.642	724.267
160.862	14.112	969.161	723.655
161.877	13.953	968.221	722.197
162.892	14.062	967.117	721.786
163.906	14.082	966.193	721.119
164.921	14.026	965.739	720.474
165.935	14.097	964.637	719.896
166.950	14.127	963.736	719.289
167.964	14.083	963.113	718.569
168.979	14.095	961.920	717.668
169.994	14.149	961.303	717.379
171.008	14.176	960.550	716.867
172.023	14.222	959.692	716.360
173.037	14.170	959.170	715.684
174.052	14.223	958.160	715.097
175.067	14.201	957.503	714.450
176.081	14.082	957.089	713.565
177.096	14.184	956.475	713.484
178.110	14.273	956.031	713.471
179.125	14.110	955.584	712.374
180.140	14.313	954.860	712.641
181.154	14.279	954.189	711.931
182.169	14.299	954.086	711.875
183.183	14.322	952.992	711.096
184.198	14.503	951.761	710.887
185.213	14.377	951.927	710.408
186.227	14.415	951.078	709.877
187.242	14.441	950.378	709.401
188.256	14.396	950.377	709.144
189.271	14.430	949.357	708.468
190.286	14.408	948.068	707.349
191.300	14.120	948.261	706.208
192.315	14.281	946.798	705.739
193.329	14.216	946.392	705.097
194.344	14.383	945.599	705.150
195.359	14.479	944.631	704.774
196.373	14.596	944.404	705.036
197.388	14.435	944.072	704.044
198.402	14.556	943.671	704.195
199.417	14.541	942.949	703.529
200.432	14.572	942.270	703.093
201.446	14.592	941.887	702.828
202.461	14.669	941.013	702.438
203.475	14.552	940.757	701.691
204.490	14.552	939.878	700.976
205.504	14.630	938.907	700.514
206.519	14.633	938.013	699.801
207.534	14.655	937.383	699.358
208.548	14.593	936.975	698.733
209.563	14.744	935.977	698.559
210.577	14.586	935.669	697.606
211.592	14.714	934.940	697.537
212.607	14.790	933.679	696.850
213.621	14.805	932.937	696.296
214.636	14.707	932.256	695.322
215.650	14.790	931.888	695.328
216.665	14.819	930.921	694.666
217.680	14.887	930.201	694.352
218.694	14.918	929.523	693.910
219.709	14.829	928.981	693.077
220.723	14.819	928.327	692.485
221.738	14.903	927.507	692.159
222.753	14.916	927.000	691.773
223.767	15.040	926.294	691.698
224.782	15.035	926.089	691.463
225.796	14.933	925.339	690.421
226.811	15.012	924.952	690.399
227.826	14.915	924.107	689.308
228.840	14.936	922.914	688.441
229.855	15.000	922.390	688.252
230.869	14.907	921.539	687.174
231.884	14.999	920.923	687.033
232.899	15.065	919.950	686.518
233.913	14.928	919.340	685.439
234.928	14.989	918.746	685.185
235.942	14.974	918.179	684.642
236.957	14.991	917.930	684.466
237.972	15.057	917.008	683.988
238.986	15.095	915.943	683.285
240.001	15.057	915.467	682.714
241.015	15.000	915.311	682.306
242.030	14.889	914.970	681.539
243.045	15.018	914.186	681.420
244.059	15.062	913.348	680.914
245.074	15.050	912.827	680.419
246.088	15.077	912.094	679.919
247.103	15.159	911.336	679.628
248.117	15.147	910.991	679.261
249.132	15.395	909.991	679.461
250.147	15.243	909.131	678.143
251.161	15.283	908.527	677.796
252.176	15.429	907.852	677.820
253.190	15.413	907.390	677.352
254.205	15.532	906.588	677.173
255.220	15.440	905.869	676.207
256.234	15.513	905.195	675.937
257.249	15.453	904.348	675.003
258.263	15.545	903.434	674.630
259.278	15.707	902.463	674.494
260.293	15.676	902.514	674.351
261.307	15.669	901.873	673.780
262.322	15.683	901.416	673.437
263.336	15.652	900.639	672.672
264.351	15.639	899.879	671.993
265.366	15.681	899.320	671.686
266.380	15.739	898.491	671.237
267.395	15.716	897.835	670.598
268.409	15.673	897.231	669.915
269.424	15.664	896.560	669.320
270.439	15.699	895.841	668.861
271.453	15.630	895.329	668.146
272.468	15.696	894.757	667.923
273.482	15.653	894.298	667.351
274.497	15.714	893.346	666.821
275.512	15.723	892.937	666.495
276.526	15.663	892.655	665.988
277.541	15.707	892.282	665.822
278.555	15.836	891.179	665.452
279.570	15.889	890.570	665.148
280.585	16.005	889.722	664.913
281.599	15.807	889.294	663.753
282.614	15.935	888.544	663.639
283.628	15.976	887.750	663.151
284.643	15.693	887.508	661.796
285.657	15.911	886.580	661.901
286.672	16.000	886.142	661.865
287.687	15.984	885.336	661.142
288.701	16.026	884.911	660.931
289.716	15.989	884.217	660.209
290.730	16.076	883.516	659.969
291.745	16.045	882.998	659.401
292.760	16.067	882.718	659.222
293.774	16.243	881.554	658.982
294.789	16.109	880.836	657.864
295.803	16.034	880.227	657.057
296.818	16.163	879.654	657.073
297.833	16.146	878.809	656.321
298.847	16.178	878.018	655.792
299.862	16.185	877.528	655.397
300.876	16.236	877.170	655.271
301.891	16.207	876.447	654.557
302.906	16.356	876.113	654.831
303.920	16.264	875.956	654.296
304.935	16.371	874.902	653.865
305.949	16.423	874.347	653.594
306.964	16.332	873.655	652.670
307.979	16.254	873.350	652.080
308.993	16.329	872.920	651.991
310.008	16.420	871.955	651.564
311.022	16.362	871.531	650.967
312.037	16.359	870.692	650.272
313.052	16.285	870.524	649.802
314.066	16.233	870.091	649.222
315.081	16.232	869.410	648.655
316.095	16.344	868.106	648.054
317.110	16.436	867.690	648.038
318.125	16.400	867.596	647.772
319.139	16.467	867.143	647.633
320.154	16.416	866.692	647.045
321.168	16.425	866.390	646.795
322.183	16.391	865.318	645.809
323.197	16.347	865.309	645.574
324.212	16.355	864.379	644.857
325.227	16.477	863.472	644.585
326.241	16.491	862.928	644.177
327.256	16.533	862.452	643.925
328.270	16.317	862.032	642.731
329.285	16.434	861.692	642.867
330.300	16.631	860.765	642.867
331.314	16.453	860.388	641.852
332.329	16.678	859.481	641.971
333.343	16.657	859.040	641.508
334.358	16.483	859.156	640.877
335.373	16.549	858.767	640.781
336.387	16.605	858.302	640.587
337.402	16.705	857.619	640.400
338.416	16.808	857.210	640.427
339.431	16.825	856.842	640.160
340.446	16.791	856.218	639.510
341.460	16.747	856.068	639.174
342.475	16.767	855.360	638.665
343.489	16.925	854.890	638.851
344.504	16.871	854.412	638.234
345.519	16.967	853.839	638.112
346.533	16.925	853.593	637.715
347.548	16.936	853.293	637.476
348.562	16.895	852.444	636.630
349.577	16.878	852.051	636.215
350.592	16.903	851.312	635.703
351.606	16.847	850.667	634.955
352.621	16.915	850.162	634.775
353.635	16.974	849.369	634.350
354.650	16.911	848.787	633.620
355.665	16.946	847.929	633.056
356.679	17.046	847.342	632.936
357.694	17.106	846.661	632.593
358.708	17.042	846.044	631.838
359.723	17.049	845.696	631.549
360.738	17.120	844.698	631.012
361.752	16.990	844.685	630.463
362.767	17.154	843.887	630.420
363.781	17.142	843.486	630.021
364.796	17.190	842.938	629.734
365.810	17.234	842.596	629.585
366.825	17.199	842.241	629.136
367.840	17.241	841.860	628.950
368.854	17.206	841.196	628.270
369.869	17.209	841.113	628.160
370.883	17.102	840.577	627.309
371.898	17.287	839.872	627.414
372.913	17.201	839.770	626.965
373.927	17.519	838.737	627.308
374.942	17.287	838.603	626.296
375.956	17.324	837.901	625.853
376.971	17.436	837.246	625.720
377.986	17.312	837.775	625.604
379.000	17.445	836.669	625.212
380.015	17.534	835.596	624.683
381.029	17.554	835.465	624.602
382.044	17.450	835.250	624.004
383.059	17.594	834.195	623.686
384.073	17.674	833.615	623.494
385.088	17.651	832.912	622.827
386.102	17.586	832.350	622.116
387.117	17.635	831.503	621.606
388.132	17.389	831.333	620.526
389.146	17.588	830.643	620.681
390.161	17.736	830.454	621.023
391.175	17.589	829.921	620.037
392.190	17.678	829.372	619.896
393.205	17.643	829.050	619.470
394.219	17.644	828.457	618.978
395.234	17.551	828.371	618.519
396.248	17.594	828.041	618.375
397.263	17.573	827.222	617.633
398.278	17.723	827.125	618.050
399.292	17.642	826.810	617.465
400.307	17.613	826.104	616.779
401.321	17.565	825.538	616.126
402.336	17.644	825.365	616.229
403.350	17.673	824.764	615.834
404.365	17.659	824.245	615.339
405.380	17.705	823.682	615.030
406.394	17.979	822.913	615.390
407.409	17.887	822.689	614.835
408.423	17.722	822.727	614.215
409.438	17.868	822.286	614.356
410.453	17.817	821.648	613.644
411.467	17.888	821.429	613.681
412.482	17.965	820.942	613.540
413.496	18.108	820.346	613.553
414.511	17.967	820.052	612.774
415.526	18.095	819.469	612.742
416.540	18.022	819.282	612.288
417.555	18.073	818.671	611.959
418.569	18.125	818.059	611.633
419.584	17.957	818.123	611.026
420.599	18.036	817.631	610.885
421.613	115.722	1301.612	1491.968
422.628	100.332	1372.064	1492.030
