DTS Sentinel unit serial number:	SN413079Multiplexer serial number:	ORYXHardware model number:	OX4-SRSoftware version number:	ORYX F/W v4.00 Oryx Data Collector v3.7.2.0data status	okinstallation	princeton_trtdifferential loss correction	single-endedforward channel	channel 1reverse channel	N/Adate	2019/09/19time	03:46:35forward acquisition time	60.00reverse acquisition time	0.00gamma	496.2192k internal	0.2343k external	0.2343temperature offset calibration	1.0019default loss term (dB/km)	0.3790temperature slope calibration	1.0000multiplexer offset coefficient	1.0000multiplexer slope coefficient	1.0000fibre end	0.00T internal ref (°C)	20.52T ext. ref 1 (°C)	0.64T ext. ref 2 (°C)	14.26length (m)	temperature (°C)	Stokes	anti-Stokes-747.200	42.422	0.049	-0.045
-746.185	-39.492	-0.205	-0.108
-745.171	-200.000	0.124	-0.587
-744.156	49.138	-0.122	0.115
-743.142	189.369	0.077	-0.116
-742.127	34.311	-0.150	0.131
-741.112	-123.507	0.343	0.055
-740.098	-200.000	0.003	0.138
-739.083	89.568	-0.134	0.150
-738.069	271.160	-0.156	0.275
-737.054	-60.702	0.222	-0.094
-736.039	291.476	0.016	0.028
-735.025	-200.000	0.058	0.436
-734.010	190.148	-0.067	-0.101
-732.996	41.437	0.255	0.231
-731.981	-200.000	0.022	-0.298
-730.966	39.164	-0.160	-0.143
-729.952	-200.000	0.068	-0.446
-728.937	-63.224	-0.121	-0.050
-727.923	202.561	-0.161	-0.248
-726.908	-71.624	0.296	-0.111
-725.894	-72.103	-0.328	-0.122
-724.879	-82.762	-0.190	-0.061
-723.864	800.000	-0.035	-0.125
-722.850	47.675	0.119	0.111
-721.835	238.735	-0.136	-0.226
-720.821	-164.345	-0.250	-0.011
-719.806	-137.127	-0.120	-0.014
-718.791	-109.167	-0.353	-0.075
-717.777	-72.410	0.363	-0.134
-716.762	-20.231	0.080	0.049
-715.748	-200.000	-0.042	-0.449
-714.733	-95.911	-0.419	0.112
-713.718	222.766	0.118	0.190
-712.704	-200.000	0.031	0.168
-711.689	-50.511	0.122	0.057
-710.675	-77.658	-0.141	-0.049
-709.660	-12.148	-0.110	-0.072
-708.645	57.769	-0.144	0.141
-707.631	511.645	0.246	0.573
-706.616	-200.000	-0.041	-0.389
-705.602	46.144	0.095	-0.088
-704.587	304.530	-0.135	-0.250
-703.572	-48.787	-0.123	-0.059
-702.558	-48.882	0.263	-0.126
-701.543	-200.000	-0.073	-0.328
-700.529	-99.750	-0.333	-0.083
-699.514	-107.078	0.283	0.063
-698.499	7.141	-0.225	0.168
-697.485	439.527	-0.158	0.344
-696.470	-62.550	-0.163	-0.068
-695.456	-42.046	-0.112	-0.057
-694.441	-31.862	0.360	-0.202
-693.426	-200.000	0.008	0.122
-692.412	-83.516	-0.072	0.023
-691.397	-200.000	-0.014	0.178
-690.383	-200.000	-0.019	-0.160
-689.368	-4.122	-0.285	-0.197
-688.354	-200.000	-0.002	-0.087
-687.339	-200.000	0.006	0.170
-686.324	10.158	-0.286	-0.217
-685.310	-115.181	0.316	-0.060
-684.295	800.000	-0.030	-0.129
-683.281	67.535	0.101	-0.103
-682.266	-200.000	-0.027	-0.234
-681.251	-23.025	-0.317	0.191
-680.237	232.514	0.200	0.328
-679.222	86.367	0.131	-0.144
-678.208	6.907	0.239	0.178
-677.193	800.000	-0.046	-0.176
-676.178	-77.561	0.103	-0.036
-675.164	-200.000	0.010	-0.149
-674.149	-147.873	0.295	0.025
-673.135	-156.017	-0.302	-0.019
-672.120	171.272	-0.060	0.086
-671.105	128.410	0.138	0.176
-670.091	800.000	-0.080	0.322
-669.076	-170.769	0.075	0.003
-668.062	-154.537	-0.086	0.006
-667.047	116.590	0.150	-0.184
-666.032	-190.295	-0.449	-0.005
-665.018	800.000	0.117	-0.351
-664.003	-76.975	0.209	-0.073
-662.989	41.567	-0.102	-0.092
-661.974	-117.095	-0.269	0.049
-660.959	75.096	-0.127	0.133
-659.945	800.000	0.043	-0.133
-658.930	467.757	-0.094	-0.210
-657.916	-82.664	0.264	-0.085
-656.901	-99.779	-0.327	-0.082
-655.886	-39.646	-0.394	0.206
-654.872	646.986	0.100	-0.256
-653.857	-200.000	-0.002	-0.215
-652.843	-130.914	-0.424	0.057
-651.828	-91.934	-0.262	0.074
-650.814	12.926	-0.155	-0.120
-649.799	-151.663	-0.209	0.015
-648.784	-125.351	-0.275	-0.042
-647.770	123.977	-0.152	0.191
-646.755	800.000	-0.043	-0.145
-645.741	-83.103	0.130	-0.042
-644.726	80.394	0.154	-0.165
-643.711	173.603	-0.175	0.252
-642.697	800.000	-0.043	-0.160
-641.682	-200.000	-0.022	0.129
-640.668	-48.847	-0.343	0.164
-639.653	-12.646	0.165	-0.107
-638.638	-137.603	-0.137	-0.015
-637.624	-176.415	-0.205	0.005
-636.609	125.222	-0.158	-0.199
-635.595	-67.065	0.245	0.096
-634.580	106.956	-0.148	-0.175
-633.565	2.833	0.197	0.143
-632.551	-63.203	-0.288	0.118
-631.536	136.753	-0.243	-0.316
-630.522	-200.000	0.020	0.108
-629.507	-200.000	0.019	-0.118
-628.492	-200.000	0.039	0.406
-627.478	-102.055	-0.235	0.056
-626.463	-9.982	0.127	0.084
-625.449	800.000	0.121	0.477
-624.434	-200.000	-0.037	-0.276
-623.419	-200.000	0.043	-0.324
-622.405	800.000	-0.040	0.168
-621.390	-2.203	0.227	-0.159
-620.376	-200.000	0.018	0.155
-619.361	-134.849	-0.194	-0.023
-618.346	-12.108	-0.405	-0.264
-617.332	83.925	0.145	0.158
-616.317	573.251	-0.075	-0.181
-615.303	-17.128	-0.124	-0.078
-614.288	-12.247	0.227	-0.148
-613.273	-150.909	-0.142	-0.011
-612.259	-91.691	0.197	0.056
-611.244	-200.000	-0.014	-0.133
-610.230	-200.000	-0.005	-0.131
-609.215	-22.084	-0.150	0.091
-608.201	-163.902	0.315	-0.015
-607.186	227.739	0.104	0.169
-606.171	-151.471	0.091	0.007
-605.157	-86.514	0.402	-0.123
-604.142	-45.239	0.174	-0.086
-603.128	286.112	-0.043	-0.077
-602.113	536.417	0.056	0.133
-601.098	77.226	0.145	-0.154
-600.084	658.768	0.111	0.285
-599.069	-74.611	0.106	-0.038
-598.055	46.817	0.087	0.080
-597.040	366.173	0.107	-0.216
-596.025	96.160	-0.096	-0.110
-595.011	-191.013	0.455	0.005
-593.996	103.305	0.022	0.026
-592.982	800.000	-0.060	0.166
-591.967	134.419	-0.216	-0.279
-590.952	465.672	-0.145	-0.323
-589.938	-76.721	0.154	-0.054
-588.923	76.123	0.045	-0.048
-587.909	70.167	0.057	-0.059
-586.894	-200.000	0.014	-0.186
-585.879	-35.501	0.265	-0.143
-584.865	-200.000	-0.005	-0.026
-583.850	-200.000	-0.031	0.270
-582.836	132.547	-0.312	0.401
-581.821	390.039	-0.042	-0.086
-580.806	-56.477	0.211	-0.093
-579.792	11.367	-0.215	-0.164
-578.777	-91.975	-0.253	-0.071
-577.763	-85.681	0.316	-0.098
-576.748	-113.114	-0.127	-0.025
-575.733	-153.436	-0.194	0.013
-574.719	-58.366	-0.038	-0.016
-573.704	413.924	-0.102	0.216
-572.690	800.000	-0.118	0.462
-571.675	800.000	-0.043	-0.188
-570.661	-54.934	-0.199	0.089
-569.646	223.076	-0.103	-0.166
-568.631	14.830	0.278	-0.216
-567.617	-20.365	0.106	0.065
-566.602	-151.929	0.436	0.032
-565.588	-175.477	-0.086	-0.002
-564.573	651.383	0.102	-0.259
-563.558	-112.888	0.054	0.011
-562.544	-200.000	0.006	0.041
-561.529	-200.000	-0.036	-0.243
-560.515	129.530	-0.012	-0.015
-559.500	-27.700	-0.249	-0.144
-558.485	-137.635	-0.203	-0.023
-557.471	39.933	0.175	0.156
-556.456	-126.716	-0.366	0.054
-555.442	457.783	-0.123	-0.273
-554.427	55.553	-0.284	-0.273
-553.412	-90.401	0.086	0.025
-552.398	56.370	0.064	-0.062
-551.383	-74.945	0.095	0.034
-550.369	-76.083	-0.456	0.160
-549.354	87.642	-0.038	-0.042
-548.339	534.731	-0.176	0.415
-547.325	226.671	0.122	0.196
-546.310	137.877	0.140	-0.182
-545.296	-200.000	-0.005	0.046
-544.281	76.715	0.186	0.197
-543.266	-110.298	0.247	-0.051
-542.252	-99.894	0.154	-0.038
-541.237	-200.000	0.065	-0.295
-540.223	79.185	0.169	-0.180
-539.208	87.972	-0.356	0.392
-538.193	-200.000	0.005	0.045
-537.179	431.195	-0.093	0.201
-536.164	-95.406	-0.090	-0.024
-535.150	473.918	-0.054	-0.120
-534.135	349.120	-0.054	0.105
-533.121	13.341	-0.061	-0.047
-532.106	262.013	-0.086	-0.148
-531.091	-122.158	0.174	0.028
-530.077	3.683	-0.104	-0.076
-529.062	-108.346	0.140	-0.030
-528.048	197.778	0.163	0.247
-527.033	-83.960	-0.076	-0.024
-526.018	-200.000	0.044	-0.349
-525.004	-44.204	-0.313	-0.156
-523.989	-114.100	0.063	0.012
-522.975	-200.000	-0.047	0.330
-521.960	-63.016	0.174	0.071
-520.945	-87.091	0.203	-0.061
-519.931	64.758	-0.075	0.075
-518.916	-167.840	0.130	0.005
-517.902	21.423	-0.095	0.076
-516.887	133.659	-0.263	-0.338
-515.872	20.252	-0.148	0.119
-514.858	-174.161	-0.168	-0.005
-513.843	21.582	-0.227	0.183
-512.829	7.390	-0.292	-0.217
-511.814	800.000	0.075	0.214
-510.799	-200.000	-0.014	0.117
-509.785	800.000	-0.058	-0.249
-508.770	-200.000	-0.069	0.321
-507.756	-20.353	-0.137	-0.084
-506.741	120.438	0.212	-0.261
-505.726	153.571	0.074	-0.100
-504.712	800.000	0.029	0.105
-503.697	800.000	-0.079	-0.294
-502.683	31.245	-0.103	-0.088
-501.668	258.180	0.189	-0.323
-500.653	800.000	0.092	-0.282
-499.639	-30.812	0.236	0.133
-498.624	-200.000	0.012	0.208
-497.610	-200.000	-0.019	-0.230
-496.595	-172.885	0.201	-0.006
-495.581	-200.000	0.003	-0.548
-494.566	-128.362	0.168	0.024
-493.551	42.785	-0.032	-0.029
-492.537	-2.573	-0.192	0.134
-491.522	592.509	0.057	-0.139
-490.508	-80.178	0.373	0.124
-489.493	2.516	-0.239	-0.172
-488.478	-4.825	0.141	0.096
-487.464	-200.000	0.052	-0.282
-486.449	-200.000	-0.007	0.100
-485.435	69.262	-0.119	0.121
-484.420	-138.549	0.059	0.006
-483.405	260.727	-0.119	0.204
-482.391	-200.000	0.002	0.037
-481.376	-53.423	-0.174	0.079
-480.362	41.394	0.107	-0.096
-479.347	83.651	0.077	0.083
-478.332	-105.074	0.286	-0.065
-477.318	-200.000	0.056	-0.300
-476.303	-200.000	-0.014	-0.266
-475.289	76.593	-0.190	0.199
-474.274	-200.000	-0.008	0.103
-473.259	92.883	0.152	0.170
-472.245	-114.465	0.176	0.034
-471.230	-50.960	-0.176	-0.082
-470.216	6.873	-0.234	0.172
-469.201	21.159	-0.122	0.098
-468.186	-58.558	-0.206	-0.088
-467.172	-118.006	-0.251	0.044
-466.157	9.907	-0.167	0.126
-465.143	-122.187	-0.187	0.030
-464.128	-200.000	-0.032	-0.218
-463.113	-89.451	0.122	0.035
-462.099	68.131	0.157	-0.159
-461.084	-19.356	0.128	-0.079
-460.070	38.732	0.057	-0.050
-459.055	-52.057	-0.207	-0.095
-458.040	-200.000	0.001	0.201
-457.026	800.000	0.046	-0.165
-456.011	-200.000	0.011	-0.390
-454.997	664.832	-0.028	0.072
-453.982	-74.715	0.672	-0.239
-452.968	800.000	-0.065	-0.186
-451.953	-51.303	-0.252	-0.117
-450.938	243.350	-0.048	0.080
-449.924	332.123	-0.112	0.214
-448.909	31.907	0.224	0.191
-447.895	800.000	0.050	0.165
-446.880	800.000	0.028	-0.084
-445.865	622.286	-0.054	0.135
-444.851	-17.719	-0.163	0.101
-443.836	-24.144	-0.221	-0.131
-442.822	10.248	-0.383	-0.288
-441.807	-46.140	-0.184	-0.090
-440.792	-114.738	-0.139	-0.026
-439.778	229.939	0.162	-0.262
-438.763	800.000	0.049	-0.141
-437.749	511.667	-0.028	-0.064
-436.734	-46.670	-0.178	-0.086
-435.719	8.457	-0.222	0.165
-434.705	-200.000	0.003	0.304
-433.690	488.770	-0.077	0.175
-432.676	124.780	-0.030	-0.038
-431.661	129.765	-0.246	0.311
-430.646	-200.000	0.098	0.447
-429.632	85.244	0.222	-0.241
-428.617	-200.000	-0.005	-0.355
-427.603	15.811	0.095	-0.074
-426.588	-103.494	-0.373	-0.087
-425.573	-200.000	-0.042	-0.227
-424.559	61.921	-0.196	0.193
-423.544	-171.992	-0.507	-0.016
-422.530	118.342	0.153	0.186
-421.515	-200.000	0.000	-0.045
-420.500	229.399	-0.018	-0.029
-419.486	-64.257	-0.406	0.164
-418.471	800.000	0.027	-0.114
-417.457	-200.000	-0.011	0.077
-416.442	17.480	-0.277	-0.217
-415.428	143.824	-0.047	0.062
-414.413	-47.581	-0.383	0.184
-413.398	-15.931	-0.315	0.198
-412.384	357.838	-0.067	0.132
-411.369	800.000	0.080	0.272
-410.355	-114.151	-0.080	-0.015
-409.340	-161.658	-0.268	0.014
-408.325	33.538	-0.208	-0.178
-407.311	-200.000	-0.018	-0.171
-406.296	246.906	-0.115	0.192
-405.282	-200.000	0.035	-0.615
-404.267	-200.000	0.064	-0.556
-403.252	55.049	-0.040	-0.038
-402.238	206.643	0.219	0.336
-401.223	179.284	0.147	-0.213
-400.209	-151.473	0.160	-0.012
-399.194	-62.543	0.082	0.034
-398.179	102.160	-0.099	0.114
-397.165	-200.000	-0.029	0.126
-396.150	-50.765	-0.212	-0.099
-395.136	-200.000	-0.005	0.170
-394.121	205.579	-0.311	0.477
-393.106	18.904	0.108	0.085
-392.092	-79.047	-0.322	-0.108
-391.077	64.047	0.298	-0.296
-390.063	284.364	0.054	-0.096
-389.048	-114.347	0.107	-0.020
-388.033	7.568	0.235	0.173
-387.019	-5.836	0.116	0.078
-386.004	-110.552	-0.105	0.021
-384.990	-193.715	-0.254	0.002
-383.975	412.279	-0.090	-0.189
-382.960	763.621	-0.123	0.329
-381.946	246.260	0.225	0.374
-380.931	355.804	-0.069	-0.136
-379.917	659.735	0.097	-0.247
-378.902	341.175	0.185	-0.357
-377.888	-110.343	0.103	0.021
-376.873	137.820	0.178	0.230
-375.858	800.000	0.046	0.184
-374.844	800.000	0.092	0.273
-373.829	800.000	-0.093	0.324
-372.815	-29.013	-0.146	-0.082
-371.800	800.000	0.022	0.092
-370.785	-37.496	0.138	-0.073
-369.771	685.106	-0.022	-0.058
-368.756	-137.377	-0.232	-0.026
-367.742	-49.129	-0.458	-0.216
-366.727	800.000	0.062	-0.227
-365.712	-166.552	0.372	-0.015
-364.698	122.672	0.090	0.111
-363.683	382.922	-0.154	-0.312
-362.669	63.061	-0.131	0.130
-361.654	542.483	-0.070	0.165
-360.639	105.689	0.099	-0.115
-359.625	116.754	-0.072	-0.087
-358.610	-200.000	0.020	-0.159
-357.596	-200.000	-0.030	-0.211
-356.581	-200.000	-0.002	-0.158
-355.566	-200.000	-0.048	0.241
-354.552	-147.519	-0.288	-0.024
-353.537	230.743	0.110	0.177
-352.523	800.000	0.060	0.173
-351.508	-179.964	0.199	-0.004
-350.493	-25.751	-0.122	-0.071
-349.479	-5.806	0.254	0.171
-348.464	298.533	-0.140	0.255
-347.450	577.407	-0.088	0.213
-346.435	489.459	0.020	0.045
-345.420	33.594	-0.255	-0.218
-344.406	47.506	0.056	-0.051
-343.391	152.385	0.079	-0.106
-342.377	-22.702	0.104	-0.062
-341.362	-7.419	-0.096	-0.064
-340.348	653.901	0.024	-0.060
-339.333	57.044	0.076	0.073
-338.318	-200.000	-0.039	0.320
-337.304	521.248	0.084	-0.194
-336.289	20.069	0.167	-0.133
-335.275	510.401	0.122	-0.280
-334.260	-200.000	0.026	-0.168
-333.245	180.696	0.041	-0.059
-332.231	48.212	0.054	0.050
-331.216	-200.000	0.013	0.255
-330.202	-200.000	0.006	0.211
-329.187	112.295	-0.142	0.170
-328.172	25.727	0.128	-0.105
-327.158	800.000	-0.030	0.116
-326.143	800.000	-0.056	0.178
-325.129	201.584	0.088	0.134
-324.114	-107.800	-0.275	0.059
-323.099	159.634	0.071	0.098
-322.085	374.581	0.055	0.111
-321.070	107.742	-0.034	-0.040
-320.056	-152.396	-0.301	-0.021
-319.041	614.152	-0.105	-0.258
-318.026	217.524	0.180	0.282
-317.012	-168.406	0.274	0.010
-315.997	-5.339	0.075	0.051
-314.983	-43.280	0.136	0.068
-313.968	-164.024	0.077	-0.004
-312.953	190.081	0.159	0.234
-311.939	-92.864	0.353	-0.097
-310.924	-55.499	0.043	0.019
-309.910	-200.000	-0.031	0.281
-308.895	-89.240	0.237	-0.069
-307.880	-149.990	-0.311	-0.024
-306.866	-200.000	0.026	0.285
-305.851	-51.543	0.085	0.039
-304.837	800.000	0.037	-0.134
-303.822	-47.655	0.342	0.163
-302.807	118.263	0.081	-0.098
-301.793	36.727	0.056	-0.049
-300.778	495.019	-0.053	0.121
-299.764	-10.222	-0.319	0.208
-298.749	-156.196	0.380	0.024
-297.735	-200.000	0.016	-0.081
-296.720	-66.098	0.090	-0.035
-295.705	149.348	0.194	-0.259
-294.691	353.087	0.074	0.144
-293.676	-200.000	-0.065	-0.354
-292.662	133.756	-0.174	0.221
-291.647	332.129	-0.136	0.258
-290.632	-142.943	0.215	-0.021
-289.618	-182.052	0.266	0.005
-288.603	-200.000	-0.024	-0.156
-287.589	369.766	-0.138	0.275
-286.574	-28.219	-0.031	0.018
-285.559	-112.406	0.156	0.031
-284.545	-73.127	-0.411	0.148
-283.530	-200.000	-0.030	0.282
-282.516	-200.000	-0.004	-0.230
-281.501	-59.608	-0.170	-0.072
-280.486	800.000	-0.063	-0.215
-279.472	800.000	-0.049	0.173
-278.457	655.974	-0.198	0.501
-277.443	196.080	0.094	-0.141
-276.428	-111.800	0.559	0.111
-275.413	-200.000	-0.067	-0.349
-274.399	800.000	0.052	0.145
-273.384	58.386	-0.144	0.139
-272.370	-200.000	0.107	0.467
-271.355	145.148	0.063	-0.083
-270.340	800.000	0.107	-0.387
-269.326	-54.678	-0.113	-0.050
-268.311	800.000	-0.062	-0.222
-267.297	800.000	0.102	0.293
-266.282	507.995	0.096	-0.219
-265.267	-200.000	0.027	0.140
-264.253	-200.000	-0.014	0.119
-263.238	234.983	0.075	0.121
-262.224	255.430	0.123	-0.208
-261.209	-112.817	0.378	0.074
-260.195	-12.929	-0.188	-0.120
-259.180	-200.000	0.048	-0.251
-258.165	-14.547	0.162	-0.103
-257.151	-43.000	-0.244	0.122
-256.136	800.000	-0.030	-0.084
-255.122	84.977	0.269	0.290
-254.107	-64.007	-0.113	0.045
-253.092	-22.309	0.079	0.047
-252.078	109.177	0.109	0.128
-251.063	173.107	0.255	0.361
-250.049	-136.694	-0.184	0.021
-249.034	800.000	-0.051	-0.182
-248.019	-126.664	0.239	0.035
-247.005	-93.253	-0.141	-0.039
-245.990	75.620	0.193	-0.200
-244.976	-200.000	0.015	-0.113
-243.961	198.730	0.090	0.135
-242.946	436.192	0.040	0.086
-241.932	-101.395	0.027	0.006
-240.917	-200.000	0.030	-0.205
-239.903	232.766	0.137	-0.221
-238.888	-46.371	0.039	0.019
-237.873	283.152	-0.312	-0.550
-236.859	-200.000	-0.024	-0.390
-235.844	800.000	0.045	0.130
-234.830	-67.526	0.154	-0.059
-233.815	5.250	0.055	0.040
-232.800	419.288	-0.085	0.178
-231.786	785.094	0.060	0.161
-230.771	-69.202	-0.258	-0.097
-229.757	56.586	0.227	0.216
-228.742	129.307	-0.102	0.128
-227.727	-50.586	0.261	-0.120
-226.713	-200.000	-0.011	-0.077
-225.698	119.224	-0.187	-0.227
-224.684	-200.000	0.002	-0.036
-223.669	-200.000	-0.027	-0.142
-222.655	239.797	0.098	0.161
-221.640	-40.502	0.273	-0.139
-220.625	-4.323	-0.149	-0.101
-219.611	-129.052	0.219	0.030
-218.596	-130.072	0.267	0.036
-217.582	-197.391	-0.551	0.003
-216.567	-141.420	0.211	0.021
-215.552	-176.176	0.427	-0.011
-214.538	384.102	-0.063	0.127
-213.523	800.000	-0.062	0.245
-212.509	-200.000	0.021	-0.096
-211.494	-73.346	0.223	-0.080
-210.479	59.389	-0.275	0.266
-209.465	99.907	0.077	-0.087
-208.450	550.469	0.181	0.426
-207.436	409.384	-0.174	0.361
-206.421	53.492	0.203	-0.190
-205.406	-200.000	0.048	0.245
-204.392	-121.056	-0.134	-0.022
-203.377	-160.756	0.178	-0.009
-202.363	-19.489	-0.168	-0.102
-201.348	-68.422	0.371	0.141
-200.333	-6.776	-0.040	0.027
-199.319	72.553	0.235	-0.240
-198.304	117.050	0.119	-0.143
-197.290	-39.142	-0.133	-0.069
-196.275	9.467	0.082	0.061
-195.260	-63.211	0.082	-0.033
-194.246	-46.357	-0.260	-0.125
-193.231	-200.000	-0.015	0.122
-192.217	-138.030	0.530	-0.058
-191.202	-14.210	-0.069	0.044
-190.187	109.919	-0.087	0.103
-189.173	-112.502	-0.355	0.069
-188.158	-114.184	0.068	0.013
-187.144	-200.000	0.003	0.186
-186.129	-136.695	0.057	0.006
-185.114	685.226	-0.083	0.211
-184.100	-148.047	-0.128	0.010
-183.085	-109.707	-0.188	-0.039
-182.071	-77.581	-0.180	-0.061
-181.056	-44.991	0.218	0.106
-180.042	-130.386	-0.020	0.003
-179.027	-76.095	0.026	0.009
-178.012	-69.300	0.408	-0.154
-176.998	-123.310	0.157	-0.025
-175.983	121.046	0.157	0.191
-174.969	61.763	0.042	0.041
-173.954	800.000	0.041	0.126
-172.939	-2.414	0.284	-0.195
-171.925	-138.943	-0.325	0.035
-170.910	37.178	-0.181	0.157
-169.896	38.834	0.258	-0.225
-168.881	800.000	0.020	0.085
-167.866	-27.363	-0.241	-0.137
-166.852	-128.959	-0.122	-0.017
-165.837	245.886	-0.058	-0.095
-164.823	800.000	0.041	0.147
-163.808	-20.081	0.248	0.150
-162.793	-154.190	0.239	0.016
-161.779	-118.732	0.056	-0.010
-160.764	81.613	0.215	-0.228
-159.750	-55.005	0.142	0.063
-158.735	-179.757	-0.055	0.001
-157.720	154.335	0.095	0.127
-156.706	-200.000	0.013	-0.128
-155.691	-55.577	-0.241	-0.106
-154.677	-200.000	0.012	-0.161
-153.662	119.938	0.041	-0.050
-152.647	-200.000	0.058	0.286
-151.633	614.865	-0.137	0.335
-150.618	-159.115	-0.288	-0.016
-149.604	498.471	0.027	-0.060
-148.589	-200.000	-0.039	0.199
-147.574	-200.000	-0.034	-0.180
-146.560	-46.537	-0.105	-0.051
-145.545	-76.328	-0.259	-0.089
-144.531	-129.347	-0.202	-0.027
-143.516	107.992	0.207	-0.241
-142.502	-15.984	0.171	0.106
-141.487	-200.000	0.028	0.305
-140.472	367.965	-0.157	0.311
-139.458	88.947	-0.148	0.161
-138.443	-200.000	0.015	-0.279
-137.429	-57.210	0.319	0.137
-136.414	800.000	0.029	0.106
-135.399	-143.927	0.259	-0.024
-134.385	15.709	-0.125	0.096
-133.370	-14.802	-0.157	0.098
-132.356	800.000	0.049	0.192
-131.341	-54.786	0.166	-0.073
-130.326	634.369	0.204	-0.506
-129.312	242.672	-0.168	-0.275
-128.297	285.452	0.121	-0.212
-127.283	-200.000	-0.036	0.173
-126.268	800.000	0.113	-0.356
-125.253	150.032	0.098	-0.130
-124.239	800.000	0.095	0.283
-123.224	-200.000	-0.044	0.244
-122.210	-58.017	0.346	0.148
-121.195	504.452	-0.053	-0.120
-120.180	-9.946	0.334	0.217
-119.166	-200.000	0.010	-0.072
-118.151	191.096	0.061	-0.089
-117.137	-85.971	0.194	0.059
-116.122	800.000	0.102	0.309
-115.107	150.590	0.276	0.367
-114.093	-124.556	-0.131	-0.020
-113.078	-200.000	0.006	0.075
-112.064	-72.168	-0.257	0.093
-111.049	-118.154	-0.109	-0.019
-110.034	-173.079	-0.399	0.012
-109.020	459.046	-0.047	0.103
-108.005	544.992	-0.006	-0.014
-106.991	-175.519	-0.086	0.002
-105.976	-116.628	0.570	0.102
-104.962	21.749	-0.149	0.119
-103.947	-102.001	0.123	0.029
-102.932	800.000	-0.094	0.287
-101.918	-83.299	-0.270	0.085
-100.903	-6.212	-0.023	0.015
-99.889	-49.479	0.307	0.143
-98.874	290.690	0.133	0.235
-97.859	800.000	0.092	0.266
-96.845	-200.000	-0.042	0.204
-95.830	34.394	0.053	0.045
-94.816	-21.680	-0.143	0.085
-93.801	-157.694	0.324	-0.019
-92.786	255.423	-0.092	-0.153
-91.772	-183.155	0.351	0.006
-90.757	14.907	-0.095	0.073
-89.743	190.276	-0.097	-0.142
-88.728	-30.571	-0.075	0.042
-87.713	131.670	-0.174	-0.219
-86.699	-57.377	0.350	0.150
-85.684	-148.968	-0.129	-0.010
-84.670	-117.119	-0.317	-0.056
-83.655	-200.000	-0.037	-0.453
-82.640	20.065	0.136	0.107
-81.626	-125.326	0.176	0.026
-80.611	800.000	-0.030	0.122
-79.597	161.733	0.130	-0.177
-78.582	-6.747	-0.113	-0.075
-77.567	-149.921	-0.266	0.020
-76.553	800.000	-0.082	0.292
-75.538	-200.000	-0.023	0.197
-74.524	-200.000	0.005	0.195
-73.509	0.525	0.147	-0.102
-72.494	63.348	-0.099	0.097
-71.480	50.846	0.076	0.070
-70.465	295.771	-0.059	0.105
-69.451	139.669	-0.073	-0.093
-68.436	-91.324	0.201	-0.056
-67.422	-153.793	-0.113	0.008
-66.407	-146.336	0.296	0.025
-65.392	-130.850	-0.102	-0.013
-64.378	-200.000	-0.008	0.061
-63.363	138.283	0.139	0.178
-62.349	-61.014	0.239	-0.098
-61.334	7.947	-1.040	-0.761
-60.319	29.913	0.813	0.675
-59.305	800.000	-0.405	-1.146
-58.290	800.000	0.519	1.450
-57.276	800.000	0.440	1.482
-56.261	-200.000	136.145	662.906
-55.246	335.270	1672.425	3159.681
-54.232	134.423	2799.611	3538.582
-53.217	85.252	2171.209	2322.060
-52.203	31.422	1601.654	1341.069
-51.188	23.484	1352.501	1084.094
-50.173	21.472	1316.828	1043.474
-49.159	48.809	1390.283	1270.994
-48.144	44.948	1399.057	1255.265
-47.130	23.817	1346.463	1081.111
-46.115	20.650	1327.747	1047.008
-45.100	20.538	1322.458	1042.126
-44.086	20.453	1319.722	1039.423
-43.071	20.451	1317.418	1037.554
-42.057	20.314	1315.667	1035.318
-41.042	20.329	1314.741	1034.636
-40.027	20.416	1312.562	1033.397
-39.013	20.395	1310.830	1031.870
-37.998	20.451	1309.007	1030.722
-36.984	20.429	1307.551	1029.404
-35.969	20.532	1305.446	1028.316
-34.954	20.495	1303.947	1026.879
-33.940	20.435	1302.860	1025.624
-32.925	20.581	1300.767	1024.796
-31.911	20.526	1300.163	1023.960
-30.896	20.630	1298.357	1023.109
-29.881	20.598	1296.861	1021.697
-28.867	20.679	1295.364	1020.957
-27.852	20.640	1294.153	1019.734
-26.838	20.625	1293.072	1018.749
-25.823	20.581	1291.875	1017.508
-24.809	20.519	1290.403	1015.946
-23.794	20.464	1289.025	1014.503
-22.779	20.664	1287.535	1014.453
-21.765	20.667	1286.278	1013.444
-20.750	20.670	1285.129	1012.516
-19.736	20.417	1284.059	1010.162
-18.721	20.545	1282.949	1009.989
-17.706	20.522	1281.533	1008.705
-16.692	20.487	1280.493	1007.642
-15.677	20.479	1279.410	1006.700
-14.663	20.467	1278.111	1005.570
-13.648	20.420	1277.324	1004.639
-12.633	20.464	1276.121	1003.906
-11.619	20.573	1275.514	1004.018
-10.604	20.660	1274.185	1003.434
-9.590	20.408	1273.923	1001.737
-8.575	20.437	1272.819	1000.997
-7.560	20.436	1271.961	1000.274
-6.546	20.430	1271.201	999.604
-5.531	20.429	1270.299	998.849
-4.517	20.414	1269.685	998.240
-3.502	20.483	1268.459	997.632
-2.487	20.468	1267.956	997.114
-1.473	20.420	1263.247	993.096
-0.458	18.649	1248.104	971.136
0.556	14.320	1232.940	934.718
1.571	10.935	1240.948	921.551
2.586	10.231	1256.931	929.301
3.600	10.529	1244.636	921.822
4.615	8.071	1172.970	855.485
5.629	3.183	1103.200	779.806
6.644	0.799	1087.515	756.732
7.659	0.577	1085.602	754.225
8.673	0.575	1085.010	753.737
9.688	0.609	1083.846	753.033
10.702	0.731	1081.028	751.616
11.717	3.897	1084.303	769.593
12.731	10.183	1092.307	806.630
13.746	15.467	1099.414	838.258
14.761	17.220	1101.495	848.534
15.775	16.549	1100.303	844.191
16.790	15.608	1097.532	837.306
17.804	14.840	1095.910	832.172
18.819	14.489	1095.239	829.842
19.834	14.404	1094.075	828.463
20.848	14.127	1093.558	826.620
21.863	13.878	1092.447	824.472
22.877	13.729	1091.548	822.984
23.892	13.743	1090.644	822.297
24.907	13.670	1090.226	821.545
25.921	13.762	1089.253	821.195
26.936	13.679	1088.862	820.419
27.950	13.750	1087.519	819.686
28.965	13.799	1086.299	818.938
29.980	14.032	1084.404	818.580
30.994	13.931	1083.715	817.494
32.009	13.965	1082.674	816.801
33.023	13.920	1081.553	815.661
34.038	13.842	1080.950	814.753
35.053	13.812	1079.593	813.513
36.067	13.823	1079.031	813.069
37.082	13.841	1078.174	812.442
38.096	13.930	1076.915	811.852
39.111	13.818	1076.826	811.170
40.126	13.915	1075.418	810.510
41.140	13.653	1074.497	808.466
42.155	13.744	1073.101	807.787
43.169	13.691	1072.384	806.916
44.184	13.597	1071.343	805.608
45.199	13.746	1070.083	805.310
46.213	13.570	1069.603	804.026
47.228	13.694	1067.838	803.226
48.242	13.682	1066.851	802.357
49.257	13.747	1065.981	801.944
50.271	13.758	1065.104	801.265
51.286	13.751	1064.067	800.384
52.301	13.729	1063.420	799.721
53.315	13.802	1061.798	798.780
54.330	13.744	1061.300	798.053
55.344	13.720	1060.316	797.130
56.359	13.662	1059.710	796.322
57.374	13.634	1058.841	795.464
58.388	13.611	1057.764	794.477
59.403	13.686	1057.103	794.271
60.417	13.627	1056.283	793.302
61.432	13.628	1055.207	792.428
62.447	13.614	1054.623	791.852
63.461	13.673	1053.090	790.914
64.476	13.630	1052.561	790.240
65.490	13.635	1051.960	789.743
66.505	13.657	1051.174	789.186
67.520	13.638	1050.189	788.289
68.534	13.644	1049.535	787.756
69.549	13.740	1048.753	787.554
70.563	13.671	1047.911	786.526
71.578	13.621	1047.140	785.640
72.593	13.628	1046.306	784.978
73.607	13.614	1045.570	784.291
74.622	13.636	1044.667	783.647
75.636	13.621	1044.127	783.103
76.651	13.613	1043.624	782.619
77.666	13.636	1042.890	782.109
78.680	13.546	1042.646	781.430
79.695	13.450	1041.932	780.372
80.709	13.569	1041.519	780.554
81.724	13.543	1040.513	779.609
82.739	13.717	1039.305	779.455
83.753	13.824	1038.614	779.369
84.768	13.749	1038.410	778.794
85.782	13.835	1036.538	777.727
86.797	13.807	1036.057	777.165
87.812	13.893	1034.547	776.368
88.826	13.767	1033.648	775.031
89.841	13.917	1033.005	775.183
90.855	13.891	1032.041	774.271
91.870	13.962	1030.637	773.477
92.884	13.833	1030.218	772.497
93.899	13.806	1029.721	771.929
94.914	13.891	1028.551	771.377
95.928	13.868	1028.025	770.807
96.943	14.025	1026.700	770.473
97.957	13.908	1025.894	769.258
98.972	13.888	1025.325	768.674
99.987	13.835	1024.149	767.477
101.001	13.838	1023.692	767.080
102.016	13.896	1022.425	766.332
103.030	13.842	1021.973	765.675
104.045	13.758	1020.951	764.453
105.060	13.833	1019.917	763.957
106.074	13.880	1019.171	763.549
107.089	13.784	1018.236	762.338
108.103	13.717	1017.176	761.170
109.118	13.715	1016.230	760.385
110.133	13.732	1015.152	759.593
111.147	13.762	1014.573	759.228
112.162	13.694	1013.469	758.022
113.176	13.762	1013.228	758.087
114.191	13.826	1012.007	757.396
115.206	13.748	1011.494	756.593
116.220	13.688	1010.913	755.815
117.235	13.756	1009.791	755.220
118.249	13.911	1008.743	755.075
119.264	13.884	1007.871	754.234
120.279	13.872	1007.100	753.533
121.293	13.748	1006.866	752.728
122.308	13.634	1005.565	751.173
123.322	13.852	1004.421	751.239
124.337	13.904	1003.150	750.457
125.352	13.799	1002.011	749.062
126.366	13.792	1000.844	748.095
127.381	13.745	999.896	747.108
128.395	13.758	999.467	746.781
129.410	13.739	998.495	745.902
130.424	13.808	997.396	745.328
131.439	13.755	996.798	744.574
132.454	13.741	996.043	743.881
133.468	13.860	995.157	743.688
134.483	13.827	994.175	742.740
135.497	13.963	993.223	742.572
136.512	13.852	992.326	741.340
137.527	13.779	991.983	740.691
138.541	13.929	991.060	740.606
139.556	13.847	990.302	739.607
140.570	13.888	989.513	739.134
141.585	13.949	988.440	738.540
142.600	13.995	987.766	738.175
143.614	14.034	986.994	737.707
144.629	13.918	986.023	736.399
145.643	13.989	985.554	736.299
146.658	13.894	984.566	735.075
147.673	14.004	983.418	734.644
148.687	13.877	982.912	733.637
149.702	13.940	982.103	733.248
150.716	13.964	981.220	732.628
151.731	14.106	980.024	732.295
152.746	14.005	979.218	731.184
153.760	14.033	978.943	731.040
154.775	14.049	978.252	730.529
155.789	14.021	977.930	730.098
156.804	14.056	977.179	729.625
157.819	14.053	976.388	728.960
158.833	14.137	975.816	728.833
159.848	14.158	975.159	728.371
160.862	14.195	973.760	727.426
161.877	14.109	973.140	726.520
162.892	14.129	971.909	725.626
163.906	14.098	971.233	724.923
164.921	14.185	969.991	724.309
165.935	14.175	969.331	723.707
166.950	14.177	968.562	723.078
167.964	14.125	967.909	722.303
168.979	14.054	967.036	721.280
169.994	14.142	965.926	720.767
171.008	14.219	965.311	720.578
172.023	14.131	964.637	719.632
173.037	14.320	963.396	719.459
174.052	14.308	963.030	719.072
175.067	14.227	962.583	718.322
176.081	14.173	961.752	717.406
177.096	14.262	961.237	717.340
178.110	14.202	960.647	716.580
179.125	14.233	959.948	716.131
180.140	14.291	959.254	715.798
181.154	14.158	959.177	715.102
182.169	14.374	958.112	715.175
183.183	14.439	957.248	714.745
184.198	14.494	956.637	714.460
185.213	14.566	955.781	714.067
186.227	14.378	955.515	712.998
187.242	14.490	955.026	713.050
188.256	14.575	953.979	712.568
189.271	14.466	953.201	711.461
190.286	14.420	952.776	710.885
191.300	14.380	951.814	709.933
192.315	14.352	951.108	709.225
193.329	14.332	950.631	708.721
194.344	14.341	950.225	708.393
195.359	14.413	949.451	708.058
196.373	14.524	948.442	707.714
197.388	14.399	948.269	706.993
198.402	14.590	947.672	707.297
199.417	14.686	946.762	706.958
200.432	14.648	946.435	706.493
201.446	14.757	945.938	706.520
202.461	14.679	945.309	705.656
203.475	14.608	944.893	704.986
204.490	14.740	943.505	704.445
205.504	14.681	943.222	703.922
206.519	14.710	942.363	703.340
207.534	14.646	941.687	702.505
208.548	14.713	941.094	702.282
209.563	14.820	940.315	702.090
210.577	14.812	939.884	701.671
211.592	14.836	939.089	701.113
212.607	14.865	938.065	700.410
213.621	14.895	937.341	699.932
214.636	14.859	936.655	699.210
215.650	14.848	936.079	698.672
216.665	14.733	935.490	697.687
217.680	14.874	934.659	697.597
218.694	14.932	933.922	697.227
219.709	14.845	933.348	696.372
220.723	14.975	932.557	696.262
221.738	15.017	931.539	695.616
222.753	15.053	931.275	695.508
223.767	14.989	930.595	694.672
224.782	15.016	929.918	694.217
225.796	15.053	929.764	694.195
226.811	15.124	928.576	693.540
227.826	15.012	928.019	692.599
228.840	15.052	927.253	692.130
229.855	14.954	926.269	690.930
230.869	14.981	926.082	690.841
231.884	14.883	925.244	689.750
232.899	14.951	924.391	689.334
233.913	14.999	923.759	689.000
234.928	15.053	922.712	688.378
235.942	15.012	922.642	688.098
236.957	14.953	921.981	687.302
237.972	15.000	921.462	687.048
238.986	15.050	920.549	686.511
240.001	15.053	919.887	685.967
241.015	15.235	918.649	685.729
242.030	15.176	918.229	685.114
243.045	15.136	917.752	684.532
244.059	15.165	917.301	684.254
245.074	15.181	916.674	683.791
246.088	15.218	916.090	683.445
247.103	15.206	915.131	682.624
248.117	15.166	915.141	682.407
249.132	15.375	914.380	682.629
250.147	15.338	913.488	681.754
251.161	15.486	912.669	681.681
252.176	15.304	912.257	680.574
253.190	15.463	911.334	680.469
254.205	15.440	911.110	680.151
255.220	15.571	910.042	679.821
256.234	15.489	909.302	678.878
257.249	15.561	908.747	678.696
258.263	15.558	908.067	678.115
259.278	15.548	907.143	677.327
260.293	15.675	906.788	677.510
261.307	15.570	906.270	676.640
262.322	15.756	905.244	676.564
263.336	15.705	904.955	676.085
264.351	15.743	904.168	675.587
265.366	15.708	903.614	674.974
266.380	15.703	903.074	674.490
267.395	15.676	902.017	673.534
268.409	15.741	901.352	673.238
269.424	15.755	900.824	672.840
270.439	15.865	899.760	672.424
271.453	15.671	899.241	671.203
272.468	15.610	899.243	670.902
273.482	15.640	898.278	670.241
274.497	15.690	897.714	669.959
275.512	15.831	896.905	669.860
276.526	15.696	896.659	669.080
277.541	15.891	895.849	669.189
278.555	15.907	895.494	668.928
279.570	15.855	894.577	667.978
280.585	15.960	893.777	667.738
281.599	15.963	893.107	667.189
282.614	15.942	892.669	666.722
283.628	15.939	891.991	666.144
284.643	15.983	891.083	665.579
285.657	16.096	890.724	665.700
286.672	15.925	889.943	664.384
287.687	16.038	889.381	664.350
288.701	16.110	888.797	664.138
289.716	15.995	888.281	663.241
290.730	16.084	887.846	663.207
291.745	15.947	887.105	662.060
292.760	16.234	886.321	662.542
293.774	16.220	885.616	661.899
294.789	16.125	885.108	661.090
295.803	16.097	884.224	660.260
296.818	16.117	883.809	659.973
297.833	16.114	883.186	659.436
298.847	16.251	882.283	659.241
299.862	16.351	881.593	659.055
300.876	16.220	881.183	658.179
301.891	16.375	880.360	658.109
302.906	16.171	880.587	657.425
303.920	16.346	879.484	657.225
304.935	16.397	878.938	656.957
305.949	16.359	878.134	656.151
306.964	16.404	877.594	655.863
307.979	16.365	877.092	655.279
308.993	16.464	876.493	655.159
310.008	16.474	875.788	654.614
311.022	16.355	875.322	653.747
312.037	16.427	874.744	653.536
313.052	16.329	874.436	652.866
314.066	16.396	873.979	652.728
315.081	16.378	873.443	652.200
316.095	16.438	872.725	651.837
317.110	16.381	872.067	651.070
318.125	16.360	871.665	650.631
319.139	16.457	870.890	650.366
320.154	16.378	870.679	649.846
321.168	16.387	870.250	649.504
322.183	16.418	869.663	649.129
323.197	16.516	868.662	648.698
324.212	16.530	868.095	648.272
325.227	16.521	867.447	647.696
326.241	16.446	867.427	647.336
327.256	16.533	866.284	646.760
328.270	16.598	865.972	646.720
329.285	16.650	865.022	646.150
330.300	16.517	864.693	645.338
331.314	16.646	864.042	645.289
332.329	16.686	863.443	644.938
333.343	16.577	863.384	644.422
334.358	16.684	862.851	644.373
335.373	16.710	862.553	644.191
336.387	16.651	862.314	643.734
337.402	16.711	862.011	643.678
338.416	16.860	861.108	643.511
339.431	16.850	860.950	643.300
340.446	16.985	860.386	643.333
341.460	16.898	860.234	642.834
342.475	16.920	859.686	642.447
343.489	17.011	858.966	642.200
344.504	16.906	859.019	641.782
345.519	16.986	858.558	641.684
346.533	16.887	857.797	640.683
347.548	16.929	857.389	640.481
348.562	16.784	856.405	639.144
349.577	16.929	855.776	639.164
350.592	17.027	855.212	639.054
351.606	16.976	854.603	638.351
352.621	16.950	853.839	637.628
353.635	17.138	853.125	637.746
354.650	17.040	852.597	636.925
355.665	17.024	852.301	636.586
356.679	17.104	851.579	636.293
357.694	17.159	850.751	635.824
358.708	17.136	850.165	635.242
359.723	17.042	849.561	634.383
360.738	17.162	848.966	634.330
361.752	17.082	848.512	633.639
362.767	17.163	848.047	633.537
363.781	17.212	847.325	633.122
364.796	17.294	846.968	633.104
365.810	17.299	846.691	632.861
366.825	17.331	846.346	632.668
367.840	17.359	845.758	632.274
368.854	17.300	845.333	631.682
369.869	17.254	844.828	631.079
370.883	17.404	843.916	630.896
371.898	17.469	843.878	631.054
372.913	17.179	843.865	629.912
373.927	17.304	843.128	629.772
374.942	17.339	842.677	629.508
375.956	17.496	842.056	629.569
376.971	17.392	841.740	628.894
377.986	17.583	840.972	628.968
379.000	17.498	840.591	628.314
380.015	17.580	840.090	628.185
381.029	17.576	839.365	627.575
382.044	17.612	839.149	627.488
383.059	17.468	838.508	626.423
384.073	17.523	838.110	626.274
385.088	17.546	837.378	625.757
386.102	17.509	837.043	625.313
387.117	17.627	836.252	625.099
388.132	17.581	835.952	624.653
389.146	17.552	834.781	623.617
390.161	17.679	834.573	623.870
391.175	17.578	834.057	623.062
392.190	17.690	833.166	622.750
393.205	17.720	832.865	622.577
394.219	17.621	832.683	622.027
395.234	17.683	832.269	621.888
396.248	17.764	831.767	621.753
397.263	17.664	831.495	621.132
398.278	17.630	831.295	620.802
399.292	17.569	831.169	620.432
400.307	17.651	830.464	620.147
401.321	17.668	829.648	619.544
402.336	17.695	829.068	619.155
403.350	17.779	828.593	619.053
404.365	17.834	828.100	618.827
405.380	17.737	828.043	618.377
406.394	17.850	827.372	618.230
407.409	17.743	826.707	617.291
408.423	17.986	826.411	617.898
409.438	18.037	825.915	617.656
410.453	17.976	825.694	617.216
411.467	17.963	825.040	616.626
412.482	18.062	824.691	616.665
413.496	18.127	824.400	616.628
414.511	18.148	823.793	616.197
415.526	18.037	823.441	615.479
416.540	18.251	822.714	615.651
417.555	18.142	822.433	614.993
418.569	18.227	821.898	614.845
419.584	18.126	821.511	614.139
420.599	18.094	820.993	613.580
421.613	116.038	1301.826	1493.700
422.628	100.713	1371.829	1493.740
