DTS Sentinel unit serial number:	SN413079Multiplexer serial number:	ORYXHardware model number:	OX4-SRSoftware version number:	ORYX F/W v4.00 Oryx Data Collector v3.7.2.0data status	okinstallation	princeton_trtdifferential loss correction	single-endedforward channel	channel 1reverse channel	N/Adate	2019/09/15time	00:10:35forward acquisition time	60.00reverse acquisition time	0.00gamma	496.2192k internal	0.2320k external	0.2320temperature offset calibration	0.9990default loss term (dB/km)	0.3790temperature slope calibration	1.0000multiplexer offset coefficient	1.0000multiplexer slope coefficient	1.0000fibre end	0.00T internal ref (°C)	32.19T ext. ref 1 (°C)	4.58T ext. ref 2 (°C)	27.18length (m)	temperature (°C)	Stokes	anti-Stokes-747.200	-200.000	0.010	-0.293
-746.185	-96.549	-0.133	-0.036
-745.171	800.000	0.155	0.484
-744.156	-123.728	-0.090	0.014
-743.142	590.590	0.098	-0.245
-742.127	-48.807	0.293	-0.142
-741.112	800.000	-0.065	-0.275
-740.098	-135.139	-0.437	0.053
-739.083	-200.000	0.031	0.220
-738.069	-15.624	-0.154	0.099
-737.054	-11.034	0.458	0.306
-736.039	-96.397	-0.174	-0.047
-735.025	800.000	-0.045	0.190
-734.010	-123.366	0.203	0.033
-732.996	-22.558	-0.270	-0.165
-731.981	52.351	-0.284	0.274
-730.966	-200.000	-0.005	0.195
-729.952	-43.885	-0.134	-0.068
-728.937	800.000	-0.067	-0.203
-727.923	-86.562	0.146	-0.045
-726.908	173.700	-0.039	0.056
-725.894	-113.545	0.206	-0.041
-724.879	692.214	0.079	-0.209
-723.864	-92.569	-0.198	0.056
-722.850	-24.729	-0.304	-0.183
-721.835	34.541	-0.339	-0.299
-720.821	-27.759	-0.209	-0.122
-719.806	365.411	0.078	-0.159
-718.791	251.162	0.007	0.011
-717.777	-102.804	-0.151	0.036
-716.762	368.033	-0.080	0.164
-715.748	800.000	0.033	0.101
-714.733	-133.366	0.193	0.024
-713.718	800.000	0.044	-0.140
-712.704	64.120	-0.196	-0.200
-711.689	-200.000	-0.036	-0.206
-710.675	-170.643	0.272	0.009
-709.660	-166.367	0.440	-0.019
-708.645	-200.000	-0.028	-0.221
-707.631	170.688	0.278	-0.403
-706.616	-77.694	-0.271	-0.095
-705.602	-78.528	-0.161	-0.056
-704.587	541.882	-0.083	-0.200
-703.572	-154.382	0.284	0.019
-702.558	-3.463	-0.127	-0.089
-701.543	-95.155	0.145	-0.040
-700.529	41.763	-0.158	-0.145
-699.514	-132.988	0.201	0.026
-698.499	47.717	-0.097	-0.091
-697.485	-77.418	0.235	0.082
-696.470	508.557	0.154	-0.361
-695.456	-125.126	0.420	0.065
-694.441	101.057	0.121	-0.142
-693.426	-200.000	-0.003	0.200
-692.412	224.441	0.087	-0.142
-691.397	24.922	-0.118	-0.098
-690.383	-200.000	-0.063	0.338
-689.368	696.399	0.087	0.230
-688.354	-91.008	-0.095	-0.028
-687.339	-200.000	-0.047	0.243
-686.324	-200.000	-0.032	-0.370
-685.310	-78.771	0.195	-0.067
-684.295	-51.372	0.082	0.039
-683.281	249.781	0.083	-0.141
-682.266	96.569	-0.142	0.164
-681.251	19.493	0.185	0.150
-680.237	-108.812	-0.191	-0.041
-679.222	-116.084	0.062	0.012
-678.208	-12.150	0.198	-0.130
-677.193	-119.967	-0.196	-0.034
-676.178	678.313	-0.039	-0.102
-675.164	328.534	-0.106	-0.206
-674.149	7.262	0.049	-0.037
-673.135	339.211	0.091	-0.179
-672.120	-133.319	0.185	-0.023
-671.105	-147.707	-0.228	-0.019
-670.091	-24.064	-0.338	0.204
-669.076	216.202	-0.183	0.293
-668.062	-8.134	0.116	0.079
-667.047	6.071	-0.235	0.176
-666.032	48.396	0.093	0.088
-665.018	800.000	-0.018	-0.074
-664.003	517.161	0.033	-0.078
-662.989	75.889	0.051	-0.054
-661.974	42.329	-0.146	-0.134
-660.959	477.596	0.067	-0.153
-659.945	-87.650	-0.357	-0.109
-658.930	-200.000	0.049	-0.380
-657.916	587.196	-0.065	0.161
-656.901	58.636	-0.234	0.231
-655.886	-69.279	-0.114	-0.044
-654.872	93.964	-0.118	-0.135
-653.857	108.485	-0.172	-0.207
-652.843	-28.619	0.289	-0.168
-651.828	-32.648	0.236	-0.132
-650.814	-100.059	0.349	-0.088
-649.799	176.754	-0.220	0.322
-648.784	-172.328	-0.214	0.007
-647.770	471.477	0.122	-0.276
-646.755	-71.099	-0.127	0.048
-645.741	-128.076	0.178	0.026
-644.726	579.344	0.031	-0.077
-643.711	-200.000	-0.064	0.350
-642.697	274.806	0.082	-0.147
-641.682	96.533	-0.380	-0.439
-640.668	-200.000	-0.025	-0.124
-639.653	-200.000	0.017	0.124
-638.638	-200.000	-0.005	-0.046
-637.624	-200.000	-0.024	-0.165
-636.609	800.000	0.057	0.195
-635.595	800.000	0.049	-0.188
-634.580	-200.000	-0.111	-0.500
-633.565	-81.180	0.033	0.011
-632.551	117.003	0.035	0.043
-631.536	-200.000	0.017	0.114
-630.522	216.635	0.156	0.249
-629.507	800.000	0.052	-0.209
-628.492	100.333	0.122	-0.142
-627.478	-188.179	-0.173	0.002
-626.463	-200.000	0.050	-0.324
-625.449	327.543	-0.083	0.160
-624.434	-123.810	-0.098	0.016
-623.419	800.000	0.088	0.285
-622.405	-200.000	0.003	-0.242
-621.390	-13.606	0.383	-0.250
-620.376	800.000	-0.148	-0.462
-619.361	574.006	-0.122	0.300
-618.346	-4.504	-0.111	-0.077
-617.332	27.257	0.155	0.131
-616.317	107.237	0.235	-0.281
-615.303	33.759	0.138	0.121
-614.288	-200.000	0.015	-0.114
-613.273	106.724	-0.149	-0.178
-612.259	222.480	-0.120	0.194
-611.244	11.947	-0.181	0.140
-610.230	59.167	-0.172	0.170
-609.215	-153.570	0.235	-0.016
-608.201	-200.000	-0.021	-0.303
-607.186	29.239	0.150	-0.128
-606.171	56.296	-0.113	0.111
-605.157	77.763	-0.169	0.181
-604.142	-37.685	0.290	0.155
-603.128	48.989	0.126	0.119
-602.113	68.564	0.220	0.227
-601.098	-200.000	-0.027	0.363
-600.084	-200.000	0.024	0.126
-599.069	51.320	0.047	0.045
-598.055	-39.238	0.353	-0.186
-597.040	-200.000	-0.015	-0.074
-596.025	-200.000	0.018	-0.221
-595.011	-142.128	0.009	0.001
-593.996	9.701	0.117	-0.089
-592.982	-127.648	0.115	0.017
-591.967	-87.360	0.110	0.034
-590.952	-80.647	0.243	0.081
-589.938	113.402	-0.085	0.103
-588.923	-67.546	-0.168	0.066
-587.909	-17.735	-0.046	-0.029
-586.894	-200.000	-0.005	0.176
-585.879	-200.000	-0.003	0.048
-584.865	-83.570	-0.263	-0.084
-583.850	-200.000	0.005	0.322
-582.836	800.000	-0.037	-0.143
-581.821	644.877	0.161	-0.412
-580.806	800.000	-0.075	-0.259
-579.792	136.291	0.193	-0.253
-578.777	-4.762	-0.028	0.020
-577.763	75.257	-0.089	-0.094
-576.748	430.846	0.059	-0.129
-575.733	800.000	-0.103	0.349
-574.719	-158.048	-0.211	0.012
-573.704	-91.961	0.309	0.088
-572.690	586.496	0.069	0.170
-571.675	-200.000	0.013	0.232
-570.661	636.739	-0.119	0.302
-569.646	-68.847	0.035	-0.014
-568.631	611.576	-0.114	-0.286
-567.617	37.553	-0.039	-0.034
-566.602	169.145	0.251	-0.360
-565.588	-34.430	-0.015	0.008
-564.573	190.526	-0.168	-0.253
-563.558	384.551	-0.049	0.101
-562.544	-200.000	-0.002	-0.072
-561.529	-126.065	0.248	-0.037
-560.515	96.174	0.079	0.091
-559.500	-151.661	-0.097	-0.007
-558.485	-37.867	0.114	-0.061
-557.471	250.316	0.131	-0.224
-556.456	-110.789	-0.365	-0.075
-555.442	800.000	0.040	-0.156
-554.427	455.216	-0.027	-0.059
-553.412	63.134	-0.342	0.344
-552.398	-200.000	0.035	-0.171
-551.383	800.000	0.075	-0.254
-550.369	157.373	-0.196	-0.272
-549.354	-116.120	-0.198	0.037
-548.339	77.957	0.136	0.145
-547.325	-75.370	0.091	-0.032
-546.310	-200.000	-0.001	0.115
-545.296	-200.000	0.018	-0.097
-544.281	2.515	-0.068	0.049
-543.266	-200.000	0.015	0.259
-542.252	-139.099	0.296	0.032
-541.237	-94.889	-0.270	0.073
-540.223	-81.297	0.100	-0.033
-539.208	-197.525	-0.205	-0.001
-538.193	13.364	0.018	0.014
-537.179	-1.195	0.120	0.085
-536.164	-123.748	-0.183	0.029
-535.150	23.548	-0.185	0.152
-534.135	800.000	0.068	0.209
-533.121	-200.000	-0.050	0.223
-532.106	-200.000	-0.014	-0.256
-531.091	539.395	-0.163	-0.389
-530.077	99.825	-0.228	-0.265
-529.062	448.776	0.095	-0.209
-528.048	397.045	0.143	0.299
-527.033	106.035	-0.295	0.350
-526.018	191.557	0.005	-0.007
-525.004	225.830	-0.063	0.103
-523.989	-66.345	0.177	0.071
-522.975	-200.000	-0.045	0.370
-521.960	-200.000	-0.000	0.174
-520.945	540.216	-0.064	0.152
-519.931	-83.886	-0.220	0.070
-518.916	-76.010	0.380	-0.135
-517.902	-200.000	0.035	0.390
-516.887	-200.000	-0.017	0.342
-515.872	558.579	0.109	-0.264
-514.858	-175.800	-0.102	0.003
-513.843	-105.398	-0.334	-0.076
-512.829	-84.359	0.228	-0.072
-511.814	161.410	0.108	0.151
-510.799	800.000	0.040	-0.126
-509.785	326.864	-0.187	-0.358
-508.770	-14.429	0.358	-0.231
-507.756	309.134	0.098	0.184
-506.741	-200.000	0.062	0.360
-505.726	-32.948	-0.165	0.092
-504.712	-73.359	0.282	0.103
-503.697	80.992	0.242	0.261
-502.683	-180.069	-0.361	-0.008
-501.668	-200.000	0.042	-0.230
-500.653	123.001	0.096	0.120
-499.639	-122.643	-0.105	0.017
-498.624	-22.792	0.219	0.132
-497.610	-200.000	0.026	0.247
-496.595	-200.000	0.031	0.332
-495.581	188.157	0.174	-0.260
-494.566	287.952	-0.037	-0.066
-493.551	-167.146	0.154	-0.006
-492.537	77.756	-0.035	0.037
-491.522	-200.000	0.003	0.196
-490.508	0.300	0.123	-0.088
-489.493	7.426	0.192	-0.144
-488.478	-200.000	-0.030	-0.337
-487.464	-65.340	0.152	0.061
-486.449	-13.801	0.193	-0.125
-485.435	37.742	0.233	-0.207
-484.420	229.555	-0.107	-0.175
-483.405	51.101	-0.123	0.116
-482.391	54.122	-0.105	-0.101
-481.376	-200.000	0.045	0.207
-480.362	-200.000	0.008	-0.205
-479.347	184.441	-0.124	-0.184
-478.332	-200.000	-0.016	0.198
-477.318	-197.156	0.211	-0.001
-476.303	-200.000	-0.004	-0.211
-475.289	200.376	-0.005	0.007
-474.274	-98.002	0.307	-0.079
-473.259	800.000	-0.066	-0.284
-472.245	-140.189	-0.080	-0.008
-471.230	-200.000	0.003	0.043
-470.216	637.484	0.129	0.328
-469.201	-134.205	0.205	-0.025
-468.186	800.000	-0.049	0.159
-467.172	135.812	0.135	0.176
-466.157	800.000	-0.067	0.186
-465.143	-150.003	-0.204	0.016
-464.128	-57.016	-0.309	0.136
-463.113	452.965	0.221	-0.488
-462.099	-47.669	-0.055	0.027
-461.084	329.023	0.088	-0.169
-460.070	800.000	0.114	0.415
-459.055	-200.000	0.007	-0.057
-458.040	139.476	-0.125	0.164
-457.026	-200.000	-0.021	0.152
-456.011	296.296	-0.108	-0.197
-454.997	-200.000	-0.006	-0.039
-453.982	-200.000	0.001	0.250
-452.968	-113.031	-0.218	0.043
-451.953	103.162	-0.056	0.065
-450.938	-136.147	0.256	-0.030
-449.924	-200.000	0.017	-0.192
-448.909	362.348	-0.138	-0.276
-447.895	198.887	-0.020	0.030
-446.880	-35.951	0.149	0.081
-445.865	-200.000	-0.002	0.374
-444.851	800.000	0.080	-0.252
-443.836	90.249	-0.065	0.073
-442.822	-121.548	0.244	0.041
-441.807	-52.195	-0.258	0.119
-440.792	-200.000	-0.038	0.172
-439.778	75.445	0.116	-0.122
-438.763	-12.029	0.109	0.071
-437.749	-26.717	-0.116	-0.068
-436.734	191.273	-0.152	-0.228
-435.719	46.906	0.220	0.204
-434.705	-57.236	-0.210	-0.092
-433.690	-200.000	0.082	0.372
-432.676	-200.000	0.014	0.167
-431.661	-179.207	0.130	0.003
-430.646	-174.102	0.123	-0.004
-429.632	400.087	0.018	-0.038
-428.617	-200.000	-0.027	-0.137
-427.603	-138.114	-0.209	0.023
-426.588	-43.857	0.164	0.083
-425.573	272.429	-0.086	-0.151
-424.559	63.745	-0.150	0.151
-423.544	99.209	-0.279	-0.322
-422.530	556.372	0.157	0.378
-421.515	-200.000	-0.029	0.169
-420.500	190.095	0.022	-0.033
-419.486	99.198	-0.144	0.167
-418.471	-200.000	-0.037	0.194
-417.457	-200.000	-0.030	-0.160
-416.442	98.546	0.182	0.209
-415.428	729.743	0.018	-0.048
-414.413	276.552	-0.089	0.158
-413.398	4.346	0.197	-0.144
-412.384	89.020	-0.040	0.045
-411.369	-142.783	-0.152	0.015
-410.355	364.365	0.146	-0.294
-409.340	800.000	0.077	0.236
-408.325	-174.649	0.210	-0.006
-407.311	-31.269	0.134	-0.075
-406.296	-101.585	0.503	0.122
-405.282	22.212	0.194	-0.158
-404.267	-109.663	-0.196	0.041
-403.252	-200.000	-0.025	0.118
-402.238	-176.325	-0.138	-0.004
-401.223	24.051	-0.158	0.130
-400.209	519.847	-0.146	-0.342
-399.194	54.441	-0.100	-0.096
-398.179	800.000	0.047	-0.142
-397.165	81.286	-0.081	0.088
-396.150	800.000	0.058	0.173
-395.136	800.000	0.079	-0.315
-394.121	76.722	0.197	-0.208
-393.106	17.747	0.209	-0.166
-392.092	-64.534	-0.232	-0.094
-391.077	-92.852	-0.145	-0.040
-390.063	38.209	0.317	0.281
-389.048	-200.000	0.036	-0.260
-388.033	-143.107	0.107	-0.010
-387.019	-16.641	-0.094	0.060
-386.004	-136.101	-0.194	0.023
-384.990	-103.702	-0.074	-0.017
-383.975	15.588	-0.126	0.099
-382.960	122.713	0.099	0.123
-381.946	63.803	-0.116	-0.116
-380.931	800.000	0.045	0.196
-379.917	-67.606	0.333	0.130
-378.902	-200.000	0.027	0.173
-377.888	-101.556	0.508	0.123
-376.873	-11.387	-0.084	-0.055
-375.858	0.343	-0.158	-0.113
-374.844	-200.000	0.022	0.147
-373.829	-24.535	0.296	-0.176
-372.815	-42.631	-0.376	0.191
-371.800	-200.000	0.021	-0.298
-370.785	-74.249	-0.063	0.023
-369.771	-105.705	0.193	0.044
-368.756	269.977	0.163	0.286
-367.742	-60.457	-0.228	-0.096
-366.727	-92.625	-0.198	0.055
-365.712	157.636	-0.111	0.153
-364.698	-18.969	-0.174	-0.108
-363.683	800.000	-0.080	-0.269
-362.669	-200.000	0.052	-0.359
-361.654	69.878	0.141	-0.145
-360.639	-200.000	-0.088	-0.448
-359.625	-150.069	0.221	-0.017
-358.610	139.020	0.146	0.191
-357.596	524.940	0.089	-0.208
-356.581	-200.000	0.003	0.084
-355.566	372.080	-0.069	0.139
-354.552	69.059	0.161	-0.165
-353.537	800.000	0.031	0.136
-352.523	-18.210	0.274	-0.170
-351.508	-200.000	-0.013	-0.167
-350.493	256.438	-0.102	-0.175
-349.479	-145.478	-0.217	0.019
-348.464	-153.642	0.124	0.009
-347.450	-200.000	-0.003	-0.361
-346.435	166.532	-0.091	0.128
-345.420	-200.000	-0.034	0.262
-344.406	800.000	0.141	0.397
-343.391	63.755	0.179	-0.179
-342.377	-88.373	0.185	-0.055
-341.362	79.320	-0.151	0.161
-340.348	800.000	0.044	0.164
-339.333	223.074	0.141	0.225
-338.318	-97.990	-0.138	-0.035
-337.304	-65.531	-0.380	-0.152
-336.289	-83.733	-0.113	-0.036
-335.275	-35.410	-0.248	0.134
-334.260	14.076	0.069	-0.053
-333.245	800.000	0.051	0.193
-332.231	-39.175	0.215	-0.112
-331.216	-67.194	0.112	-0.044
-330.202	-33.446	-0.206	0.114
-329.187	42.222	-0.094	0.085
-328.172	57.503	-0.219	0.213
-327.158	45.140	0.006	-0.005
-326.143	-24.463	-0.183	0.108
-325.129	-40.839	0.224	0.115
-324.114	-138.427	0.353	-0.039
-323.099	49.556	0.185	-0.173
-322.085	800.000	-0.065	0.186
-321.070	-36.453	-0.099	-0.053
-320.056	-94.426	-0.056	0.015
-319.041	-1.680	0.089	-0.063
-318.026	-200.000	-0.005	-0.482
-317.012	2.235	-0.292	0.210
-315.997	-200.000	-0.006	0.391
-314.983	422.082	-0.066	0.140
-313.968	-200.000	-0.006	-0.283
-312.953	800.000	0.050	0.191
-311.939	16.087	-0.135	0.106
-310.924	-200.000	-0.022	0.164
-309.910	800.000	0.042	-0.158
-308.895	-76.123	-0.195	-0.068
-307.880	275.129	0.149	-0.263
-306.866	-45.630	0.109	-0.054
-305.851	-200.000	0.078	-0.450
-304.837	-62.786	-0.168	-0.069
-303.822	-200.000	-0.003	0.098
-302.807	61.432	-0.037	0.036
-301.793	-88.490	-0.149	-0.044
-300.778	8.810	-0.037	0.028
-299.764	-1.893	0.230	-0.161
-298.749	71.140	-0.089	0.092
-297.735	-200.000	-0.008	0.235
-296.720	-35.414	-0.159	-0.086
-295.705	-194.900	-0.050	-0.000
-294.691	191.531	-0.134	0.201
-293.676	414.286	0.180	-0.381
-292.662	595.697	-0.022	0.054
-291.647	190.225	-0.086	-0.128
-290.632	-187.446	-0.247	-0.003
-289.618	203.714	0.186	0.286
-288.603	-111.798	-0.180	0.036
-287.589	800.000	-0.031	0.117
-286.574	800.000	0.040	0.155
-285.559	-200.000	0.117	0.532
-284.545	-200.000	-0.095	-0.494
-283.530	-200.000	-0.022	-0.224
-282.516	44.672	0.115	-0.105
-281.501	-37.498	0.174	0.092
-280.486	-162.469	-0.399	-0.020
-279.472	269.472	0.027	0.047
-278.457	122.120	0.138	0.171
-277.443	-108.642	-0.101	0.021
-276.428	111.693	-0.101	0.121
-275.413	-59.176	-0.234	0.100
-274.399	-200.000	0.025	0.166
-273.384	-22.442	-0.063	-0.038
-272.370	351.193	-0.182	-0.358
-271.355	10.248	0.221	-0.167
-270.340	-118.630	0.096	0.017
-269.326	153.688	-0.295	-0.402
-268.311	800.000	-0.113	-0.460
-267.297	279.954	-0.123	-0.217
-266.282	-108.369	0.164	0.035
-265.267	800.000	-0.121	-0.384
-264.253	538.107	0.187	-0.440
-263.238	-200.000	0.011	0.369
-262.224	-147.667	-0.178	0.015
-261.209	-200.000	-0.016	-0.158
-260.195	55.257	0.107	0.103
-259.180	-61.896	-0.255	-0.106
-258.165	-200.000	-0.008	0.548
-257.151	-196.756	-0.078	0.001
-256.136	-200.000	0.038	-0.263
-255.122	140.925	-0.125	-0.164
-254.107	-60.730	0.260	0.109
-253.092	367.863	-0.064	-0.129
-252.078	800.000	0.030	-0.106
-251.063	-101.297	0.110	0.027
-250.049	800.000	-0.012	0.035
-249.034	12.284	0.162	0.124
-248.019	-200.000	0.009	-0.072
-247.005	334.533	-0.077	0.148
-245.990	-32.736	0.206	-0.114
-244.976	800.000	-0.071	-0.217
-243.961	800.000	-0.084	-0.307
-242.946	800.000	0.040	0.148
-241.932	-78.748	-0.405	0.137
-240.917	-53.330	-0.361	0.164
-239.903	382.493	0.194	0.396
-238.888	33.629	0.288	-0.249
-237.873	19.192	-0.205	0.163
-236.859	-145.312	0.346	-0.031
-235.844	507.890	0.107	0.247
-234.830	-200.000	0.002	-0.066
-233.815	112.697	-0.296	-0.355
-232.800	-193.435	-0.200	-0.002
-231.786	-200.000	-0.057	0.261
-230.771	-183.663	0.198	-0.003
-229.757	-83.845	0.195	0.062
-228.742	800.000	0.094	0.374
-227.727	110.970	0.041	-0.049
-226.713	94.034	-0.250	-0.281
-225.698	-174.052	-0.163	0.005
-224.684	-200.000	0.047	-0.257
-223.669	207.554	-0.155	0.239
-222.655	275.472	-0.093	0.163
-221.640	800.000	-0.093	-0.311
-220.625	-46.300	0.217	-0.106
-219.611	38.777	0.140	0.124
-218.596	-200.000	0.012	0.087
-217.582	-156.343	0.264	-0.016
-216.567	116.426	0.041	0.050
-215.552	-93.253	-0.088	-0.024
-214.538	32.894	0.069	-0.060
-213.523	-200.000	-0.001	-0.087
-212.509	411.972	0.106	-0.222
-211.494	136.803	-0.157	0.202
-210.479	-54.098	-0.135	0.061
-209.465	81.118	-0.125	-0.134
-208.450	333.844	-0.071	-0.136
-207.436	-17.191	0.367	0.229
-206.421	-156.238	-0.168	-0.010
-205.406	46.882	0.185	-0.170
-204.392	800.000	-0.034	-0.117
-203.377	59.100	0.115	-0.112
-202.363	800.000	0.071	0.204
-201.348	-200.000	-0.019	-0.222
-200.333	-41.311	0.236	-0.120
-199.319	-83.004	-0.294	0.094
-198.304	89.984	0.116	-0.128
-197.290	53.475	0.167	0.159
-196.275	424.091	-0.005	0.011
-195.260	275.605	0.021	-0.037
-194.246	-23.288	-0.224	-0.133
-193.231	69.354	-0.173	-0.176
-192.217	27.860	0.084	-0.070
-191.202	-43.417	0.113	-0.057
-190.187	-161.825	-0.152	-0.008
-189.173	-200.000	0.010	-0.135
-188.158	-94.275	0.370	0.100
-187.144	-200.000	0.050	-0.224
-186.129	-139.404	-0.338	0.036
-185.114	287.715	-0.106	0.189
-184.100	123.137	-0.122	0.151
-183.085	-200.000	0.008	-0.197
-182.071	110.846	-0.176	0.210
-181.056	-91.293	0.190	0.054
-180.042	-38.942	-0.100	0.052
-179.027	-200.000	0.173	0.001
-178.012	-177.687	-0.190	-0.005
-176.998	364.848	-0.060	0.119
-175.983	553.132	-0.124	-0.294
-174.969	800.000	-0.026	0.102
-173.954	68.636	0.210	0.213
-172.939	-94.292	-0.263	0.071
-171.925	1.556	0.151	0.108
-170.910	29.470	0.180	0.151
-169.896	-200.000	0.075	0.425
-168.881	800.000	0.076	0.230
-167.866	45.630	0.212	0.193
-166.852	-32.273	-0.383	0.211
-165.837	800.000	-0.071	-0.213
-164.823	791.249	0.071	0.192
-163.808	800.000	0.017	-0.071
-162.793	137.088	-0.106	0.137
-161.779	-23.755	-0.117	-0.069
-160.764	-114.825	-0.490	0.092
-159.750	-76.255	0.186	0.065
-158.735	-9.076	0.103	-0.068
-157.720	291.139	0.097	0.175
-156.706	-54.643	0.030	0.013
-155.691	-200.000	0.053	0.273
-154.677	-164.990	-0.432	-0.019
-153.662	201.982	-0.093	-0.142
-152.647	-200.000	0.021	-0.509
-151.633	522.366	-0.004	0.009
-150.618	43.392	0.327	-0.295
-149.604	65.250	0.196	-0.196
-148.589	-200.000	-0.013	0.264
-147.574	-100.542	-0.184	-0.045
-146.560	15.095	0.304	0.235
-145.545	-42.313	0.221	0.112
-144.531	175.069	-0.102	-0.145
-143.516	170.156	0.075	0.106
-142.502	13.722	0.146	0.112
-141.487	13.061	0.165	0.126
-140.472	-155.879	0.545	0.034
-139.458	-200.000	-0.047	-0.302
-138.443	509.886	-0.020	0.045
-137.429	-200.000	-0.018	-0.115
-136.414	-11.618	0.185	0.120
-135.399	245.448	-0.081	0.135
-134.385	-200.000	0.016	-0.108
-133.370	537.276	-0.158	-0.371
-132.356	-139.761	-0.102	-0.011
-131.341	-200.000	-0.000	0.152
-130.326	134.217	-0.246	0.315
-129.312	-200.000	0.032	-0.355
-128.297	-54.456	0.253	-0.113
-127.283	469.271	0.136	-0.302
-126.268	-200.000	-0.035	-0.301
-125.253	320.031	-0.125	0.234
-124.239	800.000	0.062	-0.197
-123.224	247.621	0.053	0.088
-122.210	-85.330	-0.164	0.050
-121.195	39.491	-0.208	0.184
-120.180	-18.279	0.292	0.180
-119.166	-200.000	-0.063	0.438
-118.151	10.422	0.218	-0.164
-117.137	-34.602	0.164	-0.088
-116.122	-13.531	0.143	-0.091
-115.107	232.657	0.113	0.183
-114.093	-200.000	0.004	0.095
-113.078	-143.065	0.204	-0.019
-112.064	-56.280	0.184	-0.081
-111.049	564.561	0.114	0.272
-110.034	412.146	-0.093	0.194
-109.020	56.162	0.034	0.032
-108.005	-79.944	-0.134	-0.044
-106.991	242.153	-0.123	0.203
-105.976	224.575	-0.070	-0.111
-104.962	223.928	-0.190	0.303
-103.947	-200.000	-0.006	0.182
-102.932	-200.000	-0.016	-0.504
-101.918	26.266	0.294	0.242
-100.903	29.136	0.111	0.093
-99.889	800.000	0.076	0.294
-98.874	800.000	0.017	-0.054
-97.859	800.000	-0.109	0.438
-96.845	-135.886	0.288	0.033
-95.830	639.718	0.167	-0.420
-94.816	601.326	0.113	0.276
-93.801	-200.000	-0.088	-0.452
-92.786	0.774	-0.133	-0.094
-91.772	93.611	-0.212	0.237
-90.757	-2.274	0.123	-0.085
-89.743	-3.755	0.161	-0.110
-88.728	-96.418	-0.159	-0.042
-87.713	317.825	-0.228	0.425
-86.699	-200.000	-0.008	-0.528
-85.684	-107.401	-0.047	-0.010
-84.670	800.000	-0.069	0.256
-83.655	-192.138	-0.235	0.002
-82.640	6.398	0.025	0.018
-81.626	-47.887	-0.179	-0.086
-80.611	-123.335	0.200	-0.031
-79.597	-200.000	0.051	0.359
-78.582	173.028	0.363	0.515
-77.567	1.763	0.202	0.143
-76.553	-29.068	-0.327	-0.185
-75.538	307.874	0.104	-0.192
-74.524	11.633	-0.197	0.149
-73.509	-137.160	-0.145	0.016
-72.494	-111.562	0.223	0.045
-71.480	-111.414	0.265	-0.053
-70.465	-200.000	-0.090	0.492
-69.451	800.000	0.078	0.289
-68.436	451.479	-0.143	0.311
-67.422	-46.640	-0.236	-0.114
-66.407	-123.147	-0.190	-0.030
-65.392	-51.461	0.182	-0.084
-64.378	-200.000	0.040	0.456
-63.363	182.979	0.075	0.108
-62.349	308.574	0.085	0.156
-61.334	-62.094	-1.535	-0.631
-60.319	314.052	0.317	0.588
-59.305	744.363	-0.301	-0.796
-58.290	553.377	0.404	0.955
-57.276	447.099	0.667	1.445
-56.261	-200.000	95.250	596.452
-55.246	678.355	1367.991	3502.060
-54.232	200.262	2540.983	3841.463
-53.217	122.748	2139.143	2633.837
-52.203	44.438	1603.250	1449.140
-51.188	35.664	1341.775	1160.088
-50.173	32.500	1300.481	1105.798
-49.159	54.975	1347.010	1280.027
-48.144	57.268	1363.390	1309.205
-47.130	35.922	1322.892	1145.116
-46.115	32.466	1305.393	1109.594
-45.100	32.227	1300.288	1103.808
-44.086	32.170	1297.711	1101.242
-43.071	32.039	1295.666	1098.696
-42.057	32.040	1293.475	1096.805
-41.042	32.076	1291.969	1095.691
-40.027	32.098	1289.778	1093.915
-39.013	32.041	1288.782	1092.701
-37.998	32.099	1286.327	1090.909
-36.984	32.127	1284.931	1089.845
-35.969	32.211	1282.883	1088.552
-34.954	32.240	1280.853	1086.952
-33.940	32.183	1280.088	1085.933
-32.925	32.232	1278.285	1084.644
-31.911	32.453	1276.842	1084.648
-30.896	32.330	1275.332	1082.616
-29.881	32.210	1274.058	1080.800
-28.867	32.372	1272.598	1080.450
-27.852	32.257	1271.727	1079.008
-26.838	32.357	1270.199	1078.240
-25.823	32.283	1268.951	1076.713
-24.809	32.292	1267.488	1075.485
-23.794	32.239	1266.336	1074.157
-22.779	32.281	1264.941	1073.173
-21.765	32.210	1263.835	1071.790
-20.750	32.214	1262.455	1070.598
-19.736	32.216	1260.772	1069.141
-18.721	32.220	1259.619	1068.143
-17.706	32.099	1259.091	1066.963
-16.692	32.206	1257.354	1066.057
-15.677	32.170	1256.758	1065.303
-14.663	32.162	1255.309	1063.989
-13.648	32.064	1254.522	1062.724
-12.633	32.055	1253.784	1062.005
-11.619	32.132	1252.504	1061.318
-10.604	32.073	1251.789	1060.337
-9.590	32.148	1250.577	1059.689
-8.575	32.155	1249.788	1059.018
-7.560	32.006	1249.282	1057.705
-6.546	32.089	1248.326	1057.324
-5.531	32.171	1247.242	1056.827
-4.517	32.132	1246.590	1056.011
-3.502	32.180	1245.399	1055.229
-2.487	32.170	1244.039	1053.979
-1.473	32.076	1240.462	1050.382
-0.458	30.690	1225.059	1029.634
0.556	26.089	1207.961	992.584
1.571	22.435	1213.925	977.159
2.586	21.505	1228.440	983.528
3.600	20.902	1217.435	971.273
4.615	15.947	1146.412	888.454
5.629	8.007	1073.573	792.569
6.644	4.744	1053.817	761.957
7.659	4.536	1051.187	758.977
8.673	4.553	1050.725	758.659
9.688	4.497	1049.253	757.254
10.702	4.678	1047.400	756.731
11.717	9.107	1053.315	782.566
12.731	16.018	1063.825	824.216
13.746	18.856	1065.539	839.353
14.761	18.072	1064.508	834.638
15.775	17.031	1062.016	827.539
16.790	16.006	1060.211	821.069
17.804	15.225	1058.730	816.044
18.819	14.891	1057.934	813.736
19.834	14.738	1056.424	811.760
20.848	14.374	1056.243	809.777
21.863	14.226	1055.007	808.042
22.877	14.168	1054.567	807.352
23.892	14.136	1053.614	806.395
24.907	14.062	1052.911	805.427
25.921	14.109	1052.198	805.035
26.936	14.213	1050.515	804.181
27.950	14.276	1049.077	803.311
28.965	14.315	1047.513	802.231
29.980	14.379	1045.826	801.176
30.994	14.541	1044.729	801.045
32.009	14.401	1044.362	800.020
33.023	14.424	1042.765	798.833
34.038	14.303	1041.949	797.561
35.053	14.232	1041.291	796.646
36.067	14.360	1039.860	796.090
37.082	14.231	1039.709	795.288
38.096	14.416	1038.538	795.209
39.111	14.391	1038.375	794.893
40.126	14.207	1036.884	792.802
41.140	14.062	1035.444	790.943
42.155	14.241	1033.827	790.489
43.169	13.850	1033.849	788.579
44.184	14.051	1032.054	788.093
45.199	13.988	1031.064	786.966
46.213	13.984	1030.615	786.539
47.228	14.210	1029.263	786.506
48.242	14.284	1028.181	785.956
49.257	14.161	1027.349	784.669
50.271	14.380	1026.443	784.943
51.286	14.375	1025.935	784.459
52.301	14.242	1024.854	782.939
53.315	14.216	1023.309	781.568
54.330	14.162	1022.599	780.704
55.344	14.151	1021.682	779.881
56.359	14.145	1020.739	779.065
57.374	14.110	1019.814	778.127
58.388	14.153	1018.830	777.508
59.403	13.925	1018.609	776.205
60.417	13.974	1017.617	775.609
61.432	13.965	1017.239	775.208
62.447	13.862	1016.258	773.915
63.461	13.932	1014.982	773.200
64.476	14.016	1014.137	772.876
65.490	13.952	1013.484	772.016
66.505	13.999	1012.780	771.630
67.520	13.949	1012.582	771.176
68.534	14.127	1011.223	770.898
69.549	13.936	1010.714	769.558
70.563	13.871	1009.751	768.456
71.578	13.921	1008.947	768.006
72.593	13.862	1008.235	767.123
73.607	13.905	1007.484	766.683
74.622	13.792	1007.384	766.018
75.636	13.925	1006.481	765.875
76.651	13.914	1005.581	765.074
77.666	13.987	1004.946	764.860
78.680	13.848	1004.487	763.803
79.695	13.935	1004.115	763.853
80.709	13.924	1003.623	763.359
81.724	14.210	1002.495	763.745
82.739	14.155	1001.651	762.781
83.753	14.221	1001.148	762.635
84.768	14.301	1000.612	762.525
85.782	14.312	999.571	761.717
86.797	14.264	998.644	760.722
87.812	14.329	997.853	760.348
88.826	14.200	996.839	758.920
89.841	14.307	995.837	758.580
90.855	14.456	994.465	758.146
91.870	14.386	993.849	757.290
92.884	14.418	993.311	756.958
93.899	14.383	992.489	756.105
94.914	14.542	991.381	755.913
95.928	14.578	990.680	755.478
96.943	14.358	989.680	753.651
97.957	14.453	989.097	753.569
98.972	14.373	988.402	752.615
99.987	14.508	987.335	752.344
101.001	14.249	986.777	750.684
102.016	14.332	985.796	750.244
103.030	14.389	984.902	749.756
104.045	14.551	984.288	749.950
105.060	14.300	983.275	747.986
106.074	14.243	982.230	746.866
107.089	14.067	981.000	745.079
108.103	13.928	980.711	744.170
109.118	14.037	979.482	743.659
110.133	14.088	978.550	743.111
111.147	14.007	977.818	742.130
112.162	14.133	976.902	741.931
113.176	14.131	975.965	741.145
114.191	14.135	975.832	740.995
115.206	14.096	974.788	739.965
116.220	14.063	974.229	739.327
117.235	14.233	972.797	738.931
118.249	14.077	972.228	737.740
119.264	14.035	971.749	737.123
120.279	14.087	970.899	736.645
121.293	14.051	969.816	735.597
122.308	13.990	969.146	734.756
123.322	14.046	968.074	734.127
124.337	14.112	966.949	733.500
125.352	14.084	966.004	732.595
126.366	14.004	965.206	731.571
127.381	13.942	963.576	730.000
128.395	14.016	963.232	730.000
129.410	14.026	962.355	729.313
130.424	14.133	961.301	728.919
131.439	14.213	960.667	728.723
132.454	14.255	959.631	728.060
133.468	14.090	959.458	727.139
134.483	14.405	958.016	727.358
135.497	14.257	957.253	726.071
136.512	14.213	956.678	725.379
137.527	14.160	956.289	724.788
138.541	14.245	955.587	724.562
139.556	14.251	954.747	723.886
140.570	14.402	954.048	723.947
141.585	14.497	953.155	723.619
142.600	14.534	951.997	722.837
143.614	14.458	951.442	722.024
144.629	14.444	950.736	721.361
145.643	14.564	949.619	720.969
146.658	14.350	948.670	719.259
147.673	14.286	948.101	718.490
148.687	14.298	947.183	717.782
149.702	14.390	945.852	717.105
150.716	14.315	945.162	716.196
151.731	14.241	944.721	715.481
152.746	14.302	944.040	715.163
153.760	14.262	943.443	714.475
154.775	14.411	942.988	714.708
155.789	14.389	942.456	714.147
156.804	14.511	941.061	713.547
157.819	14.388	941.120	713.007
158.833	14.455	940.627	712.854
159.848	14.554	939.618	712.449
160.862	14.449	938.616	711.179
161.877	14.389	937.388	709.930
162.892	14.447	936.321	709.306
163.906	14.355	935.606	708.309
164.921	14.389	934.847	707.817
165.935	14.393	934.057	707.175
166.950	14.425	933.084	706.510
167.964	14.299	932.608	705.551
168.979	14.374	931.784	705.184
169.994	14.506	930.708	704.865
171.008	14.581	929.728	704.376
172.023	14.402	929.591	703.457
173.037	14.653	928.416	703.564
174.052	14.621	927.973	703.031
175.067	14.503	927.253	701.928
176.081	14.452	926.453	701.043
177.096	14.302	926.486	700.377
178.110	14.454	925.794	700.427
179.125	14.420	924.961	699.596
180.140	14.671	924.243	700.044
181.154	14.696	923.925	699.844
182.169	14.729	923.453	699.562
183.183	14.750	922.999	699.247
184.198	14.648	921.835	697.874
185.213	14.836	921.015	697.978
186.227	14.782	920.786	697.515
187.242	14.747	919.921	696.652
188.256	14.820	919.604	696.656
189.271	14.786	918.732	695.793
190.286	14.689	917.865	694.671
191.300	14.445	917.207	693.098
192.315	14.427	916.638	692.533
193.329	14.372	915.993	691.752
194.344	14.478	915.554	691.802
195.359	14.715	914.764	692.127
196.373	14.777	914.327	691.989
197.388	14.757	914.188	691.742
198.402	14.929	913.448	691.833
199.417	15.026	913.109	691.915
200.432	15.110	912.308	691.594
201.446	15.117	911.536	690.978
202.461	15.017	911.382	690.386
203.475	15.213	910.136	690.186
204.490	15.013	909.569	688.874
205.504	14.808	908.973	687.520
206.519	14.952	908.097	687.387
207.534	15.070	907.270	687.183
208.548	14.969	906.779	686.338
209.563	15.086	905.787	686.004
210.577	15.058	905.371	685.513
211.592	15.018	904.807	684.862
212.607	15.063	904.055	684.419
213.621	14.906	904.016	683.685
214.636	15.076	903.067	683.602
215.650	15.011	902.390	682.762
216.665	15.170	901.435	682.629
217.680	15.258	900.542	682.249
218.694	15.249	900.355	682.009
219.709	15.201	899.429	681.055
220.723	15.174	898.795	680.403
221.738	15.163	898.483	680.064
222.753	15.261	897.532	679.680
223.767	15.390	896.965	679.715
224.782	15.385	896.442	679.235
225.796	15.349	896.139	678.801
226.811	15.269	895.670	678.062
227.826	15.231	894.719	677.131
228.840	15.292	893.840	676.651
229.855	15.223	893.237	675.856
230.869	15.207	892.457	675.141
231.884	15.260	891.604	674.647
232.899	15.215	890.865	673.849
233.913	15.082	890.679	673.113
234.928	15.283	889.536	672.998
235.942	15.255	889.422	672.740
236.957	15.204	888.383	671.691
237.972	15.332	888.171	671.983
238.986	15.186	887.611	670.916
240.001	15.242	886.771	670.445
241.015	15.291	886.217	670.164
242.030	15.427	885.255	669.921
243.045	15.493	884.776	669.759
244.059	15.338	884.545	668.909
245.074	15.531	883.639	668.933
246.088	15.489	883.144	668.333
247.103	15.380	882.744	667.535
248.117	15.597	882.071	667.829
249.132	15.847	881.008	667.961
250.147	15.873	880.532	667.643
251.161	15.865	880.345	667.409
252.176	15.761	879.869	666.576
253.190	15.894	878.584	666.073
254.205	15.958	878.156	665.939
255.220	15.758	877.712	664.756
256.234	15.906	876.861	664.638
257.249	15.957	876.178	664.262
258.263	15.875	875.515	663.375
259.278	15.900	875.148	663.139
260.293	16.037	874.123	662.842
261.307	16.058	873.780	662.606
262.322	16.000	873.212	661.888
263.336	16.285	872.116	662.116
264.351	16.034	871.697	660.757
265.366	16.077	871.213	660.499
266.380	16.043	870.581	659.827
267.395	16.160	869.436	659.359
268.409	16.048	868.896	658.455
269.424	16.071	868.117	657.897
270.439	16.209	867.521	657.925
271.453	16.064	866.648	656.638
272.468	16.064	866.502	656.469
273.482	15.988	865.782	655.570
274.497	16.043	865.633	655.613
275.512	16.089	864.916	655.190
276.526	16.115	864.310	654.774
277.541	16.126	863.507	654.151
278.555	16.160	863.136	653.945
279.570	16.310	862.560	654.031
280.585	16.278	861.879	653.332
281.599	16.254	860.941	652.470
282.614	16.151	860.640	651.786
283.628	16.230	859.927	651.494
284.643	16.163	859.185	650.617
285.657	16.100	859.036	650.205
286.672	16.241	857.920	649.844
287.687	16.432	857.189	649.969
288.701	16.288	856.787	649.051
289.716	16.230	856.594	648.627
290.730	16.327	855.881	648.401
291.745	16.247	855.278	647.579
292.760	16.433	854.393	647.565
293.774	16.321	854.249	646.970
294.789	16.360	853.170	646.245
295.803	16.218	852.770	645.342
296.818	16.198	852.210	644.783
297.833	16.316	851.254	644.452
298.847	16.369	851.050	644.446
299.862	16.492	850.553	644.482
300.876	16.469	849.782	643.752
301.891	16.509	849.034	643.280
302.906	16.623	848.482	643.239
303.920	16.638	847.691	642.638
304.935	16.793	847.133	642.745
305.949	16.638	847.102	642.077
306.964	16.659	846.491	641.637
307.979	16.787	845.713	641.476
308.993	16.625	845.552	640.682
310.008	16.695	844.658	640.213
311.022	16.728	844.053	639.824
312.037	16.623	843.222	638.740
313.052	16.442	842.964	637.805
314.066	16.491	842.168	637.334
315.081	16.444	841.832	636.846
316.095	16.644	840.947	636.873
317.110	16.588	840.722	636.432
318.125	16.491	840.348	635.731
319.139	16.725	839.179	635.668
320.154	16.496	839.533	635.019
321.168	16.667	838.463	634.797
322.183	16.505	837.928	633.727
323.197	16.675	837.684	634.125
324.212	16.716	837.066	633.753
325.227	16.660	836.328	632.928
326.241	16.637	835.778	632.369
327.256	16.562	835.499	631.822
328.270	16.509	834.787	631.029
329.285	16.781	833.879	631.303
330.300	16.785	833.266	630.799
331.314	16.669	833.138	630.215
332.329	16.682	832.814	629.961
333.343	16.801	832.356	630.000
334.358	16.852	831.752	629.679
335.373	16.845	831.310	629.261
336.387	16.953	830.949	629.334
337.402	16.914	830.973	629.150
338.416	16.824	830.900	628.707
339.431	16.974	830.214	628.685
340.446	16.954	829.846	628.279
341.460	17.207	829.127	628.615
342.475	17.304	828.558	628.485
343.489	17.226	828.130	627.818
344.504	17.320	827.562	627.679
345.519	17.213	827.731	627.355
346.533	17.134	827.013	626.464
347.548	17.188	826.396	626.142
348.562	17.067	826.076	625.397
349.577	17.062	825.198	624.659
350.592	17.001	824.389	623.769
351.606	17.031	824.030	623.551
352.621	17.083	823.266	623.108
353.635	17.143	822.643	622.803
354.650	17.139	821.831	622.118
355.665	17.196	821.700	622.172
356.679	17.248	820.679	621.534
357.694	17.377	820.328	621.684
358.708	17.149	819.666	620.295
359.723	17.379	818.585	620.263
360.738	17.322	818.408	619.864
361.752	17.286	817.950	619.332
362.767	17.347	817.344	619.038
363.781	17.363	817.239	618.963
364.796	17.510	816.341	618.763
365.810	17.389	816.540	618.421
366.825	17.547	816.002	618.531
367.840	17.591	815.353	618.145
368.854	17.595	814.767	617.658
369.869	17.526	814.523	617.171
370.883	17.390	814.110	616.309
371.898	17.572	813.673	616.582
372.913	17.572	813.419	616.338
373.927	17.510	812.717	615.526
374.942	17.601	812.411	615.568
375.956	17.711	811.958	615.566
376.971	17.932	811.324	615.828
377.986	17.749	811.393	615.166
379.000	17.794	810.624	614.692
380.015	17.890	809.891	614.426
381.029	17.885	809.347	613.941
382.044	17.883	808.886	613.533
383.059	17.771	808.183	612.542
384.073	17.752	807.761	612.098
385.088	17.738	806.835	611.293
386.102	17.674	806.761	610.952
387.117	17.732	805.717	610.318
388.132	17.663	805.321	609.715
389.146	17.893	804.648	609.975
390.161	17.728	804.537	609.247
391.175	17.822	803.986	609.111
392.190	17.903	803.256	608.793
393.205	17.887	802.642	608.216
394.219	17.806	802.896	608.067
395.234	17.622	802.255	606.874
396.248	17.708	802.011	606.940
397.263	17.710	801.205	606.283
398.278	17.705	801.065	606.106
399.292	17.646	800.785	605.632
400.307	17.620	800.189	605.035
401.321	17.776	799.643	605.122
402.336	17.713	799.053	604.399
403.350	17.776	798.620	604.239
404.365	17.875	798.318	604.308
405.380	18.040	797.560	604.267
406.394	17.993	797.286	603.838
407.409	18.012	797.088	603.703
408.423	18.127	796.750	603.797
409.438	18.262	796.179	603.790
410.453	18.197	795.822	603.234
411.467	18.306	795.156	603.060
412.482	18.284	794.870	602.714
413.496	18.269	794.826	602.572
414.511	18.113	794.559	601.769
415.526	18.356	793.516	601.781
416.540	18.461	793.085	601.768
417.555	18.251	792.802	600.764
418.569	18.305	792.511	600.680
419.584	18.346	791.979	600.368
420.599	18.251	791.722	599.786
421.613	156.089	1370.758	1794.035
422.628	135.048	1455.142	1794.148
