DTS Sentinel unit serial number:	SN413079Multiplexer serial number:	ORYXHardware model number:	OX4-SRSoftware version number:	ORYX F/W v4.00 Oryx Data Collector v3.7.2.0data status	okinstallation	princeton_trtdifferential loss correction	single-endedforward channel	channel 1reverse channel	N/Adate	2019/09/12time	07:40:11forward acquisition time	60.00reverse acquisition time	0.00gamma	496.2192k internal	0.2315k external	0.2315temperature offset calibration	1.0045default loss term (dB/km)	0.3790temperature slope calibration	1.0000multiplexer offset coefficient	1.0000multiplexer slope coefficient	1.0000fibre end	0.00T internal ref (°C)	32.69T ext. ref 1 (°C)	1.64T ext. ref 2 (°C)	29.13length (m)	temperature (°C)	Stokes	anti-Stokes-747.200	327.889	-0.061	0.119
-746.185	-200.000	0.025	-0.190
-745.171	-109.097	0.342	-0.074
-744.156	800.000	-0.078	0.256
-743.142	90.207	0.184	0.209
-742.127	459.711	0.095	-0.215
-741.112	9.902	0.234	0.180
-740.098	800.000	-0.124	0.443
-739.083	450.620	0.116	0.259
-738.069	800.000	0.125	0.396
-737.054	95.585	-0.051	-0.059
-736.039	-112.138	-0.232	-0.047
-735.025	-31.387	0.163	0.093
-734.010	157.382	0.092	-0.130
-732.996	3.296	0.269	-0.198
-731.981	800.000	0.049	0.186
-730.966	271.136	0.033	0.060
-729.952	-200.000	-0.018	0.187
-728.937	-200.000	0.000	-0.085
-727.923	-16.006	0.172	-0.111
-726.908	-162.352	-0.265	-0.013
-725.894	242.715	-0.060	0.101
-724.879	-92.688	-0.325	-0.092
-723.864	82.960	0.295	-0.325
-722.850	488.189	0.040	0.092
-721.835	526.199	-0.048	-0.114
-720.821	-200.000	0.025	-0.134
-719.806	800.000	-0.078	-0.293
-718.791	-95.899	-0.307	-0.083
-717.777	-110.568	-0.149	0.031
-716.762	-18.345	-0.192	-0.122
-715.748	-130.577	-0.342	0.047
-714.733	-200.000	0.002	-0.324
-713.718	-200.000	-0.009	-0.141
-712.704	170.863	-0.165	-0.239
-711.689	125.372	-0.122	-0.156
-710.675	6.511	0.091	0.068
-709.660	152.229	0.170	-0.235
-708.645	800.000	-0.067	-0.194
-707.631	26.201	-0.169	-0.143
-706.616	800.000	0.149	0.449
-705.602	-44.003	0.203	0.103
-704.587	522.659	-0.169	-0.402
-703.572	-71.572	-0.234	-0.088
-702.558	263.673	0.258	-0.453
-701.543	-94.784	-0.081	0.022
-700.529	-9.738	0.179	-0.121
-699.514	7.228	0.245	-0.185
-698.499	-11.091	0.058	0.039
-697.485	-104.141	-0.256	-0.060
-696.470	-104.362	-0.434	-0.102
-695.456	37.670	-0.038	-0.034
-694.441	-133.462	-0.266	0.034
-693.426	-44.134	0.232	-0.118
-692.412	-79.644	0.274	0.093
-691.397	183.794	-0.057	0.085
-690.383	-177.909	-0.404	-0.010
-689.368	188.695	0.210	-0.318
-688.354	-96.838	0.281	-0.074
-687.339	-68.865	0.124	0.048
-686.324	-112.233	-0.453	-0.092
-685.310	-141.780	0.160	-0.016
-684.295	-95.978	0.356	-0.096
-683.281	515.253	-0.096	-0.226
-682.266	-23.705	0.418	-0.254
-681.251	563.912	-0.045	-0.110
-680.237	800.000	0.044	-0.187
-679.222	-200.000	-0.020	-0.281
-678.208	800.000	-0.072	0.239
-677.193	106.474	-0.034	0.040
-676.178	59.979	0.161	0.161
-675.164	419.716	0.027	-0.059
-674.149	438.795	-0.010	0.021
-673.135	-163.629	0.204	-0.010
-672.120	-153.572	-0.358	0.025
-671.105	-200.000	-0.011	-0.232
-670.091	800.000	0.076	0.276
-669.076	32.261	-0.183	0.160
-668.062	5.350	0.112	-0.083
-667.047	170.040	0.241	-0.348
-666.032	29.289	-0.098	-0.084
-665.018	-146.395	-0.134	0.012
-664.003	177.639	0.051	-0.075
-662.989	-200.000	0.016	-0.083
-661.974	-52.576	-0.417	0.194
-660.959	-81.687	-0.402	-0.133
-659.945	720.616	-0.220	0.590
-658.930	-133.019	0.057	-0.007
-657.916	-36.187	-0.106	0.058
-656.901	-72.790	-0.067	0.025
-655.886	-83.500	0.301	-0.097
-654.872	2.343	-0.218	0.159
-653.857	-152.008	0.399	-0.029
-652.843	-38.751	-0.266	-0.142
-651.828	50.554	0.148	0.141
-650.814	-200.000	0.001	0.263
-649.799	-95.241	-0.150	0.041
-648.784	430.810	-0.144	0.314
-647.770	800.000	0.058	0.216
-646.755	-200.000	0.004	-0.095
-645.741	47.342	0.037	0.035
-644.726	277.446	-0.152	-0.273
-643.711	800.000	0.056	-0.230
-642.697	129.575	-0.301	-0.388
-641.682	-71.609	0.041	0.016
-640.668	-200.000	-0.018	-0.144
-639.653	465.229	0.091	-0.206
-638.638	483.536	-0.127	0.292
-637.624	-156.715	0.174	0.011
-636.609	104.304	-0.183	0.217
-635.595	-200.000	-0.076	-0.372
-634.580	265.184	0.045	-0.080
-633.565	469.411	-0.108	-0.244
-632.551	351.738	0.065	-0.129
-631.536	176.628	0.081	0.119
-630.522	-17.410	-0.270	0.171
-629.507	-161.681	-0.268	0.014
-628.492	-200.000	-0.000	0.072
-627.478	-200.000	-0.052	0.346
-626.463	-140.560	-0.202	-0.021
-625.449	-1.387	0.085	-0.061
-624.434	-26.196	-0.321	0.190
-623.419	-158.000	0.199	-0.012
-622.405	33.653	0.380	0.333
-621.390	28.537	-0.176	0.151
-620.376	-165.539	-0.268	-0.012
-619.361	-64.290	0.148	0.061
-618.346	-200.000	-0.034	0.198
-617.332	-200.000	0.002	0.092
-616.317	250.950	-0.230	-0.395
-615.303	-112.285	-0.559	0.113
-614.288	17.374	0.326	-0.261
-613.273	9.322	-0.264	-0.201
-612.259	-13.499	0.317	0.207
-611.244	41.647	-0.258	-0.236
-610.230	800.000	-0.007	-0.023
-609.215	-200.000	0.265	0.001
-608.201	-200.000	0.013	-0.304
-607.186	-56.019	-0.319	-0.144
-606.171	-77.040	0.245	0.086
-605.157	-200.000	0.002	-0.185
-604.142	-200.000	0.095	-0.510
-603.128	-106.249	0.260	-0.059
-602.113	194.819	-0.109	0.167
-601.098	86.741	0.142	-0.157
-600.084	-200.000	-0.029	-0.165
-599.069	86.424	-0.141	-0.156
-598.055	-126.071	-0.207	-0.031
-597.040	-58.135	-0.181	-0.079
-596.025	-200.000	0.031	-0.227
-595.011	148.215	-0.052	-0.071
-593.996	7.700	0.107	0.081
-592.982	151.128	0.218	0.299
-591.967	-117.301	-0.366	-0.067
-590.952	26.334	0.130	-0.110
-589.938	-153.906	-0.221	0.015
-588.923	-111.091	-0.343	-0.071
-587.909	-131.773	0.114	0.015
-586.894	-200.000	-0.003	-0.149
-585.879	596.660	-0.160	0.400
-584.865	117.452	-0.032	-0.039
-583.850	-200.000	-0.092	0.607
-582.836	-200.000	0.014	-0.086
-581.821	-200.000	-0.010	-0.097
-580.806	56.310	0.135	0.132
-579.792	-48.771	0.416	-0.201
-578.777	-200.000	0.006	0.083
-577.763	737.225	0.037	-0.099
-576.748	209.843	-0.160	0.252
-575.733	-200.000	0.002	-0.097
-574.719	146.017	-0.179	-0.242
-573.704	28.004	-0.161	0.137
-572.690	-100.230	-0.199	0.050
-571.675	-116.998	0.185	-0.034
-570.661	-48.162	-0.204	0.099
-569.646	-166.632	0.297	0.012
-568.631	-86.890	0.402	-0.123
-567.617	-200.000	-0.036	0.339
-566.602	-82.560	0.235	-0.077
-565.588	800.000	-0.067	0.200
-564.573	652.268	0.023	-0.060
-563.558	-200.000	-0.035	0.275
-562.544	94.835	0.171	0.195
-561.529	800.000	0.072	-0.287
-560.515	800.000	0.110	-0.480
-559.500	-149.565	-0.363	-0.029
-558.485	68.731	-0.120	0.124
-557.471	5.566	0.247	-0.184
-556.456	670.458	0.015	-0.038
-555.442	-107.579	0.090	-0.020
-554.427	-200.000	0.004	0.230
-553.412	-109.258	-0.475	-0.101
-552.398	-30.203	-0.238	0.136
-551.383	800.000	-0.011	-0.041
-550.369	-54.527	-0.212	-0.096
-549.354	800.000	0.002	0.008
-548.339	475.859	-0.044	-0.099
-547.325	285.456	0.096	-0.175
-546.310	-200.000	-0.003	-0.164
-545.296	-103.684	-0.172	-0.040
-544.281	117.760	0.178	-0.221
-543.266	-111.388	0.244	-0.050
-542.252	357.465	-0.117	0.234
-541.237	-106.392	-0.260	0.058
-540.223	-121.346	-0.106	-0.018
-539.208	800.000	0.082	0.269
-538.193	253.791	-0.079	-0.136
-537.179	148.346	0.171	-0.233
-536.164	-46.630	-0.262	-0.129
-535.150	-139.932	0.254	0.027
-534.135	456.886	0.068	0.152
-533.121	38.115	-0.439	0.393
-532.106	400.838	-0.169	-0.357
-531.091	-148.050	0.322	0.027
-530.077	-84.422	-0.441	-0.140
-529.062	108.449	-0.233	-0.280
-528.048	-200.000	-0.068	0.512
-527.033	-96.575	-0.218	-0.058
-526.018	156.411	-0.023	0.031
-525.004	41.693	0.095	-0.087
-523.989	51.894	0.111	0.107
-522.975	42.671	0.130	-0.119
-521.960	-92.255	0.094	0.027
-520.945	100.377	0.152	-0.178
-519.931	249.886	0.068	0.116
-518.916	-67.988	-0.126	-0.049
-517.902	125.697	-0.140	0.178
-516.887	138.321	-0.142	0.187
-515.872	-6.348	-0.216	-0.148
-514.858	-18.518	0.054	0.034
-513.843	14.982	-0.084	0.066
-512.829	-200.000	0.041	0.263
-511.814	128.032	-0.124	-0.158
-510.799	82.075	0.027	-0.030
-509.785	-42.540	-0.294	-0.150
-508.770	-200.000	0.060	-0.270
-507.756	-126.608	0.226	-0.034
-506.741	-200.000	-0.027	0.134
-505.726	-195.165	0.082	0.001
-504.712	80.212	0.196	0.211
-503.697	64.465	0.353	0.357
-502.683	-145.341	-0.134	0.012
-501.668	-200.000	0.022	-0.144
-500.653	313.849	-0.056	0.106
-499.639	-200.000	-0.034	0.193
-498.624	-38.518	-0.198	0.105
-497.610	800.000	0.096	0.320
-496.595	-102.576	0.277	0.066
-495.581	207.816	-0.118	0.185
-494.566	-122.459	-0.114	-0.019
-493.551	17.243	0.105	-0.084
-492.537	-124.605	-0.057	0.009
-491.522	713.765	0.078	-0.207
-490.508	67.935	-0.145	-0.149
-489.493	-74.594	0.193	0.070
-488.478	-49.167	0.274	-0.131
-487.464	-137.437	-0.306	0.035
-486.449	-78.753	-0.160	0.055
-485.435	-200.000	-0.002	-0.105
-484.420	-36.143	-0.456	0.247
-483.405	-200.000	-0.058	0.340
-482.391	158.165	0.228	-0.317
-481.376	269.460	0.135	-0.238
-480.362	188.801	0.231	0.347
-479.347	66.610	-0.397	0.405
-478.332	28.271	-0.023	0.019
-477.318	534.495	0.094	0.224
-476.303	-9.396	-0.239	-0.160
-475.289	206.318	0.122	-0.190
-474.274	-200.000	0.025	0.518
-473.259	-138.281	-0.182	-0.020
-472.245	-43.243	0.151	0.077
-471.230	800.000	-0.115	0.326
-470.216	-200.000	-0.078	0.412
-469.201	73.275	-0.071	0.074
-468.186	45.065	0.215	-0.198
-467.172	38.959	0.186	0.167
-466.157	145.415	0.135	-0.181
-465.143	70.087	-0.207	0.214
-464.128	-145.561	0.113	-0.010
-463.113	-91.236	0.209	-0.060
-462.099	-73.089	0.134	0.049
-461.084	-89.555	-0.053	0.015
-460.070	-105.007	0.235	0.054
-459.055	800.000	-0.184	0.538
-458.040	-17.850	0.266	0.167
-457.026	90.718	-0.200	-0.224
-456.011	-33.394	-0.122	-0.068
-454.997	-87.292	0.242	0.074
-453.982	45.613	0.059	0.054
-452.968	-30.262	0.183	0.104
-451.953	687.949	-0.019	0.049
-450.938	457.515	-0.083	-0.184
-449.924	201.047	-0.187	-0.289
-448.909	94.373	0.125	0.143
-447.895	134.879	-0.217	-0.282
-446.880	-55.872	0.229	-0.103
-445.865	141.394	0.041	-0.055
-444.851	-200.000	-0.007	0.065
-443.836	-24.862	0.231	0.137
-442.822	800.000	0.061	-0.170
-441.807	-154.788	0.239	0.016
-440.792	-89.226	-0.328	-0.097
-439.778	-46.580	-0.262	-0.129
-438.763	204.639	0.250	0.387
-437.749	-200.000	0.004	0.153
-436.734	-96.398	0.137	0.036
-435.719	35.663	0.114	0.100
-434.705	271.300	0.045	0.079
-433.690	-84.539	0.345	-0.109
-432.676	41.057	0.077	0.070
-431.661	-200.000	0.006	-0.202
-430.646	212.792	0.061	0.096
-429.632	-95.345	0.183	0.049
-428.617	155.553	0.045	0.062
-427.603	98.378	-0.176	-0.203
-426.588	800.000	-0.087	-0.360
-425.573	9.216	-0.040	0.031
-424.559	188.240	-0.160	-0.240
-423.544	179.988	0.152	0.222
-422.530	222.074	0.094	-0.151
-421.515	-200.000	0.028	0.236
-420.500	152.511	-0.038	0.052
-419.486	-45.765	0.217	-0.107
-418.471	-70.351	-0.176	0.067
-417.457	-200.000	-0.003	-0.386
-416.442	-95.095	0.221	-0.060
-415.428	-97.386	0.151	-0.039
-414.413	-67.634	0.072	-0.028
-413.398	800.000	-0.041	0.145
-412.384	57.245	-0.353	-0.345
-411.369	-88.261	-0.181	-0.054
-410.355	-91.672	0.332	-0.095
-409.340	800.000	-0.045	0.164
-408.325	-122.694	0.172	0.028
-407.311	-89.031	0.067	0.020
-406.296	-5.980	-0.246	-0.168
-405.282	-109.542	-0.108	0.023
-404.267	2.413	0.155	0.112
-403.252	-56.105	-0.236	-0.105
-402.238	-163.435	0.325	0.015
-401.223	-101.258	-0.356	0.087
-400.209	759.043	-0.098	0.265
-399.194	-127.664	-0.385	-0.056
-398.179	216.627	0.263	-0.418
-397.165	-102.061	0.667	-0.161
-396.150	-51.832	0.065	0.030
-395.136	262.447	0.105	-0.183
-394.121	208.228	0.183	0.286
-393.106	-6.214	-0.132	0.090
-392.092	446.430	-0.117	-0.258
-391.077	-26.432	0.178	-0.105
-390.063	-57.864	-0.300	-0.131
-389.048	800.000	0.049	0.160
-388.033	744.888	0.094	-0.253
-387.019	-84.742	-0.198	-0.062
-386.004	-200.000	0.075	-0.488
-384.990	-58.197	0.041	0.018
-383.975	758.854	0.104	0.282
-382.960	-95.371	-0.252	-0.068
-381.946	617.826	0.117	0.293
-380.931	399.607	0.116	-0.243
-379.917	-100.474	-0.300	0.074
-378.902	-146.933	0.094	0.008
-377.888	-136.109	-0.304	0.036
-376.873	176.351	0.288	0.418
-375.858	-169.289	0.114	0.004
-374.844	-129.135	-0.134	-0.019
-373.829	-135.940	-0.397	-0.047
-372.815	800.000	-0.072	-0.310
-371.800	-90.745	0.215	0.062
-370.785	-189.079	0.343	0.004
-369.771	212.674	0.146	0.230
-368.756	-85.817	0.179	0.055
-367.742	-88.361	0.329	-0.098
-366.727	-200.000	0.001	0.170
-365.712	-66.764	0.080	0.031
-364.698	800.000	0.065	0.197
-363.683	-52.467	0.189	0.087
-362.669	59.342	-0.082	0.081
-361.654	-33.378	0.151	0.084
-360.639	648.229	-0.071	0.181
-359.625	-116.677	-0.336	0.062
-358.610	-96.890	0.145	-0.038
-357.596	478.760	0.110	-0.249
-356.581	-200.000	-0.042	-0.340
-355.566	-200.000	0.022	0.338
-354.552	-4.480	-0.184	-0.127
-353.537	-134.924	0.156	-0.019
-352.523	-162.694	0.317	-0.015
-351.508	-2.333	0.450	0.315
-350.493	255.460	-0.154	0.263
-349.479	-134.556	-0.289	0.035
-348.464	-48.622	0.264	0.127
-347.450	-172.271	0.447	0.014
-346.435	-13.976	0.158	0.102
-345.420	135.664	0.222	-0.288
-344.406	800.000	0.052	-0.173
-343.391	-200.000	-0.038	0.184
-342.377	-134.840	0.190	-0.023
-341.362	60.266	-0.091	-0.089
-340.348	-32.206	-0.273	-0.152
-339.333	543.539	-0.041	0.097
-338.318	164.461	-0.089	-0.125
-337.304	-200.000	0.020	-0.339
-336.289	151.715	0.243	-0.331
-335.275	175.206	-0.045	0.065
-334.260	-200.000	-0.009	-0.136
-333.245	800.000	0.154	0.474
-332.231	-200.000	0.002	0.179
-331.216	240.568	0.118	0.197
-330.202	440.111	0.042	-0.093
-329.187	222.416	0.107	-0.171
-328.172	-141.001	-0.384	0.039
-327.158	-130.498	-0.121	-0.016
-326.143	-145.923	-0.254	-0.022
-325.129	-96.953	0.229	0.060
-324.114	-12.816	0.088	-0.057
-323.099	-126.382	0.079	0.012
-322.085	-31.318	-0.078	0.044
-321.070	-200.000	-0.024	0.166
-320.056	99.959	-0.177	0.204
-319.041	-96.016	-0.075	0.020
-318.026	-200.000	-0.070	0.317
-317.012	-118.544	-0.172	-0.030
-315.997	-101.802	0.154	-0.037
-314.983	-85.890	0.210	0.065
-313.968	-200.000	0.003	-0.055
-312.953	-74.722	-0.041	-0.015
-311.939	-114.419	-0.042	0.008
-310.924	48.878	-0.141	0.132
-309.910	-104.876	-0.119	-0.027
-308.895	4.042	0.084	-0.061
-307.880	246.251	0.126	0.212
-306.866	-200.000	0.017	-0.167
-305.851	800.000	-0.097	-0.291
-304.837	-115.930	0.147	0.027
-303.822	800.000	-0.075	0.237
-302.807	261.941	0.113	0.194
-301.793	-200.000	0.010	0.119
-300.778	12.133	-0.114	-0.088
-299.764	60.414	0.140	0.138
-298.749	-133.531	-0.160	0.020
-297.735	408.401	0.015	-0.033
-296.720	-17.916	0.114	-0.071
-295.705	168.276	-0.180	0.255
-294.691	800.000	0.039	-0.163
-293.676	4.500	-0.237	-0.173
-292.662	-106.147	-0.203	0.045
-291.647	-200.000	0.051	0.373
-290.632	-200.000	0.037	0.187
-289.618	-63.228	0.072	0.029
-288.603	-38.054	0.206	-0.109
-287.589	-200.000	-0.026	-0.206
-286.574	255.701	0.048	-0.082
-285.559	26.108	-0.174	-0.144
-284.545	-200.000	-0.018	-0.264
-283.530	128.017	0.177	-0.224
-282.516	122.770	-0.122	0.152
-281.501	800.000	0.068	0.278
-280.486	174.405	0.230	-0.331
-279.472	6.980	-0.092	-0.068
-278.457	-11.882	0.082	0.053
-277.443	-83.634	-0.124	-0.039
-276.428	10.328	0.061	0.046
-275.413	-144.490	-0.183	-0.017
-274.399	-200.000	0.037	-0.403
-273.384	-81.280	0.154	-0.051
-272.370	800.000	0.070	-0.245
-271.355	80.797	-0.087	-0.093
-270.340	-42.102	-0.309	-0.157
-269.326	-93.598	-0.137	0.038
-268.311	452.214	-0.132	-0.290
-267.297	108.574	0.067	0.079
-266.282	-141.015	0.242	-0.025
-265.267	-200.000	-0.007	-0.238
-264.253	-200.000	0.017	-0.153
-263.238	155.521	-0.083	-0.113
-262.224	151.654	0.279	-0.378
-261.209	99.025	0.109	-0.125
-260.195	-200.000	0.017	-0.163
-259.180	-200.000	0.026	-0.340
-258.165	-200.000	-0.012	-0.176
-257.151	47.608	0.028	0.026
-256.136	800.000	-0.168	0.519
-255.122	-84.657	0.095	-0.030
-254.107	-148.970	-0.176	-0.014
-253.092	-200.000	-0.027	0.141
-252.078	745.546	0.009	0.024
-251.063	-48.239	-0.292	0.140
-250.049	34.376	0.074	0.064
-249.034	57.072	0.151	0.146
-248.019	162.241	-0.029	-0.041
-247.005	481.255	-0.074	0.166
-245.990	-200.000	0.037	-0.283
-244.976	104.179	0.063	-0.073
-243.961	62.755	0.122	-0.122
-242.946	112.813	0.126	0.152
-241.932	-11.687	-0.236	0.154
-240.917	-141.580	0.305	0.031
-239.903	-135.888	0.050	-0.006
-238.888	-181.230	0.342	-0.007
-237.873	-62.394	-0.206	0.085
-236.859	259.982	-0.111	-0.191
-235.844	-41.896	-0.296	0.151
-234.830	14.517	-0.115	0.089
-233.815	277.172	0.186	0.329
-232.800	-200.000	-0.004	0.210
-231.786	-200.000	0.030	-0.263
-230.771	-80.626	-0.048	-0.016
-229.757	-166.229	-0.061	0.003
-228.742	93.888	0.197	-0.222
-227.727	183.404	0.197	0.289
-226.713	222.996	0.088	-0.141
-225.698	47.809	0.185	-0.172
-224.684	491.647	0.083	0.189
-223.669	-99.389	-0.136	0.034
-222.655	-10.026	-0.098	-0.065
-221.640	254.381	0.203	0.345
-220.625	800.000	0.025	0.098
-219.611	156.339	0.115	-0.157
-218.596	-85.811	0.197	0.061
-217.582	-200.000	-0.109	0.479
-216.567	466.876	0.185	0.411
-215.552	-200.000	0.012	-0.139
-214.538	196.140	-0.100	-0.152
-213.523	800.000	-0.049	0.171
-212.509	144.414	0.064	0.084
-211.494	43.725	-0.160	0.145
-210.479	36.218	-0.160	-0.140
-209.465	800.000	0.020	-0.070
-208.450	-167.746	-0.207	0.008
-207.436	-7.185	-0.235	0.158
-206.421	125.991	-0.285	-0.357
-205.406	303.176	-0.062	-0.115
-204.392	98.694	-0.117	-0.134
-203.377	88.930	0.033	0.037
-202.363	97.735	0.145	-0.165
-201.348	-200.000	0.013	-0.204
-200.333	-167.236	-0.142	-0.006
-199.319	800.000	0.038	-0.148
-198.304	89.256	-0.083	-0.091
-197.290	800.000	0.051	-0.202
-196.275	-38.806	-0.238	0.124
-195.260	-82.241	-0.079	-0.026
-194.246	-79.356	0.181	0.061
-193.231	336.069	0.178	0.342
-192.217	800.000	-0.051	-0.166
-191.202	-68.467	-0.211	-0.081
-190.187	140.355	0.247	-0.324
-189.173	-132.494	0.147	0.019
-188.158	-94.427	-0.046	0.013
-187.144	-43.589	-0.158	0.079
-186.129	-162.833	-0.097	0.005
-185.114	48.464	-0.158	-0.147
-184.100	63.421	0.223	0.222
-183.085	446.061	0.176	0.383
-182.071	149.706	-0.122	0.164
-181.056	50.174	0.220	-0.206
-180.042	-133.145	-0.164	0.021
-179.027	229.665	-0.110	0.178
-178.012	19.601	0.167	-0.134
-176.998	24.469	-0.159	0.130
-175.983	800.000	-0.037	-0.159
-174.969	5.208	-0.277	-0.203
-173.954	-200.000	0.018	-0.345
-172.939	-162.271	-0.100	0.005
-171.925	-129.760	-0.335	0.046
-170.910	-175.558	-0.393	0.011
-169.896	-37.221	0.241	0.128
-168.881	800.000	0.067	-0.217
-167.866	-9.805	0.125	-0.082
-166.852	193.211	0.107	-0.160
-165.837	214.959	0.208	0.326
-164.823	167.825	0.210	0.296
-163.808	800.000	-0.051	-0.199
-162.793	-183.236	0.266	0.005
-161.779	-200.000	0.098	0.520
-160.764	224.618	0.028	-0.045
-159.750	736.398	-0.078	-0.208
-158.735	-169.395	-0.160	0.006
-157.720	-200.000	-0.012	-0.113
-156.706	800.000	0.031	0.095
-155.691	295.085	0.088	0.160
-154.677	78.733	0.188	-0.199
-153.662	210.826	0.047	-0.073
-152.647	800.000	-0.041	0.121
-151.633	-200.000	-0.006	-0.051
-150.618	800.000	-0.023	0.081
-149.604	62.336	0.184	0.182
-148.589	241.652	-0.154	-0.254
-147.574	-200.000	0.012	-0.164
-146.560	-96.313	-0.387	0.102
-145.545	349.300	-0.107	0.209
-144.531	-124.968	0.351	-0.053
-143.516	-188.925	0.203	-0.002
-142.502	-30.725	0.328	-0.183
-141.487	266.374	0.032	0.055
-140.472	-156.334	0.094	0.006
-139.458	-200.000	-0.042	-0.298
-138.443	47.635	-0.058	0.053
-137.429	-200.000	-0.018	0.391
-136.414	-156.980	-0.201	-0.012
-135.399	352.619	0.115	0.225
-134.385	-138.568	-0.243	-0.026
-133.370	-200.000	-0.013	0.324
-132.356	-117.203	0.365	-0.066
-131.341	-200.000	-0.033	-0.154
-130.326	339.999	-0.181	-0.350
-129.312	355.258	-0.134	0.263
-128.297	-101.420	0.274	-0.066
-127.283	534.169	0.032	0.075
-126.268	70.058	0.428	-0.437
-125.253	121.524	-0.082	-0.101
-124.239	82.375	0.017	0.018
-123.224	489.695	0.140	-0.317
-122.210	-157.436	0.094	-0.006
-121.195	-200.000	0.044	0.318
-120.180	45.993	0.039	-0.035
-119.166	-200.000	0.012	0.232
-118.151	104.735	0.170	-0.198
-117.137	-200.000	-0.000	-0.191
-116.122	17.571	0.225	-0.177
-115.107	-200.000	0.015	-0.200
-114.093	800.000	-0.041	-0.122
-113.078	99.332	0.148	0.169
-112.064	350.526	0.058	0.114
-111.049	-76.056	-0.326	0.114
-110.034	-141.890	-0.243	-0.024
-109.020	-183.558	-0.134	-0.002
-108.005	733.346	0.092	0.243
-106.991	800.000	0.082	0.336
-105.976	31.954	0.249	0.212
-104.962	-87.308	0.210	-0.063
-103.947	-14.912	0.204	0.129
-102.932	-13.568	0.088	-0.056
-101.918	-93.665	-0.143	-0.039
-100.903	-150.567	0.246	-0.019
-99.889	384.902	0.081	-0.164
-98.874	-59.202	-0.171	0.073
-97.859	328.507	-0.126	0.239
-96.845	145.284	-0.141	0.186
-95.830	800.000	-0.057	-0.241
-94.816	387.092	-0.146	-0.299
-93.801	-42.248	0.380	-0.192
-92.786	-67.282	0.426	-0.166
-91.772	68.194	-0.159	0.160
-90.757	92.255	-0.146	0.162
-89.743	-200.000	-0.038	0.216
-88.728	-200.000	0.007	-0.092
-87.713	-110.453	0.499	0.102
-86.699	-200.000	0.025	0.113
-85.684	662.051	-0.101	-0.258
-84.670	-194.473	0.181	0.001
-83.655	286.651	-0.039	0.069
-82.640	54.014	-0.115	-0.110
-81.626	101.738	-0.164	0.189
-80.611	306.534	0.103	-0.190
-79.597	800.000	0.023	0.092
-78.582	-50.139	0.133	-0.062
-77.567	420.198	0.064	0.135
-76.553	141.194	0.094	-0.123
-75.538	-72.062	0.253	0.093
-74.524	108.981	-0.057	0.068
-73.509	68.772	-0.273	0.277
-72.494	176.920	0.106	-0.152
-71.480	227.886	0.067	0.108
-70.465	-36.099	0.263	0.140
-69.451	88.398	-0.167	-0.183
-68.436	-109.481	0.198	0.041
-67.422	16.639	0.325	0.253
-66.407	55.713	0.236	-0.226
-65.392	59.769	-0.101	0.099
-64.378	141.719	-0.140	-0.184
-63.363	330.117	0.165	-0.313
-62.349	-200.000	0.001	-0.228
-61.334	-2.076	-1.042	-0.722
-60.319	145.578	0.520	0.687
-59.305	800.000	-0.242	-1.027
-58.290	35.048	0.763	0.659
-57.276	415.062	0.695	1.460
-56.261	-200.000	97.808	589.443
-55.246	541.722	1402.132	3295.762
-54.232	154.537	2586.552	3503.086
-53.217	112.395	2158.860	2575.491
-52.203	44.406	1614.249	1461.885
-51.188	36.196	1350.776	1173.543
-50.173	32.938	1309.075	1118.013
-49.159	55.591	1355.105	1294.059
-48.144	57.556	1372.035	1321.979
-47.130	36.328	1330.699	1156.709
-46.115	32.856	1313.213	1120.880
-45.100	32.577	1308.511	1115.175
-44.086	32.608	1305.897	1113.086
-43.071	32.592	1303.234	1110.676
-42.057	32.493	1301.475	1108.550
-41.042	32.506	1299.763	1107.123
-40.027	32.590	1298.385	1106.399
-39.013	32.551	1296.853	1104.825
-37.998	32.589	1294.665	1103.139
-36.984	32.545	1293.563	1101.895
-35.969	32.705	1291.065	1100.662
-34.954	32.719	1289.452	1099.319
-33.940	32.752	1288.135	1098.351
-32.925	32.801	1286.787	1097.441
-31.911	32.778	1285.158	1095.877
-30.896	32.861	1283.681	1095.055
-29.881	32.739	1282.631	1093.408
-28.867	32.789	1281.045	1092.304
-27.852	32.785	1279.407	1090.837
-26.838	32.792	1278.419	1089.994
-25.823	32.847	1276.220	1088.394
-24.809	32.739	1275.747	1087.320
-23.794	32.820	1274.114	1086.354
-22.779	32.805	1272.758	1085.068
-21.765	32.774	1271.059	1083.397
-20.750	32.679	1270.519	1082.350
-19.736	32.704	1269.166	1081.297
-18.721	32.781	1267.527	1080.298
-17.706	32.724	1266.596	1079.133
-16.692	32.633	1265.278	1077.452
-15.677	32.582	1264.625	1076.560
-14.663	32.630	1263.164	1075.549
-13.648	32.695	1261.988	1074.872
-12.633	32.619	1261.404	1073.903
-11.619	32.663	1260.561	1073.390
-10.604	32.523	1260.337	1072.363
-9.590	32.535	1258.767	1071.050
-8.575	32.629	1257.416	1070.391
-7.560	32.570	1257.216	1069.845
-6.546	32.659	1256.087	1069.347
-5.531	32.581	1255.379	1068.257
-4.517	32.608	1254.115	1067.295
-3.502	32.559	1253.698	1066.622
-2.487	32.456	1252.956	1065.361
-1.473	32.591	1248.931	1062.661
-0.458	31.486	1234.329	1044.027
0.556	28.143	1216.801	1007.716
1.571	24.647	1222.610	993.053
2.586	23.853	1237.842	1000.866
3.600	23.062	1226.384	987.099
4.615	16.351	1151.704	891.604
5.629	6.131	1074.858	781.452
6.644	1.992	1054.975	746.704
7.659	1.605	1052.382	742.914
8.673	1.533	1051.190	741.653
9.688	1.431	1049.508	739.905
10.702	1.770	1047.792	740.277
11.717	7.786	1056.302	775.634
12.731	18.163	1071.315	837.668
13.746	23.804	1078.432	870.884
14.761	24.877	1079.558	876.977
15.775	24.852	1079.966	877.111
16.790	24.766	1078.257	875.223
17.804	24.721	1077.984	874.702
18.819	24.843	1077.610	874.920
19.834	24.901	1077.470	875.012
20.848	25.115	1076.216	874.959
21.863	24.910	1076.296	873.945
22.877	24.944	1076.038	873.828
23.892	24.824	1074.936	872.272
24.907	24.964	1074.180	872.259
25.921	24.911	1073.003	870.968
26.936	24.941	1071.765	870.036
27.950	24.853	1069.856	867.980
28.965	24.739	1068.323	866.107
29.980	24.918	1066.814	865.672
30.994	24.965	1066.135	865.275
32.009	24.937	1065.153	864.263
33.023	24.771	1064.345	862.730
34.038	24.792	1063.491	862.062
35.053	24.911	1062.670	861.896
36.067	25.025	1061.913	861.755
37.082	24.939	1061.652	861.055
38.096	25.171	1060.625	861.255
39.111	25.156	1060.079	860.667
40.126	25.036	1058.423	858.670
41.140	24.713	1056.679	855.635
42.155	24.574	1055.204	853.702
43.169	24.531	1054.535	852.878
44.184	24.569	1053.532	852.171
45.199	24.554	1052.251	850.989
46.213	24.612	1051.425	850.521
47.228	24.838	1050.530	850.797
48.242	24.829	1049.709	850.016
49.257	24.925	1049.318	850.078
50.271	24.849	1049.094	849.463
51.286	25.097	1048.045	849.714
52.301	25.155	1046.814	848.911
53.315	24.978	1046.019	847.358
54.330	24.961	1044.860	846.264
55.344	24.912	1044.311	845.511
56.359	24.822	1043.575	844.415
57.374	24.689	1042.620	842.940
58.388	24.750	1041.538	842.277
59.403	24.608	1041.002	841.105
60.417	24.535	1040.149	839.998
61.432	24.559	1039.554	839.553
62.447	24.830	1038.647	840.021
63.461	24.825	1037.879	839.303
64.476	24.716	1037.706	838.576
65.490	24.448	1036.362	836.160
66.505	24.675	1035.476	836.433
67.520	24.681	1034.902	835.925
68.534	24.437	1033.974	833.959
69.549	24.187	1032.659	831.661
70.563	24.215	1032.117	831.281
71.578	24.250	1031.284	830.696
72.593	23.967	1030.671	828.815
73.607	24.166	1030.046	829.165
74.622	24.501	1029.288	830.038
75.636	24.374	1028.971	829.118
76.651	24.281	1027.804	827.674
77.666	24.279	1027.080	827.008
78.680	24.308	1026.622	826.699
79.695	24.528	1025.576	826.804
80.709	24.640	1024.893	826.699
81.724	24.534	1024.471	825.794
82.739	24.524	1023.562	824.940
83.753	24.857	1023.462	826.324
84.768	25.339	1022.177	827.437
85.782	25.363	1021.592	826.999
86.797	25.086	1020.633	824.874
87.812	25.038	1019.621	823.766
88.826	25.099	1018.690	823.221
89.841	25.215	1017.637	822.828
90.855	25.159	1017.119	822.080
91.870	25.193	1016.038	821.290
92.884	25.065	1014.985	819.782
93.899	25.014	1014.203	818.842
94.914	25.277	1013.235	819.189
95.928	25.068	1012.311	817.416
96.943	24.840	1010.718	815.022
97.957	24.540	1010.030	813.028
98.972	24.427	1008.597	811.287
99.987	24.813	1008.225	812.671
101.001	24.886	1007.339	812.217
102.016	24.827	1006.153	810.920
103.030	24.764	1005.531	810.064
104.045	24.542	1004.484	808.142
105.060	24.535	1003.288	807.076
106.074	24.669	1002.690	807.132
107.089	24.938	1002.534	808.147
108.103	24.842	1001.181	806.551
109.118	24.545	999.563	803.842
110.133	24.570	998.953	803.394
111.147	24.507	997.682	802.014
112.162	24.395	996.774	800.712
113.176	24.676	996.201	801.441
114.191	24.513	995.497	800.076
115.206	24.135	994.263	797.320
116.220	24.112	993.561	796.581
117.235	24.416	992.572	797.080
118.249	24.308	992.000	796.064
119.264	24.116	991.343	794.613
120.279	24.316	990.542	794.792
121.293	24.323	989.789	794.149
122.308	24.362	989.206	793.783
123.322	24.343	987.749	792.457
124.337	24.176	986.738	790.839
125.352	23.704	984.843	787.155
126.366	23.773	984.298	786.956
127.381	24.464	984.152	789.828
128.395	24.838	983.709	791.057
129.410	24.968	982.982	790.975
130.424	24.902	982.097	789.904
131.439	24.839	981.094	788.750
132.454	24.928	980.102	788.276
133.468	24.747	979.470	786.898
134.483	24.837	978.627	786.548
135.497	25.106	977.853	787.039
136.512	25.227	976.793	786.648
137.527	25.155	976.010	785.630
138.541	25.227	974.987	785.052
139.556	25.241	974.477	784.635
140.570	25.284	973.807	784.214
141.585	25.161	972.971	782.933
142.600	25.144	972.045	782.043
143.614	25.320	971.597	782.383
144.629	25.502	970.659	782.348
145.643	25.278	969.362	780.261
146.658	25.245	967.577	778.613
147.673	24.939	966.748	776.551
148.687	24.829	965.977	775.383
149.702	24.738	964.842	774.012
150.716	24.792	964.406	773.825
151.731	24.953	963.888	774.038
152.746	25.180	962.563	773.884
153.760	25.371	962.221	774.367
154.775	25.335	961.729	773.747
155.789	25.324	960.416	772.574
156.804	25.223	959.902	771.659
157.819	25.306	959.091	771.294
158.833	25.420	958.358	771.128
159.848	25.322	957.567	770.002
160.862	25.463	955.880	769.181
161.877	25.258	955.478	767.913
162.892	25.356	954.573	767.534
163.906	25.300	953.063	766.016
164.921	25.184	952.535	765.025
165.935	25.295	951.895	764.919
166.950	25.161	951.155	763.686
167.964	25.262	950.198	763.279
168.979	25.024	948.777	761.058
169.994	25.065	947.944	760.496
171.008	25.452	947.467	761.688
172.023	25.138	946.742	759.708
173.037	25.122	945.781	758.802
174.052	24.998	944.465	757.156
175.067	24.886	944.218	756.418
176.081	25.154	943.619	757.001
177.096	24.898	942.675	755.098
178.110	24.727	942.073	753.827
179.125	24.602	940.994	752.373
180.140	24.692	940.821	752.548
181.154	24.824	940.385	752.687
182.169	25.129	940.668	754.127
183.183	25.294	940.192	754.372
184.198	25.185	938.784	752.718
185.213	25.258	938.324	752.591
186.227	25.379	937.363	752.260
187.242	25.374	936.940	751.831
188.256	25.331	936.437	751.183
189.271	25.187	935.678	749.905
190.286	25.044	934.308	748.145
191.300	24.396	932.771	744.146
192.315	23.640	931.324	739.778
193.329	23.436	931.519	739.016
194.344	24.596	931.385	743.677
195.359	25.040	931.562	745.598
196.373	25.111	931.076	745.438
197.388	24.924	930.424	744.072
198.402	25.112	929.639	744.162
199.417	25.202	929.235	744.146
200.432	24.830	928.369	741.843
201.446	24.824	927.132	740.766
202.461	24.853	926.481	740.298
203.475	23.883	925.122	735.139
204.490	23.168	923.512	730.844
205.504	23.988	924.458	734.914
206.519	24.746	923.835	737.482
207.534	24.900	923.121	737.482
208.548	25.290	923.237	739.117
209.563	24.931	922.358	736.868
210.577	24.993	921.936	736.720
211.592	25.453	921.219	737.975
212.607	25.383	920.094	736.718
213.621	25.314	920.145	736.412
214.636	25.262	919.420	735.554
215.650	25.248	918.427	734.638
216.665	25.437	918.043	735.039
217.680	25.423	916.852	733.960
218.694	24.956	915.874	731.206
219.709	24.885	914.952	730.117
220.723	25.081	915.086	730.959
221.738	25.166	914.699	730.932
222.753	25.061	914.157	730.005
223.767	25.457	913.501	731.031
224.782	25.406	913.116	730.448
225.796	25.372	912.595	729.828
226.811	24.836	910.612	726.007
227.826	24.173	909.424	722.306
228.840	24.335	909.432	722.908
229.855	24.561	908.104	722.700
230.869	23.945	907.818	719.917
231.884	24.616	907.292	722.148
232.899	25.156	908.113	724.924
233.913	25.150	906.746	723.742
234.928	24.959	906.502	722.715
235.942	24.977	905.645	722.040
236.957	24.772	904.865	720.528
237.972	24.797	904.007	719.883
238.986	24.898	903.908	720.145
240.001	24.805	903.271	719.199
241.015	24.968	902.795	719.413
242.030	25.093	902.529	719.639
243.045	25.193	902.019	719.569
244.059	25.311	901.684	719.713
245.074	25.108	900.114	717.580
246.088	24.891	899.423	716.097
247.103	25.099	898.988	716.523
248.117	25.718	898.913	718.870
249.132	25.917	898.755	719.477
250.147	25.844	898.658	719.045
251.161	26.168	897.939	719.695
252.176	26.054	897.672	718.964
253.190	26.007	897.207	718.342
254.205	26.291	896.329	718.705
255.220	26.297	895.421	717.936
256.234	26.021	895.115	716.532
257.249	26.052	894.070	715.755
258.263	26.069	893.317	715.155
259.278	26.052	892.887	714.681
260.293	26.185	892.388	714.744
261.307	25.950	891.976	713.421
262.322	25.907	890.618	712.100
263.336	25.149	888.779	707.579
264.351	24.095	886.961	701.918
265.366	24.149	887.189	702.246
266.380	25.283	887.648	707.017
267.395	25.715	887.006	708.144
268.409	25.624	886.477	707.304
269.424	25.856	886.146	707.888
270.439	25.950	885.181	707.420
271.453	26.012	884.728	707.242
272.468	26.067	884.555	707.255
273.482	26.109	884.089	706.987
274.497	25.818	882.733	704.698
275.512	25.380	881.934	702.288
276.526	25.830	881.984	704.022
277.541	25.947	881.408	703.960
278.555	25.667	880.888	702.388
279.570	25.606	880.074	701.438
280.585	25.698	879.508	701.286
281.599	25.628	878.719	700.319
282.614	25.048	877.237	696.822
283.628	25.115	877.034	696.862
284.643	25.485	877.093	698.284
285.657	25.005	875.965	695.461
286.672	24.881	874.916	694.086
287.687	25.486	874.573	696.097
288.701	25.597	873.772	695.827
289.716	25.160	873.309	693.706
290.730	25.020	872.757	692.664
291.745	24.911	871.448	691.146
292.760	25.080	871.648	691.894
293.774	26.105	872.351	696.349
294.789	26.458	871.719	697.142
295.803	26.344	871.403	696.388
296.818	26.484	870.380	696.049
297.833	26.074	869.054	693.352
298.847	25.833	868.778	692.144
299.862	26.186	868.606	693.303
300.876	26.398	867.931	693.515
301.891	26.293	867.614	692.798
302.906	25.813	866.578	690.069
303.920	26.126	866.188	690.899
304.935	26.443	866.215	692.070
305.949	26.488	865.113	691.303
306.964	26.196	864.459	689.604
307.979	26.236	864.424	689.666
308.993	26.505	863.815	690.144
310.008	26.458	863.449	689.614
311.022	26.327	862.608	688.382
312.037	26.211	861.760	687.203
313.052	25.903	860.572	685.023
314.066	24.972	859.594	680.649
315.081	24.640	858.976	678.837
316.095	25.498	859.587	682.519
317.110	26.127	858.927	684.321
318.125	25.267	857.042	679.506
319.139	24.254	855.725	674.568
320.154	24.195	855.396	674.027
321.168	25.260	855.568	678.131
322.183	25.745	856.087	680.315
323.197	25.990	855.842	680.983
324.212	26.215	855.384	681.410
325.227	26.338	854.961	681.475
326.241	25.966	854.156	679.372
327.256	25.901	853.496	678.543
328.270	25.928	852.533	677.817
329.285	25.684	851.695	676.174
330.300	25.468	850.920	674.687
331.314	25.822	850.644	675.740
332.329	26.105	850.946	676.980
333.343	26.299	850.618	677.385
334.358	26.213	850.222	676.689
335.373	26.266	849.842	676.528
336.387	26.579	850.051	677.805
337.402	26.692	849.796	677.966
338.416	26.700	848.912	677.228
339.431	26.743	848.724	677.181
340.446	26.923	848.478	677.594
341.460	26.652	848.417	676.475
342.475	26.524	847.404	675.129
343.489	26.706	847.189	675.578
344.504	26.913	846.746	675.935
345.519	27.116	846.472	676.413
346.533	27.100	845.738	675.705
347.548	27.066	845.593	675.404
348.562	27.056	845.043	674.869
349.577	26.996	844.045	673.789
350.592	27.156	843.361	673.778
351.606	26.951	843.192	672.823
352.621	26.922	842.033	671.730
353.635	26.843	841.158	670.680
354.650	26.272	839.550	667.231
355.665	25.367	838.028	662.624
356.679	25.679	838.060	663.744
357.694	26.115	837.895	665.160
358.708	25.930	837.245	663.903
359.723	26.363	837.306	665.488
360.738	26.619	837.027	666.149
361.752	26.899	836.019	666.316
362.767	27.122	835.988	667.054
363.781	27.294	835.564	667.286
364.796	27.560	835.263	667.961
365.810	27.498	834.845	667.341
366.825	27.294	834.834	666.526
367.840	27.264	833.215	665.065
368.854	26.777	832.526	662.676
369.869	26.838	832.210	662.588
370.883	26.702	831.572	661.525
371.898	26.607	831.688	661.213
372.913	26.842	831.052	661.506
373.927	26.893	830.711	661.360
374.942	26.986	830.517	661.488
375.956	27.179	829.952	661.681
376.971	27.291	829.434	661.618
377.986	27.518	828.954	661.999
379.000	27.359	828.662	661.130
380.015	27.122	828.137	659.792
381.029	27.243	827.448	659.624
382.044	27.452	826.808	659.815
383.059	27.431	826.265	659.246
384.073	27.440	825.529	658.635
385.088	27.373	824.883	657.819
386.102	27.013	824.670	656.290
387.117	27.052	823.635	655.546
388.132	26.737	822.532	653.477
389.146	26.137	821.853	650.718
390.161	26.679	821.803	652.572
391.175	27.232	821.437	654.216
392.190	26.776	820.578	651.834
393.205	25.377	818.415	645.037
394.219	23.846	816.540	638.013
395.234	23.928	816.350	638.101
396.248	25.425	817.919	644.647
397.263	26.865	818.620	650.309
398.278	26.987	817.831	650.062
399.292	26.671	817.653	648.732
400.307	26.682	816.887	648.105
401.321	26.808	816.595	648.268
402.336	27.161	816.533	649.423
403.350	27.293	816.793	650.044
404.365	27.901	816.136	651.633
405.380	28.011	816.316	652.110
406.394	28.121	815.617	651.886
407.409	28.238	814.779	651.574
408.423	27.981	814.857	650.666
409.438	28.116	814.685	650.952
410.453	28.077	813.879	650.111
411.467	28.113	813.016	649.491
412.482	28.049	813.379	649.496
413.496	28.166	812.833	649.420
414.511	28.155	812.057	648.704
415.526	28.273	811.507	648.625
416.540	28.096	810.686	647.284
417.555	27.636	810.543	645.485
418.569	27.799	809.926	645.512
419.584	27.752	809.262	644.760
420.599	27.559	808.629	643.518
421.613	109.154	1285.797	1455.127
422.628	94.291	1355.330	1455.233
