DTS Sentinel unit serial number:	SN413079Multiplexer serial number:	ORYXHardware model number:	OX4-SRSoftware version number:	ORYX F/W v4.00 Oryx Data Collector v3.7.2.0data status	okinstallation	princeton_trtdifferential loss correction	single-endedforward channel	channel 1reverse channel	N/Adate	2019/09/17time	20:18:35forward acquisition time	60.00reverse acquisition time	0.00gamma	496.2192k internal	0.2328k external	0.2328temperature offset calibration	0.9977default loss term (dB/km)	0.3790temperature slope calibration	1.0000multiplexer offset coefficient	1.0000multiplexer slope coefficient	1.0000fibre end	0.00T internal ref (°C)	31.59T ext. ref 1 (°C)	0.22T ext. ref 2 (°C)	21.94length (m)	temperature (°C)	Stokes	anti-Stokes-747.200	-105.654	0.316	0.072
-746.185	-13.048	-0.461	0.302
-745.171	-200.000	-0.001	0.106
-744.156	800.000	0.068	0.261
-743.142	148.061	-0.296	0.403
-742.127	87.997	-0.293	0.327
-741.112	138.237	0.117	0.155
-740.098	-123.772	-0.202	0.032
-739.083	240.651	0.181	0.305
-738.069	800.000	-0.030	0.095
-737.054	-99.851	0.273	0.069
-736.039	-125.238	-0.335	0.052
-735.025	-23.359	0.180	-0.109
-734.010	-200.000	0.026	0.346
-732.996	800.000	0.013	-0.050
-731.981	-128.003	-0.222	-0.032
-730.966	282.508	-0.029	-0.053
-729.952	-124.325	-0.092	0.014
-728.937	-169.919	-0.185	-0.007
-727.923	800.000	-0.070	0.220
-726.908	-146.881	-0.120	0.010
-725.894	-200.000	-0.013	-0.262
-724.879	129.937	0.029	0.038
-723.864	266.690	-0.154	0.271
-722.850	800.000	-0.033	0.107
-721.835	-93.367	0.283	-0.079
-720.821	-200.000	0.009	-0.042
-719.806	50.608	-0.236	-0.225
-718.791	-173.150	-0.130	-0.004
-717.777	-47.783	0.054	-0.026
-716.762	-52.887	-0.273	-0.127
-715.748	-200.000	-0.010	-0.342
-714.733	-88.899	0.087	0.026
-713.718	-6.653	-0.284	-0.195
-712.704	130.259	0.118	-0.152
-711.689	68.070	-0.156	-0.161
-710.675	178.730	-0.094	0.138
-709.660	614.274	-0.097	-0.246
-708.645	-200.000	0.021	-0.180
-707.631	-200.000	-0.019	0.088
-706.616	-122.214	0.231	-0.038
-705.602	-200.000	0.080	0.434
-704.587	-41.361	-0.082	0.043
-703.572	-67.008	-0.354	0.140
-702.558	-57.051	-0.392	0.174
-701.543	-200.000	-0.015	0.119
-700.529	36.838	-0.166	-0.148
-699.514	29.302	-0.216	-0.185
-698.499	-200.000	-0.011	0.061
-697.485	-116.980	-0.312	0.057
-696.470	-200.000	-0.049	-0.301
-695.456	253.278	0.165	-0.283
-694.441	139.755	0.247	0.327
-693.426	552.183	-0.144	-0.347
-692.412	245.622	-0.116	-0.196
-691.397	-145.208	-0.183	0.017
-690.383	377.762	0.109	-0.224
-689.368	582.675	0.026	0.063
-688.354	-200.000	0.042	0.317
-687.339	-200.000	-0.079	0.463
-686.324	-97.818	-0.246	-0.064
-685.310	800.000	0.039	-0.115
-684.295	544.767	-0.157	0.378
-683.281	22.567	-0.253	0.208
-682.266	-93.754	0.205	-0.057
-681.251	118.429	-0.072	0.090
-680.237	496.751	-0.124	-0.287
-679.222	-200.000	0.061	-0.283
-678.208	-20.079	-0.092	0.057
-677.193	800.000	-0.061	0.213
-676.178	16.694	-0.164	0.130
-675.164	273.186	0.109	0.193
-674.149	590.385	-0.108	-0.268
-673.135	-200.000	-0.048	0.267
-672.120	416.495	0.079	0.170
-671.105	11.416	0.231	0.178
-670.091	800.000	-0.049	0.155
-669.076	-200.000	-0.009	-0.124
-668.062	-50.381	-0.142	-0.068
-667.047	-51.211	0.133	-0.063
-666.032	-180.925	-0.490	0.010
-665.018	273.397	0.071	-0.125
-664.003	-180.105	0.132	-0.003
-662.989	-24.300	-0.079	-0.048
-661.974	192.347	-0.167	-0.252
-660.959	-140.059	-0.266	0.028
-659.945	-200.000	-0.056	-0.274
-658.930	315.719	-0.127	0.240
-657.916	84.701	-0.147	-0.162
-656.901	688.936	-0.159	-0.418
-655.886	-116.589	-0.180	0.033
-654.872	-200.000	-0.018	0.094
-653.857	800.000	-0.117	-0.327
-652.843	-50.577	0.436	0.207
-651.828	-130.211	-0.465	-0.064
-650.814	11.035	-0.145	0.111
-649.799	-41.469	-0.113	0.058
-648.784	106.749	-0.195	-0.232
-647.770	800.000	0.066	-0.290
-646.755	-98.869	0.236	0.060
-645.741	-66.244	-0.059	-0.024
-644.726	151.826	-0.095	-0.130
-643.711	405.879	-0.155	-0.329
-642.697	-101.088	-0.303	-0.075
-641.682	-168.642	0.156	-0.006
-640.668	800.000	-0.079	-0.296
-639.653	-106.814	0.268	0.060
-638.638	-72.467	0.095	-0.035
-637.624	-51.778	0.416	-0.194
-636.609	222.052	0.149	-0.241
-635.595	-87.235	-0.148	0.045
-634.580	800.000	-0.042	0.154
-633.565	-36.325	-0.272	0.147
-632.551	7.300	-0.142	-0.107
-631.536	164.299	0.271	0.383
-630.522	-18.595	0.130	0.081
-629.507	-200.000	0.028	0.286
-628.492	153.196	-0.148	-0.203
-627.478	800.000	0.060	-0.183
-626.463	800.000	0.003	0.010
-625.449	-95.764	0.287	-0.077
-624.434	-65.465	0.077	-0.031
-623.419	800.000	0.060	-0.193
-622.405	-181.316	0.252	0.005
-621.390	1.329	-0.171	0.124
-620.376	-50.913	-0.224	-0.106
-619.361	-88.932	0.217	-0.065
-618.346	-103.874	-0.476	0.111
-617.332	43.165	-0.306	-0.280
-616.317	115.265	0.157	0.192
-615.303	321.683	0.080	0.153
-614.288	214.628	-0.122	-0.194
-613.273	-200.000	0.029	-0.132
-612.259	-200.000	-0.007	0.391
-611.244	267.091	0.067	-0.118
-610.230	-44.640	0.290	-0.145
-609.215	-200.000	0.041	0.231
-608.201	-46.968	-0.114	-0.056
-607.186	-63.653	-0.139	-0.057
-606.171	-77.838	0.343	0.119
-605.157	137.695	0.088	-0.115
-604.142	77.555	0.221	-0.236
-603.128	119.653	-0.041	0.051
-602.113	-21.696	-0.230	0.140
-601.098	177.330	0.224	-0.328
-600.084	25.171	0.392	-0.326
-599.069	800.000	0.026	-0.111
-598.055	-200.000	-0.037	-0.173
-597.040	284.010	0.079	-0.143
-596.025	-146.977	0.389	-0.033
-595.011	-83.369	-0.143	0.046
-593.996	800.000	0.045	-0.185
-592.982	-12.394	0.135	-0.089
-591.967	46.332	0.094	-0.087
-590.952	85.811	-0.203	-0.224
-589.938	62.817	0.059	-0.059
-588.923	800.000	0.167	0.472
-587.909	-200.000	0.009	-0.124
-586.894	800.000	0.050	-0.177
-585.879	55.374	-0.283	0.275
-584.865	-200.000	-0.023	-0.116
-583.850	-22.594	0.396	0.240
-582.836	-147.511	-0.144	-0.012
-581.821	432.226	0.048	0.105
-580.806	369.110	0.058	0.117
-579.792	-36.614	-0.047	-0.025
-578.777	-105.298	0.132	-0.030
-577.763	205.164	-0.165	-0.257
-576.748	-30.371	-0.083	0.047
-575.733	-151.614	0.137	-0.010
-574.719	111.818	-0.187	-0.226
-573.704	-200.000	0.034	-0.181
-572.690	-43.537	-0.254	-0.128
-571.675	-114.888	-0.399	-0.076
-570.661	180.186	-0.046	0.068
-569.646	17.420	-0.324	-0.258
-568.631	-200.000	-0.028	-0.172
-567.617	-200.000	0.003	0.205
-566.602	-200.000	-0.258	0.001
-565.588	-2.600	-0.166	-0.116
-564.573	-200.000	0.013	-0.096
-563.558	128.759	-0.140	0.179
-562.544	800.000	0.157	0.468
-561.529	800.000	-0.092	0.284
-560.515	31.653	0.236	0.203
-559.500	117.727	-0.198	-0.243
-558.485	-111.560	-0.099	-0.020
-557.471	179.023	-0.055	0.081
-556.456	52.422	0.139	0.133
-555.442	-112.572	0.293	-0.058
-554.427	-111.252	-0.107	-0.022
-553.412	-39.427	-0.129	0.068
-552.398	-70.553	-0.194	-0.073
-551.383	201.815	0.239	-0.369
-550.369	124.689	0.102	0.129
-549.354	15.838	-0.300	-0.236
-548.339	-200.000	0.010	0.076
-547.325	430.124	-0.200	0.433
-546.310	9.143	0.018	-0.014
-545.296	32.019	0.113	-0.097
-544.281	-142.809	-0.297	0.029
-543.266	800.000	0.060	0.179
-542.252	-200.000	-0.054	0.373
-541.237	-181.671	0.243	0.005
-540.223	-75.011	0.145	0.052
-539.208	-181.862	0.106	0.002
-538.193	-128.363	-0.236	0.034
-537.179	-188.945	-0.388	0.005
-536.164	-200.000	0.042	0.424
-535.150	-61.167	0.163	-0.069
-534.135	10.171	-0.018	-0.014
-533.121	-200.000	-0.002	-0.041
-532.106	-200.000	-0.012	-0.315
-531.091	34.494	0.202	0.176
-530.077	-27.289	-0.206	-0.120
-529.062	528.482	0.065	0.153
-528.048	30.092	-0.231	-0.197
-527.033	-156.365	-0.149	0.009
-526.018	-200.000	-0.027	0.287
-525.004	800.000	0.039	0.112
-523.989	506.471	0.053	-0.123
-522.975	-138.782	0.330	-0.036
-521.960	-200.000	0.020	-0.183
-520.945	54.717	0.115	-0.111
-519.931	-14.121	-0.446	-0.288
-518.916	788.820	-0.042	-0.116
-517.902	222.911	-0.078	0.126
-516.887	-121.999	0.326	-0.054
-515.872	359.097	-0.152	-0.304
-514.858	754.465	-0.045	0.120
-513.843	358.519	0.114	0.228
-512.829	198.724	0.096	0.148
-511.814	-124.914	-0.456	-0.070
-510.799	-74.947	-0.208	-0.075
-509.785	-200.000	0.046	-0.343
-508.770	49.452	-0.284	-0.267
-507.756	82.947	0.220	-0.239
-506.741	222.390	-0.166	0.267
-505.726	-110.120	0.152	-0.032
-504.712	-47.855	0.220	-0.106
-503.697	-130.005	0.090	-0.012
-502.683	-51.410	0.294	-0.137
-501.668	169.247	-0.066	0.094
-500.653	800.000	-0.038	-0.140
-499.639	-73.278	-0.033	-0.012
-498.624	-200.000	-0.055	0.293
-497.610	-189.795	-0.261	0.003
-496.595	-141.668	0.365	-0.037
-495.581	106.684	-0.163	-0.193
-494.566	362.384	0.021	-0.041
-493.551	114.639	0.135	0.165
-492.537	54.510	-0.174	0.168
-491.522	332.407	0.052	0.101
-490.508	-98.756	-0.243	0.062
-489.493	95.637	0.091	-0.103
-488.478	50.848	-0.120	-0.113
-487.464	149.118	0.199	-0.269
-486.449	800.000	-0.104	-0.421
-485.435	-73.650	-0.276	-0.100
-484.420	-152.001	-0.095	-0.007
-483.405	-164.416	-0.290	0.013
-482.391	-99.336	0.092	0.023
-481.376	800.000	0.059	-0.170
-480.362	-73.158	-0.066	0.024
-479.347	-200.000	0.000	-0.084
-478.332	-89.033	-0.314	0.093
-477.318	244.697	-0.066	0.110
-476.303	122.556	0.100	-0.125
-475.289	-62.615	-0.078	-0.032
-474.274	-200.000	-0.000	-0.066
-473.259	158.666	0.218	-0.302
-472.245	132.005	-0.384	0.492
-471.230	-46.407	0.278	0.136
-470.216	435.453	0.128	0.277
-469.201	83.397	0.166	0.180
-468.186	556.535	0.109	0.261
-467.172	-132.504	0.147	0.019
-466.157	23.906	-0.177	0.145
-465.143	588.578	0.057	0.140
-464.128	800.000	-0.039	0.112
-463.113	-200.000	0.026	0.124
-462.099	-130.922	0.101	0.013
-461.084	-120.974	0.308	0.052
-460.070	440.062	0.088	0.192
-459.055	-127.776	-0.070	-0.010
-458.040	189.064	0.077	-0.115
-457.026	43.263	0.179	0.163
-456.011	270.145	0.045	-0.078
-454.997	340.247	-0.022	0.043
-453.982	260.098	0.050	0.086
-452.968	19.077	-0.052	0.042
-451.953	800.000	0.048	-0.132
-450.938	-63.119	-0.087	0.036
-449.924	800.000	0.054	0.150
-448.909	490.489	-0.174	0.397
-447.895	280.657	-0.126	0.225
-446.880	-120.913	0.286	-0.048
-445.865	-87.463	-0.024	0.007
-444.851	9.457	0.352	-0.266
-443.836	-72.245	-0.243	0.090
-442.822	-162.003	-0.092	0.005
-441.807	800.000	0.110	0.442
-440.792	35.701	0.176	0.154
-439.778	66.966	-0.182	-0.185
-438.763	-120.993	0.259	0.043
-437.749	107.491	0.155	0.184
-436.734	-109.924	-0.073	0.015
-435.719	-200.000	-0.001	0.056
-434.705	-22.761	-0.335	0.202
-433.690	-31.433	0.111	0.062
-432.676	297.703	0.059	0.108
-431.661	106.122	0.164	0.194
-430.646	8.013	0.385	-0.287
-429.632	-80.289	-0.189	0.063
-428.617	616.919	0.136	0.340
-427.603	303.112	0.059	-0.110
-426.588	-37.272	0.163	-0.087
-425.573	272.586	0.150	0.264
-424.559	-119.240	0.175	0.030
-423.544	-41.433	-0.235	-0.121
-422.530	101.002	-0.143	-0.166
-421.515	-84.718	-0.090	-0.028
-420.500	148.761	-0.144	0.194
-419.486	14.397	-0.088	-0.069
-418.471	-101.224	-0.147	-0.036
-417.457	-129.939	-0.298	0.041
-416.442	-184.113	0.143	-0.002
-415.428	-174.637	0.124	0.004
-414.413	61.196	-0.071	0.070
-413.398	800.000	-0.034	-0.133
-412.384	-100.654	0.592	-0.145
-411.369	152.906	0.059	0.080
-410.355	-122.224	0.129	-0.021
-409.340	-107.471	0.353	-0.077
-408.325	-200.000	0.014	-0.065
-407.311	-103.432	-0.162	0.038
-406.296	800.000	-0.088	-0.278
-405.282	-200.000	-0.041	-0.206
-404.267	-124.536	-0.112	-0.017
-403.252	21.817	-0.052	0.042
-402.238	19.556	-0.128	-0.102
-401.223	-77.602	-0.081	0.028
-400.209	159.489	0.146	0.202
-399.194	343.436	0.051	-0.098
-398.179	51.747	0.135	0.128
-397.165	29.349	-0.201	0.169
-396.150	-51.090	0.109	-0.051
-395.136	800.000	0.041	0.119
-394.121	-138.368	-0.425	0.047
-393.106	-122.892	0.123	0.020
-392.092	357.941	-0.107	-0.212
-391.077	221.576	-0.115	-0.184
-390.063	-200.000	0.013	0.117
-389.048	800.000	0.029	0.092
-388.033	-200.000	-0.083	0.000
-387.019	0.620	0.220	0.156
-386.004	372.282	0.018	0.037
-384.990	87.691	0.253	-0.278
-383.975	-28.866	-0.212	-0.121
-382.960	-47.910	0.243	0.117
-381.946	-16.935	-0.131	-0.082
-380.931	14.460	0.151	0.117
-379.917	156.184	0.106	0.145
-378.902	241.749	-0.089	-0.148
-377.888	49.735	0.273	0.256
-376.873	-125.484	-0.089	0.013
-375.858	70.970	0.099	-0.102
-374.844	-158.076	0.092	-0.005
-373.829	468.887	-0.147	0.329
-372.815	-66.431	-0.273	0.108
-371.800	105.960	-0.254	0.299
-370.785	800.000	0.019	0.070
-369.771	-36.382	0.275	-0.147
-368.756	-29.085	0.413	-0.235
-367.742	219.358	-0.094	-0.150
-366.727	72.612	0.276	0.286
-365.712	800.000	-0.062	-0.205
-364.698	44.730	0.303	-0.277
-363.683	-123.846	-0.268	0.042
-362.669	-10.594	-0.234	0.154
-361.654	-110.959	0.244	0.050
-360.639	194.197	-0.131	-0.197
-359.625	-200.000	-0.015	0.306
-358.610	800.000	-0.064	0.235
-357.596	38.734	0.089	0.079
-356.581	-200.000	-0.016	0.094
-355.566	69.018	-0.298	-0.304
-354.552	800.000	0.043	-0.171
-353.537	661.631	0.110	0.282
-352.523	124.334	0.111	-0.139
-351.508	101.846	0.185	-0.214
-350.493	-76.723	0.212	-0.074
-349.479	-39.505	-0.391	0.203
-348.464	-119.794	0.256	0.044
-347.450	800.000	-0.113	0.352
-346.435	-113.282	0.095	-0.018
-345.420	-141.995	-0.326	0.032
-344.406	-200.000	0.048	-0.330
-343.391	135.986	-0.302	0.390
-342.377	-26.246	0.177	0.103
-341.362	-15.186	-0.269	0.171
-340.348	-200.000	-0.003	0.094
-339.333	-166.966	0.193	-0.008
-338.318	29.507	-0.150	0.126
-337.304	-155.765	0.332	-0.021
-336.289	-26.546	-0.293	-0.170
-335.275	326.105	0.148	-0.281
-334.260	108.785	-0.149	-0.176
-333.245	-176.661	0.094	0.002
-332.231	268.261	0.119	-0.206
-331.216	178.137	0.183	-0.264
-330.202	-200.000	0.014	0.291
-329.187	-158.874	-0.205	0.012
-328.172	-155.226	-0.162	0.010
-327.158	-200.000	0.025	0.113
-326.143	45.844	0.114	0.105
-325.129	20.382	0.271	-0.217
-324.114	219.922	0.130	0.207
-323.099	-101.106	0.225	-0.055
-322.085	687.469	-0.165	-0.427
-321.070	-30.020	-0.435	-0.246
-320.056	-64.450	0.201	-0.081
-319.041	-104.711	0.320	-0.073
-318.026	-200.000	0.009	0.188
-317.012	-86.790	0.327	-0.099
-315.997	-11.966	0.183	0.119
-314.983	781.939	-0.006	-0.017
-313.968	800.000	-0.038	-0.121
-312.953	219.218	0.031	0.050
-311.939	800.000	-0.065	-0.203
-310.924	-200.000	0.005	-0.166
-309.910	188.415	-0.158	-0.234
-308.895	-28.785	0.139	0.079
-307.880	-20.243	-0.048	0.029
-306.866	-160.608	0.090	-0.005
-305.851	-165.479	-0.126	0.005
-304.837	-200.000	0.032	0.361
-303.822	38.572	0.203	-0.179
-302.807	800.000	0.039	-0.142
-301.793	-200.000	0.058	0.349
-300.778	-145.526	-0.534	0.047
-299.764	-135.021	-0.059	0.007
-298.749	4.528	-0.308	-0.224
-297.735	-68.653	-0.317	-0.121
-296.720	-196.374	-0.262	-0.002
-295.705	800.000	-0.015	-0.059
-294.691	326.238	-0.173	-0.329
-293.676	27.477	0.201	-0.167
-292.662	149.537	0.108	0.146
-291.647	131.127	-0.246	0.313
-290.632	653.659	0.071	-0.179
-289.618	800.000	0.053	-0.171
-288.603	-28.962	-0.265	-0.151
-287.589	800.000	0.063	-0.231
-286.574	202.185	0.057	0.087
-285.559	259.718	0.069	-0.118
-284.545	62.278	-0.207	-0.204
-283.530	800.000	-0.040	-0.134
-282.516	-64.470	-0.361	-0.145
-281.501	87.319	-0.173	-0.190
-280.486	72.220	0.085	-0.087
-279.472	-121.824	-0.365	-0.060
-278.457	-48.520	0.241	-0.115
-277.443	646.752	-0.082	0.208
-276.428	470.367	-0.094	-0.208
-275.413	-44.247	-0.102	0.051
-274.399	800.000	-0.063	0.204
-273.384	30.245	-0.099	0.084
-272.370	72.189	-0.065	-0.067
-271.355	800.000	-0.141	0.602
-270.340	-169.234	0.126	0.005
-269.326	161.424	0.127	0.176
-268.311	800.000	-0.023	-0.078
-267.297	-68.916	-0.221	0.084
-266.282	117.245	-0.111	-0.136
-265.267	-81.714	0.305	0.099
-264.253	198.615	-0.112	-0.170
-263.238	-125.992	0.449	0.067
-262.224	-141.649	-0.231	-0.023
-261.209	14.761	-0.417	-0.322
-260.195	256.729	0.084	0.142
-259.180	-70.106	-0.534	0.201
-258.165	-200.000	0.033	0.178
-257.151	368.277	-0.103	-0.205
-256.136	800.000	-0.055	-0.204
-255.122	-184.579	-0.115	-0.002
-254.107	6.400	0.017	-0.012
-253.092	-2.713	0.270	-0.187
-252.078	-200.000	-0.015	0.108
-251.063	-54.664	-0.175	0.078
-250.049	-116.371	-0.027	0.005
-249.034	-26.446	0.075	-0.043
-248.019	338.651	-0.089	0.172
-247.005	46.426	-0.255	0.234
-245.990	-95.239	0.143	0.038
-244.976	461.921	-0.065	-0.144
-243.961	-59.339	0.340	-0.144
-242.946	-114.161	0.094	0.018
-241.932	-90.034	0.147	-0.042
-240.917	115.720	-0.207	0.250
-239.903	213.749	0.087	0.137
-238.888	800.000	0.039	0.155
-237.873	800.000	-0.011	-0.031
-236.859	-126.399	-0.330	0.049
-235.844	-200.000	-0.001	-0.146
-234.830	-149.323	0.182	-0.014
-233.815	660.360	-0.146	0.372
-232.800	-8.206	0.339	-0.226
-231.786	21.189	0.127	0.102
-230.771	-200.000	0.015	-0.167
-229.757	177.783	0.143	-0.206
-228.742	-162.832	0.349	-0.017
-227.727	-200.000	-0.057	-0.352
-226.713	-200.000	0.049	-0.312
-225.698	-113.903	-0.189	-0.036
-224.684	800.000	-0.048	0.195
-223.669	-2.095	-0.139	0.096
-222.655	-200.000	-0.037	-0.216
-221.640	-105.679	-0.068	-0.015
-220.625	69.809	0.048	-0.049
-219.611	-177.359	0.201	-0.005
-218.596	211.890	0.073	0.114
-217.582	131.453	0.312	0.396
-216.567	16.306	-0.135	-0.105
-215.552	-200.000	0.089	0.591
-214.538	-117.247	-0.084	0.015
-213.523	124.264	0.119	0.147
-212.509	39.966	-0.238	-0.211
-211.494	800.000	-0.118	0.354
-210.479	-38.325	0.104	0.054
-209.465	90.684	0.201	0.223
-208.450	178.197	0.166	0.239
-207.436	-13.913	-0.091	-0.058
-206.421	-14.864	0.164	-0.104
-205.406	330.619	0.127	0.241
-204.392	-148.854	0.141	0.011
-203.377	-77.549	-0.143	-0.049
-202.363	-200.000	0.007	-0.032
-201.348	-46.505	0.236	0.114
-200.333	250.981	0.099	0.165
-199.319	203.360	0.142	-0.217
-198.304	-10.398	-0.168	-0.110
-197.290	-200.000	-0.010	-0.117
-196.275	229.256	0.018	-0.030
-195.260	-125.257	0.176	-0.027
-194.246	-87.618	-0.043	-0.013
-193.231	496.526	-0.171	0.387
-192.217	-200.000	0.000	-0.152
-191.202	800.000	0.033	-0.109
-190.187	-200.000	-0.055	0.274
-189.173	403.296	-0.080	-0.167
-188.158	800.000	0.027	0.083
-187.144	-161.150	-0.213	0.011
-186.129	477.436	-0.070	-0.157
-185.114	-66.623	-0.377	-0.147
-184.100	229.316	-0.190	0.305
-183.085	-52.838	0.419	0.190
-182.071	-200.000	-0.025	0.188
-181.056	-22.558	-0.066	-0.039
-180.042	-54.689	-0.155	0.069
-179.027	-50.434	0.181	-0.084
-178.012	-135.507	-0.065	-0.008
-176.998	800.000	0.085	-0.236
-175.983	-29.169	0.071	-0.040
-174.969	146.364	0.146	0.193
-173.954	77.607	0.147	0.155
-172.939	83.537	-0.071	0.076
-171.925	-116.281	0.088	-0.016
-170.910	-200.000	-0.061	0.374
-169.896	-200.000	0.010	-0.228
-168.881	-101.732	0.407	-0.097
-167.866	219.345	0.265	0.417
-166.852	-200.000	0.008	0.212
-165.837	-132.149	-0.150	0.019
-164.823	-72.384	-0.328	-0.120
-163.808	-200.000	-0.025	-0.176
-162.793	-6.627	-0.200	0.134
-161.779	-167.167	0.224	-0.009
-160.764	343.560	0.079	0.152
-159.750	-125.033	0.038	-0.006
-158.735	-195.111	0.040	0.000
-157.720	-200.000	-0.029	0.195
-156.706	115.832	-0.114	-0.138
-155.691	800.000	-0.087	-0.368
-154.677	615.274	-0.129	-0.318
-153.662	-88.241	0.313	0.092
-152.647	-71.979	-0.136	-0.050
-151.633	-200.000	-0.008	-0.122
-150.618	73.456	-0.136	0.140
-149.604	-200.000	-0.002	0.050
-148.589	34.417	0.221	0.190
-147.574	-5.418	-0.342	-0.231
-146.560	-200.000	0.023	0.346
-145.545	48.864	-0.230	0.213
-144.531	800.000	0.114	0.425
-143.516	-200.000	0.041	-0.257
-142.502	434.590	0.064	-0.137
-141.487	-73.085	0.332	0.120
-140.472	-162.932	0.118	0.006
-139.458	-80.974	0.183	0.060
-138.443	62.702	0.230	-0.226
-137.429	-142.958	0.351	0.033
-136.414	-38.383	-0.296	0.154
-135.399	-85.378	0.218	0.067
-134.385	-62.256	-0.056	0.023
-133.370	800.000	-0.034	0.117
-132.356	154.190	-0.087	0.117
-131.341	-57.397	-0.219	0.095
-130.326	82.538	0.170	0.182
-129.312	39.864	0.268	0.237
-128.297	800.000	-0.090	-0.318
-127.283	800.000	-0.036	0.112
-126.268	-36.568	0.090	-0.048
-125.253	800.000	-0.047	0.144
-124.239	-137.808	0.441	0.049
-123.224	-23.474	0.113	0.067
-122.210	-44.711	0.143	0.070
-121.195	-105.407	-0.090	-0.020
-120.180	633.489	0.054	-0.134
-119.166	87.000	0.112	0.121
-118.151	147.997	0.106	-0.140
-117.137	-64.142	0.285	0.114
-116.122	34.342	-0.184	0.158
-115.107	33.287	-0.220	-0.187
-114.093	4.142	-0.119	-0.086
-113.078	-154.419	-0.012	-0.001
-112.064	350.046	0.114	-0.222
-111.049	-200.000	0.046	-0.343
-110.034	-200.000	0.003	0.109
-109.020	-138.568	0.526	0.057
-108.005	143.998	-0.086	0.112
-106.991	-49.116	-0.113	0.053
-105.976	-200.000	-0.029	0.290
-104.962	762.411	0.073	0.194
-103.947	23.545	-0.222	0.179
-102.932	-17.636	-0.204	-0.126
-101.918	140.738	0.115	-0.149
-100.903	-89.760	-0.159	0.046
-99.889	158.014	-0.151	0.205
-98.874	259.016	-0.111	-0.188
-97.859	800.000	-0.022	-0.089
-96.845	80.717	0.210	-0.222
-95.830	-60.609	-0.020	-0.008
-94.816	91.259	0.168	0.186
-93.801	-49.615	-0.228	0.107
-92.786	373.727	0.097	-0.194
-91.772	137.625	0.138	0.178
-90.757	88.209	-0.202	0.220
-89.743	18.288	0.056	-0.044
-88.728	-200.000	-0.021	-0.116
-87.713	15.320	0.201	0.155
-86.699	800.000	0.173	0.490
-85.684	-160.959	0.362	-0.019
-84.670	187.493	0.169	0.247
-83.655	217.015	-0.098	-0.153
-82.640	-63.522	-0.248	-0.100
-81.626	41.200	0.143	0.127
-80.611	-115.856	0.183	-0.034
-79.597	-80.695	0.456	0.149
-78.582	245.238	-0.049	-0.081
-77.567	-200.000	0.365	-0.002
-76.553	284.316	0.228	0.403
-75.538	16.127	-0.157	0.121
-74.524	14.433	0.184	0.141
-73.509	92.044	-0.041	0.046
-72.494	-90.915	0.309	-0.087
-71.480	-148.868	-0.140	-0.011
-70.465	64.557	0.144	-0.143
-69.451	40.845	0.100	0.089
-68.436	-69.193	0.122	-0.046
-67.422	141.411	-0.238	-0.309
-66.407	-200.000	-0.007	-0.056
-65.392	481.844	-0.059	-0.132
-64.378	178.604	-0.188	0.270
-63.363	-17.473	-0.106	0.065
-62.349	-91.210	0.377	0.106
-61.334	151.027	-0.945	-1.261
-60.319	26.037	0.658	0.539
-59.305	-200.000	-0.223	-1.198
-58.290	194.253	0.662	0.984
-57.276	800.000	0.456	1.425
-56.261	-200.000	105.123	585.783
-55.246	461.819	1459.587	3194.260
-54.232	151.544	2629.897	3514.322
-53.217	109.753	2146.017	2524.273
-52.203	43.244	1601.805	1434.782
-51.188	35.286	1343.419	1155.568
-50.173	32.078	1302.367	1101.432
-49.159	54.957	1353.573	1282.097
-48.144	56.622	1369.949	1307.503
-47.130	35.192	1326.014	1139.859
-46.115	31.757	1308.947	1104.925
-45.100	31.531	1303.954	1099.338
-44.086	31.606	1301.367	1097.555
-43.071	31.522	1299.606	1095.536
-42.057	31.437	1297.776	1093.453
-41.042	31.460	1295.539	1091.657
-40.027	31.478	1294.586	1090.920
-39.013	31.521	1292.445	1089.320
-37.998	31.516	1290.558	1087.656
-36.984	31.587	1288.932	1086.656
-35.969	31.537	1287.018	1084.711
-34.954	31.525	1285.430	1083.258
-33.940	31.658	1284.038	1082.814
-32.925	31.657	1282.692	1081.630
-31.911	31.767	1281.005	1080.799
-30.896	31.761	1279.424	1079.384
-29.881	31.631	1278.830	1078.094
-28.867	31.737	1277.107	1077.205
-27.852	31.724	1275.268	1075.541
-26.838	31.712	1274.234	1074.554
-25.823	31.691	1272.945	1073.307
-24.809	31.692	1271.618	1072.149
-23.794	31.685	1270.328	1070.977
-22.779	31.683	1269.507	1070.231
-21.765	31.614	1267.886	1068.431
-20.750	31.662	1266.595	1067.575
-19.736	31.567	1265.107	1065.738
-18.721	31.615	1264.120	1065.134
-17.706	31.523	1263.154	1063.754
-16.692	31.518	1261.845	1062.583
-15.677	31.581	1260.612	1061.862
-14.663	31.578	1259.549	1060.907
-13.648	31.574	1258.363	1059.841
-12.633	31.543	1257.989	1059.312
-11.619	31.517	1256.837	1058.149
-10.604	31.547	1256.260	1057.792
-9.590	31.562	1254.765	1056.576
-8.575	31.390	1254.165	1055.059
-7.560	31.532	1253.229	1055.027
-6.546	31.591	1252.527	1054.731
-5.531	31.419	1251.575	1052.916
-4.517	31.518	1250.178	1052.255
-3.502	31.603	1249.423	1052.057
-2.487	31.581	1248.631	1051.228
-1.473	31.390	1244.138	1046.331
-0.458	28.967	1227.617	1018.991
0.556	22.288	1207.647	969.518
1.571	17.290	1211.529	944.843
2.586	15.940	1226.043	948.478
3.600	15.663	1215.195	938.455
4.615	11.659	1144.672	862.820
5.629	4.273	1071.161	770.747
6.644	0.568	1051.755	738.613
7.659	0.178	1049.377	734.972
8.673	0.061	1048.965	734.050
9.688	0.065	1047.327	732.857
10.702	0.393	1045.166	732.875
11.717	4.690	1050.785	757.715
12.731	12.370	1060.815	802.519
13.746	16.629	1065.498	826.843
14.761	16.924	1065.767	828.422
15.775	16.092	1063.869	822.812
16.790	15.007	1061.889	815.924
17.804	14.417	1060.441	811.863
18.819	14.040	1059.656	809.357
19.834	13.792	1058.314	807.051
20.848	13.579	1057.194	805.092
21.863	13.255	1056.662	803.043
22.877	13.228	1055.790	802.177
23.892	13.103	1054.834	800.774
24.907	13.232	1054.043	800.726
25.921	13.280	1053.239	800.278
26.936	13.246	1052.602	799.557
27.950	13.185	1051.554	798.397
28.965	13.270	1050.836	798.190
29.980	13.352	1049.538	797.529
30.994	13.441	1048.393	797.019
32.009	13.427	1047.289	796.043
33.023	13.342	1046.416	794.898
34.038	13.260	1045.368	793.641
35.053	13.235	1044.971	793.150
36.067	13.336	1043.909	792.755
37.082	13.378	1042.873	792.101
38.096	13.314	1042.484	791.429
39.111	13.302	1041.712	790.715
40.126	13.191	1040.340	789.074
41.140	13.175	1039.025	787.928
42.155	13.143	1038.296	787.152
43.169	13.209	1037.238	786.595
44.184	13.156	1036.033	785.359
45.199	13.117	1035.436	784.656
46.213	13.217	1033.946	783.930
47.228	13.304	1032.819	783.417
48.242	13.272	1031.858	782.469
49.257	13.255	1030.892	781.585
50.271	13.320	1029.961	781.119
51.286	13.313	1028.850	780.172
52.301	13.249	1028.320	779.403
53.315	13.161	1027.086	777.984
54.330	13.223	1026.181	777.522
55.344	13.136	1025.403	776.455
56.359	13.184	1025.229	776.478
57.374	13.186	1023.716	775.272
58.388	13.078	1023.074	774.212
59.403	13.115	1022.114	773.588
60.417	13.007	1021.657	772.668
61.432	13.109	1020.858	772.474
62.447	13.128	1019.830	771.718
63.461	13.080	1018.821	770.660
64.476	13.158	1018.102	770.412
65.490	13.053	1017.307	769.251
66.505	13.136	1016.817	769.203
67.520	13.205	1015.867	768.736
68.534	13.129	1015.276	767.866
69.549	13.229	1014.185	767.437
70.563	13.197	1013.592	766.773
71.578	13.075	1013.064	765.741
72.593	12.991	1012.546	764.892
73.607	12.990	1011.747	764.217
74.622	13.016	1011.444	764.041
75.636	12.923	1010.550	762.866
76.651	13.153	1009.582	763.130
77.666	13.032	1009.135	762.168
78.680	12.917	1008.745	761.276
79.695	13.035	1007.908	761.121
80.709	13.088	1007.198	760.761
81.724	13.089	1006.312	760.026
82.739	13.231	1005.632	760.101
83.753	13.361	1004.930	760.100
84.768	13.353	1003.881	759.200
85.782	13.430	1002.893	758.740
86.797	13.322	1002.001	757.504
87.812	13.301	1000.794	756.428
88.826	13.246	1000.169	755.636
89.841	13.275	999.630	755.298
90.855	13.378	998.548	754.883
91.870	13.433	997.537	754.302
92.884	13.414	996.989	753.732
93.899	13.377	996.445	753.089
94.914	13.429	995.445	752.501
95.928	13.510	994.375	751.996
96.943	13.394	993.602	750.818
97.957	13.356	992.776	749.955
98.972	13.271	992.423	749.235
99.987	13.398	990.939	748.623
101.001	13.304	990.060	747.470
102.016	13.307	989.365	746.890
103.030	13.327	988.522	746.280
104.045	13.511	987.141	745.999
105.060	13.310	986.838	744.799
106.074	13.101	986.301	743.386
107.089	13.283	984.472	742.762
108.103	13.256	983.952	742.181
109.118	13.169	983.293	741.227
110.133	13.176	982.200	740.370
111.147	13.144	981.644	739.742
112.162	13.141	980.965	739.152
113.176	13.433	979.719	739.452
114.191	13.240	979.153	738.097
115.206	13.272	978.783	737.897
116.220	13.192	977.840	736.763
117.235	13.216	976.961	736.142
118.249	13.286	976.124	735.760
119.264	13.444	974.739	735.351
120.279	13.269	974.956	734.674
121.293	13.409	973.366	734.031
122.308	13.391	972.466	733.208
123.322	13.157	971.915	731.693
124.337	13.206	970.867	731.052
125.352	13.330	969.496	730.505
126.366	13.244	968.560	729.356
127.381	13.324	967.783	729.056
128.395	13.305	966.884	728.231
129.410	13.265	966.049	727.362
130.424	13.310	965.187	726.847
131.439	13.283	964.412	726.080
132.454	13.370	963.892	726.005
133.468	13.438	962.819	725.435
134.483	13.274	962.016	724.045
135.497	13.354	961.316	723.807
136.512	13.373	960.406	723.136
137.527	13.377	959.569	722.462
138.541	13.448	958.445	721.864
139.556	13.363	958.354	721.359
140.570	13.513	957.356	721.195
141.585	13.481	956.529	720.369
142.600	13.598	955.807	720.272
143.614	13.584	954.667	719.289
144.629	13.471	954.112	718.315
145.643	13.559	953.102	717.875
146.658	13.502	952.293	716.955
147.673	13.521	951.056	716.040
148.687	13.482	950.598	715.466
149.702	13.454	949.831	714.704
150.716	13.462	949.031	714.071
151.731	13.364	948.389	713.103
152.746	13.514	947.839	713.274
153.760	13.382	947.045	712.044
154.775	13.403	946.693	711.805
155.789	13.497	946.221	711.795
156.804	13.486	945.418	711.078
157.819	13.475	944.756	710.473
158.833	13.608	944.200	710.559
159.848	13.672	943.246	710.053
160.862	13.555	942.680	709.065
161.877	13.540	941.434	708.001
162.892	13.566	940.271	707.174
163.906	13.520	939.287	706.177
164.921	13.447	938.858	705.481
165.935	13.736	937.351	705.512
166.950	13.523	936.779	704.115
167.964	13.580	935.986	703.697
168.979	13.639	935.221	703.314
169.994	13.633	934.426	702.626
171.008	13.705	933.132	701.897
172.023	13.765	932.933	701.940
173.037	13.791	932.109	701.367
174.052	13.627	931.556	700.196
175.067	13.596	931.236	699.761
176.081	13.520	930.524	698.845
177.096	13.576	929.871	698.530
178.110	13.593	929.495	698.257
179.125	13.658	928.264	697.542
180.140	13.665	928.260	697.506
181.154	13.732	927.687	697.297
182.169	13.859	926.885	697.166
183.183	13.978	926.384	697.228
184.198	13.924	925.922	696.590
185.213	13.893	924.843	695.588
186.227	13.892	924.558	695.307
187.242	14.040	923.585	695.134
188.256	14.054	923.078	694.750
189.271	14.062	922.154	694.024
190.286	13.872	921.222	692.468
191.300	13.721	920.785	691.448
192.315	13.664	920.690	691.080
193.329	13.649	920.197	690.585
194.344	13.716	919.154	690.023
195.359	13.912	918.826	690.529
196.373	13.944	917.897	689.903
197.388	13.985	917.368	689.614
198.402	14.093	916.769	689.553
199.417	14.082	915.997	688.862
200.432	14.076	915.502	688.407
201.446	14.137	915.534	688.619
202.461	14.120	914.822	687.952
203.475	14.198	914.196	687.745
204.490	14.165	913.047	686.684
205.504	14.058	912.641	685.878
206.519	14.087	911.724	685.245
207.534	14.115	910.892	684.673
208.548	14.092	910.995	684.597
209.563	14.030	909.901	683.460
210.577	14.105	909.068	683.080
211.592	14.232	908.480	683.100
212.607	14.353	907.363	682.697
213.621	14.346	906.793	682.179
214.636	14.318	906.180	681.541
215.650	14.324	905.548	681.029
216.665	14.404	904.779	680.719
217.680	14.413	904.450	680.448
218.694	14.403	903.567	679.684
219.709	14.475	902.725	679.283
220.723	14.501	902.214	678.944
221.738	14.441	901.686	678.242
222.753	14.346	901.045	677.315
223.767	14.456	900.394	677.210
224.782	14.406	899.889	676.569
225.796	14.625	899.069	676.779
226.811	14.630	898.720	676.478
227.826	14.544	897.952	675.493
228.840	14.538	897.185	674.833
229.855	14.470	896.016	673.616
230.869	14.580	895.503	673.616
231.884	14.484	894.925	672.736
232.899	14.422	894.511	672.115
233.913	14.426	893.838	671.567
234.928	14.480	893.026	671.114
235.942	14.470	892.541	670.647
236.957	14.491	892.519	670.659
237.972	14.453	891.517	669.694
238.986	14.647	890.631	669.747
240.001	14.536	890.116	668.854
241.015	14.497	889.557	668.220
242.030	14.583	889.173	668.215
243.045	14.769	888.183	668.157
244.059	14.598	887.832	667.151
245.074	14.569	887.146	666.460
246.088	14.591	886.751	666.190
247.103	14.684	886.248	666.124
248.117	14.719	885.588	665.712
249.132	14.785	884.673	665.225
250.147	14.914	884.017	665.185
251.161	14.813	883.436	664.290
252.176	14.894	882.950	664.187
253.190	15.051	881.839	663.914
254.205	14.911	881.422	662.990
255.220	14.894	880.930	662.492
256.234	15.018	880.346	662.484
257.249	15.013	879.569	661.823
258.263	15.023	878.786	661.213
259.278	15.137	877.930	660.961
260.293	14.964	877.622	659.988
261.307	15.142	877.278	660.372
262.322	15.132	876.584	659.752
263.336	15.151	875.410	658.886
264.351	15.192	874.744	658.488
265.366	15.217	874.138	658.071
266.380	15.247	873.794	657.871
267.395	15.301	872.897	657.348
268.409	15.091	872.573	656.225
269.424	15.203	871.496	655.797
270.439	15.205	870.998	655.372
271.453	15.180	870.261	654.659
272.468	15.124	869.780	654.021
273.482	15.273	869.078	654.017
274.497	15.280	868.363	653.448
275.512	15.281	867.606	652.827
276.526	15.107	867.808	652.241
277.541	15.268	867.494	652.575
278.555	15.438	866.396	652.353
279.570	15.381	865.695	651.546
280.585	15.398	864.907	650.961
281.599	15.318	864.313	650.145
282.614	15.410	863.727	650.004
283.628	15.386	863.303	649.533
284.643	15.499	862.264	649.129
285.657	15.389	861.908	648.383
286.672	15.358	861.580	647.958
287.687	15.396	860.853	647.499
288.701	15.433	860.104	647.022
289.716	15.447	859.606	646.643
290.730	15.571	858.781	646.445
291.745	15.400	858.583	645.578
292.760	15.635	857.506	645.616
293.774	15.566	857.095	644.981
294.789	15.548	856.203	644.188
295.803	15.620	855.336	643.752
296.818	15.494	855.117	643.050
297.833	15.581	854.102	642.560
298.847	15.626	853.519	642.236
299.862	15.659	852.754	641.731
300.876	15.724	852.462	641.701
301.891	15.720	852.029	641.303
302.906	15.739	851.173	640.676
303.920	15.740	851.163	640.614
304.935	15.866	850.252	640.352
305.949	15.964	849.519	640.117
306.964	15.818	848.959	639.082
307.979	15.783	848.679	638.683
308.993	15.815	848.397	638.536
310.008	15.891	847.443	638.048
311.022	15.859	847.099	637.612
312.037	15.926	846.327	637.227
313.052	15.763	845.854	636.200
314.066	15.865	845.171	636.016
315.081	15.746	844.791	635.223
316.095	15.857	843.978	634.975
317.110	15.957	843.096	634.632
318.125	15.789	843.101	633.946
319.139	15.808	842.511	633.519
320.154	15.929	842.074	633.590
321.168	15.948	841.430	633.121
322.183	16.031	840.762	632.871
323.197	15.879	840.249	631.862
324.212	16.026	839.607	631.871
325.227	15.950	839.350	631.338
326.241	15.950	839.176	631.153
327.256	15.991	838.036	630.391
328.270	16.028	837.239	629.873
329.285	15.964	836.878	629.308
330.300	16.106	836.203	629.275
331.314	15.874	836.007	628.206
332.329	16.008	835.585	628.333
333.343	16.018	834.998	627.873
334.358	16.131	834.432	627.813
335.373	16.089	834.478	627.637
336.387	16.222	833.999	627.714
337.402	16.130	833.845	627.202
338.416	16.087	833.205	626.504
339.431	16.139	833.015	626.500
340.446	16.240	832.575	626.488
341.460	16.187	832.047	625.839
342.475	16.327	831.563	625.936
343.489	16.281	831.003	625.289
344.504	16.353	830.575	625.178
345.519	16.328	830.208	624.756
346.533	16.301	829.749	624.256
347.548	16.359	829.171	623.977
348.562	16.375	828.592	623.549
349.577	16.508	828.069	623.589
350.592	16.455	826.932	622.483
351.606	16.189	826.973	621.477
352.621	16.353	826.264	621.495
353.635	16.358	825.513	620.892
354.650	16.470	824.720	620.652
355.665	16.480	824.413	620.402
356.679	16.505	823.445	619.710
357.694	16.503	823.028	619.337
358.708	16.561	822.286	618.936
359.723	16.486	821.708	618.170
360.738	16.457	821.229	617.651
361.752	16.512	820.631	617.347
362.767	16.545	819.859	616.830
363.781	16.703	819.354	616.972
364.796	16.632	819.241	616.575
365.810	16.718	818.668	616.401
366.825	16.750	818.367	616.237
367.840	16.635	817.838	615.365
368.854	16.629	817.371	614.938
369.869	16.689	816.990	614.813
370.883	16.683	816.559	614.413
371.898	16.705	816.003	614.022
372.913	16.836	815.555	614.104
373.927	16.817	815.363	613.838
374.942	16.833	814.604	613.268
375.956	17.111	813.898	613.689
376.971	16.973	813.735	613.011
377.986	16.855	813.368	612.255
379.000	16.922	813.056	612.206
380.015	16.917	812.368	611.619
381.029	17.087	811.864	611.797
382.044	16.877	811.386	610.628
383.059	17.045	810.688	610.653
384.073	17.065	809.879	610.060
385.088	16.971	809.586	609.446
386.102	17.064	809.141	609.393
387.117	16.975	808.519	608.552
388.132	16.897	808.173	607.956
389.146	17.052	807.655	608.069
390.161	17.025	807.021	607.443
391.175	17.072	806.200	606.939
392.190	16.944	806.199	606.425
393.205	17.084	805.237	606.147
394.219	17.045	805.158	605.894
395.234	17.021	805.050	605.676
396.248	17.054	804.555	605.366
397.263	17.077	804.065	605.027
398.278	17.013	803.615	604.407
399.292	17.220	803.097	604.699
400.307	17.099	802.733	603.941
401.321	16.954	802.303	603.051
402.336	17.079	801.732	603.011
403.350	17.180	801.385	603.054
404.365	17.272	800.866	602.939
405.380	17.272	800.564	602.656
406.394	17.290	799.944	602.199
407.409	17.274	799.606	601.837
408.423	17.337	799.305	601.780
409.438	17.415	798.638	601.501
410.453	17.300	798.336	600.812
411.467	17.465	797.833	600.963
412.482	17.503	797.455	600.761
413.496	17.477	797.192	600.418
414.511	17.495	796.625	600.002
415.526	17.575	796.560	600.180
416.540	17.479	795.777	599.201
417.555	17.486	795.474	598.942
418.569	17.559	794.959	598.759
419.584	17.605	794.359	598.414
420.599	17.532	794.294	598.058
421.613	109.688	1291.384	1466.364
422.628	94.264	1363.810	1466.462
