DTS Sentinel unit serial number:	SN413079Multiplexer serial number:	ORYXHardware model number:	OX4-SRSoftware version number:	ORYX F/W v4.00 Oryx Data Collector v3.7.2.0data status	okinstallation	princeton_trtdifferential loss correction	single-endedforward channel	channel 1reverse channel	N/Adate	2019/09/12time	18:31:34forward acquisition time	15.00reverse acquisition time	0.00gamma	496.2192k internal	0.2318k external	0.2318temperature offset calibration	1.0102default loss term (dB/km)	0.3790temperature slope calibration	1.0000multiplexer offset coefficient	1.0000multiplexer slope coefficient	1.0000fibre end	0.00T internal ref (°C)	33.25T ext. ref 1 (°C)	2.93T ext. ref 2 (°C)	27.83length (m)	temperature (°C)	Stokes	anti-Stokes-747.200	-148.358	-0.548	-0.046
-746.185	-200.000	0.010	-0.233
-745.171	-6.088	-0.397	-0.274
-744.156	127.322	-0.116	0.148
-743.142	77.721	0.104	-0.112
-742.127	-9.679	-0.690	0.465
-741.112	-49.108	0.094	0.046
-740.098	63.268	0.047	0.047
-739.083	71.920	0.449	0.473
-738.069	431.388	-0.177	0.387
-737.054	-5.158	0.391	0.272
-736.039	15.206	-0.529	-0.420
-735.025	-20.596	-0.077	-0.048
-734.010	800.000	0.215	0.791
-732.996	44.162	-0.297	0.275
-731.981	-34.947	0.441	0.243
-730.966	-200.000	-0.043	0.341
-729.952	-20.322	-0.438	-0.273
-728.937	-68.467	-0.880	-0.345
-727.923	-177.291	0.608	0.015
-726.908	-60.496	-0.339	-0.146
-725.894	-7.972	-0.597	0.407
-724.879	-200.000	-0.050	0.465
-723.864	800.000	0.136	0.542
-722.850	-200.000	-0.112	-0.664
-721.835	81.247	0.643	0.702
-720.821	8.088	-0.797	0.605
-719.806	165.301	-0.174	0.249
-718.791	-10.463	0.320	-0.214
-717.777	-63.465	0.419	-0.174
-716.762	1.798	0.180	0.131
-715.748	670.872	-0.383	1.004
-714.733	100.357	0.608	-0.713
-713.718	-37.937	-0.377	-0.203
-712.704	-149.820	1.189	0.094
-711.689	800.000	0.092	-0.378
-710.675	-8.665	0.489	0.332
-709.660	-22.115	-0.276	0.170
-708.645	97.545	-0.466	0.541
-707.631	-200.000	0.062	-0.650
-706.616	-200.000	-0.028	-0.502
-705.602	195.463	0.390	-0.599
-704.587	-111.818	0.399	-0.082
-703.572	-124.334	0.559	0.088
-702.558	-200.000	0.044	0.405
-701.543	63.924	-0.345	0.350
-700.529	87.924	0.303	0.340
-699.514	179.687	-0.504	-0.745
-698.499	-36.418	0.425	-0.231
-697.485	-200.000	-0.169	-0.774
-696.470	800.000	0.100	0.337
-695.456	-11.393	0.545	-0.363
-694.441	144.242	-0.259	-0.349
-693.426	-29.122	-0.472	-0.273
-692.412	800.000	-0.129	-0.454
-691.397	-83.434	0.174	-0.056
-690.383	-200.000	-0.076	-1.127
-689.368	224.157	-0.461	-0.752
-688.354	-111.783	-0.348	-0.071
-687.339	94.816	-0.205	0.235
-686.324	-200.000	-0.159	0.760
-685.310	-63.747	0.565	-0.234
-684.295	15.475	-0.471	0.373
-683.281	-119.992	0.513	0.089
-682.266	26.877	0.339	-0.287
-681.251	-172.711	-0.141	-0.004
-680.237	53.244	-0.342	0.331
-679.222	22.037	-0.292	-0.241
-678.208	800.000	0.165	0.544
-677.193	122.156	0.456	-0.575
-676.178	800.000	-0.255	-0.980
-675.164	800.000	0.095	-0.364
-674.149	20.690	-0.261	0.213
-673.135	446.105	0.030	-0.065
-672.120	177.765	0.125	-0.184
-671.105	367.001	-0.241	-0.491
-670.091	31.794	-0.732	-0.636
-669.076	-200.000	-0.044	0.194
-668.062	-200.000	0.221	-1.091
-667.047	545.740	0.199	-0.481
-666.032	-33.677	-0.229	-0.127
-665.018	-48.538	-0.436	0.211
-664.003	-55.110	0.184	-0.083
-662.989	-200.000	0.007	0.366
-661.974	-200.000	0.063	0.517
-660.959	-70.750	-0.603	0.229
-659.945	171.618	0.379	0.549
-658.930	213.714	-0.249	0.397
-657.916	-200.000	0.005	-0.455
-656.901	-78.659	0.462	-0.159
-655.886	301.757	0.351	-0.655
-654.872	800.000	-0.083	0.253
-653.857	-200.000	0.063	0.855
-652.843	-58.577	-0.750	0.328
-651.828	323.031	0.092	-0.177
-650.814	-120.130	-0.328	-0.057
-649.799	40.644	0.425	0.386
-648.784	17.133	0.569	0.455
-647.770	291.899	0.182	0.334
-646.755	272.357	0.108	0.191
-645.741	-89.394	-0.449	-0.133
-644.726	-100.035	0.553	-0.139
-643.711	-200.000	0.043	-0.277
-642.697	-101.610	-0.457	-0.112
-641.682	-66.434	0.407	0.163
-640.668	-200.000	0.019	-0.154
-639.653	-95.542	-0.561	-0.152
-638.638	-158.144	0.358	0.021
-637.624	280.091	0.122	0.219
-636.609	83.682	-0.510	-0.560
-635.595	-79.426	-0.303	-0.103
-634.580	-200.000	0.011	-0.187
-633.565	596.131	0.078	0.195
-632.551	564.200	-0.215	0.526
-631.536	22.819	0.099	0.081
-630.522	-160.074	0.919	-0.050
-629.507	-107.170	0.115	0.025
-628.492	-159.215	-0.235	0.013
-627.478	-140.221	0.547	0.058
-626.463	-136.343	-0.728	0.085
-625.449	246.903	0.246	0.418
-624.434	259.466	0.308	-0.535
-623.419	20.954	0.613	-0.500
-622.405	800.000	-0.181	-0.620
-621.390	-200.000	0.042	-0.594
-620.376	-69.482	-0.386	0.149
-619.361	83.783	-0.389	0.428
-618.346	800.000	0.093	0.265
-617.332	-17.300	-0.597	0.379
-616.317	-200.000	-0.030	0.440
-615.303	455.252	0.224	0.500
-614.288	-200.000	0.049	-0.503
-613.273	-154.215	0.361	-0.025
-612.259	676.939	0.270	0.706
-611.244	132.358	-0.242	-0.314
-610.230	-89.894	-0.207	-0.061
-609.215	-139.766	-1.217	0.130
-608.201	59.563	0.227	0.225
-607.186	800.000	0.064	0.210
-606.171	59.051	0.541	-0.536
-605.157	215.779	0.185	0.296
-604.142	-108.002	-0.265	-0.058
-603.128	111.034	-0.351	0.426
-602.113	37.426	-0.212	0.189
-601.098	31.723	0.231	0.200
-600.084	100.156	0.294	-0.343
-599.069	-130.498	-0.377	0.051
-598.055	-137.196	-0.584	0.067
-597.040	91.678	-0.670	0.758
-596.025	-200.000	0.127	0.895
-595.011	463.189	0.472	1.060
-593.996	-153.992	0.727	-0.050
-592.982	800.000	-0.101	0.415
-591.967	413.679	-0.031	0.065
-590.952	-151.712	1.133	-0.084
-589.938	-157.146	-0.749	0.046
-588.923	800.000	0.137	-0.492
-587.909	800.000	-0.132	0.555
-586.894	-11.601	0.513	-0.339
-585.879	-78.615	0.758	0.261
-584.865	-77.793	-0.260	-0.090
-583.850	51.557	0.192	0.184
-582.836	251.932	0.074	-0.127
-581.821	287.657	0.106	-0.193
-580.806	-200.000	0.077	-0.487
-579.792	710.062	-0.231	-0.614
-578.777	-125.662	-0.913	0.139
-577.763	631.572	0.050	0.127
-576.748	304.635	0.293	0.548
-575.733	-200.000	0.001	-0.602
-574.719	-111.819	0.240	-0.049
-573.704	72.472	-0.459	0.481
-572.690	433.231	-0.059	0.129
-571.675	-33.097	0.457	0.255
-570.661	75.697	0.532	0.565
-569.646	-20.969	-0.357	0.220
-568.631	-48.419	0.805	0.389
-567.617	743.962	0.159	-0.430
-566.602	-44.079	0.462	-0.233
-565.588	800.000	0.047	0.159
-564.573	-98.174	-0.833	-0.215
-563.558	-141.454	-0.552	0.056
-562.544	-45.219	0.152	-0.076
-561.529	261.263	-0.259	-0.451
-560.515	326.412	0.531	1.021
-559.500	-148.725	0.319	-0.026
-558.485	32.399	-0.254	0.220
-557.471	-200.000	0.046	-0.287
-556.456	-126.866	0.167	-0.025
-555.442	8.153	-0.409	0.308
-554.427	-127.316	0.598	0.088
-553.412	116.342	-0.521	0.641
-552.398	-98.119	0.759	-0.196
-551.383	385.185	-0.109	-0.225
-550.369	-93.891	-0.384	-0.106
-549.354	39.121	0.380	0.341
-548.339	33.533	-0.622	-0.543
-547.325	258.657	0.296	-0.513
-546.310	-20.421	-0.702	-0.433
-545.296	13.302	-0.844	0.657
-544.281	259.675	0.355	-0.615
-543.266	247.554	0.276	-0.468
-542.252	252.433	0.570	0.976
-541.237	63.712	-0.605	0.610
-540.223	-200.000	-0.056	-0.522
-539.208	-8.430	-0.294	-0.198
-538.193	800.000	0.141	-0.453
-537.179	-200.000	0.007	0.113
-536.164	800.000	-0.045	-0.141
-535.150	-200.000	0.033	-0.512
-534.135	-62.344	-0.499	-0.208
-533.121	800.000	-0.318	-1.073
-532.106	-200.000	-0.163	0.858
-531.091	-9.930	0.354	0.236
-530.077	-200.000	0.021	0.390
-529.062	-61.705	0.891	0.375
-528.048	551.311	-0.305	-0.735
-527.033	-24.023	0.402	0.241
-526.018	800.000	0.079	-0.253
-525.004	800.000	-0.165	-0.519
-523.989	-200.000	-0.144	-1.254
-522.975	8.230	0.369	0.278
-521.960	122.502	0.247	0.310
-520.945	-200.000	0.021	-1.414
-519.931	-200.000	0.062	-0.682
-518.916	-200.000	-0.057	0.322
-517.902	40.753	0.346	0.313
-516.887	16.234	-0.344	0.272
-515.872	-116.567	0.629	0.116
-514.858	-165.771	0.636	0.027
-513.843	-200.000	0.076	0.409
-512.829	24.964	0.081	0.067
-511.814	-56.681	0.437	-0.194
-510.799	120.055	-0.172	0.214
-509.785	800.000	-0.231	-0.738
-508.770	101.481	0.387	-0.452
-507.756	272.407	0.140	-0.247
-506.741	658.330	0.350	0.902
-505.726	-200.000	-0.054	-0.315
-504.712	7.572	-0.379	0.284
-503.697	-14.435	-0.137	0.088
-502.683	-200.000	0.208	-1.024
-501.668	-28.655	-0.106	-0.061
-500.653	-200.000	-0.278	-1.359
-499.639	-200.000	0.067	0.427
-498.624	382.115	0.313	0.646
-497.610	63.643	-0.441	-0.444
-496.595	-38.183	0.809	-0.430
-495.581	-109.201	-0.473	-0.101
-494.566	800.000	-0.061	-0.229
-493.551	-150.673	0.449	-0.034
-492.537	-146.989	-0.892	0.077
-491.522	-109.264	0.191	-0.041
-490.508	-20.053	0.540	0.334
-489.493	15.865	0.254	0.200
-488.478	800.000	-0.309	-0.857
-487.464	-200.000	-0.088	-0.418
-486.449	-67.744	0.181	-0.071
-485.435	-40.608	0.167	-0.087
-484.420	-12.301	-0.154	0.101
-483.405	-165.310	-0.127	0.006
-482.391	-200.000	-0.122	-0.737
-481.376	169.387	-0.175	0.251
-480.362	78.296	0.258	0.276
-479.347	-102.083	0.845	0.204
-478.332	-107.799	-0.701	-0.153
-477.318	13.990	0.637	-0.497
-476.303	-72.683	-0.841	-0.311
-475.289	27.028	0.440	-0.369
-474.274	-200.000	-0.015	-0.203
-473.259	145.380	-0.569	0.762
-472.245	-116.949	-0.444	-0.081
-471.230	-36.606	-0.976	0.526
-470.216	-51.211	-0.934	-0.438
-469.201	-141.256	-0.158	0.016
-468.186	2.066	-0.135	-0.098
-467.172	338.451	-0.080	-0.156
-466.157	-159.034	0.345	-0.020
-465.143	14.853	-0.438	-0.343
-464.128	532.362	-0.114	0.270
-463.113	-164.153	0.104	0.005
-462.099	-10.399	0.486	-0.323
-461.084	-82.484	0.513	-0.167
-460.070	-94.694	-0.242	0.066
-459.055	800.000	0.196	0.744
-458.040	-73.508	-0.408	-0.149
-457.026	167.072	-0.091	0.130
-456.011	-149.614	-0.832	0.066
-454.997	-53.743	0.941	0.430
-453.982	106.994	-0.381	0.453
-452.968	-106.495	-0.453	-0.101
-451.953	-27.524	0.872	0.507
-450.938	762.605	-0.090	-0.244
-449.924	-42.162	-0.488	0.250
-448.909	173.490	-0.151	0.217
-447.895	15.854	-0.129	0.102
-446.880	141.130	-0.421	-0.557
-445.865	-33.358	-1.096	-0.606
-444.851	304.907	-0.177	0.328
-443.836	43.357	0.168	0.154
-442.822	3.757	0.469	-0.342
-441.807	226.335	0.268	0.435
-440.792	-200.000	-0.023	0.166
-439.778	-121.319	0.424	0.071
-438.763	19.634	0.689	0.555
-437.749	-70.965	0.676	-0.254
-436.734	-69.167	-0.816	0.314
-435.719	-124.898	0.529	-0.082
-434.705	-24.948	-0.291	-0.173
-433.690	-200.000	0.106	-0.468
-432.676	-52.611	0.748	-0.345
-431.661	185.636	-0.355	0.527
-430.646	800.000	0.252	0.928
-429.632	-31.574	-0.748	-0.420
-428.617	109.791	0.294	-0.352
-427.603	-200.000	0.030	0.624
-426.588	347.783	-0.061	0.120
-425.573	230.727	0.256	0.419
-424.559	-91.452	-0.475	0.136
-423.544	-63.869	0.890	0.364
-422.530	445.186	0.202	-0.443
-421.515	12.519	-0.187	-0.144
-420.500	-72.432	0.474	-0.175
-419.486	51.699	-0.466	-0.443
-418.471	109.869	-0.492	0.590
-417.457	-112.522	-0.461	-0.092
-416.442	-26.274	0.171	-0.100
-415.428	-62.987	-0.276	-0.114
-414.413	-140.819	-0.841	0.087
-413.398	-102.440	0.175	0.042
-412.384	-122.001	0.504	0.083
-411.369	800.000	-0.130	0.467
-410.355	-200.000	-0.009	-0.364
-409.340	-55.009	-0.617	0.278
-408.325	-200.000	0.056	-0.253
-407.311	-91.500	-0.786	-0.224
-406.296	-139.306	1.476	0.159
-405.282	-98.387	-0.907	-0.232
-404.267	21.770	0.368	0.300
-403.252	-70.339	-0.214	-0.081
-402.238	800.000	-0.166	0.475
-401.223	-17.624	0.333	0.209
-400.209	-123.665	0.675	0.107
-399.194	245.207	-0.531	0.892
-398.179	197.708	-0.205	-0.312
-397.165	-31.583	0.274	0.154
-396.150	-73.219	-0.153	0.056
-395.136	-162.850	1.357	0.066
-394.121	-13.729	0.357	-0.231
-393.106	123.836	0.223	-0.280
-392.092	332.829	0.141	-0.272
-391.077	-18.688	0.642	0.400
-390.063	-113.904	-0.362	-0.070
-389.048	800.000	-0.141	-0.466
-388.033	-64.711	-0.583	-0.236
-387.019	-90.092	0.718	0.209
-386.004	-78.642	0.248	0.085
-384.990	11.585	-0.095	-0.072
-383.975	-44.142	0.266	-0.133
-382.960	-68.764	-0.518	0.200
-381.946	103.579	0.398	-0.466
-380.931	-159.167	0.360	0.020
-379.917	-145.364	-0.393	-0.035
-378.902	320.541	0.144	0.272
-377.888	800.000	-0.045	0.193
-376.873	67.697	0.207	-0.211
-375.858	315.003	-0.226	0.424
-374.844	-142.525	-0.481	-0.047
-373.829	-200.000	0.047	0.246
-372.815	800.000	-0.215	-0.841
-371.800	-200.000	0.022	0.620
-370.785	-1.347	-0.457	-0.322
-369.771	-110.764	0.643	0.132
-368.756	-39.073	0.416	-0.218
-367.742	130.632	0.601	0.768
-366.727	-200.000	-0.065	-0.512
-365.712	-40.232	0.118	0.061
-364.698	-51.460	0.902	-0.420
-363.683	-74.951	-0.603	-0.215
-362.669	69.115	0.211	0.216
-361.654	-152.146	-0.630	0.046
-360.639	-34.507	0.555	0.303
-359.625	-90.877	-0.574	0.165
-358.610	55.929	0.122	0.118
-357.596	-200.000	-0.001	-0.180
-356.581	-94.146	0.581	0.159
-355.566	800.000	-0.184	-0.703
-354.552	-51.969	0.299	-0.138
-353.537	-121.745	-0.497	-0.082
-352.523	-200.000	-0.195	-1.155
-351.508	63.949	-0.531	0.532
-350.493	-99.900	1.176	0.293
-349.479	800.000	-0.185	0.627
-348.464	-134.143	0.734	0.090
-347.450	-200.000	0.031	-0.557
-346.435	-96.868	-0.802	0.210
-345.420	455.440	-0.333	-0.735
-344.406	45.976	0.381	-0.351
-343.391	76.938	0.112	0.118
-342.377	214.687	-0.551	0.870
-341.362	71.163	-0.662	-0.684
-340.348	48.843	0.481	-0.450
-339.333	-22.849	0.860	-0.517
-338.318	67.664	0.417	-0.424
-337.304	542.720	-0.347	0.825
-336.289	-119.279	0.358	0.062
-335.275	475.006	-0.221	-0.497
-334.260	-200.000	-0.055	-0.257
-333.245	-200.000	-0.015	-0.299
-332.231	-152.807	0.615	-0.043
-331.216	-98.765	-0.506	0.128
-330.202	53.087	-0.255	-0.244
-329.187	-106.829	0.053	-0.012
-328.172	-90.162	-0.487	-0.141
-327.158	-200.000	-0.198	0.947
-326.143	384.160	0.379	0.776
-325.129	-63.786	-0.327	-0.133
-324.114	-163.079	-0.465	-0.022
-323.099	51.757	0.707	0.669
-322.085	-60.199	0.692	0.293
-321.070	-200.000	0.030	0.707
-320.056	-200.000	0.014	-0.080
-319.041	-165.432	1.085	0.047
-318.026	-17.510	-0.521	0.326
-317.012	-200.000	0.192	-1.027
-315.997	257.356	0.087	0.150
-314.983	-127.144	-0.835	-0.122
-313.968	-38.934	-0.796	-0.417
-312.953	-200.000	-0.008	0.520
-311.939	-153.404	-0.316	-0.022
-310.924	-54.039	1.100	0.498
-309.910	152.746	0.548	0.745
-308.895	-92.441	1.318	-0.369
-307.880	-129.651	0.527	0.072
-306.866	-200.000	-0.094	-0.638
-305.851	-200.000	0.007	-0.719
-304.837	-6.311	-0.266	0.181
-303.822	-200.000	0.232	1.119
-302.807	-65.311	-0.179	0.072
-301.793	-35.972	-0.577	0.311
-300.778	27.806	-0.317	-0.266
-299.764	-147.198	-0.128	-0.011
-298.749	-18.446	-0.396	0.246
-297.735	-200.000	0.015	0.138
-296.720	8.004	0.495	0.369
-295.705	-82.113	-0.604	0.196
-294.691	800.000	-0.154	-0.603
-293.676	-45.468	0.169	0.083
-292.662	-76.316	-0.813	0.285
-291.647	-200.000	-0.013	0.112
-290.632	44.627	0.509	-0.466
-289.618	-95.092	0.621	0.167
-288.603	-40.300	-0.452	0.234
-287.589	14.813	-0.715	-0.556
-286.574	-200.000	-0.093	0.429
-285.559	-200.000	0.144	0.667
-284.545	177.013	-0.507	0.734
-283.530	571.059	0.338	0.817
-282.516	800.000	0.157	-0.603
-281.501	-42.934	0.120	-0.061
-280.486	800.000	-0.052	-0.201
-279.472	554.484	-0.158	-0.378
-278.457	305.175	-0.376	-0.694
-277.443	-17.533	-0.388	0.242
-276.428	72.480	0.289	0.299
-275.413	171.082	-0.168	0.239
-274.399	710.930	0.306	0.805
-273.384	-200.000	0.025	0.122
-272.370	-195.961	0.939	0.007
-271.355	264.516	-0.060	0.103
-270.340	-38.030	-0.346	-0.182
-269.326	154.243	0.724	-0.986
-268.311	-36.294	0.757	0.406
-267.297	-200.000	0.086	-0.682
-266.282	59.232	-0.404	0.395
-265.267	-142.589	-0.682	0.066
-264.253	142.986	-0.099	-0.131
-263.238	16.740	0.268	-0.211
-262.224	-6.811	0.407	0.275
-261.209	-200.000	-0.003	0.099
-260.195	228.191	0.157	-0.253
-259.180	-45.591	-0.889	-0.437
-258.165	385.329	-0.153	0.313
-257.151	0.703	-0.167	-0.119
-256.136	-50.916	0.697	0.325
-255.122	-200.000	0.003	-0.264
-254.107	-200.000	0.022	0.149
-253.092	-60.600	-0.405	-0.171
-252.078	-200.000	-0.033	0.398
-251.063	-0.719	-0.469	-0.330
-250.049	-66.938	-0.431	-0.169
-249.034	664.125	0.324	-0.831
-248.019	-71.949	0.403	-0.149
-247.005	-130.795	-0.942	0.125
-245.990	27.859	0.423	0.353
-244.976	800.000	0.237	-0.650
-243.961	-53.445	-0.523	-0.238
-242.946	-200.000	-0.068	0.570
-241.932	-98.405	-0.604	-0.153
-240.917	281.341	0.330	0.586
-239.903	61.035	0.030	0.029
-238.888	-18.622	0.201	0.125
-237.873	288.887	0.186	-0.335
-236.859	-100.110	-0.278	0.069
-235.844	-200.000	-0.035	-0.296
-234.830	-200.000	0.070	-0.714
-233.815	34.524	-0.237	-0.206
-232.800	-66.029	0.731	0.289
-231.786	156.706	-0.578	-0.792
-230.771	25.332	-0.304	0.250
-229.757	800.000	-0.301	0.898
-228.742	49.854	-0.218	0.204
-227.727	-200.000	-0.054	-0.341
-226.713	-84.581	0.159	0.050
-225.698	-40.936	0.663	0.340
-224.684	800.000	0.195	-0.583
-223.669	-54.718	0.466	-0.209
-222.655	-200.000	0.155	0.686
-221.640	-151.828	0.559	0.041
-220.625	-104.537	-0.327	0.075
-219.611	-6.113	-0.456	-0.309
-218.596	196.147	0.381	0.575
-217.582	-90.433	-0.846	-0.243
-216.567	-200.000	0.150	-1.068
-215.552	8.219	-0.699	-0.521
-214.538	800.000	0.124	-0.365
-213.523	800.000	-0.036	-0.133
-212.509	-200.000	0.120	0.887
-211.494	7.999	0.391	0.291
-210.479	800.000	-0.188	-0.699
-209.465	800.000	-0.349	-0.973
-208.450	540.722	-0.294	0.693
-207.436	220.960	-0.022	-0.036
-206.421	-200.000	-0.126	0.663
-205.406	-138.309	-0.364	0.040
-204.392	-200.000	-0.608	-0.001
-203.377	-36.145	-0.564	0.302
-202.363	-130.865	0.552	-0.073
-201.348	-84.368	-0.878	-0.275
-200.333	-108.193	0.223	-0.048
-199.319	157.523	-0.933	-1.280
-198.304	117.507	-0.290	0.354
-197.290	-126.510	-0.870	-0.128
-196.275	-77.156	-0.787	-0.272
-195.260	105.970	0.494	-0.579
-194.246	-54.008	-0.221	0.100
-193.231	128.137	-0.138	0.174
-192.217	-200.000	0.021	0.246
-191.202	800.000	-0.315	-0.876
-190.187	28.431	-0.482	-0.404
-189.173	-142.641	-0.730	-0.071
-188.158	135.605	-0.567	0.730
-187.144	-132.797	0.516	-0.065
-186.129	-75.745	0.782	-0.275
-185.114	-200.000	0.043	-0.940
-184.100	-51.354	-0.786	0.364
-183.085	349.824	-0.404	0.791
-182.071	800.000	-0.230	0.725
-181.056	-22.661	-0.197	0.118
-180.042	-200.000	0.062	-0.289
-179.027	80.847	0.091	-0.097
-178.012	47.486	0.076	-0.070
-176.998	-12.405	-0.276	0.179
-175.983	113.925	0.409	-0.492
-174.969	-72.861	0.770	0.280
-173.954	138.051	-0.067	-0.087
-172.939	-125.940	0.661	-0.099
-171.925	800.000	0.058	0.217
-170.910	-116.761	-0.663	0.120
-169.896	122.346	0.429	-0.530
-168.881	272.760	-0.158	-0.275
-167.866	-84.367	0.388	-0.121
-166.852	-116.970	-0.467	0.084
-165.837	173.945	0.494	0.706
-164.823	176.563	0.416	-0.598
-163.808	-200.000	-0.062	0.438
-162.793	421.122	-0.243	0.516
-161.779	-200.000	0.034	-0.440
-160.764	800.000	-0.202	-0.582
-159.750	-200.000	0.147	0.975
-158.735	2.121	0.172	-0.123
-157.720	-200.000	0.113	0.708
-156.706	61.686	0.634	0.624
-155.691	-88.161	0.913	0.270
-154.677	-200.000	-0.006	-0.323
-153.662	272.618	0.499	-0.870
-152.647	685.733	-0.148	0.382
-151.633	-31.557	-0.269	0.149
-150.618	134.094	0.372	-0.477
-149.604	-108.750	-0.541	-0.114
-148.589	-154.986	0.337	-0.022
-147.574	292.246	-0.538	-0.968
-146.560	154.832	-0.168	-0.228
-145.545	197.561	0.350	0.528
-144.531	-200.000	0.041	-0.467
-143.516	51.762	-0.403	-0.379
-142.502	356.452	-0.609	1.198
-141.487	-200.000	-0.064	-0.331
-140.472	-200.000	0.024	-0.333
-139.458	-200.000	-0.049	0.400
-138.443	800.000	0.187	0.636
-137.429	305.008	0.409	0.751
-136.414	-165.187	1.148	0.050
-135.399	-200.000	0.099	0.558
-134.385	436.924	-0.275	0.592
-133.370	-62.913	-0.670	-0.274
-132.356	188.030	0.156	-0.230
-131.341	2.176	0.259	-0.185
-130.326	478.864	0.367	0.822
-129.312	-13.537	0.545	0.349
-128.297	-200.000	0.031	0.412
-127.283	23.772	-0.042	-0.034
-126.268	-103.118	0.341	-0.080
-125.253	21.162	0.302	0.242
-124.239	195.139	0.471	-0.707
-123.224	-200.000	-0.011	0.093
-122.210	800.000	-0.427	-1.179
-121.195	-192.989	0.691	-0.006
-120.180	269.413	-0.205	0.356
-119.166	547.024	0.208	-0.492
-118.151	109.219	0.496	0.587
-117.137	201.847	-0.276	-0.419
-116.122	-98.006	0.982	0.250
-115.107	-18.598	-0.763	-0.470
-114.093	281.442	0.249	-0.441
-113.078	153.665	0.245	0.332
-112.064	-115.974	-0.522	0.096
-111.049	-200.000	0.001	0.076
-110.034	-46.549	0.568	0.275
-109.020	419.841	0.456	-0.963
-108.005	-160.204	0.669	-0.036
-106.991	-200.000	-0.003	-0.528
-105.976	385.435	0.349	0.711
-104.962	250.454	0.254	-0.426
-103.947	125.577	0.075	0.093
-102.932	317.867	0.417	0.778
-101.918	38.334	0.776	-0.682
-100.903	-84.624	1.102	0.343
-99.889	-106.830	-0.619	-0.135
-98.874	304.547	0.082	-0.150
-97.859	4.760	0.462	-0.335
-96.845	361.492	-0.100	0.197
-95.830	300.442	-0.721	-1.311
-94.816	-16.745	0.351	-0.219
-93.801	-32.259	-0.780	0.430
-92.786	40.416	0.730	0.648
-91.772	26.403	0.481	-0.397
-90.757	91.791	0.339	0.376
-89.743	-22.860	-0.377	-0.225
-88.728	-134.987	-0.647	0.077
-87.713	89.649	0.686	-0.755
-86.699	38.119	0.319	0.280
-85.684	227.932	0.147	0.237
-84.670	-200.000	0.051	0.632
-83.655	-200.000	-0.111	0.635
-82.640	800.000	0.254	0.930
-81.626	800.000	0.088	0.330
-80.611	-70.311	-0.367	-0.137
-79.597	782.797	-0.305	-0.822
-78.582	-87.898	-0.530	-0.157
-77.567	-105.565	-0.317	0.071
-76.553	330.867	-0.293	0.557
-75.538	181.614	0.218	-0.316
-74.524	-124.778	-0.651	0.099
-73.509	322.425	-0.104	-0.195
-72.494	-148.173	-0.609	0.050
-71.480	610.289	0.227	-0.558
-70.465	-200.000	0.059	0.526
-69.451	125.483	0.459	-0.571
-68.436	-53.752	-0.555	0.250
-67.422	-200.000	0.009	0.271
-66.407	272.441	0.338	0.588
-65.392	11.892	-0.537	-0.407
-64.378	21.736	-0.196	-0.158
-63.363	-70.014	0.876	-0.329
-62.349	-118.992	-0.211	-0.037
-61.334	34.528	-1.279	-1.101
-60.319	-116.726	0.401	-0.073
-59.305	548.097	-0.346	-0.815
-58.290	356.597	0.385	0.756
-57.276	344.569	0.503	0.972
-56.261	-200.000	93.809	566.667
-55.246	649.636	1366.547	3444.965
-54.232	200.492	2535.915	3839.007
-53.217	119.113	2129.668	2594.097
-52.203	44.786	1597.796	1447.913
-51.188	36.835	1337.446	1164.375
-50.173	33.815	1295.675	1110.338
-49.159	57.115	1345.829	1292.592
-48.144	58.172	1362.006	1314.366
-47.130	36.946	1319.003	1148.795
-46.115	33.357	1302.268	1113.118
-45.100	33.458	1295.763	1108.105
-44.086	33.197	1295.956	1106.702
-43.071	33.275	1293.287	1104.836
-42.057	33.244	1290.820	1102.502
-41.042	33.164	1288.823	1100.287
-40.027	33.257	1287.249	1099.443
-39.013	32.886	1286.518	1096.616
-37.998	33.208	1283.802	1096.126
-36.984	33.086	1283.394	1095.028
-35.969	33.318	1281.351	1094.580
-34.954	33.165	1279.340	1091.939
-33.940	33.290	1277.770	1091.274
-32.925	33.200	1277.097	1090.137
-31.911	33.576	1275.468	1090.868
-30.896	33.435	1272.556	1087.525
-29.881	33.359	1272.314	1086.841
-28.867	33.290	1270.797	1085.101
-27.852	33.423	1268.857	1084.165
-26.838	33.402	1267.457	1082.808
-25.823	33.398	1266.656	1082.058
-24.809	33.565	1264.003	1080.701
-23.794	33.324	1263.537	1078.886
-22.779	33.316	1262.431	1077.850
-21.765	33.330	1261.631	1077.208
-20.750	33.369	1260.500	1076.416
-19.736	33.243	1258.288	1073.770
-18.721	33.549	1256.702	1074.108
-17.706	33.247	1255.686	1071.487
-16.692	33.099	1255.462	1070.419
-15.677	33.355	1253.673	1070.297
-14.663	33.117	1253.611	1068.855
-13.648	33.415	1252.755	1069.767
-12.633	32.904	1251.748	1065.982
-11.619	33.128	1251.612	1067.084
-10.604	33.402	1250.306	1067.473
-9.590	33.039	1248.713	1064.029
-8.575	32.954	1249.075	1063.816
-7.560	33.135	1247.306	1063.284
-6.546	33.086	1246.113	1061.954
-5.531	33.132	1244.978	1061.198
-4.517	33.167	1244.135	1060.633
-3.502	33.372	1242.950	1060.734
-2.487	33.270	1242.818	1060.006
-1.473	33.127	1238.913	1055.834
-0.458	31.666	1224.280	1035.254
0.556	28.782	1205.862	995.307
1.571	24.893	1211.215	978.429
2.586	23.855	1226.795	985.175
3.600	23.132	1216.072	972.503
4.615	17.218	1144.594	884.567
5.629	7.658	1067.917	778.594
6.644	3.197	1047.508	742.172
7.659	3.123	1043.819	739.137
8.673	2.644	1044.574	737.300
9.688	2.758	1042.630	736.413
10.702	2.963	1041.431	736.483
11.717	8.975	1049.784	771.302
12.731	19.179	1062.947	830.352
13.746	24.161	1069.098	859.176
14.761	25.209	1070.641	865.402
15.775	24.907	1069.529	862.970
16.790	24.599	1068.376	860.480
17.804	24.820	1068.096	861.244
18.819	25.046	1067.814	862.027
19.834	25.283	1067.101	862.513
20.848	25.184	1066.953	861.843
21.863	25.044	1067.272	861.351
22.877	25.035	1065.929	860.145
23.892	24.733	1065.694	858.432
24.907	25.171	1064.213	859.263
25.921	25.074	1062.628	857.441
26.936	24.865	1061.859	855.748
27.950	24.848	1060.374	854.390
28.965	24.936	1059.133	853.736
29.980	25.106	1057.667	853.290
30.994	24.986	1056.143	851.412
32.009	25.220	1055.188	851.680
33.023	25.065	1054.068	849.964
34.038	25.018	1053.447	849.165
35.053	25.002	1053.369	848.955
36.067	24.924	1052.422	847.744
37.082	25.329	1050.503	848.040
38.096	25.027	1051.310	847.187
39.111	25.129	1050.272	846.758
40.126	25.064	1049.383	845.658
41.140	24.574	1047.502	841.759
42.155	24.692	1046.167	841.166
43.169	24.693	1044.459	839.726
44.184	24.665	1044.423	839.488
45.199	24.786	1043.247	839.038
46.213	24.913	1042.675	839.097
47.228	24.980	1042.566	839.250
48.242	24.978	1041.858	838.595
49.257	24.963	1040.153	837.082
50.271	25.143	1040.203	837.889
51.286	25.305	1038.604	837.279
52.301	25.274	1038.673	837.120
53.315	25.152	1037.062	835.176
54.330	24.973	1035.072	832.670
55.344	24.837	1036.353	832.994
56.359	24.901	1035.209	832.298
57.374	24.847	1033.933	830.947
58.388	24.688	1033.807	830.034
59.403	24.689	1032.421	828.853
60.417	24.931	1031.561	829.211
61.432	24.736	1031.599	828.265
62.447	24.505	1031.458	827.005
63.461	24.932	1029.825	827.600
64.476	24.518	1029.678	825.495
65.490	24.604	1028.573	824.934
66.505	24.630	1026.769	823.532
67.520	24.638	1027.105	823.764
68.534	24.543	1025.566	822.022
69.549	24.225	1024.840	819.905
70.563	24.383	1024.465	820.258
71.578	24.400	1022.693	818.846
72.593	24.319	1022.200	818.004
73.607	24.536	1020.363	817.456
74.622	24.618	1020.668	818.003
75.636	24.382	1021.261	817.324
76.651	24.478	1019.567	816.338
77.666	24.285	1019.820	815.584
78.680	24.546	1018.271	815.466
79.695	24.457	1018.783	815.398
80.709	24.728	1017.075	815.191
81.724	24.411	1017.010	813.626
82.739	24.803	1015.362	814.019
83.753	25.081	1016.023	815.743
84.768	25.525	1014.709	816.630
85.782	25.482	1013.667	815.527
86.797	25.536	1012.574	814.817
87.812	25.321	1011.553	812.949
88.826	25.606	1010.494	813.316
89.841	25.087	1010.867	811.198
90.855	25.517	1008.835	811.434
91.870	25.734	1006.751	810.667
92.884	25.489	1006.248	809.087
93.899	25.492	1005.771	808.646
94.914	25.355	1005.134	807.446
95.928	25.625	1003.530	807.298
96.943	24.908	1004.026	804.404
97.957	25.026	1002.550	803.679
98.972	24.711	1002.235	801.943
99.987	25.164	1001.322	803.170
101.001	25.173	1000.429	802.424
102.016	25.132	999.373	801.322
103.030	25.277	998.681	801.344
104.045	24.847	997.898	798.726
105.060	25.258	996.191	799.121
106.074	25.178	996.048	798.578
107.089	24.948	995.552	797.088
108.103	25.262	994.435	797.520
109.118	24.989	992.908	795.009
110.133	25.270	991.397	794.977
111.147	24.781	991.367	792.713
112.162	24.452	989.491	789.691
113.176	24.888	989.919	791.890
114.191	24.605	990.432	790.979
115.206	24.443	988.677	788.793
116.220	24.476	987.793	788.159
117.235	24.723	986.659	788.278
118.249	24.604	986.593	787.627
119.264	24.640	984.974	786.427
120.279	24.443	983.603	784.395
121.293	24.745	983.094	785.247
122.308	24.441	982.775	783.586
123.322	24.208	981.619	781.576
124.337	24.346	981.067	781.671
125.352	24.041	979.322	778.877
126.366	24.172	978.294	778.562
127.381	24.610	978.150	780.295
128.395	24.981	977.990	781.713
129.410	25.231	976.767	781.758
130.424	25.015	976.559	780.580
131.439	25.046	975.319	779.658
132.454	24.903	974.438	778.260
133.468	24.816	973.508	777.072
134.483	25.595	972.203	779.337
135.497	25.048	971.833	776.602
136.512	25.057	970.938	775.860
137.527	25.525	969.807	776.908
138.541	25.147	969.301	774.803
139.556	25.172	968.487	774.191
140.570	25.562	967.693	775.167
141.585	25.374	967.325	773.994
142.600	25.399	966.230	773.158
143.614	25.653	966.491	774.392
144.629	25.582	964.611	772.512
145.643	25.297	963.270	770.148
146.658	25.553	962.472	770.538
147.673	25.227	961.478	768.281
148.687	25.295	960.565	767.771
149.702	25.051	959.453	765.772
150.716	25.179	958.439	765.442
151.731	25.621	957.204	766.272
152.746	25.500	957.852	766.205
153.760	25.470	956.583	764.996
154.775	25.706	955.526	765.088
155.789	25.478	955.518	764.042
156.804	25.587	953.480	762.809
157.819	25.723	953.924	763.672
158.833	25.770	952.853	762.947
159.848	25.489	951.966	760.979
160.862	25.818	950.512	761.142
161.877	25.733	949.770	760.121
162.892	25.668	948.645	758.877
163.906	25.487	947.945	757.490
164.921	25.528	947.506	757.244
165.935	25.635	945.871	756.320
166.950	25.605	945.500	755.829
167.964	25.487	945.779	755.489
168.979	25.493	943.251	753.429
169.994	25.527	942.456	752.869
171.008	25.517	942.277	752.619
172.023	25.509	941.429	751.841
173.037	25.294	941.119	750.630
174.052	25.510	939.388	750.084
175.067	25.139	938.872	748.057
176.081	25.151	939.328	748.402
177.096	25.222	938.275	747.793
178.110	25.103	937.517	746.627
179.125	25.008	935.554	744.603
180.140	25.039	935.456	744.588
181.154	25.388	935.046	745.646
182.169	25.590	935.161	746.511
183.183	25.992	934.414	747.514
184.198	25.552	933.585	744.963
185.213	25.386	933.846	744.419
186.227	25.778	932.699	745.058
187.242	25.563	932.417	743.880
188.256	25.700	931.635	743.755
189.271	25.671	931.012	743.073
190.286	25.618	930.141	742.092
191.300	24.964	928.203	737.789
192.315	24.159	926.394	732.976
193.329	24.056	926.867	732.861
194.344	24.935	927.890	737.227
195.359	25.602	927.167	739.326
196.373	25.426	926.720	738.183
197.388	25.633	926.236	738.579
198.402	25.736	924.926	737.896
199.417	25.989	923.897	738.044
200.432	25.662	923.594	736.398
201.446	25.967	922.663	736.838
202.461	25.627	922.454	735.215
203.475	25.062	920.960	731.655
204.490	24.387	919.446	727.636
205.504	24.905	919.615	729.816
206.519	25.444	919.866	732.147
207.534	25.547	919.194	731.967
208.548	25.739	918.320	731.987
209.563	25.746	917.806	731.543
210.577	25.270	918.772	730.308
211.592	26.000	916.920	731.734
212.607	26.193	916.592	732.193
213.621	25.746	915.438	729.397
214.636	25.741	914.791	728.794
215.650	25.825	914.293	728.672
216.665	25.886	913.945	728.581
217.680	25.825	913.423	727.852
218.694	25.479	912.086	725.324
219.709	25.461	910.766	724.140
220.723	25.601	910.792	724.662
221.738	25.734	910.369	724.797
222.753	25.656	909.079	723.389
223.767	25.948	908.696	724.196
224.782	25.965	909.141	724.552
225.796	26.160	907.911	724.292
226.811	25.644	906.868	721.326
227.826	24.908	905.655	717.349
228.840	25.068	905.002	717.413
229.855	25.059	904.973	717.287
230.869	25.037	904.180	716.506
231.884	25.187	904.027	716.924
232.899	25.828	903.953	719.361
233.913	25.533	902.755	717.168
234.928	25.639	902.417	717.260
235.942	25.589	901.078	715.932
236.957	25.287	901.426	714.943
237.972	25.317	899.676	713.609
238.986	25.401	899.800	713.981
240.001	25.387	898.783	713.055
241.015	25.575	898.936	713.859
242.030	25.731	897.538	713.305
243.045	25.909	897.259	713.724
244.059	25.731	897.437	713.096
245.074	25.531	896.088	711.172
246.088	25.499	895.437	710.462
247.103	25.997	895.048	712.058
248.117	26.127	895.398	712.788
249.132	26.450	895.200	713.844
250.147	26.674	894.203	713.867
251.161	26.681	893.705	713.436
252.176	26.705	894.016	713.715
253.190	26.450	893.437	712.184
254.205	26.819	891.850	712.305
255.220	26.498	892.077	711.162
256.234	26.645	891.163	710.949
257.249	26.242	891.293	709.406
258.263	26.546	889.186	708.858
259.278	26.753	888.549	709.096
260.293	26.735	888.053	708.569
261.307	26.416	888.332	707.481
262.322	26.848	886.465	707.617
263.336	25.957	885.799	703.546
264.351	25.638	883.189	700.170
265.366	25.354	883.674	699.387
266.380	26.084	883.416	701.962
267.395	26.379	883.560	703.163
268.409	26.711	881.848	703.028
269.424	26.415	883.011	702.741
270.439	26.326	881.169	700.866
271.453	26.507	881.035	701.399
272.468	26.495	881.866	701.954
273.482	26.536	881.365	701.652
274.497	26.430	879.247	699.493
275.512	26.095	878.050	697.188
276.526	26.555	879.339	699.927
277.541	26.179	878.805	697.988
278.555	26.461	877.447	697.933
279.570	26.398	876.791	697.108
280.585	26.422	876.588	696.979
281.599	26.374	875.886	696.172
282.614	25.839	874.129	692.656
283.628	25.651	873.696	691.533
284.643	26.046	873.306	692.677
285.657	25.989	872.953	692.117
286.672	25.819	871.534	690.280
287.687	25.855	871.656	690.455
288.701	26.128	871.046	690.954
289.716	26.280	869.157	689.975
290.730	25.913	869.193	688.541
291.745	25.770	869.141	687.894
292.760	26.158	867.973	688.389
293.774	26.943	868.362	691.630
294.789	26.817	868.010	690.807
295.803	26.918	866.981	690.312
296.818	26.883	866.457	689.701
297.833	26.502	865.493	687.426
298.847	26.624	864.590	687.112
299.862	26.772	865.140	688.049
300.876	26.672	865.770	688.109
301.891	26.998	864.249	688.072
302.906	26.796	863.399	686.573
303.920	26.549	862.862	685.150
304.935	26.990	862.867	686.761
305.949	27.050	862.371	686.534
306.964	26.374	861.232	683.011
307.979	26.138	860.670	681.615
308.993	26.644	860.477	683.310
310.008	26.830	859.519	683.189
311.022	26.809	858.564	682.292
312.037	26.678	858.393	681.604
313.052	26.464	857.493	680.024
314.066	25.582	856.541	675.897
315.081	25.559	855.814	675.177
316.095	26.402	856.209	678.591
317.110	26.646	855.407	678.812
318.125	25.851	854.061	674.706
319.139	25.257	853.383	671.890
320.154	25.024	852.694	670.415
321.168	25.563	853.181	672.757
322.183	26.382	853.099	675.695
323.197	26.259	852.656	674.823
324.212	26.425	851.811	674.714
325.227	26.714	851.109	675.174
326.241	26.225	850.307	672.661
327.256	26.114	850.882	672.640
328.270	25.998	850.233	671.636
329.285	26.382	847.458	670.809
330.300	25.996	847.707	669.516
331.314	26.029	848.327	670.069
332.329	26.635	847.717	671.774
333.343	26.674	847.073	671.349
334.358	26.707	846.295	670.797
335.373	26.508	847.182	670.701
336.387	26.720	845.807	670.339
337.402	27.171	845.604	671.786
338.416	27.111	845.596	671.499
339.431	27.484	844.607	672.029
340.446	27.413	845.105	672.104
341.460	26.919	844.810	669.988
342.475	26.989	844.372	669.839
343.489	26.996	844.294	669.742
344.504	27.480	843.102	670.522
345.519	26.847	843.468	668.422
346.533	27.269	842.368	669.041
347.548	27.550	841.231	669.114
348.562	27.099	841.591	667.681
349.577	26.947	840.625	666.298
350.592	26.969	839.157	665.157
351.606	26.972	838.958	664.951
352.621	26.923	838.941	664.700
353.635	27.043	837.093	663.616
354.650	26.600	836.053	661.116
355.665	26.139	835.031	658.569
356.679	26.385	834.204	658.754
357.694	26.731	834.450	660.149
358.708	26.682	834.057	659.602
359.723	26.776	833.290	659.279
360.738	26.881	833.271	659.586
361.752	26.630	833.123	658.498
362.767	26.935	832.822	659.312
363.781	27.521	832.167	660.860
364.796	27.331	831.906	659.906
365.810	27.923	830.423	660.812
366.825	27.496	830.529	659.294
367.840	27.391	830.527	658.856
368.854	27.256	829.478	657.475
369.869	26.934	828.456	655.443
370.883	27.175	828.466	656.265
371.898	27.243	828.983	656.862
372.913	27.532	827.394	656.585
373.927	27.435	826.267	655.285
374.942	27.298	827.055	655.358
375.956	27.402	826.028	654.860
376.971	27.371	825.262	654.085
377.986	27.439	825.329	654.324
379.000	27.369	824.983	653.739
380.015	27.514	824.170	653.557
381.029	27.269	823.670	652.227
382.044	27.388	823.871	652.753
383.059	27.552	823.175	652.734
384.073	27.300	822.553	651.279
385.088	27.378	821.892	650.978
386.102	27.116	820.644	648.994
387.117	26.857	819.916	647.439
388.132	26.671	818.784	645.824
389.146	26.565	817.932	644.718
390.161	27.290	817.767	647.109
391.175	27.135	818.173	646.822
392.190	27.315	816.989	646.468
393.205	26.031	815.627	640.777
394.219	25.171	814.058	636.438
395.234	24.976	814.521	636.052
396.248	26.110	814.324	639.864
397.263	26.779	814.931	642.656
398.278	27.064	813.630	642.581
399.292	26.190	814.023	639.740
400.307	26.450	813.266	640.008
401.321	26.380	813.727	640.067
402.336	27.126	813.472	642.450
403.350	27.295	812.889	642.527
404.365	27.751	811.835	643.246
405.380	27.812	811.987	643.524
406.394	27.450	812.372	642.497
407.409	28.087	810.774	643.418
408.423	27.950	810.064	642.315
409.438	27.723	809.411	640.944
410.453	27.758	809.128	640.785
411.467	27.761	808.094	639.921
412.482	27.283	808.907	638.831
413.496	28.077	807.374	640.344
414.511	27.220	808.611	638.261
415.526	27.829	807.725	639.638
416.540	27.427	806.470	637.182
417.555	27.578	806.226	637.460
418.569	27.615	805.351	636.843
419.584	27.621	805.542	636.958
420.599	27.448	805.531	636.288
421.613	159.443	1371.622	1792.746
422.628	138.550	1454.046	1792.844
