DTS Sentinel unit serial number:	SN413079Multiplexer serial number:	ORYXHardware model number:	OX4-SRSoftware version number:	ORYX F/W v4.00 Oryx Data Collector v3.7.2.0data status	okinstallation	princeton_trtdifferential loss correction	single-endedforward channel	channel 1reverse channel	N/Adate	2019/09/12time	18:45:34forward acquisition time	15.00reverse acquisition time	0.00gamma	496.2192k internal	0.2318k external	0.2318temperature offset calibration	1.0109default loss term (dB/km)	0.3790temperature slope calibration	1.0000multiplexer offset coefficient	1.0000multiplexer slope coefficient	1.0000fibre end	0.00T internal ref (°C)	33.00T ext. ref 1 (°C)	2.94T ext. ref 2 (°C)	27.48length (m)	temperature (°C)	Stokes	anti-Stokes-747.200	-132.726	-0.480	0.062
-746.185	-200.000	0.023	0.203
-745.171	-175.860	0.590	-0.016
-744.156	-134.175	-0.263	-0.033
-743.142	41.480	-0.225	-0.206
-742.127	-200.000	0.048	0.271
-741.112	-75.861	-0.299	0.107
-740.098	-48.110	-0.906	-0.443
-739.083	-200.000	0.014	0.817
-738.069	225.418	-0.328	0.537
-737.054	24.348	-0.550	0.460
-736.039	-74.495	-0.263	0.096
-735.025	-14.065	-0.387	0.253
-734.010	-11.484	-0.999	-0.665
-732.996	-6.889	0.338	-0.232
-731.981	-131.655	-0.242	0.032
-730.966	-161.001	0.195	0.010
-729.952	-121.768	-0.277	-0.046
-728.937	-128.508	0.276	0.040
-727.923	219.326	0.270	-0.436
-726.908	129.037	-0.196	-0.253
-725.894	800.000	-0.205	-0.585
-724.879	621.032	0.442	-1.124
-723.864	-200.000	-0.231	-1.500
-722.850	772.186	0.129	-0.354
-721.835	-124.640	-0.717	-0.112
-720.821	-167.615	-0.329	0.013
-719.806	-57.286	-0.477	0.212
-718.791	-113.965	1.187	0.233
-717.777	-127.534	-0.516	-0.076
-716.762	-127.513	-0.808	-0.119
-715.748	79.443	-0.273	-0.296
-714.733	800.000	0.043	0.167
-713.718	800.000	-0.220	0.709
-712.704	33.798	0.192	0.169
-711.689	148.476	-0.527	0.719
-710.675	-120.360	-0.299	-0.051
-709.660	-22.449	-0.401	0.246
-708.645	-32.668	-0.938	0.527
-707.631	-113.550	-0.932	-0.184
-706.616	-9.434	0.605	-0.408
-705.602	-7.785	-0.376	-0.257
-704.587	-86.521	0.656	0.203
-703.572	457.032	-0.250	-0.560
-702.558	291.205	0.442	0.812
-701.543	-43.687	-0.277	-0.141
-700.529	19.584	-0.843	0.685
-699.514	800.000	0.195	0.721
-698.499	168.519	0.484	-0.697
-697.485	-200.000	0.054	-0.540
-696.470	-52.444	0.776	-0.363
-695.456	-0.238	0.451	-0.324
-694.441	754.718	-0.357	0.975
-693.426	-200.000	0.001	0.600
-692.412	8.812	0.288	-0.220
-691.397	61.559	-0.092	-0.092
-690.383	127.862	0.348	-0.447
-689.368	-100.242	-0.305	0.077
-688.354	-200.000	-0.014	0.205
-687.339	26.554	-0.384	0.325
-686.324	-124.132	-0.612	-0.097
-685.310	800.000	-0.283	0.900
-684.295	-70.979	0.773	0.294
-683.281	-58.143	0.516	0.227
-682.266	606.842	0.060	0.151
-681.251	800.000	0.095	0.395
-680.237	-15.921	0.862	-0.554
-679.222	-0.968	0.531	0.379
-678.208	9.810	0.199	-0.152
-677.193	-54.430	-0.799	0.365
-676.178	13.162	-0.262	0.205
-675.164	-200.000	-0.013	-0.241
-674.149	48.887	-0.121	0.115
-673.135	37.511	-0.150	-0.134
-672.120	39.612	-0.371	-0.336
-671.105	47.517	-0.317	-0.298
-670.091	146.612	-0.479	-0.650
-669.076	15.517	-0.146	-0.116
-668.062	-145.308	0.148	-0.013
-667.047	800.000	-0.086	0.286
-666.032	165.046	-0.145	0.207
-665.018	380.389	0.140	-0.289
-664.003	-121.378	-0.570	0.096
-662.989	38.722	0.217	-0.195
-661.974	-200.000	0.008	-0.051
-660.959	-80.498	0.499	0.168
-659.945	-145.194	0.046	0.004
-658.930	145.551	0.036	-0.048
-657.916	-200.000	-0.011	-0.237
-656.901	120.833	-0.064	-0.081
-655.886	-101.298	0.615	0.152
-654.872	-128.351	0.186	-0.027
-653.857	92.316	-0.235	0.267
-652.843	11.527	-0.285	-0.220
-651.828	672.482	-0.262	0.685
-650.814	-200.000	0.030	0.569
-649.799	48.764	0.299	-0.283
-648.784	470.908	0.157	-0.356
-647.770	-114.796	0.498	-0.096
-646.755	181.691	0.368	0.546
-645.741	-4.490	0.493	0.344
-644.726	-88.328	0.262	-0.079
-643.711	238.402	0.465	0.779
-642.697	488.512	-0.045	0.104
-641.682	53.150	0.106	0.102
-640.668	-200.000	0.007	0.068
-639.653	-142.814	-0.638	-0.063
-638.638	-130.909	-0.374	0.050
-637.624	8.458	0.456	-0.346
-636.609	773.695	-0.183	-0.504
-635.595	-10.883	0.170	-0.113
-634.580	334.755	0.120	0.235
-633.565	-7.073	-0.408	-0.279
-632.551	-189.484	-0.815	0.010
-631.536	-103.819	0.133	0.031
-630.522	131.338	0.499	-0.646
-629.507	-80.526	-0.392	-0.132
-628.492	-200.000	0.058	0.469
-627.478	-200.000	-0.084	0.516
-626.463	-3.834	0.333	-0.233
-625.449	-113.842	0.808	-0.158
-624.434	-200.000	-0.007	0.536
-623.419	800.000	-0.119	0.401
-622.405	49.843	0.537	-0.510
-621.390	0.195	0.270	0.194
-620.376	-200.000	-0.074	0.685
-619.361	-42.368	0.602	0.309
-618.346	-200.000	-0.040	-0.559
-617.332	170.689	0.166	-0.240
-616.317	-56.545	-0.353	-0.158
-615.303	-78.063	0.414	0.144
-614.288	259.351	0.215	-0.374
-613.273	-200.000	0.125	-1.081
-612.259	-83.931	-0.263	-0.084
-611.244	-104.049	0.428	-0.100
-610.230	-12.374	-1.010	-0.664
-609.215	800.000	0.128	-0.521
-608.201	-200.000	-0.059	0.354
-607.186	-0.160	0.385	-0.276
-606.171	4.082	0.519	0.382
-605.157	-30.814	0.670	-0.382
-604.142	-90.294	-0.236	0.069
-603.128	-86.684	0.354	0.109
-602.113	26.288	-0.510	0.429
-601.098	-32.636	-0.527	0.295
-600.084	-84.491	0.218	0.069
-599.069	169.869	0.172	0.248
-598.055	-200.000	-0.007	-1.032
-597.040	-17.669	-0.623	-0.394
-596.025	-200.000	-0.012	-0.516
-595.011	11.020	0.559	-0.430
-593.996	-187.672	0.343	0.005
-592.982	-164.875	-0.277	-0.012
-591.967	-9.507	-0.452	0.304
-590.952	-200.000	-0.010	-0.855
-589.938	102.800	0.172	0.202
-588.923	-81.851	0.050	0.016
-587.909	267.068	-0.202	-0.355
-586.894	-34.481	0.518	0.286
-585.879	590.655	0.226	-0.560
-584.865	-55.913	-0.873	-0.392
-583.850	-63.237	-0.684	0.283
-582.836	225.227	-0.646	1.051
-581.821	-80.627	-0.769	-0.258
-580.806	-29.973	-0.608	-0.348
-579.792	-200.000	0.047	-0.382
-578.777	-32.460	0.539	-0.302
-577.763	543.252	0.348	0.835
-576.748	800.000	-0.055	-0.192
-575.733	6.841	0.168	-0.126
-574.719	64.604	0.319	-0.323
-573.704	55.349	-0.293	0.285
-572.690	60.688	-0.423	-0.421
-571.675	175.118	-0.109	0.158
-570.661	66.402	0.499	-0.510
-569.646	-3.512	-0.619	0.433
-568.631	800.000	-0.084	0.242
-567.617	191.743	0.366	-0.554
-566.602	113.311	-0.087	0.106
-565.588	-10.021	-0.489	-0.327
-564.573	234.204	0.151	0.250
-563.558	800.000	0.042	0.132
-562.544	-15.153	-0.538	-0.346
-561.529	-200.000	-0.067	-0.313
-560.515	-68.232	0.241	0.094
-559.500	35.665	0.218	0.192
-558.485	86.427	-0.538	0.596
-557.471	-51.756	-0.281	0.132
-556.456	-180.846	0.301	-0.006
-555.442	3.805	0.591	-0.433
-554.427	-45.104	0.759	-0.379
-553.412	110.132	-0.250	0.302
-552.398	800.000	-0.100	0.283
-551.383	-71.812	-1.014	0.380
-550.369	-200.000	0.002	-0.111
-549.354	96.442	-0.882	1.014
-548.339	8.416	-0.819	0.618
-547.325	-68.405	0.458	-0.179
-546.310	-200.000	0.020	-0.541
-545.296	-35.253	-0.304	0.166
-544.281	-200.000	-0.037	-0.505
-543.266	-200.000	0.036	-0.789
-542.252	-35.326	-1.163	-0.635
-541.237	39.005	0.670	-0.601
-540.223	-76.838	0.706	0.248
-539.208	-200.000	-0.173	-1.026
-538.193	380.467	-0.037	0.076
-537.179	64.915	-0.409	-0.415
-536.164	42.254	-0.685	-0.625
-535.150	-18.744	-0.277	-0.173
-534.135	-119.505	1.097	0.191
-533.121	4.239	0.640	0.470
-532.106	800.000	-0.028	-0.111
-531.091	-200.000	0.058	0.353
-530.077	-152.448	0.259	0.019
-529.062	58.209	0.204	0.200
-528.048	-200.000	-0.072	0.568
-527.033	-93.792	-0.332	-0.092
-526.018	98.666	0.234	0.271
-525.004	-200.000	0.004	-0.925
-523.989	-56.057	-0.269	0.120
-522.975	50.889	0.259	0.247
-521.960	68.510	0.160	-0.164
-520.945	-144.783	0.416	-0.038
-519.931	800.000	0.218	-0.632
-518.916	-111.875	-0.428	0.087
-517.902	-51.283	0.512	0.240
-516.887	-114.884	0.447	-0.085
-515.872	32.665	-0.494	-0.429
-514.858	-200.000	-0.033	-0.184
-513.843	-200.000	0.013	0.167
-512.829	-19.060	-0.163	-0.102
-511.814	-72.575	0.352	0.130
-510.799	-89.962	0.828	-0.242
-509.785	-200.000	-0.070	0.626
-508.770	-22.710	-0.057	0.034
-507.756	64.553	-0.429	0.433
-506.741	-200.000	0.130	-0.598
-505.726	-149.995	0.211	0.016
-504.712	675.698	0.296	0.771
-503.697	800.000	-0.104	0.374
-502.683	-21.607	0.199	0.121
-501.668	-70.613	0.557	0.211
-500.653	-200.000	-0.027	-0.482
-499.639	54.492	-0.338	0.326
-498.624	43.742	-0.238	-0.218
-497.610	-200.000	-0.079	-0.801
-496.595	105.535	0.207	-0.245
-495.581	800.000	-0.212	-0.726
-494.566	29.621	-0.254	0.217
-493.551	800.000	0.161	-0.472
-492.537	-136.540	0.590	0.069
-491.522	-73.440	-0.365	0.134
-490.508	-200.000	-0.017	0.084
-489.493	-108.833	0.816	0.175
-488.478	318.996	0.032	0.060
-487.464	-200.000	0.051	0.564
-486.449	-20.587	-0.351	0.216
-485.435	-102.437	0.443	0.106
-484.420	-200.000	-0.058	-0.334
-483.405	-200.000	-0.115	-0.800
-482.391	-200.000	-0.029	0.241
-481.376	753.575	0.095	0.256
-480.362	259.257	0.105	0.182
-479.347	283.432	-0.183	0.329
-478.332	-167.852	-0.464	-0.018
-477.318	506.471	-0.281	-0.652
-476.303	-200.000	-0.171	-1.015
-475.289	118.253	0.119	0.147
-474.274	-200.000	-0.042	0.270
-473.259	-200.000	0.010	0.151
-472.245	271.310	-0.182	-0.322
-471.230	-135.197	-0.428	0.051
-470.216	-34.620	0.325	0.178
-469.201	-163.129	-0.734	-0.035
-468.186	163.749	0.195	0.275
-467.172	-132.482	0.441	-0.057
-466.157	-111.989	0.823	0.166
-465.143	84.797	0.520	0.570
-464.128	-38.449	0.690	0.365
-463.113	-200.000	0.016	0.262
-462.099	77.865	0.302	-0.322
-461.084	104.884	-0.340	-0.402
-460.070	-1.614	-0.138	-0.097
-459.055	-76.316	-1.620	0.571
-458.040	20.529	0.908	0.735
-457.026	-123.755	0.301	-0.048
-456.011	-83.593	1.206	-0.386
-454.997	-63.790	-0.219	-0.090
-453.982	356.245	-0.615	1.226
-452.968	-200.000	0.026	0.823
-451.953	-88.356	-0.902	0.270
-450.938	-59.852	0.495	0.212
-449.924	-4.149	0.725	-0.502
-448.909	-108.585	-0.305	0.065
-447.895	284.618	-0.278	0.500
-446.880	-16.510	0.373	0.236
-445.865	-200.000	0.089	-0.395
-444.851	29.091	-0.445	0.377
-443.836	172.746	0.004	0.005
-442.822	116.487	0.192	-0.235
-441.807	308.113	-0.325	0.606
-440.792	-103.374	0.794	0.187
-439.778	-42.575	0.528	0.269
-438.763	-91.085	0.144	0.041
-437.749	-108.412	0.866	0.187
-436.734	175.226	-0.607	-0.880
-435.719	-200.000	0.153	-0.885
-434.705	-139.896	-0.829	0.088
-433.690	-200.000	0.110	-0.553
-432.676	-161.385	0.377	-0.019
-431.661	-200.000	-0.000	0.291
-430.646	264.408	0.329	0.572
-429.632	290.135	-0.224	0.407
-428.617	181.337	-0.426	0.626
-427.603	84.162	0.312	-0.340
-426.588	-200.000	0.091	-0.544
-425.573	328.191	0.033	0.063
-424.559	50.059	-0.467	-0.441
-423.544	-136.105	-0.326	-0.038
-422.530	-183.646	-0.203	-0.003
-421.515	12.130	0.879	-0.676
-420.500	-200.000	-0.000	-0.043
-419.486	1.565	0.840	0.604
-418.471	-171.122	-0.234	-0.008
-417.457	203.365	0.188	0.290
-416.442	-73.949	-0.625	-0.227
-415.428	-30.223	-0.850	0.483
-414.413	-200.000	-0.058	0.375
-413.398	-33.283	0.749	0.414
-412.384	-11.734	0.497	0.326
-411.369	95.571	-0.322	-0.366
-410.355	-200.000	-0.094	-0.548
-409.340	-34.940	-0.296	0.161
-408.325	221.809	0.143	0.230
-407.311	800.000	0.257	-0.821
-406.296	184.382	-0.205	0.303
-405.282	29.750	0.113	0.096
-404.267	-68.483	0.380	0.147
-403.252	620.560	0.137	-0.344
-402.238	167.455	-0.099	0.140
-401.223	-13.298	-0.290	0.188
-400.209	-200.000	0.003	0.285
-399.194	-153.345	-0.671	-0.047
-398.179	-200.000	0.012	-1.151
-397.165	128.269	-0.245	-0.312
-396.150	339.854	-0.488	-0.950
-395.136	63.362	0.695	-0.696
-394.121	17.627	0.236	-0.187
-393.106	41.585	0.410	-0.371
-392.092	-76.958	0.526	0.184
-391.077	-200.000	0.052	-0.275
-390.063	77.481	-0.329	0.349
-389.048	39.153	0.533	0.476
-388.033	-57.363	0.579	-0.254
-387.019	-200.000	-0.064	1.012
-386.004	-27.754	-0.044	-0.025
-384.990	-127.077	-0.676	-0.099
-383.975	-115.063	-0.383	-0.073
-382.960	-200.000	0.098	0.532
-381.946	800.000	-0.315	1.083
-380.931	442.914	-0.205	-0.449
-379.917	25.968	0.852	-0.709
-378.902	116.189	-0.903	1.104
-377.888	477.623	-0.108	0.244
-376.873	-62.849	-0.407	0.168
-375.858	-200.000	-0.036	-0.769
-374.844	-116.793	-0.292	0.053
-373.829	659.731	0.304	-0.781
-372.815	532.029	0.095	-0.223
-371.800	-135.669	-0.133	-0.016
-370.785	-77.003	-0.533	0.186
-369.771	800.000	-0.118	-0.332
-368.756	113.528	0.274	0.332
-367.742	-127.892	-0.768	-0.110
-366.727	267.326	-0.381	-0.664
-365.712	-154.572	-0.742	-0.049
-364.698	-70.541	-1.128	-0.426
-363.683	-167.877	0.298	0.012
-362.669	-200.000	0.042	-0.660
-361.654	0.577	0.532	0.380
-360.639	-42.219	0.437	-0.223
-359.625	-44.518	0.513	0.256
-358.610	800.000	-0.139	-0.546
-357.596	-148.450	-0.425	0.035
-356.581	535.958	0.179	-0.423
-355.566	212.140	0.570	-0.895
-354.552	-170.204	0.582	-0.021
-353.537	-94.020	-0.806	0.221
-352.523	800.000	0.210	0.857
-351.508	-200.000	0.041	0.781
-350.493	-1.045	-0.400	0.282
-349.479	-116.916	0.191	-0.035
-348.464	-200.000	-0.011	-0.398
-347.450	-113.415	-0.634	-0.124
-346.435	-63.329	-0.120	0.049
-345.420	40.862	-0.227	0.205
-344.406	73.214	-0.414	-0.431
-343.391	155.978	0.513	0.705
-342.377	-200.000	0.080	-0.446
-341.362	-133.469	-0.310	0.039
-340.348	-142.270	0.128	0.013
-339.333	-174.673	0.733	-0.021
-338.318	751.150	-0.190	-0.510
-337.304	44.722	0.176	-0.161
-336.289	-72.291	-0.722	0.266
-335.275	-158.684	-0.308	-0.018
-334.260	-52.221	-0.434	-0.200
-333.245	-66.067	-0.351	-0.140
-332.231	-200.000	-0.019	-0.108
-331.216	274.145	0.381	0.671
-330.202	33.454	0.440	-0.381
-329.187	800.000	0.201	-0.581
-328.172	41.512	-0.106	-0.096
-327.158	800.000	0.109	-0.471
-326.143	-44.288	-0.585	0.292
-325.129	-200.000	-0.007	-0.879
-324.114	-200.000	0.028	-0.162
-323.099	800.000	-0.030	-0.100
-322.085	64.293	0.094	0.095
-321.070	177.946	-0.066	-0.096
-320.056	-200.000	-0.014	0.175
-319.041	-4.010	0.505	-0.348
-318.026	-126.584	0.385	-0.057
-317.012	-17.626	-0.720	0.451
-315.997	108.874	0.336	0.400
-314.983	48.513	-0.736	-0.686
-313.968	-200.000	-0.000	-0.595
-312.953	800.000	-0.097	-0.288
-311.939	223.922	0.375	-0.603
-310.924	800.000	-0.070	0.274
-309.910	124.038	-0.189	0.236
-308.895	320.080	0.393	-0.742
-307.880	-51.051	0.768	0.358
-306.866	-19.377	0.845	-0.521
-305.851	276.004	0.161	-0.283
-304.837	113.307	-0.055	0.066
-303.822	7.696	0.452	-0.336
-302.807	-144.749	0.118	-0.011
-301.793	-96.215	-0.868	-0.229
-300.778	-200.000	-0.090	-0.533
-299.764	-102.164	0.682	0.163
-298.749	33.905	0.633	0.548
-297.735	800.000	0.116	-0.469
-296.720	89.981	-0.483	0.537
-295.705	-20.247	0.239	-0.147
-294.691	69.724	-0.602	0.617
-293.676	428.009	0.170	0.364
-292.662	320.263	0.380	0.717
-291.647	-200.000	0.031	-0.181
-290.632	-182.906	0.792	0.014
-289.618	345.968	0.340	0.664
-288.603	-0.937	0.253	0.178
-287.589	178.224	0.984	-1.427
-286.574	-200.000	0.042	-0.332
-285.559	800.000	-0.234	0.902
-284.545	694.088	-0.143	0.373
-283.530	-200.000	0.128	0.599
-282.516	-200.000	-0.055	0.633
-281.501	567.786	0.344	0.829
-280.486	-138.080	-0.813	0.090
-279.472	16.715	0.438	0.344
-278.457	-48.578	-0.968	-0.462
-277.443	188.015	-0.025	0.036
-276.428	-200.000	0.165	0.928
-275.413	250.787	0.349	0.589
-274.399	-84.341	-0.411	-0.129
-273.384	114.229	0.054	-0.066
-272.370	404.087	0.303	0.634
-271.355	483.776	0.134	-0.303
-270.340	198.453	0.203	-0.308
-269.326	-85.969	-0.288	-0.089
-268.311	800.000	-0.050	0.178
-267.297	49.574	-0.301	-0.282
-266.282	515.388	-0.379	0.879
-265.267	-71.932	-0.206	-0.076
-264.253	-116.838	0.586	-0.107
-263.238	-200.000	0.044	-0.679
-262.224	-155.056	0.407	0.026
-261.209	94.603	-0.407	0.459
-260.195	800.000	0.177	0.515
-259.180	168.481	-0.468	-0.662
-258.165	-130.289	-0.720	0.097
-257.151	353.258	-0.196	-0.386
-256.136	90.539	0.200	0.223
-255.122	-125.893	-0.686	0.103
-254.107	-76.843	-0.365	0.127
-253.092	-95.829	0.824	0.218
-252.078	191.667	-0.192	0.286
-251.063	-108.227	-0.386	0.083
-250.049	467.097	0.028	-0.062
-249.034	-20.834	-0.386	0.235
-248.019	-200.000	0.079	-0.789
-247.005	-37.783	0.432	-0.228
-245.990	78.137	0.223	0.236
-244.976	-200.000	0.012	0.664
-243.961	-105.507	0.236	-0.053
-242.946	800.000	0.225	-0.728
-241.932	96.343	-0.539	0.612
-240.917	513.929	0.146	0.338
-239.903	-61.743	-0.406	0.169
-238.888	-126.548	0.325	-0.048
-237.873	-162.978	0.102	-0.005
-236.859	-200.000	0.042	-0.482
-235.844	800.000	0.085	0.271
-234.830	-200.000	-0.070	-0.433
-233.815	-200.000	0.086	0.926
-232.800	-171.796	-0.391	-0.013
-231.786	-124.391	0.379	-0.059
-230.771	-200.000	0.006	0.321
-229.757	800.000	-0.123	-0.377
-228.742	-89.277	0.199	0.058
-227.727	-41.435	-0.124	0.064
-226.713	-200.000	-0.155	-0.707
-225.698	698.284	0.119	0.310
-224.684	139.239	0.177	-0.231
-223.669	800.000	-0.157	-0.597
-222.655	-70.240	-0.519	-0.195
-221.640	-19.287	0.498	0.307
-220.625	117.037	-0.544	0.663
-219.611	-27.880	0.734	0.421
-218.596	66.928	-0.441	0.445
-217.582	85.185	-0.526	-0.572
-216.567	800.000	0.031	-0.095
-215.552	378.985	-0.307	0.623
-214.538	-69.146	0.606	0.231
-213.523	34.770	0.095	0.082
-212.509	-200.000	-0.053	0.354
-211.494	620.473	0.148	-0.370
-210.479	-68.588	-0.877	0.337
-209.465	-181.250	0.120	-0.002
-208.450	570.327	-0.295	0.711
-207.436	58.046	-0.356	-0.345
-206.421	-200.000	0.012	0.199
-205.406	-114.630	0.123	0.023
-204.392	800.000	0.111	-0.440
-203.377	71.593	-0.620	-0.638
-202.363	-57.056	0.475	0.208
-201.348	-200.000	0.080	0.473
-200.333	-200.000	-0.131	-0.632
-199.319	61.059	-0.083	0.081
-198.304	-32.777	0.726	-0.400
-197.290	35.989	-0.171	-0.149
-196.275	-137.615	-1.443	-0.161
-195.260	230.286	0.164	-0.266
-194.246	800.000	0.113	0.439
-193.231	-150.165	-0.287	0.022
-192.217	426.372	-0.190	-0.406
-191.202	38.639	0.619	0.547
-190.187	-63.919	0.686	0.278
-189.173	129.555	0.108	0.136
-188.158	-79.978	0.411	0.137
-187.144	-200.000	0.048	0.537
-186.129	137.610	-0.202	0.261
-185.114	-101.492	-0.586	-0.141
-184.100	16.692	0.359	0.281
-183.085	-153.164	0.120	0.008
-182.071	145.310	-0.336	-0.445
-181.056	262.489	-0.398	0.684
-180.042	205.604	0.704	1.084
-179.027	-121.233	0.195	0.032
-178.012	477.162	0.210	-0.470
-176.998	381.165	-0.365	-0.742
-175.983	-104.486	-0.443	-0.101
-174.969	156.633	0.601	0.822
-173.954	36.689	-0.288	0.252
-172.939	-8.121	0.479	0.319
-171.925	191.367	-0.611	0.911
-170.910	-200.000	-0.006	-0.630
-169.896	-184.446	-0.579	0.009
-168.881	-200.000	0.013	-0.939
-167.866	-75.937	0.546	0.191
-166.852	-127.049	-0.837	0.122
-165.837	306.822	-0.178	-0.327
-164.823	396.711	0.072	-0.150
-163.808	-200.000	0.171	0.905
-162.793	191.509	-0.326	0.485
-161.779	-200.000	-0.062	0.982
-160.764	-200.000	-0.146	-0.747
-159.750	229.745	0.432	0.698
-158.735	-64.563	-0.512	-0.206
-157.720	800.000	0.176	0.483
-156.706	227.013	-0.195	-0.314
-155.691	181.852	-0.263	-0.383
-154.677	-64.541	-0.162	-0.065
-153.662	130.972	-0.348	0.442
-152.647	-131.703	0.995	0.129
-151.633	-59.806	-0.487	0.206
-150.618	146.771	0.219	-0.291
-149.604	-98.346	-0.831	0.211
-148.589	334.149	0.076	0.145
-147.574	276.078	0.319	-0.560
-146.560	538.192	-0.046	0.107
-145.545	49.137	0.367	0.341
-144.531	-200.000	-0.125	0.771
-143.516	683.493	0.198	-0.510
-142.502	-74.044	-0.124	0.044
-141.487	142.729	-0.558	-0.733
-140.472	-200.000	0.072	-0.446
-139.458	161.623	0.361	-0.500
-138.443	20.915	-0.604	0.484
-137.429	-67.401	1.251	-0.486
-136.414	16.094	-0.200	-0.156
-135.399	-24.703	-0.413	-0.243
-134.385	-96.038	-0.189	-0.050
-133.370	5.905	0.784	0.574
-132.356	-72.124	-0.698	0.256
-131.341	-200.000	-0.045	-0.526
-130.326	-172.755	-0.372	-0.011
-129.312	-200.000	0.019	0.241
-128.297	-98.841	-0.586	-0.147
-127.283	456.439	-0.308	0.675
-126.268	800.000	-0.159	-0.478
-125.253	258.976	0.221	0.377
-124.239	-98.787	0.395	-0.099
-123.224	-200.000	-0.691	-0.001
-122.210	144.659	0.457	0.603
-121.195	-200.000	0.115	-0.548
-120.180	-200.000	0.193	-0.941
-119.166	-50.525	0.066	-0.031
-118.151	-97.400	-0.515	0.132
-117.137	-136.663	-0.429	-0.049
-116.122	155.653	-0.316	0.430
-115.107	-125.663	-0.699	0.105
-114.093	800.000	-0.194	-0.785
-113.078	-200.000	0.008	-0.186
-112.064	-7.904	-0.498	0.332
-111.049	24.652	-0.684	0.559
-110.034	-6.774	0.382	-0.257
-109.020	59.146	0.295	0.286
-108.005	30.151	0.400	-0.337
-106.991	800.000	0.187	0.515
-105.976	-200.000	-0.003	-0.311
-104.962	-200.000	-0.161	0.784
-103.947	474.266	-0.327	-0.729
-102.932	-200.000	-0.054	0.390
-101.918	-68.410	0.482	-0.185
-100.903	-200.000	0.106	-0.589
-99.889	-110.651	0.358	-0.073
-98.874	-144.246	0.526	0.048
-97.859	325.628	-0.370	0.698
-96.845	102.081	-0.208	-0.239
-95.830	-141.935	1.073	-0.106
-94.816	-51.522	-0.168	-0.078
-93.801	-73.487	-0.164	-0.059
-92.786	209.931	-0.406	-0.629
-91.772	79.302	0.474	0.501
-90.757	-200.000	-0.065	0.431
-89.743	-200.000	0.412	0.001
-88.728	349.612	0.363	-0.707
-87.713	-200.000	-0.060	0.419
-86.699	574.183	-0.097	0.234
-85.684	-116.713	-0.303	-0.055
-84.670	-200.000	0.038	0.583
-83.655	800.000	-0.077	-0.248
-82.640	-100.131	-0.672	0.165
-81.626	-97.469	0.095	-0.024
-80.611	800.000	-0.178	-0.770
-79.597	-59.873	0.605	-0.255
-78.582	217.751	0.106	-0.167
-77.567	281.772	-0.164	-0.290
-76.553	779.463	-0.297	-0.801
-75.538	-66.846	-0.207	-0.081
-74.524	800.000	-0.157	0.550
-73.509	-41.517	0.538	-0.273
-72.494	-65.539	0.571	0.226
-71.480	121.137	-0.694	0.851
-70.465	-40.724	-0.944	-0.482
-69.451	-16.195	0.363	0.227
-68.436	-137.182	-0.452	0.051
-67.422	-135.435	0.302	0.035
-66.407	589.428	0.180	-0.438
-65.392	800.000	0.144	0.534
-64.378	-200.000	0.001	0.271
-63.363	88.118	0.143	-0.157
-62.349	175.253	0.724	-1.034
-61.334	491.745	-0.609	-1.375
-60.319	-200.000	0.017	0.653
-59.305	86.506	-0.527	-0.572
-58.290	-200.000	-0.284	1.564
-57.276	86.955	1.274	1.387
-56.261	-200.000	97.020	581.293
-55.246	652.567	1365.963	3449.680
-54.232	202.114	2527.321	3840.057
-53.217	118.300	2125.186	2582.083
-52.203	44.440	1594.614	1442.709
-51.188	36.694	1335.042	1161.543
-50.173	33.161	1294.690	1105.776
-49.159	56.696	1344.066	1288.560
-48.144	57.993	1359.289	1310.802
-47.130	36.762	1317.880	1146.832
-46.115	32.901	1302.255	1110.530
-45.100	33.021	1295.905	1105.778
-44.086	32.678	1293.687	1101.836
-43.071	32.730	1292.754	1101.299
-42.057	32.828	1289.805	1099.312
-41.042	32.838	1287.709	1097.541
-40.027	32.771	1286.180	1095.804
-39.013	32.766	1284.069	1093.937
-37.998	33.086	1281.878	1093.876
-36.984	33.112	1280.500	1092.812
-35.969	32.971	1278.908	1090.593
-34.954	32.942	1277.256	1088.972
-33.940	33.056	1275.705	1088.263
-32.925	33.089	1276.256	1088.884
-31.911	33.395	1272.229	1087.163
-30.896	33.079	1270.756	1084.046
-29.881	33.116	1269.949	1083.525
-28.867	32.916	1268.394	1081.009
-27.852	33.292	1267.471	1082.335
-26.838	33.303	1265.907	1081.019
-25.823	32.972	1264.796	1078.137
-24.809	32.876	1263.566	1076.500
-23.794	33.136	1261.333	1076.031
-22.779	33.202	1260.704	1075.829
-21.765	32.982	1260.305	1074.197
-20.750	33.192	1258.566	1073.863
-19.736	32.969	1258.140	1072.189
-18.721	32.832	1256.665	1070.115
-17.706	32.754	1255.266	1068.435
-16.692	32.961	1252.909	1067.562
-15.677	32.818	1253.347	1067.085
-14.663	32.875	1251.308	1065.625
-13.648	32.998	1250.813	1065.856
-12.633	33.136	1248.723	1064.808
-11.619	33.143	1248.478	1064.598
-10.604	32.792	1248.737	1062.799
-9.590	32.653	1248.300	1061.602
-8.575	32.776	1245.886	1060.199
-7.560	32.977	1244.941	1060.479
-6.546	32.941	1243.620	1059.111
-5.531	33.129	1243.430	1059.965
-4.517	33.095	1241.341	1057.947
-3.502	32.973	1241.717	1057.546
-2.487	32.944	1241.471	1057.131
-1.473	32.886	1237.844	1053.678
-0.458	31.427	1222.398	1032.439
0.556	28.594	1203.897	992.098
1.571	24.841	1208.934	975.741
2.586	23.638	1224.486	981.554
3.600	23.029	1213.542	969.359
4.615	17.443	1140.930	882.397
5.629	7.365	1066.090	775.383
6.644	3.417	1045.691	741.517
7.659	2.907	1043.819	737.674
8.673	2.784	1042.140	735.835
9.688	2.654	1041.166	734.457
10.702	3.269	1038.210	735.246
11.717	9.402	1046.484	770.483
12.731	18.940	1061.970	827.960
13.746	23.784	1066.818	855.039
14.761	24.380	1066.947	857.933
15.775	24.602	1067.024	858.988
16.790	24.273	1066.949	857.269
17.804	24.463	1066.262	857.553
18.819	24.348	1066.059	856.765
19.834	24.776	1064.296	857.321
20.848	24.897	1063.450	857.146
21.863	24.807	1062.646	855.988
22.877	24.314	1064.061	854.691
23.892	24.507	1061.391	853.392
24.907	24.377	1061.453	852.748
25.921	24.385	1060.267	851.756
26.936	24.427	1058.468	850.435
27.950	24.426	1057.874	849.876
28.965	24.175	1056.519	847.522
29.980	24.152	1055.292	846.352
30.994	24.366	1054.005	846.261
32.009	24.677	1052.776	846.672
33.023	24.607	1051.614	845.331
34.038	24.492	1050.179	843.562
35.053	24.565	1049.603	843.369
36.067	24.124	1051.214	842.503
37.082	24.254	1048.115	840.557
38.096	24.695	1047.379	841.970
39.111	24.506	1047.369	840.997
40.126	24.558	1045.758	839.873
41.140	24.165	1044.319	836.800
42.155	24.145	1043.799	836.211
43.169	24.315	1042.343	835.769
44.184	24.190	1041.778	834.656
45.199	24.010	1040.997	833.117
46.213	24.180	1039.807	832.885
47.228	24.541	1038.925	833.791
48.242	24.611	1038.530	833.726
49.257	24.916	1036.522	833.459
50.271	24.462	1038.043	832.491
51.286	25.076	1035.258	833.039
52.301	24.560	1035.820	831.016
53.315	24.721	1034.557	830.677
54.330	24.530	1033.608	828.957
55.344	24.509	1032.463	827.868
56.359	24.529	1031.834	827.383
57.374	24.551	1031.003	826.744
58.388	24.611	1029.768	825.960
59.403	24.393	1030.183	825.209
60.417	24.440	1028.030	823.631
61.432	24.202	1028.141	822.547
62.447	24.324	1027.214	822.294
63.461	24.518	1026.322	822.403
64.476	23.987	1025.777	819.448
65.490	24.024	1025.287	819.157
66.505	24.430	1024.665	820.451
67.520	24.124	1024.250	818.639
68.534	23.953	1023.355	817.068
69.549	24.030	1021.194	815.625
70.563	24.013	1021.245	815.511
71.578	23.882	1019.543	813.482
72.593	23.464	1019.628	811.565
73.607	23.852	1018.033	811.997
74.622	23.759	1019.465	812.644
75.636	23.878	1017.421	811.484
76.651	24.061	1017.170	812.048
77.666	23.793	1016.475	810.197
78.680	23.774	1015.330	809.127
79.695	23.631	1015.700	808.701
80.709	24.227	1014.459	810.353
81.724	24.171	1013.267	809.071
82.739	24.285	1011.449	808.066
83.753	25.029	1011.416	811.337
84.768	24.736	1012.093	810.483
85.782	25.299	1009.391	810.790
86.797	25.189	1008.851	809.789
87.812	24.737	1008.931	807.742
88.826	24.751	1009.288	808.018
89.841	24.798	1006.995	806.321
90.855	24.882	1006.297	806.069
91.870	24.888	1005.218	805.163
92.884	24.701	1004.097	803.352
93.899	24.485	1004.318	802.489
94.914	24.838	1002.429	802.490
95.928	24.686	1002.112	801.485
96.943	24.560	1000.961	799.928
97.957	24.267	999.973	797.757
98.972	24.466	999.464	798.169
99.987	24.453	999.072	797.729
101.001	24.907	996.888	797.940
102.016	24.724	996.065	796.393
103.030	24.954	995.729	797.078
104.045	24.512	995.376	794.757
105.060	24.725	994.243	794.732
106.074	24.599	993.960	793.873
107.089	24.714	992.464	793.120
108.103	24.338	991.737	790.800
109.118	24.514	990.319	790.380
110.133	24.315	989.100	788.458
111.147	24.150	987.825	786.641
112.162	24.136	986.611	785.545
113.176	24.409	986.873	786.890
114.191	24.610	986.054	787.052
115.206	24.069	985.385	784.063
116.220	23.994	985.087	783.428
117.235	24.433	983.015	783.641
118.249	23.966	982.865	781.398
119.264	23.944	981.660	780.275
120.279	23.985	981.284	780.089
121.293	23.822	981.471	779.455
122.308	24.043	979.958	779.150
123.322	24.159	978.365	778.320
124.337	24.101	977.454	777.273
125.352	23.676	976.391	774.506
126.366	23.693	975.660	773.933
127.381	24.141	975.268	775.506
128.395	24.383	974.541	775.910
129.410	24.288	973.951	774.958
130.424	24.486	972.894	774.911
131.439	24.329	972.626	773.944
132.454	24.611	970.891	773.718
133.468	24.468	970.631	772.822
134.483	24.708	969.644	773.008
135.497	24.632	969.542	772.528
136.512	24.500	968.413	770.989
137.527	24.833	966.906	771.160
138.541	24.933	966.838	771.465
139.556	24.868	966.104	770.534
140.570	24.953	964.845	769.826
141.585	24.758	964.884	768.949
142.600	24.788	964.159	768.432
143.614	24.821	963.302	767.824
144.629	24.973	962.313	767.621
145.643	25.120	960.388	766.643
146.658	24.781	958.947	763.978
147.673	24.623	958.240	762.675
148.687	24.888	957.056	762.793
149.702	24.313	956.815	760.083
150.716	24.621	955.419	760.216
151.731	24.720	955.745	760.832
152.746	25.006	953.303	760.034
153.760	24.750	953.777	759.257
154.775	24.854	953.378	759.315
155.789	24.930	952.589	758.943
156.804	25.069	951.639	758.707
157.819	24.947	951.264	757.825
158.833	24.864	951.311	757.441
159.848	25.148	948.801	756.573
160.862	25.222	948.011	756.190
161.877	25.115	946.511	754.475
162.892	25.273	945.225	754.047
163.906	25.001	945.398	752.976
164.921	24.951	944.533	752.012
165.935	24.887	943.311	750.703
166.950	24.875	943.797	750.972
167.964	24.768	941.720	748.807
168.979	24.545	941.645	747.745
169.994	24.752	941.316	748.285
171.008	25.006	940.175	748.376
172.023	24.783	939.771	747.055
173.037	25.041	938.361	746.944
174.052	25.140	937.853	746.883
175.067	24.566	937.091	743.822
176.081	24.381	936.790	742.746
177.096	24.493	935.632	742.230
178.110	24.916	933.325	742.088
179.125	24.419	933.275	739.921
180.140	24.477	933.215	740.050
181.154	24.707	933.738	741.354
182.169	24.770	933.499	741.358
183.183	24.850	933.220	741.400
184.198	24.840	932.059	740.374
185.213	24.997	929.619	739.016
186.227	24.877	930.519	739.170
187.242	24.776	931.020	739.085
188.256	24.825	929.384	737.925
189.271	24.648	929.333	737.089
190.286	24.896	927.993	736.983
191.300	24.380	925.297	732.658
192.315	23.770	925.405	730.170
193.329	23.713	925.033	729.578
194.344	24.327	924.826	731.874
195.359	24.736	925.170	733.757
196.373	24.938	925.136	734.494
197.388	24.944	924.191	733.704
198.402	25.258	923.768	734.592
199.417	25.294	922.118	733.361
200.432	25.366	921.233	732.884
201.446	25.233	921.137	732.202
202.461	25.135	920.915	731.559
203.475	24.818	919.567	729.131
204.490	23.942	918.782	724.878
205.504	24.606	918.699	727.452
206.519	24.865	918.539	728.314
207.534	24.804	917.775	727.397
208.548	25.201	916.878	728.233
209.563	24.979	915.870	726.468
210.577	24.914	914.861	725.340
211.592	25.123	916.114	727.118
212.607	25.074	913.815	725.032
213.621	25.066	913.854	724.964
214.636	25.089	913.327	724.575
215.650	25.185	912.279	724.066
216.665	25.311	911.404	723.819
217.680	24.940	911.624	722.430
218.694	24.712	911.341	721.224
219.709	24.409	910.286	719.106
220.723	24.941	909.263	720.373
221.738	25.312	907.483	720.389
222.753	24.777	908.173	718.724
223.767	25.112	907.750	719.669
224.782	25.423	906.808	720.105
225.796	25.574	905.973	719.984
226.811	24.920	905.320	716.782
227.826	24.459	904.415	714.161
228.840	24.433	903.374	713.170
229.855	24.517	903.367	713.437
230.869	24.696	901.461	712.584
231.884	24.670	902.027	712.864
232.899	24.911	901.799	713.582
233.913	24.888	900.637	712.508
234.928	24.927	900.070	712.152
235.942	24.727	899.548	710.881
236.957	24.593	898.585	709.523
237.972	24.598	898.273	709.235
238.986	24.979	897.689	710.220
240.001	24.750	897.423	709.039
241.015	24.723	897.175	708.675
242.030	24.841	895.718	707.930
243.045	25.086	896.049	709.095
244.059	24.662	896.188	707.465
245.074	25.020	894.863	707.770
246.088	25.353	894.021	708.357
247.103	25.053	894.137	707.204
248.117	25.183	893.978	707.527
249.132	25.783	893.160	709.179
250.147	25.821	893.036	709.171
251.161	26.001	892.660	709.516
252.176	26.150	890.780	708.542
253.190	25.838	891.534	707.854
254.205	25.967	890.836	707.745
255.220	25.878	888.913	705.807
256.234	25.572	889.220	704.789
257.249	25.601	888.353	704.153
258.263	25.528	887.565	703.181
259.278	25.520	886.989	702.629
260.293	25.636	886.714	702.803
261.307	25.916	886.236	703.452
262.322	25.720	885.491	702.036
263.336	25.453	883.487	699.346
264.351	25.222	882.264	697.418
265.366	24.864	882.419	696.089
266.380	25.703	882.924	699.688
267.395	25.510	881.776	697.967
268.409	25.578	881.433	697.898
269.424	25.606	880.426	697.147
270.439	25.510	879.945	696.334
271.453	25.199	880.304	695.351
272.468	25.713	880.134	697.146
273.482	25.721	879.123	696.313
274.497	25.373	878.927	694.751
275.512	25.591	877.116	694.100
276.526	25.323	877.470	693.284
277.541	25.596	876.852	693.786
278.555	26.002	875.824	694.477
279.570	25.557	874.766	691.865
280.585	25.865	874.631	692.880
281.599	25.385	874.358	690.756
282.614	25.306	872.475	688.904
283.628	25.246	872.043	688.273
284.643	25.410	871.555	688.456
285.657	25.240	871.498	687.696
286.672	25.307	870.556	687.152
287.687	25.354	869.857	686.716
288.701	25.852	869.312	688.131
289.716	25.419	869.002	686.171
290.730	25.189	868.504	684.836
291.745	25.349	866.715	683.976
292.760	25.589	866.692	684.810
293.774	25.871	867.265	686.278
294.789	26.012	867.197	686.700
295.803	25.561	866.353	684.255
296.818	25.732	865.450	684.132
297.833	25.607	863.653	682.174
298.847	25.782	863.599	682.737
299.862	25.950	863.204	683.002
300.876	25.960	862.991	682.809
301.891	25.486	863.037	680.990
302.906	25.789	862.412	681.583
303.920	26.101	861.597	682.059
304.935	26.503	860.430	682.592
305.949	26.088	859.510	680.236
306.964	26.016	858.684	679.251
307.979	25.426	858.879	677.124
308.993	25.836	858.729	678.489
310.008	26.082	857.168	678.122
311.022	25.961	856.983	677.459
312.037	25.732	856.778	676.378
313.052	25.642	855.424	674.910
314.066	25.225	854.565	672.609
315.081	25.133	854.145	671.874
316.095	25.495	855.059	673.892
317.110	25.410	854.183	672.824
318.125	24.963	853.724	670.730
319.139	24.683	852.173	668.407
320.154	24.853	850.509	667.673
321.168	25.182	851.041	669.260
322.183	25.889	850.318	671.267
323.197	25.356	850.834	669.629
324.212	25.409	850.464	669.477
325.227	25.302	849.569	668.315
326.241	25.661	848.339	668.621
327.256	25.512	848.212	667.908
328.270	25.504	847.176	667.005
329.285	25.225	846.561	665.425
330.300	25.370	845.996	665.461
331.314	25.145	846.286	664.794
332.329	25.667	845.713	666.220
333.343	25.621	845.730	666.003
334.358	25.710	844.991	665.693
335.373	25.963	843.493	665.386
336.387	25.700	844.449	665.111
337.402	25.976	843.901	665.639
338.416	26.409	843.264	666.673
339.431	26.370	843.546	666.694
340.446	26.739	841.987	666.763
341.460	26.295	842.902	665.790
342.475	26.182	842.674	665.137
343.489	26.376	842.447	665.612
344.504	26.470	841.755	665.352
345.519	26.197	841.095	663.769
346.533	26.047	841.435	663.427
347.548	26.302	840.160	663.297
348.562	26.408	838.860	662.601
349.577	26.026	838.744	661.052
350.592	26.032	838.350	660.705
351.606	25.881	837.945	659.774
352.621	26.189	835.752	659.114
353.635	26.046	835.590	658.406
354.650	25.861	835.194	657.360
355.665	25.616	833.593	655.149
356.679	25.771	833.463	655.556
357.694	26.214	833.307	656.985
358.708	26.134	832.177	655.747
359.723	25.670	832.816	654.506
360.738	25.500	831.944	653.142
361.752	25.730	831.809	653.814
362.767	26.482	830.099	655.136
363.781	26.726	830.113	655.973
364.796	26.666	829.145	654.932
365.810	26.168	830.232	653.932
366.825	26.476	828.976	653.999
367.840	26.553	828.268	653.659
368.854	26.417	826.936	652.061
369.869	26.034	826.795	650.510
370.883	26.239	826.327	650.824
371.898	26.364	826.667	651.486
372.913	26.524	825.714	651.251
373.927	26.233	825.861	650.262
374.942	26.064	824.918	648.855
375.956	26.406	823.680	649.051
376.971	26.448	824.021	649.414
377.986	26.476	823.400	648.966
379.000	26.477	823.853	649.269
380.015	26.313	822.396	647.474
381.029	26.454	821.698	647.374
382.044	26.734	821.267	647.978
383.059	26.272	820.910	645.988
384.073	26.581	819.801	646.160
385.088	26.376	819.028	644.765
386.102	26.280	818.355	643.835
387.117	26.177	817.738	642.927
388.132	26.049	817.461	642.196
389.146	26.473	816.005	642.502
390.161	26.284	816.756	642.364
391.175	26.709	816.190	643.373
392.190	26.686	815.510	642.697
393.205	25.769	814.129	638.302
394.219	24.867	813.444	634.514
395.234	24.894	813.407	634.525
396.248	25.724	812.561	636.747
397.263	26.123	813.358	638.724
398.278	26.031	812.302	637.514
399.292	25.627	811.870	635.692
400.307	25.427	811.481	634.626
401.321	25.699	811.181	635.295
402.336	26.058	811.022	636.379
403.350	26.076	811.640	636.872
404.365	26.536	811.088	638.006
405.380	26.898	810.754	638.959
406.394	26.734	809.570	637.395
407.409	26.897	809.064	637.513
408.423	26.574	808.820	636.129
409.438	26.741	808.700	636.563
410.453	26.740	807.359	635.450
411.467	26.771	807.023	635.237
412.482	26.431	807.185	634.117
413.496	26.728	806.443	634.517
414.511	26.811	805.134	633.721
415.526	26.830	805.320	633.880
416.540	26.590	805.497	633.122
417.555	26.589	805.197	632.828
418.569	26.733	804.175	632.470
419.584	26.588	803.737	631.563
420.599	26.833	803.285	632.006
421.613	160.105	1371.095	1794.169
422.628	139.079	1453.796	1794.281
