DTS Sentinel unit serial number:	SN413079Multiplexer serial number:	ORYXHardware model number:	OX4-SRSoftware version number:	ORYX F/W v4.00 Oryx Data Collector v3.7.2.0data status	okinstallation	princeton_trtdifferential loss correction	single-endedforward channel	channel 1reverse channel	N/Adate	2019/09/16time	08:58:35forward acquisition time	60.00reverse acquisition time	0.00gamma	496.2192k internal	0.2325k external	0.2325temperature offset calibration	0.9973default loss term (dB/km)	0.3790temperature slope calibration	1.0000multiplexer offset coefficient	1.0000multiplexer slope coefficient	1.0000fibre end	0.00T internal ref (°C)	30.39T ext. ref 1 (°C)	12.04T ext. ref 2 (°C)	28.10length (m)	temperature (°C)	Stokes	anti-Stokes-747.200	-17.331	-0.177	0.112
-746.185	22.037	0.112	0.092
-745.171	435.427	-0.018	-0.040
-744.156	-126.055	0.229	-0.035
-743.142	209.510	0.149	-0.235
-742.127	-116.948	-0.225	-0.042
-741.112	-200.000	-0.002	-0.183
-740.098	-111.113	-0.157	-0.032
-739.083	123.815	-0.146	0.184
-738.069	800.000	0.065	0.230
-737.054	226.685	0.252	0.413
-736.039	800.000	-0.086	-0.297
-735.025	800.000	0.063	0.242
-734.010	4.194	-0.347	0.256
-732.996	421.913	-0.104	-0.225
-731.981	-90.174	-0.098	-0.029
-730.966	167.936	-0.193	0.278
-729.952	68.310	0.144	0.148
-728.937	-10.474	0.120	-0.080
-727.923	-40.842	0.026	-0.014
-726.908	-64.072	0.255	0.105
-725.894	-200.000	-0.021	-0.200
-724.879	-65.613	0.120	-0.048
-723.864	800.000	0.062	-0.218
-722.850	19.925	0.159	-0.129
-721.835	-200.000	-0.012	-0.396
-720.821	-200.000	-0.010	-0.188
-719.806	390.084	0.103	-0.216
-718.791	51.840	-0.067	-0.064
-717.777	249.470	-0.153	-0.261
-716.762	471.230	0.120	-0.272
-715.748	249.389	-0.071	0.121
-714.733	-200.000	0.045	-0.285
-713.718	800.000	0.060	-0.239
-712.704	-7.981	-0.380	-0.258
-711.689	-92.503	0.415	-0.118
-710.675	-15.023	0.230	0.148
-709.660	512.282	-0.017	0.040
-708.645	46.649	-0.093	0.087
-707.631	118.444	-0.120	-0.149
-706.616	-55.785	-0.157	-0.071
-705.602	-200.000	-0.032	0.243
-704.587	247.085	0.060	-0.102
-703.572	-144.026	-0.056	-0.005
-702.558	118.687	-0.037	0.046
-701.543	229.478	0.182	-0.299
-700.529	-70.180	0.191	-0.073
-699.514	-47.820	0.296	-0.144
-698.499	800.000	0.055	0.240
-697.485	-109.064	-0.084	-0.018
-696.470	-200.000	0.013	-0.231
-695.456	800.000	-0.058	-0.179
-694.441	-7.657	0.268	0.182
-693.426	161.470	-0.124	0.175
-692.412	102.342	0.108	0.127
-691.397	-23.265	0.299	-0.181
-690.383	-200.000	-0.041	0.195
-689.368	-52.518	0.227	0.106
-688.354	504.105	-0.072	-0.167
-687.339	28.956	-0.092	-0.079
-686.324	800.000	0.088	-0.363
-685.310	-131.273	-0.171	-0.023
-684.295	798.715	-0.097	0.268
-683.281	-109.586	-0.310	0.066
-682.266	-200.000	-0.007	0.235
-681.251	34.398	0.118	0.104
-680.237	231.375	-0.074	-0.123
-679.222	10.570	0.129	-0.099
-678.208	-191.196	0.418	-0.004
-677.193	800.000	0.034	-0.124
-676.178	800.000	0.062	-0.242
-675.164	-112.322	0.186	-0.037
-674.149	504.906	0.009	0.021
-673.135	-38.115	0.215	0.115
-672.120	-144.281	0.079	-0.007
-671.105	-68.810	-0.158	-0.061
-670.091	-200.000	0.042	-0.396
-669.076	-119.370	-0.134	-0.023
-668.062	183.847	-0.061	0.091
-667.047	534.136	-0.052	0.124
-666.032	-108.242	0.262	0.057
-665.018	-200.000	0.002	0.189
-664.003	-67.080	-0.179	-0.071
-662.989	158.112	0.075	-0.104
-661.974	753.891	-0.026	-0.071
-660.959	800.000	-0.027	-0.085
-659.945	638.571	0.029	-0.073
-658.930	-24.842	0.086	0.051
-657.916	-200.000	-0.037	-0.196
-656.901	-27.602	-0.242	-0.141
-655.886	260.929	-0.156	0.272
-654.872	-200.000	0.064	0.323
-653.857	768.704	-0.078	-0.213
-652.843	-200.000	0.037	-0.237
-651.828	331.476	-0.095	0.184
-650.814	158.071	-0.195	-0.272
-649.799	164.889	-0.083	-0.118
-648.784	-200.000	-0.008	0.047
-647.770	-193.167	-0.402	-0.004
-646.755	110.713	-0.208	-0.252
-645.741	-9.103	-0.438	-0.295
-644.726	-156.892	-0.404	0.025
-643.711	78.643	-0.238	0.256
-642.697	-67.912	-0.112	0.044
-641.682	800.000	-0.136	0.379
-640.668	-200.000	-0.011	-0.261
-639.653	246.350	0.114	-0.194
-638.638	-27.868	0.197	-0.114
-637.624	-123.459	-0.059	-0.009
-636.609	-86.388	0.154	-0.048
-635.595	318.991	0.156	-0.297
-634.580	326.660	0.270	0.520
-633.565	-85.640	-0.313	-0.098
-632.551	-200.000	-0.020	0.115
-631.536	338.925	0.044	-0.086
-630.522	-70.866	0.283	0.107
-629.507	69.639	-0.074	0.077
-628.492	298.731	-0.112	0.207
-627.478	21.914	0.288	-0.236
-626.463	-66.647	-0.068	0.027
-625.449	50.759	-0.119	-0.113
-624.434	82.116	-0.265	-0.288
-623.419	-200.000	0.087	0.422
-622.405	-32.112	0.233	-0.131
-621.390	303.485	0.039	-0.073
-620.376	-34.095	-0.294	-0.162
-619.361	-24.593	-0.121	0.072
-618.346	-128.972	-0.253	-0.036
-617.332	-200.000	0.005	-0.132
-616.317	-80.026	0.100	0.034
-615.303	-160.840	0.252	-0.013
-614.288	293.300	-0.124	-0.228
-613.273	-103.445	0.291	0.069
-612.259	226.633	0.125	-0.203
-611.244	359.881	-0.037	-0.075
-610.230	-200.000	-0.030	0.253
-609.215	-200.000	-0.007	0.306
-608.201	-37.671	0.225	0.121
-607.186	154.738	-0.207	-0.285
-606.171	114.518	-0.145	0.177
-605.157	136.944	-0.210	0.275
-604.142	192.099	-0.125	0.190
-603.128	-53.693	-0.113	0.052
-602.113	639.422	-0.206	-0.526
-601.098	114.165	-0.344	-0.420
-600.084	173.021	0.165	-0.239
-599.069	-200.000	-0.033	-0.237
-598.055	47.192	0.166	-0.155
-597.040	259.135	0.211	0.365
-596.025	800.000	0.031	-0.094
-595.011	58.530	0.130	0.128
-593.996	-200.000	-0.057	0.300
-592.982	-77.531	-0.151	0.053
-591.967	244.177	0.101	-0.170
-590.952	-200.000	-0.023	-0.183
-589.938	217.148	-0.182	-0.291
-588.923	-196.495	0.676	0.005
-587.909	-200.000	-0.053	0.359
-586.894	-41.279	-0.497	0.257
-585.879	78.379	0.109	-0.116
-584.865	-171.326	-0.199	-0.007
-583.850	666.794	0.113	-0.292
-582.836	66.419	0.082	0.084
-581.821	183.272	0.056	-0.084
-580.806	36.144	-0.098	0.087
-579.792	-89.008	-0.207	-0.061
-578.777	68.849	-0.063	0.064
-577.763	11.513	-0.166	0.128
-576.748	-97.669	-0.422	-0.110
-575.733	95.047	0.114	0.130
-574.719	-74.460	0.212	0.077
-573.704	-92.573	-0.488	0.137
-572.690	88.900	-0.064	0.071
-571.675	-200.000	0.005	-0.160
-570.661	23.501	-0.143	0.118
-569.646	72.344	0.171	-0.178
-568.631	140.970	0.164	-0.217
-567.617	-54.989	-0.137	0.062
-566.602	-50.874	0.170	0.080
-565.588	-28.904	-0.424	0.244
-564.573	-65.263	0.313	0.126
-563.558	776.501	0.091	-0.248
-562.544	-61.672	-0.167	-0.070
-561.529	227.083	-0.180	-0.293
-560.515	-93.050	0.189	0.053
-559.500	-83.043	-0.207	0.067
-558.485	-138.635	0.170	0.019
-557.471	90.956	0.278	0.313
-556.456	-84.966	-0.176	-0.055
-555.442	51.435	-0.305	-0.290
-554.427	-114.350	-0.125	0.024
-553.412	-128.620	0.218	-0.031
-552.398	17.403	-0.225	0.179
-551.383	-92.774	0.172	-0.048
-550.369	395.190	0.204	0.425
-549.354	83.085	-0.226	0.246
-548.339	-68.713	-0.261	0.101
-547.325	-152.096	-0.422	-0.031
-546.310	40.835	-0.182	0.164
-545.296	265.650	-0.084	0.147
-544.281	37.558	0.327	-0.290
-543.266	-134.672	-0.262	0.032
-542.252	-68.526	0.160	0.062
-541.237	-79.258	0.474	0.161
-540.223	-120.269	0.228	0.039
-539.208	800.000	0.027	-0.087
-538.193	416.512	-0.117	-0.250
-537.179	29.564	-0.141	-0.120
-536.164	182.945	0.089	-0.131
-535.150	-200.000	0.065	-0.312
-534.135	78.459	0.180	-0.192
-533.121	-79.637	-0.225	-0.076
-532.106	12.491	-0.080	-0.062
-531.091	5.444	-0.195	0.144
-530.077	-19.242	-0.082	0.051
-529.062	-48.043	-0.218	-0.105
-528.048	20.912	0.211	-0.171
-527.033	99.849	0.038	-0.044
-526.018	800.000	0.014	0.055
-525.004	-111.139	-0.216	-0.044
-523.989	800.000	0.091	-0.271
-522.975	58.723	0.027	-0.026
-521.960	150.797	-0.246	-0.334
-520.945	261.958	0.104	-0.181
-519.931	-119.926	-0.205	-0.035
-518.916	138.934	0.244	-0.320
-517.902	-74.859	-0.346	0.124
-516.887	-113.575	-0.193	-0.038
-515.872	332.621	0.253	0.489
-514.858	227.443	0.108	-0.175
-513.843	-200.000	-0.023	-0.296
-512.829	-200.000	-0.016	-0.363
-511.814	-17.671	-0.142	0.089
-510.799	228.390	-0.063	0.103
-509.785	18.204	0.251	-0.200
-508.770	-11.233	-0.237	-0.156
-507.756	-67.222	0.373	-0.147
-506.741	3.202	-0.150	-0.109
-505.726	-57.773	0.184	-0.080
-504.712	-14.812	0.039	0.025
-503.697	800.000	-0.044	0.141
-502.683	48.727	0.092	0.087
-501.668	-53.600	0.280	0.128
-500.653	283.782	0.134	-0.240
-499.639	800.000	-0.037	0.103
-498.624	19.123	0.024	-0.019
-497.610	121.159	0.107	0.134
-496.595	229.433	0.137	0.223
-495.581	148.032	0.153	-0.206
-494.566	147.330	-0.060	-0.080
-493.551	108.939	-0.037	0.044
-492.537	284.698	-0.076	0.137
-491.522	8.059	-0.105	0.078
-490.508	105.217	-0.204	0.240
-489.493	23.926	-0.031	-0.025
-488.478	87.402	-0.198	-0.218
-487.464	87.913	0.251	0.278
-486.449	-104.666	-0.205	0.047
-485.435	-200.000	0.001	-0.119
-484.420	-200.000	-0.005	-0.119
-483.405	-60.118	-0.137	0.058
-482.391	-8.549	-0.430	-0.289
-481.376	-200.000	0.023	0.109
-480.362	0.118	0.192	0.136
-479.347	-200.000	0.037	-0.399
-478.332	276.557	-0.026	0.046
-477.318	-138.450	0.310	0.034
-476.303	-101.631	0.289	-0.070
-475.289	800.000	-0.085	-0.253
-474.274	-43.237	-0.222	-0.112
-473.259	91.835	0.297	-0.334
-472.245	107.990	-0.089	-0.106
-471.230	90.918	0.230	-0.257
-470.216	154.217	-0.165	-0.227
-469.201	-96.645	-0.247	0.065
-468.186	-53.123	-0.145	-0.066
-467.172	153.888	-0.144	-0.197
-466.157	-19.571	0.196	0.121
-465.143	84.498	0.074	-0.080
-464.128	-120.783	-0.049	0.008
-463.113	-92.834	-0.098	-0.027
-462.099	42.832	0.197	-0.179
-461.084	227.372	0.029	-0.047
-460.070	-200.000	-0.030	0.265
-459.055	142.466	0.067	-0.088
-458.040	88.336	-0.069	-0.076
-457.026	-32.226	-0.188	0.105
-456.011	-200.000	-0.030	0.194
-454.997	-200.000	-0.027	-0.363
-453.982	-71.433	0.175	-0.065
-452.968	65.501	0.129	0.130
-451.953	-55.705	-0.166	0.074
-450.938	91.370	0.161	-0.181
-449.924	704.224	0.094	-0.246
-448.909	800.000	-0.088	-0.339
-447.895	-67.704	-0.090	-0.035
-446.880	63.483	-0.088	0.088
-445.865	-200.000	0.010	0.098
-444.851	-200.000	-0.030	-0.251
-443.836	-148.244	0.280	-0.023
-442.822	254.524	-0.191	0.327
-441.807	776.738	-0.116	-0.315
-440.792	328.070	0.101	-0.194
-439.778	-170.204	-0.261	-0.009
-438.763	301.641	-0.097	0.179
-437.749	-144.073	-0.062	0.006
-436.734	800.000	-0.119	0.389
-435.719	338.574	0.110	0.214
-434.705	-26.702	-0.028	-0.016
-433.690	438.759	-0.048	0.104
-432.676	-110.776	0.117	0.024
-431.661	400.754	0.032	0.068
-430.646	-74.645	0.337	-0.121
-429.632	512.070	-0.029	0.068
-428.617	-133.100	-0.106	-0.013
-427.603	800.000	-0.037	-0.150
-426.588	-97.095	0.408	-0.106
-425.573	200.012	0.139	-0.212
-424.559	-117.542	-0.121	-0.022
-423.544	-200.000	-0.029	-0.138
-422.530	-40.063	-0.010	-0.005
-421.515	53.785	0.186	0.178
-420.500	-13.608	0.185	-0.120
-419.486	439.353	0.104	0.226
-418.471	612.434	0.142	0.354
-417.457	-101.568	0.266	0.064
-416.442	-200.000	-0.033	0.180
-415.428	87.008	-0.049	-0.054
-414.413	-6.717	0.042	-0.029
-413.398	-200.000	0.030	0.180
-412.384	800.000	0.025	0.095
-411.369	-200.000	0.059	0.442
-410.355	-76.897	0.148	0.051
-409.340	-128.686	0.366	0.052
-408.325	76.774	-0.129	0.137
-407.311	-200.000	-0.007	0.074
-406.296	-200.000	-0.021	-0.281
-405.282	-73.162	0.210	0.077
-404.267	-85.825	0.175	0.054
-403.252	-160.151	-0.052	0.003
-402.238	-144.724	-0.078	-0.007
-401.223	477.703	-0.031	0.069
-400.209	-101.570	-0.582	0.141
-399.194	21.177	0.057	-0.046
-398.179	-52.961	-0.084	-0.038
-397.165	634.085	-0.066	-0.167
-396.150	119.314	-0.283	-0.349
-395.136	87.633	-0.371	0.409
-394.121	129.906	-0.266	-0.339
-393.106	800.000	-0.039	-0.111
-392.092	87.740	0.150	-0.166
-391.077	-200.000	-0.017	-0.087
-390.063	4.132	0.182	0.133
-389.048	-101.816	-0.269	0.065
-388.033	800.000	-0.030	0.106
-387.019	97.085	-0.110	-0.126
-386.004	-116.731	-0.445	-0.081
-384.990	800.000	0.045	0.168
-383.975	-19.197	-0.111	0.068
-382.960	800.000	-0.057	-0.206
-381.946	565.007	0.120	-0.288
-380.931	-16.365	0.315	-0.199
-379.917	75.881	-0.091	-0.095
-378.902	-75.000	-0.119	-0.042
-377.888	800.000	-0.059	-0.180
-376.873	-147.646	0.034	0.003
-375.858	-200.000	-0.027	-0.378
-374.844	-68.979	0.238	-0.091
-373.829	-66.741	-0.223	-0.088
-372.815	-9.012	0.286	-0.190
-371.800	107.830	-0.341	0.404
-370.785	-20.625	0.202	0.123
-369.771	304.816	-0.157	0.291
-368.756	-200.000	-0.013	0.106
-367.742	36.031	-0.309	0.270
-366.727	163.672	0.045	-0.063
-365.712	-66.226	0.337	-0.133
-364.698	-119.196	0.459	-0.080
-363.683	725.936	-0.003	-0.007
-362.669	-200.000	-0.054	0.309
-361.654	-200.000	0.040	0.190
-360.639	-200.000	0.027	-0.242
-359.625	-200.000	-0.040	-0.220
-358.610	212.560	0.188	-0.295
-357.596	-200.000	0.001	0.342
-356.581	-34.415	-0.260	-0.142
-355.566	800.000	-0.054	0.167
-354.552	-91.503	0.091	0.026
-353.537	-200.000	0.007	0.095
-352.523	337.081	0.246	0.475
-351.508	181.987	0.050	0.073
-350.493	-200.000	0.027	0.302
-349.479	624.802	0.142	0.356
-348.464	-129.250	-0.269	0.037
-347.450	87.170	-0.262	-0.288
-346.435	-136.971	-0.265	-0.030
-345.420	610.377	-0.057	0.142
-344.406	800.000	-0.091	0.293
-343.391	285.860	-0.055	-0.099
-342.377	1.227	-0.124	0.088
-341.362	800.000	0.068	0.288
-340.348	800.000	0.043	0.123
-339.333	800.000	0.022	-0.072
-338.318	254.706	0.103	-0.175
-337.304	800.000	-0.004	0.013
-336.289	28.792	-0.268	0.225
-335.275	495.400	-0.090	-0.206
-334.260	-187.191	0.284	-0.004
-333.245	-200.000	-0.028	0.194
-332.231	213.446	-0.211	-0.331
-331.216	-24.509	0.098	0.058
-330.202	29.722	0.153	-0.130
-329.187	-200.000	0.010	0.156
-328.172	53.549	0.041	0.039
-327.158	-10.899	0.070	-0.046
-326.143	169.385	0.086	0.122
-325.129	-200.000	0.001	0.227
-324.114	104.042	0.132	-0.153
-323.099	214.261	0.147	-0.231
-322.085	-200.000	0.010	0.151
-321.070	449.894	0.143	0.313
-320.056	-108.962	0.247	-0.052
-319.041	800.000	-0.051	0.210
-318.026	-200.000	0.027	0.264
-317.012	800.000	0.059	0.220
-315.997	402.177	-0.051	0.106
-314.983	418.503	-0.109	-0.231
-313.968	-71.343	0.300	0.111
-312.953	270.313	0.058	-0.101
-311.939	-94.309	0.233	-0.063
-310.924	534.699	0.112	0.263
-309.910	84.456	-0.140	-0.151
-308.895	-89.414	-0.209	-0.061
-307.880	-64.507	-0.159	0.064
-306.866	-50.252	0.021	0.010
-305.851	193.098	0.201	-0.302
-304.837	-200.000	-0.022	0.307
-303.822	147.947	-0.031	0.042
-302.807	123.067	0.095	0.118
-301.793	-33.349	0.155	-0.085
-300.778	-200.000	-0.012	-0.386
-299.764	-24.750	-0.196	0.116
-298.749	-200.000	0.071	-0.319
-297.735	179.425	0.084	0.122
-296.720	-3.607	-0.194	0.134
-295.705	273.110	0.088	-0.155
-294.691	125.199	-0.022	0.027
-293.676	800.000	-0.154	0.453
-292.662	-61.834	-0.074	-0.031
-291.647	-147.536	0.499	0.042
-290.632	-200.000	0.050	0.355
-289.618	-120.395	0.254	0.043
-288.603	-112.248	0.148	0.029
-287.589	70.246	0.012	-0.012
-286.574	-36.712	-0.093	-0.050
-285.559	-59.319	-0.122	-0.052
-284.545	157.761	-0.167	-0.230
-283.530	303.743	0.172	0.316
-282.516	800.000	0.030	0.128
-281.501	800.000	-0.064	-0.197
-280.486	158.083	0.004	-0.006
-279.472	-103.612	-0.137	0.032
-278.457	1.619	-0.233	-0.166
-277.443	-51.136	-0.250	0.116
-276.428	163.062	0.169	0.235
-275.413	-200.000	0.044	-0.283
-274.399	127.815	-0.388	-0.489
-273.384	-64.464	-0.169	0.068
-272.370	769.837	0.126	0.340
-271.355	60.124	-0.198	0.194
-270.340	-37.874	0.292	-0.154
-269.326	91.951	-0.281	0.313
-268.311	-126.321	-0.539	0.080
-267.297	73.465	0.376	0.390
-266.282	-122.347	0.309	-0.050
-265.267	-45.360	0.169	0.083
-264.253	70.275	-0.100	0.102
-263.238	527.714	0.129	0.302
-262.224	-71.816	0.074	0.027
-261.209	384.310	-0.113	-0.231
-260.195	226.005	0.113	-0.181
-259.180	-59.078	0.466	-0.199
-258.165	-102.834	-0.148	-0.035
-257.151	689.734	0.084	-0.217
-256.136	40.931	-0.137	0.123
-255.122	800.000	-0.112	-0.360
-254.107	597.969	0.124	0.303
-253.092	-88.348	0.095	-0.028
-252.078	-62.790	-0.124	0.051
-251.063	-142.192	-0.257	-0.025
-250.049	-28.764	-0.343	0.195
-249.034	-43.872	0.150	-0.074
-248.019	408.364	0.065	0.136
-247.005	747.882	0.078	-0.207
-245.990	-106.528	0.206	0.045
-244.976	-75.590	0.449	-0.158
-243.961	346.246	0.112	-0.217
-242.946	-200.000	0.109	0.498
-241.932	-200.000	0.014	0.078
-240.917	87.620	-0.106	0.116
-239.903	751.098	0.081	-0.215
-238.888	-200.000	0.097	-0.000
-237.873	-162.739	-0.147	-0.007
-236.859	-187.403	0.290	-0.004
-235.844	235.646	-0.146	0.239
-234.830	-81.179	0.093	-0.030
-233.815	-92.479	0.350	0.097
-232.800	-65.741	0.112	0.044
-231.786	-200.000	0.001	-0.287
-230.771	237.575	-0.093	0.153
-229.757	-37.572	-0.132	0.069
-228.742	2.676	-0.198	0.142
-227.727	-200.000	-0.012	-0.236
-226.713	114.343	0.163	0.196
-225.698	-66.150	0.163	-0.064
-224.684	-200.000	0.063	-0.283
-223.669	223.326	0.185	-0.294
-222.655	-90.066	0.101	-0.029
-221.640	10.131	-0.185	0.139
-220.625	143.226	0.302	0.397
-219.611	173.255	0.212	0.303
-218.596	-117.638	-0.085	0.015
-217.582	-200.000	-0.000	0.159
-216.567	-34.655	0.127	-0.069
-215.552	257.562	-0.067	0.114
-214.538	-169.782	0.212	-0.008
-213.523	-128.433	-0.436	-0.061
-212.509	-67.064	-0.182	-0.071
-211.494	-64.734	-0.131	-0.052
-210.479	66.542	-0.096	-0.097
-209.465	-76.224	-0.267	0.093
-208.450	18.087	0.187	-0.147
-207.436	800.000	0.067	-0.185
-206.421	800.000	-0.005	0.017
-205.406	-142.476	0.370	0.036
-204.392	-92.296	-0.121	0.034
-203.377	-33.284	0.129	-0.071
-202.363	800.000	-0.106	-0.324
-201.348	-133.648	0.159	0.020
-200.333	-200.000	0.013	0.140
-199.319	89.370	0.245	-0.270
-198.304	646.480	0.022	0.055
-197.290	116.903	0.132	0.160
-196.275	-200.000	-0.014	0.313
-195.260	-11.856	0.501	-0.325
-194.246	41.168	0.172	0.154
-193.231	800.000	0.023	0.091
-192.217	-78.171	-0.115	0.039
-191.202	-139.311	0.141	0.015
-190.187	96.767	-0.074	0.083
-189.173	-200.000	0.000	0.047
-188.158	-151.094	-0.168	0.012
-187.144	437.828	0.100	-0.214
-186.129	-162.867	-0.136	-0.007
-185.114	-153.695	0.238	0.016
-184.100	-56.648	-0.032	0.014
-183.085	-153.282	-0.237	-0.016
-182.071	-85.489	0.181	-0.056
-181.056	-3.636	-0.053	0.036
-180.042	114.771	-0.053	0.063
-179.027	-95.794	0.195	-0.051
-178.012	-200.000	0.070	0.380
-176.998	23.427	-0.095	0.077
-175.983	-15.112	-0.227	0.144
-174.969	41.960	0.100	0.089
-173.954	-200.000	-0.015	0.143
-172.939	126.566	0.141	-0.176
-171.925	-68.121	-0.063	0.024
-170.910	-42.619	-0.172	0.087
-169.896	601.663	0.134	0.330
-168.881	800.000	-0.041	0.154
-167.866	-200.000	0.043	0.233
-166.852	-135.771	0.242	0.028
-165.837	-26.447	-0.152	-0.088
-164.823	21.160	0.133	-0.107
-163.808	351.785	-0.022	-0.043
-162.793	112.217	0.168	0.200
-161.779	348.330	0.081	-0.158
-160.764	-41.801	0.130	0.066
-159.750	-49.314	0.127	-0.060
-158.735	-200.000	-0.021	-0.197
-157.720	64.466	-0.348	-0.346
-156.706	800.000	0.006	0.020
-155.691	14.679	-0.172	-0.133
-154.677	62.220	-0.106	0.105
-153.662	-82.411	0.327	0.105
-152.647	304.416	0.069	0.126
-151.633	-62.067	-0.238	-0.098
-150.618	431.204	0.100	0.213
-149.604	521.826	0.099	0.230
-148.589	-6.739	0.325	0.218
-147.574	-1.804	0.366	-0.254
-146.560	58.349	-0.118	0.114
-145.545	174.888	-0.287	0.409
-144.531	800.000	0.031	0.122
-143.516	-200.000	0.002	-0.306
-142.502	-200.000	-0.047	-0.394
-141.487	800.000	-0.077	-0.298
-140.472	180.097	0.065	-0.093
-139.458	800.000	0.094	0.270
-138.443	92.195	0.148	0.164
-137.429	-12.877	-0.063	-0.040
-136.414	-200.000	-0.030	0.408
-135.399	84.706	-0.100	-0.108
-134.385	800.000	0.046	0.180
-133.370	194.911	0.094	0.141
-132.356	-200.000	0.036	-0.235
-131.341	133.283	-0.038	0.049
-130.326	553.141	0.072	0.170
-129.312	223.425	0.141	0.224
-128.297	-29.798	0.389	0.219
-127.283	-200.000	0.006	0.224
-126.268	-200.000	-0.027	0.276
-125.253	-184.418	0.101	-0.002
-124.239	113.169	-0.024	-0.029
-123.224	463.330	-0.046	0.100
-122.210	82.891	-0.316	0.338
-121.195	-200.000	-0.005	-0.324
-120.180	-30.602	-0.251	0.140
-119.166	108.494	0.192	-0.226
-118.151	800.000	0.118	0.342
-117.137	224.913	-0.107	0.170
-116.122	68.157	0.271	0.274
-115.107	-170.786	0.114	0.004
-114.093	534.140	0.132	-0.307
-113.078	127.250	0.130	-0.163
-112.064	-200.000	-0.018	0.138
-111.049	-200.000	-0.020	-0.160
-110.034	800.000	-0.021	-0.066
-109.020	230.590	0.072	-0.117
-108.005	-200.000	-0.025	-0.300
-106.991	39.831	0.310	0.274
-105.976	65.662	-0.294	-0.293
-104.962	54.724	-0.070	-0.066
-103.947	-98.815	0.119	-0.030
-102.932	800.000	-0.101	0.372
-101.918	25.564	0.312	0.255
-100.903	-169.130	-0.102	0.004
-99.889	-200.000	-0.002	-0.117
-98.874	684.278	0.064	-0.163
-97.859	800.000	-0.092	0.257
-96.845	-87.685	-0.312	-0.093
-95.830	-200.000	0.028	0.194
-94.816	31.763	-0.044	0.038
-93.801	-103.631	-0.040	0.009
-92.786	-200.000	-0.049	-0.233
-91.772	-200.000	0.045	-0.335
-90.757	-113.657	-0.257	0.049
-89.743	404.576	0.108	-0.223
-88.728	142.848	-0.126	-0.165
-87.713	-200.000	0.037	0.205
-86.699	-87.399	-0.133	-0.040
-85.684	800.000	-0.072	-0.291
-84.670	-105.693	-0.379	0.084
-83.655	800.000	0.051	0.167
-82.640	116.817	-0.040	-0.049
-81.626	518.885	-0.092	0.212
-80.611	-98.929	-0.343	0.085
-79.597	-93.626	0.404	0.110
-78.582	0.492	-0.139	0.097
-77.567	-157.027	0.128	0.008
-76.553	-71.452	0.090	0.033
-75.538	-69.577	-0.091	-0.034
-74.524	-24.826	-0.123	-0.072
-73.509	365.640	0.008	0.016
-72.494	63.145	0.309	0.304
-71.480	-160.291	-0.201	0.011
-70.465	93.862	0.262	0.292
-69.451	800.000	-0.071	-0.236
-68.436	-139.289	-0.334	-0.035
-67.422	800.000	-0.032	-0.102
-66.407	-132.406	0.244	-0.031
-65.392	339.070	-0.174	-0.334
-64.378	70.833	0.231	-0.234
-63.363	-200.000	-0.018	0.215
-62.349	-131.211	0.406	-0.053
-61.334	-6.259	-1.127	-0.756
-60.319	147.986	0.465	0.616
-59.305	370.539	-0.524	-1.043
-58.290	360.639	0.626	1.232
-57.276	684.540	0.654	1.676
-56.261	-200.000	100.615	583.182
-55.246	492.046	1428.911	3214.835
-54.232	152.673	2618.458	3513.378
-53.217	110.838	2166.836	2560.649
-52.203	42.566	1608.648	1437.491
-51.188	33.837	1340.990	1145.889
-50.173	30.854	1298.294	1091.906
-49.159	53.927	1348.184	1272.188
-48.144	55.320	1365.234	1296.542
-47.130	34.198	1322.378	1131.954
-46.115	30.654	1304.564	1095.828
-45.100	30.463	1299.837	1090.690
-44.086	30.292	1297.657	1087.818
-43.071	30.250	1295.242	1085.501
-42.057	30.172	1293.405	1083.463
-41.042	30.178	1291.742	1082.062
-40.027	30.491	1289.442	1081.915
-39.013	30.411	1287.758	1079.995
-37.998	30.354	1286.398	1078.478
-36.984	30.487	1284.512	1077.630
-35.969	30.375	1283.170	1075.809
-34.954	30.419	1281.451	1074.580
-33.940	30.455	1280.308	1073.789
-32.925	30.443	1278.849	1072.455
-31.911	30.356	1277.566	1070.831
-30.896	30.485	1275.803	1070.055
-29.881	30.464	1274.354	1068.679
-28.867	30.669	1272.641	1068.373
-27.852	30.518	1271.524	1066.528
-26.838	30.465	1270.105	1064.990
-25.823	30.445	1269.101	1063.994
-24.809	30.443	1267.668	1062.740
-23.794	30.389	1266.828	1061.684
-22.779	30.468	1265.096	1060.642
-21.765	30.471	1263.975	1059.676
-20.750	30.469	1262.079	1058.033
-19.736	30.363	1261.123	1056.587
-18.721	30.302	1259.855	1055.136
-17.706	30.374	1258.948	1054.743
-16.692	30.303	1257.914	1053.432
-15.677	30.300	1256.232	1051.967
-14.663	30.301	1255.572	1051.374
-13.648	30.277	1254.319	1050.147
-12.633	30.289	1253.338	1049.351
-11.619	30.430	1252.318	1049.257
-10.604	30.424	1251.586	1048.565
-9.590	30.366	1250.702	1047.454
-8.575	30.255	1249.888	1046.107
-7.560	30.311	1248.823	1045.489
-6.546	30.339	1247.616	1044.595
-5.531	30.291	1247.062	1043.821
-4.517	30.303	1246.275	1043.188
-3.502	30.309	1245.083	1042.181
-2.487	30.410	1244.005	1041.803
-1.473	30.322	1240.634	1038.449
-0.458	29.605	1226.505	1022.612
0.556	25.482	1209.984	990.410
1.571	22.229	1216.725	977.778
2.586	21.377	1231.738	984.960
3.600	21.046	1221.007	974.442
4.615	18.662	1153.771	908.103
5.629	14.453	1085.359	833.185
6.644	12.213	1067.833	808.635
7.659	11.986	1065.709	805.836
8.673	11.994	1064.259	804.708
9.688	11.977	1062.994	803.599
10.702	12.218	1061.397	803.498
11.717	15.073	1064.602	819.853
12.731	18.336	1068.904	839.113
13.746	18.637	1068.561	840.245
14.761	17.793	1066.500	834.424
15.775	16.749	1064.416	827.619
16.790	15.655	1062.177	820.469
17.804	14.868	1060.644	815.374
18.819	14.368	1059.561	812.033
19.834	14.085	1058.707	809.928
20.848	13.855	1057.424	807.754
21.863	13.650	1056.855	806.252
22.877	13.475	1056.211	804.836
23.892	13.406	1055.304	803.742
24.907	13.437	1054.504	803.211
25.921	13.601	1053.365	803.069
26.936	13.574	1052.164	801.948
27.950	13.505	1051.006	800.662
28.965	13.715	1048.906	800.004
29.980	13.788	1047.595	799.286
30.994	13.791	1046.570	798.448
32.009	13.815	1045.309	797.531
33.023	13.663	1044.840	796.370
34.038	13.618	1043.771	795.272
35.053	13.445	1043.019	793.799
36.067	13.673	1041.580	793.727
37.082	13.568	1040.876	792.614
38.096	13.644	1040.340	792.502
39.111	13.750	1039.108	791.997
40.126	13.612	1037.945	790.382
41.140	13.504	1036.758	788.898
42.155	13.501	1035.630	787.954
43.169	13.419	1034.742	786.816
44.184	13.450	1033.445	785.908
45.199	13.400	1032.489	784.877
46.213	13.474	1031.362	784.300
47.228	13.544	1030.658	784.028
48.242	13.466	1029.531	782.729
49.257	13.533	1028.274	782.024
50.271	13.595	1027.381	781.564
51.286	13.589	1026.809	781.036
52.301	13.633	1025.578	780.234
53.315	13.480	1024.623	778.720
54.330	13.519	1023.931	778.310
55.344	13.521	1022.478	777.145
56.359	13.585	1021.512	776.644
57.374	13.487	1020.670	775.475
58.388	13.450	1020.178	774.858
59.403	13.399	1019.243	773.839
60.417	13.479	1018.018	773.215
61.432	13.304	1017.769	772.144
62.447	13.297	1016.852	771.345
63.461	13.219	1016.327	770.516
64.476	13.314	1015.028	769.904
65.490	13.562	1013.718	769.998
66.505	13.314	1013.563	768.657
67.520	13.405	1012.718	768.373
68.534	13.355	1012.270	767.733
69.549	13.421	1011.249	767.196
70.563	13.403	1010.455	766.440
71.578	13.304	1010.042	765.604
72.593	13.247	1009.275	764.688
73.607	13.277	1008.320	764.039
74.622	13.346	1007.567	763.719
75.636	13.304	1007.090	763.094
76.651	13.339	1006.224	762.531
77.666	13.255	1005.764	761.728
78.680	13.300	1005.406	761.598
79.695	13.397	1004.456	761.258
80.709	13.472	1003.952	761.150
81.724	13.432	1003.202	760.330
82.739	13.500	1002.019	759.680
83.753	13.602	1001.471	759.665
84.768	13.700	1000.875	759.596
85.782	13.599	1000.179	758.536
86.797	13.691	998.803	757.846
87.812	13.540	998.546	756.896
88.826	13.648	997.253	756.342
89.841	13.541	996.247	755.023
90.855	13.619	995.405	754.672
91.870	13.616	994.883	754.198
92.884	13.677	994.127	753.833
93.899	13.683	992.960	752.910
94.914	13.738	992.364	752.643
95.928	13.749	990.969	751.568
96.943	13.658	990.284	750.571
97.957	13.648	989.539	749.891
98.972	13.639	988.758	749.196
99.987	13.700	987.802	748.677
101.001	13.709	986.659	747.785
102.016	13.699	986.303	747.404
103.030	13.568	985.468	746.116
104.045	13.600	984.846	745.725
105.060	13.731	983.612	745.311
106.074	13.658	982.459	744.046
107.089	13.514	981.627	742.704
108.103	13.400	980.665	741.397
109.118	13.467	979.971	741.107
110.133	13.521	978.556	740.212
111.147	13.538	977.965	739.779
112.162	13.415	977.851	739.078
113.176	13.636	976.476	738.956
114.191	13.471	976.278	738.008
115.206	13.701	975.078	738.060
116.220	13.543	974.112	736.558
117.235	13.482	973.244	735.567
118.249	13.585	972.582	735.460
119.264	13.549	971.864	734.691
120.279	13.489	971.126	733.801
121.293	13.493	970.428	733.228
122.308	13.405	969.489	732.065
123.322	13.464	968.359	731.408
124.337	13.421	967.435	730.455
125.352	13.439	966.431	729.713
126.366	13.507	965.103	728.942
127.381	13.528	964.040	728.167
128.395	13.520	963.239	727.465
129.410	13.597	962.467	727.154
130.424	13.461	961.817	726.003
131.439	13.552	961.336	725.975
132.454	13.615	960.302	725.405
133.468	13.721	959.541	725.229
134.483	13.515	958.973	723.834
135.497	13.670	957.540	723.366
136.512	13.574	957.139	722.578
137.527	13.567	956.181	721.762
138.541	13.599	955.196	721.094
139.556	13.759	954.706	721.357
140.570	13.697	954.191	720.632
141.585	13.760	953.360	720.215
142.600	13.794	951.981	719.258
143.614	13.954	951.369	719.425
144.629	13.811	950.598	718.158
145.643	13.819	950.135	717.782
146.658	13.944	948.383	716.935
147.673	13.765	947.891	715.725
148.687	13.732	947.220	715.012
149.702	13.726	945.709	713.784
150.716	13.742	945.402	713.558
151.731	13.828	944.592	713.252
152.746	13.720	943.965	712.251
153.760	13.764	943.493	712.021
154.775	13.870	942.917	711.981
155.789	13.831	942.518	711.448
156.804	13.882	941.653	710.950
157.819	14.012	940.714	710.737
158.833	13.961	940.403	710.218
159.848	14.025	939.548	709.783
160.862	14.031	938.623	709.046
161.877	13.945	937.423	707.714
162.892	13.892	936.405	706.655
163.906	13.841	935.365	705.590
164.921	13.821	934.665	704.915
165.935	13.806	934.121	704.378
166.950	13.918	933.254	704.137
167.964	13.924	932.284	703.368
168.979	13.938	931.111	702.480
169.994	13.939	930.409	701.895
171.008	13.997	929.754	701.583
172.023	13.910	929.258	700.777
173.037	13.951	928.655	700.436
174.052	14.026	927.708	699.975
175.067	14.010	926.827	699.180
176.081	13.958	926.217	698.442
177.096	13.838	926.026	697.731
178.110	13.957	925.433	697.722
179.125	13.957	924.793	697.175
180.140	13.933	924.393	696.714
181.154	13.984	923.702	696.345
182.169	14.156	923.300	696.702
183.183	14.265	922.486	696.482
184.198	14.018	922.134	695.119
185.213	14.117	921.246	694.802
186.227	14.129	920.733	694.403
187.242	14.171	920.208	694.124
188.256	14.157	919.439	693.422
189.271	14.183	918.636	692.864
190.286	13.870	918.260	691.215
191.300	13.926	917.151	690.553
192.315	13.959	916.230	689.935
193.329	14.124	915.848	690.273
194.344	14.129	915.153	689.706
195.359	14.170	914.505	689.328
196.373	14.083	914.274	688.731
197.388	14.297	913.649	689.086
198.402	14.330	913.367	688.948
199.417	14.308	912.630	688.241
200.432	14.324	912.133	687.871
201.446	14.451	911.655	687.977
202.461	14.521	911.107	687.788
203.475	14.360	910.881	686.894
204.490	14.449	909.696	686.306
205.504	14.279	909.221	685.188
206.519	14.443	908.025	684.899
207.534	14.372	907.279	683.986
208.548	14.300	907.078	683.478
209.563	14.417	906.595	683.531
210.577	14.476	905.963	683.235
211.592	14.622	905.066	683.097
212.607	14.586	904.051	682.125
213.621	14.545	903.586	681.544
214.636	14.560	902.808	680.961
215.650	14.493	902.335	680.269
216.665	14.603	901.568	680.079
217.680	14.675	900.679	679.642
218.694	14.604	900.248	678.969
219.709	14.624	899.636	678.526
220.723	14.642	899.194	678.205
221.738	14.719	898.163	677.681
222.753	14.688	897.526	677.015
223.767	14.707	897.100	676.710
224.782	14.761	896.503	676.422
225.796	14.855	895.969	676.337
226.811	14.679	895.282	675.048
227.826	14.728	894.240	674.397
228.840	14.590	893.932	673.551
229.855	14.762	892.993	673.477
230.869	14.806	892.426	673.166
231.884	14.837	891.907	672.840
232.899	14.706	891.010	671.578
233.913	14.798	890.150	671.240
234.928	14.702	889.909	670.614
235.942	14.662	888.864	669.604
236.957	14.749	888.624	669.713
237.972	14.833	887.731	669.317
238.986	14.859	887.490	669.183
240.001	14.648	887.012	667.916
241.015	14.738	886.145	667.566
242.030	14.882	885.761	667.791
243.045	14.906	885.048	667.292
244.059	14.808	884.420	666.368
245.074	14.853	883.757	665.987
246.088	14.932	883.220	665.841
247.103	14.867	882.500	664.980
248.117	14.876	882.584	665.021
249.132	15.138	881.377	665.094
250.147	15.154	880.491	664.428
251.161	15.173	880.176	664.207
252.176	15.263	879.514	664.004
253.190	15.194	878.998	663.286
254.205	15.228	878.511	662.991
255.220	15.175	878.087	662.403
256.234	15.103	877.510	661.627
257.249	15.276	876.538	661.517
258.263	15.275	875.506	660.677
259.278	15.315	874.889	660.308
260.293	15.265	874.214	659.544
261.307	15.360	873.955	659.665
262.322	15.435	872.963	659.154
263.336	15.571	872.326	659.146
264.351	15.461	871.774	658.241
265.366	15.431	871.243	657.661
266.380	15.443	870.627	657.186
267.395	15.429	869.939	656.555
268.409	15.487	868.944	655.971
269.424	15.522	868.294	655.561
270.439	15.503	867.526	654.848
271.453	15.532	866.459	654.099
272.468	15.507	866.377	653.881
273.482	15.423	866.293	653.434
274.497	15.411	865.800	652.955
275.512	15.514	864.911	652.627
276.526	15.475	864.607	652.189
277.541	15.545	863.962	651.917
278.555	15.569	863.498	651.601
279.570	15.691	862.591	651.331
280.585	15.647	861.748	650.470
281.599	15.693	861.149	650.136
282.614	15.698	860.345	649.492
283.628	15.594	859.750	648.584
284.643	15.509	859.583	648.072
285.657	15.648	858.744	647.919
286.672	15.721	858.060	647.624
287.687	15.667	857.593	647.008
288.701	15.643	856.876	646.317
289.716	15.706	856.078	645.900
290.730	15.767	855.676	645.776
291.745	15.817	855.380	645.685
292.760	15.747	854.797	644.921
293.774	15.944	854.322	645.259
294.789	15.730	853.643	643.872
295.803	15.831	852.505	643.339
296.818	15.873	851.784	642.900
297.833	15.782	851.440	642.237
298.847	15.751	850.697	641.501
299.862	15.955	850.255	641.889
300.876	15.765	849.870	640.816
301.891	15.924	849.438	641.041
302.906	16.050	848.379	640.665
303.920	15.968	848.202	640.160
304.935	16.168	847.691	640.477
305.949	16.117	846.641	639.434
306.964	16.017	846.466	638.865
307.979	16.182	845.926	639.029
308.993	16.077	845.417	638.190
310.008	16.119	844.852	637.864
311.022	16.158	844.229	637.487
312.037	15.945	843.619	636.165
313.052	16.097	842.519	635.852
314.066	16.034	842.608	635.626
315.081	16.091	841.695	635.096
316.095	16.065	841.365	634.693
317.110	15.974	840.906	633.947
318.125	16.149	840.152	633.980
319.139	15.993	839.895	633.146
320.154	16.135	839.548	633.360
321.168	16.081	838.793	632.532
322.183	16.144	838.408	632.420
323.197	16.200	837.799	632.118
324.212	16.159	837.625	631.773
325.227	16.107	836.704	630.830
326.241	16.234	836.150	630.829
327.256	16.177	835.412	630.006
328.270	16.133	835.105	629.555
329.285	16.273	834.469	629.540
330.300	16.212	834.006	628.909
331.314	16.196	833.635	628.515
332.329	16.117	833.321	627.926
333.343	16.328	832.384	627.951
334.358	16.485	832.146	628.299
335.373	16.258	831.965	627.262
336.387	16.358	831.392	627.146
337.402	16.297	831.366	626.844
338.416	16.592	830.555	627.274
339.431	16.522	830.172	626.669
340.446	16.473	830.074	626.358
341.460	16.473	829.562	625.914
342.475	16.502	829.192	625.687
343.489	16.560	828.634	625.425
344.504	16.740	827.957	625.524
345.519	16.799	827.316	625.203
346.533	16.629	827.514	624.668
347.548	16.732	826.369	624.128
348.562	16.585	825.941	623.209
349.577	16.488	825.812	622.701
350.592	16.542	825.313	622.466
351.606	16.593	824.337	621.862
352.621	16.636	823.383	621.247
353.635	16.706	822.718	620.947
354.650	16.657	822.292	620.392
355.665	16.716	821.650	620.067
356.679	16.736	821.091	619.663
357.694	16.608	820.727	618.864
358.708	16.771	819.742	618.664
359.723	16.716	819.471	618.204
360.738	16.698	819.008	617.734
361.752	16.684	818.565	617.295
362.767	16.680	817.835	616.675
363.781	16.931	817.360	617.177
364.796	16.954	816.668	616.683
365.810	16.950	816.355	616.378
366.825	16.967	816.353	616.384
367.840	16.802	815.683	615.223
368.854	17.032	814.947	615.447
369.869	16.862	814.592	614.511
370.883	16.968	814.374	614.674
371.898	17.039	814.507	614.976
372.913	17.180	813.514	614.685
373.927	17.048	812.940	613.718
374.942	17.069	812.634	613.510
375.956	17.069	812.101	613.051
376.971	17.161	811.785	613.091
377.986	17.097	811.076	612.273
379.000	17.263	810.516	612.393
380.015	17.112	810.392	611.701
381.029	17.227	809.663	611.510
382.044	17.206	809.174	611.012
383.059	17.275	808.791	610.916
384.073	17.207	808.028	610.040
385.088	17.203	807.506	609.579
386.102	17.193	807.077	609.166
387.117	17.313	806.047	608.764
388.132	17.282	805.868	608.462
389.146	17.286	804.966	607.743
390.161	17.377	805.132	608.140
391.175	17.449	804.108	607.570
392.190	17.344	803.606	606.760
393.205	17.391	803.008	606.423
394.219	17.383	802.737	606.138
395.234	17.341	802.232	605.551
396.248	17.301	801.865	605.078
397.263	17.224	801.837	604.731
398.278	17.161	801.532	604.224
399.292	17.342	801.071	604.467
400.307	17.250	800.553	603.694
401.321	17.280	799.814	603.192
402.336	17.367	799.402	603.136
403.350	17.169	799.582	602.516
404.365	17.342	798.864	602.532
405.380	17.596	797.991	602.721
406.394	17.696	797.715	602.814
407.409	17.631	797.370	602.270
408.423	17.643	796.936	601.929
409.438	17.677	796.560	601.713
410.453	17.600	796.085	601.028
411.467	17.561	795.868	600.676
412.482	17.670	795.481	600.713
413.496	17.824	794.931	600.788
414.511	17.774	794.491	600.225
415.526	17.672	794.189	599.585
416.540	17.716	793.423	599.109
417.555	17.808	792.829	598.929
418.569	17.635	792.620	598.114
419.584	17.876	792.349	598.700
420.599	17.734	792.083	597.950
421.613	109.564	1289.294	1465.453
422.628	94.121	1361.717	1465.521
