DTS Sentinel unit serial number:	SN413079Multiplexer serial number:	ORYXHardware model number:	OX4-SRSoftware version number:	ORYX F/W v4.00 Oryx Data Collector v3.7.2.0data status	okinstallation	princeton_trtdifferential loss correction	single-endedforward channel	channel 1reverse channel	N/Adate	2019/09/17time	20:42:35forward acquisition time	60.00reverse acquisition time	0.00gamma	496.2192k internal	0.2331k external	0.2331temperature offset calibration	0.9982default loss term (dB/km)	0.3790temperature slope calibration	1.0000multiplexer offset coefficient	1.0000multiplexer slope coefficient	1.0000fibre end	0.00T internal ref (°C)	29.77T ext. ref 1 (°C)	0.20T ext. ref 2 (°C)	20.78length (m)	temperature (°C)	Stokes	anti-Stokes-747.200	375.873	0.078	0.161
-746.185	427.655	0.086	0.187
-745.171	-125.711	0.113	-0.017
-744.156	-125.686	-0.246	0.037
-743.142	-27.474	-0.219	0.128
-742.127	-200.000	-0.009	-0.045
-741.112	-106.946	0.098	0.022
-740.098	-121.358	0.105	-0.018
-739.083	-53.129	-0.093	-0.043
-738.069	-200.000	-0.030	0.215
-737.054	-155.740	-0.289	-0.019
-736.039	75.386	-0.211	-0.224
-735.025	40.817	0.180	-0.164
-734.010	-200.000	-0.058	-0.291
-732.996	158.182	-0.103	-0.144
-731.981	-96.167	-0.141	0.038
-730.966	270.688	0.117	-0.208
-729.952	-163.282	-0.361	0.017
-728.937	-200.000	0.018	-0.216
-727.923	-15.187	-0.052	0.033
-726.908	-25.339	-0.288	-0.171
-725.894	21.965	0.283	-0.232
-724.879	227.810	0.103	-0.168
-723.864	22.245	0.201	-0.165
-722.850	800.000	0.088	-0.298
-721.835	184.514	-0.107	0.159
-720.821	-200.000	-0.036	-0.216
-719.806	-148.790	-0.419	-0.034
-718.791	208.790	0.103	0.162
-717.777	-200.000	0.007	0.175
-716.762	193.938	-0.134	-0.204
-715.748	-200.000	-0.019	-0.107
-714.733	800.000	0.112	0.417
-713.718	-200.000	0.024	0.305
-712.704	-89.690	-0.258	-0.076
-711.689	702.937	-0.101	-0.267
-710.675	245.187	0.095	-0.161
-709.660	-200.000	0.085	-0.433
-708.645	-200.000	-0.009	0.340
-707.631	-140.250	-0.587	0.062
-706.616	-73.794	0.260	-0.095
-705.602	134.158	-0.211	0.275
-704.587	-61.721	0.001	-0.000
-703.572	800.000	-0.021	0.074
-702.558	430.499	-0.085	0.184
-701.543	-102.848	-0.039	0.009
-700.529	-82.090	0.082	-0.027
-699.514	13.318	-0.096	-0.075
-698.499	214.676	-0.024	-0.038
-697.485	-102.929	0.086	-0.021
-696.470	-66.506	0.230	0.092
-695.456	-200.000	0.011	-0.288
-694.441	-55.284	0.195	0.088
-693.426	173.923	0.191	-0.277
-692.412	31.832	-0.349	-0.302
-691.397	26.414	-0.201	0.168
-690.383	-132.485	-0.347	-0.045
-689.368	-200.000	0.007	-0.095
-688.354	-177.812	0.079	0.002
-687.339	-200.000	-0.003	0.175
-686.324	-122.586	0.232	-0.038
-685.310	-57.125	-0.122	-0.054
-684.295	-92.540	0.101	-0.029
-683.281	505.539	0.077	0.179
-682.266	-30.049	0.145	-0.083
-681.251	-81.834	0.440	0.145
-680.237	549.616	-0.072	0.172
-679.222	753.391	-0.058	-0.158
-678.208	76.733	0.232	-0.248
-677.193	203.099	-0.096	-0.149
-676.178	160.598	0.316	-0.442
-675.164	151.381	-0.134	0.184
-674.149	0.232	0.132	0.095
-673.135	388.177	-0.136	-0.282
-672.120	51.656	-0.073	-0.070
-671.105	-74.995	-0.221	0.079
-670.091	-127.233	0.228	0.033
-669.076	389.465	-0.075	-0.156
-668.062	72.094	-0.122	-0.128
-667.047	-78.480	-0.393	-0.135
-666.032	-200.000	0.006	0.316
-665.018	-185.692	0.335	-0.005
-664.003	-30.322	0.148	0.084
-662.989	16.415	-0.291	-0.230
-661.974	800.000	-0.071	-0.253
-660.959	-200.000	-0.015	0.302
-659.945	-200.000	-0.006	-0.116
-658.930	91.491	-0.120	0.135
-657.916	-200.000	0.006	0.354
-656.901	-45.550	-0.279	0.138
-655.886	-134.250	0.228	-0.028
-654.872	486.118	-0.079	-0.181
-653.857	-136.828	0.299	-0.034
-652.843	-200.000	0.046	-0.340
-651.828	-87.257	-0.182	-0.055
-650.814	201.458	-0.059	0.092
-649.799	800.000	-0.034	-0.096
-648.784	420.234	-0.031	-0.067
-647.770	169.895	-0.212	0.303
-646.755	579.040	0.114	-0.279
-645.741	800.000	-0.034	-0.129
-644.726	-153.854	-0.110	-0.008
-643.711	84.550	0.088	-0.097
-642.697	-127.478	-0.209	-0.030
-641.682	166.210	0.186	-0.264
-640.668	-137.506	-0.067	0.008
-639.653	-130.520	0.304	-0.041
-638.638	-139.734	0.184	-0.020
-637.624	-31.791	-0.090	0.051
-636.609	-89.616	-0.508	-0.149
-635.595	-200.000	-0.002	-0.095
-634.580	31.968	0.155	0.134
-633.565	-50.795	0.328	0.155
-632.551	11.606	0.143	-0.110
-631.536	185.832	-0.168	-0.250
-630.522	131.587	-0.175	-0.225
-629.507	-85.932	-0.134	0.041
-628.492	793.469	-0.035	-0.095
-627.478	-200.000	-0.009	0.164
-626.463	-60.113	-0.135	0.058
-625.449	94.989	-0.060	0.068
-624.434	220.355	-0.138	0.222
-623.419	800.000	0.053	0.181
-622.405	239.922	0.130	0.217
-621.390	-129.036	0.159	0.022
-620.376	-200.000	0.059	-0.371
-619.361	-140.497	0.314	-0.033
-618.346	255.038	-0.055	0.094
-617.332	242.090	0.097	-0.163
-616.317	-128.243	-0.220	-0.032
-615.303	800.000	0.019	0.081
-614.288	16.023	0.159	-0.125
-613.273	84.113	0.100	0.110
-612.259	241.895	-0.166	0.278
-611.244	-83.809	-0.224	-0.071
-610.230	800.000	-0.079	-0.233
-609.215	47.388	-0.181	0.168
-608.201	166.790	0.065	-0.093
-607.186	60.842	0.068	-0.067
-606.171	800.000	-0.099	0.281
-605.157	-153.814	0.143	-0.010
-604.142	-113.634	0.055	-0.011
-603.128	168.770	0.206	-0.294
-602.113	320.431	-0.135	-0.256
-601.098	-53.358	-0.190	0.087
-600.084	-85.930	-0.256	0.079
-599.069	68.161	0.184	0.189
-598.055	73.440	-0.146	0.152
-597.040	527.393	-0.127	-0.300
-596.025	-58.592	0.410	0.178
-595.011	-133.498	-0.335	0.042
-593.996	18.009	-0.047	-0.038
-592.982	-113.955	0.138	0.027
-591.967	-41.564	-0.179	-0.092
-590.952	-126.569	-0.263	-0.039
-589.938	-58.378	0.150	0.065
-588.923	39.802	-0.264	0.237
-587.909	417.378	0.153	0.326
-586.894	-11.944	0.318	-0.208
-585.879	-200.000	-0.012	-0.564
-584.865	382.333	0.072	0.148
-583.850	800.000	-0.050	0.193
-582.836	-87.423	-0.080	-0.024
-581.821	112.913	-0.385	0.466
-580.806	800.000	0.137	0.449
-579.792	244.703	-0.094	0.158
-578.777	82.606	0.222	-0.241
-577.763	-200.000	0.017	0.096
-576.748	-72.378	0.193	-0.071
-575.733	-200.000	-0.020	0.391
-574.719	-76.806	0.099	-0.034
-573.704	-11.146	0.441	0.291
-572.690	97.172	-0.194	0.223
-571.675	-134.346	0.142	0.017
-570.661	-42.493	-0.021	-0.011
-569.646	-51.443	0.286	-0.133
-568.631	-200.000	0.051	-0.319
-567.617	13.653	-0.136	-0.106
-566.602	359.266	-0.155	-0.310
-565.588	84.606	-0.119	-0.131
-564.573	-102.423	-0.168	0.040
-563.558	-200.000	0.011	-0.187
-562.544	236.734	0.064	-0.107
-561.529	168.606	-0.162	0.231
-560.515	43.460	0.090	-0.082
-559.500	-5.836	0.148	-0.101
-558.485	-200.000	-0.012	0.095
-557.471	-200.000	-0.047	-0.407
-556.456	-9.898	-0.232	0.155
-555.442	-56.116	0.154	-0.069
-554.427	108.400	0.035	-0.041
-553.412	800.000	0.041	-0.164
-552.398	800.000	0.063	-0.273
-551.383	800.000	-0.130	-0.363
-550.369	-43.445	0.264	0.133
-549.354	568.843	-0.071	0.173
-548.339	300.221	-0.193	0.355
-547.325	800.000	0.138	0.396
-546.310	-114.286	-0.323	0.062
-545.296	-127.971	0.169	-0.024
-544.281	-132.093	0.273	0.035
-543.266	154.712	-0.224	-0.307
-542.252	140.623	-0.212	-0.280
-541.237	589.232	0.101	0.248
-540.223	-36.276	-0.102	-0.055
-539.208	4.023	0.057	-0.042
-538.193	-100.504	0.122	-0.030
-537.179	-200.000	0.045	0.232
-536.164	-200.000	0.262	-0.001
-535.150	292.572	-0.169	-0.308
-534.135	98.798	-0.225	0.259
-533.121	340.110	0.081	-0.159
-532.106	-200.000	0.026	-0.125
-531.091	-19.699	-0.284	-0.175
-530.077	-154.698	-0.038	-0.003
-529.062	-50.965	-0.155	0.073
-528.048	50.875	0.047	-0.045
-527.033	7.973	-0.220	0.165
-526.018	143.220	-0.246	-0.327
-525.004	800.000	-0.020	-0.068
-523.989	-109.007	-0.351	0.075
-522.975	800.000	-0.140	-0.389
-521.960	-71.683	-0.180	0.067
-520.945	30.570	0.189	-0.161
-519.931	257.888	0.020	-0.034
-518.916	-98.141	0.298	0.076
-517.902	151.751	-0.203	0.277
-516.887	-26.230	-0.121	-0.071
-515.872	467.221	0.093	-0.209
-514.858	-29.849	-0.154	-0.088
-513.843	436.464	-0.124	0.268
-512.829	49.126	0.093	-0.087
-511.814	-200.000	0.044	-0.230
-510.799	25.847	0.220	0.182
-509.785	642.655	0.060	0.152
-508.770	-58.216	-0.050	0.022
-507.756	385.740	0.140	0.287
-506.741	-200.000	-0.039	-0.609
-505.726	27.781	-0.217	0.182
-504.712	800.000	0.035	-0.130
-503.697	-15.763	-0.239	-0.152
-502.683	133.820	0.113	-0.146
-501.668	31.256	0.130	-0.111
-500.653	800.000	-0.068	-0.215
-499.639	372.058	0.031	0.062
-498.624	-116.494	-0.331	0.061
-497.610	-69.595	-0.212	0.081
-496.595	-200.000	0.015	0.179
-495.581	223.275	-0.022	-0.035
-494.566	561.926	-0.082	-0.197
-493.551	196.227	0.032	0.049
-492.537	-159.253	0.223	-0.012
-491.522	266.925	0.022	-0.038
-490.508	-82.039	0.166	0.054
-489.493	46.618	0.310	0.287
-488.478	-178.704	0.273	-0.006
-487.464	-45.548	0.503	0.248
-486.449	62.634	0.127	-0.127
-485.435	231.144	-0.164	-0.267
-484.420	-86.530	0.283	0.087
-483.405	-63.146	0.281	0.115
-482.391	-200.000	0.085	-0.386
-481.376	-60.988	0.206	-0.087
-480.362	-75.842	-0.092	0.033
-479.347	420.323	0.158	0.337
-478.332	-132.138	0.123	-0.016
-477.318	268.334	0.156	-0.273
-476.303	275.246	0.112	0.197
-475.289	-200.000	0.018	0.180
-474.274	450.754	-0.033	0.072
-473.259	-107.260	0.161	0.035
-472.245	800.000	-0.057	0.171
-471.230	-36.913	-0.087	-0.046
-470.216	-44.521	0.088	-0.044
-469.201	-51.231	-0.142	-0.066
-468.186	-74.730	0.530	-0.190
-467.172	376.417	-0.059	0.120
-466.157	-96.062	0.150	-0.040
-465.143	-113.306	0.114	-0.022
-464.128	-37.651	-0.222	-0.118
-463.113	-113.376	0.282	0.055
-462.099	68.994	-0.232	-0.238
-461.084	-26.700	-0.394	0.229
-460.070	9.367	0.170	-0.128
-459.055	-200.000	0.054	0.427
-458.040	800.000	0.041	-0.127
-457.026	-150.869	0.155	0.012
-456.011	91.181	0.124	-0.138
-454.997	200.258	-0.162	0.247
-453.982	273.584	-0.139	0.245
-452.968	61.301	0.163	-0.161
-451.953	9.233	0.330	0.248
-450.938	18.372	-0.170	-0.135
-449.924	-69.573	-0.168	-0.064
-448.909	292.919	0.147	0.267
-447.895	-93.418	-0.276	-0.076
-446.880	800.000	0.086	-0.248
-445.865	-31.296	0.172	0.097
-444.851	23.566	-0.197	-0.161
-443.836	53.435	-0.108	-0.103
-442.822	302.694	-0.140	0.258
-441.807	738.943	-0.041	0.108
-440.792	-94.789	-0.229	-0.062
-439.778	530.040	0.080	-0.188
-438.763	-33.490	-0.232	-0.128
-437.749	-51.287	-0.349	-0.163
-436.734	-139.069	0.327	-0.035
-435.719	230.477	-0.102	0.166
-434.705	595.990	0.094	-0.232
-433.690	-80.805	0.257	0.085
-432.676	-88.830	0.120	-0.036
-431.661	-109.665	0.449	-0.094
-430.646	17.591	0.224	0.177
-429.632	-200.000	-0.012	-0.326
-428.617	-200.000	-0.045	0.217
-427.603	-200.000	0.012	0.174
-426.588	52.312	0.176	-0.166
-425.573	800.000	0.063	0.236
-424.559	-200.000	0.081	0.375
-423.544	-84.455	-0.155	-0.049
-422.530	78.631	-0.139	-0.148
-421.515	308.987	-0.030	0.056
-420.500	800.000	0.098	-0.411
-419.486	-50.427	-0.126	0.059
-418.471	-106.935	-0.122	-0.027
-417.457	-200.000	0.003	-0.232
-416.442	-67.251	-0.038	-0.015
-415.428	57.608	-0.064	-0.063
-414.413	-81.248	-0.174	0.057
-413.398	-91.953	0.195	-0.055
-412.384	-169.312	-0.434	0.016
-411.369	-142.870	0.151	0.015
-410.355	211.315	0.081	0.126
-409.340	-67.400	-0.058	-0.023
-408.325	39.968	0.033	-0.030
-407.311	635.340	0.137	0.345
-406.296	-57.711	-0.106	0.046
-405.282	222.620	-0.059	-0.094
-404.267	-46.406	0.207	-0.101
-403.252	-114.610	0.269	-0.051
-402.238	-200.000	-0.031	-0.283
-401.223	-47.763	-0.236	0.114
-400.209	239.733	0.249	0.411
-399.194	-95.493	-0.040	-0.011
-398.179	-200.000	-0.005	-0.061
-397.165	-73.678	0.101	0.037
-396.150	139.977	0.057	-0.075
-395.136	83.796	0.038	-0.042
-394.121	412.386	-0.075	-0.158
-393.106	-200.000	0.008	0.226
-392.092	-200.000	-0.043	0.264
-391.077	135.715	0.061	-0.079
-390.063	-200.000	0.048	0.218
-389.048	-200.000	-0.052	0.454
-388.033	-24.816	-0.006	-0.003
-387.019	320.309	-0.082	0.155
-386.004	-200.000	0.016	-0.117
-384.990	-20.104	-0.091	0.056
-383.975	-148.467	-0.286	-0.023
-382.960	-200.000	-0.017	-0.080
-381.946	800.000	0.040	0.129
-380.931	149.464	-0.172	-0.231
-379.917	-200.000	-0.011	0.103
-378.902	800.000	0.005	0.018
-377.888	84.928	0.011	0.012
-376.873	-84.965	0.073	-0.023
-375.858	-200.000	-0.021	0.212
-374.844	322.940	-0.099	0.188
-373.829	47.891	-0.225	-0.209
-372.815	-35.981	0.308	0.165
-371.800	-22.920	-0.138	0.082
-370.785	-200.000	0.002	0.215
-369.771	-200.000	0.023	0.309
-368.756	115.756	0.232	-0.281
-367.742	60.632	0.088	-0.086
-366.727	397.321	0.084	0.174
-365.712	524.840	-0.036	0.085
-364.698	800.000	0.047	0.133
-363.683	-125.212	0.211	-0.032
-362.669	-84.358	0.062	-0.019
-361.654	-200.000	-0.032	-0.289
-360.639	-200.000	0.022	-0.101
-359.625	13.002	-0.175	0.134
-358.610	-25.773	-0.279	0.163
-357.596	178.519	-0.114	-0.166
-356.581	-55.597	-0.085	-0.038
-355.566	336.844	0.040	0.077
-354.552	-24.080	-0.137	0.081
-353.537	-150.819	-0.160	0.012
-352.523	1.213	0.173	0.123
-351.508	-88.464	-0.132	0.039
-350.493	-147.938	0.284	-0.023
-349.479	276.369	0.068	-0.120
-348.464	-47.019	-0.135	-0.066
-347.450	72.297	0.223	0.230
-346.435	227.391	-0.261	0.421
-345.420	103.563	0.033	0.039
-344.406	151.893	-0.224	0.302
-343.391	-72.012	0.090	0.033
-342.377	800.000	0.233	-0.686
-341.362	-84.602	0.295	-0.092
-340.348	106.354	-0.099	-0.116
-339.333	800.000	-0.023	0.067
-338.318	800.000	-0.066	0.252
-337.304	478.316	-0.124	0.279
-336.289	-200.000	-0.057	0.279
-335.275	419.772	0.140	0.298
-334.260	800.000	-0.111	-0.323
-333.245	-31.215	-0.309	-0.173
-332.231	-200.000	0.001	0.133
-331.216	800.000	-0.059	-0.214
-330.202	-72.295	0.060	-0.022
-329.187	166.232	-0.072	-0.101
-328.172	-69.362	0.226	-0.086
-327.158	-127.594	-0.121	0.017
-326.143	-113.218	0.399	-0.078
-325.129	101.309	-0.131	-0.151
-324.114	-200.000	-0.097	0.463
-323.099	-50.415	-0.278	0.130
-322.085	-110.266	-0.075	0.015
-321.070	800.000	0.088	-0.296
-320.056	165.454	-0.056	-0.078
-319.041	-199.540	0.199	0.001
-318.026	-174.196	-0.258	0.007
-317.012	-27.515	0.165	-0.095
-315.997	-51.373	-0.197	0.091
-314.983	164.735	-0.191	-0.266
-313.968	-192.427	-0.384	0.004
-312.953	-200.000	-0.070	-0.364
-311.939	631.654	-0.060	-0.151
-310.924	-103.935	-0.325	0.075
-309.910	-123.876	0.113	0.018
-308.895	-165.163	-0.027	0.001
-307.880	-200.000	0.033	0.172
-306.866	-200.000	-0.067	0.353
-305.851	122.948	0.127	0.157
-304.837	-170.619	-0.295	-0.010
-303.822	-200.000	-0.009	-0.104
-302.807	-36.948	0.247	-0.131
-301.793	-27.188	0.416	-0.240
-300.778	280.304	-0.117	0.206
-299.764	-200.000	-0.018	0.246
-298.749	-200.000	-0.031	0.236
-297.735	-64.755	-0.200	-0.080
-296.720	-158.507	0.208	0.012
-295.705	96.538	-0.102	0.115
-294.691	-200.000	0.299	0.001
-293.676	-89.927	-0.138	-0.040
-292.662	26.142	-0.348	-0.287
-291.647	56.697	0.006	-0.006
-290.632	385.635	0.052	0.107
-289.618	276.389	-0.145	0.255
-288.603	389.365	0.148	0.303
-287.589	-41.162	-0.253	0.129
-286.574	-200.000	-0.032	-0.217
-285.559	8.869	0.128	-0.096
-284.545	276.632	-0.056	0.099
-283.530	-200.000	-0.021	0.178
-282.516	180.058	0.016	-0.023
-281.501	-102.173	-0.274	-0.065
-280.486	-200.000	0.001	0.238
-279.472	-1.480	0.186	0.130
-278.457	800.000	-0.113	-0.392
-277.443	-34.493	-0.112	0.061
-276.428	-76.290	-0.201	0.070
-275.413	-20.618	-0.228	-0.139
-274.399	-72.347	0.246	-0.090
-273.384	83.465	-0.216	0.233
-272.370	477.042	0.116	-0.260
-271.355	800.000	0.061	-0.166
-270.340	-113.648	0.170	-0.033
-269.326	26.273	-0.183	-0.151
-268.311	256.572	0.068	0.115
-267.297	12.349	-0.325	-0.247
-266.282	-186.629	0.331	-0.005
-265.267	540.185	0.079	-0.186
-264.253	-76.922	0.135	0.046
-263.238	-22.094	-0.105	0.063
-262.224	-52.152	0.119	0.054
-261.209	477.510	-0.044	-0.098
-260.195	-106.588	-0.199	0.044
-259.180	-117.335	0.168	-0.030
-258.165	-34.318	0.169	0.092
-257.151	-200.000	-0.002	-0.024
-256.136	267.522	-0.086	-0.149
-255.122	800.000	-0.049	-0.211
-254.107	36.930	0.032	0.028
-253.092	-0.311	-0.221	0.155
-252.078	797.381	-0.093	-0.253
-251.063	14.104	-0.029	0.022
-250.049	496.208	0.193	-0.439
-249.034	-11.729	-0.157	0.102
-248.019	-97.164	-0.320	0.083
-247.005	253.958	0.143	-0.241
-245.990	-148.756	0.213	0.017
-244.976	-200.000	0.033	-0.196
-243.961	-41.103	-0.153	-0.078
-242.946	-200.000	-0.051	-0.362
-241.932	197.088	0.086	-0.129
-240.917	-166.046	-0.237	0.010
-239.903	662.646	-0.113	0.287
-238.888	-200.000	0.060	-0.413
-237.873	-94.829	-0.147	-0.039
-236.859	482.219	0.065	0.145
-235.844	27.508	0.074	-0.061
-234.830	-200.000	0.009	0.279
-233.815	-61.640	-0.217	0.090
-232.800	-179.496	0.206	0.004
-231.786	800.000	0.058	-0.184
-230.771	-94.916	0.139	0.037
-229.757	-189.984	0.280	0.003
-228.742	800.000	-0.104	0.380
-227.727	800.000	0.055	-0.217
-226.713	-200.000	-0.032	0.259
-225.698	-17.647	0.302	-0.187
-224.684	-168.563	-0.447	0.017
-223.669	-116.349	0.328	-0.060
-222.655	-78.509	0.370	0.125
-221.640	192.263	0.114	-0.170
-220.625	-46.129	0.110	-0.054
-219.611	-200.000	0.017	0.297
-218.596	285.153	0.156	-0.277
-217.582	77.609	-0.181	-0.190
-216.567	-31.832	-0.198	-0.110
-215.552	-169.412	-0.165	-0.006
-214.538	54.258	-0.196	-0.186
-213.523	-78.434	0.247	0.083
-212.509	-86.891	0.237	-0.071
-211.494	-200.000	0.043	-0.201
-210.479	-108.017	-0.050	-0.011
-209.465	-200.000	0.013	0.126
-208.450	-47.181	0.150	-0.072
-207.436	-200.000	0.022	-0.144
-206.421	-29.608	0.403	0.227
-205.406	-200.000	-0.029	0.212
-204.392	6.673	-0.256	0.188
-203.377	-134.571	-0.111	-0.013
-202.363	-112.397	0.257	0.051
-201.348	-112.694	0.089	0.017
-200.333	-102.540	0.281	-0.066
-199.319	-157.677	-0.208	-0.012
-198.304	202.995	-0.181	0.275
-197.290	-200.000	-0.024	-0.175
-196.275	-42.424	-0.261	0.131
-195.260	-26.410	-0.027	-0.015
-194.246	-200.000	-0.029	-0.441
-193.231	-200.000	0.032	0.269
-192.217	-79.796	0.308	-0.102
-191.202	-200.000	-0.009	-0.149
-190.187	227.247	-0.075	0.120
-189.173	90.040	-0.205	-0.225
-188.158	-52.534	0.300	0.137
-187.144	-200.000	0.027	-0.197
-186.129	-200.000	-0.003	-0.138
-185.114	36.785	0.107	-0.093
-184.100	-11.411	0.180	0.116
-183.085	-200.000	-0.061	-0.368
-182.071	-78.938	0.290	0.097
-181.056	-200.000	-0.034	0.438
-180.042	411.036	0.180	0.375
-179.027	-97.739	0.031	0.008
-178.012	94.694	0.127	0.142
-176.998	566.813	0.057	0.135
-175.983	-82.142	0.102	-0.033
-174.969	-63.591	0.170	-0.069
-173.954	-47.850	-0.138	-0.066
-172.939	-69.066	0.381	-0.144
-171.925	-200.000	0.003	0.167
-170.910	354.075	-0.220	0.431
-169.896	-200.000	-0.020	-0.167
-168.881	100.538	-0.054	-0.061
-167.866	-51.352	-0.141	0.065
-166.852	545.690	-0.060	-0.142
-165.837	109.168	0.088	0.103
-164.823	485.257	0.099	0.223
-163.808	800.000	-0.044	0.123
-162.793	800.000	-0.037	0.112
-161.779	-99.030	-0.262	-0.065
-160.764	-200.000	0.007	0.193
-159.750	49.934	0.098	-0.091
-158.735	133.699	-0.159	-0.203
-157.720	97.281	0.126	0.142
-156.706	-106.802	-0.173	-0.038
-155.691	-8.622	0.255	0.168
-154.677	-107.038	-0.366	0.079
-153.662	-152.841	-0.288	0.020
-152.647	-200.000	0.025	-0.140
-151.633	314.580	0.022	-0.041
-150.618	130.385	-0.068	0.085
-149.604	248.403	0.265	0.441
-148.589	59.850	-0.146	0.142
-147.574	-11.668	0.147	0.095
-146.560	-200.000	-0.040	0.261
-145.545	-157.274	0.295	-0.018
-144.531	562.087	-0.113	-0.268
-143.516	614.750	-0.062	0.152
-142.502	-46.871	0.294	0.141
-141.487	277.354	0.196	-0.343
-140.472	588.715	-0.077	0.186
-139.458	326.847	0.266	0.502
-138.443	117.296	0.124	0.150
-137.429	-48.652	-0.432	-0.204
-136.414	155.792	0.111	0.151
-135.399	-97.684	-0.133	0.034
-134.385	81.560	0.181	-0.193
-133.370	-200.000	-0.018	-0.112
-132.356	-0.227	0.101	-0.070
-131.341	-130.716	-0.098	0.013
-130.326	-73.092	0.275	0.099
-129.312	108.682	-0.093	-0.109
-128.297	385.726	-0.011	-0.023
-127.283	282.413	0.125	0.221
-126.268	16.159	0.199	-0.154
-125.253	-166.514	0.203	0.008
-124.239	155.744	0.185	-0.250
-123.224	-78.039	0.124	-0.042
-122.210	-200.000	0.036	0.206
-121.195	69.933	-0.119	0.120
-120.180	360.406	0.062	0.122
-119.166	-136.588	-0.150	-0.017
-118.151	274.602	-0.049	0.085
-117.137	-82.347	-0.261	0.083
-116.122	9.861	0.160	-0.119
-115.107	-200.000	0.033	0.333
-114.093	-42.479	-0.161	0.081
-113.078	-89.578	-0.220	0.063
-112.064	800.000	-0.055	0.233
-111.049	-200.000	0.003	0.057
-110.034	145.523	0.288	0.379
-109.020	-2.879	-0.237	0.163
-108.005	-163.717	0.167	0.008
-106.991	-172.051	-0.220	-0.007
-105.976	45.006	-0.239	-0.216
-104.962	-200.000	0.084	-0.401
-103.947	-200.000	0.008	-0.127
-102.932	-200.000	-0.050	0.256
-101.918	-1.621	0.152	-0.105
-100.903	-79.489	0.161	-0.053
-99.889	174.676	0.149	0.211
-98.874	415.696	-0.145	-0.304
-97.859	169.845	-0.212	-0.298
-96.845	-200.000	-0.058	-0.250
-95.830	-82.529	0.154	0.049
-94.816	671.360	0.075	0.191
-93.801	-74.773	0.146	-0.051
-92.786	385.846	0.134	-0.271
-91.772	-30.363	-0.276	-0.154
-90.757	-108.899	-0.323	0.068
-89.743	-34.093	-0.128	-0.069
-88.728	-132.357	-0.365	-0.046
-87.713	29.119	0.196	0.163
-86.699	800.000	-0.085	-0.252
-85.684	-200.000	-0.014	0.309
-84.670	230.038	0.133	-0.214
-83.655	123.125	-0.288	-0.354
-82.640	800.000	-0.061	-0.230
-81.626	643.558	0.052	0.129
-80.611	-19.220	-0.273	-0.166
-79.597	-30.742	-0.172	-0.095
-78.582	30.827	0.157	-0.132
-77.567	-149.926	-0.060	-0.005
-76.553	12.704	-0.191	0.144
-75.538	-200.000	0.016	-0.202
-74.524	-142.657	0.212	0.020
-73.509	101.954	-0.158	0.181
-72.494	-200.000	-0.050	-0.223
-71.480	-65.509	0.096	0.038
-70.465	-87.125	0.118	0.035
-69.451	-3.428	0.142	0.097
-68.436	59.078	0.060	0.058
-67.422	317.034	0.095	0.175
-66.407	800.000	0.035	0.126
-65.392	72.146	0.202	-0.206
-64.378	231.362	-0.101	-0.163
-63.363	66.011	0.090	0.090
-62.349	-153.052	-0.129	0.009
-61.334	12.353	-0.965	-0.728
-60.319	671.717	0.274	0.696
-59.305	-200.000	-0.231	-1.116
-58.290	112.721	0.909	1.078
-57.276	257.167	0.804	1.354
-56.261	-200.000	108.900	658.232
-55.246	500.859	1478.772	3343.246
-54.232	150.776	2644.786	3521.374
-53.217	110.560	2139.455	2519.578
-52.203	41.559	1598.826	1417.970
-51.188	33.277	1345.060	1143.094
-50.173	30.181	1306.246	1091.868
-49.159	58.746	1358.883	1307.546
-48.144	59.292	1374.039	1325.327
-47.130	33.628	1330.676	1132.788
-46.115	29.851	1313.641	1095.924
-45.100	29.752	1308.690	1091.165
-44.086	29.564	1306.615	1088.285
-43.071	29.653	1304.173	1086.728
-42.057	29.632	1301.994	1084.748
-41.042	29.566	1300.261	1082.876
-40.027	29.571	1298.746	1081.599
-39.013	29.637	1297.029	1080.511
-37.998	29.606	1295.271	1078.824
-36.984	29.673	1293.502	1077.699
-35.969	29.648	1291.876	1076.154
-34.954	29.683	1290.109	1074.845
-33.940	29.743	1289.217	1074.405
-32.925	29.891	1287.482	1073.779
-31.911	29.846	1286.118	1072.337
-30.896	29.887	1284.624	1071.287
-29.881	29.869	1283.275	1070.014
-28.867	29.836	1281.979	1068.699
-27.852	29.908	1280.549	1067.882
-26.838	29.989	1278.758	1066.810
-25.823	29.842	1277.848	1065.162
-24.809	29.775	1276.799	1063.862
-23.794	29.778	1275.370	1062.646
-22.779	29.851	1273.929	1061.823
-21.765	29.946	1272.457	1061.096
-20.750	29.769	1271.277	1059.057
-19.736	29.839	1270.018	1058.368
-18.721	29.651	1269.228	1056.590
-17.706	29.840	1267.271	1055.998
-16.692	29.726	1266.437	1054.611
-15.677	29.748	1265.276	1053.731
-14.663	29.735	1263.937	1052.500
-13.648	29.722	1263.023	1051.623
-12.633	29.741	1262.660	1051.385
-11.619	29.554	1262.183	1049.883
-10.604	29.797	1260.535	1049.849
-9.590	29.749	1259.409	1048.596
-8.575	29.793	1258.561	1048.102
-7.560	29.713	1257.966	1047.108
-6.546	29.736	1257.012	1046.404
-5.531	29.747	1256.010	1045.594
-4.517	29.596	1255.545	1044.310
-3.502	29.731	1254.203	1043.912
-2.487	29.645	1253.926	1043.153
-1.473	29.465	1249.125	1038.111
-0.458	27.333	1233.038	1012.845
0.556	21.221	1214.021	966.755
1.571	16.457	1218.089	943.378
2.586	15.224	1232.448	947.452
3.600	14.947	1220.779	936.847
4.615	10.976	1150.574	861.893
5.629	3.912	1077.317	771.799
6.644	0.462	1058.543	741.351
7.659	0.091	1056.003	737.686
8.673	0.106	1055.331	737.223
9.688	0.162	1053.914	736.446
10.702	0.350	1051.776	735.802
11.717	4.534	1056.751	759.707
12.731	12.007	1066.704	803.557
13.746	16.433	1071.924	829.181
14.761	16.910	1072.103	831.586
15.775	16.087	1070.145	825.965
16.790	15.096	1068.280	819.604
17.804	14.390	1067.034	815.119
18.819	14.103	1065.927	812.800
19.834	13.948	1064.736	811.063
20.848	13.537	1063.770	808.250
21.863	13.430	1062.825	806.940
22.877	13.186	1062.525	805.452
23.892	13.154	1061.680	804.583
24.907	13.197	1060.650	803.939
25.921	13.168	1060.159	803.355
26.936	13.209	1059.467	802.960
27.950	13.254	1058.401	802.298
28.965	13.301	1057.233	801.572
29.980	13.402	1055.832	800.927
30.994	13.434	1054.699	800.150
32.009	13.478	1053.704	799.539
33.023	13.294	1053.053	798.086
34.038	13.460	1051.904	797.945
35.053	13.226	1051.364	796.337
36.067	13.372	1049.969	795.911
37.082	13.450	1049.073	795.536
38.096	13.417	1048.838	795.131
39.111	13.497	1047.558	794.474
40.126	13.278	1046.914	792.862
41.140	13.124	1045.861	791.259
42.155	13.197	1044.321	790.373
43.169	13.106	1043.879	789.533
44.184	13.138	1042.640	788.680
45.199	13.103	1041.717	787.747
46.213	13.310	1040.402	787.667
47.228	13.282	1039.595	786.851
48.242	13.270	1038.483	785.883
49.257	13.187	1037.309	784.531
50.271	13.281	1036.416	784.233
51.286	13.328	1035.905	784.000
52.301	13.358	1034.804	783.242
53.315	13.270	1033.627	781.865
54.330	13.204	1032.601	780.705
55.344	13.378	1031.517	780.639
56.359	13.232	1030.557	779.156
57.374	13.245	1029.986	778.716
58.388	13.255	1028.974	777.928
59.403	13.183	1028.221	776.951
60.417	13.211	1027.130	776.192
61.432	13.222	1026.411	775.631
62.447	13.166	1025.432	774.557
63.461	13.138	1024.755	773.847
64.476	13.117	1024.046	773.145
65.490	13.045	1023.328	772.198
66.505	13.180	1022.703	772.288
67.520	13.164	1021.847	771.501
68.534	13.229	1021.266	771.294
69.549	13.156	1020.435	770.258
70.563	13.149	1019.487	769.445
71.578	13.004	1019.460	768.680
72.593	13.076	1018.106	767.925
73.607	13.098	1017.215	767.289
74.622	13.046	1016.811	766.676
75.636	13.112	1016.086	766.367
76.651	12.980	1015.807	765.473
77.666	12.986	1014.822	764.695
78.680	12.979	1014.373	764.254
79.695	13.043	1013.568	763.875
80.709	12.982	1013.221	763.264
81.724	13.279	1011.949	763.612
82.739	13.242	1011.203	762.813
83.753	13.217	1011.262	762.671
84.768	13.328	1009.663	761.911
85.782	13.364	1009.053	761.548
86.797	13.292	1008.298	760.579
87.812	13.196	1007.010	759.100
88.826	13.246	1006.022	758.516
89.841	13.314	1005.383	758.280
90.855	13.313	1004.411	757.475
91.870	13.452	1003.662	757.481
92.884	13.307	1003.177	756.384
93.899	13.339	1002.190	755.718
94.914	13.432	1001.287	755.395
95.928	13.417	1000.617	754.756
96.943	13.420	999.657	753.975
97.957	13.319	999.065	753.006
98.972	13.412	997.867	752.460
99.987	13.434	997.216	751.999
101.001	13.407	995.976	750.877
102.016	13.428	994.947	750.128
103.030	13.378	994.619	749.590
104.045	13.355	993.723	748.742
105.060	13.499	992.822	748.650
106.074	13.340	991.612	746.950
107.089	13.166	990.827	745.511
108.103	13.259	989.659	744.984
109.118	13.229	989.116	744.375
110.133	13.309	988.101	743.905
111.147	13.226	987.230	742.808
112.162	13.147	986.745	742.023
113.176	13.246	986.038	741.873
114.191	13.355	985.144	741.621
115.206	13.319	984.461	740.881
116.220	13.335	983.617	740.252
117.235	13.247	982.860	739.224
118.249	13.254	981.753	738.357
119.264	13.282	980.879	737.758
120.279	13.384	979.920	737.428
121.293	13.215	979.570	736.348
122.308	13.176	978.646	735.411
123.322	13.156	977.320	734.263
124.337	13.208	976.437	733.764
125.352	13.346	974.766	733.055
126.366	13.331	973.941	732.303
127.381	13.266	972.951	731.207
128.395	13.251	972.188	730.502
129.410	13.415	970.836	730.144
130.424	13.395	970.139	729.471
131.439	13.359	969.385	728.678
132.454	13.433	968.885	728.564
133.468	13.300	968.135	727.352
134.483	13.340	966.861	726.506
135.497	13.354	965.949	725.818
136.512	13.477	965.194	725.726
137.527	13.418	964.558	724.925
138.541	13.406	963.749	724.200
139.556	13.371	963.284	723.631
140.570	13.556	962.348	723.674
141.585	13.450	961.508	722.515
142.600	13.391	960.569	721.490
143.614	13.514	959.578	721.214
144.629	13.544	959.010	720.854
145.643	13.495	958.396	720.116
146.658	13.543	957.090	719.279
147.673	13.465	956.152	718.175
148.687	13.528	955.268	717.718
149.702	13.591	954.428	717.299
150.716	13.411	953.751	715.945
151.731	13.526	952.894	715.737
152.746	13.408	952.502	714.870
153.760	13.515	952.291	715.110
154.775	13.614	950.942	714.461
155.789	13.576	950.301	713.752
156.804	13.572	949.829	713.316
157.819	13.524	949.144	712.532
158.833	13.651	948.390	712.451
159.848	13.568	947.731	711.537
160.862	13.619	947.192	711.288
161.877	13.592	945.599	709.912
162.892	13.585	944.625	709.086
163.906	13.546	944.063	708.436
164.921	13.479	943.389	707.581
165.935	13.577	942.352	707.159
166.950	13.605	941.814	706.811
167.964	13.684	940.965	706.448
168.979	13.637	939.784	705.300
169.994	13.574	939.270	704.587
171.008	13.737	938.559	704.680
172.023	13.625	937.457	703.316
173.037	13.720	936.671	703.067
174.052	13.767	935.863	702.597
175.067	13.616	935.407	701.554
176.081	13.635	935.036	701.295
177.096	13.665	934.506	700.961
178.110	13.775	933.715	700.770
179.125	13.729	933.607	700.432
180.140	13.808	932.272	699.705
181.154	13.789	931.981	699.345
182.169	13.787	931.615	698.997
183.183	13.852	931.353	699.015
184.198	13.840	930.303	698.112
185.213	13.854	929.657	697.623
186.227	13.847	928.856	696.931
187.242	13.967	927.851	696.622
188.256	14.019	927.822	696.757
189.271	13.972	926.523	695.522
190.286	13.838	926.102	694.582
191.300	13.796	925.507	693.899
192.315	13.761	924.838	693.189
193.329	13.731	924.809	692.981
194.344	13.924	923.743	692.925
195.359	13.935	922.662	692.101
196.373	13.977	921.963	691.689
197.388	14.116	921.635	691.960
198.402	13.927	921.921	691.327
199.417	14.019	921.204	691.111
200.432	14.142	920.261	690.853
201.446	14.080	919.828	690.212
202.461	14.193	919.315	690.235
203.475	14.215	918.231	689.450
204.490	14.151	917.708	688.730
205.504	14.122	917.393	688.315
206.519	14.196	916.504	687.891
207.534	14.150	915.670	687.015
208.548	14.118	915.224	686.486
209.563	14.373	914.205	686.713
210.577	14.177	913.928	685.637
211.592	14.233	913.173	685.238
212.607	14.443	912.128	685.259
213.621	14.281	911.618	684.149
214.636	14.326	911.167	683.936
215.650	14.347	910.429	683.405
216.665	14.221	909.892	682.427
217.680	14.545	908.873	682.928
218.694	14.507	908.086	682.124
219.709	14.323	907.765	681.069
220.723	14.384	907.046	680.717
221.738	14.431	906.098	680.136
222.753	14.324	905.668	679.317
223.767	14.566	904.794	679.588
224.782	14.461	904.124	678.595
225.796	14.632	903.739	678.944
226.811	14.412	903.310	677.669
227.826	14.555	902.519	677.593
228.840	14.434	902.128	676.748
229.855	14.486	900.877	675.962
230.869	14.408	900.100	675.005
231.884	14.513	899.744	675.100
232.899	14.481	898.775	674.184
233.913	14.496	898.002	673.608
234.928	14.426	897.247	672.698
235.942	14.379	897.405	672.567
236.957	14.455	896.635	672.237
237.972	14.544	895.804	671.914
238.986	14.524	895.101	671.244
240.001	14.493	894.890	670.905
241.015	14.551	894.334	670.659
242.030	14.488	893.433	669.673
243.045	14.585	892.908	669.611
244.059	14.525	892.209	668.787
245.074	14.669	891.333	668.647
246.088	14.658	891.125	668.389
247.103	14.643	890.194	667.570
248.117	14.831	889.642	667.848
249.132	14.797	889.130	667.270
250.147	14.793	888.385	666.637
251.161	14.834	887.874	666.354
252.176	14.870	887.230	665.957
253.190	14.993	886.270	665.666
254.205	15.000	886.017	665.445
255.220	15.002	885.347	664.891
256.234	14.976	884.893	664.390
257.249	14.880	884.318	663.518
258.263	15.045	883.338	663.377
259.278	15.098	882.494	662.893
260.293	14.893	882.044	661.686
261.307	15.067	881.159	661.651
262.322	15.072	880.865	661.394
263.336	15.203	880.146	661.310
264.351	15.129	879.530	660.499
265.366	15.126	879.160	660.148
266.380	15.257	878.183	659.873
267.395	15.141	877.567	658.895
268.409	15.203	876.798	658.505
269.424	15.200	876.198	657.983
270.439	15.157	875.078	656.917
271.453	15.263	874.931	657.163
272.468	15.075	874.496	656.042
273.482	15.253	873.729	656.105
274.497	15.181	873.070	655.269
275.512	15.321	872.450	655.292
276.526	15.392	871.668	654.924
277.541	15.336	871.486	654.511
278.555	15.493	870.467	654.303
279.570	15.407	870.321	653.799
280.585	15.406	869.557	653.162
281.599	15.352	868.419	652.041
282.614	15.446	868.326	652.278
283.628	15.345	867.694	651.354
284.643	15.511	866.968	651.393
285.657	15.409	866.608	650.670
286.672	15.528	865.746	650.427
287.687	15.381	865.361	649.512
288.701	15.332	864.742	648.798
289.716	15.536	863.933	648.922
290.730	15.638	863.157	648.677
291.745	15.639	862.620	648.221
292.760	15.589	861.785	647.344
293.774	15.625	861.700	647.361
294.789	15.655	860.797	646.739
295.803	15.496	860.411	645.779
296.818	15.510	859.862	645.365
297.833	15.598	859.097	645.073
298.847	15.474	858.664	644.215
299.862	15.664	857.693	644.155
300.876	15.759	856.962	643.913
301.891	15.583	856.788	643.055
302.906	15.745	855.999	643.022
303.920	15.829	855.645	643.021
304.935	15.857	854.602	642.288
305.949	15.833	854.658	642.180
306.964	15.769	853.768	641.214
307.979	15.853	852.941	640.852
308.993	15.778	852.681	640.315
310.008	15.829	852.244	640.126
311.022	15.927	851.321	639.749
312.037	15.806	850.866	638.892
313.052	15.905	850.106	638.640
314.066	15.771	849.618	637.706
315.081	15.747	849.229	637.268
316.095	15.665	848.633	636.455
317.110	15.692	848.312	636.259
318.125	15.825	847.695	636.243
319.139	15.913	847.002	635.997
320.154	15.926	846.613	635.701
321.168	15.893	845.988	635.050
322.183	16.023	845.269	634.944
323.197	16.007	844.745	634.434
324.212	16.089	844.395	634.423
325.227	15.959	843.680	633.340
326.241	15.873	843.470	632.805
327.256	15.947	842.574	632.355
328.270	15.915	842.018	631.761
329.285	15.970	841.633	631.620
330.300	15.936	841.109	631.045
331.314	16.147	840.183	631.083
332.329	16.106	840.124	630.831
333.343	15.993	839.892	630.179
334.358	15.966	839.467	629.703
335.373	16.061	838.926	629.595
336.387	16.137	838.875	629.784
337.402	16.114	838.318	629.227
338.416	16.239	837.497	629.019
339.431	16.092	837.627	628.512
340.446	16.372	837.087	629.094
341.460	16.308	836.458	628.328
342.475	16.266	836.430	628.096
343.489	16.232	835.650	627.328
344.504	16.316	835.165	627.221
345.519	16.394	834.782	627.168
346.533	16.460	834.061	626.813
347.548	16.436	833.462	626.222
348.562	16.348	832.685	625.256
349.577	16.344	832.079	624.730
350.592	16.345	831.737	624.422
351.606	16.418	830.836	623.962
352.621	16.307	830.548	623.278
353.635	16.329	830.044	622.927
354.650	16.501	829.143	622.828
355.665	16.569	828.342	622.423
356.679	16.482	827.843	621.671
357.694	16.455	827.079	620.945
358.708	16.472	826.796	620.741
359.723	16.566	826.398	620.729
360.738	16.482	825.809	619.926
361.752	16.620	824.935	619.719
362.767	16.569	824.481	619.136
363.781	16.605	823.969	618.829
364.796	16.658	823.578	618.674
365.810	16.686	823.211	618.448
366.825	16.726	822.945	618.338
367.840	16.693	822.419	617.768
368.854	16.657	822.050	617.303
369.869	16.574	821.564	616.584
370.883	16.648	821.198	616.525
371.898	16.871	820.693	616.901
372.913	16.819	820.236	616.314
373.927	16.814	819.841	615.945
374.942	16.775	819.688	615.634
375.956	16.714	819.186	614.982
376.971	16.869	818.532	614.996
377.986	16.895	818.176	614.770
379.000	16.930	817.535	614.361
380.015	16.903	817.216	613.968
381.029	17.013	816.599	613.851
382.044	16.964	816.093	613.237
383.059	17.105	815.033	612.894
384.073	17.052	814.718	612.412
385.088	16.984	814.184	611.714
386.102	17.061	813.729	611.593
387.117	16.946	813.170	610.706
388.132	17.044	812.285	610.338
389.146	16.937	812.158	609.806
390.161	17.054	811.411	609.612
391.175	17.157	810.807	609.472
392.190	17.116	810.368	608.942
393.205	17.141	809.843	608.584
394.219	17.072	809.542	608.055
395.234	17.140	809.183	607.977
396.248	17.114	809.049	607.728
397.263	16.933	808.828	606.862
398.278	17.072	808.097	606.753
399.292	17.074	807.491	606.252
400.307	16.898	807.193	605.346
401.321	17.076	806.918	605.722
402.336	16.942	806.532	604.901
403.350	17.110	805.737	604.850
404.365	17.222	805.191	604.786
405.380	17.356	804.461	604.660
406.394	17.155	804.393	603.842
407.409	17.237	804.328	604.029
408.423	17.308	803.456	603.573
409.438	17.293	803.488	603.492
410.453	17.384	802.648	603.129
411.467	17.379	802.042	602.604
412.482	17.439	801.921	602.671
413.496	17.460	801.411	602.308
414.511	17.467	801.280	602.182
415.526	17.369	800.999	601.570
416.540	17.510	800.291	601.484
417.555	17.476	799.467	600.692
418.569	17.525	799.155	600.577
419.584	17.555	798.692	600.281
420.599	17.591	798.703	600.364
421.613	111.152	1293.831	1473.415
422.628	95.704	1365.921	1473.497
