DTS Sentinel unit serial number:	SN413079Multiplexer serial number:	ORYXHardware model number:	OX4-SRSoftware version number:	ORYX F/W v4.00 Oryx Data Collector v3.7.2.0data status	okinstallation	princeton_trtdifferential loss correction	single-endedforward channel	channel 1reverse channel	N/Adate	2019/09/16time	07:50:35forward acquisition time	60.00reverse acquisition time	0.00gamma	496.2192k internal	0.2327k external	0.2327temperature offset calibration	0.9980default loss term (dB/km)	0.3790temperature slope calibration	1.0000multiplexer offset coefficient	1.0000multiplexer slope coefficient	1.0000fibre end	0.00T internal ref (°C)	28.19T ext. ref 1 (°C)	11.71T ext. ref 2 (°C)	24.68length (m)	temperature (°C)	Stokes	anti-Stokes-747.200	800.000	0.044	-0.174
-746.185	800.000	-0.027	0.120
-745.171	-200.000	-0.027	-0.179
-744.156	800.000	-0.060	0.235
-743.142	-37.193	0.338	0.182
-742.127	21.851	0.367	0.301
-741.112	-55.349	0.060	-0.027
-740.098	-66.463	-0.051	0.020
-739.083	207.672	0.043	0.068
-738.069	-92.751	-0.121	-0.034
-737.054	-156.557	-0.228	-0.014
-736.039	-16.921	-0.259	-0.165
-735.025	-54.274	0.240	0.110
-734.010	-37.829	-0.208	0.112
-732.996	-105.942	-0.110	-0.025
-731.981	-168.536	-0.034	0.001
-730.966	582.370	-0.028	-0.069
-729.952	197.459	-0.069	-0.105
-728.937	800.000	-0.046	0.196
-727.923	-10.340	-0.110	-0.073
-726.908	800.000	0.060	0.257
-725.894	480.457	0.111	-0.254
-724.879	-64.323	0.298	-0.122
-723.864	-81.199	-0.101	0.034
-722.850	51.909	-0.276	0.264
-721.835	402.505	-0.120	-0.255
-720.821	364.185	-0.091	0.184
-719.806	-200.000	0.071	0.455
-718.791	-126.292	-0.179	-0.027
-717.777	-36.575	-0.422	0.229
-716.762	-100.359	0.366	0.091
-715.748	800.000	0.062	-0.184
-714.733	159.876	-0.309	-0.434
-713.718	-200.000	-0.021	0.241
-712.704	-200.000	0.020	-0.133
-711.689	-200.000	-0.040	0.464
-710.675	121.603	0.116	0.145
-709.660	-146.470	-0.108	-0.010
-708.645	-200.000	-0.041	0.217
-707.631	100.202	0.144	-0.168
-706.616	453.327	0.055	0.123
-705.602	-17.459	-0.248	0.157
-704.587	-200.000	0.015	-0.136
-703.572	-103.084	0.237	0.056
-702.558	800.000	-0.110	-0.317
-701.543	-86.413	0.170	-0.053
-700.529	-160.561	-0.222	-0.012
-699.514	371.066	0.055	-0.113
-698.499	185.149	-0.040	-0.059
-697.485	-200.000	0.037	0.179
-696.470	-200.000	-0.034	-0.351
-695.456	-200.000	-0.073	-0.389
-694.441	-200.000	0.016	0.076
-693.426	-13.688	0.156	0.102
-692.412	-13.836	-0.302	-0.196
-691.397	-96.590	-0.084	-0.022
-690.383	128.688	-0.147	-0.189
-689.368	353.727	-0.104	-0.208
-688.354	-200.000	0.005	0.088
-687.339	-85.526	0.632	-0.198
-686.324	-81.818	-0.628	-0.207
-685.310	-200.000	-0.042	0.343
-684.295	-143.684	-0.230	0.022
-683.281	-38.984	-0.430	-0.228
-682.266	800.000	-0.162	-0.497
-681.251	800.000	0.024	-0.105
-680.237	123.988	-0.198	-0.250
-679.222	-200.000	-0.035	-0.295
-678.208	255.020	-0.149	0.256
-677.193	-62.873	-0.307	-0.128
-676.178	-70.161	-0.242	-0.092
-675.164	-17.649	0.168	-0.106
-674.149	41.154	0.110	-0.100
-673.135	800.000	-0.100	0.357
-672.120	143.881	0.100	0.133
-671.105	-77.973	-0.518	0.179
-670.091	335.723	-0.123	-0.240
-669.076	-11.777	0.160	-0.105
-668.062	-154.678	-0.183	-0.012
-667.047	603.586	0.048	0.120
-666.032	-61.424	0.137	0.058
-665.018	82.134	-0.068	0.074
-664.003	678.807	-0.068	-0.177
-662.989	-110.617	0.048	0.010
-661.974	-200.000	-0.039	0.255
-660.959	-200.000	-0.014	-0.316
-659.945	-62.362	0.175	0.073
-658.930	-72.707	0.221	0.082
-657.916	-131.115	-0.415	-0.055
-656.901	458.312	0.094	0.210
-655.886	-34.155	-0.065	0.036
-654.872	-175.443	0.228	-0.006
-653.857	291.715	-0.157	0.287
-652.843	800.000	-0.075	0.213
-651.828	194.905	0.130	-0.197
-650.814	-107.836	0.402	-0.088
-649.799	-200.000	-0.010	-0.334
-648.784	209.003	0.084	0.133
-647.770	-47.118	-0.368	0.180
-646.755	800.000	-0.061	-0.224
-645.741	-100.641	-0.088	-0.022
-644.726	256.773	0.194	0.335
-643.711	266.643	0.026	-0.046
-642.697	341.636	-0.176	0.345
-641.682	-200.000	0.017	0.131
-640.668	21.748	0.114	-0.093
-639.653	-119.336	-0.147	0.026
-638.638	-35.200	0.056	0.030
-637.624	-34.322	0.242	-0.133
-636.609	800.000	-0.063	-0.203
-635.595	24.652	0.344	-0.286
-634.580	30.459	0.142	-0.122
-633.565	-100.176	0.202	0.050
-632.551	-42.234	-0.175	-0.090
-631.536	-200.000	-0.011	0.262
-630.522	3.124	-0.064	-0.047
-629.507	137.549	-0.131	-0.172
-628.492	152.441	0.291	0.398
-627.478	-103.717	-0.316	0.074
-626.463	-200.000	0.008	-0.127
-625.449	-4.237	-0.117	-0.081
-624.434	-34.890	-0.145	-0.079
-623.419	-200.000	0.000	0.032
-622.405	-96.073	-0.208	0.056
-621.390	52.195	-0.190	-0.182
-620.376	-52.877	-0.139	-0.064
-619.361	-16.680	-0.146	0.093
-618.346	82.371	-0.297	-0.324
-617.332	-84.712	0.040	-0.013
-616.317	-26.969	-0.208	0.122
-615.303	-187.446	-0.511	-0.007
-614.288	53.953	-0.111	-0.107
-613.273	-46.819	-0.138	0.068
-612.259	-200.000	-0.036	0.207
-611.244	222.822	0.161	-0.260
-610.230	102.614	-0.226	0.265
-609.215	-141.023	0.128	0.013
-608.201	81.204	0.118	-0.128
-607.186	-138.911	0.226	0.025
-606.171	149.612	-0.244	-0.331
-605.157	189.684	-0.070	-0.105
-604.142	-200.000	0.015	0.128
-603.128	-33.046	-0.142	0.079
-602.113	68.752	0.155	-0.159
-601.098	261.079	-0.028	-0.048
-600.084	130.372	-0.131	0.168
-599.069	379.692	-0.165	0.339
-598.055	442.635	0.026	-0.057
-597.040	69.198	-0.212	0.219
-596.025	133.622	-0.252	0.327
-595.011	-200.000	0.013	0.345
-593.996	-200.000	-0.025	0.264
-592.982	-87.956	-0.303	0.091
-591.967	69.197	0.127	0.131
-590.952	405.410	0.094	-0.198
-589.938	319.831	0.057	-0.108
-588.923	626.831	0.022	0.056
-587.909	800.000	-0.046	-0.156
-586.894	-77.612	-0.128	0.044
-585.879	-189.883	-0.224	-0.003
-584.865	51.414	0.091	-0.087
-583.850	-70.041	0.446	-0.170
-582.836	-21.451	0.389	0.238
-581.821	278.325	-0.150	-0.267
-580.806	-14.705	-0.258	-0.166
-579.792	89.951	0.066	-0.074
-578.777	-7.636	0.240	0.162
-577.763	114.436	0.161	-0.196
-576.748	-29.341	-0.180	-0.103
-575.733	-152.026	-0.181	-0.013
-574.719	-22.690	0.135	0.082
-573.704	56.416	0.295	-0.287
-572.690	19.751	-0.037	0.030
-571.675	-200.000	0.036	0.182
-570.661	241.587	0.138	0.231
-569.646	115.387	0.187	-0.229
-568.631	-200.000	0.004	-0.114
-567.617	-1.229	0.148	-0.105
-566.602	-122.965	-0.311	-0.050
-565.588	421.024	0.120	0.258
-564.573	-8.071	0.401	0.270
-563.558	-200.000	0.024	0.233
-562.544	-200.000	0.049	0.229
-561.529	-123.052	-0.082	0.013
-560.515	-70.416	0.191	0.072
-559.500	-200.000	0.004	-0.128
-558.485	-200.000	-0.035	0.229
-557.471	800.000	0.023	-0.091
-556.456	109.019	0.005	-0.007
-555.442	-200.000	-0.036	0.198
-554.427	-20.920	-0.369	0.226
-553.412	-35.447	0.046	0.025
-552.398	-47.237	0.151	-0.073
-551.383	800.000	-0.082	0.261
-550.369	800.000	-0.045	0.179
-549.354	800.000	-0.065	-0.204
-548.339	800.000	0.078	-0.253
-547.325	692.770	-0.075	-0.196
-546.310	-160.397	-0.169	-0.009
-545.296	-127.280	0.166	0.024
-544.281	42.155	-0.133	0.121
-543.266	-51.119	-0.113	0.053
-542.252	-56.178	-0.152	0.068
-541.237	-38.179	0.275	-0.146
-540.223	342.005	0.039	-0.077
-539.208	-200.000	0.025	0.124
-538.193	-185.244	0.089	-0.001
-537.179	-163.618	0.145	-0.007
-536.164	-200.000	-0.040	0.302
-535.150	-200.000	0.056	-0.270
-534.135	-196.915	-0.165	-0.001
-533.121	-180.800	-0.183	-0.004
-532.106	-194.064	-0.302	0.002
-531.091	124.531	0.203	0.255
-530.077	-38.613	-0.251	-0.132
-529.062	147.090	-0.148	-0.199
-528.048	-14.276	0.291	0.187
-527.033	170.198	-0.150	0.214
-526.018	102.849	-0.138	0.161
-525.004	-120.576	0.540	0.092
-523.989	20.590	-0.299	-0.242
-522.975	800.000	-0.079	0.346
-521.960	-60.304	-0.307	-0.131
-520.945	-54.686	-0.083	-0.037
-519.931	-22.916	-0.157	-0.094
-518.916	800.000	-0.109	0.464
-517.902	83.918	0.069	-0.076
-516.887	391.316	0.132	-0.274
-515.872	203.631	0.075	-0.116
-514.858	-142.541	0.168	0.016
-513.843	378.193	0.080	-0.164
-512.829	-60.925	0.293	-0.124
-511.814	800.000	0.011	0.040
-510.799	86.293	-0.047	0.052
-509.785	565.868	0.073	0.177
-508.770	-200.000	0.003	-0.069
-507.756	347.946	0.071	0.140
-506.741	91.392	0.240	0.270
-505.726	800.000	-0.028	-0.093
-504.712	49.062	-0.156	-0.146
-503.697	143.493	-0.062	-0.082
-502.683	-72.867	0.369	0.135
-501.668	-200.000	-0.035	0.511
-500.653	225.391	-0.116	0.188
-499.639	122.920	-0.022	0.028
-498.624	800.000	-0.106	0.376
-497.610	-82.521	-0.020	0.006
-496.595	800.000	-0.096	-0.331
-495.581	54.752	0.260	-0.251
-494.566	-63.816	-0.361	0.148
-493.551	112.061	0.175	0.211
-492.537	-42.340	-0.173	-0.088
-491.522	-126.609	0.035	0.005
-490.508	665.029	-0.123	0.318
-489.493	-28.249	-0.362	-0.208
-488.478	-56.943	-0.397	-0.175
-487.464	239.640	-0.024	-0.039
-486.449	-110.142	0.116	-0.024
-485.435	633.572	-0.059	0.149
-484.420	-41.041	0.102	-0.052
-483.405	-200.000	-0.009	-0.100
-482.391	598.322	-0.032	-0.078
-481.376	79.857	0.228	-0.244
-480.362	125.595	-0.083	-0.105
-479.347	137.743	-0.105	0.137
-478.332	-200.000	0.003	-0.020
-477.318	30.545	-0.128	0.109
-476.303	-102.764	-0.472	0.112
-475.289	54.885	0.273	0.263
-474.274	-127.165	0.309	0.045
-473.259	-200.000	-0.012	-0.199
-472.245	-85.435	0.120	-0.037
-471.230	-68.306	0.255	0.099
-470.216	243.284	-0.088	-0.148
-469.201	764.737	0.070	0.190
-468.186	-71.047	-0.065	0.024
-467.172	-82.281	0.239	-0.078
-466.157	216.518	0.059	-0.094
-465.143	-43.084	0.241	0.122
-464.128	201.896	0.185	0.284
-463.113	-144.786	0.440	-0.040
-462.099	599.663	-0.140	-0.347
-461.084	30.988	-0.069	-0.059
-460.070	-200.000	0.027	0.225
-459.055	-68.056	0.052	0.020
-458.040	800.000	-0.063	0.183
-457.026	-200.000	0.023	-0.207
-456.011	-134.170	-0.263	0.032
-454.997	800.000	0.118	-0.351
-453.982	-48.204	0.112	-0.054
-452.968	-55.124	-0.110	0.049
-451.953	107.651	0.167	0.199
-450.938	670.113	-0.055	0.142
-449.924	284.205	0.200	-0.359
-448.909	156.505	-0.079	0.108
-447.895	188.317	0.128	0.191
-446.880	687.253	0.078	-0.202
-445.865	800.000	0.063	0.195
-444.851	191.582	0.177	0.265
-443.836	387.719	-0.153	0.314
-442.822	255.727	0.061	-0.104
-441.807	247.387	-0.122	-0.205
-440.792	68.520	-0.185	0.189
-439.778	-184.474	-0.147	-0.002
-438.763	-70.532	-0.189	0.071
-437.749	158.913	0.030	-0.041
-436.734	14.964	-0.194	-0.151
-435.719	332.580	0.144	0.276
-434.705	-142.479	-0.482	0.047
-433.690	-197.673	0.246	-0.001
-432.676	124.825	-0.127	-0.159
-431.661	126.284	0.234	0.295
-430.646	107.815	-0.113	-0.134
-429.632	-46.342	0.209	0.102
-428.617	-118.376	-0.156	0.028
-427.603	-145.404	-0.088	0.008
-426.588	-200.000	0.017	-0.188
-425.573	-200.000	-0.039	-0.197
-424.559	800.000	-0.059	-0.194
-423.544	14.222	0.216	0.168
-422.530	-200.000	-0.005	0.415
-421.515	800.000	-0.103	0.425
-420.500	-108.638	0.105	-0.022
-419.486	-113.507	0.216	-0.042
-418.471	-44.867	-0.217	0.108
-417.457	-61.560	-0.337	0.141
-416.442	-0.876	0.088	0.062
-415.428	-7.695	-0.040	0.027
-414.413	-74.654	-0.208	0.074
-413.398	-153.683	-0.137	-0.009
-412.384	-0.796	-0.184	-0.130
-411.369	-51.553	0.135	-0.063
-410.355	714.188	-0.122	-0.323
-409.340	14.559	0.043	0.033
-408.325	474.985	0.149	0.334
-407.311	227.558	0.120	-0.195
-406.296	-200.000	0.013	-0.116
-405.282	-105.955	0.432	0.097
-404.267	800.000	-0.131	-0.362
-403.252	180.383	-0.092	0.134
-402.238	401.185	-0.163	-0.339
-401.223	244.157	-0.076	-0.127
-400.209	-83.715	0.200	-0.063
-399.194	32.194	-0.137	-0.118
-398.179	-120.959	0.316	0.053
-397.165	-58.911	-0.225	0.097
-396.150	-200.000	0.021	-0.100
-395.136	70.104	0.197	0.202
-394.121	800.000	-0.005	0.021
-393.106	-125.592	0.216	-0.033
-392.092	42.708	0.088	-0.079
-391.077	-126.259	-0.357	0.053
-390.063	-50.003	-0.302	0.142
-389.048	-200.000	0.081	-0.370
-388.033	-55.539	0.090	0.040
-387.019	20.001	0.037	0.030
-386.004	59.509	-0.243	-0.238
-384.990	-108.273	0.513	-0.110
-383.975	-171.836	0.303	-0.010
-382.960	-122.154	-0.191	0.031
-381.946	325.520	-0.118	-0.225
-380.931	800.000	-0.118	-0.368
-379.917	-122.991	0.126	-0.020
-378.902	-200.000	0.001	0.039
-377.888	162.281	0.267	0.372
-376.873	-137.031	0.093	0.011
-375.858	-200.000	0.029	-0.209
-374.844	121.136	0.176	-0.218
-373.829	25.273	-0.133	-0.110
-372.815	-200.000	0.000	0.130
-371.800	251.635	0.259	-0.439
-370.785	-120.474	-0.088	-0.015
-369.771	-32.757	0.114	-0.063
-368.756	-200.000	0.006	0.166
-367.742	-200.000	-0.048	-0.285
-366.727	800.000	-0.085	-0.362
-365.712	173.751	-0.096	0.137
-364.698	-119.469	-0.155	0.027
-363.683	302.719	-0.101	0.186
-362.669	58.355	-0.142	-0.139
-361.654	217.923	0.113	0.179
-360.639	-34.840	-0.322	0.175
-359.625	-73.658	-0.052	-0.019
-358.610	-143.372	0.127	-0.012
-357.596	-200.000	-0.034	-0.322
-356.581	-200.000	0.008	-0.068
-355.566	800.000	0.058	0.168
-354.552	-200.000	0.019	-0.261
-353.537	-50.813	0.194	0.090
-352.523	71.883	-0.146	0.151
-351.508	27.540	0.066	-0.055
-350.493	124.883	0.113	-0.141
-349.479	-104.915	0.183	-0.042
-348.464	-54.254	0.101	-0.045
-347.450	-14.702	0.249	-0.159
-346.435	-82.524	0.287	-0.092
-345.420	-200.000	-0.001	-0.110
-344.406	-84.149	-0.145	0.046
-343.391	800.000	-0.087	0.257
-342.377	131.858	0.070	-0.089
-341.362	115.389	0.124	0.150
-340.348	-200.000	-0.058	-0.508
-339.333	10.171	-0.262	-0.198
-338.318	-28.910	-0.359	-0.205
-337.304	84.780	0.150	-0.163
-336.289	-47.704	0.237	0.114
-335.275	800.000	0.041	0.134
-334.260	334.199	0.031	-0.060
-333.245	-25.327	0.286	-0.168
-332.231	32.902	0.286	-0.246
-331.216	-9.523	-0.195	0.129
-330.202	-200.000	-0.035	0.263
-329.187	-182.295	-0.235	-0.004
-328.172	-47.710	0.124	-0.060
-327.158	-200.000	0.012	0.218
-326.143	68.427	-0.036	-0.037
-325.129	35.056	-0.077	0.067
-324.114	-53.404	0.441	-0.200
-323.099	6.076	0.207	-0.152
-322.085	456.586	-0.029	0.063
-321.070	800.000	0.041	0.131
-320.056	-200.000	0.006	0.081
-319.041	-200.000	0.033	-0.247
-318.026	-18.158	-0.294	0.182
-317.012	-63.178	0.254	0.104
-315.997	151.298	-0.201	0.271
-314.983	-96.326	-0.328	0.086
-313.968	75.339	-0.140	-0.146
-312.953	497.795	0.019	-0.044
-311.939	-42.743	0.221	0.112
-310.924	-45.470	0.205	-0.101
-309.910	-113.611	0.081	0.016
-308.895	53.603	0.142	-0.135
-307.880	-88.467	0.253	-0.075
-306.866	113.671	-0.101	-0.122
-305.851	95.143	-0.206	0.232
-304.837	-200.000	0.029	-0.243
-303.822	-123.393	-0.232	0.037
-302.807	429.121	-0.069	0.148
-301.793	-87.615	0.172	0.051
-300.778	-200.000	-0.021	0.152
-299.764	65.584	0.048	0.048
-298.749	52.733	-0.117	-0.110
-297.735	-144.375	0.023	-0.002
-296.720	-56.803	0.159	-0.069
-295.705	73.249	0.161	0.167
-294.691	-200.000	0.002	0.114
-293.676	351.529	-0.084	0.165
-292.662	-188.316	0.164	0.002
-291.647	-96.482	0.011	-0.003
-290.632	-200.000	-0.014	-0.307
-289.618	728.420	-0.086	0.226
-288.603	-171.092	0.291	0.010
-287.589	-109.590	-0.167	0.035
-286.574	-200.000	0.011	0.316
-285.559	-142.491	-0.289	-0.028
-284.545	-200.000	-0.004	-0.130
-283.530	800.000	-0.021	-0.068
-282.516	-200.000	-0.042	-0.311
-281.501	-188.331	0.108	-0.001
-280.486	-200.000	-0.004	-0.136
-279.472	-67.258	0.092	-0.036
-278.457	-104.384	-0.111	-0.025
-277.443	-38.434	0.107	0.056
-276.428	-31.233	-0.175	0.097
-275.413	435.565	0.074	-0.159
-274.399	-200.000	-0.035	-0.304
-273.384	122.907	0.130	-0.160
-272.370	161.860	0.028	-0.039
-271.355	251.299	-0.182	-0.306
-270.340	-84.548	0.146	-0.045
-269.326	-138.932	-0.180	-0.019
-268.311	64.309	0.048	0.048
-267.297	168.116	0.188	-0.265
-266.282	333.065	-0.125	-0.238
-265.267	52.079	0.178	-0.168
-264.253	800.000	-0.038	-0.154
-263.238	0.190	0.085	0.060
-262.224	-200.000	0.021	0.187
-261.209	25.830	0.299	0.247
-260.195	-200.000	-0.032	-0.189
-259.180	-71.019	0.184	0.068
-258.165	132.074	0.066	-0.085
-257.151	534.003	0.058	-0.136
-256.136	360.690	-0.179	0.354
-255.122	666.854	-0.121	0.308
-254.107	-118.603	-0.100	0.017
-253.092	17.471	-0.213	-0.167
-252.078	-43.305	0.208	-0.104
-251.063	52.939	-0.167	-0.158
-250.049	29.178	-0.248	-0.208
-249.034	121.764	0.140	0.173
-248.019	121.424	-0.156	0.193
-247.005	229.630	-0.222	0.359
-245.990	-200.000	-0.090	-0.401
-244.976	-200.000	0.001	-0.140
-243.961	-34.509	0.370	-0.200
-242.946	505.496	0.125	0.286
-241.932	533.076	0.100	-0.234
-240.917	-115.949	-0.174	-0.032
-239.903	341.577	-0.202	-0.391
-238.888	-200.000	-0.035	-0.250
-237.873	81.087	0.085	-0.091
-236.859	125.781	-0.182	-0.227
-235.844	-200.000	-0.056	-0.262
-234.830	504.346	-0.075	-0.172
-233.815	-200.000	-0.006	0.169
-232.800	-200.000	-0.026	-0.224
-231.786	-200.000	0.024	0.243
-230.771	-53.360	-0.344	-0.156
-229.757	221.290	0.143	0.227
-228.742	-79.322	-0.187	0.063
-227.727	800.000	0.058	-0.177
-226.713	-61.928	-0.235	0.097
-225.698	173.142	0.112	-0.160
-224.684	-21.984	-0.041	-0.025
-223.669	34.374	-0.191	0.164
-222.655	800.000	-0.061	0.226
-221.640	159.116	0.245	0.337
-220.625	-30.413	-0.330	0.185
-219.611	82.886	-0.109	-0.117
-218.596	32.628	0.182	-0.155
-217.582	-157.133	-0.203	-0.012
-216.567	356.464	0.212	-0.417
-215.552	-13.105	-0.185	0.119
-214.538	-61.568	-0.216	0.089
-213.523	119.335	-0.211	-0.258
-212.509	-62.620	-0.232	0.095
-211.494	-200.000	0.050	0.286
-210.479	800.000	-0.065	-0.196
-209.465	-200.000	-0.015	0.492
-208.450	236.068	0.124	0.202
-207.436	-73.918	-0.328	-0.118
-206.421	133.879	0.119	-0.152
-205.406	24.329	0.139	-0.114
-204.392	-200.000	-0.006	0.068
-203.377	37.330	0.129	-0.113
-202.363	296.481	0.084	-0.152
-201.348	-200.000	0.012	0.282
-200.333	65.451	-0.213	-0.213
-199.319	242.810	-0.142	-0.235
-198.304	139.666	0.168	-0.218
-197.290	-131.464	0.259	0.034
-196.275	-115.680	-0.289	-0.053
-195.260	175.209	0.144	0.206
-194.246	-141.839	0.594	0.059
-193.231	-92.047	0.293	-0.082
-192.217	-94.452	-0.181	0.049
-191.202	-200.000	-0.005	0.118
-190.187	120.946	-0.131	-0.161
-189.173	-173.852	0.182	0.005
-188.158	-35.343	-0.051	0.027
-187.144	-200.000	-0.066	0.318
-186.129	114.284	0.110	0.133
-185.114	142.975	0.197	0.258
-184.100	-10.005	0.302	-0.198
-183.085	-69.863	-0.191	-0.072
-182.071	-119.699	-0.236	0.040
-181.056	184.803	-0.056	0.082
-180.042	188.550	0.198	0.292
-179.027	27.393	0.224	0.186
-178.012	25.493	0.126	0.103
-176.998	15.289	-0.150	-0.116
-175.983	-37.252	-0.109	0.057
-174.969	620.539	-0.066	-0.165
-173.954	-54.581	-0.105	-0.047
-172.939	-200.000	0.010	0.049
-171.925	-177.872	0.364	0.009
-170.910	16.183	0.382	0.297
-169.896	38.829	-0.051	-0.045
-168.881	-13.482	0.227	0.145
-167.866	800.000	-0.072	0.287
-166.852	-22.328	0.063	0.038
-165.837	5.876	0.110	0.080
-164.823	-200.000	-0.028	0.161
-163.808	-142.508	0.040	0.004
-162.793	-46.151	0.187	-0.091
-161.779	-129.536	-0.119	-0.016
-160.764	459.197	-0.049	0.108
-159.750	346.262	0.104	-0.202
-158.735	25.073	0.262	0.215
-157.720	110.008	-0.257	-0.304
-156.706	-12.909	-0.092	-0.059
-155.691	-134.220	-0.094	0.011
-154.677	800.000	-0.058	0.161
-153.662	800.000	-0.057	0.241
-152.647	185.553	0.127	0.186
-151.633	-166.632	0.170	0.007
-150.618	115.185	0.196	0.235
-149.604	-200.000	-0.002	0.030
-148.589	355.276	-0.056	0.109
-147.574	189.537	0.115	-0.170
-146.560	320.607	-0.076	-0.141
-145.545	160.291	-0.195	-0.268
-144.531	-20.265	-0.108	-0.065
-143.516	-50.633	-0.155	0.072
-142.502	800.000	0.017	-0.054
-141.487	-118.976	0.340	-0.059
-140.472	-183.524	0.234	0.004
-139.458	-11.580	-0.011	0.007
-138.443	-111.582	-0.216	0.043
-137.429	38.464	0.398	0.349
-136.414	-14.167	-0.224	-0.143
-135.399	-200.000	-0.019	-0.219
-134.385	197.438	-0.137	0.205
-133.370	-57.882	-0.288	-0.124
-132.356	-51.536	0.232	0.106
-131.341	18.268	-0.177	-0.139
-130.326	42.978	0.123	0.111
-129.312	-200.000	-0.025	0.134
-128.297	-200.000	0.003	0.117
-127.283	329.600	0.141	0.267
-126.268	-54.318	0.278	-0.124
-125.253	-35.639	0.254	0.135
-124.239	-200.000	0.043	-0.239
-123.224	51.156	-0.069	0.065
-122.210	216.967	-0.172	0.270
-121.195	800.000	0.120	0.453
-120.180	371.156	0.213	-0.425
-119.166	-200.000	0.041	0.178
-118.151	-69.049	-0.146	0.055
-117.137	-200.000	-0.003	0.024
-116.122	-147.617	0.348	0.029
-115.107	-33.484	-0.290	-0.158
-114.093	-152.390	0.323	0.023
-113.078	156.303	0.094	0.128
-112.064	760.828	0.081	0.216
-111.049	-200.000	0.035	0.207
-110.034	67.462	-0.227	0.228
-109.020	427.409	0.037	0.078
-108.005	-131.538	0.216	0.028
-106.991	-121.806	-0.298	-0.048
-105.976	800.000	-0.093	0.331
-104.962	-186.888	0.207	-0.003
-103.947	1.862	0.235	0.167
-102.932	-200.000	-0.071	0.503
-101.918	374.181	-0.093	0.185
-100.903	13.656	0.174	0.133
-99.889	-4.419	-0.186	0.126
-98.874	213.564	-0.031	0.049
-97.859	18.890	0.075	-0.059
-96.845	-200.000	0.015	0.121
-95.830	450.205	0.067	-0.146
-94.816	-123.438	0.179	-0.028
-93.801	-41.294	-0.200	-0.101
-92.786	-109.313	0.113	-0.023
-91.772	-200.000	0.008	0.120
-90.757	307.219	0.120	0.220
-89.743	-132.205	0.118	-0.015
-88.728	800.000	-0.022	-0.094
-87.713	288.370	0.040	-0.071
-86.699	800.000	0.042	0.127
-85.684	800.000	-0.147	-0.409
-84.670	-49.453	-0.353	-0.166
-83.655	344.847	0.171	-0.330
-82.640	-120.256	-0.115	0.019
-81.626	-45.784	-0.220	0.107
-80.611	-19.298	-0.157	0.096
-79.597	30.838	-0.159	-0.134
-78.582	800.000	0.057	0.246
-77.567	-200.000	0.003	0.173
-76.553	60.544	-0.157	-0.153
-75.538	800.000	-0.011	-0.036
-74.524	56.528	0.092	-0.088
-73.509	196.646	-0.090	-0.135
-72.494	-105.863	0.182	0.040
-71.480	572.048	0.084	0.200
-70.465	43.299	-0.062	-0.055
-69.451	70.025	-0.394	0.399
-68.436	-17.081	0.169	0.105
-67.422	-14.996	-0.073	-0.046
-66.407	-70.030	0.199	-0.074
-65.392	-128.913	0.355	0.049
-64.378	-200.000	0.010	-0.114
-63.363	-200.000	0.257	-0.000
-62.349	-200.000	-0.091	0.412
-61.334	25.461	-0.964	-0.787
-60.319	84.374	0.521	0.559
-59.305	800.000	-0.326	-1.391
-58.290	562.251	0.529	1.256
-57.276	-200.000	0.170	1.567
-56.261	-200.000	109.922	596.543
-55.246	433.102	1511.760	3219.091
-54.232	143.838	2692.162	3520.943
-53.217	103.103	2168.263	2492.871
-52.203	39.380	1611.502	1415.850
-51.188	31.622	1352.888	1141.509
-50.173	28.565	1313.909	1090.438
-49.159	53.279	1368.957	1286.727
-48.144	53.329	1384.072	1301.180
-47.130	31.745	1339.540	1130.811
-46.115	28.353	1321.406	1095.219
-45.100	28.162	1316.945	1090.340
-44.086	28.086	1314.510	1087.827
-43.071	27.974	1312.154	1085.169
-42.057	28.075	1309.479	1083.516
-41.042	28.044	1307.961	1082.032
-40.027	28.155	1306.196	1081.184
-39.013	28.062	1304.317	1079.037
-37.998	28.080	1302.495	1077.591
-36.984	28.152	1300.790	1076.565
-35.969	28.224	1299.082	1075.532
-34.954	28.221	1297.173	1073.890
-33.940	28.181	1295.585	1072.296
-32.925	28.345	1294.565	1072.372
-31.911	28.273	1293.248	1070.815
-30.896	28.280	1291.791	1069.608
-29.881	28.355	1290.721	1069.118
-28.867	28.230	1289.407	1067.260
-27.852	28.296	1287.615	1066.117
-26.838	28.329	1286.118	1065.027
-25.823	28.332	1285.122	1064.177
-24.809	28.211	1284.019	1062.517
-23.794	28.278	1282.359	1061.491
-22.779	28.226	1281.110	1060.117
-21.765	28.305	1279.652	1059.325
-20.750	28.337	1278.298	1058.343
-19.736	28.152	1277.062	1056.210
-18.721	28.145	1275.763	1055.055
-17.706	27.997	1275.129	1053.637
-16.692	28.164	1273.369	1053.102
-15.677	28.166	1272.520	1052.370
-14.663	28.210	1271.239	1051.519
-13.648	28.128	1270.506	1050.399
-12.633	28.115	1269.635	1049.566
-11.619	28.176	1268.985	1049.337
-10.604	28.106	1268.760	1048.705
-9.590	28.127	1267.053	1047.372
-8.575	28.125	1265.871	1046.343
-7.560	28.082	1265.054	1045.384
-6.546	28.110	1264.550	1045.086
-5.531	28.072	1263.660	1044.090
-4.517	28.087	1262.480	1043.158
-3.502	28.105	1261.888	1042.730
-2.487	28.094	1260.800	1041.728
-1.473	28.154	1256.555	1038.518
-0.458	27.133	1241.809	1020.560
0.556	22.813	1225.892	986.919
1.571	19.516	1233.070	974.041
2.586	18.813	1248.632	982.225
3.600	18.871	1237.550	973.750
4.615	17.035	1171.001	911.454
5.629	13.603	1103.415	841.375
6.644	11.857	1086.068	819.343
7.659	11.756	1084.004	817.208
8.673	11.607	1083.139	815.741
9.688	11.610	1081.528	814.472
10.702	11.887	1079.295	814.094
11.717	14.101	1081.758	826.901
12.731	17.110	1085.419	844.615
13.746	18.141	1086.422	850.455
14.761	17.676	1085.077	847.014
15.775	16.745	1083.021	840.716
16.790	15.531	1081.367	833.339
17.804	14.855	1079.318	828.333
18.819	14.391	1078.215	825.116
19.834	14.171	1077.153	823.146
20.848	13.981	1075.947	821.212
21.863	13.718	1075.066	819.165
22.877	13.559	1074.802	818.106
23.892	13.466	1073.742	816.770
24.907	13.452	1073.196	816.211
25.921	13.575	1072.068	815.890
26.936	13.642	1070.784	815.170
27.950	13.668	1069.288	814.084
28.965	13.554	1068.287	812.693
29.980	13.721	1066.404	812.007
30.994	13.863	1065.324	811.805
32.009	13.861	1064.278	810.929
33.023	13.761	1063.116	809.484
34.038	13.691	1062.244	808.404
35.053	13.529	1061.291	806.821
36.067	13.673	1060.547	806.883
37.082	13.690	1059.820	806.343
38.096	13.821	1058.450	805.863
39.111	13.791	1058.094	805.376
40.126	13.658	1056.950	803.787
41.140	13.613	1055.873	802.684
42.155	13.452	1054.476	800.770
43.169	13.422	1053.457	799.782
44.184	13.455	1052.668	799.270
45.199	13.523	1051.345	798.521
46.213	13.529	1050.398	797.761
47.228	13.719	1049.108	797.627
48.242	13.663	1048.406	796.752
49.257	13.649	1047.240	795.729
50.271	13.594	1046.684	794.972
51.286	13.751	1045.136	794.478
52.301	13.650	1044.391	793.356
53.315	13.707	1043.374	792.789
54.330	13.567	1042.308	791.239
55.344	13.641	1041.028	790.548
56.359	13.616	1040.308	789.813
57.374	13.515	1039.515	788.661
58.388	13.470	1038.553	787.647
59.403	13.559	1037.568	787.253
60.417	13.343	1037.028	785.747
61.432	13.455	1035.948	785.393
62.447	13.416	1035.125	784.512
63.461	13.434	1034.153	783.791
64.476	13.384	1033.608	783.074
65.490	13.542	1032.431	782.858
66.505	13.432	1031.961	781.916
67.520	13.559	1031.198	781.867
68.534	13.483	1031.016	781.302
69.549	13.422	1029.813	780.034
70.563	13.369	1029.430	779.425
71.578	13.434	1028.329	778.826
72.593	13.404	1027.202	777.761
73.607	13.398	1026.704	777.286
74.622	13.328	1026.139	776.463
75.636	13.411	1025.108	776.003
76.651	13.447	1024.406	775.573
77.666	13.314	1024.091	774.642
78.680	13.512	1022.806	774.530
79.695	13.394	1022.674	773.806
80.709	13.516	1021.998	773.798
81.724	13.535	1021.418	773.377
82.739	13.524	1020.791	772.787
83.753	13.586	1019.877	772.311
84.768	13.801	1018.575	772.261
85.782	13.787	1017.957	771.657
86.797	13.790	1017.093	770.947
87.812	13.690	1016.222	769.757
88.826	13.576	1015.433	768.560
89.841	13.583	1014.449	767.782
90.855	13.771	1013.457	767.835
91.870	13.727	1012.575	766.894
92.884	13.785	1011.519	766.291
93.899	13.902	1010.356	765.884
94.914	13.872	1009.948	765.367
95.928	13.794	1009.208	764.382
96.943	13.874	1007.970	763.743
97.957	13.699	1007.225	762.307
98.972	13.733	1006.562	761.896
99.987	13.775	1005.508	761.223
101.001	13.803	1004.593	760.591
102.016	13.688	1004.063	759.594
103.030	13.779	1002.933	759.089
104.045	13.802	1002.187	758.564
105.060	13.664	1001.467	757.321
106.074	13.595	1000.363	756.101
107.089	13.386	999.753	754.620
108.103	13.468	998.425	753.929
109.118	13.568	997.380	753.525
110.133	13.553	996.616	752.812
111.147	13.561	995.305	751.793
112.162	13.530	995.032	751.378
113.176	13.589	994.032	750.827
114.191	13.759	993.006	750.752
115.206	13.790	992.436	750.395
116.220	13.653	991.701	749.157
117.235	13.533	990.841	747.899
118.249	13.689	989.782	747.735
119.264	13.653	989.217	747.080
120.279	13.595	988.430	746.158
121.293	13.615	987.190	745.244
122.308	13.588	986.356	744.428
123.322	13.439	985.751	743.238
124.337	13.530	984.270	742.462
125.352	13.534	983.424	741.775
126.366	13.603	982.347	741.208
127.381	13.497	981.456	739.996
128.395	13.659	980.516	739.948
129.410	13.613	979.826	739.154
130.424	13.514	979.267	738.227
131.439	13.594	978.344	737.822
132.454	13.786	977.414	737.910
133.468	13.755	976.510	737.024
134.483	13.689	975.688	736.045
135.497	13.636	974.747	735.034
136.512	13.652	974.082	734.540
137.527	13.716	973.060	733.986
138.541	13.687	972.546	733.404
139.556	13.647	971.765	732.573
140.570	13.772	971.127	732.579
141.585	13.728	970.673	731.981
142.600	13.839	969.282	731.354
143.614	13.940	968.410	731.075
144.629	13.827	968.002	730.206
145.643	13.896	966.791	729.532
146.658	13.749	966.316	728.463
147.673	13.752	964.781	727.255
148.687	13.789	964.139	726.868
149.702	13.779	963.298	726.129
150.716	13.680	962.418	724.967
151.731	13.738	961.669	724.593
152.746	13.650	961.359	723.909
153.760	13.803	960.662	723.986
154.775	13.878	959.901	723.679
155.789	13.907	959.207	723.218
156.804	13.954	958.641	722.933
157.819	13.999	957.667	722.329
158.833	13.983	957.376	721.974
159.848	14.095	956.804	721.966
160.862	13.950	955.672	720.420
161.877	13.929	954.690	719.523
162.892	13.779	954.012	718.300
163.906	13.837	952.868	717.628
164.921	13.922	952.243	717.460
165.935	13.926	951.379	716.761
166.950	13.915	950.251	715.800
167.964	14.005	949.143	715.291
168.979	13.896	948.402	714.199
169.994	13.746	947.829	713.062
171.008	13.919	946.878	713.023
172.023	13.967	946.514	712.894
173.037	14.023	945.587	712.373
174.052	13.988	944.678	711.476
175.067	14.059	943.835	711.081
176.081	13.910	943.465	710.103
177.096	13.911	943.017	709.705
178.110	14.031	942.270	709.592
179.125	13.919	942.134	708.952
180.140	14.030	941.609	708.966
181.154	13.999	940.952	708.278
182.169	14.095	940.485	708.269
183.183	14.129	939.484	707.599
184.198	14.167	938.389	706.875
185.213	14.214	937.959	706.686
186.227	14.154	937.514	706.034
187.242	14.205	936.689	705.566
188.256	14.289	936.117	705.428
189.271	14.178	935.447	704.394
190.286	14.158	934.341	703.414
191.300	13.959	933.590	701.942
192.315	13.982	933.052	701.576
193.329	14.022	932.600	701.342
194.344	14.018	931.703	700.588
195.359	14.141	931.097	700.589
196.373	14.172	930.897	700.508
197.388	14.293	930.343	700.538
198.402	14.252	929.456	699.634
199.417	14.447	928.802	699.897
200.432	14.512	928.077	699.564
201.446	14.557	927.858	699.527
202.461	14.477	927.376	698.766
203.475	14.591	926.721	698.686
204.490	14.312	926.257	697.105
205.504	14.480	925.208	696.959
206.519	14.451	924.560	696.288
207.534	14.573	923.487	695.925
208.548	14.496	923.111	695.262
209.563	14.561	922.382	694.920
210.577	14.556	921.587	694.239
211.592	14.495	921.138	693.584
212.607	14.670	920.371	693.676
213.621	14.657	919.401	692.827
214.636	14.645	919.128	692.509
215.650	14.728	918.137	692.048
216.665	14.607	917.431	690.951
217.680	14.762	916.519	690.844
218.694	14.735	916.084	690.346
219.709	14.663	915.528	689.566
220.723	14.642	915.206	689.176
221.738	14.809	914.110	688.978
222.753	14.818	913.542	688.527
223.767	14.733	912.936	687.661
224.782	14.743	912.549	687.350
225.796	14.754	912.431	687.246
226.811	14.797	911.834	686.913
227.826	14.779	910.488	685.762
228.840	14.810	909.475	685.065
229.855	14.741	909.180	684.502
230.869	14.709	908.344	683.680
231.884	14.695	907.744	683.110
232.899	14.699	906.989	682.496
233.913	14.785	906.276	682.252
234.928	14.785	905.239	681.411
235.942	14.741	904.674	680.744
236.957	14.781	904.303	680.569
237.972	14.705	903.619	679.684
238.986	14.761	903.157	679.506
240.001	14.719	902.413	678.715
241.015	14.863	901.555	678.592
242.030	14.846	901.290	678.264
243.045	14.801	900.570	677.480
244.059	14.975	900.107	677.777
245.074	14.927	899.115	676.778
246.088	14.960	898.578	676.447
247.103	14.909	898.487	676.113
248.117	15.105	897.745	676.286
249.132	15.134	897.058	675.824
250.147	15.280	896.467	675.910
251.161	15.295	895.933	675.505
252.176	15.221	895.043	674.478
253.190	15.181	894.380	673.756
254.205	15.382	893.832	674.094
255.220	15.178	893.523	672.982
256.234	15.351	892.575	672.902
257.249	15.357	891.718	672.222
258.263	15.323	891.325	671.730
259.278	15.338	890.485	671.097
260.293	15.349	889.792	670.560
261.307	15.395	889.456	670.428
262.322	15.487	888.701	670.170
263.336	15.516	887.583	669.383
264.351	15.627	886.737	669.126
265.366	15.705	886.335	669.073
266.380	15.662	885.931	668.538
267.395	15.523	885.339	667.479
268.409	15.374	884.719	666.361
269.424	15.316	884.045	665.564
270.439	15.538	883.000	665.599
271.453	15.551	882.273	665.044
272.468	15.570	881.717	664.640
273.482	15.409	880.941	663.361
274.497	15.463	880.728	663.355
275.512	15.585	880.010	663.239
276.526	15.632	879.359	662.872
277.541	15.488	878.970	661.956
278.555	15.583	878.696	662.063
279.570	15.720	877.816	661.882
280.585	15.691	876.809	660.949
281.599	15.663	875.930	660.117
282.614	15.656	875.409	659.641
283.628	15.738	874.928	659.542
284.643	15.767	874.279	659.108
285.657	15.650	873.823	658.247
286.672	15.694	873.432	658.066
287.687	15.694	872.420	657.243
288.701	15.899	871.902	657.596
289.716	15.767	871.397	656.644
290.730	15.750	870.850	656.106
291.745	15.775	869.968	655.479
292.760	15.895	869.293	655.381
293.774	16.061	868.563	655.420
294.789	15.968	868.175	654.706
295.803	15.771	867.848	653.635
296.818	15.801	866.891	652.976
297.833	15.701	866.489	652.227
298.847	15.808	865.852	652.105
299.862	15.865	865.263	651.823
300.876	16.024	864.460	651.774
301.891	16.107	863.821	651.555
302.906	16.066	863.186	650.861
303.920	16.086	862.930	650.689
304.935	16.150	862.245	650.362
305.949	16.018	861.671	649.362
306.964	16.054	861.012	648.947
307.979	16.219	860.254	648.954
308.993	16.194	860.065	648.657
310.008	16.204	859.083	647.898
311.022	16.153	858.750	647.392
312.037	15.913	857.978	645.834
313.052	15.985	857.557	645.735
314.066	16.145	856.771	645.697
315.081	16.050	856.907	645.381
316.095	16.271	855.717	645.273
317.110	16.102	855.258	644.222
318.125	16.111	854.746	643.815
319.139	16.138	854.321	643.541
320.154	16.112	853.938	643.097
321.168	16.156	853.304	642.727
322.183	16.131	852.849	642.235
323.197	16.157	852.296	641.862
324.212	16.238	851.861	641.783
325.227	16.175	851.228	641.010
326.241	16.165	850.271	640.194
327.256	16.163	849.812	639.786
328.270	16.239	849.133	639.504
329.285	16.240	848.961	639.323
330.300	16.315	848.188	638.968
331.314	16.180	847.608	637.965
332.329	16.309	847.335	638.188
333.343	16.321	846.714	637.713
334.358	16.420	846.083	637.552
335.373	16.306	845.608	636.709
336.387	16.360	845.701	636.928
337.402	16.357	845.256	636.525
338.416	16.522	844.998	636.894
339.431	16.513	844.601	636.507
340.446	16.623	843.899	636.334
341.460	16.524	843.704	635.757
342.475	16.539	843.281	635.437
343.489	16.536	842.838	635.037
344.504	16.552	842.314	634.647
345.519	16.675	841.495	634.434
346.533	16.779	840.937	634.347
347.548	16.636	840.737	633.603
348.562	16.590	840.081	632.883
349.577	16.550	839.582	632.301
350.592	16.671	838.501	631.882
351.606	16.637	838.243	631.506
352.621	16.674	837.745	631.211
353.635	16.649	836.664	630.249
354.650	16.607	836.216	629.699
355.665	16.696	835.245	629.245
356.679	16.679	834.999	628.940
357.694	16.864	834.437	629.145
358.708	16.859	833.924	628.686
359.723	16.853	833.099	627.986
360.738	16.732	832.524	627.047
361.752	16.728	832.319	626.825
362.767	16.779	831.575	626.399
363.781	16.912	830.798	626.247
364.796	16.940	831.175	626.580
365.810	16.871	830.574	625.817
366.825	17.110	829.863	626.105
367.840	17.015	829.545	625.462
368.854	16.983	829.057	624.919
369.869	17.026	828.709	624.760
370.883	16.974	827.833	623.853
371.898	17.040	827.631	623.888
372.913	17.111	827.378	623.905
373.927	17.159	826.613	623.448
374.942	17.130	826.588	623.269
375.956	17.168	826.060	622.954
376.971	17.091	825.755	622.387
377.986	17.212	825.043	622.240
379.000	17.200	824.493	621.723
380.015	17.258	823.866	621.408
381.029	17.211	823.356	620.798
382.044	17.220	822.898	620.428
383.059	17.307	821.915	619.952
384.073	17.377	821.656	619.956
385.088	17.260	821.200	619.132
386.102	17.103	820.948	618.315
387.117	17.267	819.676	617.899
388.132	17.288	818.850	617.297
389.146	17.340	818.532	617.191
390.161	17.413	818.352	617.264
391.175	17.263	818.080	616.462
392.190	17.331	817.405	616.145
393.205	17.310	817.304	615.936
394.219	17.320	816.778	615.523
395.234	17.243	816.201	614.755
396.248	17.259	815.460	614.201
397.263	17.277	815.119	613.953
398.278	17.275	815.102	613.879
399.292	17.322	814.588	613.608
400.307	17.353	813.938	613.176
401.321	17.283	813.713	612.701
402.336	17.367	812.707	612.190
403.350	17.400	812.378	612.007
404.365	17.569	811.942	612.232
405.380	17.492	811.653	611.685
406.394	17.489	811.322	611.368
407.409	17.676	810.812	611.600
408.423	17.602	810.403	610.975
409.438	17.681	809.966	610.874
410.453	17.826	809.399	610.910
411.467	17.843	808.846	610.499
412.482	17.706	808.685	609.837
413.496	17.735	808.367	609.645
414.511	17.996	807.363	609.765
415.526	17.785	807.299	608.910
416.540	17.849	806.868	608.760
417.555	17.898	806.373	608.507
418.569	17.817	805.892	607.800
419.584	17.820	805.753	607.654
420.599	17.791	805.297	607.154
421.613	110.581	1293.730	1473.193
422.628	95.374	1364.857	1473.301
