DTS Sentinel unit serial number:	SN413079Multiplexer serial number:	ORYXHardware model number:	OX4-SRSoftware version number:	ORYX F/W v4.00 Oryx Data Collector v3.7.2.0data status	okinstallation	princeton_trtdifferential loss correction	single-endedforward channel	channel 1reverse channel	N/Adate	2019/09/12time	19:15:34forward acquisition time	15.00reverse acquisition time	0.00gamma	496.2192k internal	0.2321k external	0.2321temperature offset calibration	1.0115default loss term (dB/km)	0.3790temperature slope calibration	1.0000multiplexer offset coefficient	1.0000multiplexer slope coefficient	1.0000fibre end	0.00T internal ref (°C)	32.50T ext. ref 1 (°C)	3.20T ext. ref 2 (°C)	27.07length (m)	temperature (°C)	Stokes	anti-Stokes-747.200	-80.573	-0.442	-0.149
-746.185	10.607	0.606	-0.467
-745.171	-53.353	0.132	-0.061
-744.156	-200.000	-0.067	-0.474
-743.142	-200.000	0.146	0.653
-742.127	800.000	-0.122	0.427
-741.112	134.175	-0.169	-0.221
-740.098	6.121	0.094	-0.071
-739.083	151.042	-0.196	0.270
-738.069	-200.000	-0.114	0.904
-737.054	-51.360	-0.925	-0.437
-736.039	-200.000	0.008	0.424
-735.025	-200.000	0.039	0.297
-734.010	-67.516	-0.492	0.195
-732.996	156.040	-0.671	-0.934
-731.981	-111.289	-0.056	0.012
-730.966	-92.937	0.774	-0.218
-729.952	-54.402	-1.071	-0.491
-728.937	-130.549	-0.510	0.070
-727.923	-78.896	-0.279	0.096
-726.908	28.548	-0.209	0.179
-725.894	-53.464	0.237	-0.110
-724.879	-200.000	0.078	0.543
-723.864	233.141	-0.087	0.145
-722.850	-6.173	-0.057	-0.039
-721.835	14.331	-0.155	-0.122
-720.821	-59.025	0.751	-0.327
-719.806	8.697	-0.623	-0.474
-718.791	-83.698	-0.545	-0.176
-717.777	39.446	0.676	0.611
-716.762	-53.795	-0.670	0.309
-715.748	-200.000	-0.114	0.910
-714.733	-70.721	-0.389	-0.148
-713.718	-21.000	-0.244	0.151
-712.704	20.719	-0.477	0.390
-711.689	-200.000	0.074	0.619
-710.675	331.380	-0.172	0.335
-709.660	434.603	0.153	-0.336
-708.645	472.455	0.079	-0.180
-707.631	31.130	-0.129	0.112
-706.616	-200.000	-0.107	0.723
-705.602	800.000	0.228	-0.657
-704.587	-52.224	-0.076	0.036
-703.572	-200.000	-0.032	-0.499
-702.558	-53.951	-0.442	-0.203
-701.543	-70.020	-0.232	0.089
-700.529	-78.829	0.768	0.264
-699.514	-58.074	-0.877	-0.386
-698.499	-33.916	-0.607	-0.337
-697.485	50.297	0.332	-0.317
-696.470	800.000	0.089	-0.313
-695.456	-200.000	0.001	-0.114
-694.441	52.420	0.100	0.096
-693.426	-16.041	0.722	0.463
-692.412	-167.599	-1.447	0.058
-691.397	-164.357	-1.156	-0.053
-690.383	70.527	0.650	-0.678
-689.368	757.466	-0.250	-0.683
-688.354	-200.000	-0.093	0.456
-687.339	-141.012	0.412	-0.043
-686.324	26.007	0.281	0.237
-685.310	99.098	0.393	-0.458
-684.295	163.987	-0.301	-0.427
-683.281	48.789	-0.358	0.339
-682.266	-62.375	-0.126	-0.053
-681.251	222.312	-0.330	0.535
-680.237	405.240	-0.204	-0.433
-679.222	800.000	-0.229	0.715
-678.208	54.914	0.300	0.293
-677.193	-70.976	-0.330	0.125
-676.178	26.221	-0.233	-0.196
-675.164	252.757	0.290	0.498
-674.149	-152.436	-0.730	-0.053
-673.135	-200.000	-0.060	0.686
-672.120	101.687	0.203	0.239
-671.105	342.683	0.109	-0.215
-670.091	306.487	-0.237	-0.445
-669.076	140.154	-0.388	-0.516
-668.062	381.818	-0.141	0.291
-667.047	-139.642	1.187	-0.127
-666.032	580.392	0.164	0.406
-665.018	-107.216	0.606	-0.135
-664.003	593.341	0.060	-0.151
-662.989	-40.191	0.495	-0.260
-661.974	107.492	0.579	-0.694
-660.959	-200.000	-0.044	-0.217
-659.945	-84.190	0.283	0.091
-658.930	-200.000	-0.073	0.392
-657.916	-13.828	0.806	-0.525
-656.901	78.134	0.390	-0.420
-655.886	-71.653	-0.703	0.264
-654.872	-41.312	-0.192	0.100
-653.857	-200.000	0.029	-0.866
-652.843	800.000	-0.170	-0.566
-651.828	9.093	-0.692	0.527
-650.814	-156.607	-0.999	0.062
-649.799	-200.000	-0.103	-0.599
-648.784	360.333	0.403	0.812
-647.770	-85.011	0.422	0.133
-646.755	800.000	0.104	-0.396
-645.741	216.382	0.516	-0.826
-644.726	-200.000	0.049	-0.416
-643.711	800.000	0.202	0.630
-642.697	187.062	0.237	-0.355
-641.682	201.932	-0.306	0.475
-640.668	37.055	0.446	-0.398
-639.653	800.000	0.114	0.341
-638.638	-200.000	0.076	0.419
-637.624	16.479	0.536	0.427
-636.609	-46.329	-0.338	0.167
-635.595	-116.055	0.410	-0.077
-634.580	-85.822	0.429	-0.134
-633.565	134.275	-0.067	-0.087
-632.551	800.000	0.306	0.953
-631.536	492.152	0.257	-0.592
-630.522	-86.705	-0.764	0.235
-629.507	41.804	-0.228	0.208
-628.492	-200.000	0.020	-0.355
-627.478	16.088	-0.313	-0.248
-626.463	-200.000	-0.105	-0.494
-625.449	-83.104	-0.329	0.106
-624.434	-136.471	0.654	0.076
-623.419	13.601	-0.409	0.320
-622.405	-170.211	-0.337	0.012
-621.390	-91.186	0.214	0.062
-620.376	-200.000	0.156	-1.717
-619.361	297.765	-0.114	-0.211
-618.346	-75.739	-0.344	0.123
-617.332	-154.210	-0.337	0.023
-616.317	100.106	0.228	0.266
-615.303	23.674	-0.413	0.342
-614.288	-46.951	0.362	0.178
-613.273	339.096	-0.188	-0.367
-612.259	-200.000	0.038	0.272
-611.244	800.000	-0.202	0.703
-610.230	-200.000	-0.015	0.072
-609.215	-54.411	0.924	-0.421
-608.201	120.401	-0.231	0.288
-607.186	-200.000	-0.051	-0.534
-606.171	-200.000	-0.072	0.493
-605.157	-155.948	-0.336	-0.021
-604.142	-200.000	0.005	-0.925
-603.128	-118.748	-0.484	0.086
-602.113	-56.176	0.710	-0.318
-601.098	75.759	-0.598	-0.635
-600.084	800.000	-0.172	0.497
-599.069	-17.643	0.139	0.088
-598.055	-35.113	-0.550	-0.301
-597.040	454.713	-0.196	-0.436
-596.025	6.270	0.089	-0.066
-595.011	-119.354	-0.908	-0.159
-593.996	71.227	0.230	-0.240
-592.982	-200.000	-0.031	-0.157
-591.967	-99.919	0.917	0.230
-590.952	-104.415	0.727	-0.169
-589.938	-200.000	-0.095	-0.839
-588.923	-40.975	0.232	-0.121
-587.909	233.457	0.063	-0.105
-586.894	324.887	0.466	0.894
-585.879	800.000	0.332	-0.977
-584.865	-92.763	-0.747	-0.210
-583.850	124.890	-0.314	0.397
-582.836	-200.000	0.220	0.976
-581.821	-27.300	0.082	0.048
-580.806	320.454	-0.088	0.169
-579.792	-85.181	0.172	-0.054
-578.777	-81.911	1.027	-0.338
-577.763	290.596	0.371	-0.677
-576.748	-200.000	0.019	-0.176
-575.733	800.000	0.132	-0.407
-574.719	-98.686	0.264	-0.068
-573.704	53.799	-0.487	-0.469
-572.690	77.078	-0.395	0.422
-571.675	-200.000	-0.007	-0.460
-570.661	-29.530	-0.470	0.270
-569.646	800.000	0.087	0.282
-568.631	244.957	-0.349	0.589
-567.617	-15.905	-0.513	0.328
-566.602	-69.933	0.135	-0.052
-565.588	-126.489	-0.327	0.049
-564.573	-77.507	0.418	0.146
-563.558	375.059	-0.258	-0.529
-562.544	355.943	-0.130	0.259
-561.529	-94.280	-0.791	-0.217
-560.515	243.649	0.172	0.290
-559.500	-200.000	0.050	0.704
-558.485	-130.508	-0.147	-0.020
-557.471	-149.029	-0.684	-0.055
-556.456	53.008	0.549	-0.527
-555.442	78.089	0.197	-0.211
-554.427	-31.688	0.651	-0.367
-553.412	-24.141	-0.474	0.284
-552.398	800.000	0.092	0.312
-551.383	68.089	0.221	-0.227
-550.369	-200.000	-0.103	0.475
-549.354	-121.162	-0.370	-0.062
-548.339	-188.646	-0.340	0.004
-547.325	283.772	-0.403	-0.727
-546.310	-123.179	-0.923	0.148
-545.296	-84.780	-0.699	0.221
-544.281	-53.258	0.507	0.233
-543.266	-85.567	-0.639	0.199
-542.252	492.582	-0.382	-0.877
-541.237	-164.260	-0.503	0.023
-540.223	-104.607	0.417	-0.096
-539.208	-131.130	-0.837	-0.112
-538.193	-56.939	-0.608	0.269
-537.179	-200.000	0.195	-1.078
-536.164	-200.000	-0.027	0.363
-535.150	-200.000	-0.035	-0.257
-534.135	-39.466	-0.106	-0.056
-533.121	1.468	0.314	-0.226
-532.106	-200.000	-0.051	0.793
-531.091	-11.862	0.391	0.257
-530.077	-95.704	-0.554	-0.149
-529.062	-177.535	1.036	-0.025
-528.048	6.274	0.489	0.364
-527.033	193.887	-0.071	-0.107
-526.018	800.000	0.290	-0.983
-525.004	-200.000	-0.037	-0.634
-523.989	272.269	0.510	-0.902
-522.975	179.881	0.564	0.829
-521.960	-173.814	0.353	0.010
-520.945	185.072	0.371	-0.551
-519.931	-200.000	-0.130	-0.613
-518.916	-200.000	-0.013	-0.277
-517.902	149.860	-0.254	-0.345
-516.887	-200.000	-0.018	-0.292
-515.872	-111.374	1.186	-0.242
-514.858	24.491	-0.190	-0.158
-513.843	800.000	-0.173	-0.615
-512.829	536.440	0.179	-0.426
-511.814	165.048	0.524	0.741
-510.799	-200.000	0.041	0.715
-509.785	-200.000	-0.058	-0.312
-508.770	-119.087	-1.067	0.187
-507.756	-200.000	0.056	0.890
-506.741	-200.000	-0.115	0.578
-505.726	-58.851	0.716	0.310
-504.712	414.782	-0.338	0.722
-503.697	216.862	0.542	-0.865
-502.683	-82.008	-0.276	-0.090
-501.668	-73.249	-0.520	0.191
-500.653	-200.000	-0.006	-0.501
-499.639	-12.845	0.312	-0.203
-498.624	-103.713	-0.828	-0.194
-497.610	-5.859	-0.392	-0.269
-496.595	-44.631	0.443	-0.222
-495.581	-84.087	0.399	-0.127
-494.566	110.420	0.180	0.216
-493.551	475.448	0.282	-0.636
-492.537	231.304	0.338	-0.555
-491.522	159.268	-0.258	0.359
-490.508	-137.487	0.885	-0.100
-489.493	55.324	0.670	0.648
-488.478	540.344	-0.261	-0.621
-487.464	-86.528	-0.219	-0.067
-486.449	-164.741	0.186	0.008
-485.435	-76.721	-0.246	-0.086
-484.420	-200.000	-0.088	-0.727
-483.405	-9.093	0.519	-0.347
-482.391	562.311	0.346	0.837
-481.376	-69.339	-1.069	-0.411
-480.362	800.000	0.191	-0.692
-479.347	-117.060	0.392	0.071
-478.332	-200.000	-0.004	-0.022
-477.318	483.151	-0.346	-0.787
-476.303	-78.641	0.195	-0.067
-475.289	-200.000	-0.035	0.494
-474.274	-141.143	0.624	-0.064
-473.259	-200.000	0.065	1.094
-472.245	-200.000	0.019	0.750
-471.230	574.090	-0.206	-0.503
-470.216	-200.000	-0.096	-0.562
-469.201	60.997	0.361	0.358
-468.186	-71.125	1.089	0.409
-467.172	2.599	0.708	0.513
-466.157	683.506	0.234	0.611
-465.143	-200.000	0.054	-0.708
-464.128	-14.492	-0.265	-0.170
-463.113	-200.000	0.101	-0.686
-462.099	97.412	-0.552	-0.633
-461.084	270.791	0.431	-0.759
-460.070	133.791	-0.221	-0.286
-459.055	800.000	0.132	-0.455
-458.040	-59.623	0.620	0.266
-457.026	-45.642	0.305	-0.151
-456.011	-46.511	0.426	0.209
-454.997	84.969	0.299	-0.327
-453.982	-200.000	0.134	-0.927
-452.968	-97.436	0.543	0.141
-451.953	157.822	-0.150	0.208
-450.938	800.000	-0.067	-0.214
-449.924	-56.315	1.120	-0.498
-448.909	116.663	-0.238	0.291
-447.895	-19.755	0.494	-0.305
-446.880	-172.909	-0.468	-0.015
-445.865	34.795	-0.279	0.244
-444.851	36.788	0.657	-0.580
-443.836	-69.730	0.286	0.109
-442.822	151.919	-0.717	0.977
-441.807	471.708	-0.241	0.541
-440.792	-148.174	-0.278	0.023
-439.778	243.015	-0.222	-0.371
-438.763	-144.940	-0.313	0.029
-437.749	-7.836	0.467	-0.315
-436.734	119.827	-0.537	0.665
-435.719	77.498	-0.248	-0.263
-434.705	-200.000	-0.004	-0.075
-433.690	258.945	0.182	0.313
-432.676	112.863	0.548	0.663
-431.661	-39.344	0.550	0.288
-430.646	-63.330	0.803	-0.330
-429.632	160.496	0.347	-0.483
-428.617	-131.029	-0.675	0.090
-427.603	-200.000	0.058	-0.635
-426.588	-200.000	-0.085	-0.472
-425.573	-109.032	0.739	0.157
-424.559	27.616	0.823	0.692
-423.544	-59.229	-0.367	0.158
-422.530	165.062	0.337	-0.474
-421.515	-176.187	-1.032	-0.027
-420.500	162.842	-0.114	-0.160
-419.486	-102.929	0.660	-0.157
-418.471	-200.000	0.065	-0.670
-417.457	800.000	0.187	-0.650
-416.442	-200.000	-0.129	0.778
-415.428	-200.000	0.061	0.782
-414.413	430.231	0.127	-0.274
-413.398	-56.065	-0.719	0.320
-412.384	-109.754	-0.784	-0.165
-411.369	-22.481	-0.655	0.396
-410.355	292.731	0.315	-0.572
-409.340	73.536	0.471	0.493
-408.325	169.803	-0.233	-0.333
-407.311	-200.000	0.128	-0.911
-406.296	-200.000	-0.025	0.223
-405.282	37.395	0.393	0.348
-404.267	-200.000	0.088	0.703
-403.252	107.018	-0.380	0.450
-402.238	18.189	-0.687	0.547
-401.223	-33.848	-0.401	0.221
-400.209	97.468	0.287	-0.329
-399.194	800.000	0.178	0.576
-398.179	-142.071	-0.348	-0.034
-397.165	534.734	0.092	0.219
-396.150	-200.000	-0.092	-0.505
-395.136	-200.000	-0.163	0.811
-394.121	6.487	-0.702	0.520
-393.106	-31.880	0.289	-0.161
-392.092	-71.545	-0.136	0.051
-391.077	-47.761	-0.350	0.169
-390.063	-50.032	-0.238	-0.113
-389.048	-22.614	0.394	0.237
-388.033	800.000	-0.079	-0.236
-387.019	-200.000	0.026	-0.128
-386.004	-59.432	0.948	-0.406
-384.990	178.860	0.039	-0.057
-383.975	147.180	-0.294	-0.395
-382.960	-61.707	0.101	-0.042
-381.946	-200.000	0.074	-0.447
-380.931	-84.287	0.677	-0.214
-379.917	45.487	-0.437	-0.402
-378.902	-200.000	0.130	-0.801
-377.888	-121.218	0.905	-0.151
-376.873	196.941	-0.393	-0.597
-375.858	96.554	-0.554	-0.632
-374.844	-27.920	-0.512	-0.295
-373.829	128.206	-0.295	0.374
-372.815	231.328	-0.348	0.568
-371.800	90.573	0.090	0.101
-370.785	-200.000	-0.000	0.730
-369.771	-95.405	0.742	-0.199
-368.756	-141.708	0.640	-0.064
-367.742	800.000	0.299	-0.898
-366.727	-200.000	0.021	0.169
-365.712	-200.000	0.056	0.614
-364.698	-200.000	-0.084	0.421
-363.683	269.318	-0.087	-0.152
-362.669	800.000	0.161	-0.576
-361.654	-124.634	0.472	-0.073
-360.639	-200.000	0.027	-0.453
-359.625	-105.814	-0.916	0.206
-358.610	510.131	-0.244	-0.565
-357.596	366.609	-0.258	-0.518
-356.581	-77.107	0.372	0.129
-355.566	44.416	-0.629	0.575
-354.552	-51.034	0.531	0.248
-353.537	-59.575	-0.198	-0.085
-352.523	-26.715	0.487	-0.284
-351.508	-61.861	0.492	0.205
-350.493	23.066	0.816	0.666
-349.479	-200.000	-0.079	0.649
-348.464	-46.878	0.363	0.177
-347.450	65.936	-0.415	0.419
-346.435	-200.000	0.129	0.701
-345.420	800.000	-0.079	0.260
-344.406	-109.840	-0.624	0.130
-343.391	156.053	-0.226	0.311
-342.377	-139.058	0.476	0.051
-341.362	-103.326	0.410	0.096
-340.348	605.445	0.255	0.631
-339.333	42.783	-0.257	0.233
-338.318	5.950	-0.202	0.149
-337.304	-200.000	0.014	0.454
-336.289	-6.355	-0.092	0.062
-335.275	-142.145	-1.057	-0.104
-334.260	98.884	0.180	-0.206
-333.245	800.000	-0.094	-0.360
-332.231	-85.229	0.445	0.138
-331.216	643.544	0.260	-0.658
-330.202	-23.479	0.439	0.262
-329.187	-67.843	-0.733	0.285
-328.172	273.233	0.129	-0.227
-327.158	-32.778	0.170	0.094
-326.143	-200.000	0.176	-1.009
-325.129	24.512	0.344	-0.283
-324.114	-12.266	-0.478	-0.311
-323.099	-7.945	-0.173	0.116
-322.085	178.422	0.093	0.135
-321.070	800.000	0.025	0.092
-320.056	-158.105	-0.362	-0.021
-319.041	312.480	0.140	-0.262
-318.026	-200.000	0.090	0.522
-317.012	-94.746	-0.554	0.149
-315.997	1.568	-0.612	0.438
-314.983	23.924	0.441	-0.362
-313.968	-200.000	0.048	-0.889
-312.953	-83.618	-1.195	-0.380
-311.939	800.000	0.114	0.457
-310.924	-108.019	0.337	-0.073
-309.910	-144.605	-0.311	0.029
-308.895	322.055	0.303	0.574
-307.880	-54.601	-0.379	0.170
-306.866	800.000	-0.297	-0.862
-305.851	-99.926	1.351	0.335
-304.837	49.197	0.331	0.309
-303.822	-120.492	0.615	-0.104
-302.807	-173.268	0.446	0.014
-301.793	-22.537	-0.887	0.533
-300.778	-43.268	0.112	-0.056
-299.764	-64.987	-0.150	0.060
-298.749	541.820	-0.146	0.347
-297.735	-61.026	-0.903	-0.379
-296.720	-200.000	0.193	1.378
-295.705	-37.985	-0.560	-0.296
-294.691	5.116	-0.496	-0.363
-293.676	-200.000	0.011	0.100
-292.662	-49.916	0.664	0.313
-291.647	-146.310	0.659	0.057
-290.632	-200.000	0.010	-0.562
-289.618	-200.000	-0.020	-0.227
-288.603	-90.591	0.857	-0.246
-287.589	-90.852	0.258	0.074
-286.574	-92.301	0.127	-0.036
-285.559	800.000	0.088	0.266
-284.545	95.046	-0.829	-0.937
-283.530	-32.609	-0.627	-0.347
-282.516	-177.393	0.571	-0.014
-281.501	-200.000	-0.060	0.482
-280.486	713.381	0.114	0.299
-279.472	-200.000	0.056	0.637
-278.457	-200.000	0.017	-0.284
-277.443	104.566	-0.240	-0.281
-276.428	-200.000	-0.009	-0.506
-275.413	800.000	0.351	1.293
-274.399	44.483	-0.434	0.395
-273.384	-200.000	-0.160	0.836
-272.370	172.719	-0.162	-0.232
-271.355	-200.000	0.006	0.360
-270.340	-73.320	-0.997	0.362
-269.326	356.548	-0.198	0.391
-268.311	-65.450	-0.984	-0.392
-267.297	-121.038	-0.586	0.098
-266.282	-76.843	0.475	-0.165
-265.267	22.985	-0.219	0.178
-264.253	275.587	-0.668	1.176
-263.238	125.021	0.167	0.208
-262.224	-131.992	-0.527	-0.068
-261.209	-93.448	0.388	-0.107
-260.195	-110.449	0.306	-0.063
-259.180	800.000	0.155	0.584
-258.165	800.000	0.142	0.602
-257.151	-200.000	-0.095	0.438
-256.136	313.685	-0.654	1.221
-255.122	-200.000	0.153	0.892
-254.107	-137.396	-0.382	0.043
-253.092	186.972	-0.339	-0.501
-252.078	-200.000	-0.062	-0.848
-251.063	-16.918	-0.817	0.512
-250.049	-96.692	-0.900	-0.235
-249.034	-19.930	-0.968	0.593
-248.019	-113.051	0.676	-0.132
-247.005	336.392	0.295	0.569
-245.990	107.167	-0.319	0.376
-244.976	-17.695	0.285	-0.178
-243.961	42.491	-0.247	0.222
-242.946	359.776	-0.160	0.318
-241.932	53.763	0.509	0.484
-240.917	27.438	-0.261	-0.218
-239.903	-16.536	-0.312	0.196
-238.888	-21.182	0.334	0.202
-237.873	-83.504	0.177	0.056
-236.859	-3.911	-0.473	0.325
-235.844	-200.000	0.051	-0.346
-234.830	332.168	-0.249	-0.477
-233.815	106.325	0.543	-0.637
-232.800	-60.616	-0.612	0.257
-231.786	-200.000	0.011	-0.117
-230.771	-200.000	0.055	0.364
-229.757	-49.956	-0.283	-0.133
-228.742	32.724	-0.320	0.275
-227.727	287.919	0.304	-0.544
-226.713	114.235	-0.478	-0.576
-225.698	23.408	0.840	0.684
-224.684	-64.133	0.244	-0.099
-223.669	-112.042	0.465	-0.093
-222.655	-18.349	0.653	-0.404
-221.640	-110.827	0.290	0.059
-220.625	-34.997	-0.367	0.199
-219.611	-151.559	-0.911	0.067
-218.596	-118.993	0.365	0.063
-217.582	198.490	0.662	1.004
-216.567	-200.000	-0.096	0.768
-215.552	-133.623	0.475	-0.059
-214.538	1.224	0.481	0.342
-213.523	-11.101	0.851	-0.556
-212.509	-19.309	0.581	0.357
-211.494	-13.143	1.067	0.686
-210.479	-83.519	0.845	0.268
-209.465	65.489	-0.429	-0.430
-208.450	246.830	-0.179	0.298
-207.436	300.749	-0.470	0.859
-206.421	39.663	-0.462	0.410
-205.406	-200.000	-0.122	-0.793
-204.392	800.000	0.156	0.623
-203.377	-100.318	0.227	0.056
-202.363	180.659	0.803	1.167
-201.348	800.000	-0.152	-0.628
-200.333	44.453	0.611	-0.556
-199.319	-47.881	0.205	-0.098
-198.304	-200.000	0.005	0.234
-197.290	-121.788	-0.981	-0.160
-196.275	-200.000	0.174	-0.778
-195.260	-52.097	-0.530	0.244
-194.246	485.096	0.491	-1.107
-193.231	800.000	-0.179	-0.611
-192.217	-91.194	-0.549	-0.156
-191.202	-200.000	0.138	0.637
-190.187	-107.388	-0.815	-0.177
-189.173	104.976	0.773	-0.903
-188.158	308.652	-0.507	-0.936
-187.144	-31.888	-0.728	-0.403
-186.129	-155.320	-0.438	-0.028
-185.114	98.728	-0.487	-0.555
-184.100	122.078	-0.323	0.399
-183.085	-196.734	-0.316	-0.002
-182.071	-200.000	0.055	-0.700
-181.056	-83.478	0.666	0.211
-180.042	-200.000	0.178	0.835
-179.027	131.453	-0.165	0.209
-178.012	-3.871	0.571	0.392
-176.998	222.117	-0.461	0.733
-175.983	-65.074	0.400	-0.160
-174.969	-200.000	-0.092	0.998
-173.954	-70.044	0.710	-0.267
-172.939	-155.165	0.739	0.048
-171.925	-136.522	-0.723	-0.083
-170.910	707.962	0.254	0.662
-169.896	199.967	-0.265	-0.403
-168.881	-15.617	0.379	-0.239
-167.866	-174.434	0.232	0.007
-166.852	-71.500	-0.578	0.214
-165.837	162.509	-0.501	-0.694
-164.823	121.566	0.542	0.667
-163.808	800.000	-0.243	-0.672
-162.793	74.641	0.264	0.274
-161.779	-146.529	-1.477	0.127
-160.764	-29.553	-0.247	-0.140
-159.750	-130.930	-0.919	0.122
-158.735	67.094	0.624	0.628
-157.720	-200.000	0.024	-0.609
-156.706	-73.014	-0.565	-0.205
-155.691	-116.767	-0.219	0.040
-154.677	110.232	0.434	0.515
-153.662	-170.701	-0.963	0.033
-152.647	-200.000	-0.428	-0.001
-151.633	-200.000	0.050	-0.421
-150.618	-109.111	-0.475	-0.100
-149.604	-20.989	0.347	-0.210
-148.589	-31.834	0.763	-0.422
-147.574	-97.187	-0.231	0.060
-146.560	131.154	-0.787	-0.998
-145.545	82.341	-0.140	-0.150
-144.531	-152.191	0.697	-0.050
-143.516	800.000	-0.335	0.931
-142.502	-90.809	0.444	0.126
-141.487	777.149	-0.099	0.266
-140.472	-45.216	-0.074	0.036
-139.458	-20.403	-0.519	-0.315
-138.443	-200.000	-0.094	-0.495
-137.429	-200.000	0.004	0.802
-136.414	9.577	-0.384	-0.287
-135.399	-127.537	0.352	-0.050
-134.385	-200.000	0.101	-0.752
-133.370	-156.909	0.118	0.007
-132.356	-82.375	0.174	0.056
-131.341	121.619	-0.384	-0.472
-130.326	-99.625	-0.755	-0.187
-129.312	460.157	-0.245	0.539
-128.297	186.157	-0.129	0.189
-127.283	171.385	0.649	-0.919
-126.268	23.987	0.326	0.265
-125.253	-60.255	-0.318	-0.134
-124.239	-200.000	-0.042	0.269
-123.224	121.334	-0.379	-0.465
-122.210	171.062	-0.466	-0.660
-121.195	14.161	0.452	-0.348
-120.180	120.472	0.396	-0.486
-119.166	-22.549	-0.281	0.168
-118.151	800.000	0.189	-0.584
-117.137	-200.000	0.486	0.001
-116.122	-200.000	0.085	-0.552
-115.107	207.573	0.212	0.326
-114.093	262.755	-0.135	0.230
-113.078	195.621	0.153	0.229
-112.064	-44.747	-0.447	-0.220
-111.049	-200.000	-0.113	-0.541
-110.034	6.689	-0.968	-0.710
-109.020	-8.599	0.545	-0.361
-108.005	-84.888	-0.374	-0.116
-106.991	37.009	0.763	-0.665
-105.976	61.502	0.640	-0.628
-104.962	415.699	-0.565	-1.187
-103.947	-200.000	-0.036	0.808
-102.932	-140.315	0.881	0.091
-101.918	-85.406	0.304	-0.094
-100.903	26.116	-0.285	-0.234
-99.889	800.000	-0.122	-0.353
-98.874	126.921	-0.389	-0.486
-97.859	128.161	-0.660	-0.828
-96.845	-200.000	0.088	0.586
-95.830	51.240	-0.643	-0.601
-94.816	72.931	-0.626	0.645
-93.801	-39.797	0.555	0.286
-92.786	94.926	-0.322	-0.361
-91.772	800.000	-0.097	-0.407
-90.757	-166.700	0.719	0.029
-89.743	145.212	-0.048	0.063
-88.728	-200.000	0.067	-0.607
-87.713	-200.000	-0.079	-0.841
-86.699	-105.511	-0.721	0.161
-85.684	-23.979	0.133	-0.078
-84.670	800.000	0.171	-0.733
-83.655	280.382	-0.374	-0.659
-82.640	-146.912	-0.369	0.031
-81.626	-92.750	0.513	0.142
-80.611	-200.000	0.260	1.217
-79.597	-69.401	0.559	0.211
-78.582	103.161	0.200	-0.231
-77.567	288.712	-0.295	-0.527
-76.553	79.782	0.599	-0.634
-75.538	246.600	0.316	-0.524
-74.524	800.000	0.082	-0.345
-73.509	133.376	-0.294	-0.374
-72.494	-109.451	0.555	-0.115
-71.480	-73.011	-0.705	0.255
-70.465	-128.163	-1.029	0.145
-69.451	800.000	0.135	0.498
-68.436	-129.961	-0.369	-0.050
-67.422	-156.778	-0.470	-0.029
-66.407	-105.819	0.971	-0.216
-65.392	-200.000	0.085	0.534
-64.378	-107.198	-0.555	-0.120
-63.363	-200.000	-0.011	0.375
-62.349	-26.185	-0.185	-0.107
-61.334	-151.919	-1.362	-0.098
-60.319	-27.276	0.308	-0.177
-59.305	-200.000	-0.109	-1.226
-58.290	-200.000	-0.029	1.374
-57.276	83.060	0.304	0.326
-56.261	-200.000	94.758	593.679
-55.246	679.080	1352.639	3463.607
-54.232	205.344	2512.165	3839.829
-53.217	119.826	2119.082	2584.546
-52.203	44.241	1590.797	1436.267
-51.188	36.039	1331.982	1153.694
-50.173	32.972	1291.560	1100.798
-49.159	56.057	1340.469	1279.965
-48.144	57.178	1356.490	1301.854
-47.130	36.298	1314.710	1140.083
-46.115	32.767	1297.792	1104.729
-45.100	32.413	1292.605	1098.207
-44.086	32.057	1291.029	1094.747
-43.071	32.293	1288.361	1093.817
-42.057	32.226	1286.361	1091.686
-41.042	32.520	1284.866	1092.081
-40.027	32.428	1283.052	1089.958
-39.013	32.634	1280.760	1089.163
-37.998	32.520	1278.942	1086.914
-36.984	32.671	1277.267	1086.317
-35.969	32.564	1275.683	1084.314
-34.954	32.649	1274.336	1083.609
-33.940	32.508	1273.253	1081.838
-32.925	32.662	1270.886	1080.669
-31.911	32.486	1269.912	1078.786
-30.896	32.477	1268.616	1077.591
-29.881	32.596	1266.261	1076.226
-28.867	32.833	1265.884	1077.216
-27.852	32.596	1264.006	1074.228
-26.838	32.775	1262.465	1073.896
-25.823	32.592	1262.399	1072.753
-24.809	32.679	1260.122	1071.269
-23.794	32.547	1258.488	1069.090
-22.779	32.528	1258.074	1068.589
-21.765	32.451	1256.868	1067.085
-20.750	32.595	1255.798	1066.948
-19.736	32.585	1253.311	1064.735
-18.721	32.224	1253.155	1062.521
-17.706	32.284	1252.407	1062.182
-16.692	32.370	1250.504	1061.015
-15.677	32.237	1250.070	1059.854
-14.663	32.412	1248.752	1059.679
-13.648	32.637	1247.157	1059.551
-12.633	32.345	1245.742	1056.665
-11.619	32.302	1246.011	1056.608
-10.604	32.295	1244.271	1055.051
-9.590	32.176	1243.905	1054.034
-8.575	32.677	1241.700	1054.928
-7.560	32.487	1241.470	1053.625
-6.546	32.599	1239.263	1052.337
-5.531	32.236	1241.457	1052.125
-4.517	32.291	1239.131	1050.420
-3.502	32.343	1238.993	1050.555
-2.487	32.428	1237.631	1049.831
-1.473	32.453	1233.431	1046.367
-0.458	30.606	1218.966	1023.892
0.556	28.372	1200.229	986.218
1.571	24.356	1202.956	966.657
2.586	23.331	1218.482	973.414
3.600	22.806	1206.712	961.069
4.615	16.782	1136.480	874.070
5.629	7.551	1061.127	771.378
6.644	3.699	1041.462	738.625
7.659	3.146	1038.978	734.159
8.673	3.007	1037.575	732.441
9.688	2.951	1036.638	731.450
10.702	3.470	1034.573	732.395
11.717	9.238	1042.892	765.766
12.731	19.128	1056.013	822.831
13.746	23.924	1061.691	850.168
14.761	24.520	1062.541	853.627
15.775	24.096	1061.350	850.570
16.790	23.503	1060.267	846.794
17.804	23.352	1060.085	845.855
18.819	23.576	1059.512	846.387
19.834	23.759	1057.917	845.912
20.848	23.586	1058.563	845.531
21.863	23.724	1057.597	845.338
22.877	23.453	1056.576	843.159
23.892	23.311	1055.256	841.359
24.907	23.458	1055.521	842.193
25.921	23.588	1053.035	840.751
26.936	23.174	1053.383	838.991
27.950	23.117	1051.829	837.409
28.965	23.444	1050.076	837.483
29.980	23.718	1048.292	837.280
30.994	23.575	1047.755	836.102
32.009	23.759	1046.535	835.923
33.023	23.117	1045.772	832.217
34.038	23.531	1045.109	833.565
35.053	23.029	1044.723	830.824
36.067	23.228	1043.038	830.341
37.082	23.484	1042.100	830.725
38.096	23.469	1041.899	830.419
39.111	23.490	1041.248	829.924
40.126	23.157	1041.158	828.221
41.140	22.808	1038.679	824.546
42.155	22.993	1037.192	824.153
43.169	22.960	1036.100	823.060
44.184	22.950	1034.508	821.679
45.199	22.733	1034.216	820.365
46.213	23.042	1034.039	821.587
47.228	23.185	1033.596	821.826
48.242	23.603	1032.901	823.142
49.257	23.572	1031.663	821.938
50.271	23.742	1030.598	821.802
51.286	24.109	1029.866	822.840
52.301	23.497	1029.647	819.765
53.315	23.553	1029.074	819.498
54.330	23.685	1026.291	817.816
55.344	23.265	1025.585	815.247
56.359	23.214	1026.394	815.584
57.374	23.204	1024.846	814.237
58.388	23.054	1023.515	812.418
59.403	23.072	1022.676	811.760
60.417	23.099	1023.110	812.158
61.432	22.939	1021.410	810.006
62.447	23.079	1020.418	809.788
63.461	22.703	1020.662	808.187
64.476	22.795	1019.090	807.289
65.490	22.887	1018.480	807.157
66.505	23.099	1016.231	806.268
67.520	22.805	1017.682	806.006
68.534	22.732	1015.761	804.081
69.549	22.415	1015.916	802.688
70.563	22.347	1015.541	802.010
71.578	22.375	1013.069	800.117
72.593	21.992	1012.975	798.228
73.607	22.159	1012.295	798.379
74.622	22.292	1012.037	798.709
75.636	22.312	1011.360	798.196
76.651	22.385	1010.002	797.384
77.666	22.800	1008.971	798.379
78.680	22.614	1008.897	797.406
79.695	22.458	1008.435	796.268
80.709	22.945	1007.151	797.379
81.724	22.871	1006.167	796.195
82.739	22.926	1006.345	796.513
83.753	23.633	1005.048	798.600
84.768	24.137	1004.813	800.610
85.782	24.120	1004.921	800.549
86.797	23.954	1003.730	798.783
87.812	23.714	1002.229	796.440
88.826	23.890	1001.465	796.555
89.841	23.618	1001.090	794.967
90.855	24.276	999.974	796.952
91.870	23.915	999.182	794.636
92.884	24.241	998.090	795.154
93.899	23.776	996.672	791.882
94.914	24.055	995.862	792.408
95.928	23.503	996.150	790.109
96.943	23.451	995.179	789.041
97.957	23.182	994.530	787.258
98.972	23.419	992.457	786.602
99.987	23.671	991.954	787.247
101.001	23.687	991.497	786.890
102.016	23.549	990.179	785.160
103.030	23.475	989.556	784.269
104.045	23.525	988.945	783.938
105.060	23.428	989.014	783.496
106.074	23.618	986.109	781.960
107.089	23.409	986.748	781.478
108.103	23.384	984.698	779.674
109.118	23.102	983.312	777.270
110.133	22.700	982.289	774.625
111.147	22.681	981.863	774.137
112.162	22.870	980.160	773.557
113.176	22.656	980.499	772.818
114.191	23.081	978.722	773.207
115.206	23.230	977.923	773.158
116.220	22.446	978.869	770.408
117.235	22.538	976.823	769.131
118.249	22.549	975.598	768.148
119.264	22.384	975.605	767.363
120.279	22.201	974.078	765.299
121.293	22.202	973.812	765.026
122.308	22.651	972.488	765.872
123.322	22.283	971.949	763.778
124.337	22.381	970.528	763.020
125.352	22.103	970.019	761.351
126.366	22.327	969.071	761.508
127.381	22.799	968.014	762.650
128.395	22.594	967.806	761.531
129.410	23.182	966.345	762.851
130.424	22.958	965.714	761.321
131.439	23.252	965.690	762.499
132.454	23.322	965.167	762.320
133.468	23.237	963.556	760.616
134.483	23.316	963.432	760.790
135.497	23.030	962.726	758.936
136.512	23.387	961.659	759.562
137.527	23.143	961.589	758.392
138.541	23.131	959.848	756.901
139.556	23.261	959.832	757.377
140.570	22.899	959.904	755.817
141.585	23.425	958.672	757.029
142.600	23.830	957.213	757.536
143.614	23.758	957.211	757.161
144.629	24.097	956.424	757.914
145.643	23.895	954.615	755.554
146.658	23.511	953.295	752.813
147.673	23.803	951.502	752.568
148.687	23.192	950.957	749.486
149.702	23.320	949.505	748.812
150.716	23.405	949.100	748.786
151.731	23.373	949.038	748.538
152.746	23.299	948.381	747.641
153.760	23.701	946.883	748.086
154.775	23.709	947.045	748.184
155.789	23.727	946.935	748.103
156.804	23.409	946.234	746.145
157.819	23.521	944.458	745.151
158.833	24.013	943.905	746.712
159.848	24.241	942.794	746.723
160.862	23.722	942.196	744.011
161.877	23.226	941.909	741.640
162.892	23.241	940.282	740.359
163.906	23.280	938.816	739.300
164.921	23.375	937.454	738.559
165.935	23.334	937.823	738.613
166.950	23.646	935.804	738.254
167.964	23.771	935.442	738.424
168.979	22.961	935.151	734.761
169.994	23.281	933.936	735.070
171.008	23.571	933.084	735.536
172.023	23.560	932.814	735.213
173.037	23.615	932.174	734.874
174.052	23.749	931.248	734.631
175.067	23.160	930.545	731.579
176.081	23.070	929.752	730.516
177.096	22.827	928.840	728.734
178.110	22.935	927.819	728.312
179.125	22.890	927.630	727.916
180.140	23.155	926.748	728.250
181.154	23.172	926.990	728.444
182.169	24.052	925.894	731.135
183.183	23.373	927.024	729.169
184.198	23.389	925.568	728.026
185.213	23.614	925.272	728.654
186.227	23.337	925.055	727.278
187.242	23.514	924.583	727.569
188.256	23.641	922.837	726.654
189.271	23.856	922.446	727.161
190.286	23.692	921.388	725.592
191.300	22.819	919.754	720.679
192.315	22.650	918.265	718.760
193.329	23.024	917.889	719.923
194.344	23.378	918.744	721.973
195.359	23.489	918.295	722.007
196.373	23.888	916.535	722.181
197.388	23.764	918.113	722.857
198.402	24.545	915.718	724.075
199.417	24.028	917.075	722.983
200.432	24.165	916.169	722.761
201.446	24.267	915.727	722.763
202.461	24.486	914.611	722.706
203.475	23.966	914.274	720.269
204.490	23.530	912.552	717.086
205.504	23.280	913.324	716.619
206.519	23.701	912.154	717.340
207.534	23.857	911.034	717.025
208.548	23.940	910.150	716.599
209.563	23.744	909.844	715.507
210.577	23.744	909.494	715.167
211.592	24.294	909.021	716.946
212.607	24.253	908.437	716.257
213.621	24.261	907.638	715.592
214.636	24.129	907.153	714.620
215.650	23.760	906.029	712.191
216.665	23.801	905.609	711.963
217.680	23.961	906.081	712.909
218.694	24.123	903.967	711.833
219.709	23.816	903.269	709.994
220.723	24.018	901.712	709.514
221.738	23.735	901.544	708.190
222.753	23.794	901.047	707.972
223.767	23.804	900.509	707.528
224.782	24.160	900.154	708.602
225.796	23.676	900.731	707.065
226.811	24.253	898.931	707.883
227.826	23.404	898.774	704.325
228.840	23.340	897.819	703.260
229.855	23.476	896.891	703.011
230.869	23.352	896.196	701.911
231.884	23.322	895.991	701.571
232.899	23.640	895.188	702.136
233.913	23.492	894.745	701.142
234.928	23.087	894.240	699.085
235.942	22.907	892.851	697.225
236.957	23.081	892.067	697.239
237.972	22.961	892.760	697.243
238.986	23.492	891.335	698.159
240.001	23.149	891.434	696.824
241.015	23.173	890.947	696.479
242.030	23.108	890.883	696.108
243.045	23.243	889.913	695.820
244.059	23.611	888.629	696.199
245.074	23.655	887.775	695.640
246.088	23.930	887.202	696.207
247.103	24.058	887.819	697.132
248.117	24.139	888.359	697.811
249.132	24.351	888.133	698.400
250.147	24.960	887.077	699.890
251.161	24.803	886.971	699.133
252.176	24.741	886.681	698.598
253.190	24.925	884.705	697.696
254.205	25.035	884.554	697.945
255.220	24.591	884.212	695.886
256.234	24.623	883.540	695.418
257.249	24.547	882.989	694.627
258.263	24.595	881.748	693.777
259.278	24.469	881.820	693.282
260.293	24.758	881.531	694.116
261.307	24.515	881.320	692.943
262.322	24.897	879.693	693.085
263.336	24.704	878.532	691.363
264.351	24.318	877.147	688.721
265.366	24.478	877.548	689.593
266.380	24.830	876.576	690.123
267.395	24.588	876.017	688.693
268.409	24.318	875.932	687.523
269.424	24.503	875.481	687.821
270.439	24.586	874.472	687.285
271.453	24.511	873.508	686.180
272.468	24.449	873.515	685.885
273.482	24.211	873.539	684.930
274.497	24.731	872.111	685.743
275.512	24.310	871.470	683.565
276.526	24.643	870.765	684.228
277.541	24.843	870.197	684.486
278.555	24.839	870.459	684.616
279.570	24.814	869.694	683.858
280.585	24.660	869.210	682.829
281.599	24.576	867.703	681.266
282.614	24.471	865.808	679.316
283.628	24.298	866.544	679.176
284.643	24.258	865.397	678.065
285.657	24.116	865.031	677.175
286.672	24.373	864.370	677.577
287.687	24.240	864.449	677.071
288.701	24.629	862.886	677.265
289.716	24.437	862.481	676.157
290.730	24.681	862.564	677.087
291.745	24.554	861.323	675.572
292.760	24.920	860.551	676.289
293.774	25.270	860.865	677.798
294.789	24.705	860.369	675.215
295.803	24.735	859.145	674.309
296.818	24.735	859.143	674.248
297.833	24.554	858.292	672.837
298.847	24.684	857.274	672.468
299.862	24.254	858.214	671.527
300.876	24.778	857.407	672.809
301.891	24.824	857.180	672.745
302.906	25.035	856.628	673.046
303.920	25.339	855.107	672.927
304.935	25.273	855.571	672.986
305.949	25.052	854.499	671.256
306.964	24.814	853.649	669.637
307.979	24.561	852.577	667.793
308.993	24.686	853.235	668.716
310.008	25.367	851.944	670.189
311.022	25.140	851.853	669.211
312.037	25.053	850.464	667.734
313.052	24.372	850.103	664.856
314.066	24.106	849.872	663.625
315.081	24.372	848.803	663.722
316.095	24.576	847.682	663.543
317.110	24.455	847.682	663.035
318.125	24.148	846.514	660.926
319.139	23.721	846.667	659.402
320.154	23.897	846.244	659.668
321.168	23.965	844.940	658.841
322.183	24.506	845.355	661.114
323.197	24.576	844.493	660.637
324.212	24.310	844.654	659.723
325.227	24.110	843.949	658.374
326.241	24.387	842.070	657.871
327.256	24.401	842.571	658.256
328.270	23.945	842.509	656.465
329.285	23.621	841.141	654.149
330.300	23.724	839.723	653.366
331.314	24.099	840.584	655.360
332.329	24.274	840.708	656.042
333.343	24.810	838.899	656.540
334.358	25.050	837.741	656.454
335.373	24.729	838.898	656.124
336.387	24.695	839.551	656.453
337.402	24.895	838.692	656.459
338.416	25.022	838.296	656.554
339.431	25.418	837.474	657.302
340.446	25.555	837.182	657.515
341.460	25.215	837.794	656.693
342.475	25.645	836.976	657.566
343.489	25.474	836.913	656.832
344.504	25.449	836.968	656.729
345.519	25.813	835.802	657.084
346.533	25.369	835.694	655.320
347.548	25.341	834.290	654.059
348.562	25.272	833.554	653.174
349.577	24.909	834.221	652.314
350.592	24.717	832.382	650.122
351.606	24.965	830.864	649.779
352.621	24.795	830.878	649.114
353.635	24.718	830.721	648.655
354.650	24.607	829.969	647.608
355.665	24.536	829.067	646.591
356.679	24.682	828.725	646.796
357.694	25.216	827.802	647.949
358.708	24.634	827.620	645.645
359.723	24.734	826.237	644.871
360.738	24.802	825.683	644.626
361.752	25.111	825.238	645.334
362.767	25.207	825.837	646.090
363.781	25.488	825.528	646.804
364.796	25.346	824.715	645.600
365.810	25.864	824.441	647.187
366.825	25.740	824.023	646.356
367.840	25.209	823.493	643.978
368.854	25.345	822.206	643.401
369.869	25.063	822.233	642.358
370.883	25.160	821.220	641.856
371.898	25.352	821.924	643.035
372.913	25.651	820.689	643.083
373.927	25.217	820.630	641.429
374.942	25.308	820.063	641.251
375.956	25.381	819.858	641.295
376.971	25.554	819.467	641.552
377.986	25.614	819.615	641.824
379.000	25.919	818.374	641.881
380.015	25.730	817.144	640.188
381.029	25.894	816.755	640.409
382.044	25.949	816.779	640.568
383.059	25.867	816.163	639.738
384.073	25.443	815.975	638.029
385.088	25.630	814.326	637.345
386.102	25.505	812.393	635.332
387.117	25.363	812.457	634.825
388.132	24.995	812.911	633.821
389.146	25.157	811.672	633.372
390.161	25.303	811.970	634.063
391.175	26.059	811.600	636.387
392.190	25.835	810.645	634.793
393.205	24.872	810.102	630.920
394.219	24.701	808.480	628.999
395.234	24.583	807.700	627.921
396.248	24.940	807.693	629.112
397.263	25.118	808.377	630.217
398.278	24.924	807.408	628.724
399.292	24.757	805.859	626.879
400.307	24.763	806.112	627.039
401.321	24.463	806.704	626.391
402.336	25.225	805.725	628.248
403.350	25.572	805.128	628.938
404.365	25.634	806.014	629.792
405.380	25.974	804.805	629.980
406.394	25.928	805.060	629.962
407.409	26.396	804.343	630.981
408.423	26.228	804.260	630.271
409.438	25.931	804.161	629.104
410.453	26.264	803.006	629.302
411.467	26.117	801.997	627.946
412.482	25.579	802.747	626.603
413.496	26.030	801.435	627.093
414.511	26.139	801.815	627.712
415.526	26.055	800.540	626.368
416.540	25.932	800.136	625.569
417.555	25.894	800.019	625.293
418.569	25.934	800.474	625.729
419.584	26.125	799.141	625.294
420.599	25.902	798.711	624.130
421.613	160.684	1370.722	1793.407
422.628	139.437	1454.083	1793.489
