DTS Sentinel unit serial number:	SN413079Multiplexer serial number:	ORYXHardware model number:	OX4-SRSoftware version number:	ORYX F/W v4.00 Oryx Data Collector v3.7.2.0data status	okinstallation	princeton_trtdifferential loss correction	single-endedforward channel	channel 1reverse channel	N/Adate	2019/09/17time	04:46:35forward acquisition time	60.00reverse acquisition time	0.00gamma	496.2192k internal	0.2323k external	0.2323temperature offset calibration	0.9962default loss term (dB/km)	0.3790temperature slope calibration	1.0000multiplexer offset coefficient	1.0000multiplexer slope coefficient	1.0000fibre end	0.00T internal ref (°C)	29.56T ext. ref 1 (°C)	0.13T ext. ref 2 (°C)	24.00length (m)	temperature (°C)	Stokes	anti-Stokes-747.200	-200.000	-0.049	0.228
-746.185	-200.000	0.056	0.322
-745.171	607.960	0.113	0.286
-744.156	800.000	0.100	0.392
-743.142	-138.668	-0.171	-0.019
-742.127	-163.571	-0.301	0.014
-741.112	24.294	0.291	0.243
-740.098	800.000	-0.057	-0.165
-739.083	108.201	0.180	-0.216
-738.069	800.000	0.068	0.228
-737.054	-82.901	-0.181	-0.059
-736.039	273.110	-0.174	-0.310
-735.025	644.871	-0.052	-0.133
-734.010	17.423	-0.216	0.173
-732.996	-114.181	0.309	0.060
-731.981	-200.000	0.016	-0.148
-730.966	63.244	-0.112	0.113
-729.952	12.713	-0.166	0.129
-728.937	-74.049	-0.150	-0.055
-727.923	-200.000	0.083	-0.462
-726.908	-78.957	-0.223	-0.077
-725.894	-75.682	0.441	0.158
-724.879	137.273	-0.083	0.109
-723.864	-70.639	-0.222	-0.085
-722.850	-200.000	-0.034	0.296
-721.835	327.877	0.091	-0.175
-720.821	118.163	-0.057	-0.071
-719.806	105.414	0.065	0.077
-718.791	32.184	0.263	-0.229
-717.777	-113.264	0.346	-0.069
-716.762	-145.378	-0.315	0.029
-715.748	247.332	-0.060	-0.102
-714.733	800.000	0.030	-0.121
-713.718	200.598	-0.076	0.117
-712.704	128.103	-0.137	0.175
-711.689	-52.036	0.112	-0.052
-710.675	800.000	-0.035	0.103
-709.660	-193.817	-0.542	0.005
-708.645	528.953	0.062	0.148
-707.631	-80.232	-0.381	-0.128
-706.616	37.729	0.304	0.272
-705.602	-200.000	0.001	0.555
-704.587	-200.000	-0.038	-0.308
-703.572	-92.335	0.224	-0.064
-702.558	800.000	0.034	-0.125
-701.543	196.783	-0.045	0.070
-700.529	-200.000	0.021	0.136
-699.514	-67.277	-0.496	0.197
-698.499	-200.000	0.076	0.392
-697.485	-200.000	0.028	0.218
-696.470	56.377	-0.240	-0.235
-695.456	758.550	-0.182	-0.496
-694.441	800.000	0.027	-0.086
-693.426	-150.941	-0.096	-0.007
-692.412	-200.000	-0.016	-0.166
-691.397	-171.357	-0.493	0.017
-690.383	-114.177	-0.174	-0.034
-689.368	800.000	-0.047	0.178
-688.354	800.000	0.088	0.248
-687.339	274.719	-0.104	-0.186
-686.324	-200.000	0.019	0.249
-685.310	-116.194	0.307	0.057
-684.295	-40.323	0.101	-0.053
-683.281	757.803	-0.040	0.108
-682.266	-200.000	0.016	-0.371
-681.251	800.000	-0.108	-0.310
-680.237	-58.373	0.090	0.039
-679.222	800.000	0.065	0.189
-678.208	15.367	-0.237	0.188
-677.193	-157.380	-0.081	-0.005
-676.178	-2.334	0.065	-0.046
-675.164	-184.689	0.331	0.005
-674.149	116.579	0.065	-0.080
-673.135	541.440	-0.068	0.164
-672.120	223.392	-0.095	-0.155
-671.105	-200.000	0.002	-0.134
-670.091	90.967	0.168	-0.190
-669.076	30.262	-0.167	-0.143
-668.062	143.928	-0.068	-0.091
-667.047	-200.000	0.018	0.388
-666.032	13.163	0.055	-0.043
-665.018	27.638	-0.267	-0.226
-664.003	-200.000	-0.003	-0.344
-662.989	520.677	0.070	-0.165
-661.974	-73.252	-0.138	0.051
-660.959	-51.876	0.226	0.106
-659.945	-51.003	0.125	-0.059
-658.930	248.080	0.092	0.156
-657.916	-22.671	-0.155	0.095
-656.901	-29.468	0.215	-0.124
-655.886	-131.201	-0.125	-0.017
-654.872	11.399	0.049	0.038
-653.857	-9.932	0.182	-0.122
-652.843	126.140	-0.117	0.149
-651.828	-61.815	-0.078	-0.033
-650.814	60.941	-0.215	0.215
-649.799	124.216	-0.013	0.016
-648.784	800.000	0.019	-0.070
-647.770	-168.153	-0.362	-0.014
-646.755	23.343	0.114	0.095
-645.741	800.000	0.047	0.156
-644.726	-200.000	0.021	-0.163
-643.711	-200.000	-0.041	-0.254
-642.697	346.113	-0.133	-0.263
-641.682	38.178	-0.197	-0.176
-640.668	160.212	0.047	-0.065
-639.653	440.052	-0.103	-0.226
-638.638	-13.600	0.135	0.088
-637.624	384.266	0.044	-0.092
-636.609	99.898	0.229	-0.267
-635.595	-200.000	0.001	0.263
-634.580	28.677	0.220	-0.187
-633.565	-200.000	-0.042	0.310
-632.551	-200.000	0.004	-0.218
-631.536	-200.000	-0.026	-0.272
-630.522	60.405	0.227	-0.226
-629.507	43.167	0.257	-0.236
-628.492	104.627	-0.029	-0.034
-627.478	-200.000	-0.016	-0.080
-626.463	66.214	-0.054	0.055
-625.449	-69.810	-0.139	-0.053
-624.434	-200.000	-0.008	0.219
-623.419	-23.257	0.176	-0.107
-622.405	-118.719	0.084	-0.015
-621.390	170.225	0.039	0.055
-620.376	-200.000	0.081	0.414
-619.361	-65.829	0.262	0.105
-618.346	800.000	-0.027	-0.089
-617.332	58.063	-0.058	0.058
-616.317	800.000	0.107	0.393
-615.303	-200.000	-0.000	0.078
-614.288	109.547	0.251	-0.302
-613.273	71.292	-0.123	-0.129
-612.259	-200.000	0.023	0.182
-611.244	26.526	0.227	0.191
-610.230	463.022	0.029	-0.066
-609.215	-2.510	0.351	0.247
-608.201	-154.372	-0.198	-0.013
-607.186	-114.071	-0.140	-0.027
-606.171	217.524	0.117	-0.187
-605.157	-92.714	-0.041	0.011
-604.142	178.978	-0.077	0.112
-603.128	-100.191	-0.120	0.030
-602.113	-50.475	-0.180	0.085
-601.098	-175.154	-0.404	0.011
-600.084	-70.974	-0.231	0.087
-599.069	-200.000	-0.022	-0.516
-598.055	-156.973	-0.118	-0.007
-597.040	14.624	0.119	0.093
-596.025	-200.000	-0.024	0.228
-595.011	44.374	0.117	-0.108
-593.996	-89.793	0.308	-0.091
-592.982	-173.973	0.162	-0.005
-591.967	-34.464	-0.164	0.090
-590.952	-124.250	-0.541	-0.085
-589.938	800.000	-0.091	-0.334
-588.923	-200.000	-0.006	-0.060
-587.909	78.742	-0.058	0.062
-586.894	340.620	-0.065	-0.128
-585.879	325.962	-0.126	-0.241
-584.865	96.557	-0.174	0.200
-583.850	-73.377	-0.270	-0.099
-582.836	170.795	-0.165	0.238
-581.821	14.942	-0.179	0.140
-580.806	-12.737	0.274	-0.179
-579.792	19.796	-0.258	0.208
-578.777	800.000	0.059	0.214
-577.763	497.644	0.079	0.182
-576.748	188.642	-0.256	-0.385
-575.733	31.208	0.102	-0.088
-574.719	249.879	-0.038	-0.065
-573.704	20.174	-0.145	-0.117
-572.690	-200.000	0.019	0.088
-571.675	39.385	-0.204	0.183
-570.661	-116.097	0.026	-0.005
-569.646	438.974	-0.085	-0.185
-568.631	-200.000	-0.010	0.065
-567.617	241.903	0.150	0.252
-566.602	-200.000	-0.015	0.133
-565.588	800.000	-0.003	-0.012
-564.573	82.083	-0.032	0.035
-563.558	-29.490	0.138	-0.079
-562.544	-138.416	-0.153	0.017
-561.529	293.941	-0.142	0.259
-560.515	-122.242	-0.120	0.020
-559.500	314.960	0.103	-0.195
-558.485	-200.000	0.024	-0.164
-557.471	-17.060	-0.211	0.134
-556.456	7.807	0.157	0.118
-555.442	592.791	0.152	-0.376
-554.427	103.396	0.091	-0.106
-553.412	-200.000	0.041	-0.609
-552.398	-58.291	-0.048	-0.021
-551.383	800.000	-0.097	0.301
-550.369	761.764	-0.061	-0.166
-549.354	-200.000	0.003	-0.193
-548.339	248.801	-0.213	0.361
-547.325	139.766	0.116	0.153
-546.310	174.573	-0.169	0.245
-545.296	601.146	-0.031	0.076
-544.281	243.142	-0.037	0.062
-543.266	-73.153	-0.290	0.106
-542.252	-98.120	-0.283	0.073
-541.237	-176.700	-0.325	0.008
-540.223	-5.356	-0.167	0.115
-539.208	434.963	-0.044	-0.096
-538.193	92.749	0.209	-0.236
-537.179	572.080	-0.054	-0.132
-536.164	207.139	0.103	-0.160
-535.150	-28.958	0.362	0.208
-534.135	-41.758	0.098	-0.050
-533.121	-7.179	0.212	-0.144
-532.106	182.463	0.049	0.072
-531.091	-188.793	0.146	-0.002
-530.077	-16.132	-0.148	-0.094
-529.062	800.000	0.054	-0.181
-528.048	748.235	-0.017	0.046
-527.033	-154.884	-0.092	-0.006
-526.018	55.172	0.079	0.077
-525.004	-136.006	0.319	-0.038
-523.989	22.634	-0.131	-0.107
-522.975	374.023	0.166	-0.338
-521.960	-200.000	-0.002	-0.324
-520.945	800.000	0.078	0.256
-519.931	-200.000	0.005	0.472
-518.916	800.000	-0.112	0.395
-517.902	-38.656	-0.218	0.115
-516.887	339.000	0.133	-0.259
-515.872	-20.175	0.289	-0.178
-514.858	-200.000	-0.025	-0.178
-513.843	-200.000	0.046	-0.246
-512.829	-73.633	0.365	-0.133
-511.814	82.231	0.021	0.022
-510.799	-30.697	-0.096	0.054
-509.785	-51.724	-0.133	-0.062
-508.770	50.638	-0.356	0.338
-507.756	151.078	-0.170	0.232
-506.741	-200.000	0.007	0.298
-505.726	-200.000	0.008	0.093
-504.712	324.905	-0.096	-0.184
-503.697	-112.583	-0.142	-0.028
-502.683	-200.000	0.040	-0.379
-501.668	29.059	-0.198	0.168
-500.653	-88.620	0.157	-0.047
-499.639	514.465	0.049	0.114
-498.624	-135.008	0.338	-0.041
-497.610	-200.000	0.025	0.229
-496.595	-200.000	0.054	-0.278
-495.581	-103.506	0.083	-0.019
-494.566	-81.314	-0.148	-0.049
-493.551	-167.143	-0.175	0.007
-492.537	602.560	0.167	0.416
-491.522	70.250	-0.040	0.041
-490.508	189.055	0.290	-0.435
-489.493	800.000	-0.028	0.094
-488.478	-200.000	0.006	-0.068
-487.464	-37.915	-0.148	-0.078
-486.449	142.212	0.099	0.131
-485.435	-200.000	0.009	0.050
-484.420	-82.940	-0.207	0.067
-483.405	245.085	-0.028	0.047
-482.391	368.240	-0.058	-0.117
-481.376	332.000	0.092	0.177
-480.362	-74.911	0.278	-0.100
-479.347	56.123	-0.356	0.345
-478.332	-120.615	-0.416	-0.070
-477.318	79.204	0.132	0.141
-476.303	-35.031	-0.120	-0.065
-475.289	70.515	-0.030	0.031
-474.274	-200.000	0.003	-0.070
-473.259	800.000	0.016	-0.046
-472.245	365.300	0.144	-0.290
-471.230	-149.265	0.087	0.007
-470.216	180.459	-0.289	0.424
-469.201	45.976	0.208	-0.192
-468.186	535.672	0.075	-0.178
-467.172	-146.495	-0.039	0.003
-466.157	-86.609	-0.363	0.111
-465.143	164.406	0.100	-0.141
-464.128	95.850	-0.163	0.186
-463.113	-200.000	0.005	0.056
-462.099	-23.050	0.230	-0.138
-461.084	-200.000	-0.007	-0.144
-460.070	-46.828	0.158	0.077
-459.055	-200.000	-0.009	0.175
-458.040	800.000	0.059	0.225
-457.026	22.057	0.237	-0.193
-456.011	-26.973	-0.043	0.025
-454.997	-200.000	-0.088	0.387
-453.982	-86.349	0.371	-0.114
-452.968	269.162	0.117	0.205
-451.953	90.712	-0.191	-0.214
-450.938	-149.883	0.093	0.007
-449.924	-200.000	-0.012	0.120
-448.909	97.603	-0.207	0.237
-447.895	20.666	0.157	-0.127
-446.880	269.730	0.084	0.147
-445.865	-200.000	0.017	0.346
-444.851	45.940	0.233	0.215
-443.836	179.996	0.051	0.074
-442.822	800.000	-0.055	-0.237
-441.807	-200.000	-0.006	-0.208
-440.792	-115.862	0.114	-0.021
-439.778	67.674	-0.042	-0.042
-438.763	-1.918	-0.294	-0.207
-437.749	606.887	0.135	0.335
-436.734	-95.503	0.247	0.066
-435.719	86.261	-0.222	0.244
-434.705	120.695	0.047	0.058
-433.690	-90.602	-0.364	-0.105
-432.676	-158.492	0.254	0.015
-431.661	-81.177	-0.471	0.155
-430.646	580.965	0.106	0.260
-429.632	31.381	-0.244	0.209
-428.617	800.000	-0.088	-0.354
-427.603	-74.249	-0.151	-0.055
-426.588	-37.685	-0.242	0.128
-425.573	-135.432	0.197	0.023
-424.559	264.779	-0.151	-0.263
-423.544	16.018	0.152	-0.119
-422.530	458.661	-0.200	-0.444
-421.515	12.633	0.129	-0.099
-420.500	-123.181	0.174	-0.028
-419.486	170.856	0.148	0.211
-418.471	-200.000	0.015	-0.170
-417.457	78.637	0.116	0.124
-416.442	109.371	-0.107	-0.127
-415.428	98.324	-0.114	-0.131
-414.413	-104.110	0.189	0.044
-413.398	68.294	-0.214	0.218
-412.384	-31.954	0.275	0.154
-411.369	33.669	-0.334	-0.290
-410.355	800.000	-0.053	-0.145
-409.340	186.275	0.145	0.215
-408.325	800.000	-0.046	0.189
-407.311	292.507	-0.065	0.117
-406.296	800.000	0.069	0.192
-405.282	-26.993	-0.316	-0.184
-404.267	-200.000	-0.013	-0.198
-403.252	-200.000	-0.011	0.150
-402.238	-119.143	-0.129	0.023
-401.223	-45.303	-0.103	-0.051
-400.209	-154.975	-0.175	-0.011
-399.194	-53.923	-0.168	-0.076
-398.179	47.067	-0.173	0.160
-397.165	268.561	0.057	-0.099
-396.150	157.487	0.175	0.242
-395.136	157.418	0.123	0.169
-394.121	-108.524	0.209	-0.045
-393.106	260.745	-0.071	0.122
-392.092	-74.064	0.220	0.079
-391.077	-200.000	-0.014	-0.116
-390.063	-26.432	0.079	0.046
-389.048	-57.890	-0.340	0.148
-388.033	-200.000	0.033	-0.217
-387.019	-200.000	-0.003	0.036
-386.004	243.681	0.127	0.213
-384.990	-200.000	-0.019	-0.151
-383.975	290.087	-0.087	0.157
-382.960	-168.856	-0.206	-0.008
-381.946	60.126	0.180	0.177
-380.931	-200.000	0.020	0.311
-379.917	749.449	-0.006	-0.016
-378.902	-68.824	0.073	0.028
-377.888	-127.919	-0.245	-0.035
-376.873	629.183	-0.029	-0.072
-375.858	-200.000	-0.035	0.163
-374.844	239.433	0.137	0.228
-373.829	116.247	-0.081	-0.098
-372.815	83.031	-0.184	-0.199
-371.800	-200.000	-0.007	-0.386
-370.785	-115.175	-0.358	0.068
-369.771	98.886	0.127	0.146
-368.756	-54.563	0.105	0.047
-367.742	-200.000	0.005	-0.100
-366.727	97.895	-0.107	0.123
-365.712	83.121	-0.151	-0.163
-364.698	-70.226	0.174	0.066
-363.683	77.874	-0.277	0.294
-362.669	68.407	0.336	0.343
-361.654	800.000	-0.033	-0.127
-360.639	-200.000	-0.007	-0.168
-359.625	800.000	-0.028	0.117
-358.610	16.335	0.174	0.137
-357.596	560.426	-0.128	0.307
-356.581	43.196	0.222	0.201
-355.566	-131.246	-0.374	0.049
-354.552	416.497	0.034	-0.072
-353.537	-27.262	0.111	-0.064
-352.523	-23.336	-0.319	-0.191
-351.508	800.000	0.008	-0.029
-350.493	578.613	-0.033	-0.080
-349.479	-200.000	0.001	-0.020
-348.464	-95.871	-0.378	0.100
-347.450	62.379	0.065	0.064
-346.435	-200.000	0.007	0.075
-345.420	-56.919	0.168	0.074
-344.406	-200.000	-0.027	0.387
-343.391	195.507	-0.085	0.129
-342.377	104.164	-0.110	-0.129
-341.362	97.901	-0.075	0.086
-340.348	800.000	-0.058	0.239
-339.333	-16.735	-0.035	0.022
-338.318	-100.330	-0.246	0.061
-337.304	81.212	0.087	-0.094
-336.289	74.619	0.162	0.169
-335.275	11.860	-0.266	-0.203
-334.260	-200.000	-0.010	-0.219
-333.245	800.000	-0.057	0.184
-332.231	-200.000	0.039	-0.237
-331.216	-57.307	-0.191	0.084
-330.202	369.390	0.080	-0.161
-329.187	113.988	-0.092	0.112
-328.172	800.000	-0.012	0.035
-327.158	333.951	-0.036	-0.069
-326.143	-200.000	-0.115	-0.506
-325.129	33.689	0.196	-0.169
-324.114	-143.930	-0.054	0.005
-323.099	-59.444	0.157	-0.067
-322.085	172.714	-0.220	-0.315
-321.070	0.301	0.095	0.068
-320.056	4.707	-0.168	-0.123
-319.041	30.532	-0.157	-0.134
-318.026	-48.584	0.150	-0.072
-317.012	88.102	0.237	-0.261
-315.997	-3.857	-0.439	-0.303
-314.983	-21.286	0.108	0.065
-313.968	-200.000	-0.043	0.228
-312.953	-200.000	-0.063	-0.511
-311.939	71.407	0.177	0.183
-310.924	-171.602	-0.207	0.007
-309.910	-16.422	0.095	-0.060
-308.895	-3.602	0.304	-0.210
-307.880	18.703	-0.070	0.055
-306.866	10.588	-0.106	0.080
-305.851	-89.156	-0.130	-0.038
-304.837	-58.741	-0.092	0.040
-303.822	-89.892	-0.167	0.049
-302.807	-200.000	0.037	0.231
-301.793	122.392	0.235	-0.292
-300.778	-200.000	0.013	-0.357
-299.764	-70.278	-0.217	0.082
-298.749	-129.192	0.161	0.022
-297.735	89.239	-0.043	-0.047
-296.720	478.758	-0.105	-0.236
-295.705	-200.000	-0.049	0.264
-294.691	161.259	0.058	-0.080
-293.676	177.969	-0.044	-0.064
-292.662	284.244	0.091	-0.162
-291.647	-200.000	-0.022	0.190
-290.632	-135.684	0.074	0.009
-289.618	800.000	0.068	0.214
-288.603	-23.004	0.111	-0.066
-287.589	634.244	-0.040	-0.101
-286.574	-200.000	-0.029	-0.282
-285.559	-121.428	0.210	0.035
-284.545	-200.000	-0.003	0.171
-283.530	375.417	-0.155	-0.314
-282.516	108.779	0.336	0.398
-281.501	-94.796	0.329	-0.089
-280.486	-200.000	-0.030	-0.286
-279.472	64.859	-0.233	0.233
-278.457	615.350	-0.122	-0.303
-277.443	14.429	0.123	-0.095
-276.428	677.530	-0.056	-0.143
-275.413	105.493	-0.260	-0.305
-274.399	800.000	0.061	0.197
-273.384	800.000	0.114	-0.413
-272.370	286.863	-0.156	0.279
-271.355	800.000	-0.061	0.173
-270.340	71.780	0.064	-0.066
-269.326	30.717	0.131	0.111
-268.311	169.571	-0.372	-0.527
-267.297	-39.904	0.109	-0.056
-266.282	-104.719	0.253	0.058
-265.267	-26.963	0.184	-0.106
-264.253	127.075	0.235	-0.295
-263.238	45.628	0.220	0.202
-262.224	-200.000	-0.033	-0.242
-261.209	232.051	0.196	0.319
-260.195	-65.134	-0.083	0.033
-259.180	104.404	-0.145	0.169
-258.165	36.188	0.318	0.277
-257.151	41.259	-0.152	-0.136
-256.136	-20.071	-0.250	-0.153
-255.122	-65.289	0.280	-0.112
-254.107	-5.346	0.052	-0.036
-253.092	137.516	-0.062	0.080
-252.078	27.405	-0.291	0.243
-251.063	398.442	-0.059	0.122
-250.049	97.856	0.217	0.248
-249.034	88.867	0.072	-0.079
-248.019	-94.160	-0.229	0.062
-247.005	-200.000	-0.065	0.373
-245.990	-38.409	0.205	-0.107
-244.976	591.888	0.110	-0.268
-243.961	-200.000	-0.016	-0.126
-242.946	-200.000	0.003	-0.398
-241.932	256.956	0.081	0.137
-240.917	11.779	-0.063	-0.048
-239.903	-152.380	0.146	-0.010
-238.888	-42.015	-0.199	0.101
-237.873	-200.000	0.011	-0.290
-236.859	335.672	0.113	0.217
-235.844	800.000	-0.051	-0.197
-234.830	-148.076	0.123	-0.010
-233.815	149.241	0.152	0.204
-232.800	-144.077	-0.154	0.014
-231.786	-166.133	-0.029	-0.001
-230.771	-161.930	0.288	-0.014
-229.757	59.222	0.152	0.148
-228.742	23.441	0.256	-0.209
-227.727	-200.000	-0.026	0.225
-226.713	124.164	-0.038	0.047
-225.698	-126.930	0.366	0.053
-224.684	-109.202	-0.378	-0.079
-223.669	308.631	-0.144	0.267
-222.655	-200.000	-0.005	-0.267
-221.640	800.000	0.134	0.394
-220.625	-200.000	-0.028	0.120
-219.611	-200.000	0.014	0.078
-218.596	677.896	-0.056	0.143
-217.582	-200.000	-0.045	0.414
-216.567	-2.749	0.180	0.124
-215.552	-183.767	-0.187	-0.003
-214.538	-56.141	0.222	-0.098
-213.523	367.351	0.037	-0.074
-212.509	-200.000	-0.001	-0.264
-211.494	-79.193	0.236	0.079
-210.479	-33.167	-0.093	-0.051
-209.465	-200.000	-0.018	-0.265
-208.450	-200.000	0.020	0.205
-207.436	-192.941	-0.147	0.001
-206.421	-49.931	0.335	0.157
-205.406	-0.574	0.104	0.073
-204.392	66.131	0.149	0.149
-203.377	-200.000	-0.026	-0.147
-202.363	132.640	0.076	-0.097
-201.348	-200.000	0.020	0.170
-200.333	378.581	0.065	0.132
-199.319	-195.948	0.365	-0.003
-198.304	-140.717	0.195	-0.020
-197.290	63.821	0.368	-0.365
-196.275	14.261	-0.256	-0.198
-195.260	-146.714	0.196	0.017
-194.246	-73.584	0.173	0.062
-193.231	-200.000	0.022	-0.125
-192.217	-129.541	-0.099	-0.014
-191.202	-91.995	-0.358	-0.100
-190.187	-67.368	-0.206	-0.080
-189.173	15.697	-0.094	0.073
-188.158	800.000	0.068	0.260
-187.144	-7.940	0.135	-0.090
-186.129	-200.000	-0.040	-0.210
-185.114	105.170	0.159	-0.186
-184.100	-112.535	0.450	0.089
-183.085	-200.000	-0.023	0.223
-182.071	92.068	0.249	0.277
-181.056	627.714	-0.100	0.250
-180.042	-200.000	0.039	0.182
-179.027	-200.000	-0.025	0.128
-178.012	-200.000	-0.010	-0.252
-176.998	-200.000	0.002	-0.041
-175.983	38.311	0.158	0.139
-174.969	-29.639	-0.134	0.076
-173.954	100.268	0.261	0.299
-172.939	-73.364	0.214	0.077
-171.925	-200.000	0.003	-0.051
-170.910	-200.000	-0.044	-0.195
-169.896	-58.446	-0.200	-0.086
-168.881	472.579	-0.078	-0.173
-167.866	178.830	-0.187	-0.270
-166.852	800.000	-0.146	-0.400
-165.837	-30.274	-0.212	-0.119
-164.823	-83.794	0.188	0.059
-163.808	800.000	0.070	0.216
-162.793	-78.062	0.374	-0.127
-161.779	-200.000	0.001	0.059
-160.764	-200.000	-0.012	0.134
-159.750	-105.037	0.322	0.073
-158.735	-200.000	-0.011	0.196
-157.720	92.856	0.043	-0.048
-156.706	-40.873	0.178	-0.091
-155.691	0.162	0.163	-0.115
-154.677	-15.259	-0.377	-0.238
-153.662	-42.690	0.456	0.229
-152.647	65.537	0.159	0.158
-151.633	-91.862	-0.250	0.070
-150.618	-15.093	0.109	-0.069
-149.604	-200.000	-0.050	-0.302
-148.589	43.972	0.232	0.210
-147.574	-115.651	0.184	0.034
-146.560	-200.000	0.028	0.426
-145.545	-19.687	0.334	-0.204
-144.531	23.766	-0.125	0.101
-143.516	-200.000	0.016	0.102
-142.502	643.640	-0.036	0.090
-141.487	65.211	0.228	-0.227
-140.472	800.000	0.039	-0.116
-139.458	15.663	0.235	0.182
-138.443	-45.210	0.122	-0.060
-137.429	-132.506	-0.185	-0.023
-136.414	800.000	0.043	0.171
-135.399	30.232	-0.004	0.004
-134.385	104.639	-0.136	0.158
-133.370	-200.000	-0.045	-0.225
-132.356	463.458	-0.042	0.093
-131.341	-200.000	0.009	0.097
-130.326	-50.831	0.453	0.210
-129.312	-200.000	0.008	0.056
-128.297	-148.469	-0.065	-0.005
-127.283	310.030	0.057	-0.106
-126.268	-121.339	-0.440	-0.072
-125.253	-43.289	-0.140	0.070
-124.239	-200.000	-0.036	-0.220
-123.224	4.050	-0.183	-0.132
-122.210	-200.000	-0.005	-0.157
-121.195	-13.625	-0.163	-0.104
-120.180	-93.693	0.260	0.071
-119.166	-28.889	-0.175	-0.099
-118.151	-97.060	-0.107	-0.028
-117.137	-174.794	-0.091	0.003
-116.122	279.323	-0.087	0.154
-115.107	800.000	0.096	-0.274
-114.093	-72.058	0.170	0.062
-113.078	35.193	-0.292	0.252
-112.064	-27.551	0.080	-0.046
-111.049	-140.108	0.400	0.041
-110.034	75.964	0.074	0.077
-109.020	140.711	-0.085	-0.111
-108.005	-200.000	-0.045	-0.426
-106.991	-200.000	-0.017	0.167
-105.976	448.479	-0.134	0.290
-104.962	-8.948	-0.114	-0.075
-103.947	50.111	0.197	0.183
-102.932	-200.000	-0.017	-0.192
-101.918	-64.925	-0.315	0.125
-100.903	-158.500	-0.245	0.014
-99.889	-46.406	0.080	-0.038
-98.874	-147.519	0.027	-0.002
-97.859	167.974	-0.027	-0.038
-96.845	294.602	-0.081	-0.146
-95.830	-200.000	0.018	-0.133
-94.816	800.000	0.128	-0.393
-93.801	-200.000	0.046	0.424
-92.786	-102.798	0.148	-0.035
-91.772	149.461	-0.111	-0.147
-90.757	-55.549	-0.081	-0.036
-89.743	-200.000	0.001	-0.028
-88.728	49.343	0.215	0.199
-87.713	-141.103	0.191	-0.019
-86.699	-115.181	-0.329	0.061
-85.684	-3.126	0.187	0.128
-84.670	-63.519	0.161	-0.065
-83.655	20.026	-0.148	0.118
-82.640	21.662	-0.318	0.255
-81.626	-170.870	-0.309	-0.010
-80.611	529.117	0.081	-0.187
-79.597	27.767	-0.164	0.136
-78.582	-138.524	-0.249	0.027
-77.567	749.633	-0.091	0.241
-76.553	-14.616	-0.127	-0.080
-75.538	41.458	-0.226	0.201
-74.524	-179.958	-0.460	-0.010
-73.509	-129.221	-0.322	-0.044
-72.494	-200.000	0.025	0.182
-71.480	185.598	0.070	-0.102
-70.465	-6.066	-0.044	-0.029
-69.451	-13.874	-0.159	-0.101
-68.436	800.000	-0.074	-0.234
-67.422	16.904	-0.127	-0.099
-66.407	27.612	-0.111	0.092
-65.392	-200.000	-0.011	0.187
-64.378	-132.350	0.210	-0.027
-63.363	-157.959	0.167	-0.010
-62.349	-140.784	0.357	0.036
-61.334	132.884	-1.051	-1.333
-60.319	-43.032	0.559	0.279
-59.305	185.713	-0.713	-1.042
-58.290	119.267	0.806	0.980
-57.276	479.302	0.628	1.400
-56.261	-200.000	108.338	589.574
-55.246	443.120	1483.249	3195.319
-54.232	145.796	2669.918	3517.652
-53.217	105.605	2162.392	2512.399
-52.203	40.903	1609.538	1427.627
-51.188	33.021	1349.439	1149.167
-50.173	29.967	1308.374	1096.107
-49.159	53.883	1362.162	1286.253
-48.144	54.081	1378.073	1302.422
-47.130	33.046	1332.899	1135.051
-46.115	29.790	1314.755	1100.223
-45.100	29.466	1310.371	1094.591
-44.086	29.394	1308.399	1092.476
-43.071	29.553	1305.089	1090.609
-42.057	29.368	1303.312	1087.985
-41.042	29.555	1301.041	1087.152
-40.027	29.499	1300.107	1085.998
-39.013	29.464	1298.040	1084.019
-37.998	29.411	1295.974	1081.940
-36.984	29.540	1294.229	1081.199
-35.969	29.597	1292.920	1080.396
-34.954	29.473	1291.150	1078.150
-33.940	29.613	1289.664	1077.679
-32.925	29.625	1288.456	1076.702
-31.911	29.643	1287.042	1075.582
-30.896	29.539	1285.596	1073.725
-29.881	29.628	1284.331	1073.144
-28.867	29.689	1283.011	1072.349
-27.852	29.641	1281.505	1070.769
-26.838	29.747	1279.672	1069.813
-25.823	29.635	1278.707	1068.315
-24.809	29.635	1277.289	1067.088
-23.794	29.607	1276.190	1065.963
-22.779	29.649	1275.119	1065.270
-21.765	29.685	1273.263	1063.886
-20.750	29.641	1272.254	1062.749
-19.736	29.536	1270.863	1060.938
-18.721	29.549	1269.872	1060.144
-17.706	29.524	1268.799	1059.063
-16.692	29.540	1267.205	1057.781
-15.677	29.611	1265.889	1057.047
-14.663	29.592	1265.406	1056.491
-13.648	29.571	1264.038	1055.191
-12.633	29.541	1263.489	1054.519
-11.619	29.537	1262.250	1053.422
-10.604	29.492	1262.081	1052.981
-9.590	29.490	1260.638	1051.719
-8.575	29.492	1259.683	1050.895
-7.560	29.431	1258.980	1049.921
-6.546	29.530	1257.678	1049.355
-5.531	29.447	1256.996	1048.273
-4.517	29.446	1256.592	1047.890
-3.502	29.539	1255.041	1047.080
-2.487	29.486	1254.493	1046.285
-1.473	29.535	1250.042	1042.806
-0.458	28.035	1235.337	1022.117
0.556	22.744	1218.080	983.790
1.571	18.911	1224.482	967.347
2.586	18.055	1239.075	973.911
3.600	18.015	1227.708	964.667
4.615	13.195	1154.883	881.702
5.629	4.608	1079.475	781.073
6.644	0.429	1059.680	746.040
7.659	0.064	1057.334	742.522
8.673	0.078	1055.804	741.455
9.688	-0.040	1054.706	740.034
10.702	0.131	1053.262	739.794
11.717	5.401	1059.823	770.355
12.731	13.845	1070.463	819.886
13.746	17.332	1074.675	840.301
14.761	17.015	1073.437	837.692
15.775	15.967	1071.501	830.938
16.790	14.904	1069.482	824.063
17.804	14.409	1067.569	820.081
18.819	13.915	1066.957	817.110
19.834	13.623	1065.851	814.755
20.848	13.408	1064.895	812.899
21.863	13.276	1063.876	811.398
22.877	12.991	1063.719	809.809
23.892	13.034	1062.417	808.957
24.907	13.011	1061.974	808.436
25.921	12.982	1061.184	807.622
26.936	13.127	1060.230	807.530
27.950	13.218	1058.898	806.891
28.965	13.248	1057.984	806.268
29.980	13.198	1057.194	805.353
30.994	13.361	1055.616	804.873
32.009	13.245	1055.172	803.898
33.023	13.293	1054.060	803.214
34.038	13.241	1052.485	801.691
35.053	13.363	1051.761	801.658
36.067	13.399	1050.545	800.832
37.082	13.317	1050.370	800.231
38.096	13.307	1049.961	799.801
39.111	13.284	1049.181	799.026
40.126	13.127	1048.106	797.381
41.140	12.969	1047.209	795.863
42.155	13.086	1045.798	795.287
43.169	12.984	1045.004	794.120
44.184	13.049	1043.746	793.404
45.199	13.084	1042.455	792.522
46.213	13.121	1041.498	791.902
47.228	13.140	1040.820	791.409
48.242	13.243	1039.380	790.738
49.257	13.092	1038.429	789.220
50.271	13.164	1037.881	789.076
51.286	13.124	1037.436	788.479
52.301	13.185	1036.010	787.615
53.315	13.206	1034.934	786.828
54.330	13.133	1033.978	785.687
55.344	13.073	1033.233	784.764
56.359	13.183	1032.159	784.401
57.374	13.101	1031.640	783.546
58.388	13.150	1030.417	782.785
59.403	13.047	1029.921	781.849
60.417	13.115	1028.919	781.341
61.432	12.935	1028.183	779.863
62.447	12.978	1027.483	779.462
63.461	12.893	1026.659	778.368
64.476	12.888	1025.909	777.707
65.490	12.978	1024.960	777.343
66.505	12.945	1024.514	776.779
67.520	12.968	1023.763	776.251
68.534	13.076	1022.574	775.789
69.549	12.957	1021.887	774.640
70.563	12.996	1021.736	774.639
71.578	12.938	1020.304	773.216
72.593	12.881	1019.957	772.615
73.607	12.944	1019.357	772.387
74.622	12.969	1018.551	771.824
75.636	12.869	1017.705	770.650
76.651	13.002	1016.722	770.458
77.666	12.969	1016.367	769.968
78.680	12.951	1015.975	769.516
79.695	12.980	1015.171	768.975
80.709	12.892	1015.187	768.511
81.724	13.054	1013.833	768.170
82.739	13.092	1013.381	767.934
83.753	13.178	1012.231	767.397
84.768	13.070	1011.830	766.524
85.782	13.282	1010.407	766.358
86.797	13.098	1009.957	765.100
87.812	13.133	1008.987	764.458
88.826	13.122	1008.169	763.722
89.841	13.155	1006.964	762.894
90.855	13.213	1005.730	762.156
91.870	13.303	1005.354	762.219
92.884	13.142	1004.493	760.759
93.899	13.227	1003.675	760.463
94.914	13.394	1002.686	760.414
95.928	13.387	1001.692	759.558
96.943	13.294	1000.975	758.523
97.957	13.241	1000.156	757.593
98.972	13.253	998.969	756.680
99.987	13.290	998.284	756.264
101.001	13.184	997.670	755.248
102.016	13.180	996.507	754.280
103.030	13.164	996.000	753.760
104.045	13.163	995.122	753.025
105.060	13.255	993.984	752.512
106.074	13.282	992.974	751.807
107.089	13.261	991.937	750.859
108.103	12.976	991.352	749.057
109.118	12.964	990.622	748.381
110.133	13.150	989.087	747.999
111.147	13.087	988.488	747.196
112.162	13.024	988.214	746.639
113.176	13.182	987.236	746.547
114.191	13.312	986.251	746.320
115.206	13.123	986.195	745.359
116.220	13.161	984.718	744.350
117.235	13.178	983.554	743.478
118.249	13.192	982.971	743.035
119.264	13.174	982.264	742.356
120.279	13.069	981.542	741.272
121.293	13.223	980.430	741.059
122.308	13.046	979.732	739.673
123.322	13.190	978.478	739.304
124.337	13.232	977.339	738.567
125.352	13.268	976.258	737.844
126.366	13.041	975.697	736.345
127.381	13.082	974.708	735.716
128.395	13.173	973.508	735.150
129.410	13.097	972.875	734.269
130.424	13.260	972.207	734.423
131.439	13.147	971.384	733.235
132.454	13.202	970.676	732.877
133.468	13.151	969.703	731.854
134.483	13.280	968.475	731.433
135.497	13.084	967.946	730.103
136.512	13.170	966.901	729.627
137.527	13.198	966.341	729.265
138.541	13.205	965.540	728.629
139.556	13.261	964.458	727.992
140.570	13.300	963.957	727.721
141.585	13.529	962.690	727.709
142.600	13.227	962.256	725.986
143.614	13.391	961.504	726.078
144.629	13.450	960.631	725.611
145.643	13.470	959.487	724.770
146.658	13.313	958.472	723.254
147.673	13.344	957.640	722.695
148.687	13.241	957.065	721.749
149.702	13.197	956.409	720.997
150.716	13.240	955.306	720.292
151.731	13.222	954.880	719.827
152.746	13.430	953.916	719.943
153.760	13.247	953.695	718.914
154.775	13.282	953.349	718.745
155.789	13.450	952.540	718.797
156.804	13.322	951.494	717.390
157.819	13.536	950.679	717.639
158.833	13.483	950.260	717.031
159.848	13.570	949.110	716.476
160.862	13.519	948.613	715.820
161.877	13.480	947.609	714.829
162.892	13.322	946.662	713.368
163.906	13.270	945.807	712.436
164.921	13.319	945.107	712.059
165.935	13.420	943.944	711.553
166.950	13.351	943.021	710.497
167.964	13.432	942.243	710.196
168.979	13.379	941.496	709.345
169.994	13.543	940.470	709.210
171.008	13.417	940.085	708.320
172.023	13.572	939.119	708.189
173.037	13.554	938.745	707.768
174.052	13.663	937.677	707.366
175.067	13.558	937.103	706.424
176.081	13.422	936.770	705.531
177.096	13.557	936.421	705.780
178.110	13.563	935.479	705.031
179.125	13.458	935.062	704.208
180.140	13.525	934.664	704.132
181.154	13.560	934.120	703.807
182.169	13.656	933.725	703.857
183.183	13.674	932.727	703.117
184.198	13.721	931.875	702.614
185.213	13.771	931.215	702.263
186.227	13.765	930.697	701.786
187.242	13.745	930.095	701.186
188.256	13.763	929.554	700.790
189.271	13.743	928.725	700.021
190.286	13.599	928.028	698.825
191.300	13.501	926.901	697.503
192.315	13.525	926.732	697.415
193.329	13.610	926.302	697.386
194.344	13.723	925.139	696.926
195.359	13.721	924.649	696.484
196.373	13.741	924.344	696.277
197.388	13.857	923.582	696.129
198.402	13.967	923.328	696.337
199.417	13.918	922.688	695.588
200.432	14.038	921.798	695.359
201.446	14.063	921.645	695.285
202.461	14.035	921.104	694.697
203.475	14.127	920.107	694.268
204.490	13.949	919.679	693.144
205.504	14.002	918.722	692.578
206.519	13.993	918.108	692.020
207.534	13.938	917.249	691.080
208.548	13.917	917.026	690.763
209.563	13.959	916.109	690.186
210.577	13.991	915.327	689.670
211.592	14.180	914.117	689.482
212.607	14.140	913.596	688.862
213.621	14.004	913.379	688.071
214.636	14.130	912.485	687.858
215.650	14.148	911.840	687.387
216.665	14.181	911.069	686.882
217.680	14.182	910.302	686.246
218.694	14.380	909.440	686.350
219.709	14.227	909.269	685.529
220.723	14.223	908.660	684.994
221.738	14.191	907.585	683.991
222.753	14.229	907.013	683.657
223.767	14.192	906.908	683.366
224.782	14.442	905.967	683.620
225.796	14.381	905.579	683.020
226.811	14.365	904.789	682.298
227.826	14.343	904.486	681.918
228.840	14.371	903.125	680.945
229.855	14.162	902.399	679.483
230.869	14.298	901.456	679.271
231.884	14.399	901.018	679.292
232.899	14.367	900.202	678.483
233.913	14.225	899.740	677.498
234.928	14.254	899.197	677.150
235.942	14.170	899.146	676.708
236.957	14.220	898.085	676.052
237.972	14.275	897.496	675.773
238.986	14.315	896.847	675.385
240.001	14.381	895.955	674.922
241.015	14.360	895.248	674.247
242.030	14.509	894.774	674.430
243.045	14.420	894.355	673.695
244.059	14.534	893.465	673.426
245.074	14.549	892.796	672.922
246.088	14.512	892.455	672.455
247.103	14.575	891.716	672.094
248.117	14.655	890.624	671.535
249.132	14.748	890.446	671.716
250.147	14.662	889.905	670.901
251.161	14.720	889.202	670.545
252.176	14.706	888.716	670.061
253.190	14.684	888.116	669.464
254.205	14.746	887.484	669.175
255.220	14.733	886.801	668.551
256.234	14.903	885.838	668.444
257.249	14.859	885.156	667.692
258.263	14.934	884.201	667.215
259.278	14.941	883.577	666.714
260.293	14.739	883.675	665.921
261.307	14.849	883.128	665.891
262.322	15.016	882.418	665.958
263.336	15.023	881.502	665.237
264.351	15.096	880.721	664.876
265.366	15.249	879.853	664.772
266.380	15.164	879.487	664.097
267.395	14.981	878.966	662.922
268.409	14.934	878.045	661.982
269.424	14.947	877.305	661.419
270.439	15.071	876.694	661.390
271.453	15.010	875.991	660.560
272.468	15.126	875.460	660.558
273.482	15.076	874.948	659.914
274.497	15.009	874.427	659.201
275.512	15.045	873.649	658.695
276.526	15.007	873.744	658.559
277.541	15.134	872.764	658.262
278.555	15.275	872.059	658.228
279.570	15.219	871.708	657.684
280.585	15.258	870.775	657.073
281.599	15.191	870.098	656.244
282.614	15.175	869.385	655.586
283.628	15.273	868.997	655.618
284.643	15.211	868.552	654.983
285.657	15.234	867.638	654.324
286.672	15.211	867.308	653.926
287.687	15.243	866.522	653.400
288.701	15.269	866.129	653.147
289.716	15.380	865.329	652.918
290.730	15.303	865.039	652.342
291.745	15.326	863.941	651.548
292.760	15.216	863.603	650.809
293.774	15.518	862.957	651.433
294.789	15.360	862.384	650.332
295.803	15.237	861.789	649.348
296.818	15.384	861.128	649.364
297.833	15.441	859.872	648.578
298.847	15.426	859.370	648.085
299.862	15.531	859.182	648.290
300.876	15.460	859.005	647.827
301.891	15.715	857.920	647.932
302.906	15.440	857.593	646.568
303.920	15.647	857.231	647.035
304.935	15.590	856.478	646.193
305.949	15.646	855.839	645.866
306.964	15.556	854.923	644.772
307.979	15.711	854.376	644.899
308.993	15.720	853.851	644.479
310.008	15.723	853.510	644.176
311.022	15.696	853.043	643.665
312.037	15.558	852.584	642.731
313.052	15.588	851.989	642.343
314.066	15.694	851.147	642.055
315.081	15.703	850.457	641.512
316.095	15.789	849.601	641.137
317.110	15.580	849.478	640.190
318.125	15.643	848.908	639.945
319.139	15.572	848.667	639.435
320.154	15.624	848.412	639.384
321.168	15.656	847.635	638.865
322.183	15.759	846.730	638.518
323.197	15.757	846.379	638.189
324.212	15.771	846.143	638.007
325.227	15.747	845.216	637.160
326.241	15.728	844.946	636.830
327.256	15.762	844.048	636.224
328.270	15.683	843.443	635.415
329.285	15.780	842.993	635.385
330.300	15.778	842.250	634.761
331.314	15.760	842.031	634.472
332.329	15.771	841.570	634.109
333.343	15.864	840.933	633.925
334.358	15.902	840.637	633.790
335.373	15.825	840.729	633.513
336.387	15.901	839.704	632.968
337.402	15.952	839.634	633.053
338.416	16.061	839.573	633.357
339.431	16.069	838.775	632.731
340.446	16.111	838.465	632.600
341.460	16.114	838.066	632.253
342.475	16.137	837.722	632.023
343.489	16.157	837.342	631.755
344.504	16.132	836.794	631.194
345.519	16.173	836.195	630.839
346.533	16.132	836.032	630.507
347.548	16.149	835.437	630.065
348.562	16.140	834.482	629.256
349.577	16.116	834.264	628.947
350.592	16.120	833.742	628.512
351.606	16.073	832.982	627.710
352.621	16.264	831.950	627.587
353.635	16.204	831.508	626.972
354.650	16.226	830.994	626.613
355.665	16.218	830.171	625.905
356.679	16.195	829.816	625.498
357.694	16.149	829.503	625.037
358.708	16.338	828.666	625.051
359.723	16.293	827.745	624.133
360.738	16.228	827.525	623.673
361.752	16.264	826.835	623.230
362.767	16.470	826.069	623.358
363.781	16.462	825.838	623.099
364.796	16.444	825.300	622.571
365.810	16.562	824.991	622.717
366.825	16.682	824.353	622.623
367.840	16.617	823.837	621.939
368.854	16.641	823.440	621.673
369.869	16.513	823.080	620.873
370.883	16.497	822.968	620.678
371.898	16.535	822.481	620.393
372.913	16.672	821.994	620.475
373.927	16.738	821.184	620.050
374.942	16.614	821.120	619.492
375.956	16.736	820.363	619.314
376.971	16.961	819.492	619.422
377.986	16.669	819.636	618.408
379.000	16.727	818.952	618.050
380.015	16.863	818.172	617.903
381.029	16.764	818.184	617.498
382.044	16.830	817.758	617.359
383.059	17.068	816.445	617.180
384.073	16.924	816.066	616.317
385.088	16.886	815.734	615.872
386.102	16.737	815.375	615.004
387.117	16.765	814.486	614.383
388.132	16.791	813.722	613.846
389.146	16.829	813.441	613.717
390.161	16.923	813.074	613.725
391.175	16.835	812.637	613.024
392.190	16.960	811.662	612.686
393.205	16.730	811.627	611.773
394.219	16.894	811.130	611.936
395.234	16.807	811.039	611.499
396.248	16.773	810.649	611.030
397.263	16.779	810.182	610.647
398.278	16.956	809.481	610.700
399.292	16.892	809.302	610.279
400.307	16.719	809.045	609.410
401.321	16.838	808.412	609.308
402.336	17.028	807.734	609.426
403.350	16.859	807.595	608.659
404.365	17.051	806.771	608.674
405.380	17.068	806.206	608.255
406.394	17.145	805.967	608.294
407.409	17.186	805.249	607.847
408.423	17.199	804.951	607.614
409.438	17.275	804.533	607.518
410.453	17.198	804.481	607.149
411.467	17.179	803.942	606.619
412.482	17.357	803.185	606.629
413.496	17.290	802.816	606.060
414.511	17.423	802.713	606.401
415.526	17.480	802.153	606.129
416.540	17.395	801.664	605.401
417.555	17.397	801.469	605.209
418.569	17.293	801.021	604.446
419.584	17.346	800.442	604.144
420.599	17.351	799.858	603.668
421.613	109.024	1292.919	1469.822
422.628	93.791	1364.727	1469.915
