DTS Sentinel unit serial number:	SN413079Multiplexer serial number:	ORYXHardware model number:	OX4-SRSoftware version number:	ORYX F/W v4.00 Oryx Data Collector v3.7.2.0data status	okinstallation	princeton_trtdifferential loss correction	single-endedforward channel	channel 1reverse channel	N/Adate	2019/09/14time	02:10:35forward acquisition time	60.00reverse acquisition time	0.00gamma	496.2192k internal	0.2336k external	0.2336temperature offset calibration	1.0073default loss term (dB/km)	0.3790temperature slope calibration	1.0000multiplexer offset coefficient	1.0000multiplexer slope coefficient	1.0000fibre end	0.00T internal ref (°C)	26.50T ext. ref 1 (°C)	3.21T ext. ref 2 (°C)	21.48length (m)	temperature (°C)	Stokes	anti-Stokes-747.200	-200.000	0.011	0.188
-746.185	271.509	-0.198	0.351
-745.171	204.372	-0.234	-0.365
-744.156	-200.000	-0.138	0.000
-743.142	-200.000	0.048	0.346
-742.127	-200.000	-0.046	0.211
-741.112	-113.602	0.166	0.033
-740.098	-200.000	0.098	0.458
-739.083	-95.104	0.329	0.089
-738.069	800.000	-0.061	0.186
-737.054	-22.099	0.187	0.114
-736.039	-148.463	-0.177	-0.015
-735.025	-125.114	0.146	0.022
-734.010	49.491	0.087	0.082
-732.996	560.102	-0.072	0.175
-731.981	-145.330	0.348	0.032
-730.966	305.773	-0.082	-0.153
-729.952	54.957	-0.142	-0.138
-728.937	135.231	0.081	0.106
-727.923	800.000	-0.068	-0.256
-726.908	56.938	-0.276	0.269
-725.894	35.668	0.055	-0.048
-724.879	66.418	-0.172	0.175
-723.864	800.000	0.048	0.201
-722.850	800.000	-0.081	-0.317
-721.835	-200.000	0.010	-0.180
-720.821	16.662	0.163	0.130
-719.806	-200.000	0.070	-0.466
-718.791	-200.000	0.065	0.332
-717.777	-200.000	0.004	-0.143
-716.762	-200.000	0.045	-0.232
-715.748	360.664	0.124	-0.249
-714.733	326.995	0.112	0.216
-713.718	-35.766	-0.366	-0.199
-712.704	-151.288	-0.175	-0.013
-711.689	-174.366	-0.224	0.006
-710.675	-82.385	-0.318	-0.104
-709.660	-18.566	0.099	-0.062
-708.645	-106.126	-0.241	0.054
-707.631	506.253	-0.032	0.075
-706.616	-200.000	-0.018	-0.371
-705.602	155.378	0.087	0.120
-704.587	-33.546	0.048	-0.026
-703.572	-151.966	0.045	-0.003
-702.558	-200.000	-0.031	0.155
-701.543	105.272	-0.236	0.280
-700.529	722.501	-0.154	-0.410
-699.514	-133.375	-0.267	0.034
-698.499	5.340	0.178	0.132
-697.485	380.719	-0.064	-0.132
-696.470	85.593	0.085	0.094
-695.456	-66.222	-0.408	0.163
-694.441	114.895	-0.045	0.055
-693.426	-200.000	0.047	-0.252
-692.412	-50.585	0.153	0.072
-691.397	-43.641	0.159	0.080
-690.383	2.232	-0.057	-0.041
-689.368	-49.211	0.351	-0.168
-688.354	-102.281	-0.203	0.049
-687.339	-11.035	-0.115	0.076
-686.324	800.000	0.081	0.310
-685.310	45.222	-0.081	-0.075
-684.295	163.374	0.031	-0.043
-683.281	574.752	-0.092	0.225
-682.266	6.438	-0.106	0.079
-681.251	-129.026	-0.068	0.010
-680.237	-148.236	-0.139	0.012
-679.222	61.626	-0.151	0.151
-678.208	-167.257	0.299	0.012
-677.193	-200.000	-0.007	0.266
-676.178	-152.327	-0.085	-0.006
-675.164	-107.348	0.195	0.043
-674.149	-158.704	0.306	0.018
-673.135	-64.370	-0.359	0.146
-672.120	-20.723	0.099	0.061
-671.105	-200.000	-0.031	0.398
-670.091	-185.769	-0.035	0.001
-669.076	-45.723	-0.123	-0.061
-668.062	-166.700	-0.460	0.019
-667.047	371.227	0.103	-0.208
-666.032	710.819	-0.156	-0.414
-665.018	451.198	-0.062	-0.137
-664.003	-115.857	-0.258	-0.048
-662.989	-58.159	-0.153	0.067
-661.974	428.975	0.187	0.405
-660.959	800.000	-0.025	0.088
-659.945	-200.000	0.030	-0.328
-658.930	-200.000	0.004	0.100
-657.916	48.514	-0.388	-0.364
-656.901	335.837	-0.069	0.134
-655.886	-62.236	0.289	-0.121
-654.872	-150.266	-0.358	0.028
-653.857	-93.395	-0.057	-0.016
-652.843	38.701	0.264	-0.236
-651.828	58.977	-0.198	-0.195
-650.814	46.383	-0.075	-0.070
-649.799	-200.000	0.010	0.091
-648.784	-56.742	-0.202	-0.089
-647.770	-151.124	-0.368	0.028
-646.755	-200.000	0.010	-0.256
-645.741	-94.461	-0.161	0.044
-644.726	800.000	0.050	-0.180
-643.711	800.000	-0.075	-0.259
-642.697	647.999	-0.045	-0.115
-641.682	-200.000	-0.027	-0.192
-640.668	241.639	0.010	-0.016
-639.653	466.396	0.040	0.089
-638.638	-200.000	-0.033	-0.149
-637.624	-69.876	-0.210	-0.080
-636.609	-78.804	0.582	-0.199
-635.595	-200.000	-0.054	0.360
-634.580	103.412	-0.357	0.419
-633.565	14.698	-0.090	0.070
-632.551	800.000	0.039	-0.169
-631.536	131.573	-0.067	0.087
-630.522	39.383	-0.080	-0.072
-629.507	-200.000	0.010	0.127
-628.492	-106.641	-0.384	-0.085
-627.478	239.088	-0.145	-0.240
-626.463	-200.000	-0.009	0.155
-625.449	-189.067	-0.476	-0.006
-624.434	800.000	0.026	-0.113
-623.419	22.525	0.164	0.134
-622.405	143.563	-0.174	-0.231
-621.390	-193.033	-0.142	0.001
-620.376	130.265	0.178	0.228
-619.361	106.067	0.251	0.298
-618.346	-110.828	0.290	-0.060
-617.332	-200.000	-0.042	0.382
-616.317	-200.000	-0.001	-0.013
-615.303	105.776	0.115	-0.136
-614.288	-135.892	0.310	-0.037
-613.273	-164.885	-0.396	-0.018
-612.259	-200.000	0.012	-0.140
-611.244	-92.175	-0.073	0.021
-610.230	-200.000	0.021	0.094
-609.215	356.747	-0.016	0.032
-608.201	57.135	-0.260	0.253
-607.186	-107.016	-0.073	0.016
-606.171	-24.852	0.222	-0.132
-605.157	-13.003	-0.224	-0.146
-604.142	800.000	0.057	0.193
-603.128	-200.000	-0.012	-0.082
-602.113	-35.108	-0.124	-0.067
-601.098	-11.481	-0.329	0.216
-600.084	-200.000	-0.010	0.128
-599.069	798.361	-0.072	-0.198
-598.055	-109.223	0.269	-0.057
-597.040	-77.390	-0.261	0.090
-596.025	-200.000	0.013	-0.165
-595.011	-93.351	0.416	-0.115
-593.996	317.472	0.072	0.136
-592.982	-161.557	-0.184	-0.009
-591.967	-149.733	0.221	0.017
-590.952	241.475	-0.149	-0.249
-589.938	-66.787	-0.323	-0.127
-588.923	191.996	-0.163	-0.245
-587.909	477.651	-0.039	-0.087
-586.894	-13.236	0.169	0.110
-585.879	-110.143	-0.178	-0.037
-584.865	-186.739	0.101	0.001
-583.850	-89.443	0.178	-0.052
-582.836	171.433	0.116	-0.167
-581.821	88.825	-0.110	0.122
-580.806	-41.760	0.246	0.126
-579.792	34.348	0.140	0.122
-578.777	-200.000	-0.013	0.238
-577.763	-127.214	0.183	0.027
-576.748	448.114	-0.109	0.238
-575.733	-28.208	-0.231	-0.133
-574.719	-162.430	-0.310	-0.015
-573.704	-200.000	-0.059	0.449
-572.690	6.724	0.073	0.054
-571.675	800.000	0.053	-0.206
-570.661	124.804	0.162	-0.204
-569.646	115.545	0.058	-0.071
-568.631	578.213	-0.071	0.173
-567.617	-200.000	-0.031	-0.377
-566.602	-200.000	0.022	-0.295
-565.588	-149.936	0.337	0.026
-564.573	-15.522	-0.432	0.275
-563.558	-26.422	0.104	0.061
-562.544	-84.289	-0.227	0.072
-561.529	73.439	-0.100	-0.104
-560.515	800.000	0.024	0.086
-559.500	82.253	-0.240	-0.259
-558.485	122.944	-0.218	-0.272
-557.471	499.422	0.089	0.205
-556.456	180.810	0.051	-0.075
-555.442	109.725	-0.280	0.334
-554.427	65.150	-0.158	0.159
-553.412	-122.400	0.140	-0.023
-552.398	-106.226	0.050	0.011
-551.383	-137.115	-0.243	-0.028
-550.369	-200.000	0.006	-0.242
-549.354	-98.111	0.384	-0.098
-548.339	-120.581	0.138	-0.023
-547.325	-149.518	-0.153	-0.012
-546.310	-127.403	-0.188	0.027
-545.296	-42.569	-0.559	0.283
-544.281	61.104	-0.183	-0.181
-543.266	-78.176	0.247	-0.085
-542.252	-115.088	0.068	-0.013
-541.237	77.591	-0.162	-0.172
-540.223	571.523	-0.187	-0.455
-539.208	-143.614	0.162	0.015
-538.193	78.931	-0.203	-0.217
-537.179	-21.114	0.250	-0.152
-536.164	-200.000	0.033	-0.299
-535.150	-84.190	0.175	0.055
-534.135	-188.850	-0.238	-0.003
-533.121	59.232	-0.117	0.114
-532.106	-200.000	-0.010	0.113
-531.091	-168.281	-0.400	0.015
-530.077	61.413	-0.018	0.018
-529.062	33.870	-0.010	-0.008
-528.048	-62.107	0.347	-0.144
-527.033	160.905	0.065	-0.091
-526.018	800.000	0.166	0.465
-525.004	-200.000	-0.011	0.157
-523.989	-18.717	0.370	-0.230
-522.975	-25.852	0.100	0.059
-521.960	-63.341	-0.111	0.045
-520.945	39.612	0.138	-0.123
-519.931	800.000	-0.082	-0.254
-518.916	-39.743	0.188	-0.098
-517.902	800.000	-0.054	-0.236
-516.887	384.478	0.060	-0.122
-515.872	282.646	-0.289	-0.517
-514.858	230.342	0.095	-0.154
-513.843	-42.840	0.049	-0.025
-512.829	-112.034	0.262	-0.053
-511.814	153.453	-0.115	0.157
-510.799	687.299	-0.086	-0.224
-509.785	737.366	0.037	0.098
-508.770	125.804	-0.059	0.075
-507.756	-83.644	0.279	0.089
-506.741	43.757	-0.074	-0.068
-505.726	800.000	-0.028	-0.107
-504.712	800.000	0.053	-0.161
-503.697	540.590	0.063	0.150
-502.683	450.079	-0.230	0.505
-501.668	-76.715	0.106	0.037
-500.653	-44.399	0.267	-0.133
-499.639	-77.001	-0.085	0.030
-498.624	751.480	0.125	-0.335
-497.610	85.229	0.204	-0.222
-496.595	-75.815	-0.083	0.029
-495.581	75.832	-0.257	-0.270
-494.566	-49.112	-0.334	0.159
-493.551	10.435	0.380	-0.288
-492.537	-200.000	0.024	-0.317
-491.522	800.000	-0.111	0.314
-490.508	-125.364	0.100	0.015
-489.493	751.183	0.120	0.322
-488.478	207.236	-0.061	0.094
-487.464	-162.463	0.291	0.014
-486.449	42.701	-0.032	-0.029
-485.435	-98.881	0.122	-0.031
-484.420	800.000	0.025	0.073
-483.405	-200.000	0.012	0.077
-482.391	-135.223	0.202	0.024
-481.376	-200.000	-0.006	0.221
-480.362	800.000	0.080	-0.258
-479.347	-101.633	0.271	0.065
-478.332	-200.000	0.011	-0.087
-477.318	-200.000	0.025	0.216
-476.303	800.000	-0.049	0.191
-475.289	31.820	-0.160	-0.137
-474.274	116.290	0.147	-0.179
-473.259	65.049	0.129	-0.130
-472.245	65.296	0.115	0.116
-471.230	292.276	0.054	0.097
-470.216	30.490	-0.090	-0.077
-469.201	68.778	-0.006	0.006
-468.186	414.566	-0.239	0.505
-467.172	165.263	0.181	0.255
-466.157	64.307	0.247	-0.247
-465.143	546.963	0.047	0.113
-464.128	-81.130	-0.259	-0.085
-463.113	-200.000	-0.012	0.111
-462.099	800.000	-0.076	0.275
-461.084	-97.131	0.097	0.025
-460.070	206.992	0.148	-0.229
-459.055	-58.025	-0.436	0.189
-458.040	800.000	-0.033	0.128
-457.026	20.218	0.317	0.254
-456.011	800.000	-0.045	0.191
-454.997	142.489	0.068	-0.089
-453.982	148.218	-0.168	0.226
-452.968	548.658	0.073	-0.173
-451.953	40.018	0.307	-0.274
-450.938	141.365	0.198	0.260
-449.924	-200.000	-0.030	0.227
-448.909	399.423	-0.104	-0.216
-447.895	-13.836	-0.022	-0.014
-446.880	28.217	0.200	0.168
-445.865	84.511	0.165	0.179
-444.851	35.281	0.108	0.094
-443.836	-85.941	-0.013	-0.004
-442.822	-168.960	0.277	-0.010
-441.807	291.441	-0.057	0.104
-440.792	-77.058	0.287	0.099
-439.778	16.969	-0.092	0.073
-438.763	-12.123	0.112	0.073
-437.749	440.533	-0.120	-0.260
-436.734	-32.488	-0.147	0.082
-435.719	-21.552	0.163	-0.099
-434.705	174.135	-0.098	0.141
-433.690	-115.678	-0.094	-0.018
-432.676	-200.000	-0.008	0.157
-431.661	-200.000	0.013	0.460
-430.646	800.000	0.106	0.351
-429.632	393.988	-0.216	0.447
-428.617	-15.505	0.215	-0.136
-427.603	-200.000	-0.054	-0.255
-426.588	45.137	-0.018	0.016
-425.573	-63.245	0.190	0.078
-424.559	27.482	-0.058	0.049
-423.544	-60.165	-0.232	0.098
-422.530	486.662	0.091	0.206
-421.515	-78.290	-0.189	-0.064
-420.500	-200.000	-0.012	-0.101
-419.486	-147.294	0.495	-0.042
-418.471	51.974	-0.328	-0.309
-417.457	-12.231	0.158	0.102
-416.442	-116.775	0.509	-0.092
-415.428	800.000	0.041	-0.132
-414.413	321.903	-0.167	-0.316
-413.398	642.389	-0.059	-0.150
-412.384	31.717	0.066	-0.057
-411.369	18.066	-0.232	0.183
-410.355	-106.275	0.386	-0.086
-409.340	-200.000	-0.104	0.475
-408.325	-14.437	-0.129	-0.082
-407.311	-8.000	-0.002	0.001
-406.296	790.017	-0.039	-0.106
-405.282	-200.000	0.022	0.191
-404.267	-72.296	0.119	-0.044
-403.252	-167.714	-0.248	0.010
-402.238	141.679	0.191	-0.251
-401.223	-60.780	-0.064	0.027
-400.209	-19.532	-0.086	0.053
-399.194	11.574	-0.041	0.031
-398.179	48.478	-0.299	0.277
-397.165	-53.057	-0.122	0.056
-396.150	800.000	0.071	-0.294
-395.136	800.000	-0.019	0.062
-394.121	691.645	0.021	-0.054
-393.106	-26.103	-0.200	-0.116
-392.092	-200.000	-0.035	0.285
-391.077	800.000	0.055	-0.222
-390.063	-82.590	0.364	-0.117
-389.048	800.000	-0.046	0.187
-388.033	-200.000	0.040	0.267
-387.019	351.950	0.098	0.192
-386.004	-200.000	-0.008	0.280
-384.990	380.649	0.118	0.240
-383.975	234.732	0.104	-0.170
-382.960	800.000	0.023	-0.065
-381.946	800.000	0.048	0.154
-380.931	-200.000	-0.038	-0.172
-379.917	800.000	-0.017	-0.066
-378.902	-27.821	0.263	0.151
-377.888	-90.414	-0.241	-0.069
-376.873	-2.319	0.158	0.110
-375.858	-190.801	0.235	0.002
-374.844	-51.166	0.110	0.051
-373.829	-47.464	0.131	-0.063
-372.815	-114.646	-0.201	-0.038
-371.800	-69.405	0.155	0.059
-370.785	-128.259	-0.228	0.032
-369.771	-17.803	0.281	-0.174
-368.756	-52.369	0.357	0.163
-367.742	800.000	0.066	-0.216
-366.727	-75.863	-0.196	0.069
-365.712	800.000	-0.083	0.344
-364.698	800.000	-0.070	-0.247
-363.683	130.049	0.200	-0.253
-362.669	721.985	-0.100	0.263
-361.654	-94.624	-0.300	-0.081
-360.639	-137.266	0.063	0.007
-359.625	800.000	0.096	-0.404
-358.610	800.000	0.028	-0.112
-357.596	131.399	-0.134	-0.170
-356.581	-200.000	-0.005	0.272
-355.566	800.000	0.059	0.248
-354.552	-106.001	-0.279	0.062
-353.537	800.000	-0.099	0.311
-352.523	-62.827	-0.188	0.077
-351.508	558.415	0.058	-0.140
-350.493	-88.452	-0.362	0.107
-349.479	53.231	0.331	-0.313
-348.464	327.913	-0.252	-0.479
-347.450	-104.556	0.263	-0.060
-346.435	527.593	-0.100	0.234
-345.420	-124.959	0.222	0.034
-344.406	75.630	-0.183	-0.191
-343.391	-55.827	-0.244	0.108
-342.377	2.464	0.122	0.087
-341.362	614.016	0.013	-0.032
-340.348	-87.586	0.592	-0.177
-339.333	32.683	0.077	0.066
-338.318	-118.152	-0.185	-0.033
-337.304	592.968	0.070	0.171
-336.289	50.093	-0.124	0.116
-335.275	162.671	0.089	0.123
-334.260	-200.000	-0.011	-0.141
-333.245	-200.000	0.001	-0.181
-332.231	481.847	-0.061	0.136
-331.216	694.337	0.139	0.361
-330.202	-200.000	-0.036	-0.155
-329.187	53.284	0.255	-0.242
-328.172	-200.000	0.040	0.228
-327.158	-176.765	0.286	-0.007
-326.143	-200.000	0.210	0.000
-325.129	29.470	-0.255	0.214
-324.114	-200.000	0.006	-0.307
-323.099	-151.453	-0.056	0.004
-322.085	23.465	0.040	-0.033
-321.070	493.120	0.081	-0.183
-320.056	219.829	-0.124	0.196
-319.041	119.852	0.191	-0.234
-318.026	-82.462	0.191	0.061
-317.012	800.000	0.033	-0.138
-315.997	-163.726	0.104	0.005
-314.983	800.000	0.088	-0.332
-313.968	45.264	-0.099	-0.090
-312.953	-23.564	0.078	0.046
-311.939	-116.977	-0.283	-0.051
-310.924	-200.000	0.064	0.300
-309.910	306.732	0.069	-0.128
-308.895	-142.077	0.132	0.013
-307.880	800.000	-0.037	-0.121
-306.866	663.529	0.072	-0.183
-305.851	-114.202	0.271	0.052
-304.837	-200.000	0.001	0.027
-303.822	94.426	-0.140	0.157
-302.807	41.813	0.057	0.051
-301.793	800.000	0.020	0.075
-300.778	800.000	0.069	0.293
-299.764	-60.617	-0.253	0.106
-298.749	370.919	0.165	0.330
-297.735	35.710	-0.112	0.097
-296.720	800.000	0.081	-0.267
-295.705	223.357	0.128	-0.204
-294.691	800.000	0.108	0.347
-293.676	-56.052	0.086	0.038
-292.662	-200.000	0.032	-0.155
-291.647	-91.919	-0.217	0.061
-290.632	286.549	0.214	-0.381
-289.618	134.827	0.021	-0.027
-288.603	-132.487	-0.169	-0.021
-287.589	-44.843	0.212	0.104
-286.574	-4.958	0.079	0.054
-285.559	0.648	0.069	0.048
-284.545	-200.000	-0.004	0.328
-283.530	-200.000	-0.075	-0.391
-282.516	800.000	-0.049	0.159
-281.501	-99.490	0.277	0.069
-280.486	-200.000	-0.004	0.373
-279.472	-200.000	0.013	0.121
-278.457	-200.000	0.008	0.132
-277.443	-152.355	0.146	0.010
-276.428	-149.599	0.114	0.009
-275.413	-200.000	0.024	0.105
-274.399	167.030	-0.155	0.216
-273.384	-73.755	-0.235	0.084
-272.370	40.510	0.154	-0.137
-271.355	-167.224	0.109	-0.004
-270.340	345.923	-0.112	0.216
-269.326	-50.122	-0.503	-0.235
-268.311	453.964	-0.063	-0.138
-267.297	275.457	0.030	-0.053
-266.282	-1.737	-0.140	0.097
-265.267	-115.566	0.180	-0.033
-264.253	-128.489	-0.207	0.029
-263.238	129.522	0.058	-0.073
-262.224	-119.530	-0.337	-0.058
-261.209	8.365	0.142	0.105
-260.195	120.433	0.232	0.284
-259.180	31.175	0.099	-0.083
-258.165	-200.000	-0.022	0.141
-257.151	-200.000	0.040	-0.178
-256.136	800.000	-0.048	-0.150
-255.122	539.576	-0.056	-0.132
-254.107	-200.000	-0.032	-0.455
-253.092	-200.000	0.014	0.108
-252.078	62.794	0.139	-0.137
-251.063	-171.572	-0.092	-0.003
-250.049	-200.000	-0.039	-0.458
-249.034	9.170	0.193	0.143
-248.019	40.284	-0.307	0.272
-247.005	8.487	0.059	0.043
-245.990	-43.111	-0.224	-0.112
-244.976	800.000	0.102	-0.314
-243.961	800.000	-0.084	-0.289
-242.946	63.377	0.229	0.226
-241.932	-200.000	-0.041	0.247
-240.917	63.583	0.148	-0.146
-239.903	-132.038	0.268	-0.034
-238.888	71.019	-0.083	-0.085
-237.873	-138.633	-0.119	0.013
-236.859	800.000	-0.050	0.170
-235.844	99.277	-0.118	-0.134
-234.830	-19.240	-0.036	0.022
-233.815	86.284	-0.211	0.228
-232.800	386.292	-0.087	0.176
-231.786	-200.000	-0.006	-0.030
-230.771	599.297	0.243	-0.594
-229.757	-116.036	-0.129	0.024
-228.742	-103.771	-0.131	0.030
-227.727	-172.365	-0.391	0.012
-226.713	-191.359	0.366	0.004
-225.698	57.999	-0.273	0.263
-224.684	41.602	-0.389	0.346
-223.669	-200.000	0.003	-0.241
-222.655	73.571	0.104	-0.107
-221.640	410.042	-0.115	0.240
-220.625	-200.000	-0.031	-0.135
-219.611	121.640	0.034	-0.041
-218.596	-13.819	0.192	0.122
-217.582	-200.000	-0.017	-0.085
-216.567	217.688	0.140	0.219
-215.552	-102.456	-0.283	-0.067
-214.538	-12.218	0.294	-0.189
-213.523	148.744	-0.130	-0.173
-212.509	-200.000	0.009	0.068
-211.494	-139.837	0.267	0.028
-210.479	246.759	-0.109	0.181
-209.465	357.660	0.137	-0.268
-208.450	-59.910	0.178	0.075
-207.436	132.740	-0.244	-0.309
-206.421	233.087	0.130	-0.211
-205.406	736.423	-0.081	0.213
-204.392	-106.753	0.098	-0.021
-203.377	-99.395	0.105	-0.026
-202.363	68.842	-0.216	0.218
-201.348	-110.276	0.131	0.027
-200.333	80.009	-0.018	0.018
-199.319	-200.000	-0.017	-0.204
-198.304	116.660	-0.090	-0.108
-197.290	-165.459	-0.230	0.010
-196.275	-200.000	0.041	-0.236
-195.260	-40.163	-0.289	-0.148
-194.246	94.970	0.246	-0.275
-193.231	-19.448	0.363	0.221
-192.217	-33.428	-0.218	0.118
-191.202	-200.000	0.014	-0.200
-190.187	154.170	-0.118	0.160
-189.173	112.075	0.053	0.062
-188.158	-142.198	-0.246	0.024
-187.144	37.704	-0.236	0.206
-186.129	-104.958	-0.542	-0.122
-185.114	-200.000	-0.008	-0.057
-184.100	-55.019	-0.129	-0.057
-183.085	-127.202	0.210	-0.030
-182.071	46.419	0.232	0.211
-181.056	-118.341	-0.154	-0.027
-180.042	268.090	0.095	-0.164
-179.027	51.428	-0.142	0.133
-178.012	-20.320	-0.154	-0.093
-176.998	16.437	0.355	0.276
-175.983	1.048	0.168	0.118
-174.969	456.547	0.073	0.159
-173.954	202.029	-0.035	-0.053
-172.939	-200.000	0.001	-0.181
-171.925	137.643	0.043	0.056
-170.910	414.101	0.118	0.246
-169.896	-200.000	0.036	0.489
-168.881	237.439	-0.161	0.263
-167.866	-36.405	-0.228	-0.121
-166.852	24.287	0.124	-0.100
-165.837	800.000	0.016	-0.043
-164.823	-200.000	-0.050	-0.331
-163.808	408.211	0.129	-0.268
-162.793	-99.174	-0.073	0.018
-161.779	-200.000	0.050	0.344
-160.764	100.172	-0.057	0.064
-159.750	72.205	-0.058	0.060
-158.735	-12.229	-0.195	-0.125
-157.720	256.147	-0.072	-0.121
-156.706	728.287	-0.024	0.062
-155.691	-79.203	-0.421	-0.140
-154.677	-200.000	-0.002	0.046
-153.662	-38.394	0.395	-0.205
-152.647	6.049	-0.178	-0.129
-151.633	-200.000	0.001	-0.248
-150.618	-44.721	0.225	-0.110
-149.604	33.075	0.083	-0.071
-148.589	570.393	-0.058	0.137
-147.574	643.276	0.092	0.230
-146.560	641.507	0.054	-0.136
-145.545	102.550	-0.117	0.134
-144.531	29.619	0.149	0.125
-143.516	-54.852	-0.161	-0.071
-142.502	-200.000	-0.035	-0.260
-141.487	-130.044	-0.114	0.015
-140.472	-200.000	-0.011	0.105
-139.458	-12.135	-0.214	-0.137
-138.443	-200.000	-0.023	0.123
-137.429	-87.558	0.182	-0.054
-136.414	1.121	-0.233	0.164
-135.399	157.096	0.044	0.060
-134.385	800.000	-0.079	0.242
-133.370	7.615	0.239	0.175
-132.356	-66.466	-0.221	-0.086
-131.341	13.995	-0.200	0.152
-130.326	-200.000	-0.011	-0.115
-129.312	-71.492	0.090	-0.033
-128.297	-107.192	0.278	0.060
-127.283	15.160	-0.216	0.166
-126.268	-96.331	0.307	-0.080
-125.253	-200.000	0.011	-0.287
-124.239	44.252	0.446	0.401
-123.224	-109.393	0.161	0.033
-122.210	-149.824	-0.209	-0.016
-121.195	-107.725	0.228	0.049
-120.180	-49.273	-0.222	-0.104
-119.166	192.281	0.098	0.145
-118.151	609.773	-0.032	-0.079
-117.137	-200.000	0.047	-0.275
-116.122	155.500	0.134	-0.181
-115.107	738.766	-0.179	-0.470
-114.093	-200.000	-0.078	-0.000
-113.078	66.691	0.194	0.193
-112.064	-150.975	-0.154	0.011
-111.049	-128.930	0.092	0.013
-110.034	188.949	-0.207	-0.303
-109.020	-200.000	-0.017	0.154
-108.005	800.000	-0.027	0.093
-106.991	800.000	0.120	-0.359
-105.976	133.043	0.104	-0.132
-104.962	-47.736	-0.202	0.096
-103.947	328.506	0.124	-0.234
-102.932	-104.315	-0.082	-0.019
-101.918	358.773	-0.014	-0.028
-100.903	286.255	-0.097	-0.171
-99.889	-33.426	0.070	0.038
-98.874	234.840	-0.107	0.172
-97.859	-200.000	0.015	-0.231
-96.845	800.000	0.112	0.403
-95.830	205.600	0.150	0.229
-94.816	204.091	0.092	0.139
-93.801	-11.529	0.040	0.026
-92.786	-1.863	0.160	-0.110
-91.772	-200.000	0.010	0.096
-90.757	0.653	-0.262	0.184
-89.743	-200.000	-0.022	-0.337
-88.728	-200.000	0.014	-0.112
-87.713	800.000	0.060	0.258
-86.699	-200.000	-0.006	0.087
-85.684	-49.693	0.101	0.047
-84.670	-97.352	-0.230	-0.059
-83.655	152.250	0.069	0.092
-82.640	180.522	0.075	-0.107
-81.626	-22.197	0.093	-0.055
-80.611	778.990	0.012	0.031
-79.597	-200.000	0.000	0.089
-78.582	-124.788	0.320	0.048
-77.567	12.077	-0.145	0.109
-76.553	-148.887	-0.221	0.017
-75.538	800.000	-0.033	0.127
-74.524	333.436	0.115	0.218
-73.509	-19.009	-0.128	0.078
-72.494	56.128	0.202	-0.192
-71.480	-95.113	0.045	0.012
-70.465	-200.000	0.022	0.158
-69.451	-112.201	-0.296	-0.058
-68.436	548.340	0.147	0.344
-67.422	-57.581	-0.304	-0.130
-66.407	-200.000	0.004	-0.076
-65.392	41.647	-0.261	0.231
-64.378	116.408	-0.135	0.162
-63.363	-200.000	-0.049	0.252
-62.349	17.490	0.324	0.252
-61.334	65.328	-1.094	-1.082
-60.319	3.647	0.547	0.390
-59.305	380.584	-0.583	-1.169
-58.290	643.805	0.534	1.332
-57.276	800.000	0.504	1.471
-56.261	-200.000	116.739	646.263
-55.246	505.561	1539.893	3487.024
-54.232	175.514	2711.027	3841.498
-53.217	106.034	2154.689	2492.994
-52.203	38.162	1588.806	1381.912
-51.188	29.922	1330.494	1108.113
-50.173	27.070	1291.871	1059.298
-49.159	53.512	1350.376	1265.734
-48.144	51.801	1364.041	1268.306
-47.130	30.062	1318.405	1098.702
-46.115	26.636	1299.985	1063.239
-45.100	26.411	1295.008	1057.805
-44.086	26.285	1292.246	1054.771
-43.071	26.259	1290.071	1052.803
-42.057	26.316	1287.622	1051.097
-41.042	26.375	1286.228	1050.261
-40.027	26.437	1284.671	1049.306
-39.013	26.398	1282.704	1047.432
-37.998	26.379	1281.094	1045.963
-36.984	26.486	1279.429	1045.181
-35.969	26.519	1277.307	1043.598
-34.954	26.512	1275.578	1042.104
-33.940	26.515	1274.625	1041.304
-32.925	26.685	1272.671	1040.640
-31.911	26.575	1271.345	1038.882
-30.896	26.530	1270.401	1037.816
-29.881	26.681	1268.493	1037.080
-28.867	26.628	1267.777	1036.146
-27.852	26.665	1266.059	1034.916
-26.838	26.565	1264.669	1033.165
-25.823	26.601	1263.225	1032.148
-24.809	26.549	1262.096	1030.894
-23.794	26.563	1260.374	1029.526
-22.779	26.557	1259.099	1028.407
-21.765	26.564	1258.292	1027.748
-20.750	26.572	1257.361	1026.990
-19.736	26.465	1255.854	1025.116
-18.721	26.501	1254.601	1024.255
-17.706	26.524	1253.493	1023.440
-16.692	26.432	1252.500	1022.070
-15.677	26.486	1251.562	1021.563
-14.663	26.430	1249.861	1019.819
-13.648	26.322	1249.115	1018.561
-12.633	26.424	1247.721	1017.962
-11.619	26.416	1247.121	1017.384
-10.604	26.523	1246.518	1017.453
-9.590	26.488	1245.297	1016.221
-8.575	26.477	1244.132	1015.171
-7.560	26.471	1243.369	1014.475
-6.546	26.372	1242.864	1013.466
-5.531	26.356	1242.128	1012.732
-4.517	26.413	1241.207	1012.265
-3.502	26.457	1240.173	1011.623
-2.487	26.508	1238.958	1010.882
-1.473	26.428	1235.005	1007.166
-0.458	25.009	1220.295	987.319
0.556	21.855	1204.400	951.773
1.571	18.253	1210.205	936.602
2.586	17.556	1225.048	944.143
3.600	17.132	1213.422	932.772
4.615	12.892	1142.583	856.261
5.629	6.047	1072.427	770.154
6.644	3.278	1054.452	743.816
7.659	3.191	1052.056	741.644
8.673	3.200	1051.308	741.092
9.688	3.181	1049.947	739.976
10.702	3.369	1048.015	739.451
11.717	7.090	1053.257	761.005
12.731	14.380	1063.522	803.632
13.746	18.963	1068.632	829.582
14.761	19.504	1069.366	832.690
15.775	18.825	1067.336	827.766
16.790	17.816	1065.562	821.458
17.804	17.124	1063.782	816.690
18.819	16.753	1063.333	814.489
19.834	16.539	1062.666	812.875
20.848	16.357	1061.733	811.217
21.863	16.129	1060.781	809.324
22.877	16.126	1059.948	808.604
23.892	16.069	1058.976	807.516
24.907	16.076	1058.917	807.435
25.921	16.177	1057.622	806.857
26.936	16.156	1056.251	805.642
27.950	16.140	1054.958	804.506
28.965	16.229	1053.842	804.008
29.980	16.381	1052.184	803.396
30.994	16.433	1051.052	802.706
32.009	16.408	1050.044	801.747
33.023	16.417	1048.944	800.879
34.038	16.382	1047.885	799.833
35.053	16.333	1046.772	798.680
36.067	16.296	1045.923	797.786
37.082	16.330	1045.300	797.402
38.096	16.421	1044.560	797.199
39.111	16.367	1044.132	796.545
40.126	16.197	1042.276	794.258
41.140	16.004	1041.225	792.481
42.155	15.869	1040.124	790.937
43.169	15.819	1038.939	789.732
44.184	15.859	1037.900	789.059
45.199	16.046	1036.761	788.997
46.213	16.001	1035.778	787.969
47.228	16.175	1035.347	788.389
48.242	16.167	1034.207	787.410
49.257	16.239	1032.978	786.742
50.271	16.183	1032.373	785.953
51.286	16.275	1031.731	785.821
52.301	16.241	1030.297	784.501
53.315	16.307	1029.222	783.921
54.330	15.946	1028.512	781.633
55.344	16.016	1027.628	781.217
56.359	16.057	1026.787	780.698
57.374	15.966	1025.720	779.399
58.388	15.954	1024.509	778.351
59.403	15.929	1023.636	777.507
60.417	15.870	1023.307	776.916
61.432	15.965	1022.268	776.495
62.447	15.717	1021.393	774.621
63.461	15.802	1020.520	774.280
64.476	15.810	1019.528	773.497
65.490	15.725	1019.221	772.806
66.505	15.795	1018.140	772.239
67.520	15.939	1017.523	772.362
68.534	15.859	1016.935	771.479
69.549	16.030	1015.534	771.133
70.563	15.747	1015.090	769.433
71.578	15.634	1014.521	768.416
72.593	15.809	1013.079	768.054
73.607	15.676	1012.825	767.187
74.622	15.691	1012.091	766.632
75.636	15.772	1011.674	766.617
76.651	15.826	1010.528	765.929
77.666	15.662	1010.366	764.989
78.680	15.667	1009.650	764.404
79.695	15.862	1008.614	764.434
80.709	15.930	1008.101	764.290
81.724	15.940	1007.878	764.098
82.739	15.878	1007.340	763.342
83.753	16.171	1006.720	764.132
84.768	16.423	1005.260	764.093
85.782	16.519	1004.509	763.890
86.797	16.479	1003.827	763.122
87.812	16.263	1002.958	761.419
88.826	16.313	1001.999	760.850
89.841	16.323	1001.694	760.597
90.855	16.485	999.567	759.643
91.870	16.377	999.815	759.280
92.884	16.390	998.816	758.511
93.899	16.329	997.610	757.253
94.914	16.496	996.774	757.302
95.928	16.466	995.779	756.345
96.943	16.387	995.360	755.607
97.957	16.366	994.276	754.621
98.972	16.465	993.357	754.299
99.987	16.465	992.305	753.434
101.001	16.336	991.788	752.401
102.016	16.308	990.683	751.372
103.030	16.334	990.308	751.136
104.045	16.449	989.305	750.819
105.060	16.279	988.316	749.249
106.074	16.096	987.017	747.385
107.089	15.916	986.191	745.896
108.103	15.984	985.470	745.585
109.118	15.880	984.369	744.226
110.133	15.826	983.486	743.257
111.147	15.923	982.552	742.911
112.162	15.992	981.731	742.529
113.176	16.129	981.019	742.529
114.191	16.148	980.440	742.106
115.206	16.014	979.562	740.788
116.220	16.134	978.906	740.754
117.235	16.095	977.781	739.667
118.249	16.080	976.419	738.504
119.264	15.919	976.336	737.669
120.279	15.926	975.629	737.102
121.293	15.913	974.660	736.248
122.308	15.993	973.371	735.559
123.322	15.887	972.148	734.106
124.337	15.889	971.566	733.610
125.352	15.786	970.530	732.316
126.366	15.805	969.489	731.548
127.381	15.778	967.928	730.187
128.395	15.862	967.673	730.297
129.410	15.824	966.816	729.421
130.424	16.016	965.669	729.322
131.439	16.207	965.014	729.588
132.454	16.095	964.168	728.399
133.468	16.084	963.653	727.897
134.483	15.925	962.870	726.558
135.497	16.078	961.658	726.237
136.512	16.111	961.236	725.995
137.527	16.139	960.428	725.441
138.541	16.160	959.686	724.907
139.556	16.149	959.478	724.639
140.570	16.274	958.784	724.589
141.585	16.464	958.007	724.751
142.600	16.417	956.954	723.690
143.614	16.392	956.517	723.189
144.629	16.524	955.563	722.967
145.643	16.469	954.342	721.743
146.658	16.354	953.171	720.303
147.673	16.259	952.587	719.397
148.687	16.139	951.517	718.013
149.702	16.109	950.982	717.418
150.716	16.124	950.223	716.844
151.731	16.108	949.810	716.401
152.746	16.118	949.094	715.842
153.760	16.250	948.171	715.642
154.775	16.399	947.600	715.777
155.789	16.421	946.940	715.310
156.804	16.526	945.638	714.706
157.819	16.443	945.474	714.168
158.833	16.581	944.935	714.280
159.848	16.637	944.078	713.807
160.862	16.611	942.812	712.676
161.877	16.354	941.896	710.841
162.892	16.210	940.672	709.248
163.906	16.255	939.549	708.528
164.921	16.271	939.269	708.321
165.935	16.366	938.319	707.938
166.950	16.366	937.670	707.387
167.964	16.381	936.625	706.597
168.979	16.381	935.567	705.740
169.994	16.260	934.927	704.687
171.008	16.417	934.101	704.657
172.023	16.474	933.628	704.476
173.037	16.532	932.996	704.179
174.052	16.532	932.068	703.415
175.067	16.264	931.654	701.925
176.081	16.245	930.876	701.199
177.096	16.326	930.477	701.173
178.110	16.298	929.670	700.387
179.125	16.357	929.115	700.153
180.140	16.427	928.878	700.200
181.154	16.427	928.355	699.746
182.169	16.662	927.649	700.124
183.183	16.684	926.539	699.313
184.198	16.595	926.586	698.918
185.213	16.721	925.634	698.660
186.227	16.654	925.059	697.888
187.242	16.833	924.131	697.866
188.256	16.941	923.753	697.962
189.271	16.788	923.241	696.882
190.286	16.403	922.423	694.621
191.300	16.339	921.091	693.292
192.315	16.207	920.451	692.208
193.329	16.169	920.433	691.977
194.344	16.540	919.227	692.532
195.359	16.419	918.863	691.698
196.373	16.579	918.540	692.051
197.388	16.804	918.167	692.628
198.402	16.829	917.641	692.273
199.417	16.957	916.940	692.205
200.432	16.885	916.697	691.668
201.446	17.105	915.464	691.572
202.461	17.105	915.645	691.646
203.475	17.069	914.929	690.897
204.490	16.969	913.614	689.437
205.504	16.765	912.970	688.061
206.519	16.802	912.065	687.469
207.534	16.823	911.928	687.388
208.548	16.745	911.114	686.398
209.563	16.742	910.378	685.773
210.577	16.818	909.782	685.569
211.592	17.051	909.483	686.225
212.607	17.062	908.462	685.440
213.621	17.035	907.820	684.786
214.636	17.056	907.020	684.203
215.650	17.138	906.069	683.759
216.665	17.071	905.504	683.000
217.680	17.238	905.095	683.305
218.694	17.208	904.652	682.789
219.709	17.259	903.923	682.382
220.723	17.209	903.086	681.491
221.738	17.137	902.623	680.791
222.753	17.229	901.665	680.375
223.767	17.225	901.385	680.090
224.782	17.350	900.767	680.064
225.796	17.200	900.630	679.299
226.811	17.294	899.643	678.872
227.826	17.162	898.839	677.677
228.840	17.131	897.959	676.829
229.855	17.208	897.444	676.688
230.869	17.068	896.599	675.436
231.884	17.093	895.926	674.969
232.899	17.096	894.998	674.222
233.913	16.932	894.687	673.275
234.928	17.007	893.678	672.755
235.942	17.028	893.254	672.461
236.957	16.877	893.191	671.753
237.972	17.084	892.065	671.666
238.986	17.124	891.224	671.132
240.001	17.122	890.938	670.849
241.015	17.026	890.488	670.071
242.030	17.222	889.603	670.118
243.045	17.337	888.963	670.031
244.059	17.227	888.397	669.114
245.074	17.325	888.021	669.155
246.088	17.380	887.401	668.846
247.103	17.490	886.886	668.829
248.117	17.470	886.643	668.509
249.132	17.715	886.188	669.070
250.147	17.860	885.509	669.064
251.161	17.856	884.917	668.541
252.176	17.856	883.993	667.787
253.190	17.942	883.630	667.791
254.205	17.852	882.893	666.820
255.220	17.996	882.170	666.779
256.234	17.990	881.594	666.260
257.249	17.896	880.995	665.384
258.263	17.876	880.216	664.656
259.278	17.975	879.511	664.450
260.293	18.055	879.380	664.604
261.307	17.877	878.883	663.480
262.322	18.130	878.353	664.001
263.336	18.088	876.990	662.749
264.351	18.081	876.515	662.307
265.366	18.141	875.493	661.705
266.380	18.024	875.188	660.964
267.395	17.967	874.317	660.029
268.409	18.038	873.325	659.495
269.424	17.957	872.852	658.767
270.439	17.994	872.403	658.513
271.453	17.935	871.428	657.491
272.468	17.712	871.113	656.338
273.482	17.878	870.355	656.346
274.497	17.835	870.126	655.951
275.512	17.921	869.479	655.736
276.526	18.071	868.578	655.575
277.541	18.180	868.166	655.623
278.555	18.111	867.909	655.106
279.570	18.354	866.930	655.240
280.585	18.158	866.721	654.274
281.599	18.062	865.722	653.095
282.614	18.162	864.900	652.799
283.628	17.964	864.387	651.599
284.643	18.006	863.922	651.348
285.657	18.026	863.564	651.099
286.672	18.239	862.397	650.970
287.687	18.087	862.035	650.063
288.701	18.084	861.739	649.771
289.716	18.175	860.813	649.359
290.730	18.141	860.417	648.875
291.745	18.228	859.735	648.631
292.760	18.371	859.189	648.707
293.774	18.416	858.431	648.245
294.789	18.365	857.909	647.603
295.803	18.311	857.159	646.774
296.818	18.098	856.660	645.536
297.833	18.247	855.970	645.521
298.847	18.372	855.011	645.210
299.862	18.331	854.801	644.843
300.876	18.406	854.495	644.837
301.891	18.483	853.911	644.628
302.906	18.555	852.998	644.151
303.920	18.672	852.991	644.530
304.935	18.694	852.483	644.171
305.949	18.562	851.472	642.855
306.964	18.569	850.627	642.185
307.979	18.490	850.298	641.585
308.993	18.646	849.636	641.611
310.008	18.573	849.313	641.039
311.022	18.462	848.844	640.215
312.037	18.417	847.968	639.330
313.052	18.456	847.140	638.793
314.066	18.312	846.765	637.917
315.081	18.186	846.467	637.166
316.095	18.358	845.357	636.915
317.110	18.244	845.368	636.441
318.125	18.341	844.785	636.308
319.139	18.519	844.148	636.431
320.154	18.432	843.694	635.713
321.168	18.287	843.494	634.966
322.183	18.443	842.341	634.619
323.197	18.521	842.027	634.618
324.212	18.596	841.605	634.519
325.227	18.476	841.035	633.592
326.241	18.513	840.614	633.355
327.256	18.451	839.853	632.495
328.270	18.431	839.689	632.241
329.285	18.482	838.775	631.685
330.300	18.358	838.152	630.704
331.314	18.705	837.379	631.342
332.329	18.651	837.189	630.945
333.343	18.619	837.118	630.719
334.358	18.626	836.895	630.520
335.373	18.709	835.904	630.022
336.387	18.743	835.532	629.811
337.402	18.787	835.794	630.114
338.416	18.865	835.385	630.036
339.431	19.009	834.698	629.991
340.446	19.076	834.403	629.957
341.460	19.051	833.944	629.464
342.475	19.170	833.370	629.409
343.489	19.140	833.007	628.969
344.504	19.148	832.768	628.763
345.519	19.212	832.172	628.491
346.533	19.132	831.810	627.869
347.548	19.055	830.996	626.920
348.562	18.998	830.221	626.071
349.577	18.913	829.487	625.153
350.592	18.854	829.202	624.669
351.606	18.768	828.583	623.834
352.621	18.889	827.619	623.494
353.635	19.099	827.176	623.867
354.650	18.951	826.448	622.725
355.665	19.029	825.827	622.484
356.679	19.070	825.501	622.331
357.694	19.220	824.451	622.028
358.708	19.154	824.226	621.563
359.723	19.135	823.351	620.780
360.738	19.069	823.128	620.318
361.752	19.254	822.535	620.485
362.767	19.226	821.840	619.804
363.781	19.313	821.511	619.813
364.796	19.420	821.241	619.941
365.810	19.359	820.950	619.447
366.825	19.642	820.278	619.900
367.840	19.381	820.031	618.724
368.854	19.411	819.197	618.147
369.869	19.436	818.784	617.867
370.883	19.408	818.609	617.582
371.898	19.424	818.297	617.350
372.913	19.432	817.696	616.871
373.927	19.513	817.074	616.635
374.942	19.408	816.841	616.029
375.956	19.676	816.246	616.483
376.971	19.812	815.964	616.699
377.986	19.759	815.503	616.110
379.000	19.762	815.021	615.699
380.015	19.924	814.193	615.598
381.029	19.617	813.988	614.297
382.044	19.714	813.563	614.265
383.059	19.783	813.015	614.041
384.073	19.670	812.023	612.837
385.088	19.585	811.426	612.031
386.102	19.564	810.998	611.582
387.117	19.510	810.420	610.900
388.132	19.442	810.107	610.369
389.146	19.731	809.309	610.733
390.161	19.646	809.088	610.215
391.175	19.710	808.434	609.891
392.190	19.736	808.060	609.647
393.205	19.603	807.396	608.624
394.219	19.538	807.095	608.116
395.234	19.531	806.872	607.866
396.248	19.337	806.442	606.808
397.263	19.532	805.561	606.775
398.278	19.578	805.114	606.546
399.292	19.555	804.777	606.158
400.307	19.499	804.559	605.747
401.321	19.474	804.405	605.489
402.336	19.483	803.912	605.093
403.350	19.607	803.375	605.070
404.365	19.792	803.014	605.392
405.380	19.783	802.357	604.815
406.394	20.002	801.909	605.189
407.409	19.966	801.748	604.885
408.423	19.920	801.643	604.593
409.438	20.173	800.854	604.825
410.453	20.224	800.504	604.686
411.467	20.097	800.127	603.907
412.482	20.203	799.684	603.888
413.496	20.296	799.422	603.960
414.511	20.270	798.689	603.262
415.526	20.080	798.190	602.172
416.540	20.170	797.878	602.197
417.555	20.109	797.441	601.601
418.569	20.130	797.011	601.298
419.584	20.281	796.515	601.393
420.599	20.434	795.958	601.447
421.613	162.083	1371.712	1796.524
422.628	140.603	1455.587	1796.652
