DTS Sentinel unit serial number:	SN413079Multiplexer serial number:	ORYXHardware model number:	OX4-SRSoftware version number:	ORYX F/W v4.00 Oryx Data Collector v3.7.2.0data status	okinstallation	princeton_trtdifferential loss correction	single-endedforward channel	channel 1reverse channel	N/Adate	2019/09/11time	05:04:11forward acquisition time	60.00reverse acquisition time	0.00gamma	496.2192k internal	0.2330k external	0.2330temperature offset calibration	0.9927default loss term (dB/km)	0.3790temperature slope calibration	1.0000multiplexer offset coefficient	1.0000multiplexer slope coefficient	1.0000fibre end	0.00T internal ref (°C)	29.45T ext. ref 1 (°C)	-0.27T ext. ref 2 (°C)	23.38length (m)	temperature (°C)	Stokes	anti-Stokes-747.200	-139.678	0.136	0.015
-746.185	72.330	-0.135	0.142
-745.171	-200.000	-0.033	-0.188
-744.156	-200.000	-0.054	0.254
-743.142	-200.000	0.033	0.253
-742.127	19.792	-0.129	-0.104
-741.112	284.970	-0.142	-0.258
-740.098	-164.081	0.250	-0.012
-739.083	-182.840	-0.292	-0.005
-738.069	-200.000	-0.023	0.288
-737.054	124.216	-0.058	-0.073
-736.039	-14.773	0.183	0.118
-735.025	-200.000	-0.060	0.351
-734.010	175.367	-0.120	-0.176
-732.996	800.000	-0.030	-0.124
-731.981	-200.000	-0.077	-0.414
-730.966	-178.275	0.179	0.004
-729.952	263.463	-0.151	-0.265
-728.937	800.000	0.046	-0.136
-727.923	473.849	0.077	0.175
-726.908	-200.000	-0.061	-0.297
-725.894	-200.000	-0.001	-0.180
-724.879	-49.908	0.245	0.117
-723.864	-71.656	-0.255	0.096
-722.850	-200.000	-0.004	0.035
-721.835	800.000	-0.103	-0.391
-720.821	800.000	-0.116	-0.477
-719.806	800.000	0.077	-0.230
-718.791	-147.993	-0.260	0.022
-717.777	-200.000	-0.028	0.262
-716.762	800.000	-0.075	0.294
-715.748	-106.506	-0.274	0.062
-714.733	46.999	0.016	0.015
-713.718	-11.366	-0.219	-0.145
-712.704	-73.968	0.409	-0.149
-711.689	-58.091	-0.334	-0.146
-710.675	179.733	0.136	0.200
-709.660	-10.258	-0.099	-0.066
-708.645	-53.209	0.276	-0.127
-707.631	-107.553	-0.284	0.062
-706.616	-113.741	0.272	-0.053
-705.602	-157.846	-0.206	-0.012
-704.587	-200.000	0.016	0.113
-703.572	-200.000	-0.008	0.162
-702.558	9.484	-0.019	0.014
-701.543	-63.268	0.170	-0.070
-700.529	800.000	-0.109	-0.438
-699.514	-46.382	0.096	0.047
-698.499	-90.034	-0.085	0.025
-697.485	-8.750	-0.026	-0.018
-696.470	-57.923	-0.251	-0.110
-695.456	113.221	0.137	0.167
-694.441	-200.000	-0.082	0.406
-693.426	-200.000	-0.036	0.226
-692.412	-59.203	-0.152	-0.066
-691.397	-111.641	0.272	0.055
-690.383	800.000	-0.080	-0.274
-689.368	-113.596	-0.156	0.031
-688.354	122.765	-0.069	0.087
-687.339	-91.293	0.173	0.050
-686.324	510.318	0.084	-0.197
-685.310	4.780	0.229	-0.169
-684.295	800.000	0.131	-0.465
-683.281	-127.280	0.309	-0.045
-682.266	20.893	0.243	-0.197
-681.251	-124.602	-0.262	-0.041
-680.237	-95.286	-0.181	-0.049
-679.222	-67.383	-0.230	0.091
-678.208	37.849	-0.043	0.038
-677.193	443.595	0.074	0.162
-676.178	-155.432	-0.099	0.006
-675.164	-14.475	0.038	0.025
-674.149	-128.849	-0.251	-0.035
-673.135	275.231	-0.113	0.201
-672.120	-200.000	-0.008	0.073
-671.105	-36.251	0.195	-0.105
-670.091	62.453	-0.115	0.116
-669.076	181.649	-0.173	-0.256
-668.062	142.550	-0.252	-0.337
-667.047	14.956	-0.216	-0.170
-666.032	734.648	0.030	0.080
-665.018	-3.974	0.102	-0.071
-664.003	-53.743	-0.033	0.015
-662.989	-67.944	-0.151	-0.059
-661.974	-138.284	0.093	0.010
-660.959	167.603	0.150	0.214
-659.945	-195.450	0.289	0.002
-658.930	-69.785	-0.177	-0.068
-657.916	800.000	0.039	0.113
-656.901	69.934	-0.258	0.267
-655.886	231.510	-0.075	0.123
-654.872	-200.000	0.004	-0.325
-653.857	49.190	0.084	0.079
-652.843	2.412	0.248	0.180
-651.828	18.635	-0.203	-0.163
-650.814	800.000	0.045	-0.161
-649.799	674.740	-0.063	-0.164
-648.784	800.000	0.054	-0.154
-647.770	800.000	-0.152	-0.429
-646.755	-22.977	0.196	-0.118
-645.741	113.706	0.072	0.088
-644.726	145.699	-0.043	0.058
-643.711	166.654	0.186	0.264
-642.697	133.056	-0.062	-0.080
-641.682	148.544	-0.125	-0.169
-640.668	191.743	0.086	0.130
-639.653	379.284	-0.206	-0.422
-638.638	800.000	-0.100	0.328
-637.624	-7.761	0.213	0.144
-636.609	-200.000	-0.023	-0.138
-635.595	415.667	-0.169	-0.361
-634.580	57.018	-0.080	-0.078
-633.565	266.111	0.190	0.332
-632.551	-79.643	-0.164	0.056
-631.536	85.288	-0.098	0.108
-630.522	-200.000	-0.027	0.213
-629.507	682.082	-0.021	-0.056
-628.492	800.000	0.085	-0.242
-627.478	800.000	0.103	-0.320
-626.463	244.663	0.188	-0.316
-625.449	-26.373	-0.105	-0.062
-624.434	-200.000	0.036	0.288
-623.419	-200.000	0.017	0.115
-622.405	-13.244	-0.219	0.142
-621.390	-123.284	0.492	0.079
-620.376	528.318	-0.174	-0.411
-619.361	163.070	0.122	0.172
-618.346	-122.216	-0.114	-0.019
-617.332	-89.937	-0.292	-0.085
-616.317	408.227	0.094	0.199
-615.303	-23.253	0.123	0.074
-614.288	27.847	-0.187	0.158
-613.273	-105.868	0.243	-0.055
-612.259	-200.000	0.008	-0.049
-611.244	200.777	-0.157	-0.242
-610.230	-200.000	-0.006	-0.036
-609.215	-200.000	0.055	0.311
-608.201	-6.239	-0.356	-0.243
-607.186	157.213	-0.067	-0.093
-606.171	159.445	0.147	0.205
-605.157	-182.034	-0.161	-0.003
-604.142	55.414	-0.463	-0.449
-603.128	244.873	0.129	-0.217
-602.113	387.679	0.055	0.115
-601.098	651.556	0.176	0.453
-600.084	-55.615	0.291	-0.130
-599.069	-200.000	-0.012	-0.098
-598.055	-145.537	-0.202	0.018
-597.040	216.055	-0.072	-0.115
-596.025	-200.000	0.002	0.065
-595.011	32.671	0.142	0.123
-593.996	90.374	0.149	0.167
-592.982	-141.260	-0.071	0.007
-591.967	-86.783	0.140	-0.043
-590.952	-18.578	-0.296	-0.184
-589.938	-150.384	0.161	0.012
-588.923	350.430	-0.030	0.059
-587.909	349.129	0.088	-0.173
-586.894	-119.900	-0.355	-0.061
-585.879	-200.000	-0.004	-0.142
-584.865	540.621	-0.099	-0.236
-583.850	-50.203	-0.409	-0.194
-582.836	-200.000	0.018	0.184
-581.821	-200.000	0.014	0.259
-580.806	-99.585	-0.353	-0.089
-579.792	42.985	0.381	-0.348
-578.777	95.596	0.078	0.089
-577.763	519.875	-0.078	-0.182
-576.748	-84.666	-0.273	0.086
-575.733	-59.318	0.179	-0.077
-574.719	308.233	-0.048	0.090
-573.704	-12.849	0.217	-0.141
-572.690	-73.978	-0.471	0.171
-571.675	800.000	0.076	-0.326
-570.661	-19.710	0.144	-0.089
-569.646	102.895	0.139	-0.162
-568.631	-127.057	-0.296	0.043
-567.617	45.519	-0.155	-0.143
-566.602	6.261	-0.245	-0.182
-565.588	98.785	-0.086	0.099
-564.573	337.751	-0.080	-0.156
-563.558	-1.612	0.082	-0.058
-562.544	-200.000	0.041	0.252
-561.529	-42.070	-0.357	0.182
-560.515	276.049	0.062	-0.109
-559.500	-47.240	-0.345	-0.168
-558.485	-18.080	-0.327	0.205
-557.471	397.607	-0.096	0.200
-556.456	-77.041	-0.132	0.046
-555.442	-183.988	-0.128	0.002
-554.427	-104.389	-0.176	-0.041
-553.412	-115.254	0.245	0.046
-552.398	-18.531	0.263	-0.164
-551.383	800.000	-0.004	-0.012
-550.369	77.410	0.172	-0.183
-549.354	15.019	0.015	0.012
-548.339	314.141	-0.095	-0.178
-547.325	18.969	-0.055	-0.044
-546.310	-146.901	-0.260	0.022
-545.296	800.000	-0.033	-0.093
-544.281	-14.464	0.146	-0.094
-543.266	90.651	0.295	-0.331
-542.252	-200.000	-0.008	0.182
-541.237	-119.538	0.206	-0.036
-540.223	800.000	-0.090	0.320
-539.208	-181.515	-0.149	-0.003
-538.193	506.376	0.069	-0.160
-537.179	-150.693	-0.048	0.004
-536.164	-91.826	0.209	0.059
-535.150	-200.000	0.020	0.138
-534.135	-118.054	-0.116	0.021
-533.121	-99.192	0.107	-0.027
-532.106	60.304	0.194	-0.191
-531.091	500.562	-0.095	-0.218
-530.077	-200.000	-0.009	0.044
-529.062	240.502	0.032	0.054
-528.048	27.373	-0.129	-0.108
-527.033	-110.160	0.242	-0.050
-526.018	800.000	0.069	0.257
-525.004	101.899	-0.047	-0.054
-523.989	2.881	0.253	-0.183
-522.975	-125.958	0.074	-0.011
-521.960	81.204	-0.124	0.134
-520.945	313.281	-0.055	0.104
-519.931	-34.498	0.100	-0.054
-518.916	-2.050	0.120	0.084
-517.902	-98.913	-0.401	-0.102
-516.887	9.207	-0.168	-0.127
-515.872	-88.197	-0.284	0.085
-514.858	49.070	-0.119	-0.111
-513.843	800.000	-0.043	0.175
-512.829	48.918	0.303	0.283
-511.814	-152.869	0.306	-0.022
-510.799	-126.812	0.079	0.012
-509.785	-74.562	0.271	0.097
-508.770	-36.215	-0.208	-0.112
-507.756	273.798	0.092	0.162
-506.741	571.725	0.099	0.241
-505.726	637.838	-0.095	-0.240
-504.712	-200.000	0.001	0.092
-503.697	-101.910	-0.316	-0.076
-502.683	-24.474	0.155	0.092
-501.668	20.769	-0.252	0.204
-500.653	36.683	0.038	0.034
-499.639	19.987	-0.139	-0.112
-498.624	-51.097	0.096	-0.045
-497.610	-200.000	-0.034	-0.268
-496.595	-200.000	0.006	-0.074
-495.581	-200.000	-0.027	-0.129
-494.566	-79.518	0.163	0.055
-493.551	-128.048	0.139	0.020
-492.537	153.194	-0.112	-0.153
-491.522	182.140	0.143	-0.210
-490.508	-24.949	-0.147	0.087
-489.493	11.414	0.249	-0.190
-488.478	800.000	-0.051	-0.203
-487.464	800.000	-0.026	-0.094
-486.449	-163.941	-0.232	-0.011
-485.435	-200.000	0.036	0.262
-484.420	257.465	-0.084	0.144
-483.405	-53.974	0.199	0.090
-482.391	18.316	-0.221	-0.176
-481.376	-200.000	-0.036	0.344
-480.362	800.000	-0.014	-0.046
-479.347	-112.628	0.324	-0.064
-478.332	-200.000	-0.033	0.194
-477.318	-44.346	-0.094	-0.047
-476.303	-43.082	0.252	-0.127
-475.289	55.684	-0.148	-0.143
-474.274	800.000	0.006	0.020
-473.259	-118.176	0.173	0.031
-472.245	100.403	-0.274	-0.316
-471.230	715.838	0.112	-0.295
-470.216	800.000	-0.019	0.055
-469.201	-86.067	0.413	0.127
-468.186	70.566	0.056	0.058
-467.172	-200.000	-0.024	-0.398
-466.157	800.000	-0.040	-0.114
-465.143	161.444	-0.053	0.074
-464.128	-200.000	0.071	0.316
-463.113	106.374	0.307	0.362
-462.099	69.672	-0.210	0.215
-461.084	44.888	0.313	-0.287
-460.070	188.220	0.287	0.428
-459.055	-200.000	-0.053	-0.460
-458.040	-200.000	-0.051	0.325
-457.026	179.897	0.035	-0.051
-456.011	-57.152	0.273	0.120
-454.997	-84.268	0.212	0.067
-453.982	29.979	0.090	0.076
-452.968	-133.853	0.205	-0.025
-451.953	-39.526	0.045	0.023
-450.938	-65.687	0.228	0.091
-449.924	-66.446	0.215	0.085
-448.909	-200.000	-0.006	-0.347
-447.895	-137.267	-0.015	-0.002
-446.880	-84.447	0.190	-0.060
-445.865	-3.590	0.095	0.066
-444.851	-95.595	-0.199	0.053
-443.836	-200.000	-0.008	-0.221
-442.822	407.961	-0.060	-0.126
-441.807	21.068	-0.210	0.169
-440.792	-200.000	0.058	0.350
-439.778	-1.847	0.033	0.023
-438.763	-200.000	0.003	0.206
-437.749	-107.526	-0.068	-0.015
-436.734	14.164	0.104	0.081
-435.719	56.739	0.252	0.244
-434.705	-200.000	-0.034	-0.191
-433.690	-200.000	-0.005	-0.212
-432.676	-200.000	-0.022	0.329
-431.661	800.000	0.073	0.268
-430.646	-200.000	-0.023	-0.365
-429.632	-83.827	0.297	0.094
-428.617	177.840	0.189	-0.274
-427.603	-115.049	0.169	0.032
-426.588	-45.408	-0.463	0.228
-425.573	-28.087	-0.217	-0.125
-424.559	-89.056	0.184	0.054
-423.544	-124.412	0.258	0.040
-422.530	800.000	0.044	-0.140
-421.515	238.699	-0.148	0.244
-420.500	-59.477	0.093	0.040
-419.486	800.000	0.040	0.116
-418.471	42.664	0.163	0.147
-417.457	-127.813	-0.091	-0.013
-416.442	-44.351	-0.120	0.060
-415.428	-74.195	-0.139	0.050
-414.413	45.232	-0.154	0.141
-413.398	-200.000	-0.034	0.165
-412.384	242.431	0.159	0.265
-411.369	-103.998	0.043	-0.010
-410.355	-88.816	-0.134	-0.039
-409.340	501.925	-0.037	-0.084
-408.325	549.041	-0.065	-0.154
-407.311	427.244	0.150	0.322
-406.296	-56.220	0.185	-0.082
-405.282	364.654	-0.259	0.518
-404.267	-50.005	-0.177	-0.083
-403.252	-66.735	0.344	0.135
-402.238	800.000	-0.109	0.378
-401.223	-200.000	-0.017	0.114
-400.209	800.000	0.084	-0.248
-399.194	-97.128	-0.224	0.058
-398.179	-179.686	-0.176	-0.004
-397.165	206.806	0.146	0.226
-396.150	126.017	-0.111	0.139
-395.136	-200.000	-0.049	-0.366
-394.121	-104.061	-0.176	0.041
-393.106	800.000	-0.122	-0.356
-392.092	-128.435	0.289	0.041
-391.077	-33.973	-0.330	-0.180
-390.063	77.950	-0.077	-0.081
-389.048	454.854	-0.039	-0.086
-388.033	5.197	-0.172	0.126
-387.019	4.272	-0.069	0.050
-386.004	800.000	0.037	-0.120
-384.990	119.895	0.055	-0.068
-383.975	-143.686	0.242	0.023
-382.960	183.395	-0.233	0.342
-381.946	-131.011	0.208	-0.028
-380.931	62.190	0.146	0.145
-379.917	357.770	0.158	0.312
-378.902	-9.726	0.218	-0.144
-377.888	-49.599	-0.286	-0.135
-376.873	-200.000	0.061	0.271
-375.858	279.589	-0.067	0.118
-374.844	369.756	-0.013	0.025
-373.829	89.795	-0.149	-0.165
-372.815	-159.501	0.160	-0.009
-371.800	-128.703	-0.486	0.068
-370.785	-200.000	0.018	-0.148
-369.771	-192.101	-0.196	-0.002
-368.756	5.402	0.254	0.186
-367.742	86.730	0.075	-0.082
-366.727	1.746	-0.381	-0.272
-365.712	90.444	0.151	-0.168
-364.698	259.027	0.310	-0.531
-363.683	417.998	0.013	0.027
-362.669	-84.310	-0.223	0.070
-361.654	2.105	-0.242	-0.173
-360.639	800.000	0.069	-0.270
-359.625	-200.000	0.003	-0.359
-358.610	800.000	-0.053	-0.213
-357.596	-97.338	0.254	0.066
-356.581	-9.324	-0.093	-0.062
-355.566	-200.000	0.065	0.380
-354.552	-111.549	-0.283	0.057
-353.537	800.000	-0.068	-0.229
-352.523	-200.000	-0.057	-0.434
-351.508	-200.000	0.017	-0.149
-350.493	-200.000	0.014	-0.271
-349.479	800.000	-0.027	0.096
-348.464	131.630	0.167	0.213
-347.450	-106.162	0.072	-0.016
-346.435	800.000	-0.031	-0.104
-345.420	86.021	-0.170	-0.186
-344.406	399.128	-0.015	0.032
-343.391	282.814	-0.044	0.078
-342.377	109.112	0.056	-0.067
-341.362	-9.156	-0.216	-0.143
-340.348	-135.823	-0.086	-0.010
-339.333	66.787	0.101	0.102
-338.318	58.005	-0.161	0.156
-337.304	-44.387	-0.201	0.100
-336.289	800.000	0.041	0.116
-335.275	-200.000	0.004	-0.439
-334.260	-41.768	0.407	-0.207
-333.245	223.009	-0.132	0.211
-332.231	-103.016	0.263	0.062
-331.216	-36.692	-0.109	0.058
-330.202	800.000	-0.112	-0.364
-329.187	742.713	0.031	0.084
-328.172	800.000	0.116	-0.320
-327.158	-200.000	-0.011	-0.132
-326.143	65.418	0.026	-0.026
-325.129	-41.695	0.237	0.121
-324.114	-46.652	0.287	0.139
-323.099	-132.702	-0.363	-0.046
-322.085	146.241	-0.133	-0.176
-321.070	459.813	-0.173	-0.382
-320.056	195.937	-0.113	-0.169
-319.041	-200.000	0.020	0.106
-318.026	-108.329	0.172	0.037
-317.012	-156.801	-0.371	0.023
-315.997	-9.641	-0.124	-0.082
-314.983	231.332	-0.111	0.179
-313.968	-45.868	0.415	0.203
-312.953	108.293	-0.055	0.065
-311.939	348.124	-0.071	-0.138
-310.924	8.275	0.254	0.189
-309.910	-98.593	-0.084	0.021
-308.895	-200.000	0.012	-0.151
-307.880	9.671	-0.185	-0.139
-306.866	800.000	-0.050	0.162
-305.851	-153.130	-0.350	0.024
-304.837	-37.168	0.358	0.190
-303.822	-200.000	0.015	0.152
-302.807	-200.000	-0.036	0.252
-301.793	224.426	0.059	-0.094
-300.778	-157.872	-0.440	-0.026
-299.764	190.703	0.037	-0.055
-298.749	-161.698	-0.222	-0.011
-297.735	-67.596	0.251	0.097
-296.720	106.228	-0.137	-0.160
-295.705	25.190	-0.172	-0.142
-294.691	105.303	-0.066	-0.078
-293.676	-200.000	-0.003	-0.267
-292.662	141.780	0.178	-0.233
-291.647	-98.503	-0.055	-0.014
-290.632	-146.861	-0.137	-0.012
-289.618	800.000	0.123	0.436
-288.603	-118.755	0.148	-0.026
-287.589	-200.000	-0.036	-0.156
-286.574	-135.587	0.258	-0.030
-285.559	800.000	-0.152	-0.423
-284.545	-60.710	-0.036	0.015
-283.530	0.756	-0.172	-0.122
-282.516	12.685	0.129	-0.099
-281.501	192.567	0.133	-0.199
-280.486	-100.982	-0.177	-0.043
-279.472	-200.000	-0.039	-0.454
-278.457	-17.508	0.220	0.137
-277.443	192.058	0.185	0.275
-276.428	90.883	-0.227	0.251
-275.413	-28.532	0.119	0.068
-274.399	800.000	-0.061	0.213
-273.384	713.772	-0.035	0.091
-272.370	-89.317	0.362	-0.105
-271.355	-200.000	-0.071	0.336
-270.340	800.000	-0.066	0.259
-269.326	-57.990	-0.105	0.045
-268.311	349.422	0.042	0.082
-267.297	-200.000	-0.019	0.181
-266.282	-17.114	0.193	0.120
-265.267	8.327	-0.315	0.234
-264.253	-131.660	-0.221	-0.029
-263.238	-114.192	-0.014	0.003
-262.224	-116.831	-0.426	-0.077
-261.209	-61.422	0.330	-0.137
-260.195	163.566	-0.196	0.272
-259.180	-200.000	0.017	-0.460
-258.165	-200.000	-0.018	0.209
-257.151	155.822	0.050	-0.068
-256.136	-2.418	-0.198	-0.137
-255.122	56.958	-0.195	0.188
-254.107	-43.194	0.241	0.121
-253.092	293.891	0.067	0.121
-252.078	-200.000	0.054	0.291
-251.063	-24.252	-0.211	0.124
-250.049	109.712	-0.050	-0.059
-249.034	-148.097	-0.054	-0.004
-248.019	-179.985	0.293	-0.006
-247.005	-41.437	-0.182	0.093
-245.990	-20.621	0.195	-0.118
-244.976	140.599	0.107	0.140
-243.961	741.375	0.055	-0.145
-242.946	-149.099	0.318	-0.025
-241.932	-137.627	0.229	0.025
-240.917	593.396	0.098	0.238
-239.903	30.059	0.165	-0.139
-238.888	164.011	-0.197	-0.274
-237.873	241.533	0.098	-0.162
-236.859	203.205	-0.021	0.033
-235.844	800.000	-0.014	0.054
-234.830	606.882	0.074	-0.183
-233.815	23.455	-0.228	-0.185
-232.800	14.377	0.127	-0.098
-231.786	-200.000	-0.057	0.302
-230.771	134.238	-0.095	-0.122
-229.757	-10.383	-0.138	-0.090
-228.742	484.137	-0.040	-0.090
-227.727	-26.277	0.191	0.110
-226.713	-200.000	0.005	0.081
-225.698	-64.649	-0.165	0.066
-224.684	800.000	-0.053	-0.173
-223.669	-137.765	0.199	0.022
-222.655	800.000	0.048	0.150
-221.640	11.495	0.344	0.260
-220.625	-53.290	-0.277	0.125
-219.611	800.000	-0.071	0.247
-218.596	-14.676	0.164	-0.104
-217.582	10.685	0.359	0.270
-216.567	800.000	-0.078	0.229
-215.552	-2.342	0.287	-0.198
-214.538	126.835	-0.011	-0.014
-213.523	379.708	0.024	0.048
-212.509	-47.145	-0.197	0.094
-211.494	-142.602	-0.305	0.029
-210.479	149.243	-0.208	0.278
-209.465	-184.436	0.299	0.005
-208.450	297.818	-0.121	-0.220
-207.436	800.000	0.037	0.155
-206.421	-200.000	0.007	0.157
-205.406	800.000	-0.014	0.040
-204.392	-151.620	0.199	0.014
-203.377	-3.446	-0.130	0.089
-202.363	208.374	0.275	0.424
-201.348	112.623	0.131	-0.157
-200.333	-200.000	-0.050	0.283
-199.319	-200.000	-0.004	-0.061
-198.304	238.036	0.059	0.097
-197.290	-200.000	-0.098	-0.578
-196.275	800.000	-0.041	0.146
-195.260	-200.000	-0.005	0.162
-194.246	251.022	-0.072	-0.121
-193.231	-99.991	-0.249	-0.061
-192.217	-200.000	-0.033	-0.206
-191.202	-200.000	0.011	0.218
-190.187	-200.000	0.002	0.204
-189.173	-200.000	0.086	0.513
-188.158	-200.000	0.121	-0.001
-187.144	-81.336	-0.402	-0.130
-186.129	-175.095	-0.046	0.001
-185.114	582.963	-0.031	-0.076
-184.100	800.000	0.052	-0.165
-183.085	73.589	0.301	0.310
-182.071	0.817	0.140	0.099
-181.056	686.148	0.037	-0.096
-180.042	800.000	-0.070	-0.194
-179.027	-26.621	0.252	-0.145
-178.012	-10.478	-0.056	0.037
-176.998	94.109	0.166	-0.186
-175.983	800.000	0.081	0.225
-174.969	-22.551	0.090	0.054
-173.954	3.693	-0.123	0.088
-172.939	92.476	-0.222	0.247
-171.925	-56.178	-0.280	0.123
-170.910	-18.018	0.369	-0.228
-169.896	34.172	-0.188	0.161
-168.881	800.000	-0.046	-0.125
-167.866	220.482	-0.188	0.297
-166.852	-124.566	0.043	0.007
-165.837	800.000	0.047	0.183
-164.823	517.838	0.037	0.085
-163.808	-200.000	0.009	0.311
-162.793	54.345	0.142	-0.134
-161.779	211.510	0.153	-0.237
-160.764	-95.464	0.208	0.055
-159.750	-118.638	0.351	-0.061
-158.735	-200.000	0.009	-0.201
-157.720	225.507	-0.201	-0.320
-156.706	145.166	0.146	0.192
-155.691	-103.828	-0.096	0.022
-154.677	61.094	-0.204	0.199
-153.662	-83.991	0.237	-0.074
-152.647	-68.837	0.183	0.070
-151.633	467.882	0.124	0.274
-150.618	-200.000	-0.009	0.167
-149.604	10.870	0.350	-0.263
-148.589	-200.000	-0.004	-0.118
-147.574	45.505	0.085	-0.077
-146.560	-129.869	0.260	-0.035
-145.545	76.521	-0.135	0.141
-144.531	26.640	0.395	0.325
-143.516	-144.109	-0.186	0.017
-142.502	-58.253	0.109	0.047
-141.487	108.570	-0.180	-0.211
-140.472	800.000	-0.037	-0.102
-139.458	-30.200	0.227	-0.127
-138.443	-200.000	-0.046	-0.227
-137.429	52.987	0.044	-0.042
-136.414	-200.000	-0.026	-0.196
-135.399	53.996	-0.268	0.254
-134.385	-3.096	0.177	0.121
-133.370	-65.458	0.227	-0.090
-132.356	800.000	0.114	0.465
-131.341	520.853	-0.111	0.257
-130.326	82.983	0.306	-0.327
-129.312	-19.663	0.152	0.092
-128.297	-30.040	-0.151	0.084
-127.283	-46.268	0.351	0.170
-126.268	97.459	-0.118	0.133
-125.253	-200.000	-0.012	-0.338
-124.239	800.000	0.061	-0.179
-123.224	-49.412	0.496	0.233
-122.210	-18.409	-0.164	-0.100
-121.195	22.568	-0.338	0.272
-120.180	-97.441	-0.466	0.119
-119.166	-138.042	0.177	0.019
-118.151	-125.154	0.232	0.035
-117.137	800.000	-0.083	0.245
-116.122	-41.279	0.167	0.085
-115.107	133.680	-0.101	0.128
-114.093	800.000	0.020	-0.066
-113.078	434.590	0.124	-0.264
-112.064	82.327	-0.180	-0.191
-111.049	-97.986	0.404	0.102
-110.034	-157.397	-0.222	-0.013
-109.020	-101.382	0.231	-0.055
-108.005	-32.732	0.245	0.134
-106.991	-200.000	0.080	-0.382
-105.976	-62.969	-0.241	0.098
-104.962	-159.862	0.023	-0.001
-103.947	-107.748	0.292	-0.063
-102.932	-77.192	0.315	-0.108
-101.918	574.178	0.042	-0.099
-100.903	36.398	0.326	0.282
-99.889	-144.347	0.097	-0.009
-98.874	-39.286	-0.200	0.103
-97.859	69.426	0.100	-0.101
-96.845	202.471	0.136	0.206
-95.830	-200.000	-0.026	-0.142
-94.816	758.102	0.048	-0.128
-93.801	344.098	0.074	0.143
-92.786	21.366	-0.068	-0.055
-91.772	403.717	0.082	-0.170
-90.757	800.000	0.071	-0.235
-89.743	-90.431	-0.359	0.102
-88.728	-200.000	0.061	-0.298
-87.713	32.899	-0.212	0.180
-86.699	799.058	-0.065	0.175
-85.684	654.962	-0.116	0.292
-84.670	-78.559	-0.252	0.085
-83.655	-90.925	0.223	0.063
-82.640	-67.449	-0.240	0.093
-81.626	91.081	-0.199	0.220
-80.611	-60.972	0.221	0.092
-79.597	534.958	0.119	-0.277
-78.582	435.973	-0.147	0.313
-77.567	-111.655	0.127	0.025
-76.553	274.640	-0.048	0.084
-75.538	-200.000	-0.284	0.001
-74.524	-17.582	-0.357	0.220
-73.509	484.534	0.012	0.026
-72.494	-46.023	0.309	0.149
-71.480	60.123	-0.125	-0.121
-70.465	169.922	0.204	0.286
-69.451	210.627	0.017	0.026
-68.436	639.817	-0.140	0.348
-67.422	-40.045	0.097	-0.050
-66.407	-30.224	0.028	0.016
-65.392	-14.995	0.165	-0.103
-64.378	-200.000	0.015	-0.295
-63.363	261.897	-0.037	0.063
-62.349	-58.953	-0.162	-0.069
-61.334	13.434	-1.181	-0.898
-60.319	-200.000	0.158	1.001
-59.305	335.219	-0.555	-1.053
-58.290	48.199	0.832	0.763
-57.276	399.223	0.609	1.249
-56.261	-200.000	105.844	614.085
-55.246	509.739	1508.484	3436.268
-54.232	176.254	2701.691	3845.010
-53.217	112.137	2165.262	2564.216
-52.203	41.536	1599.450	1418.759
-51.188	32.976	1334.317	1132.480
-50.173	29.910	1292.472	1079.078
-49.159	54.221	1347.184	1270.132
-48.144	54.709	1362.004	1286.954
-47.130	33.077	1316.954	1118.161
-46.115	29.559	1298.949	1082.257
-45.100	29.463	1294.276	1077.760
-44.086	29.370	1291.867	1075.168
-43.071	29.362	1289.302	1072.945
-42.057	29.296	1287.396	1070.930
-41.042	29.387	1285.469	1069.815
-40.027	29.329	1284.423	1068.566
-39.013	29.367	1282.435	1067.090
-37.998	29.413	1280.354	1065.583
-36.984	29.475	1278.380	1064.250
-35.969	29.427	1276.821	1062.635
-34.954	29.428	1275.285	1061.323
-33.940	29.421	1274.221	1060.353
-32.925	29.491	1273.000	1059.696
-31.911	29.492	1271.490	1058.403
-30.896	29.584	1269.868	1057.539
-29.881	29.626	1268.316	1056.444
-28.867	29.509	1266.755	1054.436
-27.852	29.541	1264.941	1053.065
-26.838	29.548	1263.906	1052.203
-25.823	29.550	1262.933	1051.358
-24.809	29.540	1261.192	1049.814
-23.794	29.507	1260.151	1048.715
-22.779	29.498	1259.243	1047.867
-21.765	29.588	1257.624	1046.990
-20.750	29.611	1255.721	1045.496
-19.736	29.549	1254.612	1044.179
-18.721	29.398	1253.983	1042.761
-17.706	29.482	1252.137	1041.658
-16.692	29.389	1251.624	1040.667
-15.677	29.484	1250.097	1039.891
-14.663	29.385	1250.015	1039.224
-13.648	29.421	1248.581	1038.194
-12.633	29.371	1247.428	1036.913
-11.619	29.393	1246.448	1036.177
-10.604	29.437	1245.755	1035.811
-9.590	29.336	1244.832	1034.436
-8.575	29.279	1243.951	1033.342
-7.560	29.340	1243.011	1032.863
-6.546	29.326	1242.270	1032.127
-5.531	29.422	1241.231	1031.757
-4.517	29.469	1240.230	1031.147
-3.502	29.318	1239.892	1029.983
-2.487	29.415	1238.780	1029.559
-1.473	29.429	1234.682	1026.188
-0.458	27.894	1220.033	1005.532
0.556	22.195	1202.957	968.957
1.571	18.635	1208.207	953.357
2.586	17.975	1222.553	960.876
3.600	18.009	1211.888	952.602
4.615	13.434	1141.903	873.418
5.629	4.712	1066.827	772.761
6.644	0.100	1047.434	736.118
7.659	-0.301	1044.741	732.206
8.673	-0.423	1043.569	730.726
9.688	-0.444	1041.331	728.989
10.702	0.084	1040.511	730.919
11.717	6.126	1048.732	766.148
12.731	15.031	1061.854	819.440
13.746	19.616	1067.284	846.073
14.761	20.754	1068.262	852.347
15.775	20.742	1067.714	851.777
16.790	20.518	1066.770	849.853
17.804	20.483	1066.306	849.236
18.819	20.442	1066.435	849.062
19.834	20.697	1065.468	849.460
20.848	20.695	1065.334	849.268
21.863	20.620	1065.007	848.571
22.877	20.638	1063.926	847.722
23.892	20.535	1063.403	846.728
24.907	20.671	1062.712	846.765
25.921	20.767	1061.313	846.038
26.936	20.671	1060.141	844.566
27.950	20.590	1058.359	842.679
28.965	20.316	1056.945	840.154
29.980	20.574	1054.529	839.404
30.994	20.664	1054.357	839.628
32.009	20.654	1053.201	838.585
33.023	20.407	1051.655	836.089
34.038	20.578	1050.947	836.275
35.053	20.617	1050.205	835.799
36.067	20.589	1049.253	834.830
37.082	20.710	1048.569	834.794
38.096	20.914	1048.024	835.265
39.111	21.001	1047.185	834.936
40.126	20.846	1045.385	832.689
41.140	20.399	1044.098	829.454
42.155	20.238	1042.359	827.235
43.169	20.267	1042.026	827.036
44.184	20.339	1041.008	826.496
45.199	20.487	1038.865	825.425
46.213	20.391	1038.997	824.998
47.228	20.392	1038.152	824.261
48.242	20.550	1036.720	823.799
49.257	20.663	1035.883	823.595
50.271	20.715	1035.029	823.090
51.286	20.726	1034.374	822.550
52.301	20.730	1033.346	821.676
53.315	20.684	1032.269	820.534
54.330	20.716	1031.638	820.107
55.344	20.603	1031.170	819.130
56.359	20.595	1029.822	817.952
57.374	20.442	1028.723	816.284
58.388	20.387	1028.300	815.619
59.403	20.437	1027.052	814.792
60.417	20.335	1025.987	813.399
61.432	20.346	1025.552	813.031
62.447	20.593	1024.819	813.536
63.461	20.457	1024.094	812.251
64.476	20.503	1022.887	811.435
65.490	20.298	1022.322	809.960
66.505	20.413	1021.811	810.019
67.520	20.395	1020.853	809.103
68.534	20.250	1019.757	807.490
69.549	20.139	1018.215	805.684
70.563	19.983	1018.009	804.721
71.578	20.042	1016.832	803.994
72.593	19.900	1016.345	802.881
73.607	20.157	1015.247	803.132
74.622	20.333	1014.806	803.526
75.636	20.451	1014.478	803.740
76.651	20.161	1013.428	801.499
77.666	20.063	1013.045	800.674
78.680	20.117	1012.276	800.244
79.695	20.202	1011.775	800.169
80.709	20.291	1011.028	799.917
81.724	20.141	1010.306	798.585
82.739	20.243	1009.422	798.284
83.753	20.648	1008.867	799.637
84.768	20.827	1007.981	799.687
85.782	20.926	1007.034	799.317
86.797	20.929	1005.531	798.069
87.812	20.694	1004.809	796.351
88.826	20.887	1003.609	796.212
89.841	21.056	1002.666	796.163
90.855	20.918	1002.034	794.960
91.870	20.868	1001.204	794.005
92.884	20.777	999.806	792.411
93.899	20.673	999.189	791.379
94.914	20.822	998.035	791.073
95.928	20.656	997.211	789.595
96.943	20.404	996.146	787.539
97.957	20.299	994.541	785.725
98.972	20.116	993.596	784.081
99.987	20.432	992.845	784.849
101.001	20.669	992.282	785.401
102.016	20.557	991.619	784.304
103.030	20.499	990.744	783.281
104.045	20.254	989.488	781.114
105.060	20.136	988.346	779.615
106.074	20.389	988.036	780.438
107.089	20.731	987.422	781.420
108.103	20.582	986.166	779.690
109.118	20.431	984.766	777.837
110.133	20.457	983.933	777.226
111.147	20.192	982.964	775.208
112.162	20.132	981.733	773.901
113.176	20.366	981.135	774.402
114.191	20.164	980.239	772.730
115.206	19.934	979.101	770.738
116.220	20.020	978.278	770.404
117.235	20.156	977.122	770.032
118.249	20.198	976.536	769.687
119.264	20.031	975.801	768.301
120.279	19.983	975.210	767.553
121.293	20.262	974.050	767.806
122.308	20.184	973.581	767.024
123.322	20.150	972.041	765.594
124.337	20.035	970.315	763.661
125.352	19.646	968.849	760.727
126.366	19.623	968.095	759.965
127.381	20.200	968.198	762.518
128.395	20.588	967.554	763.646
129.410	20.803	966.149	763.415
130.424	20.562	965.442	761.732
131.439	20.707	964.060	761.206
132.454	20.495	963.637	759.881
133.468	20.587	962.744	759.508
134.483	20.675	961.802	759.085
135.497	20.735	961.159	758.770
136.512	20.837	960.700	758.783
137.527	20.775	960.050	757.934
138.541	20.891	958.654	757.271
139.556	20.828	958.036	756.440
140.570	20.864	957.363	756.000
141.585	20.823	956.060	754.726
142.600	20.769	955.012	753.596
143.614	21.030	954.396	754.172
144.629	21.121	953.862	754.080
145.643	20.822	952.567	751.696
146.658	20.839	950.898	750.386
147.673	20.774	950.172	749.466
148.687	20.848	948.741	748.591
149.702	20.698	947.917	747.229
150.716	20.682	947.536	746.797
151.731	20.883	946.099	746.457
152.746	20.995	946.130	746.895
153.760	21.149	945.178	746.736
154.775	20.994	944.646	745.587
155.789	21.012	943.413	744.627
156.804	20.990	942.735	743.933
157.819	20.880	942.552	743.252
158.833	21.112	941.152	743.071
159.848	21.140	940.393	742.523
160.862	20.797	939.475	740.276
161.877	20.956	938.666	740.249
162.892	21.078	937.164	739.516
163.906	20.962	936.098	738.118
164.921	20.887	935.606	737.346
165.935	21.063	934.490	737.145
166.950	20.815	933.671	735.389
167.964	20.977	932.883	735.384
168.979	20.927	931.248	733.821
169.994	20.834	930.614	732.865
171.008	20.971	930.502	733.288
172.023	21.005	929.234	732.369
173.037	20.816	928.130	730.641
174.052	20.583	927.533	729.127
175.067	20.887	926.348	729.407
176.081	20.858	925.977	728.927
177.096	20.755	925.286	727.886
178.110	20.524	924.375	726.140
179.125	20.463	923.199	724.899
180.140	20.535	922.965	724.949
181.154	20.602	922.963	725.164
182.169	20.715	922.941	725.555
183.183	20.899	922.236	725.700
184.198	20.886	921.440	724.956
185.213	20.825	920.752	724.100
186.227	21.077	919.864	724.384
187.242	20.927	919.569	723.463
188.256	21.114	918.420	723.272
189.271	21.072	917.486	722.297
190.286	20.825	916.467	720.412
191.300	20.288	915.352	717.250
192.315	19.484	913.851	712.693
193.329	19.417	913.480	712.065
194.344	20.488	913.630	716.535
195.359	20.862	913.860	718.193
196.373	20.900	913.534	718.033
197.388	20.873	912.453	717.009
198.402	20.789	911.771	716.063
199.417	20.790	911.173	715.536
200.432	20.458	910.302	713.425
201.446	20.382	909.457	712.387
202.461	20.364	908.947	711.851
203.475	19.578	906.797	706.889
204.490	18.797	905.494	702.615
205.504	19.912	906.094	707.579
206.519	20.437	906.015	709.600
207.534	20.470	905.730	709.450
208.548	21.062	905.158	711.355
209.563	20.727	904.327	709.274
210.577	20.644	903.804	708.463
211.592	21.180	902.921	709.888
212.607	21.023	902.448	708.813
213.621	21.022	901.882	708.303
214.636	21.087	901.189	707.962
215.650	21.030	900.389	707.036
216.665	21.156	899.869	707.077
217.680	20.975	899.300	705.835
218.694	20.642	897.858	703.296
219.709	20.368	897.423	701.785
220.723	20.757	897.212	703.130
221.738	20.905	896.213	702.879
222.753	20.887	895.713	702.353
223.767	20.795	895.637	701.861
224.782	21.052	895.286	702.558
225.796	21.077	894.330	701.847
226.811	20.433	892.754	697.963
227.826	19.822	891.584	694.533
228.840	19.994	891.293	694.936
229.855	20.185	890.290	694.856
230.869	19.837	889.239	692.584
231.884	20.191	889.696	694.294
232.899	20.780	889.354	696.321
233.913	20.878	888.509	695.991
234.928	20.776	888.323	695.378
235.942	20.601	887.882	694.270
236.957	20.427	886.645	692.547
237.972	20.529	885.918	692.325
238.986	20.715	885.180	692.428
240.001	20.575	884.467	691.253
241.015	20.676	884.536	691.645
242.030	20.730	884.005	691.384
243.045	20.940	883.217	691.540
244.059	21.227	882.354	691.940
245.074	20.932	881.531	690.066
246.088	20.557	880.628	687.813
247.103	20.656	880.735	688.231
248.117	21.236	880.628	690.378
249.132	21.621	880.074	691.404
250.147	21.505	879.570	690.490
251.161	21.695	878.950	690.689
252.176	21.696	878.369	690.174
253.190	21.805	877.789	690.088
254.205	21.841	877.352	689.826
255.220	21.948	876.511	689.524
256.234	21.654	876.001	687.908
257.249	21.590	875.279	687.026
258.263	21.729	874.131	686.612
259.278	21.882	873.312	686.504
260.293	21.816	872.760	685.752
261.307	21.654	872.768	685.065
262.322	21.511	871.294	683.291
263.336	20.810	869.250	678.895
264.351	19.690	867.487	673.097
265.366	19.835	867.645	673.726
266.380	20.919	868.182	678.303
267.395	21.451	867.409	679.707
268.409	21.319	867.063	678.863
269.424	21.532	866.474	679.170
270.439	21.540	865.932	678.716
271.453	21.571	865.467	678.410
272.468	21.894	864.948	679.196
273.482	21.787	864.599	678.445
274.497	21.312	863.300	675.531
275.512	20.928	862.653	673.482
276.526	21.512	862.724	675.733
277.541	21.623	862.172	675.668
278.555	21.366	861.456	674.058
279.570	21.214	860.141	672.385
280.585	21.358	859.759	672.579
281.599	21.468	858.621	672.054
282.614	20.829	857.776	668.881
283.628	20.880	857.221	668.583
284.643	21.200	856.926	669.521
285.657	20.675	855.618	666.430
286.672	20.543	854.960	665.351
287.687	21.296	854.969	668.183
288.701	21.080	854.584	666.994
289.716	20.698	853.791	664.860
290.730	20.848	852.643	664.479
291.745	20.520	851.564	662.330
292.760	20.791	851.748	663.446
293.774	21.825	852.047	667.558
294.789	22.001	851.559	667.787
295.803	22.115	851.185	667.869
296.818	22.227	850.191	667.456
297.833	21.684	849.160	664.525
298.847	21.520	848.629	663.431
299.862	21.848	848.267	664.333
300.876	22.096	848.383	665.302
301.891	22.037	847.266	664.146
302.906	21.510	846.309	661.344
303.920	21.678	846.234	661.860
304.935	22.086	845.779	662.988
305.949	22.022	845.298	662.309
306.964	21.877	844.451	661.042
307.979	21.982	844.335	661.290
308.993	22.314	843.565	661.878
310.008	22.089	843.191	660.680
311.022	21.756	842.410	658.755
312.037	21.872	841.892	658.728
313.052	21.559	841.233	656.979
314.066	20.740	839.231	652.291
315.081	20.524	838.564	650.906
316.095	21.330	838.954	654.170
317.110	21.665	838.965	655.374
318.125	20.999	837.407	651.612
319.139	19.961	835.692	646.346
320.154	19.868	835.476	645.774
321.168	20.772	835.959	649.465
322.183	21.454	836.051	652.022
323.197	21.505	835.879	652.018
324.212	21.831	835.351	652.764
325.227	21.858	834.551	652.182
326.241	21.753	833.611	650.998
327.256	21.593	833.289	650.095
328.270	21.452	832.989	649.279
329.285	21.294	831.950	647.828
330.300	21.177	830.941	646.551
331.314	21.388	830.712	647.097
332.329	21.825	830.295	648.330
333.343	21.981	829.963	648.593
334.358	21.785	830.045	647.872
335.373	22.025	829.290	648.115
336.387	22.261	829.388	649.004
337.402	22.231	829.175	648.670
338.416	22.280	828.733	648.446
339.431	22.323	828.665	648.494
340.446	22.414	827.977	648.232
341.460	22.420	827.094	647.508
342.475	22.299	827.069	646.986
343.489	22.344	826.126	646.357
344.504	22.520	826.207	647.008
345.519	22.806	825.527	647.467
346.533	22.751	825.301	647.031
347.548	22.935	824.820	647.271
348.562	22.807	824.073	646.160
349.577	22.820	823.639	645.808
350.592	22.569	823.266	644.541
351.606	22.719	822.246	644.235
352.621	22.648	821.215	643.110
353.635	22.516	820.229	641.801
354.650	21.821	818.838	638.127
355.665	20.914	817.572	633.786
356.679	21.370	817.517	635.345
357.694	21.650	817.633	636.398
358.708	21.776	816.413	635.849
359.723	21.972	816.750	636.767
360.738	22.393	816.183	637.792
361.752	22.446	816.325	638.041
362.767	22.822	815.478	638.682
363.781	22.940	815.310	638.920
364.796	23.101	814.802	639.048
365.810	22.847	814.749	638.030
366.825	22.998	814.040	637.965
367.840	22.842	813.046	636.569
368.854	22.193	812.109	633.441
369.869	22.369	812.182	634.075
370.883	22.540	811.261	633.914
371.898	22.534	810.664	633.371
372.913	22.509	810.643	633.207
373.927	22.509	810.454	633.006
374.942	22.895	809.765	633.797
375.956	22.693	809.774	633.023
376.971	22.888	809.277	633.275
377.986	23.135	808.900	633.810
379.000	22.985	808.531	632.929
380.015	22.861	807.604	631.703
381.029	22.881	806.749	631.048
382.044	23.054	806.690	631.566
383.059	23.001	806.007	630.787
384.073	22.989	805.425	630.233
385.088	23.020	804.768	629.773
386.102	22.823	804.272	628.628
387.117	22.668	803.660	627.541
388.132	22.364	802.724	625.675
389.146	22.096	801.076	623.384
390.161	22.538	801.187	624.983
391.175	22.800	801.335	625.971
392.190	22.513	800.244	624.048
393.205	20.991	798.288	617.087
394.219	19.650	796.772	611.119
395.234	19.745	796.745	611.380
396.248	21.376	797.713	617.840
397.263	22.677	798.428	622.936
398.278	22.657	797.786	622.311
399.292	22.372	797.189	620.785
400.307	22.452	796.816	620.719
401.321	22.439	796.883	620.671
402.336	22.670	797.085	621.588
403.350	23.147	796.606	622.841
404.365	23.555	795.890	623.659
405.380	23.686	795.900	624.072
406.394	23.603	795.589	623.480
407.409	23.512	794.796	622.485
408.423	23.618	794.708	622.733
409.438	23.701	794.223	622.589
410.453	23.757	793.568	622.217
411.467	23.608	792.989	621.187
412.482	23.656	792.593	620.989
413.496	23.886	791.766	621.090
414.511	23.801	791.950	620.884
415.526	23.807	791.312	620.350
416.540	23.476	791.039	618.925
417.555	23.241	790.012	617.246
418.569	23.409	789.781	617.597
419.584	23.287	789.147	616.621
420.599	23.256	788.471	615.932
421.613	157.965	1364.826	1798.738
422.628	136.750	1448.802	1798.824
