DTS Sentinel unit serial number:	SN413079Multiplexer serial number:	ORYXHardware model number:	OX4-SRSoftware version number:	ORYX F/W v4.00 Oryx Data Collector v3.7.2.0data status	okinstallation	princeton_trtdifferential loss correction	single-endedforward channel	channel 1reverse channel	N/Adate	2019/09/13time	14:42:35forward acquisition time	60.00reverse acquisition time	0.00gamma	496.2192k internal	0.2300k external	0.2300temperature offset calibration	1.0161default loss term (dB/km)	0.3790temperature slope calibration	1.0000multiplexer offset coefficient	1.0000multiplexer slope coefficient	1.0000fibre end	0.00T internal ref (°C)	35.44T ext. ref 1 (°C)	4.67T ext. ref 2 (°C)	32.43length (m)	temperature (°C)	Stokes	anti-Stokes-747.200	800.000	-0.110	-0.405
-746.185	338.485	-0.075	0.149
-745.171	-32.820	-0.356	0.202
-744.156	-142.386	-0.280	0.028
-743.142	310.461	-0.042	0.080
-742.127	800.000	0.098	0.357
-741.112	-200.000	-0.195	-0.000
-740.098	361.223	-0.054	-0.110
-739.083	-200.000	-0.019	-0.444
-738.069	-29.127	0.249	-0.146
-737.054	195.224	0.140	-0.216
-736.039	106.659	-0.307	-0.371
-735.025	-200.000	-0.028	-0.201
-734.010	-41.957	-0.215	-0.112
-732.996	-200.000	-0.039	-0.285
-731.981	-116.968	0.201	-0.038
-730.966	237.636	-0.073	0.123
-729.952	659.098	-0.100	-0.261
-728.937	-100.206	0.339	-0.086
-727.923	41.065	-0.126	-0.116
-726.908	231.570	-0.205	-0.342
-725.894	-63.721	-0.167	-0.070
-724.879	33.928	0.145	-0.129
-723.864	-133.743	-0.235	-0.030
-722.850	399.919	-0.111	-0.237
-721.835	-69.085	-0.328	-0.129
-720.821	7.135	-0.447	-0.340
-719.806	434.971	-0.108	-0.238
-718.791	-68.678	-0.104	-0.041
-717.777	92.319	0.274	0.314
-716.762	800.000	0.046	-0.149
-715.748	-143.868	-0.121	0.012
-714.733	48.684	-0.201	-0.192
-713.718	-200.000	0.053	-0.404
-712.704	-200.000	-0.011	-0.146
-711.689	-97.440	-0.076	0.020
-710.675	-200.000	0.002	0.276
-709.660	-200.000	0.027	-0.318
-708.645	-200.000	0.015	-0.151
-707.631	-200.000	0.187	0.000
-706.616	-129.309	-0.129	-0.018
-705.602	113.712	-0.064	-0.080
-704.587	-92.701	0.187	0.053
-703.572	-77.405	-0.229	-0.081
-702.558	-91.938	-0.211	-0.061
-701.543	520.456	0.040	0.095
-700.529	800.000	-0.031	0.098
-699.514	42.060	-0.010	-0.010
-698.499	668.176	-0.061	-0.161
-697.485	-46.531	-0.083	-0.041
-696.470	440.157	0.056	0.126
-695.456	-200.000	-0.006	-0.051
-694.441	279.808	-0.044	-0.081
-693.426	91.963	-0.126	0.144
-692.412	-31.797	-0.041	0.023
-691.397	168.749	0.203	0.294
-690.383	-87.974	-0.347	0.106
-689.368	296.928	0.129	-0.242
-688.354	238.727	-0.055	0.092
-687.339	-200.000	0.019	-0.181
-686.324	-200.000	0.003	-0.169
-685.310	-107.986	0.079	-0.017
-684.295	-40.778	0.195	0.103
-683.281	-200.000	0.007	0.049
-682.266	142.165	0.020	0.027
-681.251	-99.239	0.155	-0.040
-680.237	800.000	-0.098	-0.326
-679.222	-112.148	-0.343	-0.070
-678.208	33.227	0.363	-0.320
-677.193	-95.282	-0.263	-0.072
-676.178	-181.847	-0.062	-0.001
-675.164	-160.220	0.104	-0.006
-674.149	609.208	0.082	-0.209
-673.135	104.446	0.166	-0.199
-672.120	-36.214	0.250	-0.137
-671.105	-124.972	0.116	0.018
-670.091	471.603	0.064	-0.146
-669.076	593.372	0.090	-0.225
-668.062	-200.000	0.004	-0.154
-667.047	800.000	-0.034	0.115
-666.032	-105.247	0.211	0.049
-665.018	519.803	-0.134	-0.320
-664.003	-200.000	-0.025	-0.266
-662.989	-200.000	-0.034	0.253
-661.974	49.426	0.144	-0.138
-660.959	-113.985	0.406	0.080
-659.945	-29.440	-0.236	-0.137
-658.930	-200.000	0.002	-0.278
-657.916	52.220	-0.095	0.092
-656.901	9.165	0.131	0.101
-655.886	-69.138	0.167	0.065
-654.872	18.953	0.180	0.147
-653.857	-99.553	-0.197	-0.050
-652.843	-42.131	-0.196	0.102
-651.828	2.500	0.113	0.083
-650.814	-144.706	-0.422	0.039
-649.799	-128.102	-0.371	-0.054
-648.784	16.749	0.074	-0.059
-647.770	150.069	0.078	-0.108
-646.755	611.967	-0.018	-0.044
-645.741	-155.630	-0.496	0.032
-644.726	-12.182	-0.199	0.132
-643.711	-38.388	0.410	-0.221
-642.697	-200.000	0.002	-0.371
-641.682	372.339	-0.079	0.162
-640.668	-19.423	-0.117	0.074
-639.653	42.518	-0.228	-0.211
-638.638	346.083	0.173	-0.345
-637.624	-200.000	-0.030	-0.220
-636.609	201.205	-0.139	-0.218
-635.595	68.620	0.091	0.095
-634.580	213.873	-0.028	-0.044
-633.565	153.517	0.077	0.107
-632.551	-6.384	0.192	0.133
-631.536	800.000	0.067	0.253
-630.522	-36.005	-0.354	-0.195
-629.507	800.000	-0.024	0.104
-628.492	-65.318	-0.360	-0.147
-627.478	9.421	-0.051	-0.039
-626.463	-55.975	0.158	0.071
-625.449	-115.248	-0.194	0.037
-624.434	-7.307	-0.323	-0.222
-623.419	-200.000	-0.097	0.553
-622.405	362.394	0.134	-0.272
-621.390	-184.250	0.026	0.000
-620.376	22.534	-0.284	0.236
-619.361	13.210	-0.279	-0.219
-618.346	-44.018	0.133	0.068
-617.332	91.737	-0.250	-0.285
-616.317	-121.361	0.034	0.006
-615.303	74.120	-0.096	0.102
-614.288	134.354	-0.057	0.075
-613.273	367.920	0.155	0.318
-612.259	-200.000	-0.022	0.179
-611.244	-78.833	0.295	0.102
-610.230	55.126	-0.230	-0.225
-609.215	340.144	-0.089	0.177
-608.201	-200.000	0.018	-0.194
-607.186	-200.000	-0.025	-0.123
-606.171	634.078	0.068	0.176
-605.157	-200.000	0.027	0.153
-604.142	87.920	0.153	0.172
-603.128	-26.279	-0.063	-0.038
-602.113	649.531	0.135	-0.351
-601.098	430.430	0.069	-0.151
-600.084	-33.048	0.092	-0.051
-599.069	-23.811	0.137	-0.083
-598.055	330.516	-0.136	-0.266
-597.040	-154.963	-0.202	0.014
-596.025	-14.715	0.207	-0.135
-595.011	-5.086	0.301	0.210
-593.996	-34.620	-0.237	0.132
-592.982	168.945	-0.176	-0.254
-591.967	-182.241	0.107	-0.002
-590.952	-200.000	0.010	-0.153
-589.938	-200.000	0.014	0.125
-588.923	-44.499	-0.298	0.151
-587.909	-200.000	0.064	0.386
-586.894	-200.000	-0.015	-0.513
-585.879	-200.000	-0.020	0.162
-584.865	-1.060	-0.198	0.142
-583.850	576.450	-0.086	0.214
-582.836	145.139	0.061	0.082
-581.821	-99.756	0.061	-0.015
-580.806	800.000	0.112	0.364
-579.792	-86.059	-0.301	0.094
-578.777	-68.260	-0.294	0.116
-577.763	-34.197	0.118	-0.066
-576.748	-200.000	0.038	-0.253
-575.733	44.516	0.214	-0.199
-574.719	51.087	-0.049	0.047
-573.704	83.672	-0.098	0.109
-572.690	-70.086	-0.059	-0.023
-571.675	-71.015	0.207	-0.079
-570.661	-101.480	0.274	0.068
-569.646	-74.607	-0.116	0.042
-568.631	-200.000	-0.000	-0.329
-567.617	-119.575	0.260	0.046
-566.602	-200.000	-0.008	0.068
-565.588	-200.000	0.037	0.212
-564.573	555.084	0.237	-0.578
-563.558	511.769	0.067	0.159
-562.544	-96.606	0.065	0.017
-561.529	-106.761	0.129	0.029
-560.515	-34.676	-0.509	-0.282
-559.500	-200.000	0.022	-0.146
-558.485	-200.000	0.032	-0.266
-557.471	12.441	0.220	0.172
-556.456	-34.253	-0.087	-0.048
-555.442	-107.353	-0.263	0.058
-554.427	127.246	-0.068	0.087
-553.412	73.193	0.107	0.114
-552.398	412.729	0.124	-0.267
-551.383	86.572	0.155	-0.173
-550.369	434.756	-0.104	-0.230
-549.354	-200.000	0.024	0.169
-548.339	259.949	-0.131	0.229
-547.325	-200.000	-0.009	0.281
-546.310	-30.899	-0.296	0.169
-545.296	800.000	0.031	0.123
-544.281	-200.000	0.024	0.206
-543.266	275.315	-0.069	0.125
-542.252	440.457	-0.120	-0.265
-541.237	-105.880	-0.246	-0.056
-540.223	800.000	-0.055	0.195
-539.208	-128.186	-0.127	-0.018
-538.193	-113.926	0.290	-0.057
-537.179	-74.960	0.244	-0.088
-536.164	-200.000	-0.053	0.249
-535.150	-161.955	-0.242	0.012
-534.135	-80.772	-0.092	0.031
-533.121	-200.000	0.029	0.144
-532.106	-97.157	-0.280	-0.074
-531.091	-68.115	0.204	-0.080
-530.077	407.911	0.124	0.265
-529.062	-17.517	-0.237	0.151
-528.048	-176.785	-0.219	0.006
-527.033	-132.432	-0.124	0.016
-526.018	348.574	0.044	0.087
-525.004	-80.197	-0.061	0.021
-523.989	502.473	0.159	-0.372
-522.975	98.336	0.130	0.151
-521.960	800.000	0.023	0.093
-520.945	106.051	0.073	0.087
-519.931	-105.728	-0.124	-0.028
-518.916	176.777	-0.164	0.241
-517.902	-99.371	0.436	0.111
-516.887	-51.801	0.157	-0.074
-515.872	41.721	-0.033	0.030
-514.858	107.906	0.101	0.121
-513.843	-117.327	0.084	-0.015
-512.829	-200.000	-0.027	-0.228
-511.814	-83.002	0.290	0.094
-510.799	-84.110	-0.338	0.108
-509.785	583.549	-0.058	0.144
-508.770	571.036	-0.106	-0.260
-507.756	-45.481	0.060	0.030
-506.741	-200.000	-0.015	-0.118
-505.726	800.000	0.022	-0.089
-504.712	721.615	0.070	0.188
-503.697	-178.453	0.189	0.004
-502.683	800.000	-0.032	0.112
-501.668	733.999	-0.087	0.234
-500.653	509.526	-0.156	0.366
-499.639	111.322	-0.142	-0.173
-498.624	338.923	0.090	0.178
-497.610	137.953	0.127	-0.168
-496.595	-39.767	0.197	-0.104
-495.581	800.000	0.041	0.149
-494.566	-39.694	-0.161	-0.085
-493.551	-104.173	0.241	-0.056
-492.537	800.000	0.048	0.167
-491.522	-186.710	0.239	0.003
-490.508	88.877	0.109	0.122
-489.493	-136.461	-0.496	0.058
-488.478	-200.000	0.004	0.052
-487.464	120.807	0.113	0.141
-486.449	3.570	0.213	-0.156
-485.435	-200.000	0.005	-0.362
-484.420	-200.000	-0.018	0.105
-483.405	-200.000	0.020	0.192
-482.391	-14.364	-0.163	0.106
-481.376	16.377	-0.286	-0.228
-480.362	-200.000	-0.046	-0.286
-479.347	9.984	0.222	0.170
-478.332	162.749	-0.078	0.111
-477.318	-200.000	0.042	0.341
-476.303	-87.252	-0.100	-0.031
-475.289	-112.995	0.291	0.058
-474.274	-37.790	-0.227	0.122
-473.259	67.822	0.064	0.066
-472.245	800.000	-0.054	0.213
-471.230	544.892	0.218	0.526
-470.216	177.024	0.088	0.129
-469.201	-115.847	0.137	0.026
-468.186	-200.000	-0.026	0.260
-467.172	800.000	-0.085	0.304
-466.157	-38.789	0.102	-0.054
-465.143	482.222	-0.095	-0.217
-464.128	2.450	0.154	-0.112
-463.113	247.850	-0.109	-0.186
-462.099	-124.616	-0.166	0.026
-461.084	60.741	0.151	-0.151
-460.070	230.792	0.140	-0.231
-459.055	265.687	-0.095	-0.168
-458.040	-16.427	-0.193	-0.124
-457.026	-48.752	0.221	0.107
-456.011	-200.000	0.019	-0.181
-454.997	263.628	-0.196	0.343
-453.982	-200.000	-0.069	-0.347
-452.968	166.141	-0.116	-0.166
-451.953	545.587	-0.110	0.265
-450.938	-42.231	-0.045	0.023
-449.924	313.225	-0.095	-0.180
-448.909	4.098	0.086	-0.063
-447.895	-20.037	0.369	-0.229
-446.880	800.000	0.053	-0.162
-445.865	16.720	-0.084	0.067
-444.851	86.741	0.044	0.049
-443.836	-200.000	-0.032	-0.176
-442.822	443.223	0.142	-0.313
-441.807	75.807	-0.156	0.166
-440.792	178.874	-0.180	-0.265
-439.778	-63.714	0.197	-0.081
-438.763	800.000	0.024	0.074
-437.749	66.415	-0.091	-0.093
-436.734	483.799	-0.136	-0.311
-435.719	-200.000	-0.011	-0.433
-434.705	-27.538	0.153	0.090
-433.690	-139.643	0.298	0.032
-432.676	419.795	-0.132	-0.285
-431.661	-44.268	-0.355	0.179
-430.646	-109.677	0.146	0.031
-429.632	7.773	-0.098	0.074
-428.617	20.925	-0.184	0.151
-427.603	800.000	0.077	-0.293
-426.588	-18.246	0.210	-0.132
-425.573	-200.000	0.041	-0.187
-424.559	-112.529	0.268	0.054
-423.544	-144.946	-0.107	0.010
-422.530	181.561	0.049	0.072
-421.515	-119.769	0.186	-0.032
-420.500	-200.000	-0.023	-0.142
-419.486	85.662	0.262	-0.290
-418.471	-200.000	-0.006	-0.216
-417.457	-85.368	0.115	0.036
-416.442	-200.000	-0.007	-0.390
-415.428	-79.019	0.437	-0.150
-414.413	-191.723	0.297	0.003
-413.398	63.066	0.171	-0.172
-412.384	-192.749	-0.386	0.004
-411.369	-200.000	-0.018	-0.143
-410.355	-110.957	0.181	-0.037
-409.340	216.765	0.106	0.170
-408.325	-132.455	-0.155	0.020
-407.311	352.790	-0.191	-0.380
-406.296	-200.000	0.058	-0.269
-405.282	800.000	-0.041	0.181
-404.267	800.000	-0.084	-0.334
-403.252	-48.841	0.189	0.091
-402.238	-89.329	-0.274	0.081
-401.223	-121.363	-0.180	0.030
-400.209	-21.876	0.069	-0.042
-399.194	-81.335	-0.083	0.027
-398.179	-87.520	-0.370	0.113
-397.165	231.464	-0.070	0.116
-396.150	-85.737	-0.077	0.024
-395.136	324.686	-0.054	0.104
-394.121	-108.779	-0.077	0.017
-393.106	-74.009	-0.165	-0.060
-392.092	-148.395	-0.076	-0.006
-391.077	98.802	0.209	-0.243
-390.063	-200.000	-0.008	-0.139
-389.048	800.000	-0.110	0.324
-388.033	126.447	-0.060	0.076
-387.019	-200.000	-0.023	-0.319
-386.004	108.682	-0.372	0.447
-384.990	215.659	-0.105	-0.168
-383.975	-78.163	-0.231	0.080
-382.960	4.637	0.205	0.152
-381.946	-200.000	0.054	-0.318
-380.931	267.738	-0.027	0.047
-379.917	-73.526	0.098	-0.036
-378.902	-200.000	0.018	-0.169
-377.888	-200.000	-0.020	0.158
-376.873	-200.000	-0.002	0.024
-375.858	-53.844	0.111	0.051
-374.844	63.173	-0.155	0.156
-373.829	229.847	-0.194	0.319
-372.815	-138.748	0.277	-0.030
-371.800	-23.272	-0.054	-0.033
-370.785	-200.000	0.008	0.194
-369.771	-26.620	-0.492	0.289
-368.756	800.000	0.025	-0.085
-367.742	80.848	0.140	-0.151
-366.727	-78.904	0.146	0.050
-365.712	-43.760	-0.175	-0.089
-364.698	-200.000	0.012	0.484
-363.683	-200.000	-0.043	-0.188
-362.669	-85.148	-0.167	-0.053
-361.654	-200.000	-0.028	-0.127
-360.639	-140.285	-0.207	0.022
-359.625	12.480	0.149	0.115
-358.610	-200.000	-0.013	-0.347
-357.596	39.817	-0.137	0.124
-356.581	265.851	-0.044	0.076
-355.566	800.000	0.056	-0.164
-354.552	-92.901	-0.390	-0.109
-353.537	480.998	-0.097	-0.220
-352.523	494.062	0.128	-0.295
-351.508	-50.239	0.257	0.122
-350.493	-89.542	0.383	0.113
-349.479	800.000	-0.020	0.075
-348.464	-8.352	0.138	-0.094
-347.450	-200.000	0.010	-0.286
-346.435	-185.676	0.300	-0.005
-345.420	-200.000	0.012	-0.136
-344.406	-89.456	-0.196	-0.058
-343.391	-91.101	-0.292	-0.084
-342.377	658.104	0.179	-0.461
-341.362	-112.879	-0.363	0.072
-340.348	43.506	-0.057	0.052
-339.333	-23.308	0.239	-0.144
-338.318	146.461	0.136	-0.184
-337.304	-24.835	0.408	-0.243
-336.289	227.576	0.095	-0.155
-335.275	-24.951	0.184	-0.110
-334.260	34.124	0.086	0.075
-333.245	-132.156	-0.230	-0.030
-332.231	-200.000	-0.002	0.087
-331.216	-200.000	-0.009	-0.147
-330.202	-28.324	0.326	-0.189
-329.187	-165.711	-0.168	0.007
-328.172	-200.000	0.015	-0.121
-327.158	-113.453	-0.178	-0.035
-326.143	-142.191	0.466	-0.046
-325.129	395.940	-0.210	0.439
-324.114	-95.384	0.397	0.107
-323.099	-96.819	0.231	-0.061
-322.085	-93.722	-0.261	-0.072
-321.070	80.921	0.187	-0.203
-320.056	72.147	-0.166	-0.174
-319.041	42.009	0.065	0.059
-318.026	21.903	0.344	-0.281
-317.012	-136.087	-0.375	0.044
-315.997	-200.000	0.084	0.000
-314.983	517.869	-0.122	0.287
-313.968	-58.599	-0.024	0.010
-312.953	92.625	0.171	-0.194
-311.939	-200.000	-0.065	0.416
-310.924	121.249	-0.147	0.184
-309.910	-109.625	-0.197	-0.042
-308.895	537.897	0.128	-0.305
-307.880	-129.316	0.145	0.020
-306.866	42.432	0.204	0.186
-305.851	-200.000	0.028	0.173
-304.837	-57.315	0.144	0.063
-303.822	-69.383	-0.249	0.096
-302.807	234.118	0.195	0.323
-301.793	215.458	0.054	-0.086
-300.778	273.897	0.136	0.241
-299.764	-98.672	0.062	-0.016
-298.749	-200.000	-0.029	-0.202
-297.735	-24.215	-0.281	-0.168
-296.720	115.411	0.349	-0.427
-295.705	-45.870	-0.221	-0.109
-294.691	-15.092	0.252	-0.162
-293.676	-153.157	-0.134	0.009
-292.662	-132.881	0.204	-0.026
-291.647	66.611	-0.083	-0.085
-290.632	-67.077	-0.308	-0.122
-289.618	-64.156	-0.108	-0.044
-288.603	79.177	0.087	-0.093
-287.589	-129.482	-0.262	0.036
-286.574	137.697	-0.117	0.154
-285.559	148.081	0.094	-0.128
-284.545	93.361	0.149	0.169
-283.530	107.816	-0.219	0.261
-282.516	-148.876	0.235	0.019
-281.501	127.467	0.187	0.238
-280.486	-23.640	0.339	-0.204
-279.472	-200.000	0.007	-0.080
-278.457	-26.896	-0.076	0.045
-277.443	-133.403	0.203	0.026
-276.428	4.651	-0.221	0.162
-275.413	42.965	0.095	0.087
-274.399	800.000	-0.113	-0.327
-273.384	46.152	0.220	0.204
-272.370	89.671	-0.162	0.181
-271.355	-128.302	-0.310	-0.044
-270.340	-106.578	-0.368	0.082
-269.326	-134.411	-0.205	0.025
-268.311	-200.000	0.026	0.212
-267.297	214.541	0.170	0.269
-266.282	22.341	-0.086	0.070
-265.267	-138.752	-0.407	0.044
-264.253	-25.645	0.162	0.096
-263.238	-26.753	0.116	0.068
-262.224	57.924	-0.108	0.106
-261.209	143.806	0.179	0.238
-260.195	76.268	0.124	-0.131
-259.180	13.024	-0.049	0.038
-258.165	-66.477	0.214	-0.085
-257.151	6.477	-0.231	-0.172
-256.136	-8.318	0.081	-0.055
-255.122	120.921	0.243	-0.302
-254.107	30.278	0.276	0.235
-253.092	52.789	-0.056	-0.053
-252.078	-174.472	-0.212	0.006
-251.063	7.676	-0.106	-0.079
-250.049	-99.971	0.216	-0.054
-249.034	245.625	-0.028	0.047
-248.019	47.593	0.246	-0.230
-247.005	-43.449	0.095	0.048
-245.990	-60.215	0.155	-0.066
-244.976	-158.421	0.260	-0.015
-243.961	800.000	-0.031	0.121
-242.946	-200.000	-0.024	-0.132
-241.932	109.001	-0.203	-0.243
-240.917	800.000	0.129	0.443
-239.903	484.532	0.126	0.287
-238.888	30.598	-0.084	0.072
-237.873	211.598	-0.105	0.165
-236.859	54.462	0.164	0.158
-235.844	-200.000	-0.078	0.398
-234.830	-6.491	-0.110	0.075
-233.815	800.000	0.024	0.087
-232.800	800.000	0.022	-0.063
-231.786	-46.934	0.407	0.199
-230.771	316.701	0.107	-0.203
-229.757	-143.842	-0.310	0.029
-228.742	-155.644	0.279	0.018
-227.727	800.000	-0.022	-0.093
-226.713	-65.998	-0.186	-0.074
-225.698	179.400	0.149	-0.217
-224.684	-74.193	0.180	-0.065
-223.669	221.137	-0.198	-0.317
-222.655	15.003	0.291	0.227
-221.640	-54.931	-0.139	0.063
-220.625	-158.132	-0.095	-0.006
-219.611	-200.000	-0.016	-0.092
-218.596	800.000	-0.104	0.294
-217.582	74.137	0.163	0.171
-216.567	11.420	0.243	-0.186
-215.552	109.716	0.113	-0.136
-214.538	137.181	-0.202	0.264
-213.523	756.951	0.069	-0.185
-212.509	-17.659	-0.281	-0.176
-211.494	-62.477	0.075	0.031
-210.479	-91.655	-0.068	-0.019
-209.465	9.682	-0.245	0.186
-208.450	-113.568	0.358	0.070
-207.436	23.197	0.141	-0.116
-206.421	-200.000	-0.003	0.197
-205.406	77.354	0.226	0.240
-204.392	-98.167	-0.202	-0.052
-203.377	131.061	-0.071	0.091
-202.363	160.321	0.038	0.053
-201.348	88.754	0.141	0.156
-200.333	-200.000	-0.002	-0.128
-199.319	36.399	-0.191	0.168
-198.304	-93.304	-0.037	0.010
-197.290	-159.588	0.408	-0.023
-196.275	116.732	-0.152	0.186
-195.260	-200.000	-0.020	0.146
-194.246	14.493	-0.123	-0.096
-193.231	-93.841	0.209	0.057
-192.217	347.005	-0.097	-0.191
-191.202	800.000	0.015	-0.057
-190.187	-54.861	-0.324	0.146
-189.173	21.442	0.109	0.088
-188.158	17.095	0.325	-0.257
-187.144	-72.102	0.130	0.048
-186.129	-1.151	0.034	-0.024
-185.114	534.145	0.148	0.350
-184.100	22.618	-0.280	-0.228
-183.085	800.000	-0.082	-0.272
-182.071	-95.119	0.092	0.025
-181.056	-130.759	-0.144	-0.019
-180.042	134.910	-0.215	0.279
-179.027	91.599	0.056	0.063
-178.012	-13.014	-0.212	0.138
-176.998	-72.718	0.103	0.038
-175.983	253.423	0.152	-0.260
-174.969	22.312	-0.179	0.146
-173.954	338.399	-0.066	-0.129
-172.939	-114.475	0.443	-0.085
-171.925	-182.409	0.069	-0.001
-170.910	-200.000	0.006	-0.048
-169.896	262.910	0.038	0.066
-168.881	157.896	-0.172	0.237
-167.866	20.477	0.186	0.150
-166.852	-200.000	0.010	-0.133
-165.837	31.861	-0.169	0.145
-164.823	338.229	0.071	-0.137
-163.808	-25.818	-0.044	-0.026
-162.793	800.000	0.017	0.066
-161.779	800.000	0.047	-0.165
-160.764	-74.585	-0.108	-0.039
-159.750	800.000	-0.086	0.252
-158.735	-200.000	-0.028	0.185
-157.720	800.000	-0.087	0.288
-156.706	-103.397	0.177	0.042
-155.691	-163.131	0.095	-0.005
-154.677	534.180	-0.166	0.391
-153.662	-67.368	-0.205	0.080
-152.647	522.448	-0.023	-0.054
-151.633	-112.791	0.189	0.037
-150.618	-101.628	-0.158	-0.038
-149.604	503.094	-0.074	0.170
-148.589	72.740	0.073	0.076
-147.574	-200.000	0.014	0.277
-146.560	151.677	0.120	0.163
-145.545	165.868	0.216	-0.305
-144.531	-10.300	-0.235	0.155
-143.516	-144.007	-0.074	0.007
-142.502	-5.907	0.322	0.220
-141.487	-200.000	-0.026	0.144
-140.472	407.676	-0.061	0.129
-139.458	-62.224	0.204	-0.085
-138.443	370.927	0.078	0.158
-137.429	162.999	-0.053	0.074
-136.414	313.289	0.065	0.121
-135.399	-104.716	-0.171	0.039
-134.385	-77.602	0.124	-0.043
-133.370	500.844	-0.102	-0.233
-132.356	203.813	-0.161	0.247
-131.341	800.000	0.140	-0.443
-130.326	-101.986	-0.107	0.026
-129.312	-23.703	-0.160	0.096
-128.297	-96.849	0.241	-0.063
-127.283	-180.992	0.122	0.002
-126.268	-71.679	-0.106	0.039
-125.253	-26.319	0.290	0.169
-124.239	130.036	0.206	0.262
-123.224	67.626	-0.182	0.185
-122.210	42.452	0.079	0.071
-121.195	800.000	0.085	-0.261
-120.180	34.885	0.249	0.217
-119.166	627.710	0.090	-0.226
-118.151	-48.695	-0.201	-0.096
-117.137	168.194	-0.151	-0.214
-116.122	-92.294	0.199	-0.056
-115.107	800.000	0.074	-0.215
-114.093	730.305	-0.061	-0.161
-113.078	-19.487	0.106	0.066
-112.064	-200.000	0.030	-0.185
-111.049	276.471	-0.113	0.199
-110.034	-81.700	-0.057	0.019
-109.020	-22.716	-0.229	0.138
-108.005	-200.000	0.024	-0.129
-106.991	-23.651	0.163	-0.097
-105.976	-26.723	0.172	0.100
-104.962	-32.916	-0.264	0.146
-103.947	-200.000	0.025	-0.234
-102.932	99.475	0.217	-0.250
-101.918	590.969	-0.114	0.280
-100.903	-200.000	0.074	0.454
-99.889	-175.968	0.124	-0.003
-98.874	-17.575	0.024	-0.015
-97.859	382.074	-0.205	0.419
-96.845	-11.292	0.301	-0.197
-95.830	43.118	-0.158	0.144
-94.816	5.863	0.406	0.299
-93.801	-200.000	0.002	0.043
-92.786	-128.811	0.250	-0.035
-91.772	800.000	-0.052	0.162
-90.757	320.296	-0.090	-0.170
-89.743	-200.000	-0.047	-0.207
-88.728	-152.308	0.113	-0.008
-87.713	-87.063	-0.147	0.044
-86.699	-77.531	0.429	-0.148
-85.684	800.000	-0.031	0.090
-84.670	6.281	-0.175	0.129
-83.655	-92.578	0.203	-0.057
-82.640	46.523	0.011	0.010
-81.626	314.174	0.213	0.399
-80.611	4.762	0.275	0.201
-79.597	-92.791	-0.331	-0.092
-78.582	-101.406	0.159	-0.039
-77.567	800.000	0.136	-0.579
-76.553	-74.511	0.178	-0.064
-75.538	-84.192	-0.304	-0.096
-74.524	31.940	-0.076	0.065
-73.509	402.504	-0.036	-0.076
-72.494	-122.037	-0.272	0.044
-71.480	800.000	0.064	0.184
-70.465	54.161	0.096	-0.091
-69.451	-200.000	-0.050	-0.295
-68.436	-39.752	-0.228	0.118
-67.422	172.913	0.080	-0.114
-66.407	98.712	-0.129	-0.148
-65.392	421.720	-0.154	0.328
-64.378	746.870	-0.042	0.112
-63.363	130.483	-0.250	0.318
-62.349	-23.158	0.096	0.058
-61.334	168.197	-0.579	-0.818
-60.319	800.000	0.104	0.290
-59.305	-200.000	-0.023	-0.547
-58.290	155.582	0.608	0.832
-57.276	766.440	0.610	1.647
-56.261	-200.000	92.950	545.084
-55.246	605.903	1381.094	3416.030
-54.232	185.927	2598.974	3835.369
-53.217	121.627	2200.328	2722.804
-52.203	47.093	1649.079	1523.004
-51.188	38.921	1382.448	1225.938
-50.173	35.592	1339.306	1167.447
-49.159	55.989	1386.541	1335.145
-48.144	60.361	1404.771	1379.650
-47.130	39.371	1360.266	1208.841
-46.115	35.704	1341.823	1170.138
-45.100	35.376	1337.519	1164.349
-44.086	35.365	1334.715	1161.791
-43.071	35.279	1332.718	1159.492
-42.057	35.185	1330.959	1157.343
-41.042	35.320	1328.956	1156.371
-40.027	35.395	1327.009	1155.081
-39.013	35.434	1325.066	1153.583
-37.998	35.326	1323.428	1151.458
-36.984	35.429	1321.313	1150.189
-35.969	35.337	1319.728	1148.217
-34.954	35.396	1318.057	1147.069
-33.940	35.505	1316.820	1146.598
-32.925	35.390	1315.511	1144.728
-31.911	35.716	1313.023	1144.460
-30.896	35.622	1312.289	1143.210
-29.881	35.664	1310.765	1142.087
-28.867	35.551	1309.514	1140.284
-27.852	35.589	1308.403	1139.494
-26.838	35.609	1306.700	1138.084
-25.823	35.518	1305.300	1136.281
-24.809	35.491	1303.982	1134.932
-23.794	35.469	1302.302	1133.291
-22.779	35.477	1301.245	1132.375
-21.765	35.506	1300.043	1131.456
-20.750	35.523	1298.435	1130.112
-19.736	35.521	1296.839	1128.663
-18.721	35.368	1296.116	1127.091
-17.706	35.355	1294.737	1125.776
-16.692	35.386	1293.267	1124.630
-15.677	35.407	1291.940	1123.555
-14.663	35.388	1291.492	1123.010
-13.648	35.386	1290.130	1121.771
-12.633	35.276	1289.378	1120.432
-11.619	35.359	1288.369	1119.995
-10.604	35.365	1287.134	1118.912
-9.590	35.371	1286.454	1118.309
-8.575	35.330	1285.272	1116.996
-7.560	35.319	1284.716	1116.405
-6.546	35.290	1283.834	1115.429
-5.531	35.428	1282.410	1114.950
-4.517	35.289	1281.583	1113.375
-3.502	35.425	1280.725	1113.374
-2.487	35.365	1279.773	1112.159
-1.473	35.518	1275.620	1109.391
-0.458	34.214	1261.286	1089.426
0.556	32.773	1241.875	1049.238
1.571	28.299	1245.498	1027.179
2.586	26.721	1259.392	1029.585
3.600	24.820	1246.303	1008.095
4.615	18.621	1172.332	915.215
5.629	9.371	1094.832	808.353
6.644	5.089	1073.108	771.111
7.659	4.613	1070.622	766.911
8.673	4.473	1069.265	765.183
9.688	4.517	1067.901	764.357
10.702	5.201	1067.000	767.004
11.717	11.140	1075.592	802.446
12.731	19.661	1087.180	853.280
13.746	22.519	1090.185	869.693
14.761	21.874	1088.648	865.209
15.775	21.004	1086.756	859.343
16.790	19.956	1084.712	852.494
17.804	19.325	1082.986	847.958
18.819	18.878	1082.248	845.108
19.834	18.819	1081.316	844.015
20.848	18.723	1080.391	842.750
21.863	18.548	1079.719	841.288
22.877	18.401	1079.418	840.260
23.892	18.356	1078.191	839.013
24.907	18.381	1077.542	838.555
25.921	18.263	1076.804	837.329
26.936	18.324	1075.202	836.305
27.950	18.449	1073.772	835.728
28.965	18.435	1072.445	834.554
29.980	18.554	1071.076	833.994
30.994	18.705	1069.988	833.807
32.009	18.721	1069.205	833.199
33.023	18.675	1067.284	831.408
34.038	18.610	1066.460	830.379
35.053	18.386	1066.125	828.957
36.067	18.394	1065.220	828.221
37.082	18.473	1064.253	827.776
38.096	18.620	1063.689	827.973
39.111	18.573	1062.973	827.117
40.126	18.520	1061.533	825.666
41.140	18.208	1060.338	823.163
42.155	18.105	1058.840	821.434
43.169	18.062	1057.849	820.386
44.184	18.115	1056.725	819.695
45.199	18.074	1055.828	818.734
46.213	18.064	1055.149	818.085
47.228	18.283	1054.453	818.520
48.242	18.382	1053.251	817.989
49.257	18.309	1052.189	816.742
50.271	18.407	1051.708	816.765
51.286	18.651	1050.787	817.139
52.301	18.514	1049.535	815.443
53.315	18.405	1048.401	813.971
54.330	18.255	1047.704	812.646
55.344	18.260	1046.479	811.644
56.359	18.240	1045.666	810.847
57.374	18.082	1044.620	809.219
58.388	18.160	1043.545	808.683
59.403	17.963	1042.734	807.052
60.417	17.968	1042.567	806.877
61.432	17.987	1041.672	806.200
62.447	18.128	1040.314	805.742
63.461	18.008	1039.169	804.217
64.476	17.889	1038.831	803.325
65.490	17.808	1038.112	802.321
66.505	17.896	1037.471	802.165
67.520	18.033	1036.696	802.140
68.534	17.968	1035.817	801.085
69.549	17.940	1035.012	800.257
70.563	17.864	1033.983	799.037
71.578	17.655	1033.519	797.627
72.593	17.706	1031.985	796.613
73.607	17.750	1031.402	796.297
74.622	17.788	1030.953	796.057
75.636	17.782	1030.417	795.548
76.651	17.827	1029.299	794.823
77.666	17.741	1029.112	794.205
78.680	17.906	1028.375	794.336
79.695	17.890	1027.979	793.883
80.709	17.934	1027.607	793.734
81.724	17.975	1027.057	793.429
82.739	18.091	1026.190	793.225
83.753	18.347	1025.495	793.802
84.768	18.604	1024.590	794.225
85.782	18.733	1023.881	794.199
86.797	18.659	1022.960	793.073
87.812	18.461	1021.816	791.203
88.826	18.621	1020.512	790.861
89.841	18.510	1019.916	789.818
90.855	18.646	1019.118	789.757
91.870	18.731	1018.317	789.458
92.884	18.609	1017.580	788.253
93.899	18.670	1016.342	787.504
94.914	18.761	1015.639	787.311
95.928	18.679	1015.085	786.435
96.943	18.658	1013.777	785.255
97.957	18.531	1012.977	783.984
98.972	18.618	1012.124	783.651
99.987	18.661	1011.287	783.134
101.001	18.599	1010.591	782.241
102.016	18.639	1009.250	781.315
103.030	18.571	1008.858	780.635
104.045	18.513	1008.135	779.743
105.060	18.468	1006.881	778.501
106.074	18.261	1005.750	776.616
107.089	18.014	1004.766	774.669
108.103	17.979	1003.971	773.827
109.118	17.894	1002.996	772.624
110.133	17.920	1001.999	771.905
111.147	17.852	1000.556	770.416
112.162	18.035	1000.087	770.813
113.176	18.233	999.237	770.982
114.191	18.196	998.796	770.408
115.206	18.079	998.276	769.409
116.220	18.011	997.460	768.406
117.235	18.118	995.880	767.603
118.249	17.969	995.253	766.384
119.264	17.867	994.437	765.228
120.279	18.022	993.570	765.189
121.293	17.852	992.615	763.625
122.308	17.751	992.064	762.684
123.322	17.765	990.854	761.749
124.337	17.824	989.650	761.016
125.352	17.782	989.000	760.264
126.366	17.718	988.080	759.203
127.381	17.882	986.611	758.737
128.395	17.735	986.183	757.689
129.410	17.862	984.983	757.264
130.424	18.009	984.511	757.487
131.439	18.119	983.923	757.454
132.454	18.129	982.801	756.563
133.468	18.152	982.330	756.238
134.483	18.188	981.098	755.383
135.497	18.118	980.291	754.386
136.512	18.285	979.544	754.479
137.527	18.224	978.903	753.650
138.541	18.171	978.332	752.909
139.556	18.346	977.175	752.722
140.570	18.442	976.898	752.863
141.585	18.600	975.835	752.672
142.600	18.670	975.275	752.479
143.614	18.799	973.959	751.964
144.629	18.700	973.473	751.089
145.643	18.681	972.438	750.139
146.658	18.474	971.506	748.453
147.673	18.306	970.216	746.657
148.687	18.201	969.618	745.676
149.702	18.241	968.681	745.062
150.716	18.106	967.495	743.497
151.731	18.211	966.847	743.388
152.746	18.235	966.260	742.978
153.760	18.309	965.669	742.779
154.775	18.320	965.336	742.503
155.789	18.517	964.218	742.432
156.804	18.438	963.804	741.704
157.819	18.533	963.190	741.578
158.833	18.757	962.338	741.824
159.848	18.802	961.658	741.430
160.862	18.518	960.911	739.560
161.877	18.325	959.134	737.298
162.892	18.222	958.613	736.390
163.906	18.292	957.155	735.503
164.921	18.181	956.516	734.471
165.935	18.409	955.458	734.571
166.950	18.481	954.819	734.326
167.964	18.230	954.346	732.819
168.979	18.260	952.829	731.717
169.994	18.246	952.192	731.105
171.008	18.426	951.608	731.361
172.023	18.530	951.217	731.441
173.037	18.640	950.439	731.244
174.052	18.608	949.317	730.181
175.067	18.395	948.429	728.526
176.081	18.167	947.803	727.015
177.096	18.083	947.427	726.303
178.110	18.275	946.831	726.598
179.125	18.196	946.499	725.944
180.140	18.327	945.860	725.942
181.154	18.552	945.372	726.458
182.169	18.551	944.830	725.974
183.183	18.654	944.289	725.928
184.198	18.728	943.215	725.351
185.213	18.705	942.478	724.624
186.227	18.830	941.502	724.338
187.242	18.648	941.745	723.693
188.256	18.876	941.034	724.041
189.271	18.883	940.399	723.521
190.286	18.581	939.088	721.175
191.300	18.124	938.067	718.409
192.315	18.123	937.194	717.673
193.329	18.180	937.055	717.741
194.344	18.275	936.522	717.668
195.359	18.450	936.355	718.212
196.373	18.695	935.545	718.554
197.388	18.716	935.369	718.442
198.402	18.880	934.888	718.692
199.417	19.015	934.214	718.676
200.432	19.126	933.640	718.635
201.446	19.111	933.686	718.544
202.461	19.243	932.776	718.330
203.475	19.151	931.817	717.144
204.490	18.918	930.948	715.442
205.504	18.928	930.296	714.919
206.519	18.870	929.333	713.874
207.534	18.685	929.013	712.800
208.548	18.791	928.182	712.537
209.563	18.926	927.347	712.392
210.577	19.069	926.414	712.207
211.592	19.107	926.460	712.333
212.607	19.179	925.480	711.817
213.621	19.000	924.879	710.552
214.636	18.963	924.423	709.986
215.650	19.163	923.389	709.952
216.665	19.189	922.849	709.582
217.680	19.190	922.215	709.036
218.694	19.158	921.780	708.507
219.709	19.248	920.919	708.151
220.723	19.197	920.428	707.503
221.738	19.182	919.550	706.704
222.753	19.099	919.024	705.895
223.767	19.274	918.642	706.257
224.782	19.327	918.314	706.161
225.796	19.418	917.853	706.116
226.811	19.223	917.057	704.645
227.826	19.229	915.840	703.671
228.840	19.113	915.268	702.696
229.855	19.217	914.320	702.331
230.869	19.176	913.407	701.398
231.884	19.061	912.838	700.431
232.899	19.054	912.051	699.740
233.913	19.052	911.063	698.911
234.928	18.937	910.881	698.243
235.942	18.898	910.325	697.596
236.957	18.952	909.748	697.312
237.972	18.822	909.277	696.360
238.986	19.055	908.437	696.598
240.001	18.931	907.675	695.453
241.015	19.068	907.145	695.539
242.030	19.123	906.822	695.452
243.045	19.128	906.396	695.083
244.059	19.196	905.652	694.723
245.074	19.192	904.906	694.073
246.088	19.380	904.223	694.247
247.103	19.268	903.841	693.441
248.117	19.622	903.629	694.640
249.132	19.836	903.039	694.987
250.147	19.993	902.260	694.953
251.161	19.962	901.861	694.464
252.176	20.133	900.834	694.295
253.190	20.127	900.584	694.018
254.205	20.178	900.238	693.892
255.220	20.012	899.647	692.710
256.234	19.919	898.749	691.585
257.249	19.848	897.924	690.607
258.263	20.031	897.325	690.817
259.278	20.026	896.629	690.199
260.293	20.151	896.075	690.211
261.307	20.209	895.529	689.961
262.322	20.210	895.090	689.564
263.336	20.327	894.209	689.287
264.351	20.197	893.698	688.319
265.366	20.237	892.951	687.841
266.380	20.282	891.982	687.212
267.395	20.056	891.572	685.940
268.409	19.930	890.753	684.749
269.424	20.070	889.855	684.553
270.439	19.943	889.123	683.425
271.453	19.872	888.438	682.559
272.468	19.768	888.194	681.903
273.482	19.962	887.509	682.081
274.497	19.922	886.999	681.470
275.512	19.932	886.176	680.816
276.526	19.962	885.599	680.432
277.541	20.167	885.136	680.822
278.555	20.281	884.789	680.941
279.570	20.412	884.305	681.021
280.585	20.328	883.496	680.010
281.599	20.106	882.856	678.588
282.614	20.025	882.147	677.667
283.628	20.067	881.235	677.068
284.643	20.176	880.653	676.989
285.657	20.011	880.426	676.108
286.672	20.047	879.672	675.611
287.687	20.203	878.855	675.531
288.701	20.141	878.290	674.796
289.716	20.174	877.667	674.388
290.730	20.138	877.092	673.746
291.745	20.288	876.630	673.913
292.760	20.334	876.302	673.779
293.774	20.561	875.492	673.976
294.789	20.422	874.934	672.950
295.803	20.274	873.777	671.426
296.818	20.138	873.188	670.391
297.833	20.277	872.578	670.398
298.847	20.158	871.970	669.413
299.862	20.325	871.525	669.656
300.876	20.442	871.083	669.710
301.891	20.523	870.554	669.554
302.906	20.544	869.949	669.112
303.920	20.696	869.498	669.291
304.935	20.826	869.560	669.780
305.949	20.701	868.643	668.534
306.964	20.563	867.748	667.257
307.979	20.686	867.167	667.220
308.993	20.641	866.840	666.739
310.008	20.717	866.201	666.480
311.022	20.636	865.392	665.485
312.037	20.472	864.530	664.140
313.052	20.331	863.954	663.097
314.066	20.098	863.614	661.888
315.081	20.169	863.223	661.801
316.095	20.368	862.116	661.653
317.110	20.287	861.791	661.037
318.125	20.250	861.382	660.524
319.139	20.224	860.533	659.717
320.154	20.240	860.075	659.365
321.168	20.336	859.840	659.494
322.183	20.449	859.062	659.266
323.197	20.375	858.780	658.710
324.212	20.557	857.964	658.716
325.227	20.452	857.210	657.684
326.241	20.358	856.746	656.911
327.256	20.241	856.539	656.254
328.270	20.360	855.727	656.023
329.285	20.300	855.251	655.372
330.300	20.317	854.432	654.752
331.314	20.417	853.793	654.581
332.329	20.490	853.804	654.805
333.343	20.571	853.292	654.661
334.358	20.769	852.549	654.776
335.373	20.709	852.628	654.555
336.387	20.844	852.108	654.603
337.402	20.795	851.912	654.211
338.416	21.045	851.809	655.013
339.431	21.113	850.947	654.549
340.446	20.949	851.103	653.994
341.460	21.019	850.756	653.931
342.475	21.226	850.179	654.206
343.489	21.250	849.560	653.763
344.504	21.281	848.958	653.359
345.519	21.247	848.842	653.083
346.533	21.131	848.458	652.296
347.548	21.034	847.637	651.247
348.562	20.850	847.170	650.143
349.577	20.778	846.388	649.216
350.592	20.679	845.542	648.142
351.606	20.804	844.619	647.842
352.621	20.867	844.044	647.579
353.635	20.853	843.267	646.873
354.650	20.880	843.085	646.776
355.665	20.943	842.473	646.482
356.679	21.140	841.593	646.479
357.694	21.197	840.792	646.017
358.708	21.051	840.485	645.185
359.723	20.976	839.924	644.421
360.738	21.091	839.580	644.524
361.752	21.256	838.755	644.444
362.767	21.283	838.367	644.185
363.781	21.350	837.771	643.919
364.796	21.486	837.375	644.057
365.810	21.538	837.384	644.199
366.825	21.445	837.156	643.626
367.840	21.529	836.415	643.308
368.854	21.461	835.472	642.275
369.869	21.313	835.368	641.593
370.883	21.456	834.845	641.662
371.898	21.570	834.462	641.727
372.913	21.583	834.238	641.547
373.927	21.473	833.498	640.519
374.942	21.514	832.902	640.154
375.956	21.662	832.375	640.232
376.971	21.699	832.371	640.307
377.986	21.786	831.585	639.963
379.000	21.801	831.335	639.770
380.015	21.798	830.582	639.123
381.029	21.877	829.681	638.660
382.044	21.835	829.600	638.390
383.059	21.795	829.153	637.842
384.073	21.575	828.621	636.576
385.088	21.523	827.639	635.576
386.102	21.485	827.068	634.944
387.117	21.437	826.340	634.156
388.132	21.365	825.741	633.380
389.146	21.697	825.195	634.108
390.161	21.716	824.843	633.850
391.175	21.869	824.295	633.924
392.190	21.657	823.528	632.514
393.205	21.538	823.253	631.818
394.219	21.589	822.890	631.666
395.234	21.539	822.401	631.056
396.248	21.306	821.917	629.787
397.263	21.285	821.276	629.167
398.278	21.249	820.994	628.763
399.292	21.325	820.453	628.565
400.307	21.403	820.307	628.679
401.321	21.286	819.864	627.864
402.336	21.423	819.306	627.873
403.350	21.646	818.710	628.161
404.365	21.685	818.449	628.044
405.380	21.887	818.211	628.530
406.394	21.868	817.631	627.961
407.409	21.954	817.426	628.055
408.423	22.018	817.044	627.937
409.438	22.130	816.681	628.003
410.453	22.220	815.914	627.678
411.467	22.230	815.821	627.587
412.482	22.233	815.343	627.175
413.496	22.332	815.044	627.241
414.511	22.264	814.502	626.525
415.526	22.290	814.196	626.327
416.540	22.265	813.317	625.507
417.555	22.336	813.086	625.527
418.569	22.274	812.684	624.942
419.584	22.207	812.042	624.156
420.599	22.128	811.746	623.591
421.613	158.174	1369.875	1787.826
422.628	137.636	1451.196	1787.934
