DTS Sentinel unit serial number:	SN413079Multiplexer serial number:	ORYXHardware model number:	OX4-SRSoftware version number:	ORYX F/W v4.00 Oryx Data Collector v3.7.2.0data status	okinstallation	princeton_trtdifferential loss correction	single-endedforward channel	channel 1reverse channel	N/Adate	2019/09/18time	17:14:35forward acquisition time	60.00reverse acquisition time	0.00gamma	496.2192k internal	0.2293k external	0.2293temperature offset calibration	0.9998default loss term (dB/km)	0.3790temperature slope calibration	1.0000multiplexer offset coefficient	1.0000multiplexer slope coefficient	1.0000fibre end	0.00T internal ref (°C)	39.87T ext. ref 1 (°C)	0.90T ext. ref 2 (°C)	35.55length (m)	temperature (°C)	Stokes	anti-Stokes-747.200	-200.000	-0.030	-0.422
-746.185	593.081	0.028	0.072
-745.171	131.562	-0.147	-0.193
-744.156	1.164	-0.127	-0.093
-743.142	-200.000	0.020	0.144
-742.127	-40.682	0.294	-0.156
-741.112	608.964	-0.106	-0.270
-740.098	-200.000	-0.009	0.063
-739.083	-154.090	-0.342	0.024
-738.069	-200.000	0.019	0.503
-737.054	-27.336	0.339	-0.202
-736.039	116.325	0.095	0.119
-735.025	772.272	-0.075	0.208
-734.010	751.239	0.105	-0.289
-732.996	-133.773	-0.478	-0.061
-731.981	-130.694	-0.272	-0.037
-730.966	14.032	-0.112	0.089
-729.952	90.458	0.109	-0.125
-728.937	-19.991	-0.256	-0.162
-727.923	-183.727	0.447	0.008
-726.908	147.274	-0.083	-0.115
-725.894	-21.788	-0.086	-0.054
-724.879	-112.921	0.400	0.081
-723.864	731.736	-0.059	-0.162
-722.850	31.017	0.257	0.225
-721.835	-200.000	-0.016	-0.147
-720.821	23.848	0.248	0.209
-719.806	-72.783	-0.120	-0.045
-718.791	-127.962	-0.197	0.029
-717.777	727.949	-0.057	0.155
-716.762	-99.618	-0.314	0.081
-715.748	-99.803	-0.550	-0.141
-714.733	800.000	-0.047	-0.181
-713.718	800.000	0.031	-0.099
-712.704	314.823	-0.117	0.224
-711.689	19.030	0.117	-0.096
-710.675	800.000	0.102	-0.416
-709.660	237.008	-0.144	0.244
-708.645	-200.000	0.006	0.256
-707.631	32.797	-0.185	0.164
-706.616	-75.197	0.135	0.049
-705.602	684.568	-0.044	-0.118
-704.587	-102.168	0.094	-0.023
-703.572	127.883	-0.104	-0.135
-702.558	-46.547	0.261	0.131
-701.543	-21.101	-0.277	0.173
-700.529	76.049	-0.044	-0.048
-699.514	13.826	-0.244	-0.194
-698.499	226.892	-0.176	0.293
-697.485	-200.000	-0.016	-0.134
-696.470	800.000	0.047	0.163
-695.456	215.769	-0.198	-0.320
-694.441	800.000	0.050	-0.210
-693.426	800.000	0.058	-0.192
-692.412	-117.282	-0.071	-0.013
-691.397	118.148	-0.225	-0.283
-690.383	313.353	-0.044	0.084
-689.368	502.936	-0.161	0.380
-688.354	70.590	0.074	0.078
-687.339	555.850	0.082	0.203
-686.324	800.000	0.048	-0.211
-685.310	-200.000	-0.012	-0.169
-684.295	70.060	-0.139	-0.146
-683.281	-200.000	0.056	0.266
-682.266	118.365	0.201	-0.253
-681.251	-13.096	-0.099	0.065
-680.237	-70.658	-0.221	0.085
-679.222	-119.673	-0.547	-0.097
-678.208	55.018	-0.072	-0.071
-677.193	-200.000	0.014	-0.195
-676.178	785.572	-0.053	0.150
-675.164	-69.917	0.189	0.073
-674.149	-113.236	0.214	0.043
-673.135	29.198	0.127	-0.110
-672.120	-97.365	-0.262	-0.070
-671.105	-106.266	-0.119	0.027
-670.091	190.877	-0.219	0.336
-669.076	98.915	0.033	0.039
-668.062	83.545	-0.179	-0.199
-667.047	402.749	-0.096	-0.205
-666.032	35.184	-0.134	-0.120
-665.018	-200.000	0.037	-0.253
-664.003	-200.000	0.019	0.224
-662.989	800.000	-0.094	0.352
-661.974	189.819	0.195	-0.298
-660.959	727.468	-0.042	0.115
-659.945	800.000	0.061	-0.271
-658.930	9.166	-0.092	-0.071
-657.916	-166.385	0.304	0.013
-656.901	-94.941	0.223	-0.062
-655.886	-28.037	-0.137	-0.081
-654.872	800.000	-0.126	-0.405
-653.857	-39.962	-0.305	0.162
-652.843	800.000	0.061	0.174
-651.828	161.947	-0.179	0.256
-650.814	-200.000	0.006	0.216
-649.799	242.127	0.073	-0.124
-648.784	-78.033	-0.332	-0.117
-647.770	-200.000	0.013	-0.171
-646.755	5.015	-0.163	-0.122
-645.741	521.985	0.041	-0.097
-644.726	-118.783	-0.200	-0.036
-643.711	644.084	0.098	-0.254
-642.697	141.076	0.125	0.169
-641.682	779.336	0.111	-0.309
-640.668	-144.741	-0.188	-0.018
-639.653	255.961	-0.138	-0.241
-638.638	278.263	0.050	-0.091
-637.624	-50.848	0.203	-0.097
-636.609	-200.000	-0.015	-0.380
-635.595	224.624	0.175	0.288
-634.580	27.307	-0.130	0.112
-633.565	800.000	0.103	0.330
-632.551	93.899	-0.268	-0.309
-631.536	-200.000	-0.033	-0.145
-630.522	-134.304	0.079	-0.010
-629.507	-92.101	-0.044	-0.013
-628.492	800.000	-0.067	-0.283
-627.478	304.668	0.060	0.113
-626.463	-200.000	-0.000	-0.040
-625.449	-152.616	-0.165	0.012
-624.434	23.651	-0.185	-0.155
-623.419	215.725	-0.025	0.041
-622.405	-200.000	0.080	-0.383
-621.390	-100.109	-0.124	-0.032
-620.376	349.620	-0.074	-0.149
-619.361	389.569	-0.031	-0.065
-618.346	-6.805	-0.028	0.020
-617.332	-200.000	0.015	-0.176
-616.317	529.992	0.080	-0.192
-615.303	-92.486	-0.255	0.073
-614.288	-200.000	0.066	-0.415
-613.273	511.708	0.114	0.271
-612.259	44.621	-0.080	-0.075
-611.244	-200.000	0.176	0.000
-610.230	1.899	0.057	-0.042
-609.215	45.787	0.129	0.121
-608.201	-75.555	0.082	0.030
-607.186	-122.192	0.183	0.031
-606.171	314.190	-0.057	-0.109
-605.157	800.000	0.047	0.159
-604.142	-130.632	0.363	0.050
-603.128	-153.778	0.307	-0.021
-602.113	170.019	-0.292	-0.425
-601.098	651.557	-0.073	-0.190
-600.084	507.908	0.067	-0.157
-599.069	800.000	-0.034	0.151
-598.055	656.006	-0.081	-0.211
-597.040	-73.148	0.217	0.081
-596.025	-80.980	0.169	0.057
-595.011	572.247	0.105	-0.260
-593.996	32.037	0.239	0.210
-592.982	800.000	0.139	0.414
-591.967	213.636	-0.214	0.345
-590.952	800.000	0.042	0.176
-589.938	558.945	-0.095	-0.232
-588.923	119.510	0.079	-0.100
-587.909	-176.804	-0.112	-0.003
-586.894	31.119	0.202	-0.176
-585.879	85.000	0.201	0.224
-584.865	491.317	-0.066	-0.153
-583.850	197.659	-0.200	0.310
-582.836	3.793	0.136	-0.101
-581.821	-54.395	0.103	-0.047
-580.806	223.211	0.110	0.181
-579.792	-152.372	0.062	0.005
-578.777	800.000	-0.030	-0.124
-577.763	589.564	0.062	0.155
-576.748	800.000	-0.083	0.254
-575.733	-89.999	0.209	0.062
-574.719	-200.000	0.017	0.131
-573.704	800.000	0.095	0.290
-572.690	9.620	-0.173	-0.133
-571.675	800.000	-0.126	-0.365
-570.661	102.132	0.139	-0.165
-569.646	-200.000	0.013	-0.122
-568.631	70.249	-0.026	0.027
-567.617	19.013	-0.200	-0.163
-566.602	-71.603	-0.382	0.145
-565.588	-150.702	0.122	0.009
-564.573	-73.612	-0.314	-0.116
-563.558	-166.046	0.242	0.010
-562.544	0.959	-0.093	0.068
-561.529	800.000	-0.022	0.081
-560.515	-13.122	0.173	0.114
-559.500	-100.408	0.502	0.126
-558.485	-116.944	0.279	-0.052
-557.471	163.301	-0.084	-0.120
-556.456	617.270	-0.069	-0.177
-555.442	-200.000	-0.003	-0.300
-554.427	-122.403	0.137	0.023
-553.412	140.824	0.048	0.064
-552.398	-8.644	-0.240	0.164
-551.383	166.228	-0.280	-0.403
-550.369	-90.031	0.235	-0.070
-549.354	-200.000	-0.014	0.233
-548.339	116.252	0.158	0.197
-547.325	92.755	-0.035	-0.040
-546.310	-156.473	-0.352	-0.022
-545.296	-200.000	0.011	-0.185
-544.281	72.531	-0.236	-0.249
-543.266	-200.000	-0.039	-0.390
-542.252	-37.670	-0.114	-0.061
-541.237	145.685	-0.060	-0.082
-540.223	4.406	-0.112	0.083
-539.208	128.145	-0.126	0.162
-538.193	-200.000	0.001	-0.039
-537.179	-82.602	-0.161	0.053
-536.164	-200.000	0.010	-0.050
-535.150	-8.681	-0.122	-0.083
-534.135	358.873	-0.157	0.318
-533.121	-200.000	0.170	0.001
-532.106	800.000	-0.086	-0.287
-531.091	124.912	-0.073	0.093
-530.077	-20.997	-0.187	-0.116
-529.062	-71.311	0.290	0.110
-528.048	-200.000	-0.045	0.232
-527.033	324.022	-0.146	0.282
-526.018	-200.000	-0.015	0.390
-525.004	-31.561	0.267	-0.152
-523.989	800.000	-0.100	-0.289
-522.975	-152.232	0.230	0.017
-521.960	-200.000	0.002	-0.060
-520.945	414.065	-0.133	-0.288
-519.931	283.097	0.148	-0.270
-518.916	-153.444	-0.088	0.006
-517.902	150.783	0.039	0.054
-516.887	800.000	-0.064	0.222
-515.872	-200.000	0.085	0.393
-514.858	-102.496	-0.246	-0.060
-513.843	224.568	0.135	-0.222
-512.829	-100.602	-0.080	-0.020
-511.814	-71.553	0.146	-0.055
-510.799	-99.713	-0.064	0.016
-509.785	343.179	-0.058	0.115
-508.770	206.666	-0.113	-0.179
-507.756	74.350	-0.091	-0.097
-506.741	-8.403	-0.107	-0.073
-505.726	466.213	-0.049	-0.112
-504.712	-200.000	0.018	0.388
-503.697	-21.742	0.359	-0.221
-502.683	-66.455	0.087	0.035
-501.668	115.493	0.070	0.087
-500.653	113.924	-0.177	-0.219
-499.639	103.021	-0.068	0.081
-498.624	-20.558	-0.225	0.140
-497.610	800.000	-0.037	-0.164
-496.595	211.839	0.066	-0.105
-495.581	-200.000	-0.006	0.197
-494.566	-200.000	0.006	-0.077
-493.551	-88.295	-0.293	-0.089
-492.537	633.450	0.087	0.224
-491.522	-145.167	0.334	0.031
-490.508	-200.000	0.014	-0.102
-489.493	-194.834	0.213	-0.002
-488.478	-200.000	-0.006	-0.086
-487.464	-94.413	-0.157	0.043
-486.449	-200.000	-0.026	-0.265
-485.435	516.979	0.065	-0.153
-484.420	201.510	0.039	-0.061
-483.405	371.161	-0.034	0.070
-482.391	-124.244	0.325	0.051
-481.376	-29.220	-0.066	0.038
-480.362	-31.518	-0.312	-0.178
-479.347	363.532	-0.053	0.107
-478.332	102.375	0.165	0.196
-477.318	168.946	-0.141	0.203
-476.303	258.081	0.134	-0.233
-475.289	-200.000	-0.004	0.159
-474.274	-164.948	-0.471	-0.021
-473.259	-13.373	0.069	-0.046
-472.245	133.558	0.037	-0.048
-471.230	-31.851	-0.242	-0.137
-470.216	800.000	-0.024	0.097
-469.201	-46.884	-0.152	-0.075
-468.186	-37.347	0.149	0.081
-467.172	-200.000	-0.032	-0.151
-466.157	-200.000	0.061	-0.457
-465.143	474.920	0.092	-0.210
-464.128	-89.566	0.188	-0.056
-463.113	457.020	-0.057	-0.128
-462.099	98.101	0.174	0.203
-461.084	350.155	0.071	0.142
-460.070	344.509	-0.106	-0.211
-459.055	28.797	-0.236	0.202
-458.040	-162.005	0.156	0.008
-457.026	-29.201	-0.394	-0.229
-456.011	-200.000	0.021	0.178
-454.997	800.000	-0.029	-0.120
-453.982	52.538	0.185	0.179
-452.968	-150.735	-0.203	-0.016
-451.953	-139.941	-0.181	-0.019
-450.938	-176.050	-0.298	0.008
-449.924	-106.645	0.103	0.023
-448.909	33.171	0.179	-0.157
-447.895	147.718	0.037	0.051
-446.880	80.176	0.124	-0.135
-445.865	332.553	0.097	0.189
-444.851	800.000	0.097	-0.346
-443.836	-159.110	-0.342	-0.020
-442.822	-200.000	-0.006	-0.117
-441.807	359.768	0.100	-0.203
-440.792	-48.664	-0.087	-0.042
-439.778	-95.671	-0.049	0.013
-438.763	191.562	-0.029	0.045
-437.749	-29.353	0.257	0.148
-436.734	800.000	0.055	-0.208
-435.719	-75.413	-0.132	0.048
-434.705	39.763	0.037	0.033
-433.690	-200.000	-0.053	-0.248
-432.676	-200.000	-0.010	0.265
-431.661	738.049	0.151	-0.410
-430.646	56.933	-0.244	-0.240
-429.632	-90.929	0.287	0.083
-428.617	-57.841	0.109	0.048
-427.603	24.505	0.128	-0.107
-426.588	800.000	-0.051	0.170
-425.573	800.000	0.064	0.189
-424.559	163.162	0.047	0.067
-423.544	-200.000	-0.032	0.177
-422.530	-200.000	0.038	-0.202
-421.515	174.356	0.083	0.121
-420.500	-84.538	-0.515	-0.164
-419.486	-200.000	0.017	-0.277
-418.471	800.000	0.041	0.159
-417.457	207.625	-0.156	-0.245
-416.442	-200.000	-0.034	-0.235
-415.428	-92.995	-0.267	-0.075
-414.413	-200.000	-0.013	-0.099
-413.398	-36.631	0.055	-0.030
-412.384	-200.000	-0.013	-0.176
-411.369	-62.337	0.051	-0.022
-410.355	-45.975	-0.370	0.184
-409.340	5.595	-0.197	-0.147
-408.325	69.168	-0.068	0.071
-407.311	-91.621	-0.241	0.069
-406.296	-200.000	0.017	0.185
-405.282	380.013	-0.050	0.104
-404.267	-114.359	0.355	0.069
-403.252	138.129	0.179	-0.237
-402.238	16.591	0.250	-0.200
-401.223	-200.000	0.043	0.220
-400.209	47.393	-0.190	-0.178
-399.194	-200.000	-0.035	-0.204
-398.179	-67.826	-0.124	0.049
-397.165	-200.000	0.041	0.180
-396.150	-121.273	0.050	-0.008
-395.136	231.105	-0.146	0.241
-394.121	-200.000	0.008	-0.128
-393.106	112.613	0.087	0.106
-392.092	-105.360	-0.231	0.053
-391.077	135.289	0.106	-0.139
-390.063	191.001	0.193	0.294
-389.048	-79.464	-0.124	-0.042
-388.033	-92.731	0.151	0.043
-387.019	-186.891	0.481	0.007
-386.004	121.564	-0.169	0.212
-384.990	16.432	-0.253	0.201
-383.975	-87.164	-0.188	-0.058
-382.960	10.607	0.089	-0.068
-381.946	299.397	-0.057	-0.107
-380.931	-200.000	-0.027	-0.181
-379.917	115.427	-0.244	0.300
-378.902	288.565	0.090	0.164
-377.888	-20.084	0.253	-0.158
-376.873	-33.841	-0.133	0.074
-375.858	800.000	0.055	-0.175
-374.844	17.244	-0.078	-0.062
-373.829	-101.342	0.251	0.062
-372.815	182.452	-0.039	-0.058
-371.800	-200.000	-0.018	-0.138
-370.785	774.228	0.029	0.080
-369.771	-200.000	0.002	-0.295
-368.756	800.000	0.028	-0.123
-367.742	-200.000	-0.005	-0.026
-366.727	-200.000	-0.004	0.067
-365.712	-78.999	0.214	0.073
-364.698	-49.471	-0.129	0.062
-363.683	386.647	-0.109	-0.226
-362.669	-167.707	-0.158	0.006
-361.654	287.588	0.071	-0.129
-360.639	-58.051	0.244	-0.107
-359.625	80.174	0.063	0.069
-358.610	271.908	0.183	-0.326
-357.596	-68.612	0.135	0.053
-356.581	-200.000	-0.004	0.446
-355.566	-90.639	0.209	-0.061
-354.552	82.357	0.277	-0.303
-353.537	-200.000	0.038	-0.376
-352.523	120.957	-0.011	-0.014
-351.508	-1.117	0.569	0.405
-350.493	-9.377	0.173	0.117
-349.479	-200.000	0.017	-0.130
-348.464	-200.000	-0.069	0.314
-347.450	7.281	0.140	-0.105
-346.435	51.209	0.146	0.140
-345.420	25.815	-0.090	-0.075
-344.406	306.530	0.128	0.240
-343.391	233.236	0.157	0.260
-342.377	-21.976	-0.288	0.176
-341.362	127.258	0.128	0.164
-340.348	684.951	0.093	-0.245
-339.333	-50.353	-0.186	0.089
-338.318	-200.000	0.007	0.452
-337.304	290.763	-0.121	0.222
-336.289	86.204	-0.199	0.221
-335.275	-148.966	0.210	0.017
-334.260	68.135	-0.249	0.256
-333.245	694.645	-0.056	0.147
-332.231	-142.542	-0.253	-0.025
-331.216	1.010	-0.081	0.059
-330.202	-28.783	0.225	-0.131
-329.187	800.000	0.024	0.100
-328.172	-200.000	0.032	0.273
-327.158	-104.702	0.173	0.040
-326.143	-32.008	-0.180	-0.102
-325.129	248.754	-0.182	-0.310
-324.114	-121.205	-0.268	-0.045
-323.099	154.851	0.087	-0.120
-322.085	-41.274	0.118	-0.061
-321.070	-32.068	0.214	0.120
-320.056	-122.949	-0.074	0.012
-319.041	39.557	0.161	0.145
-318.026	-90.018	0.193	0.057
-317.012	-94.577	-0.236	-0.065
-315.997	-200.000	-0.010	-0.482
-314.983	-200.000	0.035	-0.276
-313.968	-83.798	0.301	-0.097
-312.953	-76.217	-0.142	-0.050
-311.939	-88.943	-0.210	-0.063
-310.924	-78.762	-0.235	0.081
-309.910	679.800	-0.142	-0.372
-308.895	-50.311	-0.180	0.086
-307.880	19.902	0.071	-0.058
-306.866	-200.000	0.058	0.348
-305.851	-200.000	-0.051	0.507
-304.837	800.000	0.087	0.281
-303.822	-79.498	0.316	-0.107
-302.807	-58.617	-0.372	-0.162
-301.793	182.321	-0.146	-0.216
-300.778	-165.902	-0.168	0.007
-299.764	196.554	0.114	0.175
-298.749	800.000	-0.075	0.276
-297.735	325.255	0.254	0.488
-296.720	152.359	0.110	0.150
-295.705	-99.857	0.292	0.073
-294.691	-93.662	0.385	-0.107
-293.676	12.885	0.209	-0.162
-292.662	-200.000	-0.006	-0.241
-291.647	309.779	0.108	-0.204
-290.632	789.276	0.108	0.298
-289.618	-59.285	-0.219	0.095
-288.603	-151.048	0.103	-0.008
-287.589	50.267	0.116	-0.110
-286.574	-188.228	-0.450	0.006
-285.559	800.000	0.053	-0.229
-284.545	-95.298	0.233	-0.063
-283.530	-31.276	0.068	0.038
-282.516	800.000	-0.154	-0.455
-281.501	10.494	0.062	-0.047
-280.486	20.755	0.110	-0.090
-279.472	-92.045	-0.245	-0.070
-278.457	800.000	0.005	0.015
-277.443	-159.419	0.356	-0.020
-276.428	5.617	0.103	-0.077
-275.413	800.000	0.075	0.320
-274.399	800.000	0.043	0.174
-273.384	-200.000	-0.035	0.349
-272.370	169.796	0.125	0.179
-271.355	-53.831	-0.150	-0.069
-270.340	-200.000	0.032	0.374
-269.326	-137.149	-0.163	0.019
-268.311	-200.000	-0.004	0.064
-267.297	-200.000	-0.004	0.079
-266.282	567.277	0.050	0.122
-265.267	119.996	0.120	0.150
-264.253	-137.531	0.300	-0.034
-263.238	82.869	-0.206	-0.225
-262.224	-146.171	-0.106	-0.009
-261.209	52.111	0.033	0.031
-260.195	514.244	0.044	0.104
-259.180	206.242	-0.123	0.192
-258.165	327.582	0.056	0.108
-257.151	169.477	-0.147	0.211
-256.136	-19.853	0.227	0.141
-255.122	800.000	0.069	-0.282
-254.107	506.421	-0.144	-0.335
-253.092	-189.466	-0.311	0.004
-252.078	151.482	-0.119	-0.162
-251.063	800.000	0.122	-0.482
-250.049	-80.054	0.225	-0.076
-249.034	193.714	-0.090	0.137
-248.019	-200.000	-0.009	0.142
-247.005	-200.000	-0.037	0.182
-245.990	-30.910	0.174	0.099
-244.976	-200.000	-0.024	0.238
-243.961	-80.276	0.097	0.032
-242.946	46.012	-0.134	0.124
-241.932	800.000	0.040	-0.153
-240.917	800.000	0.030	0.115
-239.903	273.293	-0.060	0.107
-238.888	36.099	0.127	0.112
-237.873	-74.736	0.218	0.078
-236.859	-57.160	-0.211	0.093
-235.844	3.542	-0.128	0.093
-234.830	27.605	0.149	-0.126
-233.815	-118.551	0.393	0.070
-232.800	-118.937	0.476	0.084
-231.786	668.048	0.096	0.249
-230.771	546.404	-0.035	0.084
-229.757	70.421	-0.232	-0.240
-228.742	-61.822	-0.131	0.055
-227.727	-200.000	-0.075	0.451
-226.713	-200.000	0.016	-0.206
-225.698	228.361	0.151	0.247
-224.684	70.436	-0.230	-0.239
-223.669	137.472	-0.216	0.283
-222.655	800.000	0.124	0.360
-221.640	-44.088	-0.273	-0.138
-220.625	800.000	-0.100	0.318
-219.611	-72.390	-0.223	0.083
-218.596	14.447	0.075	-0.058
-217.582	-52.040	-0.081	0.038
-216.567	-62.740	-0.359	0.149
-215.552	-37.601	0.231	0.124
-214.538	500.424	0.102	0.235
-213.523	53.080	0.114	0.109
-212.509	-92.302	0.383	0.108
-211.494	150.463	-0.053	-0.072
-210.479	-4.912	0.195	0.135
-209.465	-200.000	-0.022	0.128
-208.450	56.137	0.325	0.316
-207.436	-18.152	-0.287	-0.180
-206.421	135.739	-0.105	0.136
-205.406	-107.280	-0.446	0.098
-204.392	110.839	-0.037	0.044
-203.377	800.000	0.068	-0.292
-202.363	365.945	-0.245	0.494
-201.348	107.848	-0.265	-0.316
-200.333	75.638	0.150	0.158
-199.319	-200.000	0.017	0.137
-198.304	-52.435	-0.172	-0.080
-197.290	273.862	0.112	0.199
-196.275	63.552	0.128	-0.129
-195.260	92.836	0.032	0.036
-194.246	-200.000	0.005	-0.096
-193.231	-171.780	-0.128	-0.004
-192.217	800.000	-0.030	-0.093
-191.202	800.000	0.045	-0.183
-190.187	-7.409	-0.209	0.141
-189.173	109.265	-0.122	-0.146
-188.158	-107.834	0.068	0.015
-187.144	-194.053	-0.166	-0.001
-186.129	400.748	-0.064	0.135
-185.114	-170.395	0.117	0.004
-184.100	30.270	-0.114	0.097
-183.085	727.320	0.118	-0.315
-182.071	-121.845	-0.358	0.059
-181.056	-41.856	0.116	-0.060
-180.042	251.576	-0.205	0.349
-179.027	297.247	-0.204	-0.375
-178.012	-43.958	-0.286	0.144
-176.998	-123.046	0.018	-0.003
-175.983	-115.685	-0.095	0.018
-174.969	-200.000	0.005	0.329
-173.954	800.000	0.025	-0.088
-172.939	-24.599	0.125	-0.074
-171.925	44.826	0.224	0.206
-170.910	136.116	0.041	0.053
-169.896	-200.000	-0.031	-0.185
-168.881	-23.153	-0.227	0.137
-167.866	-29.989	0.095	0.054
-166.852	-105.271	0.098	0.022
-165.837	67.071	0.088	-0.089
-164.823	-26.405	0.145	-0.085
-163.808	28.053	0.132	-0.111
-162.793	-16.830	-0.016	-0.010
-161.779	-200.000	-0.020	0.189
-160.764	-145.109	-0.295	0.027
-159.750	-154.133	0.198	0.013
-158.735	-17.015	-0.174	-0.110
-157.720	161.462	0.247	-0.346
-156.706	800.000	0.068	0.284
-155.691	-98.494	-0.262	0.067
-154.677	-54.035	0.270	0.123
-153.662	-119.320	-0.011	0.002
-152.647	246.673	-0.035	-0.060
-151.633	-112.756	0.175	0.035
-150.618	-67.224	0.101	0.040
-149.604	800.000	0.090	0.258
-148.589	-200.000	0.011	0.235
-147.574	800.000	-0.059	0.257
-146.560	36.849	0.054	-0.048
-145.545	-54.695	-0.364	0.165
-144.531	-14.330	-0.249	0.160
-143.516	226.282	-0.050	-0.080
-142.502	-200.000	0.005	0.149
-141.487	800.000	0.044	-0.166
-140.472	-200.000	-0.005	0.202
-139.458	-122.430	0.102	-0.017
-138.443	-167.513	0.211	0.008
-137.429	-200.000	0.015	0.074
-136.414	800.000	0.034	-0.111
-135.399	673.891	0.042	-0.110
-134.385	251.741	-0.133	0.226
-133.370	-59.770	-0.209	-0.089
-132.356	176.463	0.103	0.150
-131.341	-36.476	-0.220	0.118
-130.326	54.703	-0.235	-0.226
-129.312	800.000	-0.113	0.355
-128.297	-200.000	0.136	0.599
-127.283	-56.057	-0.092	-0.041
-126.268	82.073	-0.216	-0.234
-125.253	800.000	-0.056	-0.193
-124.239	-200.000	0.002	0.032
-123.224	-107.897	-0.164	-0.036
-122.210	-26.438	0.108	0.063
-121.195	800.000	0.046	-0.135
-120.180	701.545	0.065	-0.172
-119.166	-200.000	-0.005	-0.049
-118.151	-158.185	-0.237	-0.014
-117.137	72.080	0.036	-0.037
-116.122	-140.266	-0.056	0.006
-115.107	78.334	0.325	-0.346
-114.093	-200.000	-0.046	-0.421
-113.078	181.310	-0.124	-0.182
-112.064	552.690	0.084	-0.201
-111.049	-29.258	-0.306	0.175
-110.034	800.000	0.034	-0.129
-109.020	-87.889	-0.275	0.082
-108.005	-67.842	-0.086	-0.034
-106.991	216.290	0.136	-0.216
-105.976	-107.206	-0.253	-0.056
-104.962	-54.004	-0.192	-0.087
-103.947	-80.948	-0.119	-0.040
-102.932	-47.263	0.239	0.116
-101.918	-200.000	0.016	-0.183
-100.903	265.278	0.064	0.110
-99.889	-158.155	0.251	0.015
-98.874	102.547	0.103	-0.120
-97.859	-78.819	-0.078	-0.026
-96.845	400.701	0.090	0.189
-95.830	9.802	-0.185	0.140
-94.816	110.606	-0.023	-0.027
-93.801	10.323	-0.117	-0.089
-92.786	46.317	-0.243	-0.225
-91.772	-131.195	-0.482	-0.064
-90.757	-147.758	-0.047	-0.004
-89.743	259.466	0.109	0.187
-88.728	47.825	-0.271	0.252
-87.713	800.000	-0.107	-0.295
-86.699	-108.416	0.222	-0.048
-85.684	-130.158	0.054	0.007
-84.670	110.818	0.137	-0.164
-83.655	-66.492	0.254	-0.101
-82.640	-117.342	-0.208	-0.038
-81.626	210.707	0.153	0.239
-80.611	-200.000	0.001	-0.061
-79.597	-54.814	-0.215	-0.097
-78.582	-102.124	0.264	-0.063
-77.567	621.312	-0.073	-0.184
-76.553	6.650	-0.112	-0.083
-75.538	-200.000	0.001	-0.009
-74.524	352.169	0.116	-0.230
-73.509	74.655	0.053	-0.056
-72.494	-143.611	0.300	-0.028
-71.480	41.642	0.103	-0.093
-70.465	497.717	0.083	-0.189
-69.451	-100.113	0.158	0.039
-68.436	22.922	-0.062	-0.051
-67.422	34.764	-0.148	0.129
-66.407	80.759	0.195	-0.209
-65.392	-62.768	-0.191	-0.079
-64.378	118.218	-0.088	-0.108
-63.363	-35.212	-0.104	-0.056
-62.349	95.559	-0.205	0.233
-61.334	211.064	-0.509	-0.798
-60.319	-57.027	0.270	0.119
-59.305	-200.000	-0.043	-0.981
-58.290	376.385	0.424	0.863
-57.276	800.000	0.478	1.772
-56.261	-200.000	78.259	513.904
-55.246	494.432	1349.697	3085.694
-54.232	143.647	2592.991	3440.396
-53.217	113.072	2257.702	2725.987
-52.203	51.242	1704.123	1610.602
-51.188	43.465	1430.380	1301.980
-50.173	40.055	1384.524	1238.869
-49.159	58.347	1421.731	1388.329
-48.144	63.779	1441.126	1441.585
-47.130	43.813	1402.409	1278.516
-46.115	39.922	1385.695	1238.887
-45.100	39.757	1381.015	1233.620
-44.086	39.619	1378.767	1230.703
-43.071	39.666	1375.702	1228.208
-42.057	39.674	1373.494	1226.241
-41.042	39.799	1371.995	1225.632
-40.027	39.777	1370.591	1224.190
-39.013	39.846	1368.747	1222.921
-37.998	39.778	1366.799	1220.712
-36.984	39.869	1364.639	1219.297
-35.969	39.872	1363.075	1217.867
-34.954	39.829	1361.237	1215.911
-33.940	39.985	1359.238	1215.040
-32.925	40.001	1358.445	1214.381
-31.911	40.040	1357.030	1213.305
-30.896	39.935	1355.213	1210.991
-29.881	40.043	1353.873	1210.407
-28.867	39.954	1352.769	1208.828
-27.852	39.979	1350.938	1207.295
-26.838	39.982	1349.553	1206.026
-25.823	39.807	1348.147	1203.654
-24.809	39.937	1346.589	1203.012
-23.794	39.965	1345.386	1202.058
-22.779	39.919	1344.220	1200.687
-21.765	39.973	1342.515	1199.444
-20.750	39.970	1341.040	1198.063
-19.736	39.874	1339.575	1196.125
-18.721	39.853	1337.998	1194.540
-17.706	39.847	1337.301	1193.833
-16.692	39.811	1336.140	1192.534
-15.677	39.748	1334.927	1191.026
-14.663	39.814	1333.919	1190.475
-13.648	39.827	1332.796	1189.507
-12.633	39.903	1331.399	1188.668
-11.619	39.864	1330.636	1187.707
-10.604	39.876	1329.731	1186.922
-9.590	39.828	1329.111	1186.030
-8.575	39.768	1328.282	1184.887
-7.560	39.795	1327.125	1183.968
-6.546	39.820	1326.135	1183.189
-5.531	39.689	1325.509	1181.796
-4.517	39.769	1324.506	1181.338
-3.502	39.848	1323.498	1180.860
-2.487	39.863	1322.527	1180.038
-1.473	39.957	1318.631	1177.077
-0.458	38.909	1303.413	1157.268
0.556	33.789	1283.243	1111.373
1.571	28.522	1285.516	1082.262
2.586	25.891	1298.417	1077.321
3.600	23.552	1286.000	1053.060
4.615	16.908	1207.702	951.687
5.629	6.685	1123.417	831.564
6.644	1.372	1099.707	786.482
7.659	0.884	1097.025	781.973
8.673	0.717	1096.711	780.819
9.688	0.629	1094.878	778.989
10.702	0.938	1093.740	779.701
11.717	6.213	1100.681	811.866
12.731	14.721	1112.275	864.559
13.746	17.971	1115.769	884.048
14.761	17.477	1114.655	880.535
15.775	16.674	1112.320	874.464
16.790	15.702	1110.519	867.955
17.804	15.006	1108.466	862.686
18.819	14.641	1107.130	859.691
19.834	14.199	1106.681	856.992
20.848	14.016	1105.625	855.154
21.863	13.841	1104.691	853.458
22.877	13.586	1103.564	851.202
23.892	13.548	1103.236	850.677
24.907	13.543	1102.292	849.852
25.921	13.599	1102.065	849.887
26.936	13.513	1101.145	848.660
27.950	13.694	1099.582	848.311
28.965	13.733	1098.203	847.371
29.980	13.850	1096.716	846.742
30.994	13.814	1096.199	846.084
32.009	13.809	1095.402	845.372
33.023	13.777	1094.354	844.324
34.038	13.862	1092.919	843.576
35.053	13.776	1092.525	842.758
36.067	13.743	1091.683	841.865
37.082	13.724	1090.919	841.108
38.096	13.889	1089.940	841.116
39.111	13.736	1089.429	839.868
40.126	13.823	1087.343	838.626
41.140	13.681	1086.762	837.389
42.155	13.610	1085.971	836.345
43.169	13.506	1085.050	835.039
44.184	13.546	1083.926	834.303
45.199	13.509	1082.897	833.247
46.213	13.609	1081.821	832.848
47.228	13.696	1080.381	832.103
48.242	13.745	1079.016	831.224
49.257	13.740	1078.279	830.558
50.271	13.677	1077.315	829.426
51.286	13.617	1076.824	828.675
52.301	13.694	1075.527	827.988
53.315	13.627	1074.753	826.983
54.330	13.551	1073.682	825.711
55.344	13.573	1072.731	825.013
56.359	13.620	1071.891	824.531
57.374	13.599	1071.192	823.814
58.388	13.577	1070.506	823.103
59.403	13.534	1069.284	821.878
60.417	13.461	1068.697	820.993
61.432	13.482	1067.627	820.204
62.447	13.519	1067.055	819.871
63.461	13.404	1066.556	818.847
64.476	13.557	1065.178	818.475
65.490	13.455	1064.611	817.463
66.505	13.592	1063.801	817.447
67.520	13.400	1063.163	815.936
68.534	13.552	1062.214	815.884
69.549	13.486	1061.719	815.104
70.563	13.501	1060.807	814.409
71.578	13.493	1059.706	813.449
72.593	13.445	1059.117	812.690
73.607	13.521	1058.383	812.428
74.622	13.466	1058.051	811.831
75.636	13.423	1057.097	810.818
76.651	13.475	1056.072	810.215
77.666	13.411	1055.432	809.340
78.680	13.552	1054.544	809.274
79.695	13.660	1053.678	809.063
80.709	13.535	1053.594	808.321
81.724	13.599	1052.649	807.837
82.739	13.538	1052.081	807.032
83.753	13.667	1051.265	806.963
84.768	13.755	1050.287	806.567
85.782	13.924	1048.933	806.275
86.797	13.720	1048.494	804.879
87.812	13.611	1047.817	803.757
88.826	13.584	1046.685	802.690
89.841	13.782	1045.305	802.514
90.855	13.818	1044.000	801.619
91.870	13.772	1043.729	801.117
92.884	13.758	1042.877	800.324
93.899	13.812	1042.107	799.920
94.914	13.766	1041.224	798.950
95.928	13.816	1040.603	798.644
96.943	13.743	1039.566	797.429
97.957	13.847	1038.300	796.884
98.972	13.717	1037.793	795.800
99.987	13.804	1036.954	795.504
101.001	13.755	1035.902	794.392
102.016	13.776	1035.046	793.767
103.030	13.630	1034.439	792.535
104.045	13.717	1033.540	792.191
105.060	13.742	1032.516	791.453
106.074	13.643	1031.777	790.348
107.089	13.677	1030.378	789.368
108.103	13.679	1029.530	788.655
109.118	13.708	1028.451	787.898
110.133	13.655	1027.734	787.029
111.147	13.697	1026.763	786.416
112.162	13.678	1026.000	785.668
113.176	13.798	1024.914	785.338
114.191	13.698	1024.755	784.671
115.206	13.810	1023.593	784.241
116.220	13.842	1022.706	783.646
117.235	13.669	1022.173	782.352
118.249	13.740	1020.708	781.493
119.264	13.764	1019.985	780.984
120.279	13.714	1019.109	780.010
121.293	13.761	1018.508	779.702
122.308	13.620	1017.535	778.225
123.322	13.707	1016.682	777.911
124.337	13.581	1015.807	776.583
125.352	13.670	1014.430	775.877
126.366	13.656	1013.484	775.021
127.381	13.689	1012.137	774.076
128.395	13.789	1011.045	773.638
129.410	13.805	1010.212	773.007
130.424	13.795	1009.746	772.536
131.439	13.875	1008.615	771.974
132.454	13.883	1008.161	771.596
133.468	13.987	1006.821	770.985
134.483	13.888	1006.125	769.922
135.497	13.813	1005.451	768.993
136.512	13.925	1004.159	768.457
137.527	13.874	1003.420	767.584
138.541	13.861	1002.926	767.079
139.556	14.026	1001.761	766.881
140.570	14.005	1001.252	766.330
141.585	13.955	1000.545	765.491
142.600	13.965	999.668	764.796
143.614	14.045	998.374	764.106
144.629	14.062	997.655	763.565
145.643	13.965	996.849	762.439
146.658	13.829	995.980	761.083
147.673	13.895	994.797	760.411
148.687	13.862	993.884	759.497
149.702	13.817	993.077	758.608
150.716	13.871	992.206	758.119
151.731	13.813	991.540	757.282
152.746	13.826	991.011	756.868
153.760	13.859	990.432	756.510
154.775	13.895	989.966	756.253
155.789	13.893	989.342	755.700
156.804	13.985	988.269	755.230
157.819	13.924	987.502	754.300
158.833	13.959	987.035	754.033
159.848	14.140	985.912	753.933
160.862	13.996	984.894	752.434
161.877	13.817	984.274	751.085
162.892	13.990	982.997	750.825
163.906	13.966	981.905	749.816
164.921	13.971	980.988	749.074
165.935	13.915	980.579	748.440
166.950	14.106	979.393	748.330
167.964	14.044	978.413	747.236
168.979	14.077	977.310	746.476
169.994	13.979	976.818	745.593
171.008	14.177	975.729	745.585
172.023	14.155	975.492	745.238
173.037	14.172	974.661	744.615
174.052	14.176	973.816	743.922
175.067	14.138	973.276	743.270
176.081	14.059	972.720	742.428
177.096	14.049	971.848	741.651
178.110	14.048	971.443	741.274
179.125	14.130	970.967	741.211
180.140	14.152	970.101	740.580
181.154	14.131	969.852	740.231
182.169	14.159	969.346	739.903
183.183	14.260	968.601	739.718
184.198	14.206	967.491	738.568
185.213	14.334	966.443	738.271
186.227	14.273	966.346	737.857
187.242	14.264	965.681	737.246
188.256	14.298	964.906	736.741
189.271	14.308	963.974	736.006
190.286	14.292	962.757	734.941
191.300	14.080	962.843	734.007
192.315	14.082	961.941	733.261
193.329	14.184	961.554	733.353
194.344	14.123	960.723	732.385
195.359	14.276	959.750	732.253
196.373	14.194	959.470	731.615
197.388	14.354	958.923	731.833
198.402	14.382	958.270	731.396
199.417	14.502	957.761	731.469
200.432	14.490	957.239	730.953
201.446	14.469	956.632	730.331
202.461	14.589	955.638	730.034
203.475	14.581	955.208	729.605
204.490	14.515	954.481	728.699
205.504	14.535	953.713	728.134
206.519	14.392	953.463	727.254
207.534	14.601	951.935	726.936
208.548	14.517	951.201	725.945
209.563	14.488	951.064	725.648
210.577	14.737	949.995	725.851
211.592	14.660	949.529	725.097
212.607	14.702	948.514	724.439
213.621	14.679	947.939	723.837
214.636	14.648	947.343	723.183
215.650	14.631	946.670	722.533
216.665	14.782	945.374	722.130
217.680	14.793	944.817	721.691
218.694	14.708	944.549	721.056
219.709	14.779	944.059	720.923
220.723	14.700	943.403	720.016
221.738	14.775	942.572	719.643
222.753	14.684	941.926	718.696
223.767	14.894	940.951	718.788
224.782	14.880	940.299	718.168
225.796	14.910	939.783	717.838
226.811	14.651	939.522	716.464
227.826	14.828	938.610	716.462
228.840	14.883	937.605	715.868
229.855	14.952	936.498	715.254
230.869	14.929	935.844	714.595
231.884	14.847	935.178	713.674
232.899	14.854	934.655	713.240
233.913	14.904	933.891	712.810
234.928	14.899	933.180	712.180
235.942	14.787	932.982	711.489
236.957	14.811	932.001	710.778
237.972	15.016	931.618	711.297
238.986	14.957	930.610	710.216
240.001	14.972	929.737	709.548
241.015	14.960	929.413	709.186
242.030	14.932	928.820	708.552
243.045	15.017	927.844	708.108
244.059	15.030	927.514	707.847
245.074	15.102	926.620	707.407
246.088	15.068	926.247	706.913
247.103	15.085	925.495	706.352
248.117	14.932	925.328	705.515
249.132	15.171	924.444	705.784
250.147	15.219	923.615	705.290
251.161	15.250	923.109	704.976
252.176	15.251	922.305	704.302
253.190	15.313	921.526	703.904
254.205	15.245	921.263	703.355
255.220	15.306	920.254	702.777
256.234	15.365	919.573	702.443
257.249	15.412	919.061	702.186
258.263	15.324	918.145	701.057
259.278	15.412	917.486	700.861
260.293	15.407	916.818	700.265
261.307	15.446	916.491	700.117
262.322	15.480	915.622	699.535
263.336	15.487	914.865	698.922
264.351	15.550	914.400	698.765
265.366	15.584	913.431	698.108
266.380	15.572	912.914	697.601
267.395	15.548	912.109	696.824
268.409	15.639	911.274	696.499
269.424	15.624	910.395	695.707
270.439	15.469	910.156	694.819
271.453	15.680	908.895	694.667
272.468	15.589	909.181	694.450
273.482	15.531	908.043	693.280
274.497	15.677	907.400	693.327
275.512	15.612	906.729	692.488
276.526	15.652	906.109	692.115
277.541	15.656	905.964	691.959
278.555	15.580	905.384	691.145
279.570	15.736	904.297	690.896
280.585	15.818	903.504	690.563
281.599	15.716	902.669	689.446
282.614	15.772	902.288	689.322
283.628	15.633	901.802	688.322
284.643	15.720	901.272	688.212
285.657	15.913	900.291	688.191
286.672	15.821	899.564	687.201
287.687	15.878	899.198	687.090
288.701	15.786	898.496	686.120
289.716	15.911	897.605	685.885
290.730	15.949	897.013	685.530
291.745	15.941	896.310	684.899
292.760	15.968	895.990	684.702
293.774	15.996	895.020	684.014
294.789	15.947	894.704	683.515
295.803	15.897	893.823	682.579
296.818	15.948	893.185	682.237
297.833	15.979	892.595	681.852
298.847	15.891	892.199	681.131
299.862	16.015	891.256	680.853
300.876	16.062	890.644	680.516
301.891	16.063	890.173	680.101
302.906	16.190	889.365	679.934
303.920	16.131	888.964	679.327
304.935	16.173	888.707	679.242
305.949	16.188	887.634	678.421
306.964	16.273	887.011	678.227
307.979	16.202	886.302	677.342
308.993	16.235	886.002	677.182
310.008	16.190	885.401	676.485
311.022	16.224	884.939	676.208
312.037	16.145	884.181	675.251
313.052	16.256	883.653	675.235
314.066	16.273	882.976	674.726
315.081	16.223	882.398	674.022
316.095	16.206	881.856	673.482
317.110	16.172	881.309	672.869
318.125	16.321	880.354	672.674
319.139	16.154	880.341	671.937
320.154	16.262	879.746	671.853
321.168	16.365	879.213	671.798
322.183	16.332	878.320	670.925
323.197	16.320	877.653	670.307
324.212	16.340	877.359	670.103
325.227	16.468	876.362	669.791
326.241	16.316	876.247	669.041
327.256	16.391	875.192	668.474
328.270	16.358	874.596	667.829
329.285	16.402	874.145	667.600
330.300	16.521	873.668	667.646
331.314	16.516	872.951	667.020
332.329	16.566	872.856	667.083
333.343	16.389	872.626	666.151
334.358	16.444	871.789	665.672
335.373	16.523	871.573	665.756
336.387	16.592	870.976	665.512
337.402	16.557	871.021	665.350
338.416	16.523	870.730	664.938
339.431	16.657	870.359	665.122
340.446	16.529	869.722	664.074
341.460	16.643	868.973	663.891
342.475	16.818	868.540	664.187
343.489	16.782	868.142	663.683
344.504	16.696	867.891	663.093
345.519	16.732	867.545	662.910
346.533	16.759	867.218	662.709
347.548	16.598	866.668	661.602
348.562	16.729	865.829	661.413
349.577	16.667	865.309	660.716
350.592	16.652	864.617	660.071
351.606	16.762	863.707	659.746
352.621	16.741	863.371	659.349
353.635	16.759	862.538	658.724
354.650	16.825	861.543	658.162
355.665	16.897	861.003	657.971
356.679	16.819	860.817	657.469
357.694	16.921	859.790	657.021
358.708	16.642	859.286	655.498
359.723	16.863	858.638	655.799
360.738	16.971	858.159	655.794
361.752	16.982	857.410	655.206
362.767	17.021	856.801	654.835
363.781	16.960	856.175	654.060
364.796	17.044	855.743	653.998
365.810	17.028	855.420	653.630
366.825	17.053	854.837	653.225
367.840	17.161	854.539	653.352
368.854	17.194	854.083	653.076
369.869	17.176	853.466	652.477
370.883	17.250	852.759	652.161
371.898	17.134	852.658	651.582
372.913	17.296	852.367	651.921
373.927	17.233	851.727	651.136
374.942	17.195	851.533	650.781
375.956	17.191	850.931	650.251
376.971	17.464	850.091	650.594
377.986	17.407	849.807	650.099
379.000	17.413	849.257	649.645
380.015	17.346	848.926	649.079
381.029	17.373	848.185	648.559
382.044	17.452	847.393	648.195
383.059	17.420	846.940	647.669
384.073	17.386	846.538	647.174
385.088	17.355	846.199	646.743
386.102	17.314	845.590	646.063
387.117	17.247	845.001	645.303
388.132	17.402	844.176	645.203
389.146	17.424	843.312	644.569
390.161	17.430	843.335	644.552
391.175	17.581	842.384	644.338
392.190	17.455	841.900	643.436
393.205	17.451	841.633	643.159
394.219	17.356	841.199	642.413
395.234	17.571	840.861	642.907
396.248	17.335	840.758	641.883
397.263	17.497	840.193	642.005
398.278	17.411	839.634	641.197
399.292	17.554	839.230	641.372
400.307	17.596	838.620	641.005
401.321	17.526	838.469	640.571
402.336	17.499	837.849	639.938
403.350	17.582	837.142	639.654
404.365	17.597	836.997	639.541
405.380	17.581	836.343	638.926
406.394	17.795	835.670	639.157
407.409	17.719	835.115	638.392
408.423	17.759	835.076	638.456
409.438	17.741	834.369	637.789
410.453	17.862	833.868	637.804
411.467	17.766	833.730	637.284
412.482	17.757	833.385	636.928
413.496	17.951	833.006	637.308
414.511	17.791	832.837	636.524
415.526	17.920	831.828	636.178
416.540	17.949	831.527	635.997
417.555	18.006	830.955	635.718
418.569	17.867	830.999	635.177
419.584	18.009	830.164	635.011
420.599	18.001	829.928	634.745
421.613	95.221	1273.644	1392.293
422.628	82.209	1338.296	1392.433
