DTS Sentinel unit serial number:	SN413079Multiplexer serial number:	ORYXHardware model number:	OX4-SRSoftware version number:	ORYX F/W v4.00 Oryx Data Collector v3.7.2.0data status	okinstallation	princeton_trtdifferential loss correction	single-endedforward channel	channel 1reverse channel	N/Adate	2019/09/19time	01:42:35forward acquisition time	60.00reverse acquisition time	0.00gamma	496.2192k internal	0.2344k external	0.2344temperature offset calibration	1.0018default loss term (dB/km)	0.3790temperature slope calibration	1.0000multiplexer offset coefficient	1.0000multiplexer slope coefficient	1.0000fibre end	0.00T internal ref (°C)	21.44T ext. ref 1 (°C)	0.69T ext. ref 2 (°C)	14.90length (m)	temperature (°C)	Stokes	anti-Stokes-747.200	-200.000	0.038	0.309
-746.185	-124.232	0.095	-0.015
-745.171	21.212	-0.168	0.136
-744.156	-36.897	-0.351	0.188
-743.142	58.962	-0.100	0.098
-742.127	-200.000	-0.065	0.603
-741.112	85.682	-0.236	-0.259
-740.098	-166.493	-0.331	-0.014
-739.083	800.000	0.063	-0.267
-738.069	1.585	0.168	-0.121
-737.054	-200.000	-0.015	-0.165
-736.039	-42.937	0.174	-0.088
-735.025	-200.000	-0.010	-0.131
-734.010	800.000	0.090	-0.260
-732.996	-200.000	-0.053	-0.336
-731.981	15.186	0.133	0.104
-730.966	800.000	0.064	-0.176
-729.952	-171.220	-0.428	-0.014
-728.937	694.741	0.076	-0.199
-727.923	148.845	-0.135	-0.182
-726.908	411.803	0.077	-0.164
-725.894	39.906	0.053	0.048
-724.879	-200.000	-0.012	-0.149
-723.864	-53.061	0.134	-0.061
-722.850	-167.570	-0.134	0.005
-721.835	-200.000	-0.052	0.294
-720.821	-78.149	-0.136	0.047
-719.806	573.544	0.082	-0.200
-718.791	800.000	0.135	0.420
-717.777	55.813	-0.366	0.354
-716.762	-115.947	0.107	0.020
-715.748	289.378	0.080	-0.146
-714.733	76.593	-0.103	-0.109
-713.718	-123.917	-0.314	-0.049
-712.704	-58.368	0.303	-0.132
-711.689	-102.264	-0.226	-0.054
-710.675	-200.000	-0.020	0.158
-709.660	28.250	0.058	0.049
-708.645	-57.369	0.220	0.097
-707.631	172.088	0.131	0.189
-706.616	21.115	0.166	0.135
-705.602	800.000	0.128	0.396
-704.587	-200.000	-0.013	-0.074
-703.572	264.668	-0.205	0.357
-702.558	-200.000	0.062	-0.375
-701.543	-59.659	0.354	0.152
-700.529	-23.306	-0.073	-0.044
-699.514	-39.649	-0.231	-0.121
-698.499	-42.652	-0.486	0.247
-697.485	-20.884	-0.247	0.151
-696.470	-7.179	0.178	0.121
-695.456	-200.000	-0.032	0.280
-694.441	-156.835	0.113	0.007
-693.426	-81.355	-0.274	-0.090
-692.412	-36.050	0.136	-0.073
-691.397	-171.061	0.047	0.002
-690.383	67.530	-0.213	0.217
-689.368	-49.778	0.087	0.041
-688.354	800.000	-0.075	0.290
-687.339	-200.000	-0.062	-0.307
-686.324	-121.177	-0.304	-0.051
-685.310	598.171	0.030	-0.073
-684.295	800.000	0.075	-0.234
-683.281	75.091	0.168	-0.177
-682.266	-200.000	0.035	-0.234
-681.251	-61.512	-0.072	-0.030
-680.237	-40.959	-0.282	0.146
-679.222	-141.978	-0.141	0.014
-678.208	22.784	-0.099	-0.081
-677.193	393.543	-0.279	-0.579
-676.178	-78.089	0.364	0.125
-675.164	800.000	-0.121	0.364
-674.149	-146.052	0.206	-0.018
-673.135	770.303	0.161	-0.438
-672.120	293.606	0.198	0.361
-671.105	-127.064	-0.158	0.023
-670.091	113.531	-0.176	-0.213
-669.076	448.412	-0.035	-0.077
-668.062	66.701	-0.140	0.142
-667.047	-200.000	0.002	0.097
-666.032	-200.000	-0.003	0.129
-665.018	-145.892	0.350	0.031
-664.003	44.472	-0.053	0.048
-662.989	-39.492	0.491	-0.257
-661.974	237.880	-0.210	-0.348
-660.959	-132.967	-0.314	0.040
-659.945	581.009	0.111	-0.271
-658.930	206.773	-0.201	-0.312
-657.916	186.583	-0.048	-0.071
-656.901	0.947	-0.124	0.089
-655.886	-200.000	0.059	0.307
-654.872	-63.339	-0.162	0.066
-653.857	-146.676	-0.328	0.028
-652.843	-153.655	0.180	-0.012
-651.828	240.379	0.072	0.120
-650.814	-200.000	-0.030	0.340
-649.799	-104.015	-0.082	-0.019
-648.784	484.461	0.055	0.124
-647.770	-200.000	-0.005	-0.212
-646.755	-9.677	0.154	0.102
-645.741	39.622	-0.153	0.137
-644.726	-12.794	-0.256	0.166
-643.711	-104.094	0.115	0.027
-642.697	60.802	-0.382	0.377
-641.682	84.892	-0.128	0.139
-640.668	171.751	0.044	-0.063
-639.653	97.674	0.130	-0.149
-638.638	222.074	-0.025	-0.040
-637.624	-200.000	-0.022	-0.168
-636.609	104.015	0.155	0.182
-635.595	15.635	-0.302	0.236
-634.580	167.364	-0.192	-0.271
-633.565	163.780	-0.053	0.075
-632.551	-92.196	-0.173	0.049
-631.536	232.055	-0.138	-0.225
-630.522	-200.000	0.050	-0.327
-629.507	-200.000	-0.064	0.290
-628.492	324.641	-0.137	0.262
-627.478	-200.000	-0.042	-0.367
-626.463	-200.000	0.017	-0.339
-625.449	114.428	0.073	-0.088
-624.434	129.884	-0.127	-0.162
-623.419	414.077	0.039	-0.082
-622.405	-100.987	0.320	-0.078
-621.390	-97.418	0.126	-0.033
-620.376	-48.998	0.234	0.112
-619.361	-42.853	0.099	-0.050
-618.346	-114.205	-0.113	-0.022
-617.332	52.154	0.378	0.358
-616.317	-167.700	0.057	-0.002
-615.303	174.719	0.031	-0.045
-614.288	72.908	-0.047	-0.049
-613.273	-71.994	0.235	-0.087
-612.259	-200.000	0.029	-0.451
-611.244	298.235	0.046	-0.084
-610.230	-46.543	-0.109	-0.053
-609.215	268.468	-0.122	-0.213
-608.201	48.306	-0.197	0.184
-607.186	104.339	-0.191	0.223
-606.171	-200.000	-0.019	-0.152
-605.157	-132.450	0.217	-0.028
-604.142	-98.017	0.062	-0.016
-603.128	-0.759	-0.241	0.170
-602.113	-74.513	-0.112	0.040
-601.098	800.000	-0.041	0.132
-600.084	103.649	-0.257	0.301
-599.069	392.539	-0.105	0.217
-598.055	197.227	0.105	-0.160
-597.040	-200.000	-0.070	0.318
-596.025	-174.071	0.090	0.003
-595.011	19.277	-0.077	0.062
-593.996	-200.000	-0.000	0.157
-592.982	486.492	0.028	-0.064
-591.967	100.025	-0.331	-0.382
-590.952	35.956	-0.172	0.151
-589.938	-29.224	0.290	0.165
-588.923	-200.000	0.034	0.272
-587.909	-200.000	-0.010	-0.151
-586.894	-145.327	0.350	0.031
-585.879	-30.885	0.072	0.040
-584.865	-200.000	0.004	0.025
-583.850	-145.301	0.416	-0.037
-582.836	427.996	0.105	-0.226
-581.821	-78.102	-0.203	0.069
-580.806	-200.000	0.014	0.070
-579.792	-57.198	0.275	-0.120
-578.777	-91.033	-0.121	-0.034
-577.763	64.849	0.144	0.145
-576.748	99.959	-0.127	-0.147
-575.733	-200.000	0.011	0.172
-574.719	-40.571	0.084	-0.043
-573.704	-200.000	0.031	-0.211
-572.690	-163.884	0.217	0.010
-571.675	371.645	-0.224	0.452
-570.661	55.515	0.308	-0.296
-569.646	-120.244	0.083	0.014
-568.631	-75.033	-0.099	0.035
-567.617	432.759	0.069	0.148
-566.602	-143.453	-0.186	0.018
-565.588	800.000	0.099	0.290
-564.573	800.000	-0.052	-0.152
-563.558	-128.175	0.342	-0.049
-562.544	-135.687	0.295	-0.035
-561.529	248.650	-0.063	0.106
-560.515	3.006	-0.045	0.033
-559.500	-200.000	0.033	-0.179
-558.485	-49.562	0.045	-0.021
-557.471	-8.284	-0.176	0.118
-556.456	-94.985	0.299	0.080
-555.442	-24.425	-0.054	0.032
-554.427	-46.910	-0.048	-0.023
-553.412	94.126	-0.347	0.391
-552.398	571.303	0.117	0.283
-551.383	-61.555	0.038	0.016
-550.369	212.539	-0.122	-0.191
-549.354	-124.121	-0.048	-0.007
-548.339	-88.536	0.279	0.083
-547.325	800.000	0.047	0.181
-546.310	42.938	-0.110	-0.100
-545.296	-97.085	-0.305	0.079
-544.281	755.441	0.116	-0.311
-543.266	64.860	-0.104	-0.104
-542.252	88.700	-0.065	-0.072
-541.237	-75.786	0.192	-0.068
-540.223	185.752	-0.278	-0.410
-539.208	110.817	-0.256	-0.306
-538.193	6.424	-0.086	-0.063
-537.179	-37.448	0.048	-0.025
-536.164	19.195	0.221	0.176
-535.150	73.227	-0.045	-0.047
-534.135	-146.531	0.268	-0.023
-533.121	-107.323	-0.158	0.035
-532.106	-3.301	-0.166	-0.115
-531.091	-38.856	-0.396	-0.207
-530.077	-114.920	0.045	0.009
-529.062	305.343	0.071	-0.130
-528.048	75.981	-0.091	0.095
-527.033	-167.425	0.426	-0.017
-526.018	116.572	-0.024	-0.030
-525.004	322.843	0.094	-0.178
-523.989	636.155	-0.107	-0.269
-522.975	40.887	0.101	0.091
-521.960	800.000	-0.088	-0.331
-520.945	-200.000	-0.040	-0.220
-519.931	37.617	0.056	0.050
-518.916	262.011	-0.073	0.126
-517.902	-103.068	0.264	0.062
-516.887	-154.304	0.216	-0.014
-515.872	191.175	0.150	-0.224
-514.858	-200.000	0.021	0.142
-513.843	133.487	0.115	0.147
-512.829	-198.368	-0.071	0.000
-511.814	-75.448	-0.094	-0.033
-510.799	133.808	-0.054	0.070
-509.785	322.354	0.077	0.145
-508.770	-15.729	-0.072	-0.046
-507.756	-200.000	0.009	0.089
-506.741	240.089	0.019	-0.031
-505.726	136.271	-0.089	0.115
-504.712	-129.065	-0.266	0.037
-503.697	-15.634	0.302	-0.191
-502.683	199.297	0.211	0.321
-501.668	722.264	0.150	-0.395
-500.653	-31.573	0.231	-0.129
-499.639	45.653	-0.271	-0.248
-498.624	-99.540	0.312	-0.078
-497.610	477.204	0.260	0.582
-496.595	29.153	-0.267	-0.224
-495.581	-96.391	-0.091	-0.024
-494.566	113.023	0.088	0.106
-493.551	460.988	-0.121	0.268
-492.537	-13.349	-0.076	0.049
-491.522	-22.795	-0.088	-0.053
-490.508	-146.681	-0.360	-0.031
-489.493	413.077	0.056	0.118
-488.478	800.000	0.074	0.298
-487.464	274.849	-0.207	-0.364
-486.449	36.365	0.082	0.071
-485.435	-21.982	0.267	0.161
-484.420	800.000	0.029	0.121
-483.405	121.432	-0.088	0.108
-482.391	-200.000	-0.062	-0.320
-481.376	-200.000	0.022	0.373
-480.362	592.766	0.065	0.160
-479.347	-30.931	-0.285	-0.160
-478.332	-200.000	-0.005	-0.197
-477.318	-51.553	-0.042	-0.019
-476.303	123.712	-0.080	0.100
-475.289	-200.000	0.032	-0.195
-474.274	239.240	0.146	0.241
-473.259	-0.783	-0.087	0.061
-472.245	800.000	-0.064	0.193
-471.230	3.427	0.236	0.170
-470.216	235.458	0.122	0.199
-469.201	15.895	0.166	-0.130
-468.186	800.000	-0.048	0.164
-467.172	558.741	-0.077	0.184
-466.157	-101.442	-0.169	-0.041
-465.143	-200.000	-0.021	-0.257
-464.128	-124.589	-0.112	-0.017
-463.113	80.357	0.115	-0.122
-462.099	-163.130	-0.260	0.012
-461.084	-91.652	-0.137	0.039
-460.070	93.460	0.065	0.073
-459.055	-200.000	-0.018	0.216
-458.040	62.498	-0.104	0.103
-457.026	51.030	0.097	0.091
-456.011	-140.283	0.304	-0.031
-454.997	320.124	-0.125	0.235
-453.982	19.373	-0.164	0.131
-452.968	-200.000	0.054	-0.242
-451.953	1.950	0.119	0.085
-450.938	-122.787	-0.537	-0.086
-449.924	-79.784	0.068	-0.023
-448.909	47.747	0.078	-0.072
-447.895	230.827	0.058	0.093
-446.880	-21.808	-0.090	0.054
-445.865	-135.002	-0.239	-0.029
-444.851	-149.211	-0.602	-0.048
-443.836	44.954	-0.341	-0.311
-442.822	-108.332	0.161	0.034
-441.807	800.000	-0.046	-0.171
-440.792	2.565	-0.185	-0.133
-439.778	-120.841	0.173	0.029
-438.763	-35.806	0.105	0.056
-437.749	-51.470	0.239	0.111
-436.734	-152.199	0.243	-0.017
-435.719	-197.263	-0.349	0.002
-434.705	-63.011	-0.131	-0.053
-433.690	-200.000	0.001	-0.219
-432.676	-25.330	0.256	-0.150
-431.661	73.389	0.146	-0.151
-430.646	-200.000	0.033	-0.227
-429.632	-118.249	-0.130	0.023
-428.617	-200.000	-0.009	0.145
-427.603	133.204	-0.218	-0.279
-426.588	772.520	0.115	-0.309
-425.573	89.361	-0.214	0.236
-424.559	-200.000	0.023	0.127
-423.544	-111.760	0.046	-0.009
-422.530	140.328	0.158	0.207
-421.515	196.743	0.156	-0.234
-420.500	-47.309	-0.354	-0.170
-419.486	-200.000	0.006	0.051
-418.471	800.000	0.012	0.043
-417.457	-147.441	0.157	-0.013
-416.442	12.081	-0.013	-0.010
-415.428	-200.000	-0.039	0.243
-414.413	186.286	-0.113	0.167
-413.398	-200.000	0.023	0.193
-412.384	108.935	0.204	-0.241
-411.369	26.225	-0.071	-0.058
-410.355	65.198	-0.345	-0.344
-409.340	-16.898	-0.219	-0.137
-408.325	-92.035	0.261	0.073
-407.311	344.311	0.019	0.036
-406.296	10.430	0.344	-0.258
-405.282	72.635	0.098	-0.101
-404.267	329.523	0.026	-0.049
-403.252	-186.689	-0.072	0.001
-402.238	249.090	0.160	-0.268
-401.223	800.000	-0.052	-0.173
-400.209	149.698	-0.084	-0.112
-399.194	-200.000	-0.007	-0.063
-398.179	104.747	-0.104	0.121
-397.165	-50.340	0.175	0.081
-396.150	520.947	-0.096	0.223
-395.136	75.929	-0.020	0.021
-394.121	-111.713	0.214	-0.043
-393.106	-95.099	0.137	-0.037
-392.092	-180.325	-0.166	-0.003
-391.077	47.011	0.052	0.047
-390.063	-55.449	-0.130	-0.057
-389.048	-45.956	-0.289	0.140
-388.033	800.000	-0.021	-0.078
-387.019	426.219	0.064	-0.136
-386.004	-108.273	0.261	-0.056
-384.990	-63.951	-0.009	-0.003
-383.975	505.471	0.007	0.017
-382.960	-111.351	0.251	-0.050
-381.946	-200.000	0.010	0.084
-380.931	-105.476	0.137	0.031
-379.917	-76.916	0.135	0.047
-378.902	-74.316	-0.159	-0.057
-377.888	245.230	0.039	-0.065
-376.873	-200.000	0.007	0.169
-375.858	15.849	0.029	0.022
-374.844	147.527	-0.105	-0.139
-373.829	-121.807	-0.117	0.019
-372.815	92.024	-0.016	-0.017
-371.800	155.894	0.049	-0.067
-370.785	-123.941	0.319	0.050
-369.771	-70.428	0.101	0.038
-368.756	-57.410	-0.142	0.062
-367.742	-200.000	0.006	-0.282
-366.727	-108.145	0.241	-0.052
-365.712	-142.141	-0.164	0.016
-364.698	-166.282	-0.226	-0.009
-363.683	222.642	0.031	0.049
-362.669	695.554	0.093	0.242
-361.654	103.679	0.042	0.048
-360.639	-57.396	0.254	0.110
-359.625	-70.132	-0.342	-0.128
-358.610	-96.506	0.108	-0.028
-357.596	421.487	-0.056	-0.118
-356.581	54.993	0.181	0.172
-355.566	307.635	-0.033	-0.061
-354.552	-162.161	-0.196	-0.010
-353.537	472.317	0.056	-0.124
-352.523	-200.000	0.054	-0.249
-351.508	-135.458	0.199	0.023
-350.493	-34.181	-0.219	-0.118
-349.479	-200.000	0.053	-0.430
-348.464	800.000	0.060	0.217
-347.450	159.949	-0.125	0.172
-346.435	-160.575	0.439	0.023
-345.420	-41.720	0.043	0.022
-344.406	-62.748	-0.325	0.133
-343.391	484.465	0.062	0.139
-342.377	-83.110	-0.232	0.074
-341.362	-109.175	0.115	-0.024
-340.348	-103.836	0.274	0.063
-339.333	150.893	0.186	0.249
-338.318	174.230	-0.179	0.255
-337.304	68.795	-0.084	0.085
-336.289	-112.600	-0.314	0.062
-335.275	-120.130	-0.227	-0.038
-334.260	800.000	0.110	-0.404
-333.245	-13.626	0.211	0.135
-332.231	19.384	0.099	0.078
-331.216	-115.094	-0.183	-0.034
-330.202	-4.441	-0.364	0.248
-329.187	102.379	0.216	-0.249
-328.172	-200.000	0.080	-0.408
-327.158	207.249	-0.149	-0.229
-326.143	-183.530	-0.177	-0.003
-325.129	142.150	-0.153	0.200
-324.114	-117.572	0.308	0.055
-323.099	-193.432	-0.141	-0.001
-322.085	194.329	-0.080	-0.119
-321.070	31.160	-0.097	-0.082
-320.056	-85.112	0.036	0.011
-319.041	-124.470	-0.103	-0.016
-318.026	-200.000	-0.004	-0.129
-317.012	800.000	-0.103	-0.316
-315.997	334.296	0.073	0.139
-314.983	64.947	-0.252	0.250
-313.968	-155.164	-0.118	-0.008
-312.953	92.108	-0.198	-0.220
-311.939	-78.978	0.296	-0.099
-310.924	258.063	-0.257	0.435
-309.910	-52.731	0.244	0.111
-308.895	-73.505	0.122	0.044
-307.880	-15.782	0.077	-0.048
-306.866	115.509	0.090	0.108
-305.851	0.676	0.108	0.076
-304.837	0.126	0.145	-0.102
-303.822	191.337	-0.141	-0.210
-302.807	800.000	-0.015	-0.051
-301.793	485.462	-0.108	0.242
-300.778	147.970	0.080	-0.106
-299.764	-59.270	-0.182	0.077
-298.749	-95.401	0.141	-0.037
-297.735	-66.744	0.222	0.086
-296.720	13.339	-0.271	-0.206
-295.705	291.978	0.048	-0.085
-294.691	34.248	0.271	0.233
-293.676	-32.731	-0.164	-0.090
-292.662	800.000	0.081	-0.303
-291.647	83.705	0.367	-0.393
-290.632	-7.340	0.240	0.160
-289.618	563.550	0.185	0.440
-288.603	-200.000	0.027	0.163
-287.589	151.992	-0.105	0.140
-286.574	-25.577	-0.183	-0.106
-285.559	800.000	0.046	0.151
-284.545	237.648	-0.067	-0.110
-283.530	-97.135	0.320	0.082
-282.516	5.203	0.122	0.088
-281.501	97.586	0.177	-0.200
-280.486	-11.210	-0.225	0.146
-279.472	381.800	0.110	-0.223
-278.457	-31.844	-0.158	0.087
-277.443	49.502	0.274	0.253
-276.428	-129.935	0.176	0.024
-275.413	25.034	-0.159	-0.130
-274.399	800.000	-0.047	-0.134
-273.384	-200.000	0.024	-0.214
-272.370	-200.000	-0.133	-0.635
-271.355	-73.684	0.107	-0.038
-270.340	800.000	0.042	-0.140
-269.326	84.353	-0.105	-0.113
-268.311	120.055	-0.098	0.119
-267.297	-130.260	0.074	-0.010
-266.282	46.402	0.198	-0.181
-265.267	134.739	0.277	-0.353
-264.253	759.403	0.104	0.277
-263.238	-159.222	-0.119	-0.007
-262.224	-100.066	-0.316	0.077
-261.209	800.000	-0.051	-0.186
-260.195	270.461	-0.022	-0.039
-259.180	114.233	-0.131	0.156
-258.165	372.683	-0.042	0.084
-257.151	-200.000	0.053	-0.277
-256.136	477.940	-0.075	-0.168
-255.122	-200.000	-0.009	-0.043
-254.107	-200.000	0.064	-0.330
-253.092	-46.680	0.045	-0.022
-252.078	800.000	-0.074	-0.245
-251.063	-31.078	0.145	-0.080
-250.049	443.237	0.129	0.278
-249.034	40.648	-0.219	0.193
-248.019	-44.072	-0.103	0.051
-247.005	459.838	-0.075	0.163
-245.990	-137.090	0.061	0.007
-244.976	-149.532	0.115	-0.009
-243.961	237.646	0.065	0.106
-242.946	-51.702	-0.126	0.058
-241.932	763.991	-0.084	-0.225
-240.917	-50.207	0.331	-0.154
-239.903	-200.000	0.055	0.258
-238.888	56.908	-0.170	-0.162
-237.873	-200.000	-0.044	0.351
-236.859	800.000	-0.069	-0.202
-235.844	241.008	-0.084	0.137
-234.830	800.000	-0.114	-0.405
-233.815	-200.000	-0.025	0.599
-232.800	436.650	-0.066	-0.142
-231.786	-133.523	0.197	-0.024
-230.771	59.402	0.124	-0.120
-229.757	800.000	-0.098	0.346
-228.742	-129.445	0.050	-0.007
-227.727	2.001	-0.219	-0.155
-226.713	331.454	0.094	-0.179
-225.698	78.416	-0.157	0.165
-224.684	-73.426	-0.034	-0.012
-223.669	-130.623	0.129	0.017
-222.655	11.597	-0.049	0.037
-221.640	-10.991	0.196	0.127
-220.625	-200.000	-0.001	0.033
-219.611	-87.049	0.186	-0.056
-218.596	-200.000	-0.045	0.295
-217.582	-200.000	-0.025	0.133
-216.567	800.000	0.019	-0.067
-215.552	-113.609	-0.116	-0.022
-214.538	107.985	-0.101	0.118
-213.523	-200.000	0.043	0.252
-212.509	527.478	-0.185	0.428
-211.494	-114.890	0.076	-0.014
-210.479	-200.000	-0.067	0.318
-209.465	76.554	-0.089	-0.093
-208.450	-132.184	-0.424	-0.054
-207.436	-200.000	0.008	-0.043
-206.421	-200.000	0.017	-0.129
-205.406	70.585	0.227	-0.230
-204.392	-133.432	-0.410	-0.050
-203.377	128.928	-0.051	0.063
-202.363	-200.000	0.048	-0.212
-201.348	450.734	-0.043	0.092
-200.333	38.428	-0.190	-0.166
-199.319	-101.618	-0.270	-0.064
-198.304	-75.285	0.228	0.080
-197.290	-200.000	-0.005	0.384
-196.275	-200.000	0.025	0.282
-195.260	-200.000	0.014	0.325
-194.246	38.062	-0.183	0.160
-193.231	-200.000	0.019	-0.215
-192.217	93.712	0.129	0.143
-191.202	800.000	-0.063	-0.251
-190.187	394.254	0.164	0.334
-189.173	341.710	0.140	0.268
-188.158	315.768	-0.031	-0.058
-187.144	79.924	-0.203	-0.214
-186.129	-28.734	-0.308	0.173
-185.114	-14.002	0.279	0.176
-184.100	84.622	0.290	-0.310
-183.085	-175.090	-0.208	-0.006
-182.071	-200.000	0.088	-0.380
-181.056	215.746	-0.174	0.271
-180.042	267.394	0.072	0.123
-179.027	-88.460	-0.333	0.097
-178.012	800.000	0.050	-0.188
-176.998	-200.000	-0.037	0.245
-175.983	-164.110	0.430	-0.019
-174.969	-43.289	-0.288	0.142
-173.954	-103.418	-0.172	0.040
-172.939	-121.559	0.204	0.033
-171.925	176.200	0.190	-0.270
-170.910	-196.220	0.414	0.003
-169.896	146.801	-0.144	0.190
-168.881	-200.000	0.041	-0.245
-167.866	-200.000	0.041	-0.245
-166.852	121.691	-0.041	0.050
-165.837	-200.000	-0.025	0.221
-164.823	-30.828	0.237	0.131
-163.808	-118.878	-0.262	-0.045
-162.793	-41.519	0.151	0.076
-161.779	-95.959	0.235	0.061
-160.764	208.731	-0.084	-0.128
-159.750	428.735	-0.057	-0.121
-158.735	110.798	-0.144	0.169
-157.720	0.884	0.233	-0.163
-156.706	-154.383	0.241	0.016
-155.691	-200.000	0.004	0.049
-154.677	-43.819	-0.158	-0.078
-153.662	800.000	0.092	0.335
-152.647	190.874	0.300	0.442
-151.633	13.409	-0.179	-0.136
-150.618	79.940	-0.249	0.262
-149.604	-168.514	0.128	-0.005
-148.589	31.887	-0.128	0.108
-147.574	-200.000	0.004	0.136
-146.560	313.758	0.056	0.103
-145.545	800.000	0.086	0.353
-144.531	-132.435	0.144	-0.018
-143.516	56.387	0.186	0.177
-142.502	-200.000	0.013	-0.328
-141.487	-91.448	0.161	-0.045
-140.472	245.386	0.084	0.138
-139.458	-200.000	-0.014	-0.206
-138.443	-12.301	0.232	0.148
-137.429	-200.000	-0.050	0.224
-136.414	43.760	-0.094	-0.084
-135.399	214.561	0.113	0.174
-134.385	-71.291	0.132	0.048
-133.370	48.613	0.169	-0.155
-132.356	216.424	0.100	0.156
-131.341	24.551	-0.186	0.150
-130.326	199.995	0.168	0.252
-129.312	-120.612	-0.132	0.022
-128.297	-114.520	0.343	0.064
-127.283	82.184	-0.067	-0.071
-126.268	-19.045	0.321	0.195
-125.253	-200.000	-0.005	0.045
-124.239	-114.236	0.178	0.034
-123.224	800.000	-0.057	0.234
-122.210	-16.157	0.047	-0.029
-121.195	253.124	-0.163	-0.272
-120.180	-16.957	-0.186	-0.115
-119.166	240.855	-0.158	0.257
-118.151	-57.333	-0.144	-0.062
-117.137	215.836	-0.139	0.216
-116.122	-200.000	-0.021	0.220
-115.107	800.000	-0.085	-0.270
-114.093	-141.804	0.236	0.023
-113.078	800.000	0.018	-0.065
-112.064	-138.624	0.212	-0.023
-111.049	115.518	-0.287	0.343
-110.034	800.000	-0.064	0.205
-109.020	791.337	0.013	-0.036
-108.005	188.569	0.251	-0.367
-106.991	-134.614	0.253	-0.030
-105.976	98.619	-0.068	0.076
-104.962	-58.511	-0.239	0.101
-103.947	-200.000	-0.006	-0.076
-102.932	30.038	0.025	0.021
-101.918	-53.208	0.173	-0.077
-100.903	252.412	0.053	-0.087
-99.889	0.473	0.492	-0.343
-98.874	-107.258	-0.139	0.030
-97.859	33.907	-0.170	-0.144
-96.845	158.838	0.102	-0.139
-95.830	-24.324	-0.051	-0.030
-94.816	-128.866	-0.368	0.051
-93.801	-47.496	0.288	0.137
-92.786	-8.944	-0.035	0.023
-91.772	41.703	-0.128	-0.114
-90.757	-42.244	-0.233	-0.116
-89.743	227.457	-0.168	0.266
-88.728	-84.389	-0.247	0.076
-87.713	-64.790	0.293	0.116
-86.699	800.000	0.042	0.130
-85.684	-132.090	0.281	0.036
-84.670	14.730	0.123	0.094
-83.655	-200.000	-0.003	0.364
-82.640	-200.000	-0.001	-0.142
-81.626	-200.000	-0.016	0.478
-80.611	88.162	-0.125	0.135
-79.597	-181.942	0.175	0.003
-78.582	-173.826	0.435	0.013
-77.567	-37.519	-0.295	-0.153
-76.553	-200.000	0.003	0.148
-75.538	47.988	0.169	0.154
-74.524	64.358	0.348	0.342
-73.509	246.267	-0.234	-0.385
-72.494	133.342	-0.183	0.230
-71.480	-173.395	0.131	-0.004
-70.465	31.410	-0.112	-0.094
-69.451	-179.966	0.208	-0.004
-68.436	-77.894	0.213	0.072
-67.422	13.343	-0.355	-0.268
-66.407	-104.387	0.374	-0.084
-65.392	-79.822	-0.072	0.024
-64.378	-200.000	-0.013	-0.113
-63.363	-160.395	0.345	0.018
-62.349	570.496	-0.027	0.063
-61.334	151.280	-1.102	-1.461
-60.319	53.902	0.832	0.779
-59.305	318.949	-0.679	-1.255
-58.290	278.939	0.765	1.330
-57.276	194.143	0.741	1.094
-56.261	-200.000	134.619	687.309
-55.246	344.167	1673.439	3197.059
-54.232	133.971	2803.999	3537.219
-53.217	89.901	2170.211	2361.091
-52.203	32.768	1598.581	1347.312
-51.188	24.692	1346.151	1085.699
-50.173	22.462	1308.737	1042.302
-49.159	50.852	1382.465	1275.425
-48.144	46.870	1392.265	1260.170
-47.130	24.822	1338.841	1080.416
-46.115	21.638	1319.919	1046.116
-45.100	21.415	1314.465	1040.428
-44.086	21.388	1311.585	1037.947
-43.071	21.407	1309.804	1036.607
-42.057	21.287	1307.923	1034.371
-41.042	21.199	1307.016	1033.092
-40.027	21.423	1305.135	1032.887
-39.013	21.351	1303.065	1030.781
-37.998	21.390	1300.953	1029.297
-36.984	21.363	1299.696	1028.106
-35.969	21.448	1297.573	1026.886
-34.954	21.502	1295.831	1025.780
-33.940	21.428	1294.574	1024.313
-32.925	21.531	1293.197	1023.783
-31.911	21.439	1291.885	1022.171
-30.896	21.495	1290.438	1021.308
-29.881	21.544	1288.897	1020.337
-28.867	21.595	1287.404	1019.407
-27.852	21.566	1286.162	1018.215
-26.838	21.568	1285.077	1017.330
-25.823	21.502	1283.918	1015.988
-24.809	21.515	1282.441	1014.854
-23.794	21.596	1280.687	1013.894
-22.779	21.501	1279.838	1012.635
-21.765	21.442	1278.679	1011.334
-20.750	21.583	1276.755	1010.587
-19.736	21.358	1275.815	1008.507
-18.721	21.310	1274.866	1007.436
-17.706	21.341	1274.063	1006.939
-16.692	21.463	1272.519	1006.383
-15.677	21.472	1271.395	1005.509
-14.663	21.325	1270.444	1003.868
-13.648	21.402	1269.000	1003.134
-12.633	21.363	1268.535	1002.498
-11.619	21.350	1267.842	1001.840
-10.604	21.404	1266.761	1001.252
-9.590	21.389	1266.047	1000.565
-8.575	21.263	1265.165	999.107
-7.560	21.406	1263.802	998.804
-6.546	21.423	1263.047	998.271
-5.531	21.456	1262.034	997.616
-4.517	21.375	1261.617	996.784
-3.502	21.354	1260.949	996.097
-2.487	21.266	1259.954	994.769
-1.473	21.179	1255.617	990.814
-0.458	19.479	1240.379	969.210
0.556	15.259	1224.409	933.050
1.571	11.529	1233.437	918.896
2.586	10.930	1248.864	926.893
3.600	10.951	1236.398	917.677
4.615	8.208	1164.867	849.914
5.629	3.118	1095.539	773.704
6.644	0.911	1079.295	751.222
7.659	0.587	1077.623	748.383
8.673	0.617	1076.921	747.978
9.688	0.656	1075.473	747.100
10.702	0.777	1072.857	745.815
11.717	3.690	1075.982	762.316
12.731	10.035	1084.615	799.850
13.746	15.387	1091.578	831.504
14.761	17.205	1093.510	841.920
15.775	16.584	1091.696	837.373
16.790	15.528	1089.656	830.515
17.804	14.843	1087.973	825.777
18.819	14.466	1087.398	823.405
19.834	14.356	1086.219	821.897
20.848	14.099	1085.202	819.787
21.863	13.706	1084.658	817.366
22.877	13.690	1083.574	816.398
23.892	13.603	1083.153	815.580
24.907	13.687	1082.207	815.212
25.921	13.666	1081.463	814.473
26.936	13.671	1080.590	813.768
27.950	13.712	1079.626	813.175
28.965	13.712	1078.461	812.224
29.980	13.867	1076.675	811.566
30.994	13.880	1076.124	811.139
32.009	13.773	1075.124	809.794
33.023	13.799	1073.782	808.835
34.038	13.811	1073.105	808.312
35.053	13.835	1071.712	807.311
36.067	13.782	1071.226	806.614
37.082	13.766	1070.505	805.924
38.096	14.004	1069.807	806.481
39.111	13.836	1068.951	804.951
40.126	13.748	1068.221	803.905
41.140	13.633	1067.309	802.587
42.155	13.648	1065.636	801.330
43.169	13.626	1064.253	800.114
44.184	13.536	1063.615	799.128
45.199	13.681	1062.272	798.747
46.213	13.599	1061.709	797.858
47.228	13.665	1060.566	797.249
48.242	13.773	1059.049	796.558
49.257	13.710	1058.483	795.755
50.271	13.721	1057.463	794.975
51.286	13.689	1056.114	793.737
52.301	13.615	1056.145	793.336
53.315	13.779	1054.452	792.775
54.330	13.698	1053.010	791.235
55.344	13.682	1052.305	790.561
56.359	13.572	1051.934	789.686
57.374	13.708	1050.350	789.075
58.388	13.676	1049.507	788.219
59.403	13.619	1049.133	787.596
60.417	13.530	1048.307	786.485
61.432	13.538	1047.415	785.784
62.447	13.583	1046.602	785.319
63.461	13.569	1045.762	784.551
64.476	13.528	1044.676	783.474
65.490	13.584	1044.035	783.190
66.505	13.634	1043.007	782.585
67.520	13.636	1042.425	782.088
68.534	13.544	1041.843	781.149
69.549	13.622	1041.097	780.889
70.563	13.661	1040.226	780.351
71.578	13.680	1039.177	779.580
72.593	13.485	1038.724	778.258
73.607	13.521	1037.901	777.742
74.622	13.512	1037.380	777.241
75.636	13.561	1036.910	777.047
76.651	13.495	1036.183	776.126
77.666	13.571	1035.437	775.852
78.680	13.609	1034.447	775.222
79.695	13.559	1034.044	774.615
80.709	13.502	1033.519	773.887
81.724	13.681	1032.720	774.059
82.739	13.680	1031.834	773.318
83.753	13.681	1031.361	772.901
84.768	13.801	1030.137	772.476
85.782	13.758	1029.226	771.522
86.797	13.712	1028.506	770.703
87.812	13.724	1027.364	769.835
88.826	13.711	1026.165	768.805
89.841	13.741	1025.732	768.555
90.855	13.744	1024.756	767.767
91.870	13.757	1024.006	767.197
92.884	13.650	1022.751	765.698
93.899	13.811	1021.940	765.765
94.914	13.782	1021.179	764.990
95.928	13.891	1020.485	764.905
96.943	13.768	1019.549	763.571
97.957	13.972	1018.650	763.766
98.972	13.879	1017.797	762.634
99.987	13.849	1016.963	761.802
101.001	13.846	1016.102	761.079
102.016	13.760	1015.229	759.963
103.030	13.806	1014.427	759.507
104.045	13.892	1013.798	759.363
105.060	13.742	1013.003	758.011
106.074	13.783	1011.949	757.343
107.089	13.659	1010.896	755.923
108.103	13.734	1009.589	755.221
109.118	13.708	1008.945	754.557
110.133	13.654	1008.153	753.651
111.147	13.878	1006.765	753.561
112.162	13.917	1006.203	753.251
113.176	13.867	1005.716	752.595
114.191	13.995	1004.484	752.182
115.206	13.810	1004.034	750.945
116.220	13.790	1003.398	750.310
117.235	13.893	1001.931	749.614
118.249	13.852	1001.311	748.900
119.264	13.814	1000.801	748.277
120.279	13.709	1000.236	747.315
121.293	13.751	999.050	746.552
122.308	13.714	998.298	745.757
123.322	13.739	997.361	745.107
124.337	13.873	995.709	744.408
125.352	13.721	995.079	743.188
126.366	13.793	993.998	742.636
127.381	13.832	992.765	741.825
128.395	13.774	992.045	740.962
129.410	13.724	990.901	739.820
130.424	13.686	990.407	739.214
131.439	13.759	989.679	738.935
132.454	13.737	988.935	738.214
133.468	13.768	987.852	737.477
134.483	13.793	986.901	736.815
135.497	13.802	986.572	736.544
136.512	13.834	985.047	735.482
137.527	13.784	984.108	734.495
138.541	13.704	983.958	733.963
139.556	13.942	982.908	734.165
140.570	13.906	982.300	733.486
141.585	13.898	981.242	732.598
142.600	13.939	980.293	732.007
143.614	13.952	979.974	731.761
144.629	13.973	978.939	731.015
145.643	14.022	977.203	729.870
146.658	14.035	976.443	729.295
147.673	13.909	976.276	728.551
148.687	13.947	975.685	728.212
149.702	13.947	974.293	727.111
150.716	13.830	973.867	726.214
151.731	13.897	973.316	726.031
152.746	13.955	972.268	725.441
153.760	13.984	971.239	724.735
154.775	14.111	971.045	725.078
155.789	13.967	970.527	724.001
156.804	14.081	970.005	724.043
157.819	13.995	969.136	722.957
158.833	14.143	968.690	723.206
159.848	14.146	967.847	722.526
160.862	14.122	966.528	721.372
161.877	14.017	965.917	720.395
162.892	13.990	964.541	719.189
163.906	13.993	963.487	718.353
164.921	14.073	963.005	718.277
165.935	14.183	961.873	717.841
166.950	14.121	961.189	716.999
167.964	14.230	959.960	716.491
168.979	14.220	959.091	715.735
169.994	14.095	958.705	714.847
171.008	14.025	958.086	714.023
172.023	14.171	957.394	714.070
173.037	14.151	956.768	713.453
174.052	14.191	956.142	713.097
175.067	14.117	955.499	712.235
176.081	14.244	954.651	712.082
177.096	14.155	954.319	711.392
178.110	14.220	953.673	711.124
179.125	14.204	953.028	710.512
180.140	14.329	951.935	710.167
181.154	14.350	951.512	709.877
182.169	14.304	951.089	709.303
183.183	14.353	950.525	709.029
184.198	14.403	949.723	708.582
185.213	14.518	948.905	708.396
186.227	14.394	948.500	707.504
187.242	14.540	947.314	707.177
188.256	14.429	947.174	706.540
189.271	14.351	946.527	705.664
190.286	14.282	945.841	704.797
191.300	14.259	944.767	703.838
192.315	14.271	944.382	703.541
193.329	14.414	943.901	703.725
194.344	14.410	942.970	702.952
195.359	14.501	942.230	702.720
196.373	14.450	941.533	701.924
197.388	14.555	941.253	702.096
198.402	14.579	940.782	701.783
199.417	14.709	940.342	701.938
200.432	14.603	939.547	700.837
201.446	14.471	939.129	699.909
202.461	14.543	938.492	699.675
203.475	14.635	937.934	699.581
204.490	14.598	937.145	698.778
205.504	14.684	936.275	698.428
206.519	14.716	935.219	697.709
207.534	14.720	934.798	697.351
208.548	14.695	934.385	696.878
209.563	14.767	933.517	696.467
210.577	14.628	933.017	695.455
211.592	14.767	931.995	695.212
212.607	14.788	931.537	694.896
213.621	14.798	930.720	694.265
214.636	14.782	930.583	694.034
215.650	14.722	929.606	692.996
216.665	14.815	928.764	692.691
217.680	14.935	927.807	692.413
218.694	14.815	927.318	691.490
219.709	14.911	926.487	691.207
220.723	14.809	926.007	690.365
221.738	14.822	925.085	689.671
222.753	14.900	924.446	689.455
223.767	14.963	923.751	689.137
224.782	14.997	923.676	689.160
225.796	15.139	922.537	688.831
226.811	14.999	922.137	687.899
227.826	15.087	921.333	687.600
228.840	14.926	920.583	686.315
229.855	15.087	919.932	686.430
230.869	15.047	918.653	685.251
231.884	14.890	918.551	684.472
232.899	14.915	917.922	684.047
233.913	15.064	917.053	683.945
234.928	14.958	916.782	683.252
235.942	15.014	916.138	682.939
236.957	15.013	915.157	682.144
237.972	14.983	914.487	681.461
238.986	15.085	913.575	681.136
240.001	15.086	913.024	680.670
241.015	15.181	912.208	680.387
242.030	15.095	911.903	679.751
243.045	15.105	911.690	679.572
244.059	15.206	910.571	679.088
245.074	15.126	910.117	678.364
246.088	15.007	909.685	677.501
247.103	15.073	909.019	677.212
248.117	15.224	908.266	677.199
249.132	15.305	907.527	676.918
250.147	15.373	906.945	676.696
251.161	15.399	906.079	676.095
252.176	15.322	905.700	675.444
253.190	15.600	904.717	675.769
254.205	15.431	904.336	674.745
255.220	15.602	903.502	674.748
256.234	15.644	902.648	674.221
257.249	15.653	902.071	673.767
258.263	15.412	901.918	672.626
259.278	15.452	901.541	672.446
260.293	15.572	900.417	672.029
261.307	15.616	899.955	671.798
262.322	15.698	899.014	671.367
263.336	15.690	898.246	670.701
264.351	15.717	897.564	670.239
265.366	15.746	896.851	669.764
266.380	15.548	896.415	668.589
267.395	15.705	895.455	668.437
268.409	15.737	895.201	668.316
269.424	15.764	894.214	667.628
270.439	15.710	893.856	667.090
271.453	15.821	892.506	666.461
272.468	15.708	892.546	665.986
273.482	15.654	892.253	665.493
274.497	15.716	891.656	665.233
275.512	15.793	890.285	664.455
276.526	15.856	889.571	664.113
277.541	15.825	889.469	663.854
278.555	15.840	889.072	663.562
279.570	15.954	888.048	663.186
280.585	15.920	887.091	662.279
281.599	15.821	886.695	661.535
282.614	15.877	886.160	661.296
283.628	15.998	885.137	660.950
284.643	15.926	884.884	660.423
285.657	15.976	883.896	659.823
286.672	15.910	883.514	659.219
287.687	16.007	883.087	659.223
288.701	16.003	882.300	658.560
289.716	16.044	881.644	658.175
290.730	16.087	881.030	657.823
291.745	16.114	880.742	657.654
292.760	16.043	879.652	656.509
293.774	16.058	879.333	656.268
294.789	15.995	878.890	655.635
295.803	16.123	878.282	655.620
296.818	16.243	876.801	654.923
297.833	16.056	876.702	654.066
298.847	16.052	876.185	653.607
299.862	16.227	875.103	653.422
300.876	16.228	875.009	653.295
301.891	16.155	874.320	652.441
302.906	16.235	873.745	652.264
303.920	16.252	873.344	651.970
304.935	16.362	872.507	651.715
305.949	16.261	871.991	650.881
306.964	16.459	871.051	650.886
307.979	16.381	870.456	650.082
308.993	16.370	870.034	649.667
310.008	16.389	869.539	649.313
311.022	16.318	869.177	648.714
312.037	16.429	868.489	648.566
313.052	16.433	867.637	647.890
314.066	16.446	867.192	647.549
315.081	16.538	866.600	647.402
316.095	16.401	865.921	646.316
317.110	16.425	865.381	645.946
318.125	16.260	865.175	645.105
319.139	16.468	864.601	645.415
320.154	16.399	864.407	644.948
321.168	16.454	863.445	644.382
322.183	16.382	862.954	643.686
323.197	16.479	862.484	643.648
324.212	16.467	861.974	643.165
325.227	16.413	861.016	642.186
326.241	16.499	860.563	642.121
327.256	16.588	859.884	641.894
328.270	16.543	859.253	641.196
329.285	16.417	858.986	640.461
330.300	16.630	858.440	640.806
331.314	16.594	857.813	640.142
332.329	16.618	857.078	639.627
333.343	16.579	857.189	639.507
334.358	16.680	856.803	639.546
335.373	16.536	856.380	638.627
336.387	16.571	855.984	638.408
337.402	16.667	855.605	638.431
338.416	16.792	855.168	638.522
339.431	16.825	854.535	638.114
340.446	16.913	854.273	638.194
341.460	16.856	853.695	637.491
342.475	16.824	853.690	637.313
343.489	16.816	852.526	636.354
344.504	16.856	852.425	636.375
345.519	16.852	851.669	635.741
346.533	16.939	851.540	635.911
347.548	16.852	851.037	635.153
348.562	16.866	850.339	634.628
349.577	16.918	849.590	634.209
350.592	16.830	849.205	633.538
351.606	16.899	848.546	633.247
352.621	16.882	847.864	632.619
353.635	16.901	846.952	631.953
354.650	16.948	846.317	631.600
355.665	17.059	845.569	631.397
356.679	17.038	845.029	630.860
357.694	16.989	844.563	630.273
358.708	16.986	844.018	629.799
359.723	17.150	843.395	629.888
360.738	16.978	843.319	629.138
361.752	17.044	842.580	628.777
362.767	17.192	841.476	628.445
363.781	17.168	841.127	628.039
364.796	17.333	840.592	628.194
365.810	17.162	840.652	627.552
366.825	17.248	840.233	627.498
367.840	17.283	839.329	626.898
368.854	17.327	838.942	626.716
369.869	17.311	838.648	626.383
370.883	17.338	838.368	626.215
371.898	17.372	837.866	625.910
372.913	17.415	837.313	625.601
373.927	17.433	836.755	625.195
374.942	17.357	836.230	624.468
375.956	17.489	836.235	624.900
376.971	17.348	835.581	623.838
377.986	17.504	834.803	623.774
379.000	17.489	834.618	623.528
380.015	17.548	834.327	623.471
381.029	17.497	833.699	622.759
382.044	17.562	832.901	622.346
383.059	17.584	832.125	621.791
384.073	17.641	831.635	621.576
385.088	17.556	830.981	620.724
386.102	17.605	830.277	620.321
387.117	17.451	830.310	619.732
388.132	17.501	829.510	619.261
389.146	17.604	828.992	619.195
390.161	17.692	828.255	618.909
391.175	17.643	827.930	618.434
392.190	17.589	827.768	618.060
393.205	17.516	827.148	617.277
394.219	17.665	826.604	617.357
395.234	17.801	826.048	617.379
396.248	17.661	825.995	616.780
397.263	17.606	825.190	615.924
398.278	17.643	824.919	615.802
399.292	17.568	824.551	615.203
400.307	17.524	824.163	614.699
401.321	17.559	823.803	614.503
402.336	17.579	823.181	614.057
403.350	17.626	823.004	614.038
404.365	17.821	822.313	614.171
405.380	17.795	821.622	613.506
406.394	17.702	821.287	612.868
407.409	17.925	820.532	613.052
408.423	17.864	820.530	612.777
409.438	17.798	819.998	612.088
410.453	17.980	819.701	612.467
411.467	17.935	818.947	611.688
412.482	17.944	818.741	611.512
413.496	17.982	818.345	611.296
414.511	17.950	818.264	611.067
415.526	18.205	817.159	611.099
416.540	18.156	816.800	610.604
417.555	18.144	816.760	610.475
418.569	18.205	815.879	609.980
419.584	18.206	815.595	609.719
420.599	18.048	815.172	608.786
421.613	115.842	1300.650	1490.702
422.628	100.393	1371.316	1490.793
