DTS Sentinel unit serial number:	SN413079Multiplexer serial number:	ORYXHardware model number:	OX4-SRSoftware version number:	ORYX F/W v4.00 Oryx Data Collector v3.7.2.0data status	okinstallation	princeton_trtdifferential loss correction	single-endedforward channel	channel 1reverse channel	N/Adate	2019/09/11time	03:24:11forward acquisition time	60.00reverse acquisition time	0.00gamma	496.2192k internal	0.2331k external	0.2331temperature offset calibration	0.9929default loss term (dB/km)	0.3790temperature slope calibration	1.0000multiplexer offset coefficient	1.0000multiplexer slope coefficient	1.0000fibre end	0.00T internal ref (°C)	29.42T ext. ref 1 (°C)	-0.29T ext. ref 2 (°C)	24.19length (m)	temperature (°C)	Stokes	anti-Stokes-747.200	-127.211	0.317	0.047
-746.185	729.406	0.086	0.230
-745.171	1.532	-0.143	0.103
-744.156	9.306	-0.143	-0.109
-743.142	-200.000	0.049	0.260
-742.127	-200.000	0.024	0.184
-741.112	42.332	-0.093	-0.085
-740.098	42.783	0.093	-0.085
-739.083	-2.893	-0.166	-0.117
-738.069	-16.536	-0.244	0.155
-737.054	-59.413	-0.200	0.086
-736.039	-43.943	-0.246	0.124
-735.025	50.622	0.077	-0.073
-734.010	679.524	-0.137	-0.358
-732.996	270.348	0.169	-0.299
-731.981	192.802	-0.171	-0.259
-730.966	800.000	-0.070	0.299
-729.952	-80.788	0.174	0.058
-728.937	-132.919	-0.593	0.076
-727.923	-200.000	-0.017	-0.128
-726.908	-54.912	-0.252	0.114
-725.894	-62.422	-0.427	-0.179
-724.879	-76.840	0.110	-0.039
-723.864	-8.497	0.131	0.088
-722.850	-77.002	-0.152	-0.054
-721.835	-200.000	0.041	-0.349
-720.821	800.000	0.011	0.047
-719.806	-200.000	0.005	-0.097
-718.791	187.422	0.318	0.477
-717.777	187.154	0.159	-0.239
-716.762	133.414	0.204	-0.265
-715.748	27.789	0.190	-0.161
-714.733	-200.000	-0.069	-0.358
-713.718	496.473	-0.097	-0.225
-712.704	308.684	-0.087	0.163
-711.689	-113.291	0.150	-0.030
-710.675	-200.000	-0.051	0.233
-709.660	800.000	0.039	-0.138
-708.645	800.000	0.115	-0.449
-707.631	-192.100	0.238	0.002
-706.616	244.631	-0.156	0.263
-705.602	91.484	-0.079	0.090
-704.587	87.140	0.046	0.051
-703.572	40.501	-0.098	-0.089
-702.558	71.763	0.041	0.043
-701.543	-200.000	-0.083	-0.495
-700.529	800.000	0.035	0.112
-699.514	-200.000	0.077	-0.342
-698.499	173.679	-0.135	-0.196
-697.485	-152.833	0.255	-0.018
-696.470	108.574	0.043	-0.051
-695.456	-154.708	0.351	-0.023
-694.441	800.000	0.013	-0.045
-693.426	-142.007	0.112	-0.011
-692.412	-88.214	-0.323	0.097
-691.397	-200.000	0.068	0.316
-690.383	-177.747	0.291	-0.007
-689.368	225.245	0.148	0.241
-688.354	-36.304	-0.394	-0.213
-687.339	200.383	-0.161	-0.248
-686.324	-113.079	0.243	0.048
-685.310	0.538	-0.096	-0.069
-684.295	45.034	-0.141	0.130
-683.281	49.009	0.307	0.290
-682.266	-134.509	0.524	0.064
-681.251	160.829	-0.168	0.235
-680.237	-188.766	-0.283	-0.003
-679.222	196.577	0.161	-0.246
-678.208	46.738	0.162	-0.151
-677.193	-200.000	0.056	-0.415
-676.178	-200.000	-0.018	-0.142
-675.164	645.646	-0.067	-0.171
-674.149	-200.000	-0.024	-0.268
-673.135	800.000	-0.043	-0.180
-672.120	-49.184	-0.116	-0.056
-671.105	452.100	0.169	-0.374
-670.091	44.103	0.216	-0.198
-669.076	-34.739	0.100	0.055
-668.062	303.736	0.090	-0.168
-667.047	22.890	-0.130	0.107
-666.032	-200.000	-0.035	-0.195
-665.018	-141.227	-0.558	0.057
-664.003	800.000	0.081	-0.257
-662.989	57.316	0.124	0.121
-661.974	-200.000	0.009	-0.118
-660.959	-161.586	-0.108	-0.006
-659.945	-200.000	0.001	-0.025
-658.930	696.101	-0.091	-0.241
-657.916	800.000	-0.111	-0.482
-656.901	800.000	-0.058	-0.235
-655.886	56.943	0.150	0.146
-654.872	450.667	-0.160	0.354
-653.857	-200.000	0.000	0.109
-652.843	-44.258	-0.391	0.196
-651.828	478.004	0.200	-0.453
-650.814	144.478	-0.130	-0.174
-649.799	139.931	-0.172	0.227
-648.784	-48.285	-0.394	-0.191
-647.770	-200.000	0.051	-0.243
-646.755	-104.716	-0.119	-0.027
-645.741	-59.034	0.206	0.089
-644.726	96.069	0.075	-0.086
-643.711	-200.000	-0.033	0.162
-642.697	568.696	0.019	-0.047
-641.682	67.047	0.195	0.199
-640.668	257.538	0.156	0.268
-639.653	14.617	-0.219	0.172
-638.638	-200.000	-0.094	-0.416
-637.624	-2.339	-0.264	-0.185
-636.609	244.905	0.137	-0.231
-635.595	-45.545	0.085	0.042
-634.580	123.353	-0.056	0.070
-633.565	36.901	-0.275	0.244
-632.551	124.341	0.180	-0.226
-631.536	45.931	0.134	-0.124
-630.522	504.147	0.079	-0.184
-629.507	-128.360	-0.393	0.056
-628.492	634.637	-0.081	-0.207
-627.478	450.414	-0.171	-0.378
-626.463	800.000	0.042	0.132
-625.449	-125.007	0.172	-0.026
-624.434	52.788	0.159	-0.152
-623.419	673.354	-0.049	0.128
-622.405	-9.367	0.112	-0.075
-621.390	800.000	-0.025	0.089
-620.376	42.707	-0.201	0.183
-619.361	406.417	-0.104	0.220
-618.346	-53.456	-0.063	0.029
-617.332	-159.742	-0.238	0.013
-616.317	503.934	-0.124	-0.287
-615.303	370.220	0.194	-0.393
-614.288	-200.000	-0.052	0.229
-613.273	-189.957	-0.151	-0.002
-612.259	290.139	-0.108	-0.196
-611.244	125.516	0.125	0.157
-610.230	-116.834	0.160	-0.029
-609.215	361.092	0.024	0.047
-608.201	-200.000	0.003	0.036
-607.186	176.227	-0.058	-0.085
-606.171	107.900	0.122	0.145
-605.157	205.515	-0.035	0.054
-604.142	-1.094	0.101	-0.072
-603.128	15.545	-0.105	-0.083
-602.113	-178.509	-0.150	0.003
-601.098	8.639	0.220	0.166
-600.084	-200.000	-0.002	-0.171
-599.069	800.000	-0.037	-0.156
-598.055	-200.000	0.019	-0.213
-597.040	-200.000	-0.033	-0.337
-596.025	778.019	-0.049	-0.135
-595.011	-181.673	0.189	0.004
-593.996	-200.000	0.019	-0.092
-592.982	507.322	0.139	0.322
-591.967	-33.637	0.226	0.125
-590.952	-200.000	0.031	-0.142
-589.938	-200.000	0.025	-0.348
-588.923	-24.457	0.090	0.054
-587.909	-34.911	-0.127	0.069
-586.894	-13.838	-0.104	-0.067
-585.879	800.000	0.050	-0.161
-584.865	-64.885	0.249	0.101
-583.850	-130.074	0.255	-0.035
-582.836	-79.049	0.157	-0.054
-581.821	800.000	0.041	-0.116
-580.806	800.000	0.069	0.257
-579.792	-200.000	0.036	0.233
-578.777	212.623	0.071	0.112
-577.763	-86.420	-0.135	0.041
-576.748	112.604	-0.159	-0.193
-575.733	96.186	0.153	0.175
-574.719	476.017	-0.111	0.250
-573.704	-95.370	-0.174	-0.047
-572.690	43.243	0.184	0.168
-571.675	-200.000	0.008	-0.271
-570.661	-160.348	0.354	-0.019
-569.646	-108.723	-0.233	-0.050
-568.631	99.429	-0.116	0.134
-567.617	-57.969	0.093	-0.041
-566.602	-162.222	0.269	-0.013
-565.588	-32.125	0.122	-0.068
-564.573	-146.597	0.083	0.007
-563.558	32.351	0.262	0.226
-562.544	105.865	-0.084	0.099
-561.529	-50.199	0.336	0.159
-560.515	386.689	0.030	-0.062
-559.500	800.000	-0.072	0.245
-558.485	-99.382	0.303	0.076
-557.471	-68.147	0.291	0.113
-556.456	308.876	0.139	0.259
-555.442	319.748	0.172	0.326
-554.427	-77.012	0.233	0.081
-553.412	180.758	0.002	0.004
-552.398	299.763	-0.109	0.201
-551.383	51.672	-0.133	0.126
-550.369	-138.053	-0.424	-0.047
-549.354	-136.089	0.222	0.026
-548.339	15.939	-0.175	0.138
-547.325	301.311	0.089	0.164
-546.310	12.435	0.217	-0.167
-545.296	-2.736	0.091	-0.063
-544.281	433.410	0.072	0.155
-543.266	-88.277	0.119	-0.036
-542.252	-21.396	-0.371	-0.226
-541.237	-144.747	0.232	0.021
-540.223	-40.860	0.132	-0.068
-539.208	-113.111	0.101	0.020
-538.193	174.934	0.192	-0.277
-537.179	88.788	0.109	-0.121
-536.164	800.000	0.043	0.148
-535.150	-76.503	-0.211	-0.074
-534.135	-200.000	0.038	-0.383
-533.121	54.037	0.093	-0.089
-532.106	668.099	-0.048	0.123
-531.091	-44.878	-0.095	-0.047
-530.077	197.265	-0.306	-0.466
-529.062	800.000	0.076	-0.318
-528.048	-143.808	0.177	-0.017
-527.033	-54.781	0.100	-0.045
-526.018	-140.931	0.377	0.039
-525.004	-65.001	0.060	-0.024
-523.989	-57.115	-0.267	-0.117
-522.975	154.833	-0.130	0.179
-521.960	800.000	0.062	-0.247
-520.945	121.408	0.055	0.069
-519.931	-182.498	-0.109	-0.002
-518.916	-89.423	0.049	0.014
-517.902	58.287	-0.259	0.253
-516.887	-30.605	-0.202	0.114
-515.872	-200.000	-0.015	0.128
-514.858	798.046	-0.108	-0.298
-513.843	66.816	-0.076	0.077
-512.829	-71.680	0.230	-0.086
-511.814	-200.000	0.041	-0.230
-510.799	800.000	0.083	-0.333
-509.785	201.810	-0.239	-0.367
-508.770	800.000	0.099	-0.278
-507.756	-174.677	-0.255	0.007
-506.741	-43.761	-0.021	0.011
-505.726	-68.153	-0.251	-0.097
-504.712	-200.000	0.004	0.123
-503.697	-116.773	-0.302	0.055
-502.683	800.000	-0.104	0.301
-501.668	216.084	-0.116	-0.184
-500.653	102.127	0.141	-0.164
-499.639	-85.862	-0.258	0.080
-498.624	-200.000	0.038	0.242
-497.610	434.277	0.056	-0.122
-496.595	-200.000	-0.068	-0.487
-495.581	-19.481	0.391	0.241
-494.566	-124.886	-0.581	0.089
-493.551	97.831	0.062	-0.071
-492.537	576.321	-0.031	-0.076
-491.522	475.011	-0.155	-0.348
-490.508	-52.357	0.503	0.232
-489.493	-200.000	0.001	0.171
-488.478	-112.889	-0.229	0.045
-487.464	-93.585	-0.091	-0.025
-486.449	-78.842	-0.198	0.067
-485.435	-12.171	-0.261	-0.170
-484.420	21.913	-0.256	0.208
-483.405	800.000	-0.056	-0.155
-482.391	-151.675	0.193	-0.014
-481.376	-4.048	0.110	-0.076
-480.362	362.850	0.039	0.077
-479.347	-157.989	0.070	0.004
-478.332	3.429	0.168	-0.122
-477.318	5.559	-0.190	-0.140
-476.303	-135.722	-0.260	0.031
-475.289	382.633	0.128	0.262
-474.274	800.000	0.054	-0.186
-473.259	-83.874	-0.353	-0.112
-472.245	-161.323	0.387	-0.020
-471.230	800.000	-0.042	-0.137
-470.216	-158.324	0.342	0.020
-469.201	-69.423	-0.028	-0.011
-468.186	-48.829	0.082	0.039
-467.172	-200.000	0.019	0.092
-466.157	800.000	0.078	0.280
-465.143	800.000	0.093	-0.397
-464.128	-76.925	-0.174	0.060
-463.113	-69.369	-0.271	0.104
-462.099	-200.000	0.018	0.104
-461.084	53.291	-0.235	0.224
-460.070	-200.000	-0.021	0.420
-459.055	-200.000	0.014	0.183
-458.040	184.451	0.125	-0.184
-457.026	-200.000	0.020	-0.176
-456.011	182.519	0.103	-0.151
-454.997	57.174	0.222	0.216
-453.982	-73.168	0.060	0.022
-452.968	-126.281	0.137	0.020
-451.953	66.479	0.101	-0.103
-450.938	-11.154	0.106	0.070
-449.924	103.158	-0.065	0.076
-448.909	152.251	-0.080	0.109
-447.895	-28.249	0.108	0.062
-446.880	-200.000	-0.017	0.351
-445.865	-200.000	0.005	0.129
-444.851	-137.783	-0.339	-0.038
-443.836	48.208	-0.171	0.159
-442.822	-8.039	0.268	0.180
-441.807	213.846	-0.165	0.260
-440.792	800.000	0.165	0.474
-439.778	-57.577	-0.185	-0.081
-438.763	151.057	0.078	0.105
-437.749	-200.000	0.003	0.080
-436.734	-67.599	-0.125	-0.049
-435.719	76.732	-0.041	-0.043
-434.705	-14.330	0.191	0.122
-433.690	19.109	0.191	0.152
-432.676	-113.159	0.225	0.044
-431.661	97.831	-0.141	-0.161
-430.646	-200.000	0.014	-0.155
-429.632	79.691	-0.064	-0.069
-428.617	-200.000	0.062	-0.340
-427.603	-121.420	-0.197	0.033
-426.588	323.546	-0.020	-0.038
-425.573	-200.000	-0.004	0.018
-424.559	-76.996	0.159	-0.055
-423.544	-121.308	-0.256	0.043
-422.530	195.842	0.159	-0.240
-421.515	16.794	-0.133	-0.105
-420.500	2.665	0.191	0.137
-419.486	-74.774	-0.241	0.086
-418.471	12.243	-0.032	0.024
-417.457	339.715	-0.126	0.245
-416.442	-1.253	0.168	-0.118
-415.428	-101.146	-0.160	0.039
-414.413	-32.344	0.197	0.109
-413.398	182.606	-0.112	0.164
-412.384	685.248	-0.110	0.284
-411.369	204.736	0.022	-0.033
-410.355	-87.296	-0.207	-0.062
-409.340	-59.029	-0.136	-0.058
-408.325	4.521	-0.421	-0.307
-407.311	-54.353	-0.098	-0.044
-406.296	800.000	-0.105	0.312
-405.282	39.157	-0.151	-0.135
-404.267	108.171	0.094	-0.112
-403.252	-200.000	-0.010	-0.261
-402.238	86.181	-0.123	-0.135
-401.223	-41.900	-0.212	0.108
-400.209	-115.548	0.186	-0.035
-399.194	-23.241	0.107	-0.064
-398.179	-88.512	-0.120	0.035
-397.165	3.794	-0.206	0.149
-396.150	-59.409	0.161	0.069
-395.136	-38.492	-0.204	-0.107
-394.121	183.978	0.183	-0.268
-393.106	-23.572	0.147	-0.088
-392.092	-60.692	-0.127	0.054
-391.077	-115.234	-0.180	-0.034
-390.063	401.729	-0.056	-0.117
-389.048	84.037	0.439	-0.476
-388.033	-179.038	0.083	0.002
-387.019	26.357	0.030	0.025
-386.004	-70.543	-0.296	0.111
-384.990	215.796	0.167	0.263
-383.975	-200.000	-0.008	-0.101
-382.960	-33.413	0.054	0.029
-381.946	352.769	0.097	0.191
-380.931	-33.618	-0.250	0.137
-379.917	414.498	-0.130	-0.275
-378.902	-200.000	0.028	-0.168
-377.888	-15.887	-0.201	-0.127
-376.873	396.314	-0.187	-0.386
-375.858	-102.845	-0.232	-0.055
-374.844	-93.454	0.205	0.056
-373.829	-72.354	-0.304	0.112
-372.815	13.983	0.247	-0.191
-371.800	-200.000	0.005	0.135
-370.785	60.201	-0.395	0.387
-369.771	-109.357	0.340	0.071
-368.756	-79.044	-0.172	-0.058
-367.742	81.754	0.112	0.120
-366.727	-42.669	-0.123	-0.062
-365.712	16.173	0.252	-0.197
-364.698	-200.000	-0.003	0.386
-363.683	92.426	0.045	-0.051
-362.669	42.372	0.253	-0.228
-361.654	405.620	0.037	0.078
-360.639	318.839	0.043	-0.080
-359.625	-171.407	0.124	0.004
-358.610	38.296	-0.365	0.322
-357.596	204.533	-0.237	0.365
-356.581	-200.000	-0.007	-0.082
-355.566	-101.837	-0.184	0.044
-354.552	25.726	0.187	0.155
-353.537	124.806	-0.172	0.214
-352.523	-28.509	-0.401	0.229
-351.508	244.877	-0.141	0.236
-350.493	75.448	0.032	0.033
-349.479	-200.000	-0.011	0.152
-348.464	81.603	0.171	-0.183
-347.450	78.886	0.179	-0.190
-346.435	57.910	0.292	0.283
-345.420	-200.000	0.014	-0.271
-344.406	-89.442	-0.306	0.089
-343.391	-200.000	-0.043	0.199
-342.377	628.516	-0.105	-0.264
-341.362	-200.000	0.003	-0.060
-340.348	279.318	0.166	0.294
-339.333	-80.753	-0.255	-0.084
-338.318	-50.693	0.114	0.053
-337.304	-108.560	0.155	0.033
-336.289	-117.637	0.155	-0.028
-335.275	-160.060	-0.191	-0.010
-334.260	-198.527	0.252	-0.001
-333.245	263.851	-0.100	-0.172
-332.231	116.280	-0.159	-0.193
-331.216	29.443	0.125	0.105
-330.202	283.280	0.012	-0.021
-329.187	-20.391	-0.222	-0.135
-328.172	76.335	-0.061	0.064
-327.158	800.000	0.119	0.333
-326.143	-200.000	0.025	-0.243
-325.129	-142.948	0.537	-0.052
-324.114	-200.000	-0.022	-0.132
-323.099	-138.990	-0.335	-0.036
-322.085	388.905	-0.106	-0.218
-321.070	144.706	0.092	0.122
-320.056	270.609	-0.140	0.244
-319.041	-200.000	0.024	0.125
-318.026	-115.687	0.203	0.038
-317.012	1.021	0.108	0.077
-315.997	-137.587	0.226	-0.025
-314.983	794.341	-0.116	0.315
-313.968	-49.672	-0.222	0.104
-312.953	-83.677	-0.100	0.032
-311.939	-200.000	-0.064	0.000
-310.924	-153.899	0.063	0.004
-309.910	800.000	0.032	-0.113
-308.895	-200.000	0.011	-0.216
-307.880	-200.000	-0.022	-0.316
-306.866	-200.000	-0.021	0.119
-305.851	245.144	0.159	0.264
-304.837	-200.000	-0.088	-0.426
-303.822	23.589	0.104	0.085
-302.807	-200.000	-0.065	0.350
-301.793	90.966	0.286	0.317
-300.778	-50.048	0.089	-0.042
-299.764	148.386	-0.049	0.066
-298.749	-45.581	0.239	-0.117
-297.735	-200.000	0.017	-0.179
-296.720	90.997	-0.019	-0.021
-295.705	66.177	0.143	-0.143
-294.691	-36.808	0.312	-0.166
-293.676	-135.753	0.088	0.010
-292.662	-162.790	-0.254	0.012
-291.647	92.496	0.145	0.162
-290.632	-200.000	0.002	-0.065
-289.618	-200.000	-0.010	0.110
-288.603	-200.000	0.022	0.329
-287.589	-118.074	-0.184	-0.032
-286.574	-200.000	-0.017	-0.436
-285.559	-86.405	0.124	-0.038
-284.545	800.000	0.094	0.347
-283.530	-64.586	-0.126	-0.050
-282.516	800.000	-0.023	-0.088
-281.501	-12.828	0.052	0.033
-280.486	800.000	-0.081	-0.262
-279.472	-37.717	0.222	-0.117
-278.457	-200.000	-0.009	-0.136
-277.443	504.496	0.114	0.261
-276.428	610.702	0.107	-0.264
-275.413	158.397	-0.096	0.131
-274.399	50.442	-0.400	-0.374
-273.384	-80.559	0.147	0.048
-272.370	800.000	-0.034	0.102
-271.355	52.885	-0.067	0.063
-270.340	-163.097	0.201	-0.010
-269.326	-200.000	0.030	0.262
-268.311	-74.470	0.152	0.054
-267.297	109.365	-0.089	0.106
-266.282	81.141	0.125	0.134
-265.267	-121.067	-0.408	-0.068
-264.253	-200.000	0.022	0.183
-263.238	122.393	0.079	-0.098
-262.224	-62.272	-0.171	-0.070
-261.209	-125.407	-0.152	0.023
-260.195	15.243	0.078	0.061
-259.180	-200.000	-0.059	-0.286
-258.165	343.890	0.093	0.180
-257.151	-200.000	-0.001	0.035
-256.136	-10.772	-0.225	-0.147
-255.122	-143.945	0.210	0.020
-254.107	-200.000	0.024	0.231
-253.092	-83.657	-0.052	0.016
-252.078	632.133	0.100	0.249
-251.063	-168.199	0.363	-0.014
-250.049	-34.538	0.086	0.046
-249.034	254.506	0.125	0.210
-248.019	141.434	0.260	-0.340
-247.005	-100.994	-0.245	0.059
-245.990	445.285	-0.088	0.190
-244.976	-200.000	-0.014	-0.184
-243.961	36.454	0.162	-0.141
-242.946	-71.849	-0.161	0.059
-241.932	58.592	-0.188	-0.182
-240.917	800.000	0.065	-0.198
-239.903	800.000	-0.044	-0.153
-238.888	-200.000	0.059	0.284
-237.873	-85.924	-0.248	0.076
-236.859	-200.000	-0.002	-0.073
-235.844	340.799	0.107	0.207
-234.830	641.056	-0.045	0.113
-233.815	501.774	0.162	-0.370
-232.800	332.104	0.049	0.094
-231.786	-31.059	0.148	0.082
-230.771	46.795	0.223	-0.204
-229.757	-200.000	-0.005	-0.312
-228.742	30.474	-0.326	-0.275
-227.727	-197.837	-0.161	-0.001
-226.713	-121.706	-0.164	-0.027
-225.698	188.535	-0.156	-0.231
-224.684	30.793	0.182	-0.153
-223.669	-105.015	0.219	0.049
-222.655	37.607	0.107	0.094
-221.640	-200.000	0.023	-0.152
-220.625	-200.000	-0.037	-0.533
-219.611	-105.181	0.265	-0.060
-218.596	158.573	-0.162	-0.222
-217.582	-56.287	0.293	0.128
-216.567	254.317	-0.157	0.264
-215.552	277.085	0.167	-0.293
-214.538	248.105	0.162	0.270
-213.523	188.414	-0.023	0.034
-212.509	13.448	0.190	-0.145
-211.494	-66.169	0.177	0.070
-210.479	-24.364	-0.117	-0.069
-209.465	251.156	-0.042	0.070
-208.450	-33.756	-0.136	0.074
-207.436	56.738	0.076	0.073
-206.421	2.726	0.141	0.101
-205.406	29.744	-0.042	0.035
-204.392	373.993	-0.153	0.307
-203.377	518.316	0.147	0.338
-202.363	515.474	-0.081	-0.187
-201.348	164.538	0.132	-0.183
-200.333	-108.159	0.004	0.001
-199.319	-133.162	0.253	-0.032
-198.304	-91.749	0.223	0.062
-197.290	-94.724	0.196	-0.052
-196.275	278.602	-0.090	0.157
-195.260	28.893	-0.082	-0.069
-194.246	-200.000	-0.025	-0.571
-193.231	-87.805	0.070	0.021
-192.217	37.642	-0.193	0.169
-191.202	-125.885	-0.313	0.047
-190.187	800.000	0.050	0.204
-189.173	375.086	0.230	0.463
-188.158	251.478	0.098	-0.165
-187.144	167.010	0.252	-0.352
-186.129	-59.670	-0.118	0.050
-185.114	24.140	-0.224	-0.182
-184.100	-200.000	-0.049	0.287
-183.085	79.682	-0.366	0.387
-182.071	19.092	0.281	0.222
-181.056	162.670	0.149	0.206
-180.042	156.080	0.134	-0.182
-179.027	-96.228	-0.292	-0.076
-178.012	-166.184	0.155	-0.006
-176.998	-34.215	-0.128	-0.069
-175.983	-114.947	-0.168	0.032
-174.969	-172.685	0.122	-0.004
-173.954	-200.000	-0.001	-0.256
-172.939	259.800	0.061	-0.104
-171.925	328.462	-0.068	-0.128
-170.910	-200.000	-0.041	-0.276
-169.896	37.018	-0.132	0.115
-168.881	-37.042	-0.324	0.171
-167.866	423.837	0.157	-0.332
-166.852	20.972	0.303	-0.242
-165.837	-39.598	-0.264	0.136
-164.823	800.000	-0.039	-0.168
-163.808	-81.932	-0.128	0.041
-162.793	585.897	0.126	0.306
-161.779	-110.758	-0.299	0.061
-160.764	-200.000	-0.003	0.019
-159.750	-90.638	-0.196	0.056
-158.735	-200.000	0.022	-0.117
-157.720	96.614	-0.033	-0.037
-156.706	-83.386	-0.091	0.029
-155.691	131.402	0.129	0.163
-154.677	102.950	0.156	0.179
-153.662	800.000	-0.119	0.423
-152.647	44.098	-0.159	0.143
-151.633	-200.000	-0.028	0.185
-150.618	800.000	-0.084	0.291
-149.604	34.869	-0.082	0.070
-148.589	-26.960	0.314	-0.180
-147.574	78.351	0.216	0.227
-146.560	-79.036	-0.088	-0.029
-145.545	-171.544	0.471	0.015
-144.531	-44.989	0.059	-0.029
-143.516	-59.886	0.138	0.058
-142.502	215.818	-0.144	-0.225
-141.487	-82.004	0.416	-0.134
-140.472	800.000	-0.033	0.090
-139.458	-78.873	0.247	0.083
-138.443	-5.222	-0.289	0.195
-137.429	-200.000	0.002	0.174
-136.414	-141.667	0.367	0.036
-135.399	30.732	0.284	-0.238
-134.385	101.683	0.125	-0.144
-133.370	368.803	-0.171	-0.340
-132.356	236.815	0.055	0.089
-131.341	-200.000	-0.001	-0.140
-130.326	457.994	0.014	0.030
-129.312	-27.810	0.194	0.111
-128.297	-200.000	-0.040	-0.277
-127.283	-37.226	-0.142	-0.075
-126.268	-200.000	0.015	-0.148
-125.253	-116.388	0.227	0.041
-124.239	526.484	0.108	-0.249
-123.224	800.000	0.035	-0.105
-122.210	195.910	0.153	0.228
-121.195	-1.644	-0.181	0.125
-120.180	-90.153	-0.211	-0.060
-119.166	204.592	-0.061	-0.093
-118.151	-117.625	0.152	0.027
-117.137	250.574	-0.224	0.374
-116.122	291.307	0.129	-0.231
-115.107	-167.322	-0.032	-0.001
-114.093	-137.104	-0.101	0.011
-113.078	-200.000	-0.093	0.694
-112.064	-52.886	0.076	0.035
-111.049	-10.420	0.196	-0.127
-110.034	98.615	0.091	-0.103
-109.020	41.654	0.145	-0.129
-108.005	800.000	0.084	-0.274
-106.991	67.369	-0.014	0.014
-105.976	33.175	-0.229	-0.195
-104.962	101.190	0.316	0.361
-103.947	403.567	-0.171	-0.354
-102.932	362.223	-0.201	0.395
-101.918	-69.951	-0.300	0.112
-100.903	-60.998	0.255	-0.106
-99.889	170.128	0.155	-0.218
-98.874	-29.713	-0.107	-0.060
-97.859	800.000	0.069	-0.245
-96.845	74.754	-0.073	0.076
-95.830	-135.538	-0.068	-0.008
-94.816	-146.865	-0.089	0.007
-93.801	-50.497	0.169	-0.078
-92.786	68.347	-0.089	-0.090
-91.772	-36.620	0.242	0.128
-90.757	410.990	-0.071	-0.148
-89.743	-11.102	-0.106	-0.069
-88.728	-92.897	-0.228	0.063
-87.713	145.105	0.185	-0.243
-86.699	-57.956	-0.139	-0.060
-85.684	800.000	-0.114	-0.378
-84.670	-2.160	0.187	-0.129
-83.655	800.000	-0.074	0.256
-82.640	419.682	0.119	0.251
-81.626	11.853	0.145	0.109
-80.611	-200.000	0.019	0.241
-79.597	-104.661	0.150	0.034
-78.582	28.003	0.328	-0.271
-77.567	-200.000	0.014	-0.070
-76.553	-200.000	-0.004	0.264
-75.538	-200.000	0.052	0.266
-74.524	-200.000	0.020	-0.110
-73.509	16.732	-0.142	-0.110
-72.494	-39.660	0.220	0.113
-71.480	-51.615	0.284	-0.130
-70.465	337.198	-0.200	-0.382
-69.451	-129.986	0.262	-0.035
-68.436	-29.139	-0.305	-0.171
-67.422	-200.000	-0.023	0.097
-66.407	-28.169	0.102	0.058
-65.392	1.545	0.164	-0.115
-64.378	-34.740	0.186	-0.099
-63.363	344.891	0.070	0.135
-62.349	-200.000	0.043	0.299
-61.334	106.326	-0.874	-1.015
-60.319	162.614	0.375	0.515
-59.305	284.059	-0.649	-1.144
-58.290	212.000	0.759	1.172
-57.276	308.919	0.790	1.446
-56.261	-200.000	106.299	612.994
-55.246	503.591	1508.744	3419.032
-54.232	176.545	2700.398	3845.215
-53.217	111.474	2164.282	2556.905
-52.203	41.360	1598.492	1416.399
-51.188	32.885	1332.915	1130.535
-50.173	29.783	1291.707	1077.502
-49.159	54.270	1345.906	1268.979
-48.144	54.663	1361.289	1285.766
-47.130	32.981	1315.865	1116.466
-46.115	29.541	1298.169	1081.302
-45.100	29.359	1292.856	1075.773
-44.086	29.237	1290.810	1073.318
-43.071	29.129	1288.592	1070.803
-42.057	29.308	1285.827	1069.502
-41.042	29.355	1284.167	1068.352
-40.027	29.252	1282.915	1066.670
-39.013	29.294	1281.020	1065.295
-37.998	29.233	1279.492	1063.626
-36.984	29.415	1277.235	1062.757
-35.969	29.431	1275.164	1061.087
-34.954	29.425	1273.932	1059.985
-33.940	29.417	1272.686	1058.860
-32.925	29.529	1271.333	1058.332
-31.911	29.468	1269.981	1056.819
-30.896	29.455	1268.793	1055.710
-29.881	29.455	1267.365	1054.480
-28.867	29.520	1264.917	1052.776
-27.852	29.518	1263.762	1051.758
-26.838	29.468	1262.817	1050.646
-25.823	29.581	1261.453	1050.115
-24.809	29.556	1259.788	1048.545
-23.794	29.627	1258.389	1047.743
-22.779	29.600	1257.345	1046.676
-21.765	29.547	1256.037	1045.245
-20.750	29.515	1254.884	1044.063
-19.736	29.356	1253.522	1041.991
-18.721	29.412	1252.267	1041.226
-17.706	29.439	1251.111	1040.374
-16.692	29.500	1250.065	1039.805
-15.677	29.307	1249.310	1038.047
-14.663	29.428	1248.156	1037.730
-13.648	29.332	1247.350	1036.481
-12.633	29.374	1245.992	1035.545
-11.619	29.390	1244.989	1034.758
-10.604	29.390	1243.984	1033.883
-9.590	29.311	1243.382	1032.900
-8.575	29.271	1242.426	1031.838
-7.560	29.334	1240.984	1030.956
-6.546	29.323	1240.813	1030.709
-5.531	29.351	1240.070	1030.206
-4.517	29.342	1239.286	1029.466
-3.502	29.459	1238.148	1029.130
-2.487	29.375	1237.153	1027.796
-1.473	29.344	1233.303	1024.387
-0.458	28.047	1218.496	1004.920
0.556	22.409	1202.519	969.403
1.571	19.150	1207.677	955.422
2.586	18.443	1222.745	963.285
3.600	18.414	1211.857	954.458
4.615	13.690	1141.168	873.866
5.629	4.566	1066.611	771.578
6.644	0.058	1046.146	734.719
7.659	-0.409	1044.033	730.896
8.673	-0.381	1042.200	729.685
9.688	-0.437	1041.270	728.698
10.702	0.082	1039.944	730.222
11.717	6.196	1048.545	766.048
12.731	15.152	1060.913	818.985
13.746	19.561	1066.522	844.866
14.761	20.545	1067.221	850.157
15.775	20.496	1066.821	849.523
16.790	20.186	1065.887	847.195
17.804	20.306	1065.378	847.297
18.819	20.384	1065.003	847.309
19.834	20.429	1064.299	846.892
20.848	20.377	1064.435	846.670
21.863	20.445	1063.594	846.257
22.877	20.297	1062.944	844.946
23.892	20.282	1062.206	844.213
24.907	20.246	1061.904	843.722
25.921	20.402	1060.174	843.031
26.936	20.379	1058.937	841.859
27.950	20.319	1057.389	840.264
28.965	20.098	1055.599	837.701
29.980	20.299	1053.870	837.221
30.994	20.505	1052.726	837.234
32.009	20.286	1052.148	835.643
33.023	20.162	1050.828	833.926
34.038	20.323	1049.465	833.542
35.053	20.510	1048.969	833.972
36.067	20.350	1048.132	832.466
37.082	20.465	1047.587	832.511
38.096	20.609	1046.798	832.500
39.111	20.616	1045.964	831.795
40.126	20.547	1044.066	829.883
41.140	20.231	1042.496	827.057
42.155	20.182	1041.001	825.563
43.169	20.091	1040.009	824.272
44.184	20.201	1039.362	824.209
45.199	19.988	1038.438	822.392
46.213	20.079	1037.074	821.671
47.228	20.259	1036.345	821.871
48.242	20.200	1035.631	820.954
49.257	20.308	1034.919	820.827
50.271	20.485	1033.737	820.653
51.286	20.365	1033.235	819.619
52.301	20.550	1032.238	819.626
53.315	20.289	1031.474	817.715
54.330	20.509	1029.990	817.505
55.344	20.510	1029.263	816.858
56.359	20.352	1028.234	815.227
57.374	20.194	1027.762	814.040
58.388	20.359	1026.572	813.797
59.403	20.313	1025.796	812.896
60.417	19.883	1025.130	810.282
61.432	20.179	1024.019	810.716
62.447	20.227	1023.651	810.578
63.461	20.288	1022.554	809.925
64.476	20.202	1021.426	808.556
65.490	20.179	1020.417	807.580
66.505	20.293	1020.217	807.882
67.520	20.287	1019.438	807.165
68.534	20.056	1017.939	804.835
69.549	19.775	1016.900	802.635
70.563	19.826	1016.375	802.387
71.578	19.772	1015.541	801.408
72.593	19.626	1014.799	800.078
73.607	19.712	1014.606	800.250
74.622	19.982	1013.911	800.878
75.636	20.220	1012.536	800.824
76.651	19.894	1011.945	798.778
77.666	19.898	1011.158	798.107
78.680	19.938	1010.519	797.717
79.695	20.028	1009.661	797.383
80.709	20.162	1008.682	797.155
81.724	19.927	1008.531	795.885
82.739	20.114	1007.693	796.013
83.753	20.476	1006.886	796.966
84.768	20.643	1006.642	797.466
85.782	20.787	1005.101	796.835
86.797	20.638	1004.428	795.547
87.812	20.387	1003.981	793.975
88.826	20.520	1002.703	793.504
89.841	20.694	1001.734	793.462
90.855	20.530	1001.413	792.387
91.870	20.587	999.587	791.131
92.884	20.566	998.757	790.312
93.899	20.485	997.608	788.960
94.914	20.611	997.113	789.073
95.928	20.456	996.078	787.481
96.943	20.320	994.709	785.717
97.957	20.032	993.413	783.320
98.972	19.822	992.776	781.800
99.987	20.107	991.907	782.331
101.001	20.210	991.424	782.347
102.016	20.356	991.013	782.612
103.030	20.187	989.277	780.410
104.045	20.040	988.386	778.979
105.060	19.904	987.299	777.439
106.074	20.206	986.605	778.183
107.089	20.461	986.217	778.948
108.103	20.302	985.338	777.472
109.118	20.229	984.411	776.345
110.133	20.246	982.998	775.240
111.147	19.972	981.996	773.157
112.162	19.913	980.810	771.894
113.176	20.037	980.479	772.118
114.191	20.090	979.393	771.431
115.206	19.847	977.907	769.111
116.220	19.780	977.308	768.275
117.235	19.971	976.506	768.423
118.249	19.884	975.635	767.285
119.264	19.880	974.775	766.520
120.279	19.934	974.225	766.260
121.293	19.928	973.547	765.632
122.308	19.943	972.395	764.724
123.322	19.819	971.264	763.220
124.337	19.812	969.490	761.728
125.352	19.320	967.939	758.277
126.366	19.195	967.344	757.199
127.381	20.022	967.171	760.629
128.395	20.362	966.748	761.721
129.410	20.432	965.966	761.342
130.424	20.431	964.453	760.081
131.439	20.407	963.702	759.317
132.454	20.407	962.649	758.420
133.468	20.281	962.447	757.640
134.483	20.316	961.511	756.989
135.497	20.624	960.605	757.551
136.512	20.540	960.104	756.724
137.527	20.552	959.096	755.915
138.541	20.740	957.813	755.651
139.556	20.626	957.099	754.527
140.570	20.663	956.285	753.979
141.585	20.571	955.786	753.122
142.600	20.619	954.609	752.334
143.614	20.762	954.100	752.485
144.629	20.934	952.852	752.177
145.643	20.800	951.577	750.526
146.658	20.700	950.392	749.093
147.673	20.532	949.880	747.902
148.687	20.527	948.185	746.479
149.702	20.519	947.280	745.668
150.716	20.388	946.520	744.442
151.731	20.444	946.201	744.363
152.746	20.607	945.446	744.404
153.760	20.740	944.659	744.286
154.775	20.836	943.996	744.106
155.789	20.805	942.972	743.101
156.804	20.728	942.282	742.166
157.819	20.759	941.640	741.724
158.833	20.926	940.594	741.545
159.848	20.874	939.502	740.398
160.862	20.799	938.125	738.930
161.877	20.791	937.366	738.234
162.892	20.928	936.723	738.243
163.906	20.773	935.724	736.734
164.921	20.761	934.996	736.044
165.935	20.740	934.175	735.245
166.950	20.724	933.309	734.431
167.964	20.831	932.024	733.803
168.979	20.625	931.221	732.240
169.994	20.616	930.399	731.492
171.008	20.799	929.434	731.437
172.023	20.861	928.576	730.958
173.037	20.622	927.520	729.060
174.052	20.463	926.959	727.886
175.067	20.579	926.232	727.738
176.081	20.632	925.349	727.202
177.096	20.590	924.887	726.599
178.110	20.316	923.708	724.465
179.125	20.144	923.247	723.321
180.140	20.301	922.247	723.127
181.154	20.287	922.468	723.180
182.169	20.720	922.148	724.668
183.183	20.868	921.873	725.003
184.198	20.623	920.883	723.144
185.213	20.530	920.251	722.195
186.227	20.818	919.450	722.697
187.242	20.822	918.727	722.083
188.256	20.716	918.558	721.445
189.271	20.846	917.459	721.056
190.286	20.586	916.264	718.980
191.300	20.099	914.417	715.457
192.315	19.248	913.484	711.152
193.329	19.263	912.824	710.636
194.344	20.055	913.362	714.260
195.359	20.686	913.416	716.841
196.373	20.650	912.633	716.015
197.388	20.470	912.088	714.781
198.402	20.649	911.147	714.717
199.417	20.785	910.212	714.478
200.432	20.264	909.660	711.844
201.446	20.084	908.959	710.494
202.461	20.260	908.106	710.488
203.475	19.494	906.403	705.960
204.490	18.667	905.498	701.813
205.504	19.743	905.578	706.210
206.519	20.201	905.694	708.107
207.534	20.547	904.437	708.471
208.548	20.787	904.664	709.568
209.563	20.519	903.542	707.534
210.577	20.506	903.226	707.169
211.592	20.758	902.747	707.756
212.607	20.792	901.643	706.965
213.621	20.821	901.417	706.846
214.636	20.881	900.281	706.136
215.650	20.839	899.582	705.354
216.665	20.933	899.072	705.274
217.680	20.689	898.390	703.687
218.694	20.404	896.846	701.264
219.709	20.395	896.267	700.714
220.723	20.518	896.197	701.094
221.738	20.681	895.643	701.256
222.753	20.627	894.842	700.349
223.767	20.778	894.354	700.513
224.782	20.900	893.961	700.632
225.796	20.884	893.682	700.286
226.811	20.276	891.967	696.443
227.826	19.685	890.739	693.054
228.840	19.919	890.287	693.578
229.855	19.770	889.572	692.364
230.869	19.605	888.515	690.820
231.884	19.977	888.729	692.410
232.899	20.712	888.489	695.100
233.913	20.608	887.916	694.176
234.928	20.665	887.096	693.701
235.942	20.530	886.486	692.624
236.957	20.268	885.809	690.990
237.972	20.320	885.031	690.531
238.986	20.453	884.618	690.673
240.001	20.441	883.868	689.983
241.015	20.545	883.092	689.725
242.030	20.557	883.093	689.711
243.045	20.735	882.516	689.908
244.059	20.831	881.992	689.815
245.074	20.684	880.525	688.028
246.088	20.312	880.022	686.104
247.103	20.523	879.455	686.433
248.117	21.220	879.357	689.049
249.132	21.279	878.795	688.777
250.147	21.228	878.478	688.270
251.161	21.441	878.250	688.870
252.176	21.483	877.275	688.207
253.190	21.418	876.875	687.579
254.205	21.769	875.952	688.170
255.220	21.526	875.452	686.765
256.234	21.318	874.846	685.411
257.249	21.321	873.897	684.621
258.263	21.511	872.999	684.599
259.278	21.420	872.516	683.802
260.293	21.534	871.517	683.408
261.307	21.384	871.237	682.542
262.322	21.141	870.328	680.820
263.336	20.561	868.141	676.792
264.351	19.307	866.799	670.811
265.366	19.697	866.044	671.683
266.380	20.618	867.299	676.177
267.395	21.098	866.717	677.530
268.409	21.068	866.176	676.931
269.424	21.320	865.528	677.340
270.439	21.270	864.788	676.507
271.453	21.519	863.997	676.793
272.468	21.545	864.248	677.029
273.482	21.567	863.447	676.427
274.497	21.227	862.027	673.942
275.512	20.907	861.415	672.170
276.526	21.250	861.478	673.482
277.541	21.361	861.285	673.699
278.555	21.004	860.440	671.603
279.570	20.859	859.358	670.143
280.585	21.089	858.754	670.498
281.599	21.208	857.760	670.118
282.614	20.574	856.554	666.685
283.628	20.561	856.399	666.458
284.643	21.039	855.868	667.816
285.657	20.481	854.807	664.794
286.672	20.311	854.240	663.644
287.687	20.902	854.274	665.870
288.701	20.926	853.420	665.237
289.716	20.618	852.558	663.333
290.730	20.504	851.885	662.318
291.745	20.348	850.563	660.637
292.760	20.620	850.882	661.859
293.774	21.677	851.288	666.140
294.789	21.797	851.120	666.406
295.803	21.901	850.407	666.184
296.818	21.974	849.453	665.653
297.833	21.546	848.218	663.005
298.847	21.380	847.918	662.084
299.862	21.687	847.718	663.030
300.876	21.859	847.569	663.508
301.891	21.644	846.741	661.990
302.906	21.261	845.814	659.756
303.920	21.577	845.763	660.854
304.935	21.845	845.266	661.417
305.949	21.725	844.476	660.290
306.964	21.517	843.966	659.047
307.979	21.624	843.868	659.316
308.993	21.969	843.405	660.192
310.008	21.935	842.524	659.319
311.022	21.701	841.817	657.827
312.037	21.541	841.414	656.852
313.052	21.289	840.284	654.969
314.066	20.691	838.741	651.472
315.081	20.252	838.323	649.443
316.095	21.083	838.687	652.781
317.110	21.425	838.727	654.031
318.125	20.658	836.885	649.674
319.139	19.843	834.946	645.074
320.154	19.866	834.820	645.006
321.168	20.656	835.444	648.376
322.183	21.355	835.573	651.026
323.197	21.497	835.100	651.129
324.212	21.662	834.635	651.322
325.227	21.625	834.130	650.730
326.241	21.597	833.354	649.965
327.256	21.591	832.542	649.249
328.270	21.280	832.267	647.826
329.285	21.250	831.221	646.842
330.300	21.036	830.673	645.566
331.314	21.315	829.815	645.875
332.329	21.529	830.153	646.873
333.343	21.748	829.538	647.143
334.358	21.948	828.750	647.209
335.373	21.821	828.697	646.643
336.387	21.973	829.050	647.422
337.402	22.243	828.467	647.904
338.416	21.937	828.331	646.615
339.431	22.236	827.526	647.027
340.446	22.151	827.501	646.637
341.460	22.174	827.053	646.316
342.475	22.051	826.396	645.294
343.489	22.016	825.905	644.724
344.504	22.486	825.742	646.264
345.519	22.594	824.934	645.973
346.533	22.587	824.833	645.810
347.548	22.558	824.365	645.279
348.562	22.531	823.893	644.756
349.577	22.401	823.661	644.040
350.592	22.402	822.538	643.108
351.606	22.404	822.185	642.782
352.621	22.202	821.084	641.128
353.635	22.273	820.088	640.551
354.650	21.571	819.029	637.116
355.665	20.645	817.231	632.298
356.679	21.144	817.173	634.006
357.694	21.607	816.511	635.116
358.708	21.564	816.181	634.650
359.723	21.796	816.325	635.545
360.738	22.181	815.873	636.534
361.752	22.376	815.478	636.872
362.767	22.673	815.062	637.568
363.781	22.845	814.589	637.761
364.796	22.854	814.213	637.444
365.810	22.909	813.912	637.350
366.825	22.796	813.574	636.621
367.840	22.591	812.365	634.880
368.854	22.080	811.751	632.505
369.869	22.260	811.649	633.019
370.883	22.262	811.062	632.509
371.898	22.190	810.375	631.659
372.913	22.197	810.066	631.388
373.927	22.176	810.191	631.354
374.942	22.507	809.459	631.917
375.956	22.433	809.331	631.496
376.971	22.737	808.832	632.140
377.986	22.684	808.241	631.430
379.000	22.779	807.656	631.257
380.015	22.660	807.075	630.321
381.029	22.654	806.782	630.016
382.044	22.739	805.992	629.646
383.059	22.764	805.695	629.448
384.073	22.828	805.084	629.145
385.088	22.835	804.431	628.602
386.102	22.764	803.354	627.455
387.117	22.545	802.995	626.337
388.132	22.222	801.882	624.270
389.146	21.691	801.286	621.864
390.161	22.058	801.138	622.998
391.175	22.423	800.955	624.094
392.190	22.380	799.720	622.924
393.205	20.872	797.709	615.975
394.219	19.481	796.033	609.716
395.234	19.460	796.082	609.624
396.248	21.187	797.189	616.525
397.263	22.581	797.680	621.771
398.278	22.325	797.839	620.934
399.292	22.217	797.039	619.876
400.307	22.304	796.577	619.770
401.321	22.315	796.328	619.559
402.336	22.645	796.030	620.435
403.350	23.142	795.679	621.852
404.365	23.304	795.880	622.526
405.380	23.546	795.339	622.896
406.394	23.543	794.776	622.389
407.409	23.398	794.340	621.484
408.423	23.321	793.994	620.890
409.438	23.547	793.318	621.097
410.453	23.607	792.924	620.942
411.467	23.448	792.391	619.915
412.482	23.566	791.893	619.882
413.496	23.634	791.819	620.008
414.511	23.471	791.674	619.270
415.526	23.564	790.812	618.866
416.540	23.460	790.038	617.844
417.555	23.133	789.575	616.287
418.569	23.239	789.554	616.586
419.584	23.180	788.863	615.786
420.599	22.973	788.099	614.413
421.613	157.943	1365.620	1798.968
422.628	136.709	1449.744	1799.067
