DTS Sentinel unit serial number:	SN413079Multiplexer serial number:	ORYXHardware model number:	OX4-SRSoftware version number:	ORYX F/W v4.00 Oryx Data Collector v3.7.2.0data status	okinstallation	princeton_trtdifferential loss correction	single-endedforward channel	channel 1reverse channel	N/Adate	2019/09/15time	01:38:35forward acquisition time	60.00reverse acquisition time	0.00gamma	496.2192k internal	0.2321k external	0.2321temperature offset calibration	0.9980default loss term (dB/km)	0.3790temperature slope calibration	1.0000multiplexer offset coefficient	1.0000multiplexer slope coefficient	1.0000fibre end	0.00T internal ref (°C)	31.81T ext. ref 1 (°C)	4.51T ext. ref 2 (°C)	26.74length (m)	temperature (°C)	Stokes	anti-Stokes-747.200	37.820	-0.160	0.143
-746.185	53.191	-0.174	0.168
-745.171	-43.111	-0.127	0.065
-744.156	76.634	-0.121	0.130
-743.142	800.000	0.090	-0.318
-742.127	459.167	-0.093	0.210
-741.112	54.249	0.265	0.258
-740.098	-136.506	0.465	-0.055
-739.083	61.145	-0.034	-0.034
-738.069	-85.467	0.261	0.082
-737.054	797.106	0.143	0.398
-736.039	-200.000	-0.054	0.356
-735.025	-115.164	-0.484	-0.093
-734.010	-200.000	-0.007	0.036
-732.996	-64.429	0.200	-0.082
-731.981	663.265	-0.077	-0.202
-730.966	104.565	0.192	0.228
-729.952	-200.000	0.051	0.277
-728.937	-28.375	0.301	0.175
-727.923	264.616	-0.075	-0.131
-726.908	6.305	-0.078	-0.059
-725.894	-200.000	0.024	-0.114
-724.879	-200.000	0.025	-0.125
-723.864	-181.356	-0.210	0.004
-722.850	-24.025	-0.193	0.117
-721.835	-73.105	0.240	0.089
-720.821	-200.000	0.013	-0.229
-719.806	-200.000	0.006	-0.109
-718.791	66.622	-0.275	-0.282
-717.777	-200.000	0.009	0.159
-716.762	126.027	0.128	-0.163
-715.748	-87.234	-0.262	0.080
-714.733	249.309	0.189	-0.323
-713.718	-53.614	-0.135	0.062
-712.704	-23.617	0.095	0.057
-711.689	526.035	-0.173	-0.412
-710.675	53.690	0.165	-0.160
-709.660	-130.733	-0.119	-0.016
-708.645	-45.170	0.194	-0.097
-707.631	22.335	-0.080	0.066
-706.616	603.430	-0.095	0.238
-705.602	626.612	0.041	0.104
-704.587	-116.097	-0.167	0.031
-703.572	-88.116	0.145	-0.044
-702.558	259.370	0.043	-0.076
-701.543	800.000	-0.047	-0.186
-700.529	-1.606	0.233	-0.166
-699.514	61.181	-0.096	-0.097
-698.499	271.621	-0.128	-0.227
-697.485	216.737	0.062	0.100
-696.470	-58.902	0.088	-0.038
-695.456	-140.310	-0.089	0.009
-694.441	-171.928	0.196	0.006
-693.426	-134.043	0.128	-0.016
-692.412	-135.948	0.179	0.021
-691.397	42.837	0.320	0.294
-690.383	-82.184	0.324	-0.106
-689.368	135.546	-0.077	0.101
-688.354	-126.944	-0.238	0.035
-687.339	124.287	-0.217	-0.275
-686.324	366.054	0.015	-0.031
-685.310	690.218	-0.054	-0.143
-684.295	-46.039	0.133	0.066
-683.281	94.833	0.067	0.077
-682.266	110.745	0.199	-0.242
-681.251	-36.919	-0.229	-0.124
-680.237	116.758	-0.099	0.122
-679.222	-37.162	0.108	-0.058
-678.208	-142.053	0.325	0.033
-677.193	340.065	-0.178	-0.349
-676.178	-91.879	0.131	0.037
-675.164	-200.000	0.088	-0.418
-674.149	34.922	-0.289	0.255
-673.135	800.000	-0.008	-0.030
-672.120	702.220	-0.038	-0.102
-671.105	-200.000	-0.056	-0.256
-670.091	-10.291	-0.164	-0.109
-669.076	-200.000	-0.049	-0.353
-668.062	5.880	-0.220	-0.164
-667.047	-200.000	-0.013	0.078
-666.032	645.799	-0.140	0.361
-665.018	-52.996	-0.227	-0.105
-664.003	-27.523	0.267	0.156
-662.989	141.812	-0.117	0.156
-661.974	174.068	0.064	0.094
-660.959	9.898	-0.099	0.075
-659.945	-117.396	0.144	-0.026
-658.930	-3.222	0.088	-0.061
-657.916	-7.401	-0.132	-0.090
-656.901	-40.812	0.292	-0.152
-655.886	-200.000	-0.075	0.429
-654.872	-50.479	-0.125	-0.060
-653.857	42.070	0.293	-0.268
-652.843	94.669	0.103	0.118
-651.828	-41.972	0.095	-0.049
-650.814	-65.069	-0.191	-0.078
-649.799	227.321	-0.075	0.124
-648.784	80.860	-0.115	0.125
-647.770	-123.392	0.296	-0.047
-646.755	372.819	-0.061	0.125
-645.741	7.459	-0.195	0.147
-644.726	75.465	0.094	0.100
-643.711	-94.542	0.159	0.044
-642.697	-200.000	0.001	-0.087
-641.682	-103.209	-0.314	0.075
-640.668	-200.000	-0.037	-0.379
-639.653	-10.657	-0.131	-0.087
-638.638	-200.000	-0.009	0.323
-637.624	-185.859	-0.443	-0.007
-636.609	-12.879	0.375	0.246
-635.595	-120.763	0.168	0.029
-634.580	-200.000	0.093	0.414
-633.565	-96.598	-0.261	0.069
-632.551	18.683	0.204	-0.164
-631.536	34.436	-0.055	-0.049
-630.522	614.400	0.132	-0.332
-629.507	800.000	0.009	-0.030
-628.492	-61.775	-0.184	0.077
-627.478	94.370	0.115	0.131
-626.463	-146.953	0.069	-0.006
-625.449	-200.000	0.004	-0.144
-624.434	-60.459	0.195	0.083
-623.419	568.314	0.079	0.194
-622.405	-200.000	0.012	0.055
-621.390	305.046	0.076	-0.142
-620.376	112.449	-0.102	-0.124
-619.361	-126.023	-0.363	0.055
-618.346	333.863	-0.085	-0.166
-617.332	-199.345	-0.122	0.001
-616.317	-22.935	0.130	0.079
-615.303	23.391	-0.098	-0.081
-614.288	52.684	0.088	0.085
-613.273	141.021	-0.149	-0.198
-612.259	-200.000	-0.042	0.223
-611.244	17.922	-0.104	0.083
-610.230	-193.201	0.182	-0.002
-609.215	-162.773	-0.400	0.020
-608.201	-45.903	0.014	-0.007
-607.186	263.255	0.097	-0.169
-606.171	155.379	0.054	-0.075
-605.157	131.226	0.057	0.073
-604.142	206.790	0.029	0.045
-603.128	-44.582	0.387	-0.195
-602.113	-56.732	0.216	-0.096
-601.098	501.331	-0.050	-0.116
-600.084	-200.000	-0.034	-0.317
-599.069	505.360	-0.037	0.085
-598.055	192.538	0.045	-0.069
-597.040	800.000	0.015	-0.054
-596.025	-137.473	0.217	0.025
-595.011	159.215	0.174	0.243
-593.996	800.000	-0.025	-0.087
-592.982	800.000	0.014	0.061
-591.967	319.161	-0.130	-0.247
-590.952	-107.394	-0.065	0.014
-589.938	25.400	0.039	-0.033
-588.923	-72.711	-0.226	-0.084
-587.909	133.711	0.172	-0.224
-586.894	101.663	0.096	0.112
-585.879	-164.274	0.206	0.010
-584.865	-192.503	-0.323	0.003
-583.850	-112.664	0.158	0.032
-582.836	149.333	-0.033	-0.045
-581.821	-90.117	-0.267	0.078
-580.806	418.525	-0.097	0.209
-579.792	-12.243	0.199	0.131
-578.777	-153.170	0.069	-0.005
-577.763	-39.953	-0.154	0.081
-576.748	119.695	-0.128	-0.160
-575.733	42.529	-0.041	-0.037
-574.719	307.374	0.070	0.132
-573.704	355.542	0.072	-0.144
-572.690	-200.000	0.038	0.240
-571.675	60.943	0.013	0.012
-570.661	713.248	0.063	0.167
-569.646	-97.104	0.202	0.053
-568.631	313.020	-0.074	0.139
-567.617	-200.000	-0.013	-0.100
-566.602	-133.309	-0.060	0.008
-565.588	21.230	0.305	-0.248
-564.573	-107.830	-0.036	-0.008
-563.558	405.207	0.186	0.394
-562.544	-2.357	0.052	0.037
-561.529	-116.516	-0.252	0.047
-560.515	800.000	-0.015	-0.042
-559.500	251.709	-0.093	-0.159
-558.485	-200.000	-0.042	-0.653
-557.471	-70.285	-0.287	-0.109
-556.456	671.386	0.026	-0.067
-555.442	-146.999	0.453	0.039
-554.427	800.000	-0.032	0.142
-553.412	-67.866	-0.179	-0.070
-552.398	74.283	-0.060	-0.064
-551.383	-67.386	0.124	-0.049
-550.369	-4.900	-0.132	-0.091
-549.354	224.657	-0.053	0.087
-548.339	-141.727	0.213	-0.021
-547.325	-97.892	0.108	-0.028
-546.310	-148.221	-0.320	0.026
-545.296	-200.000	-0.020	-0.252
-544.281	263.628	0.108	0.188
-543.266	800.000	0.022	-0.087
-542.252	54.501	-0.143	0.138
-541.237	-29.445	-0.196	0.112
-540.223	101.809	-0.077	0.090
-539.208	-162.129	-0.505	0.025
-538.193	-45.496	-0.072	0.036
-537.179	-200.000	-0.009	-0.174
-536.164	-135.414	-0.095	0.011
-535.150	800.000	0.045	-0.163
-534.135	9.525	0.278	0.211
-533.121	-19.197	-0.210	-0.130
-532.106	-200.000	-0.012	-0.388
-531.091	54.715	-0.167	0.162
-530.077	-8.581	-0.180	-0.121
-529.062	-25.434	-0.090	0.053
-528.048	800.000	-0.080	-0.303
-527.033	281.823	0.040	-0.072
-526.018	-90.494	-0.368	0.107
-525.004	-28.455	-0.257	0.149
-523.989	-72.589	0.205	-0.076
-522.975	7.003	-0.250	-0.187
-521.960	384.653	-0.179	-0.370
-520.945	102.500	-0.129	-0.152
-519.931	-190.107	0.218	0.002
-518.916	-200.000	0.028	-0.252
-517.902	579.752	-0.022	-0.055
-516.887	-200.000	0.010	-0.100
-515.872	-17.446	-0.219	-0.138
-514.858	-180.630	0.073	0.002
-513.843	-45.985	0.469	0.232
-512.829	-148.307	0.110	-0.009
-511.814	-92.910	-0.243	-0.068
-510.799	-36.656	-0.305	-0.164
-509.785	90.609	-0.113	0.127
-508.770	800.000	0.011	0.049
-507.756	174.856	-0.053	0.076
-506.741	-34.515	0.184	0.101
-505.726	-4.910	0.240	-0.166
-504.712	564.831	-0.086	-0.209
-503.697	103.807	0.141	-0.166
-502.683	-49.473	-0.212	0.101
-501.668	3.386	-0.107	0.078
-500.653	14.143	0.180	0.140
-499.639	800.000	-0.034	-0.149
-498.624	-200.000	0.015	-0.077
-497.610	-81.583	-0.369	-0.121
-496.595	-50.497	-0.176	-0.083
-495.581	-115.659	0.267	-0.050
-494.566	301.392	0.116	0.214
-493.551	-17.418	0.239	0.150
-492.537	-200.000	-0.052	0.296
-491.522	-105.973	0.242	0.055
-490.508	196.534	-0.171	-0.261
-489.493	800.000	-0.032	0.116
-488.478	61.271	0.144	-0.143
-487.464	800.000	-0.117	0.453
-486.449	-200.000	-0.049	0.264
-485.435	800.000	-0.076	-0.286
-484.420	-112.612	0.155	0.031
-483.405	208.678	-0.127	-0.199
-482.391	-85.420	-0.111	0.034
-481.376	408.535	0.146	-0.309
-480.362	-96.032	-0.192	0.051
-479.347	37.836	0.185	0.165
-478.332	800.000	-0.072	-0.237
-477.318	800.000	0.125	-0.419
-476.303	-63.170	0.173	-0.071
-475.289	-152.927	0.069	-0.005
-474.274	-200.000	0.028	-0.199
-473.259	52.769	-0.260	-0.249
-472.245	-77.892	-0.139	-0.048
-471.230	325.969	0.096	-0.183
-470.216	-101.962	0.207	-0.050
-469.201	800.000	0.073	0.319
-468.186	17.232	0.064	-0.050
-467.172	-121.278	0.183	0.031
-466.157	24.938	-0.060	-0.049
-465.143	-158.622	-0.079	-0.005
-464.128	-200.000	-0.051	0.417
-463.113	454.526	-0.112	0.248
-462.099	-200.000	-0.113	0.510
-461.084	256.453	-0.140	-0.241
-460.070	38.330	0.145	0.129
-459.055	-200.000	0.002	0.060
-458.040	-200.000	0.082	0.445
-457.026	800.000	-0.033	-0.115
-456.011	-200.000	0.027	-0.327
-454.997	800.000	-0.085	0.278
-453.982	47.185	0.095	-0.088
-452.968	-102.532	-0.242	-0.058
-451.953	-9.959	0.190	0.126
-450.938	275.599	0.144	0.255
-449.924	-200.000	0.003	0.178
-448.909	211.307	0.143	-0.224
-447.895	68.264	-0.238	-0.244
-446.880	21.046	-0.294	0.238
-445.865	59.244	0.175	0.172
-444.851	-84.847	-0.401	0.126
-443.836	2.318	-0.188	0.136
-442.822	107.546	0.059	-0.070
-441.807	83.310	-0.209	-0.227
-440.792	-56.601	0.290	0.128
-439.778	795.373	-0.074	0.204
-438.763	37.484	-0.289	0.256
-437.749	-96.761	0.204	0.053
-436.734	163.072	0.132	-0.185
-435.719	-126.409	-0.240	0.036
-434.705	-186.680	-0.141	0.002
-433.690	-200.000	0.025	-0.222
-432.676	623.857	-0.067	0.169
-431.661	-200.000	0.016	0.087
-430.646	157.581	-0.073	-0.101
-429.632	354.703	0.113	0.224
-428.617	-180.682	-0.170	0.003
-427.603	-54.821	-0.206	-0.093
-426.588	3.522	0.387	0.282
-425.573	456.244	0.132	0.293
-424.559	-80.090	-0.157	-0.053
-423.544	350.048	-0.012	-0.023
-422.530	446.624	0.026	0.057
-421.515	385.341	0.087	-0.178
-420.500	800.000	-0.071	0.228
-419.486	6.904	0.151	0.112
-418.471	-109.712	0.094	0.020
-417.457	17.843	0.153	0.121
-416.442	-200.000	0.049	0.397
-415.428	-131.139	-0.307	0.041
-414.413	14.848	-0.350	-0.273
-413.398	-50.077	-0.185	0.088
-412.384	-112.510	-0.037	0.007
-411.369	-200.000	-0.015	-0.067
-410.355	800.000	0.189	0.535
-409.340	287.621	-0.077	-0.140
-408.325	16.676	0.202	-0.159
-407.311	45.276	-0.396	0.364
-406.296	130.320	0.232	-0.296
-405.282	47.805	0.299	-0.279
-404.267	397.465	0.100	-0.209
-403.252	-200.000	-0.013	-0.208
-402.238	800.000	0.014	0.042
-401.223	27.592	0.168	0.141
-400.209	800.000	-0.083	0.276
-399.194	20.511	-0.110	0.089
-398.179	20.079	0.143	-0.115
-397.165	360.466	-0.038	0.075
-396.150	-83.964	0.189	0.060
-395.136	800.000	-0.014	0.055
-394.121	-143.124	0.079	0.008
-393.106	800.000	0.034	-0.109
-392.092	123.935	0.303	0.380
-391.077	-200.000	0.007	0.194
-390.063	-200.000	0.026	0.298
-389.048	-95.934	0.203	0.054
-388.033	-76.235	0.565	-0.198
-387.019	253.573	-0.320	-0.545
-386.004	-200.000	-0.015	-0.123
-384.990	104.438	-0.143	0.168
-383.975	415.218	0.074	-0.157
-382.960	604.060	0.026	0.065
-381.946	-60.623	-0.142	0.060
-380.931	354.284	-0.146	0.289
-379.917	-157.824	0.099	0.006
-378.902	-200.000	-0.038	-0.242
-377.888	-200.000	-0.065	0.366
-376.873	-190.336	-0.601	0.007
-375.858	-75.265	-0.212	-0.075
-374.844	576.924	-0.110	0.267
-373.829	-16.439	-0.162	-0.102
-372.815	52.187	0.190	-0.181
-371.800	-114.721	-0.067	-0.013
-370.785	800.000	-0.073	0.273
-369.771	-200.000	-0.024	0.209
-368.756	176.349	0.179	0.259
-367.742	-133.990	-0.373	-0.046
-366.727	-46.179	0.247	-0.121
-365.712	177.895	0.107	-0.156
-364.698	-75.148	-0.548	-0.195
-363.683	-2.136	-0.247	0.173
-362.669	-78.569	-0.212	-0.072
-361.654	116.979	0.135	-0.165
-360.639	15.956	0.188	-0.147
-359.625	-200.000	-0.019	0.123
-358.610	-200.000	0.015	0.481
-357.596	-120.642	-0.287	0.048
-356.581	-200.000	-0.001	0.069
-355.566	-107.848	0.085	-0.019
-354.552	-53.616	0.141	-0.064
-353.537	-58.800	0.159	-0.068
-352.523	393.013	0.061	-0.126
-351.508	137.403	0.104	0.135
-350.493	-150.824	0.254	-0.019
-349.479	411.744	0.087	-0.185
-348.464	-194.120	-0.402	0.003
-347.450	595.760	-0.131	-0.322
-346.435	-53.346	0.151	0.069
-345.420	653.668	0.068	-0.173
-344.406	22.217	-0.108	0.088
-343.391	694.032	-0.103	-0.268
-342.377	599.680	-0.045	-0.112
-341.362	800.000	0.080	-0.338
-340.348	366.074	-0.101	-0.203
-339.333	-183.041	-0.039	-0.001
-338.318	-200.000	-0.080	-0.380
-337.304	-146.249	0.174	0.015
-336.289	-134.956	0.141	-0.017
-335.275	368.682	0.070	-0.140
-334.260	-41.192	-0.356	0.182
-333.245	336.899	-0.146	-0.283
-332.231	-76.360	0.174	0.061
-331.216	-166.084	0.111	-0.005
-330.202	-115.882	-0.256	0.048
-329.187	-200.000	-0.063	0.299
-328.172	-101.044	0.143	-0.035
-327.158	-200.000	-0.005	0.267
-326.143	800.000	0.091	0.282
-325.129	419.630	-0.089	0.189
-324.114	128.265	-0.130	0.164
-323.099	381.543	0.090	0.184
-322.085	579.147	0.032	-0.078
-321.070	252.192	0.013	-0.023
-320.056	-38.265	-0.333	0.176
-319.041	392.412	0.072	0.148
-318.026	-57.917	0.197	-0.086
-317.012	-127.707	0.311	-0.045
-315.997	-200.000	0.016	-0.293
-314.983	-120.484	-0.225	0.038
-313.968	251.089	-0.030	-0.050
-312.953	-35.517	0.143	-0.077
-311.939	95.581	0.102	-0.115
-310.924	145.878	0.070	-0.093
-309.910	-36.011	-0.236	-0.127
-308.895	-200.000	0.067	0.322
-307.880	179.112	0.087	-0.126
-306.866	-91.315	0.110	0.031
-305.851	-98.300	-0.322	-0.082
-304.837	-84.704	0.186	-0.058
-303.822	98.685	-0.126	0.144
-302.807	800.000	-0.026	-0.070
-301.793	417.698	-0.092	-0.196
-300.778	-200.000	-0.075	-0.462
-299.764	-200.000	-0.045	0.242
-298.749	-200.000	-0.033	0.366
-297.735	545.567	-0.032	-0.075
-296.720	59.004	0.131	-0.128
-295.705	-200.000	-0.006	-0.097
-294.691	528.493	0.052	0.122
-293.676	-40.596	0.235	0.121
-292.662	34.783	0.115	-0.099
-291.647	-200.000	-0.064	0.386
-290.632	-200.000	0.000	0.110
-289.618	61.859	0.168	0.166
-288.603	-113.054	-0.152	0.030
-287.589	-61.568	0.192	-0.080
-286.574	-70.833	0.216	0.081
-285.559	112.432	-0.035	-0.042
-284.545	-200.000	0.039	0.340
-283.530	-51.485	-0.029	0.014
-282.516	533.161	0.132	-0.309
-281.501	439.535	-0.107	-0.232
-280.486	171.070	-0.197	-0.281
-279.472	14.955	0.266	0.207
-278.457	-200.000	0.032	-0.300
-277.443	-113.862	0.311	-0.060
-276.428	-200.000	0.309	-0.001
-275.413	-200.000	-0.042	0.221
-274.399	-87.867	0.140	-0.042
-273.384	3.707	-0.199	-0.144
-272.370	-129.728	0.207	-0.028
-271.355	123.095	0.095	-0.117
-270.340	-200.000	0.020	0.244
-269.326	-134.152	0.238	0.029
-268.311	49.166	-0.169	-0.158
-267.297	-29.754	0.186	-0.105
-266.282	800.000	0.031	0.115
-265.267	410.929	0.108	-0.228
-264.253	97.336	0.110	0.125
-263.238	557.222	0.054	0.130
-262.224	-200.000	0.006	-0.172
-261.209	-56.711	-0.392	-0.172
-260.195	449.459	-0.086	0.189
-259.180	-96.342	0.175	-0.046
-258.165	800.000	-0.115	0.322
-257.151	-33.370	0.069	0.038
-256.136	-110.069	0.341	-0.071
-255.122	522.039	-0.151	0.352
-254.107	84.285	0.157	-0.170
-253.092	69.862	0.115	-0.118
-252.078	-200.000	0.005	-0.255
-251.063	-17.802	0.067	-0.042
-250.049	-96.841	-0.243	-0.063
-249.034	800.000	0.030	0.099
-248.019	79.188	-0.100	-0.106
-247.005	-200.000	0.002	0.701
-245.990	-29.311	0.232	-0.132
-244.976	216.824	0.288	-0.454
-243.961	-101.642	-0.320	0.077
-242.946	-148.757	-0.338	-0.027
-241.932	-200.000	-0.008	-0.062
-240.917	-200.000	-0.012	0.279
-239.903	132.410	-0.124	-0.159
-238.888	-200.000	-0.016	-0.226
-237.873	-0.814	0.035	0.024
-236.859	-75.456	-0.122	0.043
-235.844	-200.000	-0.011	0.217
-234.830	800.000	-0.055	-0.164
-233.815	-82.797	0.152	-0.049
-232.800	-200.000	0.026	-0.179
-231.786	95.077	-0.248	0.280
-230.771	55.001	0.314	-0.301
-229.757	-155.857	0.187	0.012
-228.742	-200.000	-0.028	-0.217
-227.727	373.369	0.180	-0.363
-226.713	-163.504	-0.155	0.007
-225.698	-74.606	0.150	0.053
-224.684	55.150	-0.185	0.177
-223.669	-8.726	-0.185	0.123
-222.655	38.708	0.141	-0.125
-221.640	-200.000	-0.007	-0.302
-220.625	274.426	0.053	-0.093
-219.611	800.000	0.066	-0.186
-218.596	436.758	-0.073	0.158
-217.582	63.681	0.252	0.250
-216.567	-125.184	0.385	0.058
-215.552	234.565	0.153	0.251
-214.538	146.344	-0.074	-0.098
-213.523	-31.557	-0.122	-0.068
-212.509	440.710	-0.054	0.118
-211.494	56.759	-0.349	-0.336
-210.479	-47.866	0.277	0.133
-209.465	53.275	0.218	0.207
-208.450	-66.221	0.130	-0.051
-207.436	-200.000	-0.029	-0.147
-206.421	-155.375	-0.410	0.026
-205.406	-166.935	-0.226	-0.009
-204.392	-200.000	-0.038	0.510
-203.377	-200.000	-0.004	-0.371
-202.363	115.165	-0.177	0.214
-201.348	-80.517	0.382	0.126
-200.333	-31.068	0.179	-0.100
-199.319	-88.974	0.201	0.059
-198.304	800.000	-0.107	0.349
-197.290	-200.000	0.034	0.174
-196.275	147.886	0.173	0.231
-195.260	111.595	0.020	-0.024
-194.246	-200.000	-0.039	-0.190
-193.231	-136.955	-0.053	0.006
-192.217	-112.522	0.593	-0.117
-191.202	-66.200	0.198	-0.078
-190.187	-112.618	-0.400	0.079
-189.173	-67.102	-0.423	-0.165
-188.158	-200.000	0.014	0.165
-187.144	-36.526	0.263	0.140
-186.129	-87.222	-0.122	-0.037
-185.114	-49.636	0.334	0.157
-184.100	326.114	0.081	0.154
-183.085	-56.713	-0.154	0.067
-182.071	-200.000	-0.013	-0.081
-181.056	104.584	0.067	0.078
-180.042	800.000	-0.048	0.194
-179.027	415.096	0.035	0.074
-178.012	-40.874	0.183	-0.094
-176.998	-136.875	-0.149	-0.017
-175.983	112.063	-0.184	-0.219
-174.969	-27.018	0.315	-0.181
-173.954	302.617	-0.165	-0.301
-172.939	541.717	0.049	-0.117
-171.925	376.897	0.113	-0.228
-170.910	-200.000	-0.005	0.184
-169.896	126.975	0.161	0.202
-168.881	-200.000	-0.006	0.047
-167.866	18.842	0.109	-0.086
-166.852	223.822	0.090	-0.143
-165.837	49.993	0.341	-0.318
-164.823	800.000	-0.052	0.204
-163.808	101.491	0.220	0.253
-162.793	133.900	-0.121	0.155
-161.779	764.519	-0.046	-0.123
-160.764	800.000	0.078	-0.235
-159.750	221.881	0.060	-0.095
-158.735	-200.000	-0.016	-0.085
-157.720	-200.000	-0.046	-0.281
-156.706	-27.132	-0.242	-0.140
-155.691	-40.319	0.225	-0.116
-154.677	-132.601	-0.298	0.038
-153.662	-200.000	0.025	-0.151
-152.647	-200.000	-0.074	0.447
-151.633	28.692	-0.215	0.180
-150.618	-164.032	0.225	0.010
-149.604	-43.433	-0.385	-0.192
-148.589	-17.069	0.230	-0.143
-147.574	160.794	0.244	0.336
-146.560	-82.994	-0.118	-0.038
-145.545	-179.751	0.368	-0.008
-144.531	65.912	-0.210	0.210
-143.516	-57.503	-0.153	0.066
-142.502	-131.754	-0.158	-0.020
-141.487	688.520	-0.075	0.194
-140.472	-29.129	-0.133	-0.075
-139.458	-51.552	-0.384	-0.177
-138.443	-56.091	0.136	-0.060
-137.429	115.820	-0.033	0.040
-136.414	-200.000	0.009	0.048
-135.399	-74.096	0.285	-0.102
-134.385	-200.000	0.037	0.246
-133.370	59.082	0.048	0.046
-132.356	-155.110	-0.163	-0.010
-131.341	170.891	-0.136	-0.192
-130.326	-200.000	-0.018	-0.176
-129.312	-109.549	-0.091	0.019
-128.297	81.599	0.098	0.104
-127.283	35.428	0.174	-0.151
-126.268	81.409	0.148	0.158
-125.253	18.757	-0.163	0.129
-124.239	31.643	-0.146	-0.124
-123.224	379.202	0.141	-0.286
-122.210	-200.000	0.028	-0.137
-121.195	197.953	-0.093	-0.140
-120.180	-97.875	-0.358	-0.091
-119.166	-67.180	0.073	0.028
-118.151	-200.000	-0.001	0.073
-117.137	42.920	0.182	-0.163
-116.122	93.101	-0.108	0.121
-115.107	-200.000	-0.013	0.452
-114.093	-131.569	-0.265	0.034
-113.078	-4.624	0.084	-0.057
-112.064	241.743	0.023	-0.038
-111.049	-149.509	0.099	-0.008
-110.034	-200.000	0.011	-0.109
-109.020	-200.000	0.023	0.110
-108.005	6.377	-0.355	-0.260
-106.991	800.000	0.067	0.253
-105.976	800.000	-0.041	0.123
-104.962	-143.416	-0.183	-0.017
-103.947	-73.230	0.255	-0.092
-102.932	21.497	0.295	-0.236
-101.918	18.068	-0.177	0.139
-100.903	-200.000	-0.012	-0.054
-99.889	-144.246	0.274	0.025
-98.874	-53.130	-0.138	-0.062
-97.859	31.985	-0.167	-0.142
-96.845	60.874	-0.162	-0.158
-95.830	122.324	0.195	0.240
-94.816	-67.032	0.109	0.042
-93.801	-67.514	-0.168	0.065
-92.786	800.000	-0.074	0.308
-91.772	88.815	-0.269	0.294
-90.757	-27.591	0.289	0.165
-89.743	-128.742	-0.261	0.036
-88.728	-16.456	-0.226	-0.141
-87.713	-193.050	0.158	0.001
-86.699	639.681	-0.007	0.018
-85.684	17.601	0.201	0.157
-84.670	-125.785	0.337	0.050
-83.655	400.412	0.138	0.285
-82.640	56.732	0.203	0.195
-81.626	333.117	0.022	-0.043
-80.611	603.404	-0.060	-0.148
-79.597	-41.629	0.313	-0.159
-78.582	-200.000	-0.002	0.365
-77.567	-121.407	0.155	0.025
-76.553	-58.565	-0.280	-0.120
-75.538	619.772	0.012	0.029
-74.524	173.727	0.188	0.268
-73.509	-186.085	-0.240	0.003
-72.494	-137.598	-0.390	-0.043
-71.480	-115.420	0.313	-0.058
-70.465	-200.000	-0.015	0.115
-69.451	-40.121	-0.271	0.139
-68.436	-200.000	0.048	-0.322
-67.422	-39.439	0.300	0.155
-66.407	-200.000	0.011	0.214
-65.392	-200.000	0.012	-0.228
-64.378	446.377	-0.154	0.334
-63.363	52.763	0.302	-0.284
-62.349	800.000	-0.031	-0.126
-61.334	87.379	-0.918	-0.999
-60.319	292.559	0.490	0.879
-59.305	567.906	-0.444	-1.062
-58.290	549.136	0.369	0.871
-57.276	800.000	0.512	1.835
-56.261	-200.000	95.945	596.064
-55.246	650.301	1372.468	3456.695
-54.232	199.110	2549.225	3842.309
-53.217	120.711	2139.081	2615.536
-52.203	43.967	1600.726	1442.834
-51.188	35.359	1338.634	1155.002
-50.173	32.239	1296.675	1100.523
-49.159	54.975	1343.872	1276.454
-48.144	56.989	1360.945	1304.599
-47.130	35.490	1319.937	1139.470
-46.115	32.017	1302.047	1103.599
-45.100	31.792	1297.211	1098.141
-44.086	31.765	1294.336	1095.506
-43.071	31.685	1292.588	1093.513
-42.057	31.768	1290.012	1091.773
-41.042	31.623	1288.764	1089.833
-40.027	31.721	1287.275	1089.102
-39.013	31.717	1285.174	1087.256
-37.998	31.790	1283.261	1086.019
-36.984	31.821	1281.686	1084.822
-35.969	31.777	1280.133	1083.210
-34.954	31.837	1278.110	1081.801
-33.940	31.778	1276.753	1080.269
-32.925	31.845	1275.885	1079.879
-31.911	31.886	1274.020	1078.494
-30.896	31.804	1272.897	1077.028
-29.881	31.961	1271.094	1076.360
-28.867	31.937	1269.759	1075.049
-27.852	32.033	1268.288	1074.310
-26.838	32.021	1267.055	1073.157
-25.823	31.999	1265.544	1071.707
-24.809	31.890	1264.372	1070.048
-23.794	32.101	1263.194	1070.211
-22.779	31.980	1261.665	1068.186
-21.765	31.945	1260.328	1066.814
-20.750	31.847	1259.159	1065.227
-19.736	31.746	1258.285	1063.867
-18.721	31.747	1256.836	1062.606
-17.706	31.789	1255.561	1061.726
-16.692	31.797	1254.466	1060.804
-15.677	31.702	1253.491	1059.396
-14.663	31.673	1252.512	1058.365
-13.648	31.771	1251.355	1057.898
-12.633	31.756	1250.267	1056.851
-11.619	31.704	1249.510	1055.878
-10.604	31.668	1249.094	1055.283
-9.590	31.698	1247.467	1054.034
-8.575	31.722	1246.693	1053.471
-7.560	31.708	1245.848	1052.639
-6.546	31.675	1244.964	1051.663
-5.531	31.718	1244.112	1051.142
-4.517	31.720	1243.179	1050.326
-3.502	31.682	1242.221	1049.264
-2.487	31.709	1241.551	1048.807
-1.473	31.697	1237.484	1045.262
-0.458	30.309	1222.457	1024.868
0.556	25.443	1205.454	987.498
1.571	21.732	1210.966	971.396
2.586	20.929	1225.765	978.672
3.600	20.350	1214.629	966.468
4.615	15.433	1144.276	884.559
5.629	7.856	1071.010	790.343
6.644	4.727	1051.944	760.923
7.659	4.431	1049.659	757.758
8.673	4.402	1048.591	756.780
9.688	4.500	1047.071	756.092
10.702	4.546	1044.819	754.624
11.717	8.625	1051.534	779.307
12.731	15.786	1060.856	821.217
13.746	18.636	1063.623	837.210
14.761	17.978	1061.854	832.541
15.775	16.756	1060.182	825.202
16.790	15.845	1057.647	818.728
17.804	15.062	1056.588	814.032
18.819	14.724	1055.687	811.623
19.834	14.362	1055.203	809.418
20.848	14.182	1054.064	807.601
21.863	14.081	1052.676	805.977
22.877	13.913	1052.478	804.939
23.892	13.777	1051.847	803.728
24.907	13.925	1050.837	803.602
25.921	13.880	1050.161	802.796
26.936	13.918	1048.316	801.497
27.950	14.018	1046.773	800.728
28.965	14.107	1045.373	800.013
29.980	14.108	1044.254	799.093
30.994	14.160	1043.161	798.435
32.009	14.137	1042.084	797.429
33.023	14.219	1041.118	797.010
34.038	14.208	1039.744	795.837
35.053	14.111	1038.767	794.557
36.067	14.130	1038.002	793.993
37.082	14.054	1037.634	793.275
38.096	14.081	1037.152	792.964
39.111	14.123	1035.970	792.191
40.126	14.039	1034.808	790.836
41.140	13.836	1033.534	788.827
42.155	13.772	1032.250	787.472
43.169	13.813	1031.278	786.855
44.184	13.663	1030.366	785.378
45.199	13.759	1029.390	785.019
46.213	13.861	1028.010	784.380
47.228	14.062	1026.896	784.407
48.242	14.007	1026.152	783.513
49.257	13.978	1025.165	782.552
50.271	13.928	1024.433	781.691
51.286	14.043	1023.396	781.371
52.301	14.082	1022.188	780.563
53.315	13.947	1021.269	779.159
54.330	13.965	1020.513	778.594
55.344	13.914	1019.774	777.724
56.359	14.035	1018.628	777.347
57.374	13.728	1018.009	775.372
58.388	13.760	1017.104	774.764
59.403	13.779	1016.126	774.038
60.417	13.702	1015.917	773.450
61.432	13.777	1014.446	772.613
62.447	13.562	1014.081	771.264
63.461	13.632	1013.016	770.712
64.476	13.668	1012.165	770.166
65.490	13.703	1011.371	769.653
66.505	13.813	1010.584	769.498
67.520	13.747	1010.227	768.852
68.534	13.723	1009.274	767.945
69.549	13.629	1008.800	767.086
70.563	13.757	1007.806	766.852
71.578	13.521	1007.198	765.232
72.593	13.548	1006.301	764.606
73.607	13.515	1005.677	763.911
74.622	13.538	1005.046	763.472
75.636	13.640	1004.149	763.193
76.651	13.561	1003.936	762.599
77.666	13.638	1003.170	762.302
78.680	13.728	1002.520	762.155
79.695	13.755	1001.508	761.443
80.709	13.707	1001.327	761.020
81.724	13.738	1000.675	760.596
82.739	13.911	999.671	760.559
83.753	13.985	999.287	760.536
84.768	13.989	998.197	759.661
85.782	14.099	997.278	759.398
86.797	14.116	996.537	758.843
87.812	13.978	995.947	757.698
88.826	14.001	994.565	756.682
89.841	14.110	993.309	756.156
90.855	14.180	992.451	755.753
91.870	14.137	991.766	754.971
92.884	14.206	990.845	754.515
93.899	14.177	990.271	753.880
94.914	14.154	989.558	753.165
95.928	14.198	988.655	752.612
96.943	14.098	987.905	751.524
97.957	14.109	987.063	750.866
98.972	14.113	986.097	750.081
99.987	14.155	985.506	749.753
101.001	14.085	984.356	748.497
102.016	14.118	983.417	747.865
103.030	14.082	983.049	747.359
104.045	14.002	982.210	746.295
105.060	14.100	981.269	745.956
106.074	13.872	980.089	743.970
107.089	13.927	978.981	743.307
108.103	13.845	978.440	742.465
109.118	13.788	977.325	741.300
110.133	13.776	976.742	740.735
111.147	13.835	975.739	740.176
112.162	13.674	975.104	738.911
113.176	13.858	974.086	738.893
114.191	13.855	973.590	738.437
115.206	14.002	972.507	738.203
116.220	14.037	971.297	737.374
117.235	13.926	970.964	736.565
118.249	13.794	970.312	735.419
119.264	13.864	969.421	734.989
120.279	13.754	968.771	733.944
121.293	13.730	967.901	733.116
122.308	13.722	966.977	732.316
123.322	13.671	965.961	731.253
124.337	13.675	965.089	730.550
125.352	13.857	964.068	730.514
126.366	13.849	962.618	729.312
127.381	13.818	961.822	728.509
128.395	13.757	961.023	727.574
129.410	13.835	959.973	727.054
130.424	13.885	959.558	726.896
131.439	13.974	958.573	726.473
132.454	13.991	957.960	726.021
133.468	14.011	956.800	725.164
134.483	13.960	956.124	724.367
135.497	13.973	955.326	723.752
136.512	14.031	954.379	723.223
137.527	13.961	953.593	722.261
138.541	14.117	952.653	722.161
139.556	13.994	952.444	721.404
140.570	14.178	951.843	721.682
141.585	14.156	950.626	720.600
142.600	14.210	949.979	720.282
143.614	14.255	948.710	719.452
144.629	14.312	948.363	719.370
145.643	14.168	947.427	717.974
146.658	14.127	946.164	716.776
147.673	14.134	945.217	716.029
148.687	13.967	944.565	714.751
149.702	13.932	943.830	713.983
150.716	13.974	942.943	713.428
151.731	14.036	942.212	713.077
152.746	14.090	941.384	712.620
153.760	14.069	940.596	711.872
154.775	14.059	940.162	711.434
155.789	14.238	939.634	711.737
156.804	14.144	938.994	710.787
157.819	14.313	938.328	710.942
158.833	14.317	937.393	710.188
159.848	14.291	936.934	709.667
160.862	14.374	935.642	708.978
161.877	14.104	935.127	707.377
162.892	14.109	933.811	706.342
163.906	14.125	932.855	705.625
164.921	14.097	932.348	705.058
165.935	14.210	931.116	704.545
166.950	14.300	930.046	704.053
167.964	14.173	929.808	703.273
168.979	14.173	929.224	702.769
169.994	14.089	927.974	701.407
171.008	14.122	927.706	701.281
172.023	14.235	926.533	700.809
173.037	14.334	926.116	700.849
174.052	14.310	925.293	700.063
175.067	14.192	924.686	699.044
176.081	14.160	924.067	698.381
177.096	14.139	923.519	697.815
178.110	14.219	923.250	697.889
179.125	14.268	922.332	697.335
180.140	14.236	921.908	696.822
181.154	14.344	921.303	696.753
182.169	14.442	920.566	696.542
183.183	14.407	920.389	696.202
184.198	14.392	919.349	695.293
185.213	14.393	918.606	694.673
186.227	14.572	917.787	694.735
187.242	14.547	917.321	694.219
188.256	14.485	916.706	693.434
189.271	14.515	916.068	693.013
190.286	14.290	915.569	691.641
191.300	14.267	914.316	690.540
192.315	14.207	913.448	689.573
193.329	14.201	913.113	689.233
194.344	14.317	912.388	689.104
195.359	14.420	911.673	688.930
196.373	14.564	911.238	689.136
197.388	14.478	911.246	688.727
198.402	14.747	910.502	689.212
199.417	14.720	909.929	688.607
200.432	14.783	909.302	688.330
201.446	14.809	909.468	688.502
202.461	14.896	908.345	687.951
203.475	14.824	907.605	687.032
204.490	14.672	907.038	685.918
205.504	14.668	906.442	685.388
206.519	14.690	905.858	684.979
207.534	14.618	904.968	683.949
208.548	14.674	904.443	683.723
209.563	14.723	903.663	683.271
210.577	14.852	902.780	683.073
211.592	14.839	902.639	682.849
212.607	14.845	901.635	682.055
213.621	14.617	901.259	680.780
214.636	14.753	900.196	680.471
215.650	14.846	899.567	680.312
216.665	14.956	898.745	680.079
217.680	15.061	898.115	679.968
218.694	15.072	897.759	679.682
219.709	15.003	897.151	678.882
220.723	14.962	896.338	678.043
221.738	14.941	895.784	677.478
222.753	14.998	894.966	677.029
223.767	15.130	894.105	676.854
224.782	15.184	893.812	676.789
225.796	15.166	893.662	676.543
226.811	15.080	892.902	675.558
227.826	14.979	891.881	674.321
228.840	14.965	891.460	673.885
229.855	15.031	890.320	673.231
230.869	15.044	889.622	672.693
231.884	15.066	888.740	672.059
232.899	14.913	888.253	671.015
233.913	14.913	887.682	670.524
234.928	14.808	887.251	669.721
235.942	14.931	886.568	669.639
236.957	14.995	886.319	669.646
237.972	14.912	885.654	668.753
238.986	15.040	884.794	668.555
240.001	14.964	884.333	667.845
241.015	15.042	883.409	667.397
242.030	15.009	883.291	667.121
243.045	15.151	882.685	667.168
244.059	15.235	881.667	666.675
245.074	15.146	881.387	666.049
246.088	15.231	880.607	665.739
247.103	15.264	880.002	665.353
248.117	15.263	879.800	665.137
249.132	15.386	879.153	665.077
250.147	15.497	878.786	665.182
251.161	15.518	877.631	664.331
252.176	15.470	877.260	663.800
253.190	15.514	876.633	663.441
254.205	15.575	875.840	663.024
255.220	15.686	875.050	662.805
256.234	15.755	874.311	662.460
257.249	15.710	873.739	661.789
258.263	15.591	873.365	660.980
259.278	15.743	872.581	660.923
260.293	15.634	872.034	660.022
261.307	15.732	871.532	659.969
262.322	15.718	871.022	659.469
263.336	15.846	870.109	659.221
264.351	15.890	869.009	658.502
265.366	15.879	868.883	658.306
266.380	15.767	868.322	657.386
267.395	15.726	867.405	656.472
268.409	15.770	866.535	655.927
269.424	15.746	866.110	655.454
270.439	15.767	865.427	654.959
271.453	15.729	864.717	654.218
272.468	15.707	864.251	653.723
273.482	15.814	863.614	653.599
274.497	15.846	862.898	653.124
275.512	15.770	862.465	652.440
276.526	15.815	861.798	652.053
277.541	15.898	861.321	651.955
278.555	15.949	860.713	651.637
279.570	16.070	860.282	651.721
280.585	16.157	859.441	651.360
281.599	16.138	858.280	650.351
282.614	15.913	858.204	649.366
283.628	15.968	857.443	648.945
284.643	15.867	856.929	648.111
285.657	15.965	856.408	648.038
286.672	15.974	855.596	647.399
287.687	16.128	854.780	647.314
288.701	16.073	854.282	646.672
289.716	16.044	853.814	646.149
290.730	15.955	853.495	645.509
291.745	15.874	853.218	644.932
292.760	16.094	852.348	645.060
293.774	16.150	851.822	644.818
294.789	16.078	851.116	643.951
295.803	16.319	850.023	643.986
296.818	16.070	849.416	642.521
297.833	16.072	848.658	641.899
298.847	16.199	848.519	642.221
299.862	16.221	847.683	641.615
300.876	16.231	847.472	641.434
301.891	16.382	846.569	641.267
302.906	16.318	846.743	641.098
303.920	16.372	845.844	640.568
304.935	16.299	845.560	640.017
305.949	16.541	844.531	640.098
306.964	16.273	843.996	638.623
307.979	16.330	843.633	638.508
308.993	16.520	842.701	638.463
310.008	16.512	842.375	638.129
311.022	16.333	841.903	637.040
312.037	16.435	841.097	636.758
313.052	16.376	840.624	636.122
314.066	16.267	839.880	635.093
315.081	16.433	839.034	635.020
316.095	16.187	838.669	633.764
317.110	16.296	838.520	634.005
318.125	16.230	838.133	633.408
319.139	16.268	837.503	633.018
320.154	16.467	836.575	633.006
321.168	16.441	836.487	632.785
322.183	16.301	835.965	631.812
323.197	16.414	835.105	631.530
324.212	16.314	834.486	630.630
325.227	16.380	834.095	630.526
326.241	16.417	833.590	630.227
327.256	16.404	832.872	629.579
328.270	16.477	832.626	629.611
329.285	16.454	831.804	628.846
330.300	16.382	831.059	627.960
331.314	16.432	830.741	627.850
332.329	16.394	830.615	627.558
333.343	16.560	830.253	627.844
334.358	16.521	829.664	627.199
335.373	16.456	829.324	626.645
336.387	16.613	828.777	626.760
337.402	16.697	828.603	626.883
338.416	16.840	828.440	627.234
339.431	16.841	828.063	626.896
340.446	16.860	827.565	626.536
341.460	16.943	827.097	626.432
342.475	16.979	826.177	625.813
343.489	16.943	826.124	625.583
344.504	16.972	825.947	625.501
345.519	16.846	825.579	624.703
346.533	16.915	824.742	624.266
347.548	16.945	823.847	623.647
348.562	17.038	823.260	623.487
349.577	16.804	822.884	622.287
350.592	16.767	822.295	621.654
351.606	16.858	821.538	621.357
352.621	16.735	821.066	620.498
353.635	16.889	820.448	620.538
354.650	16.900	819.702	619.958
355.665	16.878	818.982	619.279
356.679	16.965	818.591	619.246
357.694	16.964	817.900	618.664
358.708	16.959	817.206	618.066
359.723	17.000	816.831	617.877
360.738	17.043	816.144	617.461
361.752	17.080	815.726	617.223
362.767	17.119	815.062	616.810
363.781	17.222	814.567	616.753
364.796	17.275	814.376	616.745
365.810	17.411	813.951	616.862
366.825	17.229	813.684	615.946
367.840	17.283	813.058	615.614
368.854	17.355	812.335	615.274
369.869	17.242	812.089	614.622
370.883	17.125	812.047	614.115
371.898	17.283	811.801	614.444
372.913	17.509	811.009	614.606
373.927	17.238	810.812	613.426
374.942	17.437	809.909	613.405
375.956	17.323	809.853	612.898
376.971	17.482	809.110	612.855
377.986	17.466	808.740	612.460
379.000	17.649	807.825	612.373
380.015	17.613	807.658	612.061
381.029	17.639	807.090	611.670
382.044	17.610	806.332	610.939
383.059	17.574	805.693	610.272
384.073	17.587	805.295	609.961
385.088	17.403	804.854	608.914
386.102	17.437	804.313	608.573
387.117	17.429	804.180	608.391
388.132	17.446	803.238	607.684
389.146	17.488	802.948	607.560
390.161	17.593	802.360	607.437
391.175	17.660	801.880	607.259
392.190	17.484	801.547	606.325
393.205	17.427	801.268	605.859
394.219	17.554	800.556	605.719
395.234	17.583	799.609	605.052
396.248	17.411	799.746	604.491
397.263	17.405	799.489	604.222
398.278	17.449	798.964	603.928
399.292	17.324	798.768	603.280
400.307	17.451	798.147	603.208
401.321	17.502	797.576	602.904
402.336	17.534	797.110	602.614
403.350	17.553	796.643	602.273
404.365	17.684	796.094	602.267
405.380	17.960	795.527	602.761
406.394	17.889	794.981	602.044
407.409	17.764	794.778	601.395
408.423	17.890	794.395	601.495
409.438	17.788	794.133	600.884
410.453	18.020	793.688	601.311
411.467	17.915	793.277	600.577
412.482	18.065	792.764	600.664
413.496	18.083	792.584	600.538
414.511	18.179	791.999	600.377
415.526	18.111	791.890	600.005
416.540	17.992	791.374	599.142
417.555	18.065	790.800	598.909
418.569	18.098	790.214	598.528
419.584	18.066	789.762	598.023
420.599	18.118	789.441	597.906
421.613	156.001	1371.131	1795.043
422.628	134.891	1455.860	1795.138
