DTS Sentinel unit serial number:	SN413079Multiplexer serial number:	ORYXHardware model number:	OX4-SRSoftware version number:	ORYX F/W v4.00 Oryx Data Collector v3.7.2.0data status	okinstallation	princeton_trtdifferential loss correction	single-endedforward channel	channel 1reverse channel	N/Adate	2019/09/17time	19:50:35forward acquisition time	60.00reverse acquisition time	0.00gamma	496.2192k internal	0.2319k external	0.2319temperature offset calibration	0.9974default loss term (dB/km)	0.3790temperature slope calibration	1.0000multiplexer offset coefficient	1.0000multiplexer slope coefficient	1.0000fibre end	0.00T internal ref (°C)	34.30T ext. ref 1 (°C)	0.24T ext. ref 2 (°C)	23.62length (m)	temperature (°C)	Stokes	anti-Stokes-747.200	198.709	-0.087	-0.134
-746.185	-200.000	0.004	0.201
-745.171	-200.000	-0.038	-0.219
-744.156	44.346	-0.132	0.122
-743.142	13.247	-0.103	0.081
-742.127	135.405	0.030	-0.040
-741.112	-133.287	0.234	-0.030
-740.098	116.359	0.119	0.148
-739.083	-87.884	0.204	-0.062
-738.069	61.866	-0.172	0.173
-737.054	4.677	0.148	-0.110
-736.039	166.917	-0.035	0.051
-735.025	-98.678	0.233	-0.060
-734.010	-79.610	-0.469	-0.160
-732.996	-40.543	-0.193	0.102
-731.981	2.370	-0.284	-0.208
-730.966	228.300	-0.158	-0.260
-729.952	-200.000	0.010	0.062
-728.937	423.589	-0.182	-0.395
-727.923	-17.359	-0.158	0.101
-726.908	280.201	0.080	-0.144
-725.894	343.376	0.101	-0.199
-724.879	-200.000	0.031	0.258
-723.864	187.635	-0.050	0.075
-722.850	-200.000	0.007	0.165
-721.835	-55.187	-0.278	-0.126
-720.821	168.712	0.015	0.021
-719.806	34.668	-0.182	0.161
-718.791	124.015	-0.119	-0.151
-717.777	-200.000	-0.079	-0.356
-716.762	-66.374	0.152	-0.061
-715.748	800.000	0.049	-0.205
-714.733	-200.000	-0.032	-0.323
-713.718	689.625	-0.037	-0.098
-712.704	-134.309	-0.299	0.037
-711.689	-98.367	0.223	-0.058
-710.675	-86.710	-0.159	0.049
-709.660	270.017	0.075	-0.134
-708.645	800.000	0.102	0.414
-707.631	235.826	-0.057	-0.095
-706.616	-99.083	0.210	-0.054
-705.602	-148.195	0.086	0.007
-704.587	-75.588	0.211	-0.076
-703.572	-200.000	-0.024	0.117
-702.558	6.447	-0.109	0.082
-701.543	219.916	-0.056	0.090
-700.529	800.000	-0.045	-0.186
-699.514	208.500	-0.085	-0.134
-698.499	-125.373	0.352	0.054
-697.485	180.269	-0.100	-0.148
-696.470	-50.131	-0.163	-0.078
-695.456	-200.000	-0.049	-0.442
-694.441	-111.845	-0.147	-0.030
-693.426	19.522	-0.043	-0.035
-692.412	674.156	-0.070	-0.183
-691.397	-200.000	0.001	-0.229
-690.383	-41.577	-0.263	-0.136
-689.368	800.000	0.132	-0.407
-688.354	-200.000	-0.034	-0.224
-687.339	800.000	0.092	-0.336
-686.324	3.045	0.062	-0.046
-685.310	27.710	-0.177	0.151
-684.295	501.298	-0.174	-0.405
-683.281	-66.967	0.051	0.020
-682.266	-77.044	-0.385	0.136
-681.251	58.046	-0.091	0.090
-680.237	800.000	0.042	0.148
-679.222	-105.820	0.075	0.017
-678.208	-179.866	-0.231	0.005
-677.193	-115.144	-0.070	-0.013
-676.178	-53.396	-0.225	0.104
-675.164	-44.336	0.177	0.089
-674.149	88.863	-0.248	-0.279
-673.135	-65.382	-0.029	-0.012
-672.120	-53.381	0.148	0.068
-671.105	-186.103	-0.257	0.004
-670.091	-200.000	0.071	-0.338
-669.076	129.980	-0.206	-0.266
-668.062	-83.794	0.402	0.129
-667.047	800.000	-0.039	-0.142
-666.032	44.785	-0.251	0.233
-665.018	-23.255	0.104	-0.063
-664.003	-43.325	0.206	0.105
-662.989	34.805	-0.182	-0.160
-661.974	30.161	0.252	-0.217
-660.959	62.679	-0.030	-0.031
-659.945	24.070	-0.265	0.221
-658.930	98.873	0.205	-0.238
-657.916	-200.000	-0.042	-0.218
-656.901	-42.614	-0.118	-0.060
-655.886	51.977	0.119	-0.115
-654.872	800.000	-0.065	-0.210
-653.857	-123.278	0.077	-0.012
-652.843	49.500	0.235	-0.223
-651.828	-92.781	0.168	-0.047
-650.814	-77.690	0.085	0.030
-649.799	375.599	-0.143	-0.293
-648.784	472.486	0.058	-0.132
-647.770	53.137	-0.293	0.283
-646.755	-90.891	0.060	-0.017
-645.741	233.171	-0.083	-0.138
-644.726	800.000	-0.065	-0.196
-643.711	800.000	0.009	0.035
-642.697	-200.000	-0.000	-0.062
-641.682	-131.314	-0.389	0.052
-640.668	-112.801	0.238	0.048
-639.653	-25.537	0.146	-0.087
-638.638	54.542	0.034	0.033
-637.624	-200.000	-0.011	0.151
-636.609	144.647	0.142	-0.191
-635.595	-200.000	-0.006	-0.092
-634.580	603.437	-0.106	0.266
-633.565	-200.000	-0.003	-0.249
-632.551	-200.000	0.037	-0.306
-631.536	323.816	0.017	0.034
-630.522	-84.017	-0.287	-0.092
-629.507	-18.694	0.061	-0.038
-628.492	-152.507	-0.270	-0.020
-627.478	17.242	0.052	-0.042
-626.463	177.574	0.129	0.189
-625.449	-200.000	0.031	-0.187
-624.434	122.867	-0.169	0.213
-623.419	123.624	-0.069	-0.087
-622.405	19.726	0.228	0.185
-621.390	800.000	-0.036	0.109
-620.376	-38.261	0.062	0.033
-619.361	352.182	0.129	-0.257
-618.346	800.000	0.026	0.110
-617.332	73.493	0.130	0.137
-616.317	29.662	-0.254	-0.218
-615.303	-158.064	0.142	0.008
-614.288	-200.000	-0.026	0.156
-613.273	7.091	-0.093	0.070
-612.259	800.000	-0.138	0.409
-611.244	800.000	0.041	-0.135
-610.230	68.957	-0.078	0.081
-609.215	-95.057	-0.257	0.070
-608.201	-58.125	0.365	0.160
-607.186	-200.000	0.010	0.263
-606.171	-57.707	0.237	-0.104
-605.157	-13.873	-0.262	0.170
-604.142	10.936	0.074	-0.057
-603.128	-90.022	0.115	0.034
-602.113	800.000	0.066	0.224
-601.098	-200.000	-0.027	0.338
-600.084	-113.001	-0.180	0.036
-599.069	-72.465	-0.205	0.076
-598.055	800.000	-0.049	0.185
-597.040	93.914	0.085	0.097
-596.025	-200.000	-0.007	0.082
-595.011	-200.000	-0.047	-0.230
-593.996	28.552	0.352	0.300
-592.982	241.322	-0.049	0.082
-591.967	674.519	-0.082	0.214
-590.952	-126.306	-0.090	-0.014
-589.938	800.000	-0.036	-0.112
-588.923	800.000	-0.071	-0.197
-587.909	-37.877	-0.231	0.123
-586.894	-94.922	-0.090	-0.025
-585.879	-200.000	-0.061	-0.395
-584.865	-71.945	-0.110	0.041
-583.850	45.127	-0.092	-0.085
-582.836	-200.000	-0.020	0.160
-581.821	708.429	-0.039	-0.103
-580.806	472.593	-0.037	-0.083
-579.792	647.209	0.132	-0.340
-578.777	40.375	0.150	-0.135
-577.763	82.369	0.066	-0.072
-576.748	673.691	0.016	0.042
-575.733	-76.536	-0.164	0.058
-574.719	-26.458	-0.171	0.101
-573.704	-130.315	-0.460	0.063
-572.690	-56.964	-0.108	-0.048
-571.675	131.498	-0.114	-0.147
-570.661	-155.377	-0.117	-0.008
-569.646	78.999	-0.060	0.065
-568.631	-200.000	0.069	0.332
-567.617	-200.000	0.026	-0.260
-566.602	-27.510	-0.183	-0.107
-565.588	28.298	-0.147	-0.124
-564.573	73.574	-0.128	-0.134
-563.558	-200.000	0.021	-0.119
-562.544	800.000	0.027	-0.114
-561.529	-89.820	-0.242	-0.071
-560.515	186.055	-0.276	0.412
-559.500	-66.690	0.230	0.091
-558.485	30.258	-0.222	0.190
-557.471	424.180	-0.116	0.251
-556.456	-92.372	-0.377	0.106
-555.442	253.156	0.130	-0.223
-554.427	-84.946	-0.200	0.063
-553.412	-45.100	-0.193	0.096
-552.398	-102.521	-0.259	-0.062
-551.383	156.257	0.127	0.175
-550.369	-137.682	0.181	0.020
-549.354	-91.235	0.377	0.108
-548.339	-101.651	0.455	0.111
-547.325	-200.000	-0.026	-0.150
-546.310	-116.932	-0.191	0.035
-545.296	328.728	0.088	-0.169
-544.281	133.108	0.111	-0.144
-543.266	11.403	-0.172	0.133
-542.252	-200.000	0.012	-0.181
-541.237	-69.889	-0.205	-0.078
-540.223	252.590	0.165	-0.282
-539.208	30.899	-0.385	-0.331
-538.193	800.000	-0.082	-0.308
-537.179	800.000	0.026	-0.088
-536.164	202.862	0.012	0.019
-535.150	-200.000	0.010	-0.160
-534.135	-89.370	0.207	-0.061
-533.121	94.555	0.041	-0.047
-532.106	69.590	-0.274	-0.283
-531.091	-200.000	-0.039	-0.192
-530.077	-14.833	0.151	-0.097
-529.062	-18.011	0.203	-0.128
-528.048	-88.699	-0.365	-0.109
-527.033	-104.217	-0.240	-0.056
-526.018	-200.000	-0.005	0.049
-525.004	-20.091	-0.302	-0.186
-523.989	530.113	-0.082	0.194
-522.975	-65.980	0.021	0.008
-521.960	-57.735	0.235	-0.103
-520.945	18.432	0.348	-0.279
-519.931	55.488	0.102	-0.099
-518.916	140.541	0.060	0.080
-517.902	-95.029	-0.371	0.101
-516.887	29.741	0.374	0.320
-515.872	495.320	0.084	-0.192
-514.858	-200.000	0.003	0.022
-513.843	-200.000	0.020	0.141
-512.829	800.000	-0.068	0.195
-511.814	-145.812	0.230	-0.021
-510.799	-200.000	-0.011	-0.148
-509.785	312.529	-0.129	-0.242
-508.770	601.555	0.019	-0.047
-507.756	800.000	0.159	-0.503
-506.741	-65.865	0.091	-0.036
-505.726	-36.600	0.218	-0.117
-504.712	-51.757	0.480	0.224
-503.697	-200.000	-0.026	0.230
-502.683	137.076	-0.149	-0.196
-501.668	-30.295	0.261	-0.148
-500.653	-200.000	-0.005	-0.212
-499.639	-66.279	0.174	-0.070
-498.624	-100.505	-0.176	-0.044
-497.610	-129.307	0.092	0.013
-496.595	36.187	-0.054	-0.047
-495.581	189.368	0.159	0.239
-494.566	-111.720	0.276	0.056
-493.551	78.787	-0.064	0.069
-492.537	800.000	-0.019	-0.060
-491.522	-95.604	-0.197	0.053
-490.508	-35.121	-0.090	0.049
-489.493	-200.000	0.000	0.140
-488.478	-160.829	0.363	-0.019
-487.464	800.000	-0.016	0.064
-486.449	-200.000	0.007	0.137
-485.435	-200.000	0.007	0.074
-484.420	-99.385	-0.249	-0.063
-483.405	-41.932	0.079	0.040
-482.391	240.188	0.161	-0.268
-481.376	-12.635	-0.157	-0.103
-480.362	142.838	-0.285	0.379
-479.347	800.000	-0.083	-0.246
-478.332	39.192	-0.040	-0.036
-477.318	-106.401	-0.284	-0.064
-476.303	509.917	-0.056	0.131
-475.289	-200.000	-0.027	0.214
-474.274	-42.270	-0.185	-0.094
-473.259	-189.296	0.209	0.002
-472.245	208.001	-0.143	0.224
-471.230	22.720	-0.066	0.054
-470.216	-81.377	-0.169	0.056
-469.201	39.370	-0.300	-0.268
-468.186	-4.944	-0.202	-0.139
-467.172	800.000	-0.043	-0.146
-466.157	554.017	0.084	0.203
-465.143	155.498	-0.116	0.160
-464.128	800.000	-0.089	0.357
-463.113	-200.000	-0.008	-0.051
-462.099	-37.431	0.195	-0.104
-461.084	646.690	0.052	0.133
-460.070	-200.000	-0.009	-0.144
-459.055	-120.265	0.346	0.059
-458.040	-200.000	-0.014	0.280
-457.026	800.000	0.081	0.240
-456.011	26.088	0.054	0.045
-454.997	-98.524	0.027	-0.007
-453.982	9.086	-0.131	0.099
-452.968	-135.001	-0.089	0.011
-451.953	-116.376	-0.124	0.023
-450.938	800.000	0.049	-0.182
-449.924	800.000	0.060	-0.221
-448.909	-177.336	-0.303	-0.007
-447.895	-64.027	0.154	-0.063
-446.880	3.153	0.255	0.186
-445.865	28.883	-0.067	-0.056
-444.851	-200.000	0.000	0.069
-443.836	140.423	-0.268	-0.354
-442.822	68.396	-0.295	0.303
-441.807	800.000	0.030	-0.107
-440.792	800.000	0.058	0.174
-439.778	-13.938	-0.066	0.043
-438.763	-200.000	-0.041	0.218
-437.749	65.608	0.075	-0.076
-436.734	-153.043	0.248	0.017
-435.719	465.774	0.066	0.147
-434.705	800.000	-0.076	-0.233
-433.690	-200.000	-0.021	0.225
-432.676	-83.464	-0.130	0.042
-431.661	42.041	-0.040	0.036
-430.646	-95.811	0.184	0.049
-429.632	-167.435	-0.154	-0.006
-428.617	-200.000	-0.037	0.480
-427.603	420.252	0.094	-0.201
-426.588	-142.927	-0.129	-0.013
-425.573	-129.110	-0.165	-0.023
-424.559	297.540	-0.126	0.230
-423.544	1.084	0.178	0.128
-422.530	69.944	0.152	0.156
-421.515	-165.575	0.272	-0.012
-420.500	618.409	-0.049	-0.122
-419.486	465.857	-0.131	-0.292
-418.471	-17.770	0.102	0.064
-417.457	381.211	-0.169	0.347
-416.442	800.000	0.080	-0.277
-415.428	800.000	-0.025	-0.078
-414.413	-63.004	-0.303	-0.125
-413.398	-200.000	-0.004	0.166
-412.384	-200.000	-0.021	-0.417
-411.369	-45.236	-0.140	0.069
-410.355	-200.000	0.062	-0.336
-409.340	317.914	0.101	-0.191
-408.325	-165.668	0.269	-0.012
-407.311	68.778	0.115	0.118
-406.296	42.346	0.216	0.196
-405.282	90.410	0.215	0.240
-404.267	145.941	-0.025	-0.033
-403.252	197.577	0.124	0.188
-402.238	674.365	0.048	0.124
-401.223	-16.679	0.152	0.096
-400.209	-200.000	-0.076	0.417
-399.194	-169.573	-0.101	0.004
-398.179	28.140	0.396	0.333
-397.165	192.579	-0.098	0.147
-396.150	-89.281	-0.320	-0.094
-395.136	-200.000	0.023	0.146
-394.121	-170.833	0.337	0.012
-393.106	85.753	-0.267	-0.293
-392.092	-65.732	-0.276	0.110
-391.077	28.975	0.243	0.205
-390.063	270.119	-0.022	0.039
-389.048	-200.000	0.033	-0.206
-388.033	-93.252	0.285	-0.079
-387.019	598.579	0.040	0.099
-386.004	-41.711	-0.257	-0.132
-384.990	359.006	-0.120	-0.239
-383.975	743.335	0.027	0.073
-382.960	122.698	0.276	0.344
-381.946	-29.484	0.151	0.086
-380.931	-200.000	0.007	-0.299
-379.917	800.000	-0.021	0.083
-378.902	447.119	0.065	0.143
-377.888	173.421	0.129	-0.186
-376.873	-106.548	0.369	-0.082
-375.858	800.000	0.037	-0.107
-374.844	-19.365	-0.210	-0.130
-373.829	-120.375	0.176	-0.030
-372.815	8.248	-0.276	0.207
-371.800	170.828	0.104	-0.148
-370.785	-200.000	0.006	-0.202
-369.771	-74.772	-0.237	0.085
-368.756	-37.265	0.148	-0.079
-367.742	-116.259	-0.362	0.067
-366.727	-200.000	0.013	0.187
-365.712	-167.971	-0.675	-0.026
-364.698	302.530	0.133	0.245
-363.683	397.211	-0.063	-0.131
-362.669	800.000	-0.065	-0.267
-361.654	5.560	0.414	0.304
-360.639	98.985	-0.066	-0.076
-359.625	737.238	0.080	0.215
-358.610	58.341	-0.145	0.142
-357.596	3.259	0.212	-0.154
-356.581	294.882	-0.191	-0.348
-355.566	-128.398	0.197	0.028
-354.552	50.481	0.051	-0.048
-353.537	-184.249	-0.286	0.005
-352.523	-5.927	0.095	-0.065
-351.508	167.544	0.015	-0.022
-350.493	8.984	0.250	0.188
-349.479	-200.000	0.000	-0.143
-348.464	-60.666	-0.393	-0.166
-347.450	-59.772	0.040	0.017
-346.435	800.000	0.076	-0.226
-345.420	-15.097	0.148	0.094
-344.406	325.772	-0.044	-0.084
-343.391	-200.000	0.014	0.095
-342.377	102.745	0.205	0.239
-341.362	120.383	0.150	0.186
-340.348	60.823	0.152	-0.150
-339.333	-65.675	-0.136	0.054
-338.318	-38.355	0.260	0.137
-337.304	-50.785	0.189	-0.089
-336.289	-12.477	-0.133	-0.086
-335.275	63.193	-0.143	-0.143
-334.260	-163.347	0.355	0.017
-333.245	381.176	0.144	0.293
-332.231	78.126	0.249	0.265
-331.216	-22.084	0.061	0.037
-330.202	-10.930	-0.208	-0.137
-329.187	-122.099	0.267	0.044
-328.172	94.483	-0.124	0.140
-327.158	36.878	0.046	-0.040
-326.143	-23.381	-0.064	-0.038
-325.129	800.000	-0.064	-0.225
-324.114	86.670	0.149	0.164
-323.099	-9.674	0.152	0.101
-322.085	405.119	0.112	0.236
-321.070	366.244	0.065	0.131
-320.056	-200.000	-0.038	0.259
-319.041	241.330	0.081	0.135
-318.026	180.048	0.118	-0.172
-317.012	181.381	-0.081	-0.118
-315.997	-200.000	0.010	0.250
-314.983	601.043	0.026	-0.064
-313.968	253.201	0.081	-0.137
-312.953	-200.000	-0.025	0.191
-311.939	370.335	0.029	0.059
-310.924	-195.454	-0.498	0.004
-309.910	-62.364	0.131	0.054
-308.895	52.847	0.127	0.121
-307.880	-88.559	-0.049	-0.014
-306.866	-36.948	0.159	0.085
-305.851	-150.698	0.066	-0.005
-304.837	498.954	-0.030	-0.068
-303.822	228.658	0.154	-0.250
-302.807	126.545	-0.202	0.254
-301.793	-148.870	0.126	-0.010
-300.778	-114.412	-0.161	0.031
-299.764	-88.654	-0.481	-0.142
-298.749	401.926	0.132	-0.275
-297.735	-200.000	0.025	0.490
-296.720	-200.000	0.026	0.347
-295.705	246.798	-0.182	-0.305
-294.691	15.115	-0.117	0.091
-293.676	-200.000	0.055	-0.251
-292.662	800.000	-0.136	-0.375
-291.647	27.981	0.083	0.070
-290.632	-145.436	-0.569	0.051
-289.618	-28.375	-0.248	0.142
-288.603	4.606	-0.090	0.065
-287.589	800.000	0.032	0.090
-286.574	121.713	0.248	-0.307
-285.559	241.573	0.227	-0.376
-284.545	-149.774	0.230	0.018
-283.530	-200.000	-0.048	0.306
-282.516	-19.933	0.401	0.246
-281.501	305.969	-0.082	0.151
-280.486	-62.409	-0.085	-0.035
-279.472	141.065	-0.300	-0.394
-278.457	7.611	0.226	-0.168
-277.443	-200.000	0.036	0.181
-276.428	185.714	0.086	0.127
-275.413	100.932	0.063	0.072
-274.399	79.425	0.335	-0.356
-273.384	-123.441	0.221	0.035
-272.370	-118.987	0.265	0.046
-271.355	-60.179	-0.128	0.054
-270.340	76.135	-0.110	-0.115
-269.326	-122.197	-0.170	0.028
-268.311	-200.000	0.023	0.257
-267.297	-163.751	0.279	0.013
-266.282	-200.000	0.067	0.306
-265.267	98.074	-0.053	0.060
-264.253	-200.000	-0.012	-0.095
-263.238	73.365	0.249	0.259
-262.224	206.065	0.088	-0.136
-261.209	135.488	-0.108	0.139
-260.195	-38.804	0.220	-0.115
-259.180	800.000	-0.079	0.252
-258.165	85.169	0.262	-0.286
-257.151	800.000	-0.080	-0.238
-256.136	9.626	0.148	-0.111
-255.122	-200.000	-0.016	-0.094
-254.107	691.513	-0.127	0.329
-253.092	53.015	-0.078	-0.074
-252.078	800.000	-0.032	-0.127
-251.063	145.447	0.151	-0.200
-250.049	-76.488	0.173	-0.060
-249.034	-158.081	0.174	-0.010
-248.019	527.400	-0.057	0.134
-247.005	-200.000	0.017	0.140
-245.990	800.000	0.088	-0.261
-244.976	-200.000	0.010	0.279
-243.961	-200.000	-0.001	-0.055
-242.946	29.668	-0.065	0.055
-241.932	496.038	-0.107	-0.244
-240.917	-46.134	-0.139	0.068
-239.903	800.000	-0.022	-0.068
-238.888	-200.000	-0.009	-0.161
-237.873	-200.000	0.028	-0.239
-236.859	800.000	-0.069	0.290
-235.844	-151.024	0.250	0.019
-234.830	-200.000	-0.002	-0.027
-233.815	288.636	0.174	0.312
-232.800	269.829	0.054	0.094
-231.786	688.890	0.079	-0.205
-230.771	800.000	-0.057	-0.166
-229.757	-109.281	0.082	-0.017
-228.742	800.000	-0.012	-0.037
-227.727	-167.196	-0.094	-0.004
-226.713	28.817	-0.090	0.076
-225.698	370.458	-0.213	-0.428
-224.684	25.409	-0.206	0.170
-223.669	-55.126	0.122	-0.054
-222.655	-7.846	0.176	-0.118
-221.640	-115.557	-0.327	0.061
-220.625	-200.000	-0.052	-0.275
-219.611	-200.000	-0.010	-0.342
-218.596	-11.938	-0.185	-0.120
-217.582	163.014	-0.204	0.284
-216.567	-72.750	0.161	-0.059
-215.552	20.122	-0.159	0.127
-214.538	-200.000	-0.005	-0.195
-213.523	800.000	-0.097	0.290
-212.509	168.863	0.075	0.105
-211.494	0.144	0.191	0.135
-210.479	-67.719	-0.253	-0.098
-209.465	338.598	-0.096	-0.185
-208.450	-149.016	0.407	-0.032
-207.436	-114.119	0.196	0.038
-206.421	-68.805	0.109	-0.042
-205.406	22.395	0.117	-0.095
-204.392	327.684	-0.154	-0.292
-203.377	-200.000	-0.055	0.370
-202.363	47.991	-0.132	0.122
-201.348	217.085	-0.071	-0.112
-200.333	800.000	0.061	0.221
-199.319	214.587	0.088	0.137
-198.304	-23.269	0.202	0.120
-197.290	800.000	-0.030	-0.122
-196.275	-42.375	0.121	-0.061
-195.260	800.000	0.137	0.444
-194.246	626.855	0.019	0.048
-193.231	-200.000	0.017	-0.209
-192.217	-141.698	-0.260	-0.026
-191.202	-151.578	0.115	0.008
-190.187	-83.216	-0.181	-0.058
-189.173	800.000	-0.060	-0.180
-188.158	-91.605	-0.200	-0.056
-187.144	-200.000	-0.030	-0.133
-186.129	-200.000	-0.038	0.190
-185.114	-200.000	0.060	-0.293
-184.100	195.138	-0.239	-0.359
-183.085	54.756	0.141	0.134
-182.071	-81.634	0.284	-0.092
-181.056	-58.036	-0.326	0.141
-180.042	-131.839	0.155	-0.020
-179.027	300.314	0.188	-0.343
-178.012	-3.182	0.213	-0.147
-176.998	-200.000	-0.278	-0.000
-175.983	745.026	-0.135	0.359
-174.969	-200.000	-0.062	-0.304
-173.954	313.894	0.085	-0.158
-172.939	-61.329	0.199	0.083
-171.925	276.168	0.084	0.148
-170.910	-98.904	-0.055	0.014
-169.896	-115.276	0.229	-0.043
-168.881	-4.791	0.280	-0.191
-167.866	-200.000	-0.029	0.328
-166.852	-104.219	-0.042	-0.010
-165.837	104.057	0.086	-0.100
-164.823	-179.857	-0.501	0.011
-163.808	-124.555	-0.392	0.060
-162.793	56.378	0.252	0.242
-161.779	-67.679	0.182	-0.070
-160.764	-88.437	0.141	0.042
-159.750	385.284	0.095	-0.193
-158.735	-143.622	0.171	-0.016
-157.720	-55.142	-0.078	-0.035
-156.706	15.375	0.130	-0.101
-155.691	214.396	0.160	-0.251
-154.677	800.000	-0.076	0.248
-153.662	-200.000	-0.001	-0.066
-152.647	-81.033	-0.063	0.021
-151.633	-119.684	-0.181	0.031
-150.618	-83.182	0.275	-0.087
-149.604	525.807	-0.088	-0.206
-148.589	-136.751	0.225	0.026
-147.574	-104.578	-0.272	0.062
-146.560	-11.875	0.275	-0.178
-145.545	-187.746	0.177	-0.002
-144.531	111.075	0.122	-0.145
-143.516	46.613	-0.192	0.177
-142.502	494.325	-0.058	-0.131
-141.487	-174.101	-0.120	-0.003
-140.472	248.379	0.086	0.143
-139.458	800.000	0.060	0.228
-138.443	-108.749	-0.331	-0.070
-137.429	-200.000	-0.027	-0.461
-136.414	113.051	0.129	0.154
-135.399	-200.000	0.025	0.247
-134.385	-142.368	-0.201	0.020
-133.370	0.051	-0.205	-0.144
-132.356	772.208	-0.118	-0.319
-131.341	108.347	-0.252	0.297
-130.326	21.549	0.279	0.225
-129.312	-200.000	-0.050	0.280
-128.297	250.827	-0.117	0.196
-127.283	386.586	0.094	0.192
-126.268	-92.849	-0.364	-0.100
-125.253	108.571	0.201	0.237
-124.239	-54.611	-0.124	-0.055
-123.224	448.063	-0.124	-0.269
-122.210	-200.000	0.008	-0.322
-121.195	800.000	-0.068	-0.230
-120.180	-53.620	0.362	-0.163
-119.166	78.849	-0.166	0.175
-118.151	634.741	0.130	0.327
-117.137	29.427	0.183	0.154
-116.122	92.347	0.259	0.288
-115.107	204.424	-0.212	0.324
-114.093	-134.008	0.290	0.035
-113.078	-76.601	0.276	0.096
-112.064	32.941	0.216	-0.185
-111.049	132.106	-0.267	-0.340
-110.034	207.468	0.151	0.232
-109.020	-0.043	0.153	0.107
-108.005	582.148	0.162	-0.391
-106.991	-163.213	0.249	-0.012
-105.976	-200.000	0.004	0.038
-104.962	-52.206	0.145	0.066
-103.947	800.000	0.103	-0.361
-102.932	-200.000	-0.006	-0.217
-101.918	800.000	-0.084	-0.324
-100.903	-108.960	0.442	0.093
-99.889	336.043	-0.109	-0.208
-98.874	-85.864	0.265	-0.081
-97.859	38.929	0.036	0.032
-96.845	-150.701	-0.349	-0.026
-95.830	-200.000	0.008	-0.055
-94.816	63.193	-0.155	0.153
-93.801	211.833	0.124	0.193
-92.786	-173.989	-0.099	-0.003
-91.772	800.000	-0.083	-0.301
-90.757	17.616	0.426	0.334
-89.743	27.971	0.084	0.070
-88.728	-91.055	0.189	-0.053
-87.713	-200.000	0.010	0.128
-86.699	-40.813	0.147	-0.075
-85.684	800.000	-0.065	0.218
-84.670	-200.000	-0.034	0.158
-83.655	54.423	0.347	0.330
-82.640	-200.000	-0.008	0.101
-81.626	-200.000	0.028	-0.297
-80.611	800.000	0.076	0.226
-79.597	203.184	-0.375	0.571
-78.582	515.815	-0.062	0.143
-77.567	-139.101	-0.201	-0.021
-76.553	30.521	-0.182	0.154
-75.538	-57.717	-0.368	0.159
-74.524	-10.479	-0.204	0.133
-73.509	-148.669	0.019	-0.002
-72.494	800.000	-0.097	-0.319
-71.480	-160.044	-0.137	-0.007
-70.465	-200.000	0.020	0.088
-69.451	-126.629	0.215	0.031
-68.436	-200.000	0.011	-0.111
-67.422	-41.082	0.164	-0.083
-66.407	453.191	0.041	0.090
-65.392	-120.382	0.058	0.010
-64.378	-200.000	-0.009	-0.383
-63.363	-12.983	0.148	0.095
-62.349	-153.660	-0.260	0.018
-61.334	147.271	-0.585	-0.776
-60.319	178.231	0.341	0.490
-59.305	800.000	-0.405	-1.188
-58.290	217.443	0.597	0.938
-57.276	348.325	0.737	1.431
-56.261	-200.000	91.860	559.856
-55.246	564.903	1356.091	3236.680
-54.232	164.034	2525.823	3502.737
-53.217	113.203	2143.116	2559.636
-52.203	45.734	1612.358	1467.441
-51.188	37.774	1351.742	1182.154
-50.173	34.520	1310.566	1126.912
-49.159	56.859	1355.041	1299.513
-48.144	59.194	1372.598	1330.284
-47.130	37.951	1332.707	1166.376
-46.115	34.426	1315.379	1130.314
-45.100	34.231	1310.498	1124.922
-44.086	34.140	1308.558	1122.677
-43.071	34.162	1305.737	1120.343
-42.057	34.131	1303.920	1118.555
-41.042	34.227	1302.343	1117.725
-40.027	34.049	1301.139	1115.600
-39.013	34.208	1298.925	1114.591
-37.998	34.115	1297.137	1112.468
-36.984	34.243	1295.205	1111.515
-35.969	34.237	1293.416	1109.900
-34.954	34.285	1291.809	1108.757
-33.940	34.311	1290.566	1107.796
-32.925	34.381	1288.967	1106.787
-31.911	34.442	1287.681	1105.991
-30.896	34.475	1286.374	1105.017
-29.881	34.412	1285.265	1103.654
-28.867	34.383	1283.992	1102.350
-27.852	34.383	1282.527	1101.052
-26.838	34.415	1281.169	1100.026
-25.823	34.458	1279.477	1098.775
-24.809	34.452	1277.935	1097.376
-23.794	34.311	1276.910	1095.640
-22.779	34.424	1275.794	1095.284
-21.765	34.390	1274.805	1094.197
-20.750	34.364	1272.995	1092.454
-19.736	34.252	1271.779	1090.727
-18.721	34.311	1270.515	1089.935
-17.706	34.226	1269.685	1088.695
-16.692	34.219	1268.428	1087.531
-15.677	34.334	1266.752	1086.708
-14.663	34.424	1266.111	1086.629
-13.648	34.272	1265.339	1085.057
-12.633	34.217	1264.294	1083.806
-11.619	34.144	1263.995	1083.091
-10.604	34.222	1262.559	1082.260
-9.590	34.123	1261.706	1080.923
-8.575	34.190	1260.636	1080.345
-7.560	34.172	1259.901	1079.569
-6.546	34.314	1258.316	1078.971
-5.531	34.216	1257.696	1077.845
-4.517	34.277	1256.945	1077.505
-3.502	34.192	1256.382	1076.495
-2.487	34.351	1255.165	1076.310
-1.473	34.063	1250.502	1070.645
-0.458	31.392	1233.919	1041.548
0.556	24.165	1212.768	987.960
1.571	18.507	1216.093	959.020
2.586	16.827	1229.393	959.916
3.600	16.396	1218.449	948.863
4.615	12.053	1148.349	871.161
5.629	4.454	1073.562	776.479
6.644	0.553	1053.612	742.816
7.659	0.171	1051.577	739.439
8.673	0.002	1050.644	737.887
9.688	0.225	1048.667	737.524
10.702	0.367	1047.170	737.105
11.717	4.735	1052.855	762.475
12.731	12.401	1063.149	807.667
13.746	16.746	1067.423	832.237
14.761	16.993	1067.660	833.561
15.775	16.129	1065.629	827.667
16.790	15.062	1063.869	820.993
17.804	14.338	1062.241	816.122
18.819	14.027	1061.122	813.665
19.834	13.821	1060.280	811.940
20.848	13.483	1059.275	809.447
21.863	13.330	1058.304	807.887
22.877	13.087	1058.055	806.438
23.892	13.221	1056.627	805.932
24.907	13.102	1056.208	804.959
25.921	13.212	1055.187	804.646
26.936	13.189	1054.683	804.079
27.950	13.254	1053.734	803.600
28.965	13.237	1052.746	802.691
29.980	13.331	1050.742	801.552
30.994	13.434	1049.845	801.292
32.009	13.345	1048.829	800.016
33.023	13.433	1047.685	799.500
34.038	13.365	1046.872	798.479
35.053	13.340	1046.324	797.872
36.067	13.213	1045.467	796.533
37.082	13.254	1044.916	796.243
38.096	13.253	1044.138	795.571
39.111	13.321	1042.818	794.822
40.126	13.205	1042.438	793.906
41.140	13.108	1041.057	792.320
42.155	13.169	1039.454	791.322
43.169	13.088	1038.849	790.404
44.184	13.063	1037.828	789.434
45.199	13.125	1036.881	788.944
46.213	13.104	1035.844	787.983
47.228	13.307	1034.502	787.861
48.242	13.212	1033.743	786.760
49.257	13.171	1032.809	785.785
50.271	13.135	1031.879	784.835
51.286	13.229	1030.824	784.411
52.301	13.234	1029.689	783.500
53.315	13.183	1029.216	782.833
54.330	13.236	1027.950	782.049
55.344	13.199	1026.966	781.054
56.359	13.137	1026.284	780.175
57.374	13.106	1025.577	779.423
58.388	13.058	1024.784	778.524
59.403	12.994	1024.180	777.693
60.417	13.094	1022.731	776.996
61.432	13.124	1022.019	776.530
62.447	13.010	1021.203	775.305
63.461	12.936	1020.412	774.287
64.476	12.951	1019.931	773.926
65.490	12.967	1019.109	773.310
66.505	13.108	1018.085	773.124
67.520	13.027	1017.368	772.130
68.534	13.038	1016.825	771.701
69.549	13.118	1015.867	771.280
70.563	12.941	1015.850	770.371
71.578	12.983	1014.824	769.723
72.593	13.124	1013.696	769.457
73.607	13.008	1013.136	768.420
74.622	13.008	1012.569	767.925
75.636	12.967	1011.703	767.010
76.651	13.026	1011.055	766.723
77.666	12.971	1010.700	766.130
78.680	13.119	1009.590	765.907
79.695	13.011	1009.309	765.126
80.709	13.158	1008.544	765.161
81.724	13.155	1008.244	764.852
82.739	13.125	1007.158	763.821
83.753	13.273	1006.579	763.998
84.768	13.263	1005.691	763.209
85.782	13.425	1004.308	762.838
86.797	13.389	1003.641	762.101
87.812	13.360	1002.497	761.028
88.826	13.258	1001.709	759.895
89.841	13.128	1000.675	758.449
90.855	13.202	1000.276	758.417
91.870	13.281	998.771	757.570
92.884	13.302	998.275	757.225
93.899	13.312	997.634	756.717
94.914	13.392	996.374	756.058
95.928	13.449	995.399	755.513
96.943	13.350	995.067	754.742
97.957	13.334	994.214	753.955
98.972	13.363	993.001	753.102
99.987	13.249	992.013	751.765
101.001	13.308	991.212	751.360
102.016	13.400	990.223	750.963
103.030	13.397	989.242	750.141
104.045	13.264	988.934	749.234
105.060	13.337	988.228	748.967
106.074	13.212	987.402	747.710
107.089	13.161	986.463	746.701
108.103	13.293	985.034	746.148
109.118	13.180	984.618	745.259
110.133	13.187	983.442	744.333
111.147	13.253	982.788	744.067
112.162	13.201	982.098	743.246
113.176	13.288	981.240	742.921
114.191	13.366	980.292	742.490
115.206	13.284	979.807	741.690
116.220	13.181	979.022	740.568
117.235	13.272	977.773	739.965
118.249	13.205	977.274	739.220
119.264	13.245	976.323	738.615
120.279	13.238	975.646	738.006
121.293	13.256	974.537	737.181
122.308	13.256	973.949	736.670
123.322	13.166	973.090	735.555
124.337	13.248	971.842	734.913
125.352	13.230	970.611	733.839
126.366	13.248	969.507	733.018
127.381	13.236	968.910	732.448
128.395	13.262	967.625	731.529
129.410	13.316	966.790	731.069
130.424	13.275	965.926	730.171
131.439	13.295	965.183	729.635
132.454	13.409	964.415	729.490
133.468	13.345	963.718	728.614
134.483	13.288	962.698	727.528
135.497	13.401	962.172	727.563
136.512	13.367	960.742	726.268
137.527	13.327	960.414	725.784
138.541	13.501	958.978	725.395
139.556	13.428	958.785	724.867
140.570	13.390	958.123	724.136
141.585	13.386	957.350	723.470
142.600	13.367	956.325	722.547
143.614	13.529	955.431	722.513
144.629	13.540	954.585	721.860
145.643	13.429	953.998	720.868
146.658	13.377	953.030	719.845
147.673	13.332	952.113	718.894
148.687	13.274	951.806	718.346
149.702	13.557	949.918	718.085
150.716	13.301	949.961	716.946
151.731	13.421	949.165	716.800
152.746	13.539	947.894	716.286
153.760	13.489	947.754	715.904
154.775	13.466	947.352	715.437
155.789	13.574	946.246	715.002
156.804	13.529	945.753	714.373
157.819	13.526	944.870	713.632
158.833	13.656	944.569	713.897
159.848	13.630	943.484	712.905
160.862	13.600	942.786	712.185
161.877	13.588	941.640	711.205
162.892	13.444	940.950	710.002
163.906	13.538	940.145	709.734
164.921	13.400	939.448	708.557
165.935	13.588	938.110	708.287
166.950	13.598	937.127	707.526
167.964	13.587	936.450	706.906
168.979	13.696	935.724	706.759
169.994	13.688	934.550	705.775
171.008	13.595	934.175	705.034
172.023	13.625	933.768	704.791
173.037	13.767	932.637	704.478
174.052	13.685	931.978	703.573
175.067	13.599	931.517	702.795
176.081	13.621	931.081	702.498
177.096	13.604	930.887	702.219
178.110	13.655	929.683	701.462
179.125	13.597	929.146	700.749
180.140	13.610	928.582	700.319
181.154	13.617	928.724	700.395
182.169	13.841	927.637	700.457
183.183	13.765	927.159	699.714
184.198	13.795	926.218	699.069
185.213	13.798	925.707	698.634
186.227	13.826	925.045	698.188
187.242	13.918	924.354	697.993
188.256	13.965	923.708	697.642
189.271	13.882	923.057	696.740
190.286	13.710	922.004	695.162
191.300	13.795	921.261	694.895
192.315	13.771	920.650	694.273
193.329	13.719	920.589	693.950
194.344	13.703	919.746	693.183
195.359	13.753	919.027	692.789
196.373	14.034	917.935	693.079
197.388	14.027	917.991	693.030
198.402	13.975	917.505	692.382
199.417	14.075	916.857	692.252
200.432	14.204	915.975	692.058
201.446	14.264	915.801	692.116
202.461	14.192	915.394	691.446
203.475	14.166	914.324	690.469
204.490	14.096	913.959	689.845
205.504	14.154	912.964	689.271
206.519	14.058	912.382	688.375
207.534	14.081	911.678	687.877
208.548	14.088	911.342	687.590
209.563	13.957	910.993	686.726
210.577	14.033	909.993	686.224
211.592	14.134	909.203	685.985
212.607	14.222	907.975	685.360
213.621	14.275	907.649	685.271
214.636	14.291	906.729	684.582
215.650	14.336	906.095	684.229
216.665	14.325	905.440	683.627
217.680	14.383	905.106	683.553
218.694	14.227	904.834	682.648
219.709	14.292	903.988	682.216
220.723	14.342	903.035	681.639
221.738	14.223	902.783	680.903
222.753	14.308	901.868	680.498
223.767	14.408	901.291	680.411
224.782	14.287	900.637	679.366
225.796	14.459	899.732	679.323
226.811	14.448	899.683	679.182
227.826	14.458	898.621	678.360
228.840	14.413	898.187	677.788
229.855	14.471	896.978	677.052
230.869	14.417	896.459	676.384
231.884	14.390	895.991	675.858
232.899	14.444	895.158	675.389
233.913	14.428	894.430	674.717
234.928	14.450	893.607	674.127
235.942	14.541	893.006	673.979
236.957	14.522	892.661	673.584
237.972	14.378	892.375	672.724
238.986	14.354	891.435	671.859
240.001	14.499	890.694	671.829
241.015	14.557	889.831	671.349
242.030	14.533	889.418	670.882
243.045	14.475	889.019	670.290
244.059	14.664	888.341	670.477
245.074	14.645	887.627	669.804
246.088	14.589	886.952	669.010
247.103	14.663	886.327	668.775
248.117	14.584	886.127	668.251
249.132	14.760	885.518	668.436
250.147	14.804	884.702	667.935
251.161	14.804	884.236	667.527
252.176	14.884	883.378	667.139
253.190	14.959	882.567	666.767
254.205	14.895	881.983	666.009
255.220	15.051	881.368	666.107
256.234	14.969	880.746	665.253
257.249	15.042	879.952	664.884
258.263	14.924	879.159	663.757
259.278	15.010	878.653	663.657
260.293	14.920	878.516	663.140
261.307	15.029	877.661	662.868
262.322	15.148	876.761	662.601
263.336	15.133	876.153	662.023
264.351	15.142	875.584	661.568
265.366	15.199	875.111	661.379
266.380	15.105	874.555	660.528
267.395	15.083	873.893	659.883
268.409	15.054	872.953	659.001
269.424	15.265	871.994	659.048
270.439	15.112	871.415	657.952
271.453	15.218	870.955	657.962
272.468	15.094	870.679	657.209
273.482	15.177	869.888	656.880
274.497	15.159	869.357	656.349
275.512	15.123	868.936	655.833
276.526	15.247	868.235	655.730
277.541	15.254	867.749	655.331
278.555	15.257	867.433	655.046
279.570	15.445	866.396	654.940
280.585	15.402	865.477	654.019
281.599	15.380	864.584	653.202
282.614	15.296	864.356	652.645
283.628	15.275	863.663	651.982
284.643	15.315	863.178	651.714
285.657	15.379	862.347	651.275
286.672	15.469	861.501	650.931
287.687	15.386	861.214	650.334
288.701	15.489	860.243	649.942
289.716	15.529	860.146	649.966
290.730	15.551	859.562	649.551
291.745	15.559	858.582	648.785
292.760	15.499	858.448	648.392
293.774	15.601	857.604	648.093
294.789	15.734	856.648	647.826
295.803	15.719	856.192	647.366
296.818	15.497	855.785	646.147
297.833	15.606	854.822	645.780
298.847	15.492	854.639	645.147
299.862	15.616	854.191	645.229
300.876	15.621	853.211	644.452
301.891	15.694	852.689	644.279
302.906	15.653	852.369	643.824
303.920	15.753	851.747	643.680
304.935	15.823	850.947	643.286
305.949	15.945	850.198	643.127
306.964	15.734	850.019	642.130
307.979	15.866	849.566	642.234
308.993	15.792	849.184	641.608
310.008	15.776	848.416	640.907
311.022	15.900	847.668	640.760
312.037	15.813	847.059	639.910
313.052	15.742	846.719	639.327
314.066	15.663	846.190	638.572
315.081	15.743	845.439	638.250
316.095	15.766	845.091	638.020
317.110	15.797	844.369	637.538
318.125	15.880	843.514	637.148
319.139	15.805	843.253	636.612
320.154	15.985	842.707	636.821
321.168	15.804	842.290	635.767
322.183	15.966	841.563	635.773
323.197	15.970	841.039	635.338
324.212	15.869	840.619	634.581
325.227	15.851	839.744	633.799
326.241	15.771	839.754	633.448
327.256	15.814	838.942	632.941
328.270	15.917	838.539	632.970
329.285	15.972	837.604	632.412
330.300	16.045	837.092	632.243
331.314	16.014	836.721	631.794
332.329	16.064	836.075	631.436
333.343	16.003	835.845	630.978
334.358	15.949	835.588	630.524
335.373	16.072	834.744	630.294
336.387	16.109	835.001	630.570
337.402	16.064	834.855	630.237
338.416	16.180	833.977	629.950
339.431	16.143	833.437	629.350
340.446	16.228	833.205	629.435
341.460	16.130	832.924	628.800
342.475	16.264	832.483	628.912
343.489	16.412	832.044	629.074
344.504	16.329	831.534	628.326
345.519	16.281	831.327	627.937
346.533	16.271	830.508	627.226
347.548	16.366	830.070	627.189
348.562	16.290	829.528	626.444
349.577	16.266	828.950	625.862
350.592	16.164	828.510	625.097
351.606	16.332	827.374	624.807
352.621	16.282	827.504	624.663
353.635	16.374	826.387	624.104
354.650	16.314	826.149	623.647
355.665	16.371	825.150	623.051
356.679	16.378	824.557	622.571
357.694	16.413	824.069	622.278
358.708	16.508	823.041	621.796
359.723	16.473	822.840	621.459
360.738	16.426	822.271	620.801
361.752	16.467	821.451	620.278
362.767	16.583	821.091	620.378
363.781	16.611	820.646	620.089
364.796	16.644	820.013	619.677
365.810	16.700	819.639	619.545
366.825	16.729	819.425	619.432
367.840	16.670	819.014	618.852
368.854	16.587	818.729	618.279
369.869	16.738	817.668	617.973
370.883	16.610	817.639	617.430
371.898	16.736	817.481	617.717
372.913	16.772	816.939	617.385
373.927	16.798	816.109	616.795
374.942	16.833	815.998	616.784
375.956	16.844	815.571	616.449
376.971	16.885	815.155	616.226
377.986	16.968	814.531	616.002
379.000	17.050	813.981	615.830
380.015	16.948	813.517	615.054
381.029	16.972	813.036	614.723
382.044	17.034	811.991	614.103
383.059	17.078	811.731	614.012
384.073	16.952	811.416	613.264
385.088	17.015	810.700	612.896
386.102	17.035	810.404	612.691
387.117	16.868	809.582	611.413
388.132	17.022	809.086	611.538
389.146	17.103	808.428	611.280
390.161	17.053	808.114	610.809
391.175	17.067	807.478	610.322
392.190	16.955	807.296	609.730
393.205	17.047	806.697	609.552
394.219	17.091	806.246	609.317
395.234	17.162	805.669	609.080
396.248	17.050	805.521	608.514
397.263	17.119	804.738	608.115
398.278	17.067	804.668	607.821
399.292	17.187	804.076	607.752
400.307	17.103	803.621	607.053
401.321	16.999	803.133	606.257
402.336	17.181	802.431	606.324
403.350	17.110	802.407	606.000
404.365	17.225	801.800	605.896
405.380	17.299	801.390	605.799
406.394	17.309	800.892	605.404
407.409	17.422	800.493	605.450
408.423	17.333	800.275	604.914
409.438	17.319	799.687	604.369
410.453	17.463	799.206	604.463
411.467	17.440	798.896	604.094
412.482	17.494	798.443	603.888
413.496	17.422	798.230	603.418
414.511	17.442	797.992	603.254
415.526	17.451	797.239	602.666
416.540	17.522	796.773	602.512
417.555	17.533	796.289	602.131
418.569	17.599	796.043	602.124
419.584	17.541	795.244	601.261
420.599	17.536	794.813	600.863
421.613	107.120	1287.332	1454.841
422.628	91.984	1359.075	1454.915
