DTS Sentinel unit serial number:	SN413079Multiplexer serial number:	ORYXHardware model number:	OX4-SRSoftware version number:	ORYX F/W v4.00 Oryx Data Collector v3.7.2.0data status	okinstallation	princeton_trtdifferential loss correction	single-endedforward channel	channel 1reverse channel	N/Adate	2019/09/12time	16:24:11forward acquisition time	60.00reverse acquisition time	0.00gamma	496.2192k internal	0.2303k external	0.2303temperature offset calibration	1.0085default loss term (dB/km)	0.3790temperature slope calibration	1.0000multiplexer offset coefficient	1.0000multiplexer slope coefficient	1.0000fibre end	0.00T internal ref (°C)	37.67T ext. ref 1 (°C)	2.52T ext. ref 2 (°C)	30.25length (m)	temperature (°C)	Stokes	anti-Stokes-747.200	-200.000	-0.011	0.220
-746.185	249.892	-0.066	0.114
-745.171	-200.000	0.000	0.201
-744.156	-129.103	-0.195	-0.028
-743.142	-134.330	0.424	0.053
-742.127	767.848	0.067	-0.186
-741.112	-47.051	-0.351	0.175
-740.098	69.158	-0.169	0.177
-739.083	-68.490	0.079	0.031
-738.069	-116.773	0.098	0.018
-737.054	25.741	0.198	-0.168
-736.039	-200.000	-0.019	0.287
-735.025	37.324	0.348	0.314
-734.010	-118.359	-0.253	0.046
-732.996	800.000	0.073	-0.240
-731.981	-23.372	-0.064	-0.039
-730.966	-37.018	0.199	-0.108
-729.952	-56.666	-0.063	-0.028
-728.937	123.144	0.162	-0.207
-727.923	-11.864	-0.114	0.076
-726.908	-78.828	-0.139	0.048
-725.894	27.633	-0.249	0.213
-724.879	800.000	-0.060	-0.268
-723.864	800.000	-0.040	0.147
-722.850	96.044	0.297	0.345
-721.835	-0.635	0.224	-0.162
-720.821	800.000	-0.047	-0.167
-719.806	-32.806	-0.263	-0.149
-718.791	229.507	0.073	0.122
-717.777	-155.279	-0.372	0.025
-716.762	-69.797	-0.121	-0.047
-715.748	614.107	0.057	0.145
-714.733	38.505	0.169	0.153
-713.718	-23.052	-0.107	0.066
-712.704	-69.315	0.114	-0.045
-711.689	92.282	0.214	0.245
-710.675	-200.000	-0.038	-0.394
-709.660	194.215	0.225	0.347
-708.645	-175.516	0.402	-0.011
-707.631	-87.027	-0.214	-0.066
-706.616	204.398	0.096	0.151
-705.602	-28.491	-0.370	-0.217
-704.587	71.766	0.127	0.135
-703.572	15.148	0.388	0.309
-702.558	-105.214	0.146	-0.034
-701.543	22.776	-0.144	-0.120
-700.529	800.000	0.065	-0.188
-699.514	-107.655	0.180	-0.040
-698.499	-93.633	-0.315	0.088
-697.485	86.013	0.174	-0.194
-696.470	34.867	-0.059	0.052
-695.456	173.963	-0.091	-0.134
-694.441	-200.000	0.012	0.099
-693.426	-200.000	-0.017	0.147
-692.412	121.510	-0.156	-0.197
-691.397	-14.984	-0.137	0.089
-690.383	795.830	0.145	0.405
-689.368	131.269	-0.082	0.107
-688.354	-7.067	-0.163	-0.113
-687.339	800.000	0.084	0.288
-686.324	-12.700	-0.197	-0.131
-685.310	-145.884	0.005	-0.000
-684.295	22.545	0.211	0.176
-683.281	-8.882	-0.205	0.140
-682.266	52.130	0.081	-0.078
-681.251	-33.926	0.227	0.127
-680.237	30.427	-0.224	-0.195
-679.222	-124.673	-0.410	0.065
-678.208	-13.488	-0.227	-0.150
-677.193	67.691	-0.020	-0.020
-676.178	449.619	-0.017	-0.037
-675.164	300.504	0.013	-0.024
-674.149	-162.411	0.145	0.007
-673.135	-166.438	0.331	0.014
-672.120	15.766	-0.408	-0.326
-671.105	800.000	-0.009	-0.029
-670.091	-200.000	0.001	0.245
-669.076	-200.000	-0.011	0.055
-668.062	-200.000	0.034	0.264
-667.047	-34.186	-0.245	-0.137
-666.032	112.926	-0.223	0.274
-665.018	-54.788	0.159	-0.073
-664.003	-200.000	-0.007	0.133
-662.989	-200.000	0.011	-0.065
-661.974	-107.950	-0.214	-0.047
-660.959	122.527	-0.010	-0.013
-659.945	3.558	0.155	0.115
-658.930	-200.000	0.031	0.342
-657.916	800.000	-0.120	0.343
-656.901	-200.000	-0.020	-0.150
-655.886	151.332	0.167	0.231
-654.872	-200.000	-0.082	-0.431
-653.857	-91.471	-0.385	-0.111
-652.843	-90.084	-0.444	-0.131
-651.828	463.997	-0.078	0.177
-650.814	284.216	-0.154	-0.281
-649.799	338.307	-0.172	0.340
-648.784	800.000	0.180	-0.561
-647.770	800.000	0.033	0.146
-646.755	-95.205	0.083	0.023
-645.741	-200.000	-0.009	0.038
-644.726	-48.083	0.261	0.128
-643.711	52.017	0.221	0.213
-642.697	-18.104	-0.196	-0.125
-641.682	-19.606	-0.282	-0.177
-640.668	126.925	-0.105	0.135
-639.653	112.510	-0.349	-0.429
-638.638	212.913	0.119	-0.191
-637.624	34.421	0.262	-0.232
-636.609	61.078	-0.207	0.208
-635.595	227.411	-0.078	0.128
-634.580	-37.896	-0.212	-0.115
-633.565	800.000	0.031	0.094
-632.551	669.841	-0.052	-0.136
-631.536	30.433	-0.140	-0.122
-630.522	-106.694	-0.348	-0.079
-629.507	-54.816	0.085	-0.039
-628.492	-32.311	0.034	-0.019
-627.478	800.000	0.055	0.164
-626.463	55.941	0.109	0.107
-625.449	14.427	-0.071	0.056
-624.434	-131.715	-0.295	0.039
-623.419	-34.539	-0.113	0.063
-622.405	-66.327	-0.273	0.110
-621.390	-115.897	-0.297	0.056
-620.376	-141.085	0.481	-0.050
-619.361	-176.962	-0.150	-0.004
-618.346	167.527	-0.060	-0.086
-617.332	-76.216	0.071	-0.025
-616.317	32.878	-0.103	0.091
-615.303	478.332	-0.042	-0.097
-614.288	-76.993	0.351	-0.124
-613.273	800.000	0.084	0.335
-612.259	-107.109	0.172	-0.038
-611.244	530.749	-0.092	-0.220
-610.230	-60.504	0.227	0.098
-609.215	800.000	0.068	-0.213
-608.201	-21.333	0.180	-0.111
-607.186	800.000	-0.062	0.264
-606.171	571.154	-0.024	-0.060
-605.157	800.000	0.041	0.116
-604.142	-200.000	0.034	0.329
-603.128	31.480	-0.117	0.102
-602.113	191.264	0.059	-0.089
-601.098	-78.488	0.232	0.080
-600.084	102.670	0.220	0.261
-599.069	-26.074	0.097	0.058
-598.055	-200.000	0.009	-0.255
-597.040	728.604	-0.049	-0.132
-596.025	185.466	-0.216	0.325
-595.011	-74.698	0.043	-0.016
-593.996	316.821	0.082	-0.156
-592.982	65.049	0.311	0.318
-591.967	0.421	-0.345	-0.250
-590.952	-200.000	0.052	0.274
-589.938	-200.000	0.011	-0.134
-588.923	-79.443	0.069	-0.024
-587.909	152.237	-0.074	-0.102
-586.894	60.745	-0.120	-0.121
-585.879	800.000	0.067	-0.262
-584.865	370.633	-0.091	-0.187
-583.850	-27.761	-0.208	-0.122
-582.836	421.673	-0.122	-0.265
-581.821	-131.153	-0.240	-0.032
-580.806	-28.227	-0.151	-0.088
-579.792	-62.694	0.236	0.099
-578.777	24.478	0.197	0.165
-577.763	800.000	0.088	-0.249
-576.748	178.409	-0.115	0.169
-575.733	-200.000	-0.018	0.126
-574.719	116.994	-0.109	0.136
-573.704	41.041	0.244	0.223
-572.690	800.000	0.045	-0.129
-571.675	97.612	-0.098	-0.114
-570.661	560.293	0.021	0.052
-569.646	-200.000	0.038	0.233
-568.631	613.638	0.006	-0.015
-567.617	-54.224	0.153	-0.070
-566.602	-38.911	-0.260	0.139
-565.588	541.324	-0.073	-0.177
-564.573	-200.000	0.026	0.281
-563.558	182.734	0.193	0.289
-562.544	-75.240	-0.125	0.045
-561.529	532.612	0.018	0.043
-560.515	-77.528	-0.078	0.027
-559.500	-145.857	0.093	-0.008
-558.485	-39.295	-0.189	-0.101
-557.471	-77.910	-0.323	0.113
-556.456	800.000	-0.025	-0.102
-555.442	-163.044	-0.467	0.023
-554.427	-81.036	0.343	-0.115
-553.412	-106.533	0.247	0.056
-552.398	800.000	-0.089	-0.254
-551.383	44.708	-0.255	-0.238
-550.369	28.506	0.176	-0.151
-549.354	-33.524	0.068	0.038
-548.339	-200.000	-0.018	-0.182
-547.325	129.548	0.099	0.127
-546.310	234.983	0.050	0.084
-545.296	88.341	-0.165	0.185
-544.281	505.493	-0.059	0.138
-543.266	-200.000	-0.071	-0.361
-542.252	-38.594	-0.113	-0.061
-541.237	-140.983	0.390	0.040
-540.223	800.000	0.046	-0.147
-539.208	-0.812	0.164	-0.118
-538.193	-200.000	0.036	-0.385
-537.179	328.305	-0.050	-0.096
-536.164	-134.993	-0.324	0.039
-535.150	-127.823	-0.122	0.018
-534.135	23.993	0.210	-0.175
-533.121	-139.858	0.061	0.007
-532.106	-58.088	0.156	0.069
-531.091	800.000	0.044	0.181
-530.077	-127.878	0.175	-0.025
-529.062	-1.393	0.139	-0.099
-528.048	-80.790	-0.199	-0.067
-527.033	20.334	0.048	0.039
-526.018	16.500	0.080	-0.064
-525.004	-200.000	0.037	-0.218
-523.989	33.862	-0.443	-0.389
-522.975	169.768	-0.197	-0.285
-521.960	-40.161	-0.314	-0.165
-520.945	-52.812	0.187	0.087
-519.931	-187.734	0.203	0.003
-518.916	-200.000	-0.057	0.446
-517.902	43.780	-0.129	0.119
-516.887	800.000	0.041	-0.149
-515.872	-75.029	0.309	-0.112
-514.858	164.830	0.109	-0.155
-513.843	355.589	0.134	0.268
-512.829	132.235	-0.102	0.133
-511.814	-80.955	0.107	-0.036
-510.799	-200.000	-0.017	-0.245
-509.785	14.323	0.178	0.140
-508.770	800.000	0.085	-0.297
-507.756	-196.269	-0.296	-0.002
-506.741	-87.616	-0.366	-0.111
-505.726	-200.000	0.152	0.000
-504.712	547.975	0.095	-0.229
-503.697	716.439	-0.065	-0.175
-502.683	247.727	0.256	0.436
-501.668	217.857	-0.104	-0.168
-500.653	239.932	0.070	-0.118
-499.639	-155.306	-0.362	0.024
-498.624	-200.000	-0.034	-0.159
-497.610	800.000	-0.053	-0.206
-496.595	800.000	0.052	-0.209
-495.581	76.433	-0.066	-0.071
-494.566	-65.903	-0.478	0.193
-493.551	255.005	0.011	0.019
-492.537	76.164	0.235	-0.251
-491.522	-200.000	0.016	0.099
-490.508	92.430	-0.127	-0.144
-489.493	-11.278	0.224	0.149
-488.478	-200.000	-0.052	0.346
-487.464	94.725	-0.273	-0.313
-486.449	-81.216	0.210	0.070
-485.435	800.000	-0.027	0.081
-484.420	416.496	-0.090	-0.194
-483.405	-200.000	-0.029	-0.286
-482.391	-200.000	0.005	-0.110
-481.376	800.000	0.037	0.121
-480.362	359.908	-0.092	0.186
-479.347	-200.000	-0.031	0.164
-478.332	-108.856	0.160	0.034
-477.318	-161.421	-0.099	-0.005
-476.303	800.000	0.066	0.188
-475.289	63.419	0.109	0.110
-474.274	21.272	0.126	-0.103
-473.259	174.547	0.038	0.056
-472.245	-43.979	-0.261	-0.132
-471.230	-133.823	0.137	-0.017
-470.216	515.185	-0.146	0.343
-469.201	19.411	0.160	0.129
-468.186	61.972	0.246	-0.247
-467.172	-131.922	-0.256	0.034
-466.157	-200.000	-0.007	0.124
-465.143	-22.308	0.203	0.124
-464.128	-87.274	0.127	0.039
-463.113	-20.579	0.125	0.077
-462.099	-132.783	-0.240	0.031
-461.084	-200.000	0.019	0.168
-460.070	-118.203	0.122	-0.022
-459.055	73.544	0.219	0.231
-458.040	7.010	0.027	0.021
-457.026	-153.325	0.155	0.011
-456.011	-94.378	-0.375	0.103
-454.997	-62.584	0.200	-0.084
-453.982	676.727	-0.101	-0.265
-452.968	148.627	0.227	-0.309
-451.953	-37.642	0.135	-0.072
-450.938	-200.000	0.065	0.300
-449.924	-135.966	-0.351	-0.042
-448.909	-55.188	-0.211	-0.096
-447.895	360.030	-0.057	0.114
-446.880	338.128	-0.220	0.432
-445.865	-60.265	0.104	0.045
-444.851	2.635	-0.121	-0.089
-443.836	-142.838	0.434	-0.042
-442.822	-118.813	-0.132	0.023
-441.807	-200.000	0.007	-0.063
-440.792	800.000	-0.087	-0.306
-439.778	-33.353	-0.135	-0.075
-438.763	575.980	-0.105	0.257
-437.749	-144.494	0.116	-0.011
-436.734	574.006	0.063	-0.155
-435.719	496.404	-0.162	-0.374
-434.705	-83.787	0.192	-0.062
-433.690	129.068	-0.212	0.273
-432.676	-77.028	0.073	0.026
-431.661	800.000	0.040	-0.129
-430.646	-116.905	0.234	0.043
-429.632	-200.000	0.002	-0.061
-428.617	-200.000	0.005	0.085
-427.603	-59.482	-0.028	-0.012
-426.588	462.685	-0.020	-0.046
-425.573	-199.006	-0.213	0.001
-424.559	800.000	0.084	0.309
-423.544	-200.000	-0.027	0.201
-422.530	434.617	-0.224	0.490
-421.515	-39.056	0.278	-0.147
-420.500	-200.000	0.024	0.167
-419.486	-200.000	-0.041	0.256
-418.471	-103.217	0.080	-0.019
-417.457	-98.754	-0.376	-0.096
-416.442	-200.000	-0.018	-0.082
-415.428	-13.518	0.228	0.149
-414.413	-200.000	-0.029	0.239
-413.398	78.632	0.107	-0.115
-412.384	-103.477	0.516	0.122
-411.369	800.000	-0.024	0.087
-410.355	314.147	0.185	-0.350
-409.340	-105.451	0.064	-0.015
-408.325	-172.101	0.275	0.009
-407.311	-49.652	0.108	-0.052
-406.296	166.737	-0.076	-0.108
-405.282	18.479	-0.109	-0.088
-404.267	-25.554	-0.084	0.050
-403.252	-45.501	0.409	0.204
-402.238	-23.152	-0.145	0.088
-401.223	800.000	0.138	0.483
-400.209	-155.036	-0.207	0.014
-399.194	-1.781	-0.115	0.081
-398.179	39.424	-0.293	-0.264
-397.165	-152.566	0.262	0.019
-396.150	-59.087	-0.035	-0.015
-395.136	-94.154	-0.197	0.054
-394.121	-168.935	0.350	-0.013
-393.106	-200.000	-0.028	0.158
-392.092	-102.967	-0.437	-0.104
-391.077	456.325	-0.070	0.155
-390.063	70.177	0.116	0.120
-389.048	800.000	-0.049	0.163
-388.033	-200.000	0.026	0.248
-387.019	452.091	-0.089	0.198
-386.004	-152.737	-0.104	0.007
-384.990	-125.338	0.124	0.019
-383.975	-110.957	-0.231	-0.048
-382.960	256.214	-0.097	0.167
-381.946	-81.293	0.308	0.102
-380.931	133.044	0.173	0.224
-379.917	-33.188	0.131	-0.073
-378.902	-200.000	-0.046	-0.273
-377.888	-92.017	0.172	0.049
-376.873	-37.427	-0.082	0.044
-375.858	348.591	0.068	0.134
-374.844	-30.151	-0.085	0.049
-373.829	259.845	0.108	-0.187
-372.815	67.948	0.209	0.215
-371.800	-24.902	0.233	-0.139
-370.785	-200.000	-0.027	0.236
-369.771	-200.000	0.012	0.107
-368.756	264.610	0.072	0.125
-367.742	105.502	-0.323	-0.383
-366.727	-200.000	-0.003	0.395
-365.712	175.623	0.131	-0.190
-364.698	310.606	-0.048	0.091
-363.683	95.344	-0.095	-0.108
-362.669	42.829	0.204	-0.187
-361.654	800.000	0.037	-0.120
-360.639	-56.175	0.283	-0.126
-359.625	3.283	-0.105	-0.076
-358.610	-200.000	-0.032	-0.385
-357.596	587.387	0.078	0.193
-356.581	281.350	0.138	-0.247
-355.566	343.112	-0.089	-0.175
-354.552	-143.426	0.240	0.023
-353.537	-87.809	0.256	-0.077
-352.523	-146.837	0.375	0.032
-351.508	800.000	-0.097	0.300
-350.493	-200.000	0.030	-0.249
-349.479	111.282	0.115	-0.139
-348.464	800.000	-0.131	0.477
-347.450	-200.000	0.040	0.371
-346.435	-200.000	-0.032	0.176
-345.420	800.000	-0.065	-0.191
-344.406	32.700	-0.092	-0.080
-343.391	-9.922	-0.211	0.141
-342.377	91.678	-0.100	-0.113
-341.362	-72.684	-0.509	-0.188
-340.348	-3.341	-0.097	0.068
-339.333	456.258	-0.094	-0.208
-338.318	-99.807	0.150	-0.038
-337.304	191.201	-0.121	0.183
-336.289	-200.000	-0.038	0.256
-335.275	-200.000	-0.048	0.255
-334.260	-52.543	0.158	0.073
-333.245	272.089	0.011	-0.019
-332.231	-38.143	-0.158	0.084
-331.216	-124.179	0.131	0.021
-330.202	494.262	0.061	-0.141
-329.187	-124.394	0.100	-0.016
-328.172	-110.812	0.295	0.061
-327.158	55.428	0.020	-0.020
-326.143	370.091	0.089	0.180
-325.129	-56.057	0.176	0.079
-324.114	440.132	0.113	-0.247
-323.099	-111.464	0.225	-0.046
-322.085	-200.000	0.021	0.299
-321.070	-200.000	-0.018	0.182
-320.056	-117.873	-0.195	-0.035
-319.041	-200.000	0.003	0.164
-318.026	-132.199	0.394	-0.051
-317.012	-200.000	0.061	-0.422
-315.997	6.518	-0.124	0.093
-314.983	335.189	-0.070	0.137
-313.968	-114.616	0.170	0.033
-312.953	-120.141	0.221	0.038
-311.939	-62.515	-0.428	0.178
-310.924	-200.000	-0.004	0.066
-309.910	-119.482	0.141	0.024
-308.895	-50.836	0.049	-0.023
-307.880	146.270	-0.051	-0.069
-306.866	-14.019	-0.391	-0.253
-305.851	99.757	0.078	-0.091
-304.837	-61.562	-0.158	0.066
-303.822	497.986	-0.034	-0.077
-302.807	-200.000	0.010	0.119
-301.793	176.408	-0.322	-0.469
-300.778	278.369	0.096	-0.170
-299.764	211.014	-0.195	0.307
-298.749	-90.252	-0.317	0.092
-297.735	-53.699	-0.398	-0.182
-296.720	-13.988	-0.070	0.045
-295.705	-72.831	-0.189	-0.069
-294.691	-1.382	0.059	-0.042
-293.676	-52.069	0.283	-0.132
-292.662	157.779	0.207	-0.286
-291.647	496.010	-0.100	-0.231
-290.632	107.930	0.147	0.175
-289.618	-65.649	0.260	0.104
-288.603	800.000	-0.073	0.219
-287.589	101.063	0.217	0.252
-286.574	155.239	-0.072	-0.099
-285.559	542.734	0.024	-0.058
-284.545	-200.000	-0.002	-0.069
-283.530	-131.030	-0.037	0.005
-282.516	800.000	0.009	-0.034
-281.501	15.208	-0.069	-0.054
-280.486	268.210	-0.066	-0.116
-279.472	800.000	-0.034	-0.133
-278.457	199.857	-0.056	0.086
-277.443	51.834	-0.084	0.080
-276.428	16.922	0.268	-0.213
-275.413	-200.000	0.018	0.270
-274.399	258.001	-0.126	-0.217
-273.384	-200.000	-0.027	-0.167
-272.370	41.101	0.197	-0.178
-271.355	-200.000	0.038	-0.258
-270.340	-112.807	0.331	-0.066
-269.326	-200.000	-0.016	-0.169
-268.311	312.975	-0.060	-0.113
-267.297	-200.000	-0.001	0.137
-266.282	-100.901	0.297	0.073
-265.267	-155.563	0.150	-0.010
-264.253	-8.139	-0.201	0.135
-263.238	-25.414	0.357	0.211
-262.224	-14.321	0.077	-0.050
-261.209	-155.189	-0.266	0.017
-260.195	567.666	-0.073	-0.176
-259.180	-115.852	0.199	0.037
-258.165	-29.308	0.175	-0.100
-257.151	81.017	0.073	0.079
-256.136	-200.000	-0.023	0.151
-255.122	22.943	-0.203	0.166
-254.107	41.116	-0.224	-0.203
-253.092	607.654	0.092	-0.228
-252.078	-167.339	0.243	-0.010
-251.063	-45.198	-0.037	-0.018
-250.049	-200.000	-0.029	-0.167
-249.034	-33.165	-0.335	0.186
-248.019	513.366	0.116	-0.271
-247.005	11.923	0.150	0.115
-245.990	80.178	-0.078	0.084
-244.976	290.676	-0.060	-0.109
-243.961	117.948	-0.163	-0.201
-242.946	-102.770	-0.340	0.081
-241.932	644.861	-0.110	0.280
-240.917	-159.398	-0.111	0.006
-239.903	800.000	-0.099	-0.313
-238.888	-200.000	0.022	0.193
-237.873	471.798	0.162	0.363
-236.859	-38.856	0.234	0.123
-235.844	-200.000	0.029	-0.203
-234.830	112.103	-0.041	-0.049
-233.815	-60.044	-0.280	0.119
-232.800	800.000	0.024	0.075
-231.786	-35.855	0.086	-0.046
-230.771	-60.138	-0.117	0.050
-229.757	-200.000	-0.008	-0.078
-228.742	169.623	0.177	-0.253
-227.727	128.161	-0.176	-0.223
-226.713	-200.000	0.030	-0.146
-225.698	-78.809	-0.307	-0.105
-224.684	-200.000	0.008	0.274
-223.669	-200.000	-0.011	-0.269
-222.655	800.000	-0.110	-0.381
-221.640	236.081	-0.073	-0.121
-220.625	-0.003	0.140	0.099
-219.611	-120.006	0.463	-0.079
-218.596	-63.388	-0.155	0.064
-217.582	119.770	-0.076	-0.094
-216.567	-134.042	-0.255	0.031
-215.552	69.161	0.022	-0.023
-214.538	800.000	0.064	0.260
-213.523	56.304	0.256	0.249
-212.509	-200.000	-0.081	-0.551
-211.494	311.058	0.208	-0.389
-210.479	19.244	0.092	0.074
-209.465	-200.000	0.007	-0.047
-208.450	-132.742	-0.219	-0.028
-207.436	-44.050	-0.094	0.047
-206.421	-200.000	-0.004	0.040
-205.406	-95.797	0.135	0.036
-204.392	-200.000	-0.002	-0.312
-203.377	60.624	0.235	0.232
-202.363	85.941	0.100	-0.109
-201.348	-46.597	0.102	-0.050
-200.333	800.000	-0.015	0.045
-199.319	-5.592	0.097	-0.066
-198.304	-97.295	0.226	-0.059
-197.290	-88.853	-0.260	0.077
-196.275	-200.000	-0.004	0.206
-195.260	-129.714	-0.224	0.031
-194.246	-140.590	-0.284	-0.029
-193.231	405.137	-0.107	0.224
-192.217	-137.257	-0.247	0.028
-191.202	370.834	-0.155	0.314
-190.187	-172.728	0.075	0.002
-189.173	-200.000	0.037	-0.201
-188.158	-200.000	0.021	0.286
-187.144	-32.178	0.353	0.197
-186.129	481.562	0.101	-0.228
-185.114	214.089	-0.069	-0.109
-184.100	-55.564	-0.191	0.085
-183.085	267.169	0.289	0.504
-182.071	-18.038	-0.159	0.099
-181.056	800.000	0.083	0.262
-180.042	-200.000	0.058	-0.377
-179.027	-200.000	0.027	0.143
-178.012	800.000	0.078	0.274
-176.998	-103.391	-0.108	-0.025
-175.983	-119.490	0.207	0.036
-174.969	-46.947	0.289	0.141
-173.954	-44.308	-0.244	-0.122
-172.939	51.280	-0.128	0.121
-171.925	-200.000	-0.004	-0.252
-170.910	394.316	-0.101	0.210
-169.896	277.033	-0.021	-0.038
-168.881	509.567	-0.113	-0.263
-167.866	-118.239	-0.256	0.045
-166.852	800.000	0.035	-0.108
-165.837	512.982	-0.048	0.112
-164.823	800.000	-0.109	0.457
-163.808	-200.000	-0.017	-0.176
-162.793	32.258	0.186	0.160
-161.779	800.000	0.058	-0.169
-160.764	-166.318	-0.506	0.021
-159.750	-67.375	-0.106	-0.042
-158.735	-49.120	-0.119	-0.057
-157.720	56.302	0.204	0.198
-156.706	-77.337	0.150	0.052
-155.691	316.619	0.052	0.098
-154.677	42.743	0.232	-0.210
-153.662	-200.000	-0.011	0.251
-152.647	-133.729	-0.167	0.021
-151.633	243.747	-0.097	-0.161
-150.618	-46.398	0.161	-0.079
-149.604	72.581	0.101	0.105
-148.589	-171.038	-0.137	0.005
-147.574	68.280	0.161	0.164
-146.560	71.464	-0.269	-0.277
-145.545	-200.000	0.066	-0.294
-144.531	572.547	0.155	0.376
-143.516	9.116	0.183	0.138
-142.502	-200.000	-0.070	0.000
-141.487	37.934	-0.104	-0.092
-140.472	353.229	-0.107	0.211
-139.458	29.315	0.244	0.206
-138.443	-158.103	-0.509	0.030
-137.429	-164.163	0.258	0.012
-136.414	-39.855	0.136	-0.071
-135.399	-59.896	-0.060	-0.026
-134.385	800.000	-0.109	-0.337
-133.370	-37.238	0.099	-0.053
-132.356	28.319	0.129	-0.109
-131.341	27.149	-0.144	0.120
-130.326	-200.000	0.015	-0.530
-129.312	-105.244	0.307	0.070
-128.297	-200.000	-0.003	-0.040
-127.283	43.302	0.270	0.245
-126.268	-105.447	0.202	0.046
-125.253	-101.135	0.087	0.021
-124.239	357.309	-0.171	0.339
-123.224	-48.710	0.281	-0.134
-122.210	-103.490	-0.136	-0.032
-121.195	72.498	0.176	-0.182
-120.180	8.621	0.093	-0.069
-119.166	132.250	0.119	-0.152
-118.151	22.772	0.284	-0.231
-117.137	15.431	-0.129	0.101
-116.122	-80.678	0.427	0.141
-115.107	-26.865	-0.036	-0.021
-114.093	800.000	-0.102	-0.363
-113.078	2.117	0.283	0.203
-112.064	37.282	0.109	0.096
-111.049	-200.000	-0.021	0.124
-110.034	-83.570	0.367	0.117
-109.020	-200.000	0.031	0.135
-108.005	37.071	0.454	0.399
-106.991	-166.456	0.104	-0.004
-105.976	33.834	0.165	0.143
-104.962	-200.000	0.006	0.141
-103.947	-200.000	-0.003	-0.092
-102.932	37.747	0.086	0.076
-101.918	-200.000	0.021	0.335
-100.903	-171.065	0.061	0.002
-99.889	-200.000	-0.022	-0.216
-98.874	-104.879	-0.470	0.107
-97.859	-200.000	-0.007	0.080
-96.845	800.000	-0.035	0.112
-95.830	800.000	0.018	-0.074
-94.816	-200.000	-0.017	0.188
-93.801	-125.268	0.232	0.035
-92.786	-200.000	-0.026	-0.218
-91.772	800.000	-0.134	0.440
-90.757	453.161	-0.125	0.274
-89.743	800.000	0.048	0.159
-88.728	174.067	-0.076	-0.108
-87.713	-200.000	0.001	0.130
-86.699	-43.188	-0.060	-0.030
-85.684	-3.634	-0.037	-0.026
-84.670	-93.534	-0.407	0.112
-83.655	-200.000	-0.007	0.185
-82.640	407.488	-0.183	-0.385
-81.626	-20.318	-0.244	-0.149
-80.611	800.000	0.061	-0.218
-79.597	-93.697	-0.044	-0.012
-78.582	41.185	-0.269	-0.241
-77.567	294.539	0.134	0.243
-76.553	800.000	0.044	0.145
-75.538	800.000	0.033	0.117
-74.524	76.295	0.164	-0.172
-73.509	-16.831	-0.139	0.087
-72.494	-80.699	-0.095	0.031
-71.480	800.000	0.030	0.127
-70.465	-200.000	0.000	-0.237
-69.451	-4.261	-0.204	0.140
-68.436	12.206	0.501	0.383
-67.422	-20.066	-0.183	0.112
-66.407	800.000	0.086	-0.239
-65.392	235.872	0.279	-0.457
-64.378	226.664	-0.197	0.317
-63.363	-28.010	0.288	-0.165
-62.349	-181.297	0.067	0.001
-61.334	68.288	-0.753	-0.765
-60.319	687.566	-0.156	0.404
-59.305	-200.000	-0.003	-0.974
-58.290	169.824	0.583	0.826
-57.276	298.627	0.801	1.461
-56.261	-200.000	88.526	497.503
-55.246	471.062	1377.792	3072.883
-54.232	149.275	2585.191	3469.372
-53.217	113.807	2190.387	2639.371
-52.203	48.765	1644.987	1529.678
-51.188	41.123	1378.774	1234.911
-50.173	37.801	1335.329	1175.947
-49.159	56.990	1380.468	1333.800
-48.144	61.756	1399.332	1381.202
-47.130	41.488	1355.726	1216.302
-46.115	37.878	1337.895	1178.480
-45.100	37.555	1333.400	1172.533
-44.086	37.571	1330.756	1170.253
-43.071	37.490	1328.258	1167.526
-42.057	37.425	1326.174	1165.258
-41.042	37.512	1324.585	1164.334
-40.027	37.587	1323.200	1163.519
-39.013	37.581	1321.149	1161.636
-37.998	37.496	1319.406	1159.550
-36.984	37.570	1317.297	1158.092
-35.969	37.601	1315.554	1156.697
-34.954	37.720	1313.835	1155.849
-33.940	37.739	1312.063	1154.352
-32.925	37.816	1310.624	1153.496
-31.911	37.831	1309.488	1152.543
-30.896	37.792	1308.286	1151.206
-29.881	37.728	1307.058	1149.704
-28.867	37.725	1305.619	1148.372
-27.852	37.871	1303.530	1147.354
-26.838	37.750	1302.547	1145.729
-25.823	37.848	1300.896	1144.806
-24.809	37.762	1299.381	1142.924
-23.794	37.653	1298.618	1141.570
-22.779	37.750	1296.659	1140.366
-21.765	37.774	1295.460	1139.409
-20.750	37.714	1294.236	1137.935
-19.736	37.684	1293.071	1136.690
-18.721	37.592	1291.928	1135.105
-17.706	37.603	1290.155	1133.566
-16.692	37.577	1289.319	1132.638
-15.677	37.558	1288.310	1131.595
-14.663	37.596	1287.302	1130.885
-13.648	37.717	1285.476	1129.935
-12.633	37.598	1285.013	1128.794
-11.619	37.699	1283.704	1128.185
-10.604	37.553	1283.221	1126.870
-9.590	37.752	1281.406	1126.386
-8.575	37.650	1281.118	1125.498
-7.560	37.501	1280.444	1123.999
-6.546	37.609	1279.310	1123.582
-5.531	37.675	1278.216	1122.955
-4.517	37.635	1277.408	1121.971
-3.502	37.593	1276.667	1121.032
-2.487	37.520	1275.520	1119.563
-1.473	37.505	1271.705	1116.081
-0.458	35.513	1255.233	1090.287
0.556	31.270	1234.762	1041.493
1.571	26.628	1236.979	1017.263
2.586	25.216	1251.283	1020.906
3.600	24.130	1240.114	1005.578
4.615	17.600	1165.968	910.589
5.629	7.416	1087.065	797.898
6.644	2.904	1065.410	759.653
7.659	2.544	1062.319	755.606
8.673	2.262	1060.774	753.051
9.688	2.362	1059.536	752.601
10.702	2.702	1058.346	753.356
11.717	8.648	1067.203	788.979
12.731	18.819	1081.964	850.422
13.746	24.479	1089.202	884.157
14.761	25.884	1090.560	892.138
15.775	25.950	1090.229	892.119
16.790	25.819	1088.683	890.124
17.804	25.641	1088.295	888.848
18.819	25.682	1088.228	888.922
19.834	25.878	1087.591	889.287
20.848	25.890	1087.610	889.284
21.863	25.912	1086.914	888.746
22.877	25.998	1085.877	888.243
23.892	25.891	1085.363	887.216
24.907	25.934	1084.937	887.001
25.921	25.925	1083.405	885.625
26.936	25.859	1082.036	884.106
27.950	25.683	1080.906	882.239
28.965	25.676	1078.694	880.324
29.980	25.803	1077.468	879.865
30.994	25.896	1076.575	879.513
32.009	25.964	1075.631	878.994
33.023	25.784	1074.324	876.970
34.038	25.712	1073.791	876.107
35.053	25.974	1072.795	876.490
36.067	25.959	1072.116	875.789
37.082	25.980	1071.627	875.411
38.096	26.173	1070.960	875.724
39.111	26.295	1070.007	875.461
40.126	26.054	1068.745	873.183
41.140	25.646	1066.866	869.600
42.155	25.427	1065.705	867.522
43.169	25.490	1064.653	866.892
44.184	25.412	1064.129	866.011
45.199	25.516	1062.566	865.162
46.213	25.654	1061.996	865.287
47.228	25.635	1061.692	864.869
48.242	25.737	1060.685	864.464
49.257	25.886	1059.947	864.499
50.271	26.023	1059.123	864.408
51.286	26.067	1058.352	863.911
52.301	25.959	1057.616	862.716
53.315	25.854	1056.255	861.030
54.330	25.932	1055.534	860.740
55.344	25.792	1054.879	859.463
56.359	25.871	1053.850	858.923
57.374	25.609	1053.039	856.940
58.388	25.675	1052.347	856.615
59.403	25.537	1051.392	855.104
60.417	25.513	1050.385	854.094
61.432	25.471	1050.204	853.674
62.447	25.722	1049.030	853.835
63.461	25.662	1048.410	852.969
64.476	25.601	1047.398	851.783
65.490	25.486	1046.495	850.427
66.505	25.566	1045.870	850.225
67.520	25.556	1045.584	849.869
68.534	25.350	1044.461	847.906
69.549	25.118	1043.239	845.744
70.563	25.070	1042.468	844.820
71.578	25.117	1042.000	844.589
72.593	24.946	1040.884	842.806
73.607	25.162	1040.059	843.074
74.622	25.430	1039.840	844.086
75.636	25.419	1039.041	843.309
76.651	25.322	1037.911	841.864
77.666	25.234	1037.516	841.057
78.680	25.297	1036.509	840.461
79.695	25.345	1036.394	840.514
80.709	25.511	1035.625	840.595
81.724	25.397	1034.411	839.003
82.739	25.484	1033.943	838.956
83.753	25.817	1033.567	840.128
84.768	26.130	1032.737	840.838
85.782	26.155	1032.135	840.389
86.797	26.103	1030.706	838.910
87.812	26.051	1029.780	837.842
88.826	26.125	1028.663	837.203
89.841	26.063	1028.067	836.356
90.855	26.153	1026.769	835.642
91.870	26.208	1026.104	835.283
92.884	26.044	1024.730	833.329
93.899	25.891	1024.271	832.176
94.914	26.124	1023.036	832.174
95.928	25.960	1021.783	830.326
96.943	25.711	1020.778	828.292
97.957	25.611	1019.654	826.845
98.972	25.424	1018.444	824.933
99.987	25.643	1017.758	825.308
101.001	25.875	1017.479	826.073
102.016	25.791	1016.906	825.152
103.030	25.687	1015.948	823.822
104.045	25.690	1014.635	822.699
105.060	25.367	1014.176	820.778
106.074	25.577	1013.060	820.761
107.089	25.909	1012.634	821.858
108.103	25.859	1011.328	820.498
109.118	25.610	1009.933	818.162
110.133	25.636	1009.330	817.717
111.147	25.494	1007.845	815.797
112.162	25.282	1006.796	813.916
113.176	25.544	1006.140	814.502
114.191	25.390	1005.731	813.400
115.206	25.054	1004.639	810.927
116.220	25.214	1003.418	810.592
117.235	25.200	1002.880	810.021
118.249	25.300	1002.291	809.926
119.264	25.212	1001.205	808.579
120.279	25.201	1000.584	807.958
121.293	25.252	999.785	807.469
122.308	25.220	999.015	806.631
123.322	25.151	997.809	805.279
124.337	25.054	996.472	803.693
125.352	24.597	994.503	799.986
126.366	24.633	993.813	799.524
127.381	25.255	994.212	802.556
128.395	25.782	993.873	804.565
129.410	25.811	992.946	803.876
130.424	25.863	991.835	803.134
131.439	25.863	990.960	802.357
132.454	25.813	990.245	801.483
133.468	25.714	989.281	800.192
134.483	25.912	988.753	800.573
135.497	25.912	988.030	799.917
136.512	26.036	986.923	799.498
137.527	26.011	986.349	798.854
138.541	26.105	985.504	798.515
139.556	26.064	984.525	797.468
140.570	26.167	983.818	797.280
141.585	26.217	983.112	796.858
142.600	26.197	981.432	795.337
143.614	26.216	981.250	795.204
144.629	26.437	980.165	795.226
145.643	26.290	978.749	793.363
146.658	26.046	977.224	790.986
147.673	25.957	976.463	789.909
148.687	25.855	975.255	788.418
149.702	25.838	974.730	787.849
150.716	25.849	973.614	786.924
151.731	25.913	973.087	786.709
152.746	26.072	972.606	786.942
153.760	26.233	971.857	786.969
154.775	26.231	971.549	786.642
155.789	26.331	970.119	785.850
156.804	26.364	969.273	785.239
157.819	26.215	969.078	784.365
158.833	26.455	967.987	784.449
159.848	26.187	967.343	782.697
160.862	26.117	966.048	781.279
161.877	25.969	965.373	780.025
162.892	26.391	963.700	780.423
163.906	26.098	962.779	778.345
164.921	26.104	961.977	777.654
165.935	26.223	961.007	777.313
166.950	26.254	959.943	776.518
167.964	26.229	959.486	775.973
168.979	26.176	958.009	774.481
169.994	26.016	957.525	773.335
171.008	26.204	957.237	773.843
172.023	26.406	955.855	773.519
173.037	26.145	954.571	771.297
174.052	25.872	953.908	769.529
175.067	25.909	953.313	769.136
176.081	25.984	952.925	769.077
177.096	25.873	952.261	768.000
178.110	25.730	951.122	766.405
179.125	25.241	951.258	764.361
180.140	25.557	950.191	764.781
181.154	25.797	949.910	765.510
182.169	26.028	949.906	766.419
183.183	26.217	949.347	766.703
184.198	26.158	948.335	765.566
185.213	26.045	947.754	764.553
186.227	26.199	947.375	764.829
187.242	26.101	946.827	763.905
188.256	26.220	945.902	763.597
189.271	26.306	945.215	763.335
190.286	25.872	943.863	760.346
191.300	25.180	942.607	756.350
192.315	24.530	940.535	751.884
193.329	24.361	940.631	751.185
194.344	25.337	941.190	755.675
195.359	25.901	940.976	757.807
196.373	26.151	940.459	758.373
197.388	26.029	939.736	757.211
198.402	26.020	939.154	756.636
199.417	26.125	938.426	756.423
200.432	25.683	937.629	753.864
201.446	25.658	936.933	753.133
202.461	25.727	936.136	752.713
203.475	24.951	934.160	747.821
204.490	24.124	932.917	743.307
205.504	24.959	933.333	747.058
206.519	25.637	933.138	749.665
207.534	25.759	932.732	749.779
208.548	26.175	932.399	751.176
209.563	25.803	931.786	749.068
210.577	25.865	930.996	748.625
211.592	26.472	930.353	750.561
212.607	26.309	929.890	749.446
213.621	26.323	929.397	749.037
214.636	26.214	928.433	747.743
215.650	26.203	927.789	747.113
216.665	26.281	927.333	747.001
217.680	26.396	926.200	746.499
218.694	25.850	925.181	743.361
219.709	25.593	924.646	741.803
220.723	25.962	923.895	742.658
221.738	26.137	923.657	743.119
222.753	25.950	923.170	741.892
223.767	26.016	922.833	741.829
224.782	26.323	922.354	742.639
225.796	26.321	922.100	742.361
226.811	25.607	920.395	737.995
227.826	25.011	918.997	734.364
228.840	25.226	918.295	734.622
229.855	25.416	917.466	734.668
230.869	24.929	916.972	732.219
231.884	25.394	916.513	733.685
232.899	26.039	916.718	736.419
233.913	25.967	915.994	735.480
234.928	25.970	915.405	734.955
235.942	25.915	914.723	734.115
236.957	25.562	914.186	732.185
237.972	25.672	913.443	731.970
238.986	25.755	912.958	731.856
240.001	25.748	912.326	731.257
241.015	25.814	911.852	731.078
242.030	25.883	911.530	731.036
243.045	25.986	911.332	731.229
244.059	26.206	910.644	731.506
245.074	25.872	909.602	729.253
246.088	25.788	908.329	727.827
247.103	26.007	908.073	728.440
248.117	26.469	908.523	730.604
249.132	26.659	907.972	730.864
250.147	26.887	907.110	731.025
251.161	26.834	907.016	730.670
252.176	26.879	906.254	730.172
253.190	27.153	905.690	730.755
254.205	27.161	905.485	730.559
255.220	27.121	904.456	729.502
256.234	26.965	904.086	728.512
257.249	27.008	903.017	727.760
258.263	26.971	902.471	727.107
259.278	27.093	901.823	727.009
260.293	26.942	901.363	725.971
261.307	26.926	900.715	725.317
262.322	26.752	899.841	723.857
263.336	25.941	897.873	718.977
264.351	25.010	896.028	713.729
265.366	25.208	895.660	714.160
266.380	26.022	896.706	718.175
267.395	26.524	896.293	719.777
268.409	26.497	895.605	719.055
269.424	26.581	895.292	719.073
270.439	26.727	894.172	718.689
271.453	26.710	893.916	718.351
272.468	27.050	893.735	719.490
273.482	27.103	892.806	718.888
274.497	26.583	892.091	716.192
275.512	26.106	891.207	713.532
276.526	26.688	890.995	715.601
277.541	26.840	890.833	716.006
278.555	26.617	889.668	714.127
279.570	26.511	889.031	713.136
280.585	26.724	888.185	713.234
281.599	26.717	887.295	712.425
282.614	26.007	886.302	708.776
283.628	25.911	885.854	707.979
284.643	26.327	885.865	709.557
285.657	25.997	884.501	707.110
286.672	25.715	883.540	705.176
287.687	26.300	883.339	707.243
288.701	26.364	882.892	707.070
289.716	26.090	882.365	705.515
290.730	26.055	881.441	704.577
291.745	25.931	880.484	703.265
292.760	26.007	880.358	703.401
293.774	27.021	881.069	707.863
294.789	27.326	880.550	708.570
295.803	27.409	879.972	708.366
296.818	27.522	879.071	708.016
297.833	27.032	877.787	705.017
298.847	26.648	877.606	703.318
299.862	27.130	877.410	704.969
300.876	27.348	877.024	705.442
301.891	27.246	876.356	704.448
302.906	26.806	875.518	702.012
303.920	26.883	875.249	702.031
304.935	27.247	875.072	703.235
305.949	27.249	874.064	702.369
306.964	27.028	873.570	701.057
307.979	27.075	872.750	700.517
308.993	27.465	872.726	701.940
310.008	27.380	872.264	701.179
311.022	27.123	871.434	699.460
312.037	27.146	870.467	698.709
313.052	26.756	869.837	696.646
314.066	25.746	868.373	691.535
315.081	25.410	867.753	689.690
316.095	26.341	867.982	693.384
317.110	26.930	867.445	695.150
318.125	26.076	866.062	690.712
319.139	24.897	864.837	685.166
320.154	24.849	864.903	684.971
321.168	25.896	864.862	688.884
322.183	26.615	864.880	691.585
323.197	26.781	864.459	691.821
324.212	27.004	864.279	692.467
325.227	27.099	863.753	692.346
326.241	26.901	862.813	690.776
327.256	26.792	861.972	689.627
328.270	26.905	861.217	689.392
329.285	26.572	860.521	687.511
330.300	26.426	859.820	686.335
331.314	26.584	859.645	686.734
332.329	27.095	859.659	688.620
333.343	27.135	859.368	688.477
334.358	27.130	858.700	687.865
335.373	27.193	858.493	687.877
336.387	27.379	858.518	688.538
337.402	27.615	858.248	689.152
338.416	27.555	857.823	688.524
339.431	27.570	857.548	688.298
340.446	27.829	857.068	688.831
341.460	27.623	856.491	687.527
342.475	27.406	856.259	686.466
343.489	27.537	855.755	686.494
344.504	27.770	855.641	687.217
345.519	28.067	855.264	687.973
346.533	28.141	854.290	687.407
347.548	27.946	854.136	686.489
348.562	27.894	853.382	685.626
349.577	27.821	852.980	684.968
350.592	27.973	851.909	684.618
351.606	27.873	851.224	683.634
352.621	27.714	850.416	682.329
353.635	27.706	849.974	681.885
354.650	27.174	847.953	678.216
355.665	26.034	846.658	672.871
356.679	26.488	846.863	674.667
357.694	26.893	846.137	675.540
358.708	26.822	845.422	674.646
359.723	27.284	845.425	676.305
360.738	27.352	845.352	676.439
361.752	27.605	844.636	676.748
362.767	28.113	844.194	678.218
363.781	28.211	843.971	678.342
364.796	28.359	843.921	678.790
365.810	28.415	842.960	678.162
366.825	28.283	843.022	677.663
367.840	27.989	842.111	675.786
368.854	27.671	840.933	673.606
369.869	27.900	840.023	673.661
370.883	27.849	840.146	673.514
371.898	27.688	839.564	672.394
372.913	27.781	839.491	672.619
373.927	27.968	838.684	672.599
374.942	27.919	838.659	672.341
375.956	28.025	838.025	672.163
376.971	28.256	837.963	672.901
377.986	28.426	837.825	673.356
379.000	28.277	837.100	672.168
380.015	28.186	836.329	671.157
381.029	28.089	835.794	670.310
382.044	28.293	835.196	670.518
383.059	28.282	834.552	669.903
384.073	28.313	833.958	669.478
385.088	28.220	833.494	668.709
386.102	28.040	832.589	667.264
387.117	27.901	832.261	666.437
388.132	27.504	831.494	664.315
389.146	27.114	830.184	661.790
390.161	27.539	830.128	663.234
391.175	27.944	830.108	664.634
392.190	27.555	829.374	662.575
393.205	26.214	826.845	655.631
394.219	24.890	824.851	649.194
395.234	24.504	824.889	647.766
396.248	26.239	825.869	654.772
397.263	27.727	826.781	660.831
398.278	27.749	826.592	660.703
399.292	27.439	826.078	659.110
400.307	27.495	825.670	658.929
401.321	27.617	824.913	658.708
402.336	28.011	824.940	660.097
403.350	28.385	825.081	661.501
404.365	28.707	825.046	662.575
405.380	29.162	824.176	663.458
406.394	28.979	823.975	662.579
407.409	29.009	823.474	662.225
408.423	28.989	822.818	661.568
409.438	28.981	822.669	661.358
410.453	29.049	822.387	661.319
411.467	28.866	821.974	660.271
412.482	28.907	821.389	659.891
413.496	29.024	820.956	659.902
414.511	28.993	820.458	659.331
415.526	29.001	820.022	658.954
416.540	28.977	818.993	657.981
417.555	28.543	818.666	656.109
418.569	28.653	818.445	656.268
419.584	28.521	817.856	655.266
420.599	28.505	817.142	654.579
421.613	103.550	1278.658	1421.355
422.628	89.487	1345.906	1421.475
