DTS Sentinel unit serial number:	SN413079Multiplexer serial number:	ORYXHardware model number:	OX4-SRSoftware version number:	ORYX F/W v4.00 Oryx Data Collector v3.7.2.0data status	okinstallation	princeton_trtdifferential loss correction	single-endedforward channel	channel 1reverse channel	N/Adate	2019/09/15time	11:26:35forward acquisition time	60.00reverse acquisition time	0.00gamma	496.2192k internal	0.2308k external	0.2308temperature offset calibration	0.9990default loss term (dB/km)	0.3790temperature slope calibration	1.0000multiplexer offset coefficient	1.0000multiplexer slope coefficient	1.0000fibre end	0.00T internal ref (°C)	34.31T ext. ref 1 (°C)	5.03T ext. ref 2 (°C)	29.66length (m)	temperature (°C)	Stokes	anti-Stokes-747.200	197.807	0.236	0.367
-746.185	800.000	-0.145	0.449
-745.171	-200.000	-0.013	-0.088
-744.156	166.044	-0.308	0.443
-743.142	-33.260	0.021	0.012
-742.127	177.008	-0.234	0.347
-741.112	-150.328	-0.339	-0.027
-740.098	800.000	0.040	0.163
-739.083	-168.077	0.179	-0.007
-738.069	234.475	-0.068	0.114
-737.054	73.475	0.189	-0.201
-736.039	111.109	-0.073	0.090
-735.025	-60.180	0.318	-0.138
-734.010	800.000	0.063	0.252
-732.996	-59.925	-0.195	-0.084
-731.981	-18.186	-0.226	0.144
-730.966	-200.000	0.042	-0.280
-729.952	54.916	-0.126	-0.123
-728.937	-41.551	-0.303	-0.158
-727.923	95.030	0.042	-0.048
-726.908	800.000	0.096	-0.302
-725.894	27.322	0.255	-0.218
-724.879	-64.201	-0.092	-0.038
-723.864	276.867	-0.068	-0.122
-722.850	51.233	-0.167	-0.161
-721.835	-187.861	-0.099	0.001
-720.821	-52.514	0.367	-0.172
-719.806	195.407	-0.118	0.182
-718.791	800.000	-0.075	0.265
-717.777	-123.815	-0.336	-0.054
-716.762	-200.000	0.021	-0.341
-715.748	-94.937	-0.205	-0.056
-714.733	800.000	-0.018	0.067
-713.718	490.046	0.159	-0.368
-712.704	234.097	-0.035	-0.058
-711.689	-67.487	-0.430	0.171
-710.675	40.423	0.129	-0.118
-709.660	-170.808	-0.150	-0.005
-708.645	-3.052	-0.086	0.061
-707.631	-42.572	0.036	0.019
-706.616	114.493	-0.114	-0.141
-705.602	-200.000	0.000	-0.263
-704.587	9.617	-0.170	0.130
-703.572	10.922	0.145	-0.112
-702.558	43.223	-0.177	-0.164
-701.543	-135.825	-0.263	-0.032
-700.529	275.637	-0.119	0.214
-699.514	-200.000	-0.002	0.190
-698.499	-200.000	0.016	-0.314
-697.485	127.009	-0.221	-0.285
-696.470	800.000	0.031	0.130
-695.456	178.234	-0.107	0.158
-694.441	-50.478	0.282	-0.135
-693.426	-200.000	-0.009	-0.188
-692.412	-55.054	-0.230	-0.105
-691.397	-80.844	-0.364	-0.122
-690.383	423.970	0.072	0.156
-689.368	-98.211	0.176	0.046
-688.354	49.406	0.084	-0.080
-687.339	-43.630	-0.097	-0.049
-686.324	346.146	-0.100	-0.200
-685.310	-109.166	-0.382	-0.082
-684.295	452.537	0.159	-0.356
-683.281	-200.000	-0.071	-0.456
-682.266	-126.024	-0.034	-0.005
-681.251	-200.000	-0.019	0.176
-680.237	336.341	-0.162	-0.319
-679.222	800.000	0.021	-0.059
-678.208	-10.656	-0.246	-0.165
-677.193	-38.817	0.292	0.156
-676.178	77.515	-0.325	-0.350
-675.164	-200.000	-0.014	0.135
-674.149	-95.250	-0.301	-0.082
-673.135	184.593	-0.218	-0.328
-672.120	33.086	-0.211	0.186
-671.105	-200.000	-0.024	-0.110
-670.091	124.112	0.292	-0.372
-669.076	703.074	0.068	-0.182
-668.062	-200.000	0.002	-0.320
-667.047	-200.000	-0.007	-0.199
-666.032	-160.891	-0.553	-0.030
-665.018	4.888	-0.042	0.032
-664.003	686.704	0.042	-0.112
-662.989	-200.000	0.011	-0.105
-661.974	-200.000	-0.014	0.237
-660.959	800.000	-0.034	0.096
-659.945	359.346	0.136	0.276
-658.930	-138.577	-0.258	-0.029
-657.916	35.813	0.055	0.049
-656.901	23.686	0.149	0.124
-655.886	-200.000	-0.032	-0.415
-654.872	417.450	-0.116	-0.250
-653.857	-200.000	0.017	0.137
-652.843	201.349	0.099	-0.155
-651.828	-88.036	0.062	-0.019
-650.814	155.693	-0.129	-0.180
-649.799	-200.000	0.012	0.152
-648.784	51.208	0.176	0.169
-647.770	-6.889	0.180	-0.124
-646.755	-20.171	0.212	0.132
-645.741	-81.375	-0.297	0.099
-644.726	-200.000	0.030	0.381
-643.711	40.348	-0.410	-0.374
-642.697	457.772	-0.019	0.042
-641.682	-35.669	0.269	0.148
-640.668	11.312	-0.056	-0.044
-639.653	-200.000	-0.009	-0.205
-638.638	296.589	-0.107	0.198
-637.624	70.454	-0.083	0.087
-636.609	-109.254	0.209	0.045
-635.595	65.257	0.141	-0.144
-634.580	451.422	-0.036	0.081
-633.565	87.441	-0.141	0.158
-632.551	-200.000	-0.153	0.000
-631.536	132.623	-0.199	-0.260
-630.522	134.163	-0.082	-0.107
-629.507	110.851	0.111	-0.136
-628.492	800.000	0.091	-0.339
-627.478	470.979	0.084	0.191
-626.463	41.921	0.226	-0.207
-625.449	497.934	0.001	-0.003
-624.434	12.299	-0.093	0.073
-623.419	-200.000	-0.018	-0.417
-622.405	102.930	-0.111	-0.131
-621.390	37.240	0.291	0.261
-620.376	689.989	-0.131	0.347
-619.361	-200.000	-0.013	0.181
-618.346	-41.145	-0.037	0.019
-617.332	-200.000	0.004	-0.185
-616.317	-160.665	0.125	-0.007
-615.303	800.000	-0.078	-0.234
-614.288	385.733	-0.077	-0.162
-613.273	292.434	0.062	0.114
-612.259	-95.590	-0.292	0.079
-611.244	-183.259	0.123	-0.002
-610.230	-135.853	0.363	0.043
-609.215	-9.452	-0.303	-0.204
-608.201	-20.778	-0.316	0.196
-607.186	163.549	0.160	-0.227
-606.171	-147.630	0.195	0.017
-605.157	-46.804	-0.348	0.172
-604.142	-200.000	-0.048	-0.229
-603.128	-52.490	-0.057	-0.027
-602.113	-70.450	0.161	0.062
-601.098	200.391	-0.053	0.082
-600.084	150.777	-0.169	0.232
-599.069	800.000	0.078	0.270
-598.055	53.152	-0.254	-0.246
-597.040	257.001	0.048	-0.083
-596.025	-200.000	-0.019	0.245
-595.011	-184.446	-0.132	-0.002
-593.996	-200.000	-0.005	-0.272
-592.982	-142.811	-0.061	0.006
-591.967	-18.804	-0.269	0.169
-590.952	264.379	0.107	0.189
-589.938	-103.881	0.167	0.039
-588.923	-146.863	0.102	-0.009
-587.909	-33.846	0.132	0.073
-586.894	509.421	-0.063	-0.148
-585.879	511.370	0.221	-0.519
-584.865	-137.614	-0.143	0.016
-583.850	56.310	-0.059	-0.058
-582.836	800.000	0.040	0.140
-581.821	794.338	0.105	0.291
-580.806	-16.990	-0.223	-0.142
-579.792	-80.681	0.121	-0.041
-578.777	-200.000	-0.002	-0.220
-577.763	-64.250	-0.225	-0.092
-576.748	-119.720	0.265	-0.046
-575.733	-84.048	-0.216	-0.069
-574.719	800.000	0.028	-0.116
-573.704	-200.000	-0.029	-0.308
-572.690	-200.000	-0.026	0.201
-571.675	-66.345	-0.362	0.145
-570.661	-97.866	0.300	0.078
-569.646	-89.889	0.285	0.084
-568.631	185.420	-0.225	-0.337
-567.617	33.236	-0.082	-0.071
-566.602	-200.000	-0.019	0.096
-565.588	256.542	0.103	0.178
-564.573	800.000	-0.087	-0.252
-563.558	-200.000	-0.046	0.244
-562.544	-10.371	-0.212	0.142
-561.529	-200.000	0.016	0.379
-560.515	493.573	-0.123	0.285
-559.500	50.583	0.308	-0.294
-558.485	-53.460	-0.061	-0.028
-557.471	-52.700	0.131	0.061
-556.456	715.302	0.079	-0.211
-555.442	-96.712	-0.177	0.047
-554.427	-36.019	-0.187	-0.102
-553.412	16.111	0.207	-0.164
-552.398	389.237	0.049	-0.102
-551.383	-148.476	-0.324	0.027
-550.369	800.000	-0.042	0.145
-549.354	91.210	-0.058	-0.066
-548.339	732.860	-0.062	0.167
-547.325	-93.154	-0.209	-0.059
-546.310	205.441	0.234	0.366
-545.296	800.000	-0.057	0.239
-544.281	-111.459	-0.231	0.047
-543.266	-56.801	-0.250	-0.111
-542.252	183.978	0.051	-0.076
-541.237	-200.000	0.031	0.242
-540.223	800.000	0.020	0.075
-539.208	-200.000	-0.012	0.111
-538.193	-154.754	-0.017	-0.001
-537.179	191.038	-0.186	-0.282
-536.164	211.863	-0.168	-0.266
-535.150	-57.401	-0.134	0.059
-534.135	45.103	0.250	-0.232
-533.121	-200.000	0.027	-0.146
-532.106	-200.000	-0.020	0.173
-531.091	40.602	-0.061	0.056
-530.077	175.137	0.112	-0.163
-529.062	73.152	0.170	0.179
-528.048	143.316	-0.114	-0.153
-527.033	195.305	0.145	-0.222
-526.018	-200.000	0.025	-0.232
-525.004	-31.428	0.113	0.064
-523.989	-75.798	0.374	-0.134
-522.975	30.921	0.240	0.207
-521.960	-78.737	-0.313	-0.108
-520.945	7.414	-0.300	0.226
-519.931	-88.571	0.494	-0.148
-518.916	22.511	-0.297	-0.244
-517.902	100.977	-0.211	-0.247
-516.887	-200.000	0.011	-0.185
-515.872	-171.617	0.100	0.003
-514.858	13.099	-0.201	-0.156
-513.843	-63.259	0.044	-0.018
-512.829	800.000	-0.059	-0.187
-511.814	33.827	-0.184	-0.161
-510.799	-111.611	0.271	0.055
-509.785	19.469	0.234	0.189
-508.770	56.642	0.093	0.091
-507.756	-166.805	0.162	0.007
-506.741	-26.718	-0.018	0.011
-505.726	242.930	-0.069	0.117
-504.712	-84.412	-0.171	0.054
-503.697	-13.718	0.199	0.129
-502.683	622.294	-0.083	-0.210
-501.668	800.000	0.070	0.226
-500.653	-200.000	0.005	-0.096
-499.639	-126.178	-0.130	-0.020
-498.624	-132.763	0.280	0.036
-497.610	-117.446	-0.217	0.040
-496.595	100.495	0.433	0.506
-495.581	-30.366	-0.192	0.110
-494.566	62.004	0.203	0.204
-493.551	268.463	0.169	0.297
-492.537	800.000	-0.038	-0.154
-491.522	-81.285	0.168	0.056
-490.508	-101.401	0.211	0.052
-489.493	-200.000	0.005	0.094
-488.478	-76.694	-0.292	0.103
-487.464	-200.000	-0.261	0.000
-486.449	256.515	0.150	0.260
-485.435	-31.751	-0.385	0.217
-484.420	800.000	-0.128	0.372
-483.405	-162.356	0.215	0.011
-482.391	-200.000	-0.048	-0.443
-481.376	800.000	-0.044	0.158
-480.362	-118.054	-0.074	0.013
-479.347	348.743	0.043	-0.085
-478.332	-56.844	0.278	-0.124
-477.318	-108.255	-0.299	-0.065
-476.303	-27.526	0.092	0.054
-475.289	129.358	0.086	0.111
-474.274	-60.083	0.126	0.054
-473.259	-98.157	-0.187	0.048
-472.245	-89.964	0.073	0.022
-471.230	63.103	0.312	-0.314
-470.216	-200.000	0.028	0.199
-469.201	-200.000	-0.008	-0.166
-468.186	-105.670	-0.182	-0.041
-467.172	800.000	0.005	-0.017
-466.157	-91.134	-0.427	-0.123
-465.143	12.988	-0.100	-0.078
-464.128	-71.269	0.165	0.062
-463.113	-200.000	-0.017	-0.145
-462.099	-48.529	0.113	-0.055
-461.084	710.471	0.089	0.237
-460.070	-200.000	0.008	-0.100
-459.055	-200.000	0.045	0.538
-458.040	-51.629	0.116	0.054
-457.026	800.000	0.025	-0.084
-456.011	33.152	-0.130	0.113
-454.997	800.000	-0.020	0.075
-453.982	-14.646	0.103	0.066
-452.968	800.000	0.071	0.276
-451.953	-200.000	0.088	0.478
-450.938	681.646	-0.041	-0.108
-449.924	339.553	-0.050	-0.098
-448.909	800.000	-0.074	0.306
-447.895	225.281	-0.083	0.135
-446.880	-63.552	-0.134	-0.055
-445.865	42.211	-0.136	-0.125
-444.851	-80.812	0.102	-0.034
-443.836	-200.000	0.048	-0.254
-442.822	-134.633	-0.380	0.047
-441.807	1.993	-0.189	-0.137
-440.792	-111.697	-0.186	0.038
-439.778	76.560	-0.343	0.365
-438.763	-127.119	-0.288	-0.042
-437.749	-2.928	0.103	-0.072
-436.734	-118.939	-0.098	-0.017
-435.719	286.217	-0.044	0.079
-434.705	315.808	0.124	0.234
-433.690	800.000	0.047	-0.195
-432.676	418.041	0.120	0.256
-431.661	18.496	-0.300	-0.241
-430.646	162.502	0.142	0.199
-429.632	-44.952	-0.287	-0.143
-428.617	-167.730	0.143	0.006
-427.603	-155.049	0.330	-0.022
-426.588	219.040	0.111	-0.178
-425.573	-200.000	0.018	-0.152
-424.559	-47.033	0.165	-0.081
-423.544	265.433	-0.202	-0.353
-422.530	153.013	-0.040	-0.054
-421.515	-88.640	-0.131	-0.039
-420.500	-130.681	0.142	-0.019
-419.486	22.650	0.272	-0.224
-418.471	62.513	0.046	0.046
-417.457	-85.265	0.218	0.068
-416.442	627.045	0.167	0.424
-415.428	800.000	0.036	-0.101
-414.413	45.599	0.282	-0.261
-413.398	204.791	0.173	0.269
-412.384	60.635	-0.174	0.173
-411.369	-88.937	0.281	0.084
-410.355	-115.692	0.287	-0.054
-409.340	466.321	0.106	-0.237
-408.325	-200.000	0.054	-0.246
-407.311	379.718	0.033	-0.069
-406.296	-4.272	0.074	0.051
-405.282	-200.000	-0.213	-0.001
-404.267	91.814	0.075	-0.085
-403.252	-20.324	-0.260	0.161
-402.238	-92.475	0.076	0.021
-401.223	800.000	0.043	-0.176
-400.209	-129.665	-0.196	0.027
-399.194	-125.014	-0.258	-0.040
-398.179	-200.000	-0.008	0.113
-397.165	95.142	-0.031	-0.035
-396.150	-149.883	0.121	-0.009
-395.136	-200.000	0.015	0.088
-394.121	800.000	0.042	-0.139
-393.106	82.795	-0.034	0.037
-392.092	97.122	0.060	0.069
-391.077	1.696	0.307	0.221
-390.063	374.605	-0.053	-0.108
-389.048	-200.000	0.018	-0.234
-388.033	800.000	-0.069	-0.250
-387.019	-200.000	0.001	0.158
-386.004	308.897	0.120	-0.225
-384.990	123.330	-0.221	-0.277
-383.975	-123.939	0.066	-0.010
-382.960	-200.000	-0.012	0.199
-381.946	-6.859	-0.107	0.073
-380.931	800.000	-0.062	0.192
-379.917	19.734	-0.158	0.128
-378.902	74.724	-0.203	0.214
-377.888	41.493	0.284	-0.257
-376.873	-66.576	0.334	-0.133
-375.858	-60.616	0.079	0.034
-374.844	172.730	0.108	-0.155
-373.829	-171.977	0.149	-0.005
-372.815	-200.000	-0.003	-0.031
-371.800	75.908	-0.050	0.053
-370.785	-200.000	0.115	0.565
-369.771	-190.878	-0.108	-0.001
-368.756	-59.163	-0.291	0.126
-367.742	-200.000	0.024	0.296
-366.727	85.325	-0.204	0.224
-365.712	215.395	0.138	-0.218
-364.698	91.895	0.198	-0.223
-363.683	287.177	-0.129	-0.233
-362.669	-68.590	-0.211	0.082
-361.654	58.848	0.105	0.103
-360.639	-23.269	-0.128	0.077
-359.625	180.388	-0.055	-0.080
-358.610	-5.736	0.123	0.085
-357.596	-121.728	-0.180	0.030
-356.581	-61.277	-0.236	-0.100
-355.566	800.000	0.048	0.135
-354.552	-43.491	0.452	-0.229
-353.537	506.601	0.114	0.265
-352.523	90.319	-0.128	0.143
-351.508	-119.793	0.343	-0.059
-350.493	183.579	0.166	-0.245
-349.479	-200.000	0.041	-0.221
-348.464	-149.188	-0.178	0.014
-347.450	-200.000	0.004	-0.021
-346.435	800.000	-0.020	0.057
-345.420	-25.716	-0.184	0.109
-344.406	285.418	-0.212	-0.382
-343.391	-110.832	-0.137	0.028
-342.377	142.981	-0.014	-0.018
-341.362	-132.614	0.531	0.068
-340.348	536.837	-0.058	-0.138
-339.333	-102.695	-0.113	0.027
-338.318	-200.000	0.025	-0.141
-337.304	-180.557	0.154	0.003
-336.289	25.138	-0.228	-0.189
-335.275	-6.709	0.120	-0.082
-334.260	-72.558	0.378	0.139
-333.245	288.385	-0.093	0.169
-332.231	399.681	0.152	0.319
-331.216	-71.260	0.201	-0.075
-330.202	-77.212	0.241	0.084
-329.187	-98.233	-0.209	-0.054
-328.172	-200.000	-0.003	0.107
-327.158	-175.016	0.321	0.009
-326.143	-133.639	-0.034	-0.004
-325.129	800.000	-0.110	-0.426
-324.114	-94.366	-0.114	0.031
-323.099	136.232	-0.070	0.092
-322.085	-134.048	-0.140	0.017
-321.070	258.284	-0.088	-0.152
-320.056	506.553	0.086	0.199
-319.041	-200.000	0.004	0.129
-318.026	800.000	-0.066	-0.226
-317.012	-116.747	0.216	-0.040
-315.997	-77.810	-0.149	0.051
-314.983	171.824	0.062	0.089
-313.968	653.729	-0.079	-0.202
-312.953	-70.264	0.236	0.089
-311.939	7.993	0.246	-0.184
-310.924	141.621	-0.238	0.315
-309.910	-200.000	-0.006	-0.122
-308.895	412.020	-0.012	-0.025
-307.880	246.174	-0.161	0.272
-306.866	-200.000	0.003	0.093
-305.851	-55.859	0.174	-0.077
-304.837	-47.763	-0.099	-0.048
-303.822	-200.000	-0.001	0.162
-302.807	-200.000	0.054	0.258
-301.793	-41.236	-0.320	0.165
-300.778	35.397	0.210	0.184
-299.764	-200.000	0.014	-0.107
-298.749	-11.424	-0.187	-0.123
-297.735	-190.915	0.173	-0.002
-296.720	-200.000	-0.010	-0.094
-295.705	800.000	0.039	0.156
-294.691	-106.535	0.232	-0.052
-293.676	800.000	0.013	0.039
-292.662	48.523	-0.161	0.151
-291.647	800.000	0.054	-0.218
-290.632	-200.000	-0.004	-0.339
-289.618	-105.956	0.077	0.017
-288.603	800.000	-0.056	0.182
-287.589	68.362	0.061	0.062
-286.574	-200.000	-0.023	0.150
-285.559	-200.000	-0.012	0.106
-284.545	800.000	-0.100	0.336
-283.530	800.000	0.050	-0.198
-282.516	330.432	-0.085	0.163
-281.501	-200.000	-0.008	-0.250
-280.486	-159.454	0.117	-0.006
-279.472	739.097	0.027	0.072
-278.457	61.853	0.301	-0.299
-277.443	800.000	0.113	0.350
-276.428	-200.000	0.000	0.019
-275.413	55.482	0.142	0.137
-274.399	-25.625	-0.411	-0.242
-273.384	800.000	0.031	-0.119
-272.370	431.862	0.063	-0.135
-271.355	-146.746	0.102	-0.009
-270.340	-20.930	-0.118	0.072
-269.326	-33.525	-0.077	0.042
-268.311	-200.000	-0.012	-0.077
-267.297	-52.478	-0.384	-0.177
-266.282	186.958	-0.142	-0.211
-265.267	-72.758	-0.304	-0.112
-264.253	-136.655	-0.269	-0.031
-263.238	121.150	-0.096	-0.120
-262.224	-79.587	0.219	-0.074
-261.209	-28.169	0.186	-0.107
-260.195	-133.835	-0.203	0.025
-259.180	-24.701	-0.134	0.079
-258.165	-200.000	0.014	0.198
-257.151	-200.000	-0.009	-0.080
-256.136	-123.135	0.363	0.058
-255.122	264.069	-0.116	-0.202
-254.107	71.674	0.156	0.162
-253.092	-200.000	0.015	-0.094
-252.078	711.893	0.099	0.261
-251.063	34.224	0.211	0.183
-250.049	-126.741	-0.299	-0.044
-249.034	-200.000	0.027	-0.146
-248.019	-123.651	-0.161	0.025
-247.005	306.115	-0.062	-0.115
-245.990	-61.256	0.230	-0.097
-244.976	309.376	-0.013	0.025
-243.961	-116.189	-0.307	-0.057
-242.946	48.181	0.165	-0.153
-241.932	296.802	-0.215	0.393
-240.917	-64.687	0.100	-0.040
-239.903	-2.335	-0.158	-0.110
-238.888	0.837	-0.155	0.111
-237.873	65.301	0.093	0.094
-236.859	53.150	0.115	0.110
-235.844	38.176	0.095	0.084
-234.830	800.000	-0.007	0.026
-233.815	-18.469	0.196	-0.122
-232.800	48.328	0.181	0.169
-231.786	-200.000	0.004	0.088
-230.771	-92.675	0.252	0.070
-229.757	92.649	0.204	-0.229
-228.742	161.163	0.184	0.257
-227.727	19.310	-0.158	0.126
-226.713	-200.000	0.002	-0.027
-225.698	77.684	-0.224	-0.237
-224.684	-34.279	-0.092	-0.050
-223.669	800.000	0.070	-0.219
-222.655	-68.175	0.158	0.061
-221.640	88.682	0.173	0.192
-220.625	-27.428	-0.271	0.157
-219.611	-76.852	-0.338	0.118
-218.596	-12.477	-0.221	0.143
-217.582	-15.162	-0.195	0.125
-216.567	122.404	0.143	0.178
-215.552	263.659	-0.152	0.264
-214.538	58.685	0.108	-0.106
-213.523	-161.886	0.128	0.006
-212.509	-92.133	0.239	-0.067
-211.494	-121.360	-0.338	-0.056
-210.479	56.987	0.175	-0.169
-209.465	364.813	0.053	0.107
-208.450	73.327	0.106	0.110
-207.436	703.707	-0.057	0.149
-206.421	-78.324	0.146	0.050
-205.406	-200.000	-0.019	-0.359
-204.392	-137.650	-0.337	-0.038
-203.377	-200.000	0.016	0.116
-202.363	290.180	0.158	-0.285
-201.348	26.103	0.065	0.054
-200.333	-137.870	0.299	0.033
-199.319	62.763	-0.083	-0.082
-198.304	-161.993	-0.442	-0.022
-197.290	-61.306	0.129	-0.054
-196.275	-20.271	0.106	-0.065
-195.260	-8.579	0.142	-0.095
-194.246	-200.000	-0.023	-0.120
-193.231	44.875	0.140	-0.129
-192.217	-75.530	-0.230	-0.081
-191.202	722.147	-0.103	0.273
-190.187	-200.000	0.016	0.226
-189.173	73.759	0.253	-0.264
-188.158	22.722	0.417	0.339
-187.144	-200.000	0.048	0.287
-186.129	-88.563	0.167	0.049
-185.114	-129.345	0.325	0.045
-184.100	-200.000	0.052	-0.330
-183.085	-50.444	0.206	-0.097
-182.071	39.083	-0.193	-0.172
-181.056	-135.921	0.273	0.032
-180.042	9.575	0.032	-0.024
-179.027	473.088	-0.143	0.320
-178.012	-76.203	-0.301	-0.106
-176.998	-108.376	0.053	-0.011
-175.983	-200.000	0.002	-0.258
-174.969	800.000	-0.061	0.244
-173.954	-86.848	-0.140	0.042
-172.939	-42.157	0.184	0.093
-171.925	-102.760	-0.069	-0.016
-170.910	-22.654	0.321	-0.193
-169.896	-69.842	-0.355	0.135
-168.881	-194.475	-0.231	0.002
-167.866	-28.926	0.254	-0.145
-166.852	451.838	0.154	-0.337
-165.837	-200.000	0.005	-0.207
-164.823	-149.816	-0.427	-0.033
-163.808	-79.885	0.158	0.053
-162.793	106.528	-0.180	-0.213
-161.779	-29.137	0.130	-0.074
-160.764	-64.028	-0.284	-0.115
-159.750	350.935	0.013	0.025
-158.735	-145.392	-0.167	-0.015
-157.720	38.971	-0.189	0.168
-156.706	800.000	-0.054	-0.181
-155.691	687.312	0.106	-0.275
-154.677	-38.554	-0.410	-0.215
-153.662	235.158	0.048	-0.078
-152.647	800.000	0.079	-0.307
-151.633	-75.673	0.118	0.042
-150.618	43.900	-0.274	0.250
-149.604	800.000	0.090	-0.319
-148.589	-24.510	-0.313	-0.185
-147.574	17.988	-0.025	-0.020
-146.560	764.101	-0.085	-0.230
-145.545	800.000	-0.048	-0.155
-144.531	55.031	0.033	0.032
-143.516	74.476	-0.285	-0.298
-142.502	-49.731	-0.085	-0.040
-141.487	-200.000	0.024	-0.131
-140.472	-25.988	0.146	-0.086
-139.458	-200.000	0.006	0.410
-138.443	-124.926	0.082	-0.013
-137.429	800.000	-0.088	-0.264
-136.414	-31.731	0.138	-0.077
-135.399	33.275	-0.273	-0.235
-134.385	800.000	-0.104	-0.353
-133.370	123.962	-0.251	0.313
-132.356	-200.000	-0.001	-0.010
-131.341	602.455	0.141	0.348
-130.326	-200.000	-0.031	-0.291
-129.312	800.000	-0.064	-0.262
-128.297	-200.000	-0.029	0.546
-127.283	199.642	-0.081	0.124
-126.268	-76.313	-0.323	0.113
-125.253	-84.382	0.252	0.079
-124.239	-82.220	-0.255	-0.082
-123.224	800.000	-0.025	-0.103
-122.210	-200.000	-0.010	-0.084
-121.195	17.573	-0.259	-0.204
-120.180	12.791	0.207	0.159
-119.166	62.316	0.038	0.038
-118.151	800.000	-0.040	-0.124
-117.137	130.015	-0.178	-0.225
-116.122	-29.473	0.430	-0.244
-115.107	79.192	-0.136	0.145
-114.093	94.012	0.130	-0.146
-113.078	574.492	0.123	0.297
-112.064	667.180	0.057	0.145
-111.049	-9.863	-0.355	0.234
-110.034	470.529	-0.113	-0.251
-109.020	800.000	0.065	-0.227
-108.005	800.000	0.010	-0.031
-106.991	371.450	0.105	0.211
-105.976	-101.917	0.339	-0.081
-104.962	-42.322	0.272	-0.138
-103.947	-113.018	-0.501	0.098
-102.932	12.616	-0.227	-0.173
-101.918	158.270	0.127	-0.174
-100.903	-200.000	-0.040	0.181
-99.889	-56.915	-0.278	0.122
-98.874	412.185	0.134	-0.282
-97.859	31.157	-0.051	-0.044
-96.845	-200.000	0.015	0.132
-95.830	149.031	-0.031	-0.041
-94.816	-81.977	0.317	-0.103
-93.801	-200.000	0.005	-0.404
-92.786	-165.909	-0.109	-0.005
-91.772	-21.132	0.160	0.097
-90.757	-62.234	-0.180	-0.074
-89.743	-95.443	-0.282	-0.075
-88.728	219.778	0.119	-0.189
-87.713	-56.771	-0.603	0.264
-86.699	-131.331	0.175	-0.023
-85.684	-108.654	0.135	-0.029
-84.670	-10.807	0.263	-0.172
-83.655	-34.503	0.061	-0.033
-82.640	-118.971	0.165	0.029
-81.626	407.973	-0.143	0.299
-80.611	-0.301	0.091	-0.064
-79.597	-133.114	-0.188	0.024
-78.582	800.000	-0.099	-0.290
-77.567	-157.143	0.300	-0.018
-76.553	-88.813	-0.197	-0.058
-75.538	-200.000	-0.023	0.197
-74.524	-139.113	-0.100	-0.011
-73.509	134.438	-0.230	-0.295
-72.494	159.784	-0.096	-0.133
-71.480	368.837	0.078	0.156
-70.465	442.175	0.192	-0.416
-69.451	126.168	0.167	0.209
-68.436	206.187	0.145	0.223
-67.422	800.000	-0.074	0.209
-66.407	-40.134	-0.081	0.042
-65.392	182.243	0.210	-0.306
-64.378	-95.714	-0.517	0.137
-63.363	-200.000	0.032	-0.180
-62.349	-156.147	0.230	0.014
-61.334	69.921	-0.880	-0.898
-60.319	-29.933	0.525	0.296
-59.305	-200.000	-0.193	-1.188
-58.290	800.000	0.332	0.981
-57.276	800.000	0.446	1.746
-56.261	-200.000	97.087	569.562
-55.246	625.428	1398.402	3489.290
-54.232	186.469	2606.628	3838.110
-53.217	120.391	2182.942	2681.239
-52.203	46.098	1631.911	1494.647
-51.188	37.741	1367.098	1200.820
-50.173	34.552	1324.099	1143.925
-49.159	55.744	1373.514	1316.503
-48.144	59.949	1390.694	1358.543
-47.130	38.081	1345.597	1183.813
-46.115	34.585	1327.419	1146.813
-45.100	34.293	1322.708	1140.945
-44.086	34.243	1320.696	1138.869
-43.071	34.195	1318.036	1136.243
-42.057	34.192	1315.968	1134.398
-41.042	34.216	1314.328	1133.079
-40.027	34.371	1312.639	1132.499
-39.013	34.184	1311.337	1130.222
-37.998	34.192	1309.354	1128.513
-36.984	34.245	1307.622	1127.290
-35.969	34.338	1305.459	1125.933
-34.954	34.362	1303.763	1124.567
-33.940	34.388	1303.178	1124.172
-32.925	34.534	1300.982	1123.091
-31.911	34.474	1299.886	1121.745
-30.896	34.463	1298.401	1120.358
-29.881	34.444	1297.583	1119.496
-28.867	34.349	1296.029	1117.554
-27.852	34.393	1294.360	1116.325
-26.838	34.490	1292.755	1115.464
-25.823	34.355	1292.079	1114.049
-24.809	34.393	1290.448	1112.819
-23.794	34.403	1289.247	1111.796
-22.779	34.312	1287.619	1109.823
-21.765	34.444	1285.950	1109.107
-20.750	34.334	1285.174	1107.755
-19.736	34.294	1283.815	1106.305
-18.721	34.256	1282.529	1104.934
-17.706	34.124	1281.874	1103.560
-16.692	34.286	1280.129	1102.949
-15.677	34.291	1278.891	1101.872
-14.663	34.279	1277.642	1100.679
-13.648	34.151	1277.392	1099.684
-12.633	34.293	1275.429	1098.768
-11.619	34.225	1274.848	1097.833
-10.604	34.282	1274.654	1097.948
-9.590	34.352	1272.758	1096.675
-8.575	34.225	1272.102	1095.337
-7.560	34.176	1271.382	1094.390
-6.546	34.290	1270.414	1094.168
-5.531	34.228	1269.849	1093.282
-4.517	34.157	1268.834	1091.959
-3.502	34.252	1267.940	1091.691
-2.487	34.339	1266.543	1090.941
-1.473	34.289	1262.652	1087.262
-0.458	33.010	1247.762	1067.181
0.556	28.282	1229.822	1027.979
1.571	24.484	1234.880	1010.660
2.586	23.416	1250.578	1017.292
3.600	22.680	1240.511	1004.823
4.615	17.663	1168.186	919.165
5.629	9.345	1091.740	816.852
6.644	5.325	1071.285	781.409
7.659	5.009	1069.049	778.131
8.673	4.896	1067.828	776.610
9.688	4.891	1066.197	775.330
10.702	5.240	1064.573	775.815
11.717	10.456	1071.976	807.174
12.731	17.720	1081.780	850.859
13.746	19.570	1082.993	860.973
14.761	18.156	1081.272	852.485
15.775	17.092	1078.542	844.965
16.790	16.009	1076.678	838.048
17.804	15.300	1075.183	833.286
18.819	14.903	1073.847	830.208
19.834	14.640	1072.435	827.736
20.848	14.434	1071.915	826.240
21.863	14.110	1071.410	824.172
22.877	14.092	1070.297	823.157
23.892	14.023	1069.885	822.425
24.907	14.067	1069.032	821.913
25.921	14.130	1067.572	821.029
26.936	14.084	1066.678	820.040
27.950	14.220	1065.224	819.522
28.965	14.203	1063.942	818.379
29.980	14.322	1062.063	817.444
30.994	14.308	1061.050	816.527
32.009	14.339	1060.166	815.921
33.023	14.290	1059.312	814.954
34.038	14.365	1057.752	814.051
35.053	14.157	1057.162	812.507
36.067	14.125	1056.365	811.667
37.082	14.194	1055.144	810.994
38.096	14.231	1054.775	810.815
39.111	14.342	1053.829	810.560
40.126	14.173	1052.345	808.526
41.140	14.043	1050.986	806.777
42.155	14.018	1049.579	805.504
43.169	13.830	1049.127	804.176
44.184	13.878	1047.707	803.250
45.199	13.932	1046.463	802.483
46.213	13.965	1045.589	801.902
47.228	14.129	1044.621	801.882
48.242	14.166	1043.302	800.975
49.257	14.193	1042.501	800.419
50.271	14.111	1041.659	799.308
51.286	14.132	1041.010	798.842
52.301	14.175	1039.756	798.013
53.315	14.188	1038.864	797.323
54.330	14.114	1037.501	795.849
55.344	14.139	1036.843	795.394
56.359	13.984	1036.019	793.951
57.374	14.068	1034.892	793.420
58.388	13.884	1034.369	792.072
59.403	13.924	1033.453	791.487
60.417	14.044	1032.221	791.045
61.432	13.888	1031.835	789.937
62.447	13.766	1031.227	788.824
63.461	13.890	1030.071	788.458
64.476	13.817	1029.184	787.365
65.490	13.828	1028.332	786.695
66.505	13.945	1027.710	786.702
67.520	13.894	1026.917	785.783
68.534	13.948	1026.277	785.483
69.549	13.910	1025.356	784.525
70.563	13.909	1024.687	783.939
71.578	13.871	1023.746	782.970
72.593	13.736	1023.014	781.706
73.607	13.745	1022.590	781.356
74.622	13.918	1021.510	781.277
75.636	13.827	1020.995	780.384
76.651	13.817	1020.610	779.974
77.666	13.804	1019.725	779.167
78.680	13.916	1018.889	778.984
79.695	13.917	1017.858	778.133
80.709	13.892	1017.721	777.844
81.724	13.920	1017.152	777.469
82.739	14.013	1016.228	777.132
83.753	14.170	1015.639	777.342
84.768	14.214	1014.851	776.880
85.782	14.207	1014.014	776.135
86.797	14.092	1013.579	775.196
87.812	14.146	1012.387	774.470
88.826	14.234	1011.383	774.042
89.841	14.185	1010.203	772.841
90.855	14.206	1009.475	772.317
91.870	14.358	1008.285	772.042
92.884	14.287	1007.873	771.328
93.899	14.359	1006.605	770.621
94.914	14.418	1005.491	769.973
95.928	14.332	1005.011	769.142
96.943	14.403	1003.969	768.602
97.957	14.267	1003.313	767.407
98.972	14.282	1002.216	766.568
99.987	14.160	1001.555	765.433
101.001	14.089	1000.831	764.487
102.016	14.335	999.334	764.402
103.030	14.323	998.783	763.860
104.045	14.314	998.085	763.215
105.060	14.176	997.203	761.843
106.074	14.033	996.295	760.427
107.089	14.009	995.323	759.510
108.103	14.006	994.372	758.703
109.118	14.078	993.312	758.155
110.133	14.060	992.278	757.215
111.147	14.087	991.563	756.726
112.162	14.016	991.118	755.998
113.176	14.062	990.040	755.316
114.191	14.037	989.551	754.763
115.206	13.934	988.896	753.729
116.220	14.035	987.833	753.313
117.235	14.060	986.735	752.520
118.249	13.978	985.610	751.225
119.264	14.177	985.094	751.663
120.279	14.052	984.014	750.209
121.293	13.928	983.516	749.204
122.308	14.009	982.297	748.575
123.322	13.919	981.435	747.446
124.337	13.915	980.771	746.858
125.352	14.057	979.442	746.417
126.366	14.080	978.416	745.672
127.381	14.051	977.273	744.602
128.395	13.986	976.477	743.643
129.410	14.071	975.697	743.361
130.424	14.072	975.179	742.904
131.439	14.125	974.283	742.394
132.454	14.299	973.389	742.424
133.468	14.092	972.895	741.058
134.483	14.117	971.959	740.392
135.497	14.160	970.966	739.760
136.512	14.106	970.333	738.972
137.527	14.205	969.213	738.493
138.541	14.141	968.786	737.818
139.556	14.081	968.403	737.194
140.570	14.207	967.508	737.007
141.585	14.425	966.638	737.246
142.600	14.389	965.565	736.203
143.614	14.433	964.911	735.833
144.629	14.532	963.646	735.237
145.643	14.369	963.051	733.999
146.658	14.251	961.999	732.614
147.673	14.242	960.893	731.670
148.687	14.228	960.423	731.183
149.702	14.158	959.617	730.199
150.716	14.160	958.826	729.542
151.731	14.263	957.995	729.294
152.746	14.190	957.249	728.346
153.760	14.212	956.959	728.155
154.775	14.431	956.127	728.414
155.789	14.366	955.787	727.806
156.804	14.384	955.023	727.238
157.819	14.402	954.025	726.492
158.833	14.277	954.046	725.899
159.848	14.417	952.711	725.429
160.862	14.577	951.389	725.056
161.877	14.469	950.600	723.918
162.892	14.323	949.588	722.452
163.906	14.363	948.830	721.983
164.921	14.305	948.088	721.106
165.935	14.305	947.168	720.342
166.950	14.259	946.358	719.465
167.964	14.311	945.197	718.741
168.979	14.340	944.571	718.327
169.994	14.235	944.006	717.379
171.008	14.344	943.076	717.080
172.023	14.454	942.193	716.820
173.037	14.500	941.666	716.550
174.052	14.617	940.386	716.016
175.067	14.464	940.057	715.044
176.081	14.408	939.652	714.436
177.096	14.447	939.283	714.259
178.110	14.465	938.890	713.974
179.125	14.488	938.151	713.444
180.140	14.384	937.723	712.613
181.154	14.614	937.123	713.076
182.169	14.611	936.973	712.888
183.183	14.555	936.420	712.165
184.198	14.643	935.082	711.458
185.213	14.716	934.352	711.149
186.227	14.667	934.049	710.649
187.242	14.644	933.423	710.009
188.256	14.780	932.550	709.864
189.271	14.782	931.917	709.325
190.286	14.494	931.202	707.498
191.300	14.467	930.242	706.593
192.315	14.239	929.536	705.027
193.329	14.383	929.274	705.375
194.344	14.558	928.414	705.399
195.359	14.687	927.222	704.978
196.373	14.764	927.203	705.224
197.388	14.789	926.440	704.688
198.402	14.880	926.046	704.710
199.417	15.003	925.303	704.598
200.432	14.889	925.073	703.884
201.446	14.908	924.886	703.756
202.461	14.953	924.344	703.471
203.475	15.051	923.564	703.230
204.490	14.904	923.137	702.222
205.504	15.006	921.949	701.684
206.519	15.016	920.922	700.884
207.534	14.908	920.433	699.996
208.548	14.914	920.011	699.639
209.563	14.897	918.948	698.699
210.577	14.963	918.433	698.520
211.592	14.969	918.216	698.317
212.607	15.100	917.064	697.927
213.621	14.845	916.470	696.351
214.636	15.012	915.947	696.587
215.650	15.106	914.689	695.958
216.665	15.101	914.338	695.609
217.680	15.262	913.260	695.395
218.694	15.123	913.010	694.568
219.709	15.213	912.325	694.359
220.723	15.199	911.597	693.683
221.738	15.122	911.170	692.980
222.753	15.220	910.083	692.497
223.767	15.215	909.899	692.275
224.782	15.297	908.954	691.832
225.796	15.301	908.572	691.500
226.811	15.234	907.967	690.701
227.826	15.232	907.158	690.015
228.840	15.270	906.682	689.750
229.855	15.129	906.074	688.644
230.869	15.252	904.965	688.248
231.884	15.177	904.389	687.439
232.899	15.079	903.901	686.607
233.913	15.068	903.249	686.005
234.928	15.053	902.504	685.315
235.942	15.154	901.920	685.224
236.957	15.179	901.176	684.704
237.972	15.152	900.627	684.116
238.986	15.213	899.739	683.629
240.001	15.328	899.037	683.504
241.015	15.284	898.486	682.844
242.030	15.375	898.102	682.864
243.045	15.387	897.742	682.576
244.059	15.349	896.909	681.729
245.074	15.449	896.251	681.574
246.088	15.454	895.583	681.026
247.103	15.539	894.965	680.840
248.117	15.524	894.714	680.530
249.132	15.614	894.154	680.409
250.147	15.736	893.146	680.074
251.161	15.740	892.598	679.613
252.176	15.785	891.659	679.021
253.190	15.756	891.340	678.598
254.205	15.815	890.809	678.373
255.220	15.721	890.116	677.407
256.234	15.740	889.447	676.914
257.249	15.885	888.671	676.846
258.263	15.816	888.172	676.127
259.278	16.017	887.151	676.099
260.293	15.946	886.962	675.608
261.307	16.012	886.418	675.399
262.322	15.906	886.005	674.600
263.336	15.941	885.231	674.091
264.351	16.088	884.172	673.815
265.366	16.130	883.465	673.382
266.380	16.011	883.491	672.866
267.395	16.053	882.155	671.960
268.409	16.055	881.609	671.489
269.424	16.033	880.889	670.795
270.439	16.013	879.795	669.825
271.453	15.936	879.067	668.904
272.468	15.930	879.004	668.775
273.482	15.810	878.629	667.952
274.497	15.895	878.261	667.952
275.512	15.994	877.234	667.501
276.526	15.976	876.706	666.970
277.541	16.022	876.099	666.631
278.555	16.216	875.511	666.894
279.570	16.191	874.938	666.298
280.585	16.163	874.007	665.421
281.599	16.103	873.336	664.613
282.614	16.069	872.720	663.954
283.628	16.032	872.236	663.379
284.643	16.155	871.534	663.271
285.657	16.197	870.945	662.927
286.672	16.279	870.129	662.572
287.687	16.339	869.320	662.130
288.701	16.234	869.243	661.602
289.716	16.105	869.035	660.881
290.730	16.294	867.993	660.771
291.745	16.298	867.233	660.146
292.760	16.255	866.811	659.598
293.774	16.245	866.238	659.067
294.789	16.329	865.708	658.931
295.803	16.257	864.998	658.054
296.818	16.247	863.963	657.167
297.833	16.327	863.448	657.032
298.847	16.291	863.169	656.618
299.862	16.455	862.097	656.384
300.876	16.397	861.907	655.953
301.891	16.380	861.546	655.555
302.906	16.382	860.747	654.897
303.920	16.589	860.286	655.290
304.935	16.680	859.779	655.201
305.949	16.693	859.117	654.688
306.964	16.563	858.311	653.511
307.979	16.662	857.884	653.513
308.993	16.630	857.420	652.976
310.008	16.574	856.767	652.207
311.022	16.665	856.137	652.019
312.037	16.537	855.525	651.003
313.052	16.436	854.910	650.090
314.066	16.408	854.464	649.587
315.081	16.496	854.032	649.537
316.095	16.454	853.098	648.609
317.110	16.538	852.556	648.462
318.125	16.475	852.332	647.992
319.139	16.411	852.021	647.454
320.154	16.596	851.128	647.424
321.168	16.554	850.809	646.964
322.183	16.602	850.058	646.520
323.197	16.583	849.757	646.160
324.212	16.627	849.170	645.823
325.227	16.674	848.391	645.353
326.241	16.643	847.747	644.690
327.256	16.545	847.446	644.029
328.270	16.654	846.791	643.891
329.285	16.747	846.011	643.594
330.300	16.747	845.327	643.016
331.314	16.622	845.022	642.255
332.329	16.762	844.581	642.392
333.343	16.779	844.482	642.323
334.358	16.802	843.795	641.831
335.373	16.844	843.052	641.371
336.387	16.806	842.800	640.978
337.402	16.971	842.608	641.399
338.416	17.004	842.215	641.167
339.431	16.833	842.329	640.550
340.446	16.990	841.448	640.416
341.460	17.095	841.231	640.591
342.475	17.150	840.713	640.348
343.489	17.052	840.423	639.702
344.504	17.098	840.143	639.604
345.519	17.159	839.620	639.380
346.533	17.189	838.676	638.716
347.548	17.146	837.877	637.888
348.562	17.024	837.814	637.328
349.577	16.948	837.069	636.420
350.592	17.032	836.325	636.113
351.606	17.067	835.357	635.451
352.621	17.058	835.191	635.233
353.635	17.121	834.407	634.819
354.650	17.252	833.706	634.716
355.665	17.120	833.157	633.749
356.679	17.192	832.632	633.564
357.694	17.310	832.047	633.503
358.708	17.306	831.379	632.924
359.723	17.173	830.930	632.029
360.738	17.194	830.496	631.721
361.752	17.114	830.243	631.176
362.767	17.375	829.188	631.289
363.781	17.404	828.996	631.191
364.796	17.496	828.417	631.037
365.810	17.595	827.956	630.995
366.825	17.587	827.710	630.722
367.840	17.609	827.088	630.276
368.854	17.340	826.775	628.986
369.869	17.427	826.285	628.879
370.883	17.613	825.513	628.924
371.898	17.611	825.246	628.656
372.913	17.601	824.882	628.286
373.927	17.503	824.552	627.617
374.942	17.615	823.803	627.404
375.956	17.574	823.579	627.029
376.971	17.719	822.918	627.001
377.986	17.635	822.760	626.518
379.000	17.650	822.380	626.228
380.015	17.829	821.643	626.270
381.029	17.787	820.814	625.427
382.044	17.757	820.538	625.053
383.059	17.664	819.947	624.205
384.073	17.840	818.929	624.019
385.088	17.669	818.605	623.092
386.102	17.704	818.111	622.787
387.117	17.639	817.498	622.031
388.132	17.760	816.717	621.819
389.146	17.621	816.420	621.033
390.161	17.698	816.243	621.124
391.175	17.794	815.693	621.000
392.190	17.769	815.212	620.487
393.205	17.727	814.470	619.717
394.219	17.751	814.258	619.587
395.234	17.774	813.823	619.285
396.248	17.639	813.585	618.560
397.263	17.641	812.978	618.049
398.278	17.599	812.666	617.607
399.292	17.711	812.187	617.593
400.307	17.679	811.352	616.788
401.321	17.661	811.413	616.712
402.336	17.790	810.562	616.477
403.350	17.790	810.172	616.126
404.365	17.914	809.899	616.314
405.380	17.903	809.450	615.876
406.394	18.009	808.835	615.737
407.409	18.093	808.560	615.777
408.423	18.106	808.362	615.618
409.438	18.160	807.573	615.158
410.453	18.114	807.114	614.588
411.467	18.246	806.703	614.692
412.482	18.213	806.232	614.163
413.496	18.414	805.825	614.519
414.511	18.309	805.522	613.856
415.526	18.309	805.178	613.539
416.540	18.280	804.797	613.093
417.555	18.278	804.209	612.584
418.569	18.232	803.964	612.176
419.584	18.240	803.347	611.683
420.599	18.278	803.154	611.616
421.613	153.773	1369.940	1790.756
422.628	133.353	1452.530	1790.870
