DTS Sentinel unit serial number:	SN413079Multiplexer serial number:	ORYXHardware model number:	OX4-SRSoftware version number:	ORYX F/W v4.00 Oryx Data Collector v3.7.2.0data status	okinstallation	princeton_trtdifferential loss correction	single-endedforward channel	channel 1reverse channel	N/Adate	2019/09/14time	23:42:35forward acquisition time	60.00reverse acquisition time	0.00gamma	496.2192k internal	0.2319k external	0.2319temperature offset calibration	0.9993default loss term (dB/km)	0.3790temperature slope calibration	1.0000multiplexer offset coefficient	1.0000multiplexer slope coefficient	1.0000fibre end	0.00T internal ref (°C)	32.31T ext. ref 1 (°C)	4.64T ext. ref 2 (°C)	27.28length (m)	temperature (°C)	Stokes	anti-Stokes-747.200	-49.180	-0.049	-0.023
-746.185	2.289	0.150	0.110
-745.171	800.000	0.050	0.148
-744.156	-200.000	-0.060	0.464
-743.142	377.777	0.099	0.204
-742.127	479.318	-0.167	0.383
-741.112	-96.230	0.221	0.059
-740.098	800.000	-0.111	-0.314
-739.083	-156.477	-0.056	0.004
-738.069	800.000	-0.095	0.289
-737.054	479.123	-0.170	0.390
-736.039	-141.182	-0.228	0.024
-735.025	239.105	-0.152	-0.256
-734.010	-110.668	0.294	-0.061
-732.996	-200.000	0.035	-0.184
-731.981	-112.683	0.046	-0.009
-730.966	800.000	0.072	0.209
-729.952	-200.000	0.007	0.353
-728.937	800.000	0.058	-0.179
-727.923	800.000	0.101	-0.371
-726.908	-115.207	-0.055	0.011
-725.894	141.996	0.071	-0.095
-724.879	315.060	-0.167	-0.319
-723.864	-18.319	0.408	-0.258
-722.850	-200.000	-0.000	-0.364
-721.835	-97.284	-0.360	-0.095
-720.821	-200.000	-0.003	0.046
-719.806	-24.443	0.426	-0.257
-718.791	-88.573	0.530	-0.160
-717.777	-200.000	0.052	-0.317
-716.762	-11.960	0.227	-0.150
-715.748	-200.000	-0.053	-0.297
-714.733	800.000	0.029	0.112
-713.718	-88.385	-0.101	-0.030
-712.704	-200.000	0.027	-0.193
-711.689	91.082	-0.134	-0.152
-710.675	753.513	0.027	-0.074
-709.660	111.753	-0.059	-0.072
-708.645	56.601	-0.132	0.129
-707.631	112.529	0.081	0.099
-706.616	221.008	-0.216	-0.350
-705.602	-200.000	0.004	-0.030
-704.587	-114.580	0.032	-0.006
-703.572	-76.989	-0.351	-0.124
-702.558	123.001	0.319	-0.403
-701.543	29.554	-0.210	-0.180
-700.529	-46.309	-0.405	-0.201
-699.514	790.451	0.057	-0.158
-698.499	-200.000	-0.007	0.030
-697.485	-20.054	0.004	-0.002
-696.470	67.139	-0.158	-0.163
-695.456	499.161	-0.130	0.302
-694.441	374.861	-0.096	0.197
-693.426	-113.530	-0.188	0.037
-692.412	-48.857	0.071	0.034
-691.397	151.378	-0.125	0.172
-690.383	-200.000	0.018	0.368
-689.368	-50.807	-0.066	0.031
-688.354	86.760	-0.113	-0.126
-687.339	47.957	-0.122	0.115
-686.324	-35.589	0.190	-0.104
-685.310	800.000	-0.053	-0.215
-684.295	205.634	-0.154	-0.242
-683.281	790.098	-0.064	-0.176
-682.266	-200.000	-0.065	-0.344
-681.251	45.382	0.254	-0.236
-680.237	561.886	-0.031	-0.076
-679.222	-93.596	0.296	-0.082
-678.208	-88.916	0.182	-0.055
-677.193	-200.000	0.019	-0.412
-676.178	-200.000	0.029	-0.330
-675.164	-200.000	0.051	-0.248
-674.149	16.890	-0.255	0.203
-673.135	-200.000	-0.002	-0.557
-672.120	-125.714	-0.237	-0.036
-671.105	-200.000	0.023	-0.376
-670.091	313.120	-0.040	0.077
-669.076	239.498	-0.198	0.333
-668.062	800.000	-0.028	0.115
-667.047	-33.678	0.137	0.076
-666.032	800.000	-0.073	0.209
-665.018	26.198	-0.063	-0.053
-664.003	381.884	0.080	-0.166
-662.989	6.857	-0.191	0.144
-661.974	216.118	-0.147	-0.235
-660.959	424.952	-0.073	-0.159
-659.945	-109.840	-0.297	0.063
-658.930	315.383	-0.162	-0.307
-657.916	-125.451	0.092	0.014
-656.901	-75.379	-0.161	-0.058
-655.886	-52.761	0.050	-0.023
-654.872	-200.000	0.009	-0.072
-653.857	-42.195	-0.086	0.044
-652.843	233.829	-0.037	0.062
-651.828	21.441	-0.367	-0.301
-650.814	-12.351	0.151	-0.100
-649.799	-200.000	-0.025	-0.222
-648.784	-7.317	-0.331	-0.226
-647.770	-151.828	-0.268	-0.020
-646.755	-200.000	0.026	0.175
-645.741	-200.000	0.041	-0.302
-644.726	-100.060	-0.160	0.040
-643.711	60.804	0.007	0.007
-642.697	800.000	0.094	0.380
-641.682	-154.202	-0.440	0.030
-640.668	140.697	0.030	0.040
-639.653	-200.000	0.041	-0.184
-638.638	800.000	0.041	0.176
-637.624	125.547	0.069	-0.087
-636.609	-79.140	-0.124	-0.042
-635.595	-200.000	-0.003	-0.110
-634.580	45.449	-0.114	-0.106
-633.565	-51.015	0.148	-0.070
-632.551	15.764	-0.179	0.141
-631.536	30.552	-0.284	-0.245
-630.522	144.464	0.131	-0.176
-629.507	-168.694	0.098	-0.004
-628.492	800.000	0.143	0.404
-627.478	-78.208	-0.072	-0.025
-626.463	-3.699	0.216	-0.151
-625.449	-54.254	0.160	0.073
-624.434	-71.543	-0.120	0.045
-623.419	775.902	-0.042	-0.116
-622.405	-200.000	0.031	-0.168
-621.390	-70.574	-0.212	-0.081
-620.376	-55.239	0.453	-0.205
-619.361	197.465	-0.186	0.285
-618.346	-75.953	-0.031	0.011
-617.332	90.214	-0.172	0.194
-616.317	-200.000	-0.005	0.199
-615.303	-168.580	0.314	-0.012
-614.288	62.097	-0.081	0.081
-613.273	-5.273	0.517	-0.358
-612.259	-122.001	0.271	0.045
-611.244	269.317	-0.115	0.204
-610.230	-55.941	-0.121	0.054
-609.215	-6.519	-0.483	0.331
-608.201	114.817	0.070	0.085
-607.186	-80.853	0.345	-0.115
-606.171	-163.313	0.104	0.005
-605.157	-27.705	-0.172	-0.101
-604.142	535.022	-0.153	-0.365
-603.128	-200.000	0.040	0.189
-602.113	-121.731	-0.155	-0.026
-601.098	528.314	-0.175	-0.416
-600.084	-40.705	0.066	0.034
-599.069	-92.890	-0.222	-0.062
-598.055	64.005	-0.091	0.092
-597.040	47.664	0.235	-0.221
-596.025	800.000	-0.058	-0.176
-595.011	-200.000	-0.001	-0.036
-593.996	-28.497	-0.357	0.207
-592.982	-22.718	-0.288	0.175
-591.967	-200.000	-0.024	-0.223
-590.952	-168.361	-0.173	-0.007
-589.938	-200.000	0.015	-0.159
-588.923	124.192	0.110	0.139
-587.909	168.373	0.214	0.306
-586.894	-200.000	0.002	-0.156
-585.879	174.770	0.217	-0.315
-584.865	405.820	0.028	-0.059
-583.850	441.679	0.102	0.225
-582.836	-154.220	-0.077	-0.005
-581.821	154.910	-0.131	0.182
-580.806	252.727	0.110	0.189
-579.792	622.958	0.077	-0.194
-578.777	-200.000	-0.013	0.129
-577.763	-120.101	-0.380	-0.065
-576.748	132.880	0.167	-0.216
-575.733	280.951	-0.101	-0.182
-574.719	-64.445	-0.253	0.103
-573.704	69.363	-0.153	0.158
-572.690	518.085	-0.093	-0.219
-571.675	800.000	-0.066	-0.214
-570.661	-112.226	-0.145	-0.029
-569.646	136.590	0.088	0.116
-568.631	-82.222	-0.232	-0.076
-567.617	-200.000	0.050	-0.355
-566.602	160.938	0.094	0.132
-565.588	-103.855	-0.166	0.039
-564.573	39.137	0.273	0.245
-563.558	-120.133	-0.247	-0.043
-562.544	800.000	0.052	0.172
-561.529	-44.266	-0.207	0.104
-560.515	-40.048	0.361	-0.189
-559.500	51.834	0.141	-0.134
-558.485	800.000	-0.031	0.138
-557.471	28.762	-0.077	0.066
-556.456	-200.000	-0.029	-0.132
-555.442	92.187	-0.074	-0.084
-554.427	210.467	0.304	0.479
-553.412	19.271	-0.266	0.215
-552.398	-98.812	0.144	-0.037
-551.383	-4.773	0.184	-0.128
-550.369	-64.685	-0.137	0.056
-549.354	-200.000	0.087	-0.472
-548.339	800.000	0.141	-0.422
-547.325	-200.000	0.004	0.078
-546.310	-200.000	-0.054	0.257
-545.296	81.598	0.097	0.106
-544.281	392.778	0.080	0.167
-543.266	800.000	0.023	0.082
-542.252	129.332	-0.116	0.149
-541.237	70.497	-0.059	0.061
-540.223	-27.348	0.122	-0.071
-539.208	139.108	-0.172	0.228
-538.193	195.577	-0.113	0.172
-537.179	548.275	0.161	0.388
-536.164	-17.956	-0.153	0.096
-535.150	-200.000	-0.112	0.560
-534.135	-30.242	-0.159	-0.091
-533.121	173.438	-0.202	0.293
-532.106	-41.662	0.062	0.032
-531.091	-80.625	-0.101	0.034
-530.077	-73.220	-0.072	0.026
-529.062	800.000	-0.087	-0.252
-528.048	-92.155	-0.101	0.028
-527.033	-28.014	0.234	-0.136
-526.018	-108.973	-0.168	-0.036
-525.004	-53.402	-0.096	0.044
-523.989	800.000	-0.041	0.168
-522.975	121.566	0.209	-0.262
-521.960	228.768	0.063	-0.103
-520.945	185.332	-0.117	-0.174
-519.931	509.529	-0.157	0.365
-518.916	-73.817	-0.304	0.111
-517.902	135.991	0.115	0.150
-516.887	242.361	0.025	-0.042
-515.872	-115.693	0.283	0.053
-514.858	181.526	0.115	-0.170
-513.843	-50.707	0.220	0.104
-512.829	-200.000	0.005	0.112
-511.814	800.000	-0.013	0.057
-510.799	-99.481	-0.136	-0.034
-509.785	-200.000	0.010	0.305
-508.770	-63.064	-0.299	-0.124
-507.756	-200.000	-0.010	0.076
-506.741	-77.216	-0.212	-0.074
-505.726	137.401	0.060	-0.078
-504.712	107.725	-0.194	-0.232
-503.697	-82.273	0.065	-0.021
-502.683	109.339	-0.312	0.375
-501.668	-118.053	-0.192	-0.034
-500.653	-26.059	-0.165	-0.097
-499.639	-200.000	-0.028	0.537
-498.624	-42.066	-0.109	0.056
-497.610	-140.506	-0.099	-0.010
-496.595	-117.826	0.029	0.005
-495.581	293.319	-0.170	-0.310
-494.566	108.466	-0.124	0.148
-493.551	-151.851	-0.158	-0.012
-492.537	-200.000	0.002	-0.079
-491.522	-107.356	0.159	0.035
-490.508	-69.215	-0.257	-0.099
-489.493	-200.000	-0.022	0.236
-488.478	-46.524	-0.092	-0.045
-487.464	-44.744	-0.182	-0.091
-486.449	161.400	-0.155	0.217
-485.435	800.000	-0.046	0.148
-484.420	150.700	0.108	0.147
-483.405	-54.235	-0.217	0.099
-482.391	115.831	-0.113	-0.139
-481.376	-108.094	0.254	0.055
-480.362	-200.000	0.001	0.244
-479.347	-127.123	0.304	-0.045
-478.332	-191.169	0.138	0.001
-477.318	-145.800	0.370	-0.033
-476.303	-46.460	-0.024	-0.012
-475.289	89.987	0.197	0.220
-474.274	-200.000	0.019	-0.260
-473.259	50.355	-0.326	-0.308
-472.245	73.193	-0.220	-0.230
-471.230	-79.778	-0.130	0.044
-470.216	-200.000	-0.006	-0.081
-469.201	800.000	0.054	0.195
-468.186	-200.000	-0.051	-0.240
-467.172	5.613	0.062	-0.046
-466.157	-57.120	0.214	-0.094
-465.143	-200.000	-0.008	-0.196
-464.128	-103.788	-0.236	-0.055
-463.113	-93.550	-0.217	-0.060
-462.099	-98.247	0.306	-0.079
-461.084	195.939	0.055	0.083
-460.070	24.741	-0.097	-0.081
-459.055	438.411	0.059	0.128
-458.040	2.921	-0.063	0.046
-457.026	58.231	0.265	0.259
-456.011	-137.732	-0.052	0.006
-454.997	800.000	0.050	0.216
-453.982	-43.853	0.056	-0.028
-452.968	153.206	0.152	0.207
-451.953	55.049	0.157	-0.152
-450.938	-141.366	-0.174	0.018
-449.924	800.000	0.061	0.181
-448.909	-89.063	0.210	0.062
-447.895	-70.251	0.245	0.093
-446.880	-111.901	0.196	0.039
-445.865	-20.278	-0.433	-0.267
-444.851	-117.831	-0.243	-0.044
-443.836	-105.191	-0.193	-0.044
-442.822	404.089	0.172	-0.362
-441.807	776.556	0.143	0.389
-440.792	-77.534	-0.170	0.059
-439.778	-53.249	0.218	-0.100
-438.763	-54.718	0.340	0.153
-437.749	-200.000	-0.014	0.122
-436.734	403.417	0.190	-0.399
-435.719	-177.002	0.465	0.012
-434.705	284.613	0.060	0.107
-433.690	68.673	0.359	-0.368
-432.676	-200.000	0.028	-0.262
-431.661	-80.354	0.094	-0.031
-430.646	-121.220	-0.124	0.021
-429.632	61.712	0.026	-0.026
-428.617	-195.959	-0.080	0.001
-427.603	321.021	-0.060	0.114
-426.588	26.920	-0.121	-0.101
-425.573	-70.618	-0.322	-0.122
-424.559	-65.201	-0.148	-0.059
-423.544	-113.394	0.164	-0.032
-422.530	-160.014	-0.133	0.007
-421.515	-30.584	0.433	0.245
-420.500	-13.497	-0.355	0.230
-419.486	-92.963	-0.051	0.014
-418.471	348.355	0.123	-0.243
-417.457	800.000	-0.050	-0.201
-416.442	140.032	0.103	0.136
-415.428	466.997	0.068	-0.153
-414.413	-71.525	0.502	-0.187
-413.398	-200.000	0.015	0.277
-412.384	-170.036	-0.042	-0.002
-411.369	-200.000	-0.019	-0.564
-410.355	-49.777	0.424	0.201
-409.340	97.391	-0.136	0.156
-408.325	-77.126	-0.191	0.066
-407.311	-151.262	-0.130	-0.010
-406.296	46.971	-0.143	-0.132
-405.282	-143.739	-0.186	-0.018
-404.267	50.760	0.345	-0.326
-403.252	297.469	-0.081	-0.148
-402.238	3.264	0.235	0.171
-401.223	427.742	-0.128	0.277
-400.209	-47.864	0.219	-0.106
-399.194	77.000	-0.188	0.200
-398.179	800.000	0.050	0.217
-397.165	115.989	-0.098	-0.120
-396.150	-200.000	0.052	-0.483
-395.136	44.876	-0.109	0.100
-394.121	-21.902	0.150	-0.091
-393.106	-111.968	-0.085	-0.017
-392.092	-26.123	-0.230	0.135
-391.077	-82.147	0.355	0.115
-390.063	-200.000	0.049	-0.280
-389.048	90.263	-0.091	-0.101
-388.033	75.137	-0.153	-0.161
-387.019	-200.000	-0.074	0.337
-386.004	-157.686	-0.325	-0.019
-384.990	-200.000	0.003	-0.249
-383.975	157.358	-0.116	-0.160
-382.960	128.709	0.100	0.127
-381.946	39.630	-0.289	-0.258
-380.931	-200.000	0.004	-0.058
-379.917	236.202	-0.097	0.160
-378.902	-105.154	0.105	0.024
-377.888	-107.072	-0.110	0.024
-376.873	-80.756	-0.384	0.127
-375.858	-13.673	0.402	-0.259
-374.844	194.492	-0.139	-0.210
-373.829	720.229	0.066	-0.175
-372.815	209.302	0.162	0.252
-371.800	-63.935	0.064	0.026
-370.785	-54.997	0.215	0.096
-369.771	-41.650	-0.248	-0.127
-368.756	206.389	0.104	0.161
-367.742	84.589	-0.122	0.133
-366.727	76.619	0.123	-0.130
-365.712	217.218	0.045	-0.071
-364.698	187.660	-0.070	0.104
-363.683	9.975	-0.192	0.146
-362.669	505.981	0.087	-0.201
-361.654	307.892	-0.201	-0.373
-360.639	-200.000	0.009	-0.080
-359.625	-136.806	0.184	-0.021
-358.610	130.403	0.213	0.272
-357.596	-91.148	-0.094	-0.027
-356.581	-40.922	0.261	-0.134
-355.566	800.000	-0.060	-0.244
-354.552	-200.000	-0.009	-0.276
-353.537	21.462	-0.193	0.156
-352.523	-172.201	-0.448	0.014
-351.508	36.903	-0.102	-0.090
-350.493	476.796	0.074	-0.166
-349.479	-35.205	-0.270	0.146
-348.464	-121.509	0.265	-0.044
-347.450	248.481	0.056	-0.094
-346.435	431.107	0.083	-0.179
-345.420	37.441	0.182	-0.161
-344.406	477.030	-0.038	-0.085
-343.391	293.813	0.082	0.148
-342.377	-87.999	-0.311	0.093
-341.362	94.678	0.113	-0.128
-340.348	800.000	0.033	0.111
-339.333	483.866	-0.159	0.360
-338.318	177.347	0.105	-0.153
-337.304	299.922	-0.106	-0.195
-336.289	-22.708	0.151	-0.091
-335.275	-109.356	0.390	-0.082
-334.260	25.770	0.151	0.125
-333.245	-39.300	-0.133	-0.070
-332.231	-176.627	-0.143	0.004
-331.216	10.216	0.057	0.043
-330.202	-200.000	-0.001	-0.058
-329.187	800.000	0.075	-0.231
-328.172	41.388	-0.198	-0.179
-327.158	-30.073	0.181	-0.103
-326.143	800.000	-0.041	-0.117
-325.129	-161.094	-0.115	-0.006
-324.114	408.788	-0.087	0.184
-323.099	-200.000	-0.085	0.371
-322.085	243.074	0.151	0.252
-321.070	-50.032	0.131	0.062
-320.056	66.577	0.116	-0.117
-319.041	350.751	0.126	-0.249
-318.026	800.000	0.108	-0.410
-317.012	32.594	0.294	0.253
-315.997	27.895	-0.050	-0.042
-314.983	28.969	-0.118	0.099
-313.968	142.296	0.059	-0.078
-312.953	-200.000	-0.030	-0.214
-311.939	43.042	0.048	-0.043
-310.924	-86.347	-0.172	-0.053
-309.910	-121.633	0.155	-0.026
-308.895	679.181	0.055	0.143
-307.880	85.738	0.243	0.265
-306.866	45.171	0.122	-0.112
-305.851	-200.000	-0.039	-0.175
-304.837	800.000	0.092	0.282
-303.822	158.175	-0.137	-0.189
-302.807	-111.321	-0.350	-0.071
-301.793	216.062	-0.074	-0.118
-300.778	250.537	0.115	0.195
-299.764	7.952	-0.198	0.147
-298.749	-171.209	-0.400	-0.013
-297.735	115.109	-0.063	-0.077
-296.720	-26.901	0.286	-0.166
-295.705	-128.952	0.207	0.029
-294.691	157.046	-0.094	-0.129
-293.676	-177.031	0.331	0.008
-292.662	-154.424	-0.309	0.021
-291.647	-81.321	-0.205	-0.067
-290.632	-32.403	-0.230	-0.128
-289.618	184.964	-0.158	0.233
-288.603	362.927	-0.099	-0.198
-287.589	57.611	0.138	0.134
-286.574	-122.955	0.088	0.014
-285.559	800.000	-0.083	0.357
-284.545	-200.000	-0.043	-0.363
-283.530	-99.631	0.096	-0.024
-282.516	-57.727	0.102	0.044
-281.501	-200.000	-0.025	-0.172
-280.486	197.897	-0.239	-0.362
-279.472	800.000	0.023	0.076
-278.457	-200.000	0.016	-0.316
-277.443	-21.114	0.122	-0.074
-276.428	-44.512	0.294	0.146
-275.413	-41.366	0.158	-0.081
-274.399	-200.000	0.004	0.058
-273.384	58.266	0.111	0.108
-272.370	-200.000	-0.008	-0.054
-271.355	-21.843	-0.181	-0.109
-270.340	-28.278	0.321	-0.184
-269.326	-85.145	0.253	-0.079
-268.311	530.517	0.041	-0.095
-267.297	-80.941	0.152	-0.050
-266.282	-126.128	0.158	-0.023
-265.267	-88.516	0.372	0.110
-264.253	-57.636	0.488	0.212
-263.238	165.176	-0.155	-0.218
-262.224	800.000	-0.055	0.177
-261.209	800.000	-0.089	0.286
-260.195	214.538	0.220	0.345
-259.180	-23.640	0.098	0.058
-258.165	800.000	0.070	0.254
-257.151	-142.539	0.355	0.035
-256.136	285.070	0.061	0.109
-255.122	339.251	0.202	-0.390
-254.107	110.036	0.101	-0.121
-253.092	329.524	0.065	-0.124
-252.078	-162.416	0.220	0.011
-251.063	-51.033	-0.236	0.110
-250.049	800.000	-0.030	-0.089
-249.034	-153.949	-0.245	0.017
-248.019	-200.000	0.028	0.126
-247.005	132.415	-0.114	-0.146
-245.990	-121.632	-0.076	-0.012
-244.976	800.000	0.089	0.377
-243.961	15.767	-0.152	-0.119
-242.946	800.000	0.060	-0.175
-241.932	800.000	-0.137	0.506
-240.917	165.608	-0.170	0.239
-239.903	800.000	-0.071	0.279
-238.888	-200.000	0.061	0.317
-237.873	26.840	-0.314	0.261
-236.859	719.060	-0.076	-0.201
-235.844	438.848	0.060	0.129
-234.830	550.991	-0.125	0.298
-233.815	17.593	-0.219	-0.173
-232.800	-117.168	0.146	0.026
-231.786	18.064	0.369	0.292
-230.771	-92.770	0.157	0.044
-229.757	-200.000	0.013	0.088
-228.742	800.000	-0.064	0.176
-227.727	-200.000	-0.002	0.076
-226.713	-62.855	0.216	-0.089
-225.698	354.291	-0.102	-0.200
-224.684	139.032	0.167	0.217
-223.669	480.373	-0.077	0.173
-222.655	236.013	-0.221	0.362
-221.640	-49.790	-0.435	-0.205
-220.625	318.989	-0.058	0.109
-219.611	183.181	0.041	0.060
-218.596	576.610	0.017	0.040
-217.582	181.927	0.132	0.193
-216.567	624.264	0.162	-0.405
-215.552	-200.000	-0.047	0.369
-214.538	121.412	0.233	0.288
-213.523	800.000	0.035	0.145
-212.509	-200.000	-0.068	-0.318
-211.494	278.951	-0.059	-0.105
-210.479	29.379	0.434	0.365
-209.465	23.335	0.077	-0.063
-208.450	-200.000	0.043	0.198
-207.436	-155.534	-0.207	0.013
-206.421	22.472	-0.267	-0.217
-205.406	-25.639	-0.297	-0.173
-204.392	120.205	0.147	-0.180
-203.377	-200.000	-0.013	0.129
-202.363	509.525	-0.056	0.128
-201.348	-200.000	-0.114	-0.000
-200.333	125.385	0.135	0.168
-199.319	-49.217	0.136	0.064
-198.304	800.000	0.013	-0.052
-197.290	800.000	0.058	0.192
-196.275	-25.626	0.319	-0.187
-195.260	-179.506	0.433	-0.009
-194.246	-136.007	0.182	0.021
-193.231	-55.163	0.105	-0.047
-192.217	90.907	-0.177	0.197
-191.202	-109.189	-0.135	-0.028
-190.187	-72.543	-0.230	-0.084
-189.173	284.005	0.091	-0.161
-188.158	607.644	0.047	-0.116
-187.144	-83.703	0.339	-0.107
-186.129	87.123	-0.065	0.071
-185.114	140.615	-0.054	-0.071
-184.100	-200.000	0.001	-0.441
-183.085	167.111	-0.190	0.266
-182.071	-60.928	0.081	-0.034
-181.056	253.559	0.056	-0.094
-180.042	-200.000	0.023	-0.229
-179.027	800.000	0.108	-0.376
-178.012	-6.734	0.113	-0.076
-176.998	6.332	-0.131	-0.096
-175.983	-200.000	-0.005	0.278
-174.969	-81.684	0.382	0.124
-173.954	765.974	0.203	0.545
-172.939	-123.095	-0.138	-0.022
-171.925	-64.276	0.014	-0.006
-170.910	-155.858	-0.339	0.021
-169.896	171.893	0.087	0.124
-168.881	139.115	-0.149	0.193
-167.866	372.616	-0.081	-0.162
-166.852	-81.642	0.294	0.095
-165.837	204.573	-0.124	-0.191
-164.823	412.389	-0.043	-0.090
-163.808	-39.023	-0.108	0.056
-162.793	5.777	-0.094	-0.069
-161.779	-2.043	-0.330	0.229
-160.764	241.464	0.186	-0.307
-159.750	800.000	-0.068	-0.232
-158.735	-200.000	-0.009	-0.053
-157.720	800.000	0.024	0.066
-156.706	118.638	0.126	0.154
-155.691	-51.386	0.212	0.098
-154.677	-84.871	-0.122	0.038
-153.662	-15.411	-0.233	-0.147
-152.647	80.339	-0.151	-0.161
-151.633	-200.000	0.447	0.001
-150.618	-88.617	0.167	0.049
-149.604	800.000	0.082	0.238
-148.589	22.223	-0.250	0.202
-147.574	-52.212	0.304	-0.139
-146.560	-132.067	-0.416	0.053
-145.545	26.813	0.241	-0.200
-144.531	216.615	0.337	0.529
-143.516	-75.652	0.202	-0.071
-142.502	-45.228	-0.028	0.014
-141.487	-11.504	0.523	0.340
-140.472	397.910	-0.114	-0.236
-139.458	800.000	-0.126	-0.386
-138.443	326.098	-0.139	-0.263
-137.429	31.948	0.094	-0.080
-136.414	-73.782	-0.292	0.105
-135.399	66.929	-0.146	-0.147
-134.385	-200.000	0.064	-0.342
-133.370	800.000	-0.104	-0.322
-132.356	223.908	0.162	-0.258
-131.341	-90.497	0.129	0.037
-130.326	-78.819	-0.333	0.112
-129.312	196.938	0.029	0.043
-128.297	-116.225	0.418	-0.076
-127.283	-200.000	-0.021	0.099
-126.268	-15.387	0.206	0.130
-125.253	-122.847	0.313	-0.050
-124.239	-200.000	0.039	-0.275
-123.224	-133.768	-0.018	0.002
-122.210	800.000	0.043	0.185
-121.195	-200.000	0.067	-0.354
-120.180	-79.891	0.141	0.047
-119.166	184.380	0.113	0.165
-118.151	13.752	0.163	0.125
-117.137	679.547	0.018	-0.047
-116.122	21.141	0.234	0.187
-115.107	-176.414	0.172	0.004
-114.093	223.549	0.092	-0.146
-113.078	34.754	-0.126	-0.109
-112.064	-74.958	0.136	0.048
-111.049	-63.940	0.327	-0.132
-110.034	422.397	-0.105	-0.223
-109.020	-200.000	-0.012	-0.104
-108.005	-98.438	0.515	-0.130
-106.991	-200.000	0.042	0.202
-105.976	-94.419	-0.216	0.058
-104.962	-3.365	-0.300	-0.206
-103.947	308.140	-0.118	0.217
-102.932	-155.639	0.187	0.012
-101.918	-200.000	0.028	0.152
-100.903	-102.388	-0.148	0.035
-99.889	-83.530	-0.055	-0.017
-98.874	-54.025	0.134	0.060
-97.859	-100.139	0.054	0.013
-96.845	225.108	0.120	0.191
-95.830	-40.229	0.212	0.109
-94.816	800.000	-0.120	-0.333
-93.801	-147.662	-0.301	0.025
-92.786	-136.849	0.150	-0.017
-91.772	-73.051	0.324	-0.117
-90.757	27.359	-0.098	-0.081
-89.743	141.918	0.082	-0.108
-88.728	69.780	0.229	-0.232
-87.713	47.876	-0.133	0.123
-86.699	36.078	0.167	0.145
-85.684	272.836	0.089	0.155
-84.670	-200.000	0.025	-0.140
-83.655	36.940	0.116	0.101
-82.640	800.000	-0.086	0.315
-81.626	800.000	0.031	-0.097
-80.611	-9.750	-0.063	-0.041
-79.597	184.432	0.013	0.019
-78.582	-127.301	-0.167	-0.024
-77.567	-176.547	0.397	0.010
-76.553	82.465	0.133	0.142
-75.538	800.000	0.103	0.321
-74.524	37.100	0.304	-0.265
-73.509	-54.362	0.285	0.128
-72.494	-200.000	0.019	-0.237
-71.480	-139.682	-0.191	0.020
-70.465	95.695	0.153	0.172
-69.451	-26.132	0.292	0.169
-68.436	-200.000	-0.016	0.244
-67.422	98.645	-0.306	-0.348
-66.407	168.526	-0.078	-0.109
-65.392	367.718	0.070	0.140
-64.378	3.019	-0.184	-0.132
-63.363	152.817	0.197	-0.266
-62.349	-200.000	0.057	-0.258
-61.334	68.517	-0.912	-0.921
-60.319	147.898	0.441	0.586
-59.305	100.926	-0.756	-0.866
-58.290	166.237	0.773	1.077
-57.276	710.596	0.533	1.389
-56.261	-200.000	95.336	590.798
-55.246	661.291	1369.506	3473.812
-54.232	199.772	2542.117	3840.223
-53.217	121.242	2139.135	2622.088
-52.203	44.368	1604.240	1449.993
-51.188	35.806	1342.555	1161.989
-50.173	32.721	1300.584	1107.535
-49.159	54.408	1347.796	1277.832
-48.144	56.761	1364.358	1307.534
-47.130	36.014	1323.366	1146.438
-46.115	32.579	1305.845	1110.999
-45.100	32.377	1301.215	1105.829
-44.086	32.255	1298.680	1102.913
-43.071	32.177	1296.593	1100.638
-42.057	32.161	1294.315	1098.570
-41.042	32.186	1292.369	1097.018
-40.027	32.139	1291.458	1095.932
-39.013	32.323	1288.653	1094.574
-37.998	32.228	1287.693	1093.166
-36.984	32.273	1285.512	1091.531
-35.969	32.338	1283.933	1090.525
-34.954	32.328	1281.803	1088.616
-33.940	32.265	1280.787	1087.344
-32.925	32.327	1279.523	1086.587
-31.911	32.394	1277.947	1085.590
-30.896	32.349	1276.330	1083.918
-29.881	32.438	1275.012	1083.267
-28.867	32.440	1274.001	1082.378
-27.852	32.470	1272.443	1081.180
-26.838	32.575	1270.322	1079.940
-25.823	32.400	1269.834	1078.478
-24.809	32.395	1268.406	1077.191
-23.794	32.386	1266.834	1075.765
-22.779	32.474	1265.640	1075.212
-21.765	32.369	1264.282	1073.415
-20.750	32.293	1263.319	1072.119
-19.736	32.219	1261.795	1070.362
-18.721	32.193	1260.880	1069.398
-17.706	32.299	1259.472	1068.764
-16.692	32.327	1258.182	1067.786
-15.677	32.316	1257.026	1066.696
-14.663	32.295	1256.200	1065.836
-13.648	32.192	1255.253	1064.409
-12.633	32.215	1254.327	1063.711
-11.619	32.287	1253.155	1063.082
-10.604	32.294	1252.191	1062.262
-9.590	32.140	1251.472	1060.740
-8.575	32.234	1250.345	1060.270
-7.560	32.238	1249.687	1059.696
-6.546	32.234	1248.867	1058.933
-5.531	32.298	1247.851	1058.388
-4.517	32.304	1246.774	1057.469
-3.502	32.220	1246.422	1056.655
-2.487	32.249	1245.188	1055.731
-1.473	32.203	1241.039	1051.914
-0.458	30.722	1226.400	1031.264
0.556	26.169	1209.471	994.284
1.571	22.507	1215.273	978.663
2.586	21.624	1230.665	985.998
3.600	21.041	1219.403	973.639
4.615	16.040	1148.296	890.424
5.629	8.166	1075.383	794.711
6.644	4.803	1055.193	763.258
7.659	4.607	1053.137	760.745
8.673	4.630	1052.036	759.996
9.688	4.530	1050.807	758.553
10.702	4.679	1049.227	758.068
11.717	9.007	1055.053	783.381
12.731	16.246	1065.028	826.282
13.746	18.915	1067.756	841.405
14.761	18.142	1066.041	836.200
15.775	17.142	1063.959	829.610
16.790	15.971	1062.119	822.388
17.804	15.314	1060.642	817.971
18.819	14.947	1059.258	815.041
19.834	14.637	1058.969	813.236
20.848	14.384	1057.757	811.002
21.863	14.265	1057.046	809.805
22.877	14.222	1056.053	808.768
23.892	14.113	1055.552	807.780
24.907	14.172	1054.283	807.027
25.921	14.185	1053.737	806.599
26.936	14.162	1052.400	805.392
27.950	14.189	1051.162	804.505
28.965	14.282	1049.491	803.604
29.980	14.414	1047.717	802.810
30.994	14.528	1046.643	802.466
32.009	14.535	1046.076	801.990
33.023	14.452	1044.702	800.470
34.038	14.332	1043.539	798.930
35.053	14.438	1042.609	798.659
36.067	14.336	1041.755	797.445
37.082	14.351	1041.120	796.958
38.096	14.426	1040.497	796.770
39.111	14.377	1039.988	796.076
40.126	14.261	1038.708	794.474
41.140	14.179	1037.263	792.907
42.155	13.977	1036.337	791.168
43.169	13.977	1035.047	790.113
44.184	13.987	1033.879	789.196
45.199	14.124	1032.560	788.768
46.213	14.249	1031.806	788.715
47.228	14.369	1030.553	788.257
48.242	14.248	1030.346	787.457
49.257	14.266	1028.770	786.270
50.271	14.350	1028.396	786.311
51.286	14.372	1027.609	785.739
52.301	14.359	1026.106	784.461
53.315	14.277	1025.352	783.432
54.330	14.247	1024.294	782.409
55.344	14.199	1022.900	781.051
56.359	14.287	1022.339	780.965
57.374	14.206	1021.747	780.064
58.388	14.243	1020.929	779.543
59.403	14.162	1020.086	778.451
60.417	14.115	1019.394	777.636
61.432	13.976	1018.590	776.304
62.447	13.990	1017.540	775.504
63.461	13.987	1016.828	774.877
64.476	13.985	1015.724	773.959
65.490	13.873	1015.329	773.069
66.505	13.937	1014.391	772.581
67.520	14.052	1013.737	772.550
68.534	14.105	1012.733	771.964
69.549	13.980	1012.320	771.001
70.563	14.023	1011.189	770.268
71.578	13.987	1010.405	769.439
72.593	13.977	1009.576	768.693
73.607	13.884	1009.586	768.201
74.622	13.919	1009.004	767.852
75.636	13.858	1008.318	766.979
76.651	13.975	1007.650	766.944
77.666	13.865	1007.091	765.945
78.680	13.893	1005.997	765.174
79.695	13.975	1005.370	765.006
80.709	14.057	1004.804	764.886
81.724	14.138	1004.210	764.738
82.739	14.201	1003.470	764.395
83.753	14.255	1002.893	764.135
84.768	14.406	1001.787	763.917
85.782	14.408	1001.480	763.624
86.797	14.458	1000.021	762.674
87.812	14.332	999.138	761.355
88.826	14.388	998.509	761.067
89.841	14.401	997.310	760.144
90.855	14.469	996.264	759.590
91.870	14.473	995.673	759.089
92.884	14.549	994.949	758.818
93.899	14.460	994.278	757.833
94.914	14.525	993.393	757.387
95.928	14.400	993.057	756.498
96.943	14.428	991.726	755.544
97.957	14.493	990.819	755.080
98.972	14.476	990.259	754.508
99.987	14.472	989.412	753.776
101.001	14.440	988.192	752.636
102.016	14.426	987.651	752.094
103.030	14.446	986.753	751.436
104.045	14.382	986.054	750.550
105.060	14.397	984.963	749.719
106.074	14.236	983.902	748.120
107.089	14.092	982.926	746.668
108.103	14.113	981.829	745.862
109.118	14.064	981.361	745.223
110.133	14.162	979.991	744.552
111.147	14.116	979.521	743.926
112.162	14.120	979.017	743.494
113.176	14.135	978.058	742.765
114.191	14.211	977.291	742.459
115.206	14.154	976.300	741.385
116.220	14.277	975.451	741.222
117.235	14.054	975.028	739.842
118.249	14.095	973.967	739.156
119.264	14.223	972.745	738.729
120.279	14.164	972.233	738.014
121.293	14.151	971.201	737.108
122.308	14.093	970.103	735.953
123.322	14.034	969.460	735.140
124.337	13.918	968.317	733.694
125.352	14.133	967.097	733.652
126.366	14.163	966.301	733.115
127.381	14.053	965.538	731.987
128.395	14.122	964.426	731.385
129.410	14.131	963.376	730.565
130.424	14.223	963.133	730.718
131.439	14.256	961.877	729.845
132.454	14.187	961.589	729.262
133.468	14.222	960.812	728.758
134.483	14.293	959.756	728.206
135.497	14.313	958.735	727.452
136.512	14.209	957.996	726.373
137.527	14.344	957.135	726.243
138.541	14.258	956.418	725.261
139.556	14.335	956.075	725.274
140.570	14.411	955.177	724.861
141.585	14.500	954.851	724.932
142.600	14.389	953.940	723.698
143.614	14.450	952.848	723.067
144.629	14.619	952.199	723.243
145.643	14.572	951.117	722.157
146.658	14.460	950.193	720.904
147.673	14.428	949.128	719.893
148.687	14.354	948.045	718.690
149.702	14.274	947.774	718.077
150.716	14.315	946.740	717.407
151.731	14.430	945.990	717.269
152.746	14.484	945.428	717.012
153.760	14.443	945.358	716.721
154.775	14.499	944.675	716.380
155.789	14.519	944.195	716.037
156.804	14.459	943.003	714.813
157.819	14.471	942.766	714.622
158.833	14.696	941.653	714.678
159.848	14.882	940.522	714.552
160.862	14.589	940.143	712.948
161.877	14.393	938.897	711.103
162.892	14.489	937.676	710.526
163.906	14.446	937.058	709.811
164.921	14.477	936.109	709.163
165.935	14.532	935.367	708.771
166.950	14.488	934.630	707.962
167.964	14.563	933.648	707.473
168.979	14.350	932.887	705.932
169.994	14.490	932.076	705.848
171.008	14.541	931.252	705.379
172.023	14.649	930.577	705.262
173.037	14.640	929.917	704.660
174.052	14.609	929.287	703.989
175.067	14.426	928.795	702.781
176.081	14.416	928.198	702.225
177.096	14.519	927.325	701.938
178.110	14.445	927.078	701.377
179.125	14.594	926.183	701.263
180.140	14.623	926.050	701.221
181.154	14.575	925.180	700.299
182.169	14.699	924.968	700.600
183.183	14.721	924.711	700.434
184.198	14.839	923.662	700.075
185.213	14.711	923.040	699.003
186.227	14.734	922.215	698.412
187.242	15.013	921.721	699.144
188.256	14.974	921.054	698.412
189.271	14.965	919.756	697.331
190.286	14.708	919.270	695.826
191.300	14.474	918.558	694.251
192.315	14.464	917.940	693.682
193.329	14.442	917.212	692.979
194.344	14.721	916.923	693.859
195.359	14.679	915.941	692.880
196.373	14.900	915.472	693.380
197.388	14.790	915.394	692.803
198.402	15.126	914.787	693.673
199.417	15.079	913.917	692.761
200.432	15.261	913.258	692.952
201.446	15.102	913.097	692.109
202.461	15.176	912.809	692.139
203.475	15.178	912.153	691.589
204.490	15.135	911.124	690.566
205.504	14.974	910.439	689.325
206.519	15.088	909.548	689.059
207.534	14.923	909.223	688.072
208.548	14.972	908.271	687.490
209.563	14.981	907.916	687.200
210.577	15.161	906.991	687.177
211.592	15.108	906.472	686.506
212.607	15.121	905.666	685.890
213.621	15.074	905.273	685.338
214.636	15.122	904.162	684.631
215.650	15.135	903.973	684.483
216.665	15.252	902.796	684.007
217.680	15.325	902.369	683.921
218.694	15.341	901.414	683.203
219.709	15.317	900.994	682.727
220.723	15.323	900.288	682.152
221.738	15.248	899.984	681.558
222.753	15.341	899.094	681.203
223.767	15.432	898.480	681.046
224.782	15.385	898.029	680.453
225.796	15.460	897.695	680.443
226.811	15.378	896.975	679.504
227.826	15.433	895.819	678.792
228.840	15.270	895.292	677.672
229.855	15.299	894.715	677.294
230.869	15.449	893.410	676.852
231.884	15.286	893.127	675.921
232.899	15.413	892.410	675.827
233.913	15.272	891.800	674.740
234.928	15.278	890.965	674.074
235.942	15.242	890.582	673.580
236.957	15.326	889.772	673.245
237.972	15.295	889.491	672.848
238.986	15.286	888.978	672.364
240.001	15.290	887.889	671.497
241.015	15.375	887.530	671.507
242.030	15.476	886.679	671.207
243.045	15.438	886.347	670.742
244.059	15.401	886.009	670.281
245.074	15.498	885.058	669.890
246.088	15.445	884.673	669.328
247.103	15.616	884.052	669.479
248.117	15.739	883.342	669.373
249.132	15.856	882.809	669.376
250.147	15.874	882.582	669.214
251.161	15.823	882.049	668.548
252.176	15.882	881.259	668.126
253.190	15.907	880.403	667.516
254.205	16.036	879.527	667.305
255.220	15.982	879.210	666.791
256.234	16.001	878.827	666.517
257.249	15.952	878.020	665.649
258.263	16.017	877.023	665.094
259.278	15.991	876.347	664.419
260.293	16.044	875.872	664.207
261.307	16.023	875.719	663.952
262.322	16.012	874.864	663.203
263.336	16.160	873.722	662.856
264.351	16.196	872.876	662.298
265.366	16.145	872.460	661.725
266.380	16.116	872.395	661.504
267.395	16.139	871.523	660.871
268.409	16.174	870.657	660.294
269.424	16.155	869.820	659.528
270.439	16.018	869.387	658.605
271.453	16.171	868.478	658.455
272.468	16.010	868.460	657.757
273.482	16.015	867.691	657.135
274.497	16.379	866.474	657.572
275.512	16.192	866.200	656.577
276.526	16.115	865.700	655.841
277.541	16.240	865.251	655.930
278.555	16.266	864.980	655.765
279.570	16.368	863.998	655.360
280.585	16.229	863.683	654.526
281.599	16.319	862.657	654.036
282.614	16.308	862.000	653.438
283.628	16.306	861.498	652.991
284.643	16.331	860.971	652.631
285.657	16.258	860.213	651.717
286.672	16.426	859.237	651.567
287.687	16.404	858.972	651.223
288.701	16.260	858.661	650.376
289.716	16.275	857.879	649.785
290.730	16.386	857.513	649.876
291.745	16.362	857.030	649.359
292.760	16.336	856.675	648.933
293.774	16.452	855.661	648.553
294.789	16.355	855.265	647.826
295.803	16.383	854.098	646.989
296.818	16.381	853.783	646.686
297.833	16.458	852.948	646.293
298.847	16.408	852.130	645.426
299.862	16.386	851.919	645.124
300.876	16.521	851.430	645.212
301.891	16.613	850.998	645.178
302.906	16.610	850.581	644.791
303.920	16.738	849.771	644.609
304.935	16.692	849.217	643.958
305.949	16.768	848.079	643.325
306.964	16.527	848.272	642.499
307.979	16.697	847.516	642.514
308.993	16.716	846.934	642.087
310.008	16.738	846.432	641.734
311.022	16.718	845.766	641.095
312.037	16.778	844.912	640.621
313.052	16.619	844.168	639.399
314.066	16.540	844.200	639.067
315.081	16.400	843.518	637.966
316.095	16.440	843.489	638.040
317.110	16.581	842.293	637.611
318.125	16.549	841.914	637.147
319.139	16.610	841.254	636.818
320.154	16.622	840.919	636.555
321.168	16.746	840.104	636.348
322.183	16.831	839.563	636.200
323.197	16.699	839.237	635.403
324.212	16.654	839.056	635.040
325.227	16.607	838.444	634.345
326.241	16.501	837.847	633.439
327.256	16.619	837.137	633.286
328.270	16.774	836.276	633.160
329.285	16.746	835.893	632.710
330.300	16.794	835.152	632.270
331.314	16.680	834.945	631.634
332.329	16.935	834.191	631.959
333.343	16.789	833.919	631.150
334.358	16.927	833.476	631.274
335.373	16.924	833.000	630.845
336.387	16.967	832.764	630.770
337.402	16.910	832.676	630.436
338.416	17.006	832.211	630.385
339.431	17.170	832.319	631.022
340.446	17.208	830.987	630.098
341.460	17.238	831.121	630.255
342.475	17.265	830.792	630.049
343.489	17.227	830.140	629.360
344.504	17.238	829.826	629.104
345.519	17.362	828.795	628.728
346.533	17.362	828.221	628.236
347.548	17.168	828.045	627.329
348.562	17.117	827.564	626.721
349.577	17.135	826.508	625.934
350.592	17.239	825.647	625.608
351.606	17.063	825.660	624.915
352.621	17.068	825.001	624.377
353.635	17.393	824.081	624.821
354.650	17.252	823.681	623.944
355.665	17.241	823.045	623.368
356.679	17.320	822.478	623.171
357.694	17.187	822.080	622.330
358.708	17.201	821.791	622.107
359.723	17.297	820.856	621.695
360.738	17.233	820.668	621.263
361.752	17.432	819.270	620.878
362.767	17.331	819.119	620.338
363.781	17.532	818.586	620.614
364.796	17.654	817.998	620.557
365.810	17.597	817.675	620.050
366.825	17.718	817.450	620.264
367.840	17.623	816.924	619.462
368.854	17.556	816.292	618.685
369.869	17.458	816.108	618.137
370.883	17.501	815.690	617.920
371.898	17.760	815.215	618.447
372.913	17.603	814.831	617.530
373.927	17.607	814.457	617.207
374.942	17.701	813.824	617.015
375.956	17.547	813.807	616.390
376.971	17.680	813.186	616.345
377.986	17.887	812.737	616.698
379.000	18.088	812.007	616.816
380.015	17.873	811.515	615.612
381.029	17.837	811.373	615.318
382.044	17.854	810.521	614.678
383.059	17.844	810.201	614.345
384.073	17.920	809.345	613.915
385.088	17.820	808.917	613.177
386.102	17.669	808.246	612.074
387.117	17.955	807.332	612.353
388.132	17.832	807.000	611.607
389.146	17.906	806.448	611.399
390.161	17.903	806.176	611.126
391.175	17.956	805.765	610.951
392.190	17.925	805.141	610.313
393.205	17.832	804.631	609.540
394.219	17.933	804.119	609.458
395.234	17.711	804.072	608.576
396.248	17.647	803.400	607.786
397.263	17.727	803.040	607.746
398.278	17.739	802.324	607.191
399.292	17.699	802.242	606.933
400.307	17.690	801.695	606.433
401.321	17.599	801.497	605.907
402.336	17.873	800.429	606.020
403.350	17.863	800.368	605.884
404.365	17.898	800.101	605.753
405.380	18.014	799.698	605.805
406.394	18.139	798.668	605.414
407.409	18.201	798.457	605.420
408.423	18.161	798.267	605.081
409.438	18.267	797.925	605.144
410.453	18.203	797.509	604.547
411.467	18.171	796.931	603.943
412.482	18.334	796.622	604.231
413.496	18.476	796.058	604.251
414.511	18.412	795.944	603.885
415.526	18.221	795.472	602.799
416.540	18.372	795.209	603.078
417.555	18.442	794.629	602.831
418.569	18.428	794.064	602.300
419.584	18.467	793.372	601.859
420.599	18.422	793.185	601.508
421.613	155.925	1370.518	1792.966
422.628	134.950	1454.645	1793.048
