DTS Sentinel unit serial number:	SN413079Multiplexer serial number:	ORYXHardware model number:	OX4-SRSoftware version number:	ORYX F/W v4.00 Oryx Data Collector v3.7.2.0data status	okinstallation	princeton_trtdifferential loss correction	single-endedforward channel	channel 1reverse channel	N/Adate	2019/09/18time	16:50:35forward acquisition time	60.00reverse acquisition time	0.00gamma	496.2192k internal	0.2292k external	0.2292temperature offset calibration	1.0001default loss term (dB/km)	0.3790temperature slope calibration	1.0000multiplexer offset coefficient	1.0000multiplexer slope coefficient	1.0000fibre end	0.00T internal ref (°C)	40.00T ext. ref 1 (°C)	0.88T ext. ref 2 (°C)	34.72length (m)	temperature (°C)	Stokes	anti-Stokes-747.200	50.968	-0.118	-0.114
-746.185	167.342	-0.145	0.210
-745.171	19.333	-0.053	-0.044
-744.156	-16.930	-0.285	-0.184
-743.142	-136.741	0.204	-0.024
-742.127	22.149	-0.218	0.182
-741.112	800.000	-0.131	0.508
-740.098	-187.636	-0.059	-0.001
-739.083	16.833	0.060	0.048
-738.069	800.000	0.095	0.292
-737.054	151.354	-0.040	0.055
-736.039	-39.442	-0.217	-0.116
-735.025	-200.000	0.145	-0.001
-734.010	188.389	-0.140	0.214
-732.996	0.476	-0.210	-0.154
-731.981	82.733	-0.287	0.319
-730.966	27.887	0.185	-0.160
-729.952	800.000	-0.075	-0.306
-728.937	27.535	-0.285	-0.245
-727.923	-143.118	-0.206	0.020
-726.908	-200.000	-0.026	0.187
-725.894	-46.515	0.163	-0.082
-724.879	-95.355	0.294	0.081
-723.864	62.393	-0.086	0.088
-722.850	113.466	0.239	-0.296
-721.835	-54.569	-0.357	-0.165
-720.821	227.900	-0.077	-0.129
-719.806	-87.994	-0.085	-0.026
-718.791	-56.632	-0.171	-0.078
-717.777	-115.420	-0.144	-0.028
-716.762	-176.085	-0.303	0.008
-715.748	-48.781	-0.296	0.145
-714.733	-198.206	-0.270	-0.002
-713.718	-94.227	-0.134	-0.037
-712.704	-50.470	0.444	-0.214
-711.689	23.881	-0.174	0.147
-710.675	14.067	-0.154	0.122
-709.660	-130.159	0.028	0.004
-708.645	193.518	0.074	0.114
-707.631	66.608	-0.114	0.118
-706.616	-92.975	0.153	-0.044
-705.602	-200.000	0.015	-0.114
-704.587	15.458	-0.038	0.030
-703.572	174.608	0.055	0.082
-702.558	-200.000	-0.008	0.158
-701.543	-41.140	-0.378	0.199
-700.529	-120.170	0.294	-0.051
-699.514	-24.577	0.267	-0.162
-698.499	-53.293	0.107	0.050
-697.485	-200.000	0.040	0.187
-696.470	-24.959	0.225	-0.136
-695.456	-200.000	0.006	0.081
-694.441	800.000	-0.007	-0.019
-693.426	6.787	-0.188	-0.143
-692.412	-153.741	0.089	-0.006
-691.397	800.000	0.136	0.419
-690.383	-121.431	-0.263	0.045
-689.368	16.463	-0.216	0.174
-688.354	31.430	-0.197	0.173
-687.339	-53.837	0.552	0.257
-686.324	-90.984	-0.186	0.055
-685.310	-171.547	0.090	0.003
-684.295	-95.561	-0.187	0.051
-683.281	77.671	-0.216	0.235
-682.266	-126.849	-0.040	-0.006
-681.251	144.236	-0.057	0.078
-680.237	-103.247	0.118	-0.028
-679.222	-160.167	-0.254	0.014
-678.208	565.826	0.132	-0.327
-677.193	622.154	-0.019	-0.048
-676.178	42.605	-0.096	-0.089
-675.164	-101.566	-0.265	-0.066
-674.149	-125.892	0.390	0.060
-673.135	-54.689	-0.205	-0.094
-672.120	-24.968	-0.171	0.103
-671.105	800.000	0.041	0.172
-670.091	-200.000	0.024	0.227
-669.076	-200.000	-0.026	-0.120
-668.062	146.113	-0.066	-0.091
-667.047	520.228	-0.117	0.281
-666.032	115.800	-0.063	-0.079
-665.018	800.000	-0.119	0.403
-664.003	-200.000	0.017	0.135
-662.989	-73.841	-0.192	-0.071
-661.974	-200.000	-0.025	-0.171
-660.959	209.053	0.193	-0.308
-659.945	800.000	-0.098	-0.402
-658.930	-200.000	0.083	0.435
-657.916	123.793	-0.131	0.167
-656.901	-29.969	-0.069	-0.040
-655.886	28.751	-0.121	0.105
-654.872	-6.110	-0.122	-0.085
-653.857	530.906	0.126	-0.303
-652.843	-43.270	-0.322	0.166
-651.828	178.374	0.106	0.158
-650.814	-200.000	-0.053	-0.236
-649.799	-10.870	-0.186	-0.126
-648.784	-20.316	0.271	-0.170
-647.770	387.371	0.027	0.058
-646.755	-112.537	0.193	0.039
-645.741	148.715	-0.095	0.131
-644.726	-40.080	0.206	0.110
-643.711	66.570	0.098	-0.101
-642.697	-35.699	-0.140	-0.078
-641.682	-111.667	0.110	0.023
-640.668	-87.905	-0.039	-0.012
-639.653	-154.416	-0.309	0.021
-638.638	29.110	-0.302	0.261
-637.624	-131.244	-0.136	-0.018
-636.609	358.693	-0.073	-0.149
-635.595	-69.887	0.053	-0.020
-634.580	-70.035	0.375	-0.145
-633.565	-45.911	0.103	-0.052
-632.551	117.748	0.084	-0.105
-631.536	-200.000	-0.017	-0.194
-630.522	-122.445	0.107	0.018
-629.507	-54.110	0.071	-0.033
-628.492	432.734	-0.088	-0.195
-627.478	-151.334	0.336	0.026
-626.463	-168.495	-0.204	-0.008
-625.449	103.471	-0.118	0.140
-624.434	-200.000	-0.026	0.210
-623.419	-147.543	0.289	0.025
-622.405	-200.000	-0.022	0.194
-621.390	-104.330	-0.414	0.098
-620.376	258.553	0.110	0.194
-619.361	-34.583	-0.167	-0.093
-618.346	18.764	0.258	-0.210
-617.332	101.925	-0.168	-0.200
-616.317	800.000	-0.048	-0.202
-615.303	-158.087	-0.146	-0.009
-614.288	-200.000	-0.023	-0.576
-613.273	-45.900	0.161	0.081
-612.259	-57.374	-0.059	-0.026
-611.244	89.521	0.084	0.095
-610.230	0.787	-0.208	-0.152
-609.215	345.952	-0.029	0.059
-608.201	-200.000	0.022	-0.252
-607.186	287.200	-0.092	0.169
-606.171	-90.285	-0.290	0.086
-605.157	194.815	-0.084	-0.129
-604.142	-46.388	0.061	-0.030
-603.128	-86.293	-0.298	0.093
-602.113	-74.983	0.421	-0.154
-601.098	-128.480	0.205	-0.030
-600.084	-200.000	-0.045	-0.237
-599.069	-100.553	-0.094	-0.024
-598.055	-200.000	-0.017	-0.209
-597.040	-200.000	-0.054	-0.315
-596.025	-200.000	-0.026	-0.235
-595.011	6.844	-0.134	-0.102
-593.996	-108.108	-0.114	-0.025
-592.982	-200.000	-0.048	0.264
-591.967	123.767	0.176	-0.225
-590.952	-200.000	0.015	-0.145
-589.938	-200.000	-0.006	-0.132
-588.923	800.000	-0.069	0.231
-587.909	56.898	0.172	0.171
-586.894	19.103	-0.058	0.047
-585.879	118.486	-0.075	0.094
-584.865	-118.178	-0.285	-0.052
-583.850	-200.000	-0.015	-0.281
-582.836	341.789	0.269	-0.536
-581.821	78.257	0.140	-0.152
-580.806	-200.000	-0.040	0.201
-579.792	109.195	-0.252	0.307
-578.777	-132.038	0.299	0.040
-577.763	-136.099	-0.365	-0.044
-576.748	75.542	-0.225	0.242
-575.733	-151.076	-0.380	0.029
-574.719	184.808	0.091	0.137
-573.704	185.257	0.095	0.143
-572.690	36.548	0.128	0.115
-571.675	-200.000	-0.002	0.030
-570.661	81.153	-0.109	0.119
-569.646	-7.150	-0.406	-0.280
-568.631	-57.431	-0.221	-0.099
-567.617	-200.000	-0.006	-0.145
-566.602	-110.336	-0.218	-0.046
-565.588	297.849	-0.121	-0.227
-564.573	-200.000	-0.020	-0.116
-563.558	800.000	0.068	0.225
-562.544	74.122	0.136	-0.145
-561.529	-200.000	0.002	0.255
-560.515	170.247	0.084	-0.123
-559.500	-114.430	-0.174	-0.034
-558.485	-104.762	-0.267	0.063
-557.471	-4.191	-0.443	-0.312
-556.456	-200.000	-0.038	-0.184
-555.442	-47.442	0.049	-0.024
-554.427	83.340	0.042	-0.047
-553.412	29.085	-0.121	0.104
-552.398	-200.000	0.016	0.107
-551.383	4.027	-0.108	0.081
-550.369	800.000	-0.042	0.154
-549.354	-200.000	0.009	-0.040
-548.339	27.315	-0.020	-0.017
-547.325	-200.000	-0.015	0.087
-546.310	327.613	0.170	0.332
-545.296	-14.673	-0.073	0.048
-544.281	-200.000	-0.004	-0.158
-543.266	-120.629	-0.249	0.043
-542.252	-8.253	0.196	0.134
-541.237	-95.768	-0.189	0.051
-540.223	733.201	0.136	0.369
-539.208	-49.007	0.111	0.054
-538.193	-85.216	-0.275	-0.087
-537.179	-147.983	0.238	0.020
-536.164	-24.042	-0.272	0.165
-535.150	-158.148	-0.066	-0.004
-534.135	-73.099	-0.402	-0.150
-533.121	188.235	-0.179	-0.272
-532.106	504.134	-0.039	0.092
-531.091	399.534	-0.059	0.125
-530.077	-3.657	-0.072	0.051
-529.062	-148.459	0.304	-0.025
-528.048	-16.641	0.298	-0.191
-527.033	-200.000	0.003	0.017
-526.018	31.298	0.124	0.108
-525.004	163.597	0.107	0.153
-523.989	800.000	0.046	0.136
-522.975	58.030	-0.259	-0.258
-521.960	87.795	-0.192	0.216
-520.945	-76.068	-0.090	-0.032
-519.931	800.000	-0.061	0.177
-518.916	-129.772	0.070	0.010
-517.902	166.775	-0.122	0.175
-516.887	-68.039	0.272	-0.108
-515.872	11.218	-0.181	0.140
-514.858	445.700	-0.167	0.372
-513.843	78.230	0.123	0.133
-512.829	-116.047	-0.117	-0.022
-511.814	800.000	-0.080	-0.290
-510.799	-200.000	0.049	-0.292
-509.785	-200.000	0.040	-0.390
-508.770	-200.000	0.015	0.084
-507.756	-178.589	0.299	0.007
-506.741	34.308	-0.236	-0.208
-505.726	-106.721	0.238	0.054
-504.712	-22.697	0.208	-0.127
-503.697	-124.823	0.141	-0.022
-502.683	58.845	-0.386	0.385
-501.668	157.670	0.113	-0.159
-500.653	99.018	-0.134	-0.157
-499.639	284.869	0.032	0.058
-498.624	-106.864	-0.238	0.053
-497.610	-100.436	-0.273	-0.069
-496.595	-200.000	-0.019	0.249
-495.581	-161.861	0.124	-0.006
-494.566	-200.000	0.004	-0.029
-493.551	-163.613	0.174	0.008
-492.537	459.406	0.053	0.119
-491.522	800.000	0.076	-0.253
-490.508	-62.789	-0.115	0.048
-489.493	-23.139	0.154	0.094
-488.478	14.085	0.036	0.028
-487.464	-11.874	0.192	0.128
-486.449	504.025	0.030	-0.070
-485.435	465.595	0.039	0.089
-484.420	478.742	0.086	0.197
-483.405	243.113	0.162	0.275
-482.391	-102.139	0.263	0.064
-481.376	83.717	0.088	0.098
-480.362	800.000	0.061	-0.234
-479.347	71.613	-0.109	-0.115
-478.332	26.312	-0.068	0.058
-477.318	-107.229	-0.158	-0.035
-476.303	-200.000	-0.026	-0.230
-475.289	-200.000	-0.002	-0.079
-474.274	-200.000	-0.000	0.003
-473.259	-39.728	-0.088	0.046
-472.245	-146.081	0.117	0.010
-471.230	-200.000	0.003	0.427
-470.216	227.100	0.217	0.356
-469.201	245.727	-0.173	0.294
-468.186	800.000	0.053	0.182
-467.172	56.845	-0.144	0.142
-466.157	-57.384	-0.263	0.117
-465.143	-200.000	0.018	0.120
-464.128	-200.000	-0.020	0.322
-463.113	-71.431	-0.286	0.108
-462.099	800.000	-0.057	-0.178
-461.084	-12.918	0.306	0.202
-460.070	33.200	0.244	0.214
-459.055	170.837	0.079	0.114
-458.040	800.000	0.084	0.249
-457.026	374.825	-0.038	-0.079
-456.011	97.082	-0.134	-0.156
-454.997	-6.432	0.066	-0.046
-453.982	-144.912	-0.086	-0.008
-452.968	800.000	0.034	-0.128
-451.953	137.822	0.241	0.320
-450.938	87.685	0.100	0.112
-449.924	-63.681	0.218	-0.090
-448.909	-115.124	-0.233	0.045
-447.895	-200.000	0.357	0.002
-446.880	114.618	0.235	0.290
-445.865	277.580	0.109	0.197
-444.851	-200.000	-0.275	-0.001
-443.836	-200.000	-0.025	0.142
-442.822	-200.000	-0.034	0.159
-441.807	-200.000	0.007	-0.094
-440.792	67.954	-0.281	0.291
-439.778	-73.148	-0.142	-0.052
-438.763	800.000	0.048	-0.196
-437.749	-117.943	-0.084	0.015
-436.734	-200.000	-0.023	0.199
-435.719	62.966	0.069	0.070
-434.705	5.721	-0.207	0.155
-433.690	800.000	-0.060	0.236
-432.676	-48.961	-0.272	0.132
-431.661	-200.000	-0.050	-0.419
-430.646	289.104	0.106	-0.194
-429.632	54.727	-0.034	0.033
-428.617	-69.198	0.472	0.184
-427.603	-82.901	0.290	0.095
-426.588	-69.471	0.059	-0.023
-425.573	-200.000	0.001	0.170
-424.559	37.023	-0.089	0.080
-423.544	-6.164	0.090	0.062
-422.530	-200.000	0.078	-0.401
-421.515	742.950	0.206	0.560
-420.500	71.999	0.081	-0.085
-419.486	-200.000	0.017	-0.437
-418.471	-66.159	0.226	0.091
-417.457	3.988	0.175	0.129
-416.442	-200.000	-0.020	0.173
-415.428	-200.000	0.001	-0.058
-414.413	336.529	-0.070	-0.138
-413.398	73.639	0.225	0.238
-412.384	800.000	-0.071	-0.218
-411.369	170.542	-0.112	0.163
-410.355	-51.846	0.133	0.063
-409.340	123.195	0.088	0.112
-408.325	-116.520	-0.153	0.029
-407.311	251.863	-0.219	-0.377
-406.296	-139.313	-0.182	-0.020
-405.282	-200.000	-0.005	-0.072
-404.267	118.245	0.133	-0.165
-403.252	800.000	-0.032	-0.129
-402.238	410.473	0.113	-0.242
-401.223	415.618	-0.063	-0.136
-400.209	17.112	-0.111	-0.089
-399.194	497.755	-0.120	0.279
-398.179	87.685	-0.102	0.114
-397.165	-43.454	0.250	-0.128
-396.150	800.000	-0.011	-0.032
-395.136	-56.325	0.346	-0.155
-394.121	-53.507	-0.102	0.047
-393.106	42.792	-0.361	-0.332
-392.092	-100.339	-0.165	-0.041
-391.077	109.831	-0.128	-0.155
-390.063	-200.000	0.042	-0.347
-389.048	-31.260	-0.143	-0.082
-388.033	-200.000	0.042	-0.488
-387.019	119.680	-0.074	0.092
-386.004	109.522	0.021	-0.026
-384.990	-200.000	0.134	0.000
-383.975	-82.519	0.076	-0.025
-382.960	51.105	0.147	0.140
-381.946	-12.526	-0.139	-0.092
-380.931	48.116	0.407	-0.384
-379.917	-36.087	-0.229	-0.125
-378.902	57.294	-0.195	-0.192
-377.888	430.053	0.119	-0.260
-376.873	-200.000	-0.030	0.167
-375.858	276.895	0.082	0.147
-374.844	432.536	0.047	0.104
-373.829	325.260	0.134	0.259
-372.815	-143.866	-0.083	-0.008
-371.800	-200.000	-0.020	0.305
-370.785	476.421	-0.154	0.351
-369.771	-200.000	0.008	0.144
-368.756	383.186	0.053	0.111
-367.742	402.411	0.156	0.330
-366.727	-91.979	-0.160	0.046
-365.712	75.283	0.306	0.326
-364.698	664.424	-0.099	-0.258
-363.683	-67.342	-0.197	-0.078
-362.669	191.817	0.092	-0.139
-361.654	-200.000	0.054	-0.000
-360.639	800.000	0.006	-0.019
-359.625	-161.943	0.222	0.011
-358.610	800.000	0.119	-0.375
-357.596	29.866	-0.231	-0.199
-356.581	-119.098	0.246	0.043
-355.566	-101.524	0.108	0.027
-354.552	8.798	-0.119	-0.090
-353.537	236.673	0.101	-0.169
-352.523	-200.000	-0.010	0.048
-351.508	-126.991	-0.111	-0.016
-350.493	368.122	0.075	-0.154
-349.479	-107.883	0.059	-0.013
-348.464	-114.050	0.353	0.069
-347.450	231.472	0.032	0.053
-346.435	26.875	-0.408	-0.345
-345.420	-200.000	-0.023	-0.191
-344.406	-115.448	0.166	-0.032
-343.391	-55.429	-0.061	-0.028
-342.377	-200.000	-0.022	0.263
-341.362	11.314	0.163	0.126
-340.348	-200.000	-0.010	-0.091
-339.333	-200.000	0.010	0.238
-338.318	-200.000	-0.002	-0.016
-337.304	418.146	0.065	-0.139
-336.289	52.209	-0.111	0.107
-335.275	-2.475	0.194	0.137
-334.260	309.337	0.095	-0.179
-333.245	-91.498	-0.413	0.119
-332.231	232.195	0.026	0.043
-331.216	-200.000	-0.006	-0.221
-330.202	119.261	0.088	-0.109
-329.187	-200.000	0.004	-0.376
-328.172	-200.000	-0.028	-0.187
-327.158	800.000	-0.096	0.267
-326.143	-105.592	0.045	0.010
-325.129	-116.912	0.109	0.020
-324.114	-60.495	0.446	0.191
-323.099	-32.491	0.280	0.157
-322.085	236.329	-0.078	0.130
-321.070	-200.000	0.079	-0.360
-320.056	-89.696	0.194	-0.057
-319.041	163.631	0.171	-0.243
-318.026	73.191	-0.158	-0.167
-317.012	-200.000	0.012	-0.076
-315.997	303.600	0.114	0.212
-314.983	-200.000	0.040	-0.217
-313.968	800.000	-0.028	0.094
-312.953	-9.576	-0.150	0.101
-311.939	-109.047	-0.148	0.032
-310.924	50.798	-0.287	-0.274
-309.910	-200.000	0.014	0.132
-308.895	275.663	-0.052	0.093
-307.880	16.474	-0.167	0.133
-306.866	-200.000	0.025	-0.183
-305.851	441.509	-0.140	-0.308
-304.837	-9.867	0.161	-0.108
-303.822	-55.624	-0.165	0.074
-302.807	800.000	-0.005	-0.022
-301.793	-88.285	-0.023	-0.007
-300.778	-152.547	-0.086	-0.006
-299.764	160.771	-0.166	0.234
-298.749	66.880	-0.206	0.211
-297.735	15.597	0.198	0.157
-296.720	-104.852	-0.456	0.105
-295.705	49.084	-0.204	0.193
-294.691	179.391	-0.119	0.176
-293.676	-46.418	-0.260	-0.129
-292.662	164.322	0.093	0.132
-291.647	-157.931	0.099	-0.006
-290.632	-200.000	-0.054	-0.280
-289.618	-20.064	0.138	-0.085
-288.603	-200.000	-0.013	0.186
-287.589	77.667	0.224	0.240
-286.574	17.063	0.191	0.152
-285.559	-168.509	-0.044	-0.002
-284.545	-85.131	0.241	-0.076
-283.530	-157.369	0.170	0.010
-282.516	-100.706	0.107	-0.027
-281.501	-27.850	-0.199	0.116
-280.486	484.631	0.111	0.253
-279.472	464.384	0.090	-0.202
-278.457	-200.000	-0.019	-0.234
-277.443	508.311	-0.153	-0.356
-276.428	319.516	0.245	-0.467
-275.413	142.700	0.116	0.155
-274.399	-117.685	-0.164	-0.030
-273.384	-6.236	-0.199	0.137
-272.370	564.664	0.070	0.169
-271.355	-161.635	0.233	0.012
-270.340	72.031	0.067	0.070
-269.326	-200.000	0.002	0.160
-268.311	199.473	-0.052	-0.080
-267.297	-49.472	0.130	-0.062
-266.282	-0.803	-0.172	-0.122
-265.267	203.380	-0.067	0.104
-264.253	-23.545	0.133	0.080
-263.238	-80.072	-0.337	-0.113
-262.224	21.708	-0.056	0.046
-261.209	-48.010	-0.135	0.066
-260.195	213.911	-0.037	-0.059
-259.180	800.000	0.055	0.188
-258.165	-107.397	0.401	-0.088
-257.151	-200.000	0.042	-0.189
-256.136	-16.619	0.148	-0.094
-255.122	312.745	0.107	0.202
-254.107	-32.518	-0.205	0.115
-253.092	91.782	0.126	0.142
-252.078	800.000	-0.140	-0.441
-251.063	-200.000	-0.005	0.176
-250.049	-200.000	-0.014	0.143
-249.034	88.039	-0.189	0.210
-248.019	-49.681	0.076	-0.036
-247.005	-200.000	-0.001	-0.120
-245.990	698.211	0.169	0.447
-244.976	-40.528	-0.190	0.099
-243.961	-200.000	-0.035	-0.477
-242.946	800.000	0.166	-0.481
-241.932	272.745	-0.094	-0.166
-240.917	40.518	0.166	0.150
-239.903	-105.577	0.020	-0.005
-238.888	-7.493	-0.159	0.108
-237.873	123.507	0.063	-0.079
-236.859	-111.343	0.038	0.008
-235.844	442.144	0.055	-0.120
-234.830	-200.000	0.005	-0.195
-233.815	29.193	0.097	-0.083
-232.800	289.157	-0.109	0.198
-231.786	640.679	0.053	0.134
-230.771	89.190	0.260	0.290
-229.757	87.813	0.174	-0.194
-228.742	800.000	-0.051	0.198
-227.727	800.000	0.054	0.200
-226.713	-200.000	-0.058	0.293
-225.698	-32.090	-0.356	-0.200
-224.684	800.000	0.149	-0.421
-223.669	-5.451	0.302	0.208
-222.655	-54.015	-0.064	-0.029
-221.640	307.065	-0.156	-0.291
-220.625	-88.007	0.103	0.031
-219.611	800.000	-0.073	-0.269
-218.596	2.330	0.025	-0.018
-217.582	-63.575	0.202	-0.083
-216.567	259.751	0.128	0.222
-215.552	-200.000	0.006	-0.034
-214.538	-87.619	-0.227	-0.069
-213.523	462.940	-0.112	-0.251
-212.509	-100.888	-0.176	0.043
-211.494	-54.409	-0.113	0.051
-210.479	185.627	0.128	-0.190
-209.465	-72.853	-0.194	0.072
-208.450	93.911	-0.133	-0.151
-207.436	-112.336	-0.306	0.061
-206.421	-63.028	0.111	-0.046
-205.406	-200.000	-0.009	0.391
-204.392	-94.958	0.136	0.037
-203.377	-176.090	0.162	-0.004
-202.363	-103.171	0.206	-0.049
-201.348	-200.000	0.048	-0.323
-200.333	-200.000	0.011	-0.077
-199.319	-25.511	0.053	-0.032
-198.304	-160.488	-0.173	-0.009
-197.290	634.579	-0.052	0.133
-196.275	800.000	0.018	-0.052
-195.260	186.178	0.092	-0.138
-194.246	26.954	-0.221	0.185
-193.231	236.166	0.139	0.231
-192.217	-101.557	-0.182	0.044
-191.202	-200.000	0.010	0.200
-190.187	800.000	0.025	0.082
-189.173	73.603	0.089	0.094
-188.158	-130.776	0.187	-0.025
-187.144	-60.831	0.164	-0.069
-186.129	-27.611	0.158	-0.092
-185.114	108.314	-0.103	0.124
-184.100	290.230	0.160	0.290
-183.085	-147.147	-0.254	0.022
-182.071	-200.000	-0.001	-0.169
-181.056	-20.974	-0.218	-0.134
-180.042	-200.000	-0.005	-0.147
-179.027	-117.972	0.071	0.013
-178.012	599.251	-0.038	-0.095
-176.998	12.487	0.191	0.148
-175.983	17.804	0.068	-0.054
-174.969	-157.756	-0.217	0.013
-173.954	-88.403	0.318	0.095
-172.939	-153.851	0.175	-0.012
-171.925	-200.000	0.020	-0.143
-170.910	-200.000	0.024	-0.196
-169.896	-200.000	-0.029	-0.152
-168.881	-70.093	0.225	0.086
-167.866	-200.000	0.043	0.218
-166.852	-80.343	0.518	-0.173
-165.837	145.463	-0.163	-0.218
-164.823	10.501	0.338	0.257
-163.808	299.073	0.170	0.313
-162.793	-169.998	-0.128	-0.005
-161.779	-82.914	-0.121	0.039
-160.764	-108.906	-0.527	-0.113
-159.750	-200.000	0.021	-0.199
-158.735	-200.000	-0.002	-0.246
-157.720	65.510	-0.110	0.111
-156.706	-200.000	-0.024	0.217
-155.691	800.000	0.117	0.337
-154.677	-76.256	0.259	0.091
-153.662	-116.210	0.247	-0.046
-152.647	-200.000	-0.027	-0.219
-151.633	-67.195	-0.312	0.123
-150.618	-11.060	0.084	-0.056
-149.604	-81.462	-0.095	-0.031
-148.589	-83.791	0.130	0.042
-147.574	266.857	-0.115	-0.201
-146.560	-178.215	-0.297	0.007
-145.545	-41.026	0.162	0.084
-144.531	-35.813	-0.081	-0.044
-143.516	-200.000	0.017	0.168
-142.502	200.273	-0.322	-0.495
-141.487	389.137	0.141	0.291
-140.472	-88.029	0.288	0.087
-139.458	-84.160	0.104	0.033
-138.443	-14.960	-0.481	0.309
-137.429	-101.591	-0.417	-0.101
-136.414	320.351	0.097	-0.184
-135.399	-162.923	-0.408	-0.020
-134.385	523.216	-0.090	0.210
-133.370	187.503	0.207	0.308
-132.356	105.514	-0.099	-0.117
-131.341	174.427	-0.139	-0.201
-130.326	-24.947	0.292	-0.173
-129.312	18.727	-0.160	0.128
-128.297	-41.624	-0.043	0.022
-127.283	-153.043	0.132	-0.009
-126.268	451.817	0.033	0.074
-125.253	-101.345	-0.145	-0.035
-124.239	319.574	0.291	-0.551
-123.224	188.509	-0.174	0.261
-122.210	800.000	-0.078	0.257
-121.195	-200.000	-0.014	0.085
-120.180	800.000	-0.041	0.133
-119.166	45.177	0.184	-0.170
-118.151	-200.000	-0.015	0.165
-117.137	-200.000	-0.052	-0.241
-116.122	-200.000	0.080	0.351
-115.107	-131.779	-0.094	0.012
-114.093	800.000	-0.014	0.050
-113.078	-99.162	-0.173	0.044
-112.064	2.450	-0.170	-0.123
-111.049	-42.999	0.162	0.082
-110.034	-200.000	0.018	-0.383
-109.020	23.812	-0.051	0.042
-108.005	477.554	0.072	0.162
-106.991	-200.000	-0.091	0.416
-105.976	52.882	0.203	-0.194
-104.962	9.880	-0.090	0.068
-103.947	-77.737	-0.108	0.037
-102.932	190.624	-0.027	-0.041
-101.918	208.798	0.119	-0.187
-100.903	-94.499	-0.386	-0.105
-99.889	192.095	0.069	-0.104
-98.874	340.884	0.117	0.227
-97.859	243.383	0.025	0.043
-96.845	-200.000	0.014	0.180
-95.830	-68.951	0.100	0.038
-94.816	-133.596	0.066	-0.008
-93.801	51.401	-0.043	0.041
-92.786	-123.047	-0.085	0.014
-91.772	-200.000	0.001	-0.089
-90.757	106.919	-0.097	-0.114
-89.743	800.000	-0.045	-0.194
-88.728	31.533	0.246	-0.211
-87.713	503.901	-0.135	0.312
-86.699	800.000	0.095	-0.287
-85.684	73.363	-0.303	-0.316
-84.670	57.948	0.090	0.088
-83.655	26.762	0.251	0.209
-82.640	164.670	0.125	-0.176
-81.626	-82.016	0.127	0.041
-80.611	-58.533	0.200	-0.087
-79.597	63.775	-0.280	0.280
-78.582	0.289	0.284	0.202
-77.567	29.684	0.321	0.272
-76.553	-57.113	-0.536	0.235
-75.538	800.000	-0.006	-0.025
-74.524	800.000	-0.158	0.565
-73.509	-200.000	-0.024	-0.225
-72.494	-118.072	0.211	-0.038
-71.480	800.000	0.043	-0.130
-70.465	-58.840	-0.135	-0.058
-69.451	-67.828	0.148	0.058
-68.436	112.563	-0.141	0.170
-67.422	260.300	0.203	0.350
-66.407	-85.512	-0.285	-0.089
-65.392	-142.304	-0.084	-0.008
-64.378	520.979	-0.106	0.249
-63.363	-146.184	-0.175	0.015
-62.349	-136.067	-0.034	0.004
-61.334	-0.609	-0.794	-0.561
-60.319	139.952	0.194	0.255
-59.305	-200.000	-0.068	-0.891
-58.290	800.000	0.224	0.907
-57.276	800.000	0.501	1.451
-56.261	-200.000	77.473	512.792
-55.246	491.823	1347.707	3075.742
-54.232	141.436	2602.594	3432.817
-53.217	112.515	2267.891	2734.448
-52.203	51.276	1709.445	1616.617
-51.188	43.490	1432.598	1304.744
-50.173	40.144	1386.505	1241.758
-49.159	57.876	1423.424	1387.648
-48.144	63.738	1442.170	1443.018
-47.130	44.023	1403.747	1281.638
-46.115	40.187	1386.792	1242.087
-45.100	39.852	1382.387	1235.994
-44.086	39.814	1380.514	1234.034
-43.071	39.844	1377.722	1231.675
-42.057	39.755	1375.072	1228.702
-41.042	39.770	1373.324	1227.188
-40.027	39.988	1372.119	1227.416
-39.013	39.920	1370.080	1225.123
-37.998	39.959	1367.748	1223.232
-36.984	40.004	1366.537	1222.373
-35.969	40.034	1364.327	1220.535
-34.954	40.103	1362.159	1218.970
-33.940	40.105	1360.867	1217.782
-32.925	40.159	1359.622	1216.949
-31.911	40.146	1358.298	1215.639
-30.896	40.069	1356.896	1213.860
-29.881	40.108	1355.417	1212.731
-28.867	40.174	1353.848	1211.681
-27.852	40.072	1352.619	1209.910
-26.838	40.160	1350.881	1208.844
-25.823	40.038	1349.394	1206.724
-24.809	40.035	1347.985	1205.396
-23.794	40.044	1346.952	1204.480
-22.779	40.046	1345.300	1202.963
-21.765	40.109	1343.808	1201.967
-20.750	40.080	1342.314	1200.409
-19.736	39.992	1340.722	1198.404
-18.721	39.888	1339.925	1197.011
-17.706	40.005	1338.698	1196.574
-16.692	39.971	1337.520	1195.273
-15.677	39.891	1336.768	1194.065
-14.663	39.931	1335.469	1193.099
-13.648	39.887	1334.486	1191.908
-12.633	39.850	1333.497	1190.756
-11.619	40.020	1332.231	1190.601
-10.604	39.977	1330.878	1189.088
-9.590	39.893	1330.223	1187.949
-8.575	39.841	1329.455	1186.902
-7.560	39.956	1328.476	1186.672
-6.546	39.914	1327.785	1185.756
-5.531	39.868	1326.635	1184.408
-4.517	39.910	1325.605	1183.694
-3.502	39.946	1324.824	1183.163
-2.487	39.942	1323.768	1182.151
-1.473	40.001	1319.907	1179.009
-0.458	38.930	1304.424	1158.810
0.556	33.615	1283.177	1110.504
1.571	27.819	1285.107	1077.966
2.586	25.209	1298.243	1073.299
3.600	23.065	1284.976	1049.523
4.615	16.521	1206.974	949.124
5.629	6.383	1123.404	830.120
6.644	1.301	1099.679	786.241
7.659	0.760	1096.977	781.444
8.673	0.727	1096.236	780.678
9.688	0.753	1094.703	779.652
10.702	0.873	1093.222	779.144
11.717	5.880	1100.671	810.289
12.731	14.475	1111.676	862.984
13.746	17.929	1115.027	883.410
14.761	17.576	1114.126	880.794
15.775	16.623	1112.166	874.245
16.790	15.623	1110.495	867.690
17.804	15.018	1108.556	862.983
18.819	14.600	1107.294	859.771
19.834	14.252	1106.113	856.983
20.848	14.062	1105.343	855.334
21.863	13.826	1104.457	853.361
22.877	13.701	1103.554	851.944
23.892	13.588	1102.667	850.604
24.907	13.533	1102.265	849.936
25.921	13.652	1101.087	849.566
26.936	13.747	1100.226	849.313
27.950	13.648	1099.558	848.214
28.965	13.812	1098.202	847.932
29.980	13.715	1097.104	846.514
30.994	13.688	1095.931	845.397
32.009	13.772	1095.058	845.073
33.023	13.757	1093.931	844.055
34.038	13.701	1093.006	842.979
35.053	13.825	1091.665	842.504
36.067	13.742	1090.984	841.482
37.082	13.828	1090.032	841.110
38.096	13.926	1089.267	840.938
39.111	13.779	1089.028	839.935
40.126	13.738	1087.274	838.303
41.140	13.735	1086.139	837.339
42.155	13.582	1085.362	835.894
43.169	13.592	1084.312	835.060
44.184	13.612	1083.167	834.205
45.199	13.572	1081.756	832.842
46.213	13.624	1080.602	832.141
47.228	13.639	1079.706	831.452
48.242	13.642	1078.562	830.513
49.257	13.618	1077.770	829.713
50.271	13.776	1076.559	829.495
51.286	13.611	1075.890	828.082
52.301	13.676	1074.633	827.365
53.315	13.687	1073.308	826.330
54.330	13.693	1072.383	825.574
55.344	13.666	1071.670	824.818
56.359	13.587	1070.875	823.736
57.374	13.668	1069.844	823.276
58.388	13.611	1068.714	822.049
59.403	13.522	1068.756	821.568
60.417	13.634	1067.507	821.088
61.432	13.597	1066.241	819.861
62.447	13.483	1066.062	819.085
63.461	13.527	1064.918	818.353
64.476	13.429	1063.911	817.022
65.490	13.423	1063.248	816.409
66.505	13.543	1062.302	816.203
67.520	13.575	1061.606	815.756
68.534	13.543	1061.089	815.130
69.549	13.485	1060.448	814.279
70.563	13.582	1059.420	813.891
71.578	13.496	1058.934	813.023
72.593	13.517	1057.330	811.825
73.607	13.417	1057.249	811.198
74.622	13.506	1056.353	810.879
75.636	13.519	1055.828	810.466
76.651	13.513	1054.913	809.661
77.666	13.520	1054.488	809.298
78.680	13.430	1054.137	808.516
79.695	13.538	1052.957	808.070
80.709	13.442	1052.733	807.359
81.724	13.547	1051.610	806.934
82.739	13.541	1051.084	806.431
83.753	13.658	1050.299	806.326
84.768	13.754	1049.075	805.781
85.782	13.688	1048.399	804.873
86.797	13.646	1047.298	803.749
87.812	13.700	1046.161	803.067
88.826	13.594	1045.221	801.764
89.841	13.573	1044.597	801.114
90.855	13.737	1043.291	800.832
91.870	13.753	1042.641	800.340
92.884	13.776	1041.566	799.555
93.899	13.741	1041.155	798.997
94.914	13.849	1039.969	798.537
95.928	13.732	1039.415	797.479
96.943	13.825	1038.281	796.986
97.957	13.764	1037.178	795.774
98.972	13.747	1036.750	795.297
99.987	13.739	1035.543	794.259
101.001	13.831	1034.411	793.762
102.016	13.642	1034.006	792.476
103.030	13.840	1032.800	792.429
104.045	13.715	1031.966	791.125
105.060	13.645	1031.468	790.338
106.074	13.725	1030.165	789.649
107.089	13.539	1029.689	788.331
108.103	13.550	1028.589	787.469
109.118	13.621	1027.570	786.960
110.133	13.617	1026.429	785.994
111.147	13.729	1025.333	785.615
112.162	13.747	1024.627	785.090
113.176	13.793	1024.002	784.761
114.191	13.623	1023.613	783.589
115.206	13.775	1022.455	783.349
116.220	13.710	1022.119	782.720
117.235	13.799	1020.423	781.769
118.249	13.722	1019.978	780.995
119.264	13.802	1019.300	780.785
120.279	13.785	1018.204	779.798
121.293	13.796	1017.143	778.968
122.308	13.654	1016.521	777.753
123.322	13.655	1015.811	777.146
124.337	13.598	1014.427	775.752
125.352	13.775	1013.219	775.590
126.366	13.712	1012.400	774.599
127.381	13.726	1011.402	773.834
128.395	13.801	1009.841	772.921
129.410	13.836	1009.090	772.439
130.424	13.811	1008.611	771.889
131.439	13.796	1007.885	771.195
132.454	13.879	1006.878	770.738
133.468	13.862	1006.342	770.181
134.483	13.831	1005.411	769.260
135.497	13.949	1004.548	769.077
136.512	13.902	1003.568	768.041
137.527	13.868	1003.000	767.379
138.541	13.821	1002.155	766.448
139.556	13.925	1001.518	766.374
140.570	14.026	1000.686	766.136
141.585	13.914	999.858	764.917
142.600	13.978	999.068	764.540
143.614	13.947	997.803	763.362
144.629	13.935	997.645	763.118
145.643	13.963	996.213	762.084
146.658	13.902	995.147	760.922
147.673	13.861	994.197	759.942
148.687	13.859	993.192	759.098
149.702	13.798	992.562	758.269
150.716	13.946	991.312	757.921
151.731	13.930	990.642	757.270
152.746	13.853	990.424	756.687
153.760	13.916	989.757	756.394
154.775	13.897	988.988	755.653
155.789	13.892	988.677	755.327
156.804	14.037	987.543	755.053
157.819	14.001	987.048	754.444
158.833	14.085	986.069	754.008
159.848	14.244	984.948	753.808
160.862	13.959	984.406	752.033
161.877	14.059	983.496	751.727
162.892	14.041	982.183	750.572
163.906	13.988	981.400	749.669
164.921	13.941	980.930	749.031
165.935	13.963	980.283	748.571
166.950	14.029	979.042	747.853
167.964	14.096	978.290	747.513
168.979	14.042	977.047	746.259
169.994	14.139	976.416	746.145
171.008	14.084	975.830	745.382
172.023	14.107	974.983	744.772
173.037	14.288	974.210	744.925
174.052	14.279	973.174	744.029
175.067	14.055	973.086	742.893
176.081	14.072	972.327	742.324
177.096	14.180	971.615	742.199
178.110	14.176	970.966	741.619
179.125	14.114	970.337	740.796
180.140	14.186	969.634	740.516
181.154	14.260	969.093	740.365
182.169	14.310	968.580	740.129
183.183	14.240	968.198	739.463
184.198	14.345	967.365	739.225
185.213	14.308	966.314	738.192
186.227	14.216	966.104	737.559
187.242	14.312	964.959	737.044
188.256	14.296	964.692	736.706
189.271	14.328	963.429	735.820
190.286	14.288	962.918	735.184
191.300	14.160	962.184	733.995
192.315	14.307	960.888	733.588
193.329	14.221	961.058	733.277
194.344	14.326	960.144	732.975
195.359	14.421	959.259	732.650
196.373	14.353	959.155	732.210
197.388	14.507	958.359	732.213
198.402	14.395	958.068	731.433
199.417	14.442	956.943	730.716
200.432	14.546	956.741	730.954
201.446	14.670	956.057	730.911
202.461	14.573	955.679	730.133
203.475	14.585	955.300	729.829
204.490	14.694	954.397	729.549
205.504	14.585	953.524	728.343
206.519	14.577	952.478	727.445
207.534	14.596	951.832	726.970
208.548	14.684	951.618	727.127
209.563	14.468	950.865	725.545
210.577	14.604	950.074	725.468
211.592	14.694	949.472	725.338
212.607	14.631	948.572	724.313
213.621	14.680	947.728	723.815
214.636	14.769	946.940	723.533
215.650	14.741	946.159	722.755
216.665	14.738	945.486	722.163
217.680	14.719	945.128	721.742
218.694	14.889	944.302	721.781
219.709	14.984	943.390	721.432
220.723	14.806	943.140	720.411
221.738	14.882	942.149	719.917
222.753	14.892	941.469	719.375
223.767	14.799	940.870	718.453
224.782	14.877	940.208	718.220
225.796	14.959	939.523	717.987
226.811	14.997	938.852	717.572
227.826	14.922	938.509	716.925
228.840	14.950	937.106	715.908
229.855	14.823	936.820	715.084
230.869	14.861	935.793	714.397
231.884	14.804	935.287	713.705
232.899	14.822	934.357	713.011
233.913	14.937	933.689	712.926
234.928	14.803	933.127	711.864
235.942	14.931	932.690	712.015
236.957	14.918	932.041	711.401
237.972	14.902	930.974	710.453
238.986	15.024	930.435	710.498
240.001	14.838	929.865	709.211
241.015	15.068	928.930	709.410
242.030	15.026	928.691	708.988
243.045	15.112	927.900	708.682
244.059	14.940	927.710	707.746
245.074	14.966	926.765	707.076
246.088	15.131	926.221	707.293
247.103	15.190	925.387	706.842
248.117	15.031	925.050	705.854
249.132	15.190	924.432	705.988
250.147	15.324	923.708	705.937
251.161	15.349	922.910	705.370
252.176	15.272	922.300	704.518
253.190	15.337	921.303	703.965
254.205	15.393	920.683	703.667
255.220	15.451	920.046	703.357
256.234	15.415	919.409	702.661
257.249	15.447	918.619	702.129
258.263	15.439	917.759	701.375
259.278	15.357	917.437	700.724
260.293	15.408	916.797	700.384
261.307	15.517	916.174	700.301
262.322	15.586	915.322	699.878
263.336	15.537	914.698	699.132
264.351	15.592	913.824	698.633
265.366	15.428	913.330	697.511
266.380	15.501	912.850	697.385
267.395	15.518	912.184	696.885
268.409	15.668	911.032	696.569
269.424	15.677	910.225	695.925
270.439	15.597	909.704	695.134
271.453	15.643	908.994	694.720
272.468	15.588	908.559	694.100
273.482	15.679	907.618	693.695
274.497	15.713	907.093	693.371
275.512	15.667	906.693	692.817
276.526	15.649	906.130	692.248
277.541	15.703	905.552	691.968
278.555	15.732	905.049	691.644
279.570	15.892	903.785	691.272
280.585	15.774	903.461	690.480
281.599	15.751	902.783	689.805
282.614	15.831	902.002	689.475
283.628	15.853	901.109	688.821
284.643	15.922	900.610	688.661
285.657	15.861	900.181	688.025
286.672	15.942	899.109	687.475
287.687	15.750	898.943	686.501
288.701	15.859	898.311	686.406
289.716	15.888	897.912	686.155
290.730	15.915	896.809	685.362
291.745	16.026	896.306	685.372
292.760	16.068	895.742	685.048
293.774	16.027	894.670	684.003
294.789	15.992	894.280	683.499
295.803	15.972	893.741	682.945
296.818	15.975	892.685	682.091
297.833	15.937	892.645	681.845
298.847	16.051	891.901	681.678
299.862	16.221	890.913	681.552
300.876	16.119	890.643	680.873
301.891	16.208	890.157	680.800
302.906	16.238	889.096	680.047
303.920	16.239	888.849	679.804
304.935	16.349	888.292	679.758
305.949	16.214	887.457	678.517
306.964	16.322	886.775	678.369
307.979	16.151	886.306	677.265
308.993	16.247	885.298	676.819
310.008	16.401	884.698	676.918
311.022	16.297	884.475	676.270
312.037	16.169	884.286	675.555
313.052	16.288	883.558	675.414
314.066	16.234	882.628	674.429
315.081	16.272	882.261	674.239
316.095	16.134	881.725	673.220
317.110	16.226	881.318	673.215
318.125	16.324	880.473	672.900
319.139	16.337	880.150	672.649
320.154	16.356	879.371	672.067
321.168	16.298	878.870	671.394
322.183	16.294	878.420	670.977
323.197	16.455	877.933	671.184
324.212	16.399	877.269	670.396
325.227	16.379	876.683	669.809
326.241	16.317	875.929	668.927
327.256	16.395	875.443	668.805
328.270	16.351	875.141	668.340
329.285	16.505	874.001	668.021
330.300	16.440	873.706	667.477
331.314	16.471	873.573	667.442
332.329	16.408	872.996	666.693
333.343	16.575	872.423	666.855
334.358	16.453	872.135	666.092
335.373	16.506	871.471	665.737
336.387	16.588	871.408	665.953
337.402	16.668	870.922	665.836
338.416	16.616	870.427	665.197
339.431	16.671	869.908	664.958
340.446	16.586	869.734	664.431
341.460	16.692	869.376	664.516
342.475	16.786	868.705	664.313
343.489	16.795	868.177	663.884
344.504	16.783	867.799	663.491
345.519	16.872	867.167	663.293
346.533	16.874	866.180	662.491
347.548	16.854	866.024	662.233
348.562	16.807	865.404	661.519
349.577	16.817	865.003	661.192
350.592	16.743	863.952	660.040
351.606	16.850	863.442	660.011
352.621	16.854	863.047	659.663
353.635	16.692	862.841	658.820
354.650	16.693	862.107	658.204
355.665	16.877	860.904	657.943
356.679	16.831	860.182	657.151
357.694	16.877	859.724	656.921
358.708	17.024	858.572	656.555
359.723	16.929	858.422	656.012
360.738	16.961	857.756	655.569
361.752	17.058	857.082	655.372
362.767	17.136	856.363	655.067
363.781	17.053	856.174	654.541
364.796	17.044	855.700	654.088
365.810	17.044	855.320	653.739
366.825	17.133	854.803	653.630
367.840	17.272	853.927	653.436
368.854	17.286	853.549	653.142
369.869	17.111	853.575	652.432
370.883	17.185	852.789	652.057
371.898	17.301	852.530	652.245
372.913	17.310	852.202	651.972
373.927	17.218	851.301	650.871
374.942	17.335	850.949	650.992
375.956	17.263	850.762	650.519
376.971	17.381	850.344	650.593
377.986	17.422	849.603	650.125
379.000	17.527	848.986	649.994
380.015	17.390	848.600	649.118
381.029	17.352	848.512	648.848
382.044	17.401	847.474	648.184
383.059	17.503	846.915	648.087
384.073	17.373	846.394	647.140
385.088	17.310	845.712	646.319
386.102	17.468	845.225	646.490
387.117	17.479	844.440	645.874
388.132	17.321	844.245	645.069
389.146	17.428	843.444	644.805
390.161	17.525	842.996	644.772
391.175	17.482	842.701	644.329
392.190	17.444	842.192	643.739
393.205	17.345	842.014	643.172
394.219	17.486	841.327	643.120
395.234	17.595	841.039	643.256
396.248	17.633	840.202	642.702
397.263	17.524	839.856	641.969
398.278	17.526	839.386	641.560
399.292	17.428	838.765	640.661
400.307	17.470	838.778	640.773
401.321	17.574	838.031	640.536
402.336	17.595	837.260	639.970
403.350	17.515	837.176	639.548
404.365	17.624	836.605	639.464
405.380	17.684	835.987	639.159
406.394	17.666	835.434	638.615
407.409	17.708	835.220	638.551
408.423	17.763	834.756	638.343
409.438	17.786	834.539	638.208
410.453	17.885	834.099	638.185
411.467	17.894	833.205	637.480
412.482	17.844	832.865	636.977
413.496	17.883	832.725	636.957
414.511	18.026	832.123	636.976
415.526	18.140	831.567	636.916
416.540	17.997	831.098	635.968
417.555	17.914	830.933	635.477
418.569	17.982	830.569	635.397
419.584	18.053	829.615	634.875
420.599	18.210	829.198	635.082
421.613	94.390	1270.357	1384.733
422.628	81.472	1334.641	1384.864
