DTS Sentinel unit serial number:	SN413079Multiplexer serial number:	ORYXHardware model number:	OX4-SRSoftware version number:	ORYX F/W v4.00 Oryx Data Collector v3.7.2.0data status	okinstallation	princeton_trtdifferential loss correction	single-endedforward channel	channel 1reverse channel	N/Adate	2019/09/14time	01:10:35forward acquisition time	60.00reverse acquisition time	0.00gamma	496.2192k internal	0.2337k external	0.2337temperature offset calibration	1.0076default loss term (dB/km)	0.3790temperature slope calibration	1.0000multiplexer offset coefficient	1.0000multiplexer slope coefficient	1.0000fibre end	0.00T internal ref (°C)	26.39T ext. ref 1 (°C)	3.16T ext. ref 2 (°C)	21.41length (m)	temperature (°C)	Stokes	anti-Stokes-747.200	-94.381	-0.094	-0.026
-746.185	-139.469	-0.357	0.038
-745.171	-110.955	0.082	0.017
-744.156	-145.534	0.101	0.009
-743.142	-35.493	0.254	-0.138
-742.127	39.441	0.144	0.129
-741.112	-15.906	-0.325	0.208
-740.098	362.127	0.198	0.399
-739.083	-200.000	0.045	-0.265
-738.069	-161.182	-0.174	0.009
-737.054	-109.184	-0.488	-0.104
-736.039	-43.139	-0.564	-0.287
-735.025	-200.000	-0.008	0.307
-734.010	4.322	0.218	-0.160
-732.996	15.270	-0.414	-0.326
-731.981	36.319	0.197	0.175
-730.966	-200.000	-0.034	-0.219
-729.952	188.849	-0.060	0.090
-728.937	129.959	0.116	0.149
-727.923	-59.634	-0.339	0.146
-726.908	800.000	-0.014	-0.043
-725.894	-184.574	0.296	0.005
-724.879	-200.000	0.030	-0.233
-723.864	800.000	0.113	-0.350
-722.850	-6.152	0.245	0.168
-721.835	10.278	-0.136	-0.104
-720.821	-200.000	0.028	-0.361
-719.806	-127.251	0.214	-0.031
-718.791	-45.193	-0.368	0.183
-717.777	193.949	0.076	0.116
-716.762	-70.051	-0.124	0.047
-715.748	-200.000	-0.047	0.243
-714.733	-67.554	0.394	-0.155
-713.718	-91.743	-0.189	-0.054
-712.704	141.527	0.034	-0.045
-711.689	310.745	-0.077	0.145
-710.675	800.000	-0.093	-0.319
-709.660	88.844	0.101	-0.113
-708.645	23.893	0.162	0.134
-707.631	-193.078	0.094	-0.001
-706.616	279.484	0.240	-0.430
-705.602	800.000	0.044	-0.145
-704.587	800.000	-0.051	-0.190
-703.572	380.043	0.158	-0.324
-702.558	-160.451	0.064	-0.003
-701.543	-70.595	0.160	-0.061
-700.529	362.188	0.008	0.016
-699.514	-67.452	0.252	-0.099
-698.499	-200.000	0.041	0.189
-697.485	-109.485	0.255	0.054
-696.470	63.227	-0.239	0.241
-695.456	-174.850	0.312	0.009
-694.441	-200.000	0.053	0.327
-693.426	-91.283	-0.345	0.099
-692.412	256.612	-0.157	0.270
-691.397	-87.604	-0.304	-0.092
-690.383	-58.100	-0.081	-0.035
-689.368	240.281	0.024	-0.040
-688.354	371.404	0.003	0.005
-687.339	-110.520	0.100	-0.021
-686.324	136.517	-0.152	-0.199
-685.310	-17.371	-0.364	0.230
-684.295	0.998	-0.207	-0.149
-683.281	221.795	0.154	0.247
-682.266	649.996	0.058	0.149
-681.251	-14.626	-0.157	-0.101
-680.237	-119.361	0.137	0.024
-679.222	159.432	-0.163	0.227
-678.208	-200.000	0.029	-0.149
-677.193	-28.898	0.247	-0.142
-676.178	-94.575	0.134	0.037
-675.164	446.155	0.033	0.073
-674.149	276.048	0.116	-0.205
-673.135	-200.000	0.008	0.160
-672.120	-26.260	0.134	0.079
-671.105	-132.869	0.196	-0.025
-670.091	381.729	0.054	-0.112
-669.076	-200.000	0.052	0.359
-668.062	-162.099	-0.319	-0.016
-667.047	661.356	-0.081	0.208
-666.032	3.504	-0.124	-0.091
-665.018	-152.715	-0.153	-0.011
-664.003	-200.000	0.014	-0.158
-662.989	-28.049	0.032	0.018
-661.974	800.000	-0.052	0.200
-660.959	51.853	-0.263	0.250
-659.945	645.823	-0.055	-0.140
-658.930	-108.218	0.161	0.035
-657.916	-170.735	0.159	0.005
-656.901	-96.088	0.122	0.033
-655.886	563.598	-0.030	0.073
-654.872	661.563	-0.056	-0.144
-653.857	-13.676	-0.116	-0.075
-652.843	-109.639	0.236	-0.050
-651.828	268.888	-0.064	-0.112
-650.814	-33.699	-0.221	0.122
-649.799	-200.000	-0.016	0.172
-648.784	401.889	0.142	-0.299
-647.770	219.963	0.097	0.155
-646.755	-38.311	-0.269	-0.143
-645.741	233.469	-0.066	-0.109
-644.726	-155.657	0.079	0.005
-643.711	800.000	-0.020	0.083
-642.697	431.805	-0.102	0.220
-641.682	400.344	-0.092	0.193
-640.668	-67.020	0.202	0.080
-639.653	377.843	0.099	-0.202
-638.638	-71.546	0.241	0.090
-637.624	64.468	0.192	0.193
-636.609	-107.460	-0.314	0.069
-635.595	34.237	0.267	0.232
-634.580	722.549	-0.043	0.114
-633.565	-47.023	-0.086	-0.042
-632.551	-119.208	0.266	0.046
-631.536	-74.367	-0.318	-0.115
-630.522	-8.117	-0.263	0.177
-629.507	169.382	-0.179	-0.255
-628.492	-118.380	0.150	-0.027
-627.478	4.759	-0.065	-0.048
-626.463	-71.723	-0.465	-0.174
-625.449	340.850	-0.158	-0.309
-624.434	-91.542	-0.169	0.048
-623.419	800.000	-0.074	0.295
-622.405	99.867	-0.172	-0.199
-621.390	164.457	-0.015	-0.021
-620.376	-168.159	0.189	0.007
-619.361	229.145	-0.155	0.252
-618.346	-134.258	0.207	0.025
-617.332	230.099	0.018	-0.029
-616.317	9.725	0.085	0.065
-615.303	-113.881	-0.328	-0.064
-614.288	-19.874	-0.380	0.235
-613.273	83.928	0.139	0.151
-612.259	-54.582	-0.356	-0.161
-611.244	-200.000	-0.027	-0.167
-610.230	404.362	-0.067	-0.141
-609.215	22.413	-0.188	-0.154
-608.201	-80.777	-0.106	0.035
-607.186	-200.000	0.004	-0.043
-606.171	114.736	-0.030	0.037
-605.157	-200.000	0.046	0.240
-604.142	800.000	-0.040	-0.138
-603.128	-103.066	0.169	-0.040
-602.113	54.065	0.139	0.134
-601.098	800.000	-0.056	-0.223
-600.084	387.651	-0.051	-0.105
-599.069	139.232	-0.070	0.092
-598.055	-17.480	-0.229	0.144
-597.040	-108.517	-0.244	0.052
-596.025	396.288	0.127	-0.265
-595.011	226.855	-0.063	0.103
-593.996	72.140	0.110	-0.114
-592.982	-18.702	-0.124	0.077
-591.967	800.000	0.108	0.405
-590.952	800.000	-0.011	0.036
-589.938	495.340	0.113	0.259
-588.923	384.883	0.069	-0.142
-587.909	-90.182	0.162	-0.047
-586.894	800.000	0.012	0.047
-585.879	0.098	-0.329	-0.234
-584.865	-30.527	0.200	-0.113
-583.850	-3.204	-0.060	0.042
-582.836	-44.815	0.126	-0.063
-581.821	98.558	-0.130	0.150
-580.806	321.874	0.053	0.101
-579.792	99.831	-0.083	-0.096
-578.777	-200.000	0.020	-0.157
-577.763	-200.000	0.037	0.260
-576.748	106.121	0.079	-0.094
-575.733	7.744	0.165	-0.124
-574.719	0.562	-0.152	0.109
-573.704	188.802	0.182	-0.271
-572.690	-200.000	0.038	-0.356
-571.675	-39.309	0.133	0.069
-570.661	-169.356	0.126	-0.005
-569.646	86.592	0.103	0.114
-568.631	800.000	-0.056	0.170
-567.617	-98.173	-0.366	-0.094
-566.602	175.312	0.331	0.478
-565.588	-200.000	-0.022	0.229
-564.573	-54.963	0.339	0.152
-563.558	-31.223	-0.195	0.110
-562.544	-125.685	0.114	0.017
-561.529	-114.922	-0.110	0.021
-560.515	-192.585	-0.160	0.001
-559.500	-200.000	0.045	-0.267
-558.485	36.713	0.225	0.198
-557.471	-200.000	0.046	-0.225
-556.456	-139.282	0.102	-0.011
-555.442	106.647	-0.185	-0.219
-554.427	800.000	0.081	0.250
-553.412	132.130	-0.173	0.222
-552.398	-196.144	0.192	0.001
-551.383	219.634	-0.122	0.195
-550.369	340.070	-0.102	0.199
-549.354	-62.771	0.485	-0.200
-548.339	800.000	0.068	0.221
-547.325	-109.336	0.135	-0.029
-546.310	-200.000	0.001	-0.114
-545.296	-104.068	-0.261	-0.060
-544.281	19.112	0.165	-0.132
-543.266	-200.000	-0.015	-0.367
-542.252	46.549	-0.059	0.054
-541.237	-88.544	-0.414	-0.123
-540.223	-200.000	-0.095	-0.427
-539.208	-60.534	-0.320	-0.135
-538.193	165.273	0.251	-0.353
-537.179	-200.000	0.034	-0.204
-536.164	67.818	0.259	0.264
-535.150	-17.502	0.146	0.091
-534.135	-200.000	0.046	0.248
-533.121	-152.527	-0.476	-0.034
-532.106	218.808	0.094	0.149
-531.091	616.204	0.055	-0.138
-530.077	-41.672	0.109	0.056
-529.062	185.777	0.155	0.229
-528.048	-184.980	-0.322	-0.005
-527.033	-200.000	-0.024	-0.355
-526.018	72.780	-0.280	0.291
-525.004	405.410	-0.034	0.071
-523.989	-44.297	-0.115	-0.058
-522.975	190.845	0.159	-0.238
-521.960	75.444	-0.174	0.182
-520.945	-200.000	-0.001	0.191
-519.931	-20.201	0.239	-0.147
-518.916	20.808	0.147	0.119
-517.902	-200.000	0.059	-0.339
-516.887	-118.790	0.368	-0.064
-515.872	-10.286	-0.073	-0.048
-514.858	-200.000	0.043	-0.271
-513.843	-61.612	0.215	0.090
-512.829	-200.000	0.064	-0.306
-511.814	93.818	0.065	-0.073
-510.799	74.165	-0.074	-0.078
-509.785	349.553	0.052	0.103
-508.770	-200.000	0.005	0.023
-507.756	595.063	-0.081	-0.198
-506.741	-149.500	0.293	-0.023
-505.726	-200.000	0.029	0.392
-504.712	8.047	-0.149	0.111
-503.697	-118.958	-0.147	-0.026
-502.683	31.097	0.180	0.154
-501.668	66.467	-0.193	-0.195
-500.653	443.590	0.113	0.247
-499.639	54.567	0.065	0.063
-498.624	35.659	0.264	-0.231
-497.610	163.872	0.287	-0.402
-496.595	-10.621	-0.276	-0.182
-495.581	425.087	-0.112	-0.240
-494.566	-94.359	0.061	0.017
-493.551	-97.613	-0.311	-0.080
-492.537	-154.870	-0.481	-0.032
-491.522	-37.316	-0.242	0.129
-490.508	-200.000	0.023	-0.140
-489.493	-200.000	0.051	-0.255
-488.478	60.072	0.161	-0.158
-487.464	-68.519	0.108	-0.042
-486.449	-77.770	-0.076	-0.026
-485.435	-200.000	0.010	0.136
-484.420	-103.580	0.387	0.090
-483.405	-121.174	-0.193	-0.032
-482.391	752.668	0.107	0.286
-481.376	64.407	-0.022	0.022
-480.362	-20.773	0.135	-0.082
-479.347	-107.435	-0.123	-0.027
-478.332	-200.000	0.067	-0.333
-477.318	-200.000	0.026	0.158
-476.303	203.074	-0.219	0.337
-475.289	-138.104	0.152	0.017
-474.274	88.526	0.141	0.155
-473.259	402.044	-0.108	-0.224
-472.245	-37.698	-0.322	-0.170
-471.230	85.327	0.288	0.315
-470.216	-114.649	0.143	-0.027
-469.201	-167.744	-0.234	-0.009
-468.186	800.000	0.099	0.398
-467.172	-200.000	0.031	-0.215
-466.157	43.265	0.161	-0.146
-465.143	309.541	-0.059	-0.109
-464.128	-200.000	0.017	-0.124
-463.113	145.915	-0.179	0.238
-462.099	27.103	0.165	0.138
-461.084	-117.768	-0.201	-0.036
-460.070	-128.545	-0.280	-0.039
-459.055	-7.446	0.221	0.148
-458.040	-5.776	0.106	0.072
-457.026	-83.766	-0.249	0.079
-456.011	387.253	-0.160	-0.328
-454.997	-177.423	-0.067	-0.002
-453.982	167.528	-0.109	0.154
-452.968	-170.365	-0.239	0.008
-451.953	800.000	-0.085	-0.292
-450.938	-200.000	0.011	0.196
-449.924	-150.145	-0.275	-0.021
-448.909	-66.376	-0.096	-0.038
-447.895	598.828	-0.141	0.347
-446.880	-112.095	0.091	-0.018
-445.865	-169.594	-0.227	0.008
-444.851	53.712	0.202	0.192
-443.836	800.000	0.068	0.196
-442.822	-92.025	0.233	0.065
-441.807	-165.049	0.177	-0.008
-440.792	-200.000	0.007	0.083
-439.778	128.293	0.069	-0.088
-438.763	-200.000	-0.071	-0.314
-437.749	800.000	-0.051	-0.176
-436.734	38.403	-0.212	0.188
-435.719	800.000	0.079	0.231
-434.705	191.707	-0.146	0.218
-433.690	3.111	-0.262	-0.189
-432.676	449.515	-0.023	0.051
-431.661	-162.503	0.153	-0.008
-430.646	-37.580	0.079	0.042
-429.632	-200.000	0.021	0.118
-428.617	-200.000	-0.482	0.000
-427.603	110.554	-0.067	-0.080
-426.588	147.233	0.087	-0.116
-425.573	-108.981	0.248	0.052
-424.559	-31.993	-0.128	-0.071
-423.544	-178.995	-0.201	0.004
-422.530	20.310	0.237	0.190
-421.515	329.211	0.035	0.066
-420.500	-200.000	-0.016	0.460
-419.486	77.458	0.062	-0.066
-418.471	-61.123	-0.421	0.176
-417.457	5.738	0.296	-0.217
-416.442	67.626	-0.144	-0.146
-415.428	-63.507	-0.254	0.103
-414.413	71.130	-0.189	0.194
-413.398	48.171	-0.094	0.087
-412.384	42.909	-0.135	0.122
-411.369	78.565	-0.143	0.151
-410.355	37.615	0.312	0.274
-409.340	11.285	0.076	-0.057
-408.325	-200.000	-0.039	-0.305
-407.311	-151.178	0.353	-0.026
-406.296	-77.133	0.349	0.121
-405.282	-200.000	0.008	-0.099
-404.267	70.501	0.089	0.092
-403.252	5.765	0.106	-0.078
-402.238	416.665	0.179	0.377
-401.223	-90.773	0.392	0.112
-400.209	116.219	0.174	-0.211
-399.194	74.335	-0.138	0.144
-398.179	-143.428	0.226	-0.021
-397.165	649.095	-0.046	0.116
-396.150	277.327	0.058	0.101
-395.136	-31.019	-0.063	0.035
-394.121	-35.068	-0.185	-0.100
-393.106	208.377	0.078	0.120
-392.092	-82.094	-0.379	-0.122
-391.077	-200.000	0.005	0.042
-390.063	-38.764	0.235	-0.123
-389.048	-136.129	0.172	-0.020
-388.033	-35.612	-0.222	-0.119
-387.019	495.012	0.125	-0.284
-386.004	198.396	-0.110	-0.166
-384.990	-79.367	0.313	0.105
-383.975	-51.542	-0.245	0.113
-382.960	-195.827	0.091	0.001
-381.946	-200.000	-0.012	0.328
-380.931	11.026	-0.366	0.277
-379.917	-27.849	-0.234	-0.134
-378.902	-116.575	0.219	-0.040
-377.888	86.116	-0.301	0.328
-376.873	800.000	-0.086	0.259
-375.858	-200.000	0.007	0.134
-374.844	346.515	0.050	0.098
-373.829	-9.927	-0.033	0.022
-372.815	-72.388	0.064	0.023
-371.800	-124.650	-0.455	-0.070
-370.785	411.951	-0.111	-0.234
-369.771	-0.328	-0.141	0.099
-368.756	-69.974	0.265	0.100
-367.742	60.569	0.291	0.285
-366.727	17.130	-0.223	-0.175
-365.712	-56.584	-0.286	-0.126
-364.698	-200.000	0.002	0.455
-363.683	306.224	0.152	-0.280
-362.669	8.055	0.184	-0.136
-361.654	-5.905	0.109	0.074
-360.639	-126.859	0.105	0.015
-359.625	392.656	0.171	0.353
-358.610	574.398	0.030	-0.072
-357.596	800.000	-0.125	-0.356
-356.581	4.940	-0.143	0.104
-355.566	-154.896	0.305	0.020
-354.552	-58.600	0.048	-0.021
-353.537	-138.525	-0.053	0.006
-352.523	-42.142	0.258	-0.131
-351.508	800.000	0.078	-0.242
-350.493	0.726	-0.202	-0.143
-349.479	23.957	0.186	0.151
-348.464	-33.774	-0.335	0.183
-347.450	399.587	0.103	0.213
-346.435	361.998	0.132	0.261
-345.420	26.218	0.229	-0.189
-344.406	331.571	0.061	-0.117
-343.391	800.000	-0.058	0.214
-342.377	800.000	0.121	0.346
-341.362	-14.281	-0.131	0.083
-340.348	-200.000	0.019	0.224
-339.333	800.000	0.047	-0.127
-338.318	-85.934	0.157	0.048
-337.304	800.000	0.090	0.332
-336.289	-115.989	-0.285	-0.052
-335.275	229.414	-0.172	-0.278
-334.260	-103.865	0.167	-0.039
-333.245	-1.037	-0.204	-0.143
-332.231	0.255	0.045	-0.032
-331.216	0.490	0.221	-0.156
-330.202	-133.355	0.245	0.030
-329.187	-200.000	-0.033	0.257
-328.172	418.566	0.078	-0.165
-327.158	293.341	0.143	-0.258
-326.143	147.745	0.237	-0.315
-325.129	-93.494	0.111	0.030
-324.114	-176.832	0.097	0.002
-323.099	-200.000	-0.021	0.102
-322.085	800.000	-0.078	0.232
-321.070	-185.980	-0.082	-0.001
-320.056	-2.268	0.245	0.170
-319.041	-200.000	0.101	-0.448
-318.026	-200.000	0.035	-0.496
-317.012	-67.213	0.107	0.042
-315.997	62.176	-0.208	0.205
-314.983	-143.210	0.317	0.030
-313.968	-38.897	0.338	-0.176
-312.953	-3.080	-0.233	-0.161
-311.939	-136.546	-0.149	-0.017
-310.924	-175.046	-0.135	-0.004
-309.910	215.924	0.271	0.425
-308.895	-200.000	0.039	0.191
-307.880	-131.660	0.252	-0.033
-306.866	187.858	0.147	0.217
-305.851	226.822	0.060	-0.096
-304.837	-125.093	-0.111	0.017
-303.822	298.020	-0.059	0.107
-302.807	520.041	-0.161	-0.372
-301.793	-101.801	0.408	0.098
-300.778	-200.000	-0.003	-0.149
-299.764	388.726	-0.052	-0.106
-298.749	686.499	0.117	-0.302
-297.735	39.992	-0.161	0.142
-296.720	15.779	-0.211	-0.164
-295.705	-100.240	0.286	0.070
-294.691	-32.572	-0.376	-0.207
-293.676	800.000	0.090	0.245
-292.662	125.150	-0.385	-0.479
-291.647	-8.555	-0.093	0.061
-290.632	346.996	0.082	-0.160
-289.618	-124.292	0.292	0.045
-288.603	-112.790	0.177	-0.035
-287.589	-200.000	-0.012	0.308
-286.574	-138.869	-0.252	-0.027
-285.559	-200.000	-0.011	-0.282
-284.545	299.844	-0.105	-0.190
-283.530	-121.112	-0.213	-0.035
-282.516	-32.358	0.435	-0.239
-281.501	0.380	-0.159	-0.112
-280.486	-109.806	0.183	-0.038
-279.472	305.278	-0.085	-0.155
-278.457	-63.978	-0.189	-0.076
-277.443	-46.204	-0.415	-0.201
-276.428	800.000	0.037	-0.124
-275.413	20.157	0.171	-0.136
-274.399	-200.000	-0.058	0.491
-273.384	-96.541	0.183	-0.048
-272.370	273.472	-0.095	-0.165
-271.355	-200.000	-0.018	-0.220
-270.340	49.225	-0.288	0.267
-269.326	-5.259	-0.162	-0.110
-268.311	35.231	0.106	-0.092
-267.297	-25.550	-0.509	-0.296
-266.282	205.758	-0.103	0.158
-265.267	-74.158	-0.184	0.065
-264.253	800.000	-0.067	0.249
-263.238	-42.771	-0.183	0.092
-262.224	378.486	-0.096	0.193
-261.209	-200.000	0.011	0.183
-260.195	156.511	0.289	-0.394
-259.180	800.000	-0.066	-0.233
-258.165	58.327	0.097	-0.094
-257.151	35.941	-0.073	0.064
-256.136	765.098	0.094	0.252
-255.122	33.908	0.286	0.245
-254.107	706.611	0.127	-0.331
-253.092	524.801	-0.102	-0.237
-252.078	55.568	0.248	-0.236
-251.063	-200.000	0.016	0.305
-250.049	694.119	-0.101	-0.262
-249.034	-61.573	-0.241	0.099
-248.019	90.346	-0.094	-0.103
-247.005	800.000	-0.076	-0.279
-245.990	-200.000	-0.038	0.180
-244.976	-10.404	-0.254	0.166
-243.961	103.464	0.112	0.129
-242.946	-86.343	0.128	-0.039
-241.932	800.000	0.025	0.099
-240.917	-143.040	-0.517	0.049
-239.903	17.847	0.283	-0.222
-238.888	50.990	0.096	0.090
-237.873	800.000	0.091	-0.384
-236.859	164.504	0.171	-0.237
-235.844	156.259	0.177	0.240
-234.830	-44.558	-0.248	0.122
-233.815	39.960	0.082	-0.073
-232.800	110.819	-0.057	0.068
-231.786	-200.000	0.051	0.311
-230.771	-81.264	0.096	-0.031
-229.757	-200.000	0.029	0.128
-228.742	-125.406	-0.335	-0.050
-227.727	-14.885	0.285	0.180
-226.713	-55.792	-0.025	0.011
-225.698	-47.320	0.286	-0.137
-224.684	-70.494	0.298	-0.111
-223.669	-124.159	0.306	-0.047
-222.655	-149.016	-0.235	0.019
-221.640	102.464	-0.105	0.121
-220.625	41.543	0.178	-0.158
-219.611	149.413	0.137	0.183
-218.596	124.427	-0.272	0.337
-217.582	187.657	0.241	-0.354
-216.567	-133.066	-0.141	-0.018
-215.552	-31.916	-0.021	-0.011
-214.538	-4.422	0.234	0.159
-213.523	415.628	-0.174	-0.365
-212.509	800.000	0.036	-0.143
-211.494	-200.000	0.018	-0.277
-210.479	-200.000	0.004	-0.071
-209.465	77.607	-0.263	0.275
-208.450	-119.523	-0.110	-0.019
-207.436	-200.000	0.032	-0.215
-206.421	94.101	0.137	-0.153
-205.406	-200.000	0.014	-0.062
-204.392	800.000	0.107	0.356
-203.377	-53.136	-0.336	-0.152
-202.363	-69.480	-0.109	-0.041
-201.348	-51.312	-0.279	-0.128
-200.333	2.923	0.124	0.088
-199.319	800.000	0.098	-0.280
-198.304	329.344	-0.075	0.141
-197.290	359.639	-0.146	0.287
-196.275	800.000	-0.009	-0.032
-195.260	-185.250	0.185	0.003
-194.246	94.596	0.195	0.218
-193.231	-52.233	0.232	-0.106
-192.217	800.000	0.071	-0.241
-191.202	-200.000	0.007	-0.155
-190.187	324.846	-0.020	0.037
-189.173	-200.000	-0.007	0.211
-188.158	423.667	0.064	-0.135
-187.144	2.686	0.104	-0.074
-186.129	-200.000	0.001	-0.232
-185.114	58.740	0.230	0.222
-184.100	-75.785	-0.052	0.018
-183.085	800.000	-0.037	0.104
-182.071	-97.697	0.248	0.063
-181.056	-108.678	0.387	-0.082
-180.042	-200.000	0.072	-0.413
-179.027	-66.344	0.121	-0.047
-178.012	-17.430	0.101	0.063
-176.998	360.031	-0.173	0.341
-175.983	800.000	0.017	-0.071
-174.969	689.421	0.049	0.126
-173.954	-113.149	0.549	-0.106
-172.939	-68.713	-0.330	0.125
-171.925	40.093	0.199	0.175
-170.910	169.451	0.174	-0.244
-169.896	800.000	-0.091	0.261
-168.881	-85.923	-0.177	0.054
-167.866	-179.373	0.251	-0.005
-166.852	-73.561	-0.119	-0.043
-165.837	687.062	-0.055	-0.142
-164.823	-43.056	0.133	-0.066
-163.808	-25.398	-0.179	-0.104
-162.793	-76.748	0.160	0.055
-161.779	-200.000	0.029	-0.212
-160.764	-116.432	-0.174	0.032
-159.750	-137.311	-0.404	-0.045
-158.735	-200.000	0.012	-0.075
-157.720	124.905	-0.078	0.096
-156.706	-181.608	-0.148	0.003
-155.691	103.468	-0.379	0.436
-154.677	-61.314	0.296	0.122
-153.662	-200.000	0.025	-0.146
-152.647	-200.000	-0.026	-0.111
-151.633	-200.000	-0.059	0.499
-150.618	-34.166	-0.037	-0.020
-149.604	-107.550	0.168	-0.036
-148.589	-117.017	-0.286	-0.051
-147.574	118.320	-0.253	-0.306
-146.560	800.000	-0.071	-0.195
-145.545	115.803	-0.281	-0.337
-144.531	-200.000	-0.023	-0.114
-143.516	397.859	-0.042	0.087
-142.502	-200.000	0.016	-0.270
-141.487	362.378	0.042	0.083
-140.472	-58.188	-0.248	-0.106
-139.458	-200.000	0.007	0.049
-138.443	70.887	0.037	-0.037
-137.429	231.305	-0.122	-0.196
-136.414	50.126	-0.203	-0.188
-135.399	-200.000	0.003	-0.222
-134.385	680.084	-0.137	0.350
-133.370	-91.544	0.157	0.044
-132.356	52.298	0.188	0.176
-131.341	-200.000	0.006	-0.378
-130.326	-45.689	-0.276	-0.134
-129.312	-200.000	-0.010	-0.090
-128.297	-200.000	-0.012	-0.057
-127.283	74.438	0.264	0.272
-126.268	-5.322	0.263	-0.177
-125.253	69.016	-0.134	-0.135
-124.239	800.000	-0.025	0.074
-123.224	-109.728	0.144	-0.030
-122.210	67.312	0.073	-0.073
-121.195	133.052	-0.280	-0.354
-120.180	58.639	-0.121	0.116
-119.166	-37.268	0.290	0.152
-118.151	107.933	-0.067	0.078
-117.137	-31.655	0.242	0.133
-116.122	-116.291	-0.197	0.036
-115.107	-49.781	0.168	0.078
-114.093	-136.609	-0.114	-0.013
-113.078	-200.000	-0.028	0.260
-112.064	-45.862	0.101	0.049
-111.049	-200.000	0.017	-0.159
-110.034	101.684	0.097	0.111
-109.020	49.894	-0.008	0.007
-108.005	800.000	-0.062	-0.212
-106.991	72.673	-0.172	-0.176
-105.976	396.501	0.133	0.273
-104.962	800.000	0.060	0.216
-103.947	-162.218	-0.146	-0.007
-102.932	-73.226	0.128	0.046
-101.918	77.583	-0.109	-0.114
-100.903	-83.343	0.120	0.038
-99.889	-128.532	-0.259	0.036
-98.874	800.000	0.113	0.331
-97.859	-77.332	-0.270	0.092
-96.845	282.614	0.040	-0.070
-95.830	-200.000	-0.026	0.231
-94.816	-25.897	-0.259	-0.149
-93.801	800.000	0.027	0.095
-92.786	-73.214	0.431	0.155
-91.772	-58.966	-0.071	-0.030
-90.757	-66.869	-0.197	-0.076
-89.743	-98.720	-0.107	0.027
-88.728	-200.000	-0.022	0.144
-87.713	800.000	0.072	0.243
-86.699	-70.581	0.228	-0.084
-85.684	-15.611	-0.203	0.127
-84.670	-89.551	0.285	0.082
-83.655	7.917	0.114	0.084
-82.640	-71.598	0.062	-0.023
-81.626	-28.005	0.185	0.105
-80.611	-118.570	-0.446	-0.077
-79.597	-200.000	-0.021	0.109
-78.582	786.181	-0.163	0.437
-77.567	165.038	-0.192	-0.265
-76.553	323.234	-0.070	0.130
-75.538	230.052	0.083	0.133
-74.524	-200.000	0.027	-0.263
-73.509	106.717	0.148	-0.171
-72.494	29.406	-0.285	0.237
-71.480	-200.000	0.021	-0.196
-70.465	800.000	-0.039	-0.122
-69.451	-162.984	0.210	0.010
-68.436	197.600	0.128	-0.191
-67.422	-76.945	-0.312	-0.107
-66.407	335.518	0.137	0.260
-65.392	-200.000	-0.028	-0.197
-64.378	18.246	-0.089	-0.069
-63.363	199.958	-0.144	0.217
-62.349	3.372	0.204	0.145
-61.334	34.458	-1.096	-0.935
-60.319	76.367	0.436	0.452
-59.305	800.000	-0.377	-1.240
-58.290	281.102	0.663	1.160
-57.276	800.000	0.472	1.689
-56.261	-200.000	116.587	641.605
-55.246	497.513	1539.858	3463.659
-54.232	175.887	2708.824	3841.724
-53.217	104.878	2150.865	2478.512
-52.203	37.922	1585.351	1377.152
-51.188	29.748	1327.409	1104.456
-50.173	26.920	1288.827	1055.884
-49.159	52.365	1347.796	1256.510
-48.144	50.724	1361.136	1259.134
-47.130	29.862	1314.926	1094.571
-46.115	26.539	1297.041	1060.211
-45.100	26.262	1292.185	1054.585
-44.086	26.192	1289.447	1051.896
-43.071	26.207	1286.913	1049.880
-42.057	26.142	1285.477	1048.288
-41.042	26.117	1283.443	1046.441
-40.027	26.084	1282.404	1045.360
-39.013	26.301	1279.501	1044.209
-37.998	26.320	1277.913	1042.980
-36.984	26.286	1276.364	1041.477
-35.969	26.393	1274.544	1040.567
-34.954	26.486	1272.628	1039.498
-33.940	26.438	1272.110	1038.758
-32.925	26.543	1269.784	1037.421
-31.911	26.575	1268.436	1036.461
-30.896	26.498	1267.351	1035.091
-29.881	26.514	1266.187	1034.190
-28.867	26.509	1264.651	1032.867
-27.852	26.520	1263.026	1031.560
-26.838	26.518	1261.521	1030.278
-25.823	26.499	1260.442	1029.247
-24.809	26.448	1258.797	1027.577
-23.794	26.323	1257.603	1025.853
-22.779	26.514	1256.313	1025.841
-21.765	26.473	1254.969	1024.470
-20.750	26.383	1254.045	1023.164
-19.736	26.280	1253.071	1021.747
-18.721	26.324	1251.448	1020.632
-17.706	26.336	1250.955	1020.259
-16.692	26.341	1249.523	1019.076
-15.677	26.283	1248.386	1017.785
-14.663	26.333	1247.075	1016.956
-13.648	26.376	1245.970	1016.257
-12.633	26.345	1245.021	1015.266
-11.619	26.311	1244.627	1014.718
-10.604	26.287	1243.660	1013.753
-9.590	26.390	1242.276	1013.160
-8.575	26.376	1241.609	1012.499
-7.560	26.302	1240.696	1011.298
-6.546	26.421	1239.855	1011.241
-5.531	26.261	1238.731	1009.390
-4.517	26.245	1237.860	1008.552
-3.502	26.402	1237.261	1008.894
-2.487	26.271	1236.475	1007.488
-1.473	26.266	1232.449	1004.140
-0.458	24.925	1217.175	984.286
0.556	21.727	1201.384	948.358
1.571	18.323	1206.982	934.152
2.586	17.290	1222.027	940.004
3.600	16.919	1210.423	928.964
4.615	12.758	1139.160	852.697
5.629	5.982	1068.973	767.081
6.644	3.243	1051.770	741.493
7.659	3.127	1048.972	738.895
8.673	3.106	1048.363	738.303
9.688	3.184	1046.732	737.462
10.702	3.327	1044.454	736.476
11.717	7.120	1049.559	758.203
12.731	14.491	1059.971	801.196
13.746	19.073	1065.297	827.228
14.761	19.700	1065.841	830.591
15.775	18.856	1064.130	825.133
16.790	17.839	1062.173	818.666
17.804	17.262	1060.730	814.715
18.819	16.903	1059.532	812.004
19.834	16.675	1059.358	810.708
20.848	16.556	1058.527	809.432
21.863	16.372	1056.998	807.313
22.877	16.331	1056.198	806.431
23.892	16.193	1055.889	805.467
24.907	16.098	1055.321	804.510
25.921	16.216	1054.232	804.170
26.936	16.256	1052.810	803.204
27.950	16.241	1052.057	802.485
28.965	16.394	1050.102	801.651
29.980	16.400	1048.498	800.384
30.994	16.422	1047.968	800.013
32.009	16.527	1046.744	799.503
33.023	16.431	1045.777	798.239
34.038	16.363	1044.358	796.766
35.053	16.352	1043.366	795.885
36.067	16.430	1042.817	795.765
37.082	16.406	1042.099	795.035
38.096	16.450	1041.027	794.354
39.111	16.452	1040.352	793.778
40.126	16.412	1038.892	792.405
41.140	16.264	1037.650	790.695
42.155	15.987	1036.574	788.507
43.169	15.971	1035.294	787.392
44.184	16.008	1034.172	786.640
45.199	16.064	1033.284	786.154
46.213	16.049	1032.814	785.660
47.228	16.194	1031.939	785.599
48.242	16.389	1030.672	785.474
49.257	16.323	1029.913	784.516
50.271	16.393	1028.773	783.903
51.286	16.308	1028.166	782.979
52.301	16.239	1027.144	781.811
53.315	16.285	1025.659	780.822
54.330	16.131	1024.967	779.515
55.344	16.182	1023.626	778.665
56.359	16.307	1022.932	778.644
57.374	16.018	1022.622	777.004
58.388	15.948	1021.465	775.736
59.403	15.961	1020.592	775.065
60.417	15.959	1019.904	774.463
61.432	15.957	1018.942	773.656
62.447	15.995	1018.231	773.221
63.461	15.897	1017.520	772.166
64.476	15.868	1016.555	771.231
65.490	15.865	1015.599	770.421
66.505	15.973	1014.745	770.200
67.520	15.829	1014.572	769.342
68.534	15.967	1013.622	769.185
69.549	16.023	1012.817	768.763
70.563	15.962	1012.091	767.863
71.578	15.730	1011.413	766.228
72.593	15.751	1010.489	765.552
73.607	15.723	1009.629	764.708
74.622	15.822	1008.991	764.605
75.636	15.865	1008.666	764.485
76.651	15.800	1007.721	763.408
77.666	15.845	1007.423	763.318
78.680	15.819	1006.380	762.342
79.695	15.728	1005.967	761.553
80.709	16.016	1005.206	762.209
81.724	15.957	1004.884	761.633
82.739	16.217	1004.005	762.073
83.753	16.270	1003.346	761.746
84.768	16.567	1002.546	762.410
85.782	16.521	1001.656	761.456
86.797	16.407	1000.847	760.261
87.812	16.358	999.651	759.067
88.826	16.405	998.665	758.459
89.841	16.516	997.868	758.286
90.855	16.435	997.153	757.312
91.870	16.578	996.209	757.168
92.884	16.434	995.706	756.076
93.899	16.465	994.631	755.331
94.914	16.650	993.902	755.537
95.928	16.599	993.226	754.727
96.943	16.435	992.507	753.385
97.957	16.489	991.364	752.689
98.972	16.494	990.162	751.733
99.987	16.487	989.279	750.963
101.001	16.460	988.565	750.235
102.016	16.414	987.554	749.197
103.030	16.430	987.201	748.938
104.045	16.441	986.210	748.168
105.060	16.349	985.256	746.971
106.074	16.100	984.667	745.357
107.089	15.936	983.256	743.501
108.103	16.003	982.414	743.093
109.118	15.950	981.216	741.885
110.133	15.893	980.946	741.368
111.147	15.927	979.809	740.590
112.162	16.015	978.928	740.246
113.176	16.108	978.551	740.304
114.191	16.158	977.535	739.686
115.206	16.122	977.041	739.092
116.220	16.133	975.983	738.274
117.235	16.245	974.950	737.915
118.249	16.141	974.069	736.732
119.264	15.964	973.852	735.728
120.279	16.074	972.578	735.179
121.293	16.031	971.374	734.017
122.308	15.786	970.827	732.472
123.322	15.861	969.704	731.886
124.337	15.817	968.593	730.792
125.352	15.934	967.134	730.136
126.366	15.836	966.492	729.162
127.381	15.912	965.540	728.706
128.395	15.789	965.267	727.905
129.410	15.946	963.751	727.377
130.424	15.993	963.320	727.186
131.439	16.191	962.225	727.151
132.454	16.111	961.743	726.378
133.468	16.182	960.699	725.829
134.483	16.042	960.185	724.775
135.497	16.217	958.938	724.524
136.512	16.232	958.216	723.975
137.527	16.230	957.206	723.143
138.541	16.131	957.083	722.559
139.556	16.324	956.057	722.547
140.570	16.331	955.770	722.297
141.585	16.502	954.392	721.921
142.600	16.402	954.037	721.162
143.614	16.667	952.966	721.416
144.629	16.504	952.827	720.556
145.643	16.695	951.479	720.283
146.658	16.373	950.644	718.217
147.673	16.275	949.585	716.940
148.687	16.357	948.466	716.378
149.702	16.280	947.730	715.435
150.716	16.252	947.000	714.700
151.731	16.289	946.244	714.221
152.746	16.255	945.762	713.650
153.760	16.288	944.966	713.128
154.775	16.413	944.497	713.239
155.789	16.368	944.071	712.666
156.804	16.565	942.920	712.562
157.819	16.461	942.214	711.526
158.833	16.700	941.662	712.052
159.848	16.745	940.937	711.631
160.862	16.615	939.949	710.274
161.877	16.368	938.602	708.159
162.892	16.353	937.617	707.293
163.906	16.318	936.952	706.581
164.921	16.241	936.299	705.702
165.935	16.228	935.555	705.025
166.950	16.365	934.516	704.752
167.964	16.360	934.080	704.342
168.979	16.300	932.780	703.047
169.994	16.445	932.198	703.151
171.008	16.529	931.515	702.920
172.023	16.538	930.814	702.366
173.037	16.665	930.191	702.364
174.052	16.512	929.314	701.006
175.067	16.377	928.656	699.888
176.081	16.308	927.870	698.946
177.096	16.292	927.420	698.479
178.110	16.397	926.824	698.405
179.125	16.456	926.187	698.105
180.140	16.384	925.708	697.385
181.154	16.530	925.654	697.884
182.169	16.790	924.985	698.389
183.183	16.752	924.560	697.853
184.198	16.763	923.715	697.197
185.213	16.790	922.667	696.454
186.227	16.839	922.291	696.312
187.242	16.876	922.013	696.193
188.256	16.883	921.305	695.625
189.271	16.903	920.412	694.971
190.286	16.596	919.509	692.972
191.300	16.312	918.768	691.187
192.315	16.215	918.008	690.158
193.329	16.447	917.367	690.562
194.344	16.431	917.167	690.287
195.359	16.479	916.641	690.026
196.373	16.658	915.927	690.155
197.388	16.736	915.763	690.288
198.402	16.901	915.232	690.502
199.417	16.932	914.877	690.298
200.432	17.073	914.150	690.263
201.446	17.149	913.617	690.108
202.461	17.201	913.335	690.043
203.475	17.113	912.223	688.787
204.490	16.953	911.641	687.637
205.504	16.902	910.597	686.582
206.519	16.816	909.903	685.650
207.534	16.927	909.155	685.474
208.548	16.855	908.666	684.757
209.563	16.949	907.744	684.378
210.577	16.972	907.435	684.179
211.592	17.102	907.034	684.338
212.607	17.088	906.312	683.676
213.621	17.086	905.217	682.781
214.636	17.072	904.880	682.412
215.650	17.190	904.029	682.185
216.665	17.288	903.286	681.954
217.680	17.262	902.916	681.514
218.694	17.309	901.949	680.910
219.709	17.187	901.801	680.250
220.723	17.138	900.758	679.207
221.738	17.147	899.943	678.567
222.753	17.164	899.635	678.345
223.767	17.304	899.230	678.535
224.782	17.365	898.535	678.194
225.796	17.435	898.120	678.101
226.811	17.426	897.061	677.204
227.826	17.155	896.761	675.843
228.840	17.118	895.874	674.968
229.855	17.186	895.047	674.553
230.869	17.286	894.592	674.548
231.884	17.188	893.378	673.186
232.899	17.168	892.847	672.645
233.913	17.144	891.809	671.708
234.928	17.068	891.463	671.090
235.942	17.036	890.599	670.254
236.957	17.156	890.414	670.529
237.972	17.083	889.942	669.823
238.986	17.111	889.129	669.262
240.001	17.019	888.899	668.670
241.015	17.200	888.307	668.879
242.030	17.267	887.589	668.543
243.045	17.291	886.951	668.094
244.059	17.268	886.468	667.584
245.074	17.375	885.692	667.360
246.088	17.402	885.207	667.041
247.103	17.362	885.018	666.682
248.117	17.547	884.496	666.955
249.132	17.781	883.852	667.324
250.147	17.858	883.173	667.055
251.161	18.033	882.334	667.045
252.176	17.866	882.090	666.151
253.190	17.962	881.398	665.943
254.205	17.974	880.656	665.369
255.220	18.035	879.825	664.921
256.234	18.067	879.387	664.656
257.249	17.894	878.560	663.300
258.263	17.917	877.826	662.776
259.278	18.020	877.535	662.896
260.293	18.048	877.108	662.623
261.307	18.110	876.537	662.373
262.322	18.139	875.670	661.774
263.336	18.122	875.050	661.182
264.351	18.064	874.515	660.494
265.366	18.205	873.477	660.196
266.380	18.197	873.047	659.780
267.395	18.019	872.396	658.543
268.409	18.008	871.462	657.739
269.424	18.083	870.680	657.379
270.439	18.076	869.929	656.726
271.453	18.094	869.329	656.284
272.468	17.964	869.108	655.561
273.482	18.051	868.584	655.440
274.497	17.965	867.731	654.410
275.512	17.908	867.204	653.737
276.526	17.985	867.276	654.028
277.541	18.098	866.183	653.579
278.555	18.183	865.922	653.646
279.570	18.429	865.422	654.152
280.585	18.171	864.750	652.603
281.599	18.176	863.858	651.890
282.614	18.102	862.622	650.617
283.628	18.328	862.379	651.238
284.643	18.067	862.184	650.038
285.657	18.202	861.075	649.658
286.672	18.109	860.702	648.966
287.687	18.187	859.998	648.673
288.701	18.247	859.158	648.211
289.716	18.101	859.203	647.632
290.730	18.233	858.428	647.491
291.745	18.288	857.740	647.123
292.760	18.246	857.020	646.363
293.774	18.479	856.444	646.754
294.789	18.377	855.703	645.752
295.803	18.313	854.874	644.828
296.818	18.298	854.337	644.309
297.833	18.297	853.761	643.815
298.847	18.277	853.210	643.267
299.862	18.394	852.640	643.217
300.876	18.506	852.221	643.264
301.891	18.537	851.638	642.886
302.906	18.576	851.024	642.513
303.920	18.719	850.701	642.746
304.935	18.790	850.018	642.439
305.949	18.699	849.334	641.522
306.964	18.594	848.799	640.672
307.979	18.731	847.943	640.479
308.993	18.697	847.746	640.146
310.008	18.718	846.983	639.595
311.022	18.599	846.524	638.745
312.037	18.521	845.771	637.832
313.052	18.468	845.024	637.014
314.066	18.347	844.591	636.184
315.081	18.460	843.774	635.930
316.095	18.377	843.589	635.428
317.110	18.518	842.843	635.329
318.125	18.563	842.032	634.831
319.139	18.397	841.944	634.091
320.154	18.399	841.443	633.665
321.168	18.587	840.814	633.831
322.183	18.497	840.598	633.279
323.197	18.629	839.923	633.203
324.212	18.511	839.586	632.458
325.227	18.426	839.069	631.698
326.241	18.496	838.143	631.204
327.256	18.569	837.544	630.967
328.270	18.444	837.190	630.184
329.285	18.434	836.878	629.857
330.300	18.439	836.025	629.178
331.314	18.586	835.558	629.309
332.329	18.660	834.968	629.080
333.343	18.807	835.049	629.623
334.358	18.751	834.251	628.760
335.373	18.659	834.106	628.262
336.387	18.806	833.738	628.464
337.402	18.727	833.697	628.090
338.416	18.977	832.998	628.421
339.431	19.039	832.561	628.261
340.446	19.182	831.983	628.292
341.460	19.126	832.134	628.147
342.475	19.134	831.297	627.487
343.489	19.220	830.979	627.506
344.504	19.291	830.653	627.463
345.519	19.299	830.010	626.949
346.533	19.267	829.479	626.376
347.548	19.207	828.480	625.349
348.562	18.969	828.025	624.088
349.577	18.891	827.687	623.495
350.592	18.877	826.683	622.631
351.606	18.838	826.269	622.123
352.621	18.894	825.406	621.623
353.635	19.091	824.987	621.963
354.650	18.980	824.375	621.047
355.665	19.130	823.742	621.055
356.679	19.212	823.259	620.931
357.694	19.084	823.036	620.248
358.708	19.213	821.908	619.808
359.723	19.123	821.382	619.033
360.738	19.244	820.675	618.880
361.752	19.117	820.447	618.197
362.767	19.432	819.837	618.813
363.781	19.406	819.558	618.453
364.796	19.526	818.888	618.321
365.810	19.754	818.412	618.725
366.825	19.604	818.421	618.142
367.840	19.516	817.613	617.158
368.854	19.463	817.284	616.669
369.869	19.409	816.715	615.990
370.883	19.463	816.448	615.929
371.898	19.548	816.096	615.911
372.913	19.615	815.628	615.742
373.927	19.614	814.727	615.003
374.942	19.476	814.785	614.501
375.956	19.579	814.639	614.704
376.971	19.753	813.549	614.445
377.986	19.706	813.651	614.302
379.000	19.788	812.957	614.013
380.015	19.853	811.867	613.366
381.029	19.820	811.357	612.811
382.044	19.826	810.938	612.461
383.059	19.903	810.468	612.325
384.073	19.730	810.172	611.436
385.088	19.625	809.062	610.172
386.102	19.704	808.235	609.774
387.117	19.595	807.987	609.149
388.132	19.586	807.518	608.708
389.146	19.565	807.430	608.514
390.161	19.616	807.203	608.468
391.175	19.863	806.149	608.488
392.190	19.812	805.503	607.769
393.205	19.763	805.185	607.301
394.219	19.685	804.924	606.779
395.234	19.528	804.308	605.708
396.248	19.476	803.947	605.202
397.263	19.553	803.381	604.993
398.278	19.428	803.004	604.218
399.292	19.425	802.793	603.994
400.307	19.664	802.191	604.324
401.321	19.464	801.877	603.335
402.336	19.693	801.583	603.859
403.350	19.618	801.218	603.269
404.365	19.833	800.524	603.443
405.380	19.882	800.198	603.316
406.394	19.955	799.455	602.958
407.409	20.136	799.156	603.306
408.423	20.126	798.907	603.030
409.438	20.057	799.238	602.988
410.453	20.011	798.790	602.437
411.467	20.233	797.848	602.445
412.482	20.253	797.474	602.177
413.496	20.479	797.096	602.622
414.511	20.318	796.528	601.582
415.526	20.261	796.113	601.017
416.540	20.444	795.456	601.102
417.555	20.345	794.992	600.355
418.569	20.316	794.508	599.837
419.584	20.285	794.180	599.430
420.599	20.282	793.912	599.162
421.613	162.157	1372.464	1797.215
422.628	140.575	1456.769	1797.324
