DTS Sentinel unit serial number:	SN413079Multiplexer serial number:	ORYXHardware model number:	OX4-SRSoftware version number:	ORYX F/W v4.00 Oryx Data Collector v3.7.2.0data status	okinstallation	princeton_trtdifferential loss correction	single-endedforward channel	channel 1reverse channel	N/Adate	2019/09/18time	20:06:35forward acquisition time	60.00reverse acquisition time	0.00gamma	496.2192k internal	0.2330k external	0.2330temperature offset calibration	1.0022default loss term (dB/km)	0.3790temperature slope calibration	1.0000multiplexer offset coefficient	1.0000multiplexer slope coefficient	1.0000fibre end	0.00T internal ref (°C)	29.91T ext. ref 1 (°C)	0.87T ext. ref 2 (°C)	20.45length (m)	temperature (°C)	Stokes	anti-Stokes-747.200	251.659	-0.068	-0.116
-746.185	-200.000	-0.060	0.281
-745.171	168.855	-0.117	0.169
-744.156	218.493	-0.068	0.109
-743.142	-200.000	-0.003	0.196
-742.127	180.886	-0.182	0.270
-741.112	-111.339	-0.265	-0.055
-740.098	9.032	-0.074	-0.056
-739.083	-21.121	-0.427	0.263
-738.069	-200.000	0.002	-0.053
-737.054	-104.420	0.232	0.054
-736.039	-46.171	-0.137	-0.068
-735.025	-91.904	0.131	0.037
-734.010	-112.972	-0.246	-0.049
-732.996	101.152	-0.170	0.199
-731.981	-185.915	0.171	0.003
-730.966	57.083	-0.139	0.136
-729.952	-102.289	-0.135	-0.033
-728.937	-35.489	-0.283	-0.155
-727.923	-15.269	-0.197	-0.127
-726.908	-158.261	-0.011	0.001
-725.894	-29.780	-0.328	0.188
-724.879	-177.319	-0.270	0.007
-723.864	89.604	0.156	-0.175
-722.850	-79.079	0.225	0.077
-721.835	111.921	0.181	-0.219
-720.821	86.714	-0.156	-0.173
-719.806	-128.232	0.186	0.027
-718.791	-49.019	0.147	-0.071
-717.777	47.501	0.142	-0.134
-716.762	35.125	0.078	-0.069
-715.748	800.000	-0.092	-0.264
-714.733	9.576	0.146	0.111
-713.718	-165.964	0.359	-0.015
-712.704	2.426	-0.252	-0.183
-711.689	-37.585	0.139	0.075
-710.675	16.147	-0.182	0.144
-709.660	800.000	0.083	0.238
-708.645	56.450	-0.197	-0.193
-707.631	184.475	-0.143	0.213
-706.616	268.102	0.082	-0.144
-705.602	-200.000	-0.014	-0.282
-704.587	-29.126	0.308	0.178
-703.572	-200.000	0.029	-0.130
-702.558	800.000	-0.124	-0.361
-701.543	-102.581	-0.190	0.046
-700.529	-107.680	-0.211	-0.046
-699.514	37.701	0.219	-0.196
-698.499	42.845	-0.132	0.121
-697.485	190.615	-0.152	-0.229
-696.470	357.168	0.181	-0.362
-695.456	-107.290	0.103	-0.023
-694.441	-66.250	-0.156	0.062
-693.426	-63.405	-0.238	0.098
-692.412	-200.000	-0.030	-0.215
-691.397	-133.548	-0.314	-0.040
-690.383	-72.695	-0.215	-0.080
-689.368	-15.736	0.201	0.129
-688.354	800.000	0.047	0.155
-687.339	-200.000	0.043	-0.327
-686.324	-94.412	-0.054	0.015
-685.310	35.719	0.045	-0.040
-684.295	-130.618	-0.314	0.043
-683.281	101.596	0.134	0.157
-682.266	173.008	0.171	-0.247
-681.251	2.823	0.162	0.118
-680.237	-85.293	-0.213	0.067
-679.222	61.602	0.113	0.112
-678.208	-200.000	-0.014	0.141
-677.193	-139.254	-0.331	0.036
-676.178	-84.567	-0.143	-0.045
-675.164	-51.990	0.259	0.121
-674.149	-22.324	-0.323	-0.196
-673.135	-200.000	-0.006	0.079
-672.120	43.116	-0.318	-0.292
-671.105	157.905	0.065	0.090
-670.091	33.785	-0.069	0.060
-669.076	800.000	-0.108	-0.309
-668.062	-40.828	0.177	-0.092
-667.047	-122.031	-0.360	-0.059
-666.032	-108.251	0.187	0.041
-665.018	-135.391	0.294	0.035
-664.003	-137.413	-0.141	0.016
-662.989	3.158	0.068	-0.049
-661.974	145.844	0.099	-0.133
-660.959	309.169	-0.116	-0.218
-659.945	65.034	0.226	-0.229
-658.930	31.260	0.126	0.108
-657.916	154.360	0.092	-0.127
-656.901	-107.805	0.081	-0.018
-655.886	-45.471	-0.186	-0.093
-654.872	-200.000	-0.033	0.193
-653.857	-142.966	0.188	0.018
-652.843	113.683	-0.147	0.179
-651.828	-159.138	-0.056	0.003
-650.814	-79.509	0.213	-0.072
-649.799	-156.081	0.157	0.010
-648.784	-164.543	-0.216	0.010
-647.770	15.393	-0.101	-0.080
-646.755	13.108	-0.227	-0.176
-645.741	125.284	-0.107	-0.136
-644.726	-18.462	0.307	-0.192
-643.711	631.314	-0.063	0.159
-642.697	-89.049	0.026	0.008
-641.682	537.773	-0.059	0.141
-640.668	-45.404	-0.252	-0.125
-639.653	14.081	-0.194	-0.151
-638.638	46.484	0.207	0.193
-637.624	-58.000	0.109	0.048
-636.609	-137.734	0.284	0.032
-635.595	100.326	-0.083	-0.096
-634.580	187.190	-0.062	0.093
-633.565	-200.000	-0.037	0.290
-632.551	26.445	-0.049	0.041
-631.536	-11.956	0.076	0.050
-630.522	-59.953	0.111	0.048
-629.507	-84.718	-0.283	0.089
-628.492	129.021	0.084	-0.108
-627.478	-8.798	0.123	0.082
-626.463	-163.271	0.372	0.018
-625.449	-8.647	0.243	-0.163
-624.434	-143.583	-0.248	0.024
-623.419	-129.891	-0.203	0.028
-622.405	132.468	0.221	0.285
-621.390	328.130	0.067	-0.129
-620.376	-60.354	-0.053	-0.023
-619.361	-189.967	-0.446	-0.005
-618.346	-30.966	-0.243	-0.137
-617.332	-10.832	-0.191	0.126
-616.317	-90.396	-0.362	-0.105
-615.303	-200.000	-0.065	-0.445
-614.288	146.382	0.071	0.096
-613.273	210.322	0.147	-0.231
-612.259	148.426	0.288	-0.389
-611.244	192.113	0.158	-0.239
-610.230	800.000	-0.104	0.300
-609.215	-174.124	-0.245	0.007
-608.201	-106.132	0.330	0.074
-607.186	209.140	0.096	0.150
-606.171	800.000	0.105	0.404
-605.157	-25.854	0.019	-0.011
-604.142	-95.481	-0.074	0.020
-603.128	-200.000	-0.029	0.359
-602.113	-160.407	0.188	0.010
-601.098	-176.640	0.266	-0.007
-600.084	-200.000	-0.006	0.071
-599.069	-7.384	0.075	-0.051
-598.055	156.995	-0.068	-0.095
-597.040	800.000	0.076	-0.331
-596.025	-130.021	-0.236	0.032
-595.011	-99.840	0.129	-0.032
-593.996	375.045	0.115	-0.234
-592.982	226.549	-0.067	0.110
-591.967	-101.260	-0.401	0.098
-590.952	-106.516	-0.139	-0.031
-589.938	-134.906	-0.119	0.014
-588.923	800.000	0.064	-0.189
-587.909	-8.720	0.206	-0.138
-586.894	-29.486	-0.235	-0.134
-585.879	-14.935	0.130	0.084
-584.865	296.377	-0.070	-0.128
-583.850	-46.205	0.318	-0.156
-582.836	35.363	0.131	0.115
-581.821	-200.000	-0.066	-0.312
-580.806	59.077	-0.103	-0.101
-579.792	-174.376	-0.195	-0.006
-578.777	-6.864	-0.206	0.140
-577.763	800.000	0.039	-0.110
-576.748	-96.031	0.162	-0.043
-575.733	-142.880	0.249	-0.024
-574.719	-200.000	-0.022	0.274
-573.704	17.192	-0.032	0.026
-572.690	-200.000	0.014	-0.288
-571.675	-178.011	-0.155	-0.004
-570.661	-165.513	-0.146	-0.006
-569.646	-10.489	0.309	-0.205
-568.631	-7.580	-0.041	-0.028
-567.617	-74.590	-0.172	-0.062
-566.602	233.234	-0.078	-0.128
-565.588	-82.487	0.142	0.046
-564.573	-200.000	-0.033	-0.238
-563.558	-200.000	0.028	0.223
-562.544	-200.000	-0.009	-0.246
-561.529	101.489	-0.241	-0.280
-560.515	-80.000	-0.176	0.059
-559.500	-112.401	-0.221	-0.044
-558.485	-139.835	-0.166	0.018
-557.471	-35.863	-0.297	-0.160
-556.456	-26.611	-0.046	-0.027
-555.442	-73.247	-0.378	0.138
-554.427	306.365	0.120	-0.224
-553.412	234.413	0.270	-0.445
-552.398	355.156	-0.127	-0.252
-551.383	-200.000	-0.021	0.100
-550.369	-132.441	0.307	-0.039
-549.354	-114.172	0.403	-0.078
-548.339	-94.037	-0.130	-0.036
-547.325	-53.566	-0.177	0.081
-546.310	71.828	0.100	0.104
-545.296	-200.000	-0.017	-0.116
-544.281	172.622	0.131	-0.189
-543.266	33.091	-0.104	-0.090
-542.252	266.485	0.086	-0.150
-541.237	-114.882	-0.213	0.041
-540.223	-88.649	-0.121	-0.036
-539.208	13.509	0.118	-0.092
-538.193	-137.742	-0.134	-0.015
-537.179	-145.461	0.199	0.018
-536.164	123.845	0.159	-0.200
-535.150	9.726	-0.282	-0.213
-534.135	45.352	-0.100	-0.092
-533.121	114.197	0.192	0.234
-532.106	-95.311	-0.368	-0.099
-531.091	56.452	0.156	-0.152
-530.077	358.369	-0.041	-0.082
-529.062	215.656	0.180	-0.285
-528.048	-200.000	-0.007	0.114
-527.033	-200.000	-0.031	-0.208
-526.018	-166.037	-0.203	0.009
-525.004	63.810	0.213	-0.214
-523.989	113.151	-0.290	-0.351
-522.975	-57.352	-0.160	-0.070
-521.960	271.840	0.052	-0.092
-520.945	-18.216	0.100	-0.063
-519.931	-74.579	0.357	0.128
-518.916	-171.112	-0.238	0.008
-517.902	-92.912	0.291	0.081
-516.887	-89.758	0.313	0.091
-515.872	39.297	-0.257	-0.230
-514.858	285.548	-0.132	0.238
-513.843	18.960	0.215	0.172
-512.829	-87.371	-0.435	0.132
-511.814	-4.760	0.104	-0.072
-510.799	176.112	-0.146	0.212
-509.785	61.305	0.177	-0.175
-508.770	29.966	0.054	0.046
-507.756	73.156	-0.078	0.081
-506.741	-160.413	-0.185	-0.010
-505.726	20.447	-0.160	0.129
-504.712	-61.418	0.121	0.051
-503.697	180.570	-0.179	0.261
-502.683	-200.000	-0.021	0.154
-501.668	-108.739	-0.200	-0.043
-500.653	-78.055	-0.439	0.151
-499.639	380.612	0.016	0.032
-498.624	289.412	0.121	0.219
-497.610	22.875	0.092	-0.075
-496.595	-59.831	0.247	0.105
-495.581	617.184	-0.028	-0.070
-494.566	520.476	0.063	0.147
-493.551	116.790	-0.198	0.243
-492.537	-200.000	-0.021	0.118
-491.522	132.428	0.075	0.096
-490.508	-200.000	0.006	-0.167
-489.493	-34.343	0.153	0.084
-488.478	800.000	0.008	0.023
-487.464	-97.702	-0.117	-0.030
-486.449	372.541	0.010	0.020
-485.435	-200.000	0.033	-0.000
-484.420	56.291	0.126	-0.122
-483.405	199.350	0.138	-0.210
-482.391	-20.680	-0.148	0.090
-481.376	-180.174	-0.275	-0.006
-480.362	-20.856	-0.384	0.234
-479.347	780.970	0.036	0.097
-478.332	-200.000	-0.001	-0.119
-477.318	-200.000	0.014	-0.087
-476.303	-50.513	0.241	0.113
-475.289	-200.000	-0.012	0.055
-474.274	-156.226	-0.259	0.016
-473.259	-117.920	0.240	-0.043
-472.245	800.000	0.032	0.131
-471.230	0.823	0.318	-0.227
-470.216	261.901	-0.098	-0.168
-469.201	-45.262	-0.115	0.057
-468.186	116.097	-0.146	0.178
-467.172	337.599	-0.048	-0.094
-466.157	762.316	0.103	-0.279
-465.143	-149.271	0.179	-0.014
-464.128	758.590	-0.061	0.164
-463.113	-147.659	-0.289	-0.024
-462.099	-103.148	0.427	0.101
-461.084	457.785	-0.108	-0.239
-460.070	91.225	0.017	-0.019
-459.055	748.187	0.029	-0.079
-458.040	137.971	-0.225	0.294
-457.026	-200.000	-0.045	0.493
-456.011	800.000	-0.049	-0.135
-454.997	800.000	-0.085	-0.307
-453.982	800.000	0.076	-0.219
-452.968	-200.000	-0.031	-0.360
-451.953	94.334	-0.237	-0.268
-450.938	-171.747	0.187	0.006
-449.924	219.758	-0.280	0.447
-448.909	-13.107	0.177	-0.114
-447.895	-200.000	-0.001	-0.171
-446.880	-155.812	-0.061	0.004
-445.865	-53.351	0.162	-0.074
-444.851	14.434	-0.193	0.150
-443.836	-200.000	0.063	-0.322
-442.822	15.349	-0.176	-0.137
-441.807	-137.778	-0.301	0.034
-440.792	116.080	0.116	-0.142
-439.778	101.205	0.200	0.231
-438.763	-131.062	0.029	0.004
-437.749	362.304	-0.054	0.107
-436.734	336.508	-0.059	0.114
-435.719	241.874	0.120	0.200
-434.705	84.927	0.071	0.077
-433.690	215.406	0.114	-0.179
-432.676	-200.000	0.007	-0.083
-431.661	138.886	0.088	-0.115
-430.646	68.542	0.155	-0.158
-429.632	-200.000	0.001	0.273
-428.617	-168.076	-0.187	-0.007
-427.603	800.000	0.120	-0.366
-426.588	-39.368	0.153	-0.080
-425.573	19.750	-0.219	0.175
-424.559	-200.000	0.078	-0.345
-423.544	-200.000	0.027	-0.287
-422.530	-102.870	-0.489	0.115
-421.515	646.923	0.042	0.107
-420.500	-200.000	-0.017	-0.132
-419.486	-129.307	0.492	-0.068
-418.471	-200.000	0.012	0.195
-417.457	120.743	0.191	0.236
-416.442	-200.000	0.007	0.097
-415.428	-105.184	-0.106	-0.024
-414.413	-200.000	-0.003	-0.261
-413.398	-22.304	-0.190	-0.114
-412.384	-110.633	-0.272	-0.056
-411.369	33.954	-0.143	-0.123
-410.355	321.413	-0.114	0.215
-409.340	-145.317	0.015	0.001
-408.325	-11.673	0.274	0.179
-407.311	-51.315	0.090	0.042
-406.296	800.000	-0.075	0.242
-405.282	111.337	-0.141	0.169
-404.267	87.523	-0.171	0.188
-403.252	-200.000	-0.011	-0.344
-402.238	229.355	-0.016	0.026
-401.223	-200.000	-0.021	0.222
-400.209	-82.263	-0.091	-0.029
-399.194	94.985	0.265	0.299
-398.179	326.441	0.013	0.024
-397.165	-5.405	0.162	0.110
-396.150	164.563	0.150	0.210
-395.136	-3.966	0.133	-0.092
-394.121	800.000	0.156	0.467
-393.106	800.000	0.041	0.114
-392.092	-121.445	0.223	0.037
-391.077	685.222	-0.080	-0.208
-390.063	-9.937	0.077	-0.051
-389.048	-200.000	-0.037	0.226
-388.033	-58.427	-0.135	0.058
-387.019	-21.459	-0.234	-0.142
-386.004	241.887	0.145	0.241
-384.990	800.000	0.050	0.197
-383.975	800.000	-0.070	-0.207
-382.960	127.459	0.054	0.068
-381.946	-75.153	0.350	-0.124
-380.931	-136.710	-0.101	0.012
-379.917	10.498	0.323	0.244
-378.902	800.000	0.103	-0.390
-377.888	-123.388	-0.352	-0.056
-376.873	18.248	-0.192	-0.152
-375.858	-154.630	-0.304	0.020
-374.844	-142.737	-0.323	0.031
-373.829	-200.000	0.059	0.335
-372.815	283.128	0.040	0.072
-371.800	293.090	0.041	-0.074
-370.785	140.939	-0.155	0.204
-369.771	800.000	0.048	0.173
-368.756	-200.000	-0.028	0.375
-367.742	-91.763	-0.037	-0.010
-366.727	81.444	-0.223	0.240
-365.712	46.694	0.271	0.250
-364.698	-58.904	-0.152	-0.065
-363.683	-112.027	-0.211	-0.042
-362.669	-71.720	0.263	0.097
-361.654	800.000	0.107	-0.319
-360.639	290.486	-0.072	-0.130
-359.625	-165.130	0.196	-0.009
-358.610	25.882	-0.417	-0.345
-357.596	-110.099	-0.333	0.069
-356.581	-27.501	0.227	-0.131
-355.566	-127.905	0.192	0.027
-354.552	-198.853	-0.323	-0.002
-353.537	800.000	0.074	0.286
-352.523	99.584	-0.159	0.183
-351.508	-200.000	0.031	-0.226
-350.493	-175.069	-0.265	0.007
-349.479	-96.110	-0.150	0.039
-348.464	209.727	-0.110	-0.170
-347.450	-200.000	0.041	0.213
-346.435	36.425	-0.298	-0.261
-345.420	-200.000	0.025	0.113
-344.406	800.000	-0.029	0.119
-343.391	-15.694	-0.101	-0.064
-342.377	-200.000	0.006	0.136
-341.362	75.875	-0.238	0.249
-340.348	-34.718	0.180	-0.097
-339.333	49.882	-0.183	0.171
-338.318	407.188	0.045	-0.094
-337.304	-47.645	-0.106	0.051
-336.289	76.410	0.159	0.167
-335.275	-144.287	0.146	-0.013
-334.260	-200.000	-0.015	-0.108
-333.245	-6.401	-0.234	-0.158
-332.231	-200.000	-0.020	-0.335
-331.216	10.965	0.091	-0.069
-330.202	800.000	-0.038	0.111
-329.187	335.253	-0.120	-0.230
-328.172	800.000	-0.109	-0.346
-327.158	22.319	-0.071	-0.057
-326.143	-104.734	-0.180	-0.041
-325.129	0.537	0.230	0.163
-324.114	7.472	-0.124	-0.092
-323.099	8.002	0.171	-0.127
-322.085	-153.954	-0.103	-0.007
-321.070	-31.938	0.153	0.085
-320.056	-200.000	0.008	-0.092
-319.041	-200.000	-0.012	-0.056
-318.026	12.174	0.115	-0.087
-317.012	-200.000	0.009	-0.165
-315.997	302.990	0.139	-0.256
-314.983	161.971	-0.105	-0.146
-313.968	354.871	-0.123	0.243
-312.953	800.000	0.015	0.065
-311.939	-200.000	0.059	0.411
-310.924	2.763	0.075	0.054
-309.910	63.483	-0.244	-0.242
-308.895	78.111	-0.142	0.150
-307.880	-99.825	0.220	0.055
-306.866	-70.678	-0.309	-0.115
-305.851	327.459	0.079	-0.151
-304.837	-94.738	-0.149	-0.040
-303.822	41.493	-0.123	0.110
-302.807	-110.910	0.080	0.016
-301.793	-69.367	0.226	-0.086
-300.778	-184.950	0.106	0.002
-299.764	-200.000	0.019	-0.133
-298.749	-109.990	-0.325	-0.067
-297.735	-16.223	0.346	0.217
-296.720	-200.000	-0.029	0.134
-295.705	310.780	-0.102	0.190
-294.691	52.557	0.111	-0.105
-293.676	-66.912	0.257	0.101
-292.662	-200.000	-0.009	0.472
-291.647	280.674	0.095	0.168
-290.632	-102.748	0.203	-0.048
-289.618	-116.263	0.199	0.037
-288.603	-191.036	-0.056	-0.001
-287.589	-59.392	0.248	0.105
-286.574	-115.801	0.308	0.057
-285.559	-200.000	-0.026	-0.127
-284.545	-50.503	-0.318	0.148
-283.530	-26.713	-0.354	-0.205
-282.516	-13.514	0.166	0.106
-281.501	-28.063	-0.034	0.019
-280.486	-27.186	0.197	0.114
-279.472	-88.379	0.160	-0.047
-278.457	304.202	-0.014	-0.026
-277.443	-200.000	-0.006	-0.085
-276.428	119.060	0.107	-0.131
-275.413	800.000	-0.035	-0.119
-274.399	727.772	0.065	0.173
-273.384	78.569	-0.099	-0.105
-272.370	-136.855	0.467	0.053
-271.355	207.907	0.132	-0.204
-270.340	294.148	-0.122	0.220
-269.326	4.614	-0.226	-0.164
-268.311	-36.524	0.317	-0.169
-267.297	-200.000	-0.001	-0.260
-266.282	-118.927	0.143	-0.025
-265.267	800.000	0.046	-0.126
-264.253	800.000	-0.173	-0.532
-263.238	800.000	-0.056	0.215
-262.224	125.696	0.197	-0.246
-261.209	-99.233	-0.239	0.060
-260.195	-55.870	0.239	0.106
-259.180	32.964	0.288	0.246
-258.165	-200.000	0.003	0.198
-257.151	-44.819	-0.268	0.132
-256.136	-93.935	0.118	0.032
-255.122	-59.863	0.329	-0.139
-254.107	456.234	0.136	-0.298
-253.092	-200.000	-0.016	0.197
-252.078	292.888	-0.235	0.423
-251.063	-200.000	-0.048	-0.289
-250.049	25.264	-0.193	-0.159
-249.034	117.920	0.113	-0.137
-248.019	-200.000	0.053	-0.283
-247.005	-200.000	0.003	0.089
-245.990	-133.068	0.179	0.022
-244.976	-132.810	0.223	0.028
-243.961	-76.323	0.108	0.038
-242.946	800.000	0.025	0.101
-241.932	-200.000	0.044	-0.275
-240.917	30.329	0.136	-0.115
-239.903	21.620	0.194	-0.156
-238.888	-95.648	-0.381	-0.101
-237.873	-19.214	-0.255	0.156
-236.859	76.451	0.036	-0.038
-235.844	87.783	-0.087	-0.096
-234.830	-139.265	0.032	0.003
-233.815	-200.000	0.004	-0.043
-232.800	-77.363	0.249	-0.085
-231.786	-200.000	0.015	0.253
-230.771	77.864	0.055	-0.058
-229.757	668.559	0.022	0.055
-228.742	238.187	-0.105	-0.172
-227.727	-96.175	-0.184	0.048
-226.713	-2.274	0.284	0.197
-225.698	-200.000	-0.041	0.329
-224.684	800.000	0.107	0.457
-223.669	-101.677	0.082	-0.020
-222.655	132.352	-0.072	-0.092
-221.640	34.258	0.082	0.070
-220.625	800.000	-0.080	0.235
-219.611	117.001	0.054	0.066
-218.596	-155.817	0.302	-0.019
-217.582	-200.000	-0.048	0.256
-216.567	-200.000	-0.017	0.282
-215.552	407.121	-0.087	0.180
-214.538	-18.765	-0.184	-0.113
-213.523	358.766	-0.101	0.200
-212.509	800.000	0.014	0.047
-211.494	-89.595	0.010	0.003
-210.479	-74.193	0.174	-0.062
-209.465	746.881	0.131	0.348
-208.450	800.000	-0.053	-0.170
-207.436	800.000	-0.041	0.131
-206.421	472.510	-0.293	0.651
-205.406	-29.922	0.179	-0.101
-204.392	-200.000	-0.026	0.284
-203.377	800.000	0.124	0.366
-202.363	-120.364	-0.042	-0.007
-201.348	800.000	-0.149	0.410
-200.333	170.370	0.083	0.117
-199.319	-168.987	0.407	-0.015
-198.304	-200.000	-0.089	0.500
-197.290	404.962	-0.226	-0.470
-196.275	800.000	0.179	-0.574
-195.260	-20.723	-0.031	-0.019
-194.246	-22.429	-0.133	-0.079
-193.231	-126.303	0.334	0.049
-192.217	-189.924	-0.266	-0.003
-191.202	800.000	-0.026	-0.096
-190.187	-39.139	0.096	-0.050
-189.173	-200.000	-0.010	0.073
-188.158	-200.000	0.015	-0.197
-187.144	800.000	-0.051	0.216
-186.129	562.211	-0.039	0.092
-185.114	85.056	0.069	0.074
-184.100	20.884	0.101	0.081
-183.085	12.124	-0.413	-0.313
-182.071	366.445	0.071	-0.142
-181.056	-60.843	-0.258	-0.108
-180.042	156.479	0.147	0.200
-179.027	-94.198	0.234	0.063
-178.012	-200.000	-0.004	0.141
-176.998	1.831	-0.308	-0.219
-175.983	-26.575	0.259	-0.149
-174.969	3.003	-0.087	0.063
-173.954	269.887	-0.094	0.163
-172.939	-4.888	0.410	0.278
-171.925	156.391	0.095	-0.130
-170.910	-101.609	0.443	0.106
-169.896	163.945	0.146	0.203
-168.881	-200.000	-0.086	-0.403
-167.866	139.794	-0.026	-0.034
-166.852	-64.689	0.075	0.030
-165.837	-33.974	-0.025	0.014
-164.823	-200.000	0.018	-0.086
-163.808	112.001	0.102	-0.121
-162.793	-157.930	0.145	-0.008
-161.779	25.076	-0.042	0.034
-160.764	-118.308	0.152	0.027
-159.750	-40.368	0.402	-0.205
-158.735	-125.219	0.233	-0.035
-157.720	-34.160	0.113	0.061
-156.706	122.965	-0.177	0.218
-155.691	710.461	-0.164	0.427
-154.677	-79.427	0.059	0.020
-153.662	-94.779	0.143	0.038
-152.647	-63.649	-0.224	0.090
-151.633	244.572	0.046	-0.077
-150.618	293.551	0.136	0.244
-149.604	-200.000	-0.004	0.147
-148.589	-200.000	0.015	0.385
-147.574	-200.000	0.018	0.093
-146.560	-200.000	0.002	0.122
-145.545	-87.409	0.269	-0.080
-144.531	218.680	0.052	0.082
-143.516	19.924	0.219	0.173
-142.502	800.000	-0.112	-0.323
-141.487	-200.000	-0.005	0.371
-140.472	193.309	-0.040	0.060
-139.458	-34.169	0.169	0.092
-138.443	109.398	-0.068	0.080
-137.429	-53.253	-0.126	0.057
-136.414	62.524	-0.164	0.161
-135.399	255.573	0.084	-0.141
-134.385	49.251	-0.168	-0.156
-133.370	800.000	-0.117	-0.386
-132.356	-10.928	-0.355	-0.230
-131.341	43.040	0.076	-0.068
-130.326	-200.000	-0.060	-0.333
-129.312	-44.458	-0.045	0.022
-128.297	-3.651	0.189	-0.129
-127.283	-200.000	-0.068	0.427
-126.268	-122.756	0.303	-0.048
-125.253	-152.846	0.062	-0.004
-124.239	125.570	-0.086	-0.107
-123.224	254.604	0.061	-0.102
-122.210	-148.557	0.315	-0.025
-121.195	-200.000	-0.012	-0.113
-120.180	-135.838	0.328	0.038
-119.166	29.344	-0.067	0.056
-118.151	-200.000	-0.056	0.246
-117.137	139.477	-0.246	0.319
-116.122	-131.420	-0.144	0.019
-115.107	-30.420	-0.090	0.050
-114.093	69.520	0.143	0.144
-113.078	247.962	-0.160	-0.266
-112.064	229.546	0.197	-0.315
-111.049	154.065	0.108	0.145
-110.034	800.000	0.015	-0.056
-109.020	-185.536	-0.300	0.004
-108.005	-200.000	-0.053	-0.342
-106.991	556.181	0.051	-0.120
-105.976	-200.000	0.039	-0.331
-104.962	8.831	0.041	-0.030
-103.947	661.819	-0.066	-0.166
-102.932	169.563	0.211	0.295
-101.918	-104.755	0.109	0.025
-100.903	-110.264	-0.034	-0.007
-99.889	-111.549	0.189	-0.038
-98.874	112.156	0.099	-0.117
-97.859	10.841	0.192	-0.144
-96.845	342.946	0.051	-0.097
-95.830	-200.000	-0.040	-0.431
-94.816	-200.000	0.009	0.103
-93.801	-31.038	-0.099	-0.055
-92.786	139.256	-0.043	0.055
-91.772	-200.000	-0.018	0.376
-90.757	-77.282	0.253	-0.086
-89.743	800.000	-0.074	0.266
-88.728	75.299	-0.042	0.043
-87.713	417.399	-0.117	0.246
-86.699	12.486	0.316	-0.239
-85.684	800.000	-0.074	0.290
-84.670	20.529	-0.080	-0.064
-83.655	-188.888	-0.301	0.004
-82.640	-103.211	-0.277	-0.064
-81.626	137.264	0.081	-0.104
-80.611	-4.969	0.201	-0.136
-79.597	243.322	-0.131	-0.216
-78.582	-13.851	-0.100	-0.063
-77.567	226.253	0.026	0.041
-76.553	355.439	-0.172	0.336
-75.538	-200.000	0.017	-0.154
-74.524	-200.000	0.068	-0.339
-73.509	448.334	-0.090	0.194
-72.494	-200.000	-0.006	0.439
-71.480	420.155	-0.054	0.114
-70.465	56.913	0.286	-0.273
-69.451	-143.782	-0.152	-0.014
-68.436	-200.000	-0.071	-0.352
-67.422	194.384	-0.119	0.177
-66.407	-109.485	0.237	0.049
-65.392	-106.557	0.122	-0.027
-64.378	221.404	-0.127	0.199
-63.363	-200.000	-0.022	0.436
-62.349	-1.821	0.095	-0.065
-61.334	173.982	-0.790	-1.118
-60.319	95.047	0.556	0.620
-59.305	279.631	-0.581	-1.017
-58.290	182.669	0.946	1.367
-57.276	142.879	0.748	0.974
-56.261	-200.000	110.506	684.629
-55.246	506.102	1489.428	3382.887
-54.232	148.805	2660.035	3523.393
-53.217	111.764	2148.231	2540.907
-52.203	42.076	1605.047	1427.594
-51.188	33.515	1350.884	1149.826
-50.173	30.529	1310.499	1097.801
-49.159	60.586	1364.657	1324.359
-48.144	60.224	1379.894	1336.936
-47.130	33.672	1335.863	1137.805
-46.115	30.111	1318.074	1101.487
-45.100	29.931	1313.074	1096.202
-44.086	29.755	1311.077	1093.449
-43.071	29.758	1308.614	1091.369
-42.057	29.803	1306.648	1089.954
-41.042	29.732	1305.340	1088.400
-40.027	29.757	1303.843	1087.256
-39.013	29.843	1301.905	1086.104
-37.998	29.813	1300.329	1084.568
-36.984	29.905	1298.178	1083.268
-35.969	29.804	1296.236	1081.016
-34.954	29.941	1294.317	1080.174
-33.940	29.964	1293.597	1079.661
-32.925	30.064	1291.664	1078.589
-31.911	30.004	1290.863	1077.527
-30.896	29.959	1289.189	1075.828
-29.881	29.970	1288.080	1074.921
-28.867	29.957	1286.827	1073.759
-27.852	30.018	1285.228	1072.731
-26.838	30.058	1283.496	1071.475
-25.823	29.982	1282.331	1070.021
-24.809	29.928	1280.914	1068.488
-23.794	29.946	1279.665	1067.506
-22.779	29.967	1278.553	1066.655
-21.765	29.969	1276.993	1065.324
-20.750	29.822	1276.088	1063.683
-19.736	29.949	1274.413	1062.971
-18.721	29.922	1273.194	1061.759
-17.706	29.950	1272.001	1060.885
-16.692	29.853	1270.859	1059.335
-15.677	29.937	1270.061	1059.109
-14.663	29.804	1268.987	1057.410
-13.648	29.828	1267.772	1056.489
-12.633	29.850	1266.883	1055.832
-11.619	29.783	1266.398	1055.007
-10.604	29.844	1265.298	1054.396
-9.590	29.960	1263.989	1053.924
-8.575	29.800	1263.461	1052.527
-7.560	29.861	1262.451	1051.996
-6.546	29.967	1261.239	1051.546
-5.531	29.818	1260.746	1050.247
-4.517	29.775	1260.153	1049.468
-3.502	29.794	1259.438	1048.934
-2.487	29.808	1258.257	1047.987
-1.473	29.676	1253.521	1043.258
-0.458	27.362	1236.966	1016.534
0.556	21.618	1218.226	968.775
1.571	16.702	1222.631	944.826
2.586	15.338	1236.359	947.647
3.600	14.890	1225.010	936.360
4.615	11.202	1154.758	863.078
5.629	4.367	1081.616	774.336
6.644	1.103	1063.136	745.014
7.659	0.750	1060.968	741.695
8.673	0.808	1059.795	741.092
9.688	0.800	1058.996	740.431
10.702	0.936	1056.872	739.544
11.717	4.866	1061.609	762.050
12.731	12.032	1070.981	803.971
13.746	16.633	1075.889	830.202
14.761	17.458	1077.034	835.062
15.775	16.761	1075.173	830.132
16.790	15.831	1073.011	823.838
17.804	15.005	1071.991	818.941
18.819	14.566	1070.889	815.881
19.834	14.477	1068.947	813.894
20.848	14.208	1068.454	812.134
21.863	13.951	1067.769	810.287
22.877	13.702	1067.391	808.716
23.892	13.813	1066.144	808.240
24.907	13.723	1065.621	807.334
25.921	13.703	1064.932	806.643
26.936	13.758	1064.482	806.500
27.950	13.832	1062.977	805.645
28.965	13.905	1061.524	804.826
29.980	13.892	1060.181	803.673
30.994	14.017	1059.318	803.555
32.009	13.918	1058.640	802.490
33.023	13.939	1057.462	801.628
34.038	13.976	1056.521	801.021
35.053	13.890	1055.880	800.053
36.067	13.853	1055.010	799.142
37.082	13.968	1053.984	798.847
38.096	13.980	1053.095	798.164
39.111	14.005	1052.380	797.669
40.126	13.760	1051.690	795.901
41.140	13.829	1049.799	794.727
42.155	13.704	1049.339	793.714
43.169	13.780	1048.037	793.019
44.184	13.670	1046.832	791.511
45.199	13.643	1046.078	790.744
46.213	13.879	1044.563	790.651
47.228	13.792	1043.789	789.583
48.242	13.744	1042.598	788.384
49.257	13.744	1041.678	787.618
50.271	13.809	1040.843	787.229
51.286	13.963	1039.801	787.101
52.301	13.891	1038.438	785.658
53.315	13.747	1037.953	784.538
54.330	13.722	1037.428	783.956
55.344	13.802	1036.067	783.233
56.359	13.780	1035.381	782.544
57.374	13.776	1034.572	781.841
58.388	13.687	1033.692	780.691
59.403	13.808	1032.785	780.503
60.417	13.833	1031.799	779.810
61.432	13.752	1031.010	778.761
62.447	13.774	1030.273	778.242
63.461	13.571	1029.778	776.844
64.476	13.761	1028.458	776.673
65.490	13.784	1027.307	775.838
66.505	13.763	1027.008	775.446
67.520	13.714	1026.341	774.645
68.534	13.729	1026.042	774.421
69.549	13.680	1025.011	773.346
70.563	13.728	1023.821	772.606
71.578	13.635	1023.265	771.684
72.593	13.612	1022.615	771.017
73.607	13.524	1022.546	770.491
74.622	13.658	1021.130	769.976
75.636	13.631	1020.521	769.322
76.651	13.711	1019.687	769.000
77.666	13.572	1019.118	767.858
78.680	13.518	1018.593	767.143
79.695	13.663	1017.814	767.158
80.709	13.705	1017.041	766.704
81.724	13.662	1016.629	766.125
82.739	13.784	1015.818	766.010
83.753	13.801	1015.449	765.745
84.768	13.882	1013.711	764.736
85.782	13.797	1013.381	764.027
86.797	13.837	1012.617	763.570
87.812	13.759	1011.424	762.245
88.826	13.793	1010.289	761.476
89.841	13.914	1009.332	761.244
90.855	13.961	1007.889	760.304
91.870	13.880	1007.907	759.880
92.884	13.850	1006.845	758.872
93.899	14.095	1005.498	758.912
94.914	14.031	1005.271	758.378
95.928	14.088	1004.303	757.843
96.943	13.801	1003.910	756.172
97.957	13.998	1002.576	755.995
98.972	14.166	1001.201	755.653
99.987	14.055	1001.113	755.018
101.001	13.805	1000.077	753.032
102.016	13.846	999.159	752.463
103.030	13.920	998.478	752.220
104.045	13.983	997.774	751.907
105.060	13.957	996.885	751.050
106.074	13.822	996.233	749.884
107.089	13.788	994.725	748.528
108.103	13.823	993.962	748.049
109.118	13.791	992.852	747.002
110.133	13.799	992.183	746.468
111.147	13.828	991.398	745.944
112.162	13.747	990.737	745.017
113.176	13.806	989.895	744.579
114.191	14.019	988.850	744.683
115.206	13.873	988.231	743.500
116.220	13.915	987.486	743.060
117.235	13.907	986.138	741.945
118.249	13.793	985.758	741.084
119.264	13.879	984.648	740.568
120.279	13.857	984.256	740.108
121.293	13.782	983.467	739.115
122.308	13.819	982.385	738.401
123.322	13.837	981.329	737.623
124.337	13.844	980.379	736.872
125.352	13.807	979.506	735.986
126.366	13.822	978.246	735.044
127.381	13.850	977.269	734.369
128.395	13.840	976.240	733.483
129.410	13.819	975.556	732.811
130.424	13.999	974.242	732.556
131.439	13.894	973.491	731.462
132.454	13.923	973.164	731.283
133.468	13.837	972.417	730.276
134.483	13.870	971.262	729.490
135.497	13.948	970.156	728.935
136.512	13.954	969.560	728.448
137.527	13.871	968.731	727.398
138.541	13.865	967.779	726.593
139.556	13.897	967.150	726.195
140.570	13.956	966.250	725.714
141.585	14.044	965.260	725.292
142.600	13.943	964.180	723.976
143.614	14.026	963.791	723.980
144.629	14.069	962.755	723.327
145.643	14.031	962.209	722.687
146.658	14.094	960.769	721.816
147.673	13.997	959.962	720.722
148.687	13.975	959.212	720.003
149.702	14.039	958.590	719.750
150.716	13.943	957.829	718.699
151.731	14.007	957.189	718.431
152.746	14.170	955.835	718.052
153.760	14.148	955.752	717.833
154.775	13.955	955.217	716.535
155.789	14.055	954.607	716.444
156.804	14.067	953.933	715.929
157.819	14.131	952.974	715.419
158.833	14.213	952.722	715.521
159.848	14.182	951.772	714.611
160.862	14.286	950.523	714.054
161.877	14.104	949.614	712.531
162.892	14.178	948.660	712.070
163.906	14.143	947.965	711.335
164.921	14.063	947.077	710.264
165.935	14.097	946.266	709.738
166.950	14.111	945.656	709.275
167.964	14.222	944.605	708.896
168.979	14.147	944.042	708.093
169.994	14.124	943.375	707.433
171.008	14.112	942.569	706.712
172.023	14.267	941.777	706.715
173.037	14.340	941.071	706.434
174.052	14.185	940.599	705.360
175.067	14.306	939.491	704.980
176.081	14.192	939.353	704.329
177.096	14.328	938.449	704.163
178.110	14.163	938.102	703.147
179.125	14.247	937.431	702.934
180.140	14.369	936.942	703.022
181.154	14.368	936.481	702.607
182.169	14.385	935.812	702.116
183.183	14.541	934.620	701.817
184.198	14.467	934.367	701.254
185.213	14.393	933.875	700.512
186.227	14.478	932.815	700.007
187.242	14.514	932.627	699.958
188.256	14.432	932.350	699.343
189.271	14.533	930.712	698.477
190.286	14.364	930.748	697.734
191.300	14.403	929.976	697.256
192.315	14.290	929.054	696.033
193.329	14.313	929.134	696.125
194.344	14.557	927.704	696.011
195.359	14.577	927.274	695.709
196.373	14.336	927.038	694.468
197.388	14.531	926.569	694.866
198.402	14.671	925.598	694.657
199.417	14.544	925.448	693.959
200.432	14.652	924.610	693.716
201.446	14.737	923.976	693.532
202.461	14.774	923.615	693.353
203.475	14.710	922.923	692.508
204.490	14.769	922.082	692.058
205.504	14.643	921.606	691.119
206.519	14.783	920.839	691.061
207.534	14.713	920.193	690.227
208.548	14.653	919.507	689.404
209.563	14.817	918.641	689.368
210.577	14.675	918.128	688.337
211.592	14.818	917.551	688.435
212.607	14.876	916.601	687.900
213.621	14.848	915.735	687.072
214.636	14.671	915.415	686.043
215.650	14.874	914.548	686.167
216.665	14.970	913.899	686.014
217.680	14.939	913.131	685.250
218.694	14.960	912.210	684.584
219.709	14.999	911.813	684.384
220.723	15.046	911.028	683.928
221.738	14.971	910.475	683.144
222.753	14.945	909.677	682.377
223.767	15.022	908.793	681.972
224.782	14.963	908.597	681.522
225.796	15.035	908.598	681.757
226.811	15.034	907.406	680.796
227.826	15.043	906.819	680.333
228.840	14.996	906.128	679.562
229.855	15.172	905.002	679.373
230.869	14.992	904.421	678.147
231.884	15.033	903.789	677.778
232.899	15.121	902.868	677.385
233.913	15.031	902.554	676.727
234.928	15.022	901.775	676.044
235.942	15.091	901.192	675.825
236.957	15.003	900.817	675.128
237.972	15.063	899.877	674.609
238.986	15.006	899.479	674.019
240.001	15.039	898.809	673.590
241.015	15.154	897.854	673.280
242.030	15.236	897.086	672.974
243.045	15.271	896.407	672.542
244.059	15.075	896.631	671.863
245.074	15.211	895.477	671.485
246.088	15.274	894.776	671.153
247.103	15.235	894.421	670.674
248.117	15.307	893.873	670.491
249.132	15.414	893.288	670.421
250.147	15.360	892.653	669.667
251.161	15.287	892.110	668.909
252.176	15.303	891.063	668.131
253.190	15.331	890.689	667.899
254.205	15.461	890.056	667.884
255.220	15.607	889.235	667.792
256.234	15.498	888.513	666.756
257.249	15.527	888.138	666.530
258.263	15.432	887.332	665.488
259.278	15.597	886.366	665.359
260.293	15.479	885.944	664.519
261.307	15.589	885.762	664.759
262.322	15.663	885.099	664.492
263.336	15.636	884.169	663.631
264.351	15.816	883.185	663.541
265.366	15.837	882.525	663.069
266.380	15.756	882.169	662.425
267.395	15.653	881.422	661.401
268.409	15.674	880.700	660.885
269.424	15.728	879.928	660.457
270.439	15.688	879.226	659.714
271.453	15.744	878.434	659.282
272.468	15.808	878.276	659.355
273.482	15.681	877.900	658.516
274.497	15.763	876.797	657.952
275.512	15.678	876.551	657.377
276.526	15.898	875.622	657.481
277.541	15.880	875.119	656.976
278.555	16.017	874.282	656.822
279.570	15.866	873.726	655.761
280.585	15.977	872.885	655.501
281.599	15.885	872.525	654.817
282.614	15.870	871.664	654.054
283.628	15.858	871.165	653.575
284.643	16.040	870.436	653.675
285.657	16.091	870.079	653.548
286.672	15.852	869.542	652.161
287.687	16.010	868.807	652.164
288.701	15.963	868.418	651.631
289.716	16.115	867.320	651.337
290.730	16.036	866.716	650.521
291.745	16.186	866.370	650.784
292.760	16.128	865.652	649.962
293.774	16.162	864.953	649.509
294.789	16.243	864.201	649.201
295.803	16.236	863.847	648.852
296.818	16.157	862.872	647.756
297.833	16.182	862.731	647.691
298.847	16.026	861.837	646.365
299.862	16.229	861.243	646.638
300.876	16.232	860.453	645.999
301.891	16.293	859.921	645.775
302.906	16.298	859.571	645.474
303.920	16.332	859.002	645.120
304.935	16.420	858.084	644.710
305.949	16.336	857.585	643.956
306.964	16.266	857.380	643.480
307.979	16.250	856.658	642.820
308.993	16.349	855.892	642.564
310.008	16.471	855.283	642.514
311.022	16.579	854.499	642.279
312.037	16.387	854.004	641.122
313.052	16.478	853.755	641.225
314.066	16.428	853.341	640.666
315.081	16.444	852.505	640.040
316.095	16.380	851.685	639.128
317.110	16.464	851.373	639.153
318.125	16.352	850.826	638.263
319.139	16.382	850.368	637.977
320.154	16.557	849.784	638.142
321.168	16.525	849.486	637.742
322.183	16.534	848.751	637.168
323.197	16.584	848.176	636.868
324.212	16.591	847.645	636.438
325.227	16.568	847.134	635.913
326.241	16.427	846.553	634.891
327.256	16.459	846.303	634.766
328.270	16.477	845.688	634.317
329.285	16.523	845.034	633.944
330.300	16.603	844.204	633.566
331.314	16.615	843.476	633.006
332.329	16.688	843.404	633.168
333.343	16.625	843.189	632.715
334.358	16.635	842.288	632.022
335.373	16.702	842.135	632.101
336.387	16.662	842.271	631.997
337.402	16.632	841.476	631.233
338.416	16.608	841.277	630.939
339.431	16.837	840.438	631.108
340.446	16.807	840.235	630.786
341.460	16.792	839.669	630.252
342.475	16.871	839.519	630.374
343.489	16.940	838.894	630.108
344.504	16.926	838.341	629.583
345.519	16.910	837.855	629.103
346.533	16.939	837.195	628.659
347.548	16.924	836.917	628.339
348.562	16.933	836.175	627.760
349.577	17.078	835.546	627.771
350.592	16.929	834.975	626.734
351.606	16.918	834.300	626.130
352.621	16.816	833.951	625.438
353.635	16.940	833.166	625.252
354.650	16.844	832.673	624.473
355.665	17.034	831.949	624.571
356.679	17.020	831.171	623.881
357.694	16.993	830.705	623.377
358.708	17.024	830.250	623.095
359.723	17.099	829.695	622.899
360.738	17.161	828.787	622.389
361.752	16.828	828.860	621.169
362.767	17.183	827.824	621.636
363.781	17.178	827.519	621.334
364.796	17.304	826.563	621.020
365.810	17.337	826.493	621.034
366.825	17.334	825.821	620.464
367.840	17.472	825.455	620.637
368.854	17.275	825.307	619.753
369.869	17.246	825.215	619.522
370.883	17.212	824.602	618.882
371.898	17.379	824.127	619.079
372.913	17.320	823.399	618.264
373.927	17.472	822.610	618.170
374.942	17.384	822.596	617.786
375.956	17.373	822.353	617.508
376.971	17.487	821.699	617.376
377.986	17.557	821.466	617.398
379.000	17.522	820.670	616.620
380.015	17.601	820.252	616.538
381.029	17.583	819.402	615.780
382.044	17.526	818.972	615.196
383.059	17.525	818.347	614.668
384.073	17.650	817.965	614.779
385.088	17.626	817.552	614.326
386.102	17.559	816.821	613.481
387.117	17.590	816.295	613.144
388.132	17.642	815.572	612.731
389.146	17.636	815.264	612.427
390.161	17.721	814.358	611.996
391.175	17.654	814.320	611.673
392.190	17.648	813.716	611.142
393.205	17.668	813.039	610.653
394.219	17.624	812.919	610.352
395.234	17.666	812.672	610.260
396.248	17.597	812.200	609.606
397.263	17.774	811.683	609.798
398.278	17.540	811.702	608.920
399.292	17.756	810.958	609.081
400.307	17.765	810.082	608.402
401.321	17.613	809.796	607.589
402.336	17.718	809.305	607.540
403.350	17.642	809.098	607.062
404.365	17.867	808.469	607.338
405.380	17.849	807.826	606.737
406.394	17.660	807.825	606.009
407.409	17.919	807.252	606.447
408.423	18.039	806.752	606.442
409.438	18.026	806.174	605.908
410.453	18.058	805.902	605.764
411.467	17.985	805.433	605.098
412.482	17.957	805.154	604.736
413.496	18.178	804.624	605.068
414.511	18.103	804.167	604.404
415.526	18.045	804.037	604.050
416.540	18.060	803.387	603.561
417.555	18.119	802.837	603.302
418.569	18.180	802.299	603.060
419.584	18.061	802.277	602.570
420.599	18.124	801.242	601.962
421.613	112.599	1293.994	1475.377
422.628	97.106	1365.776	1475.484
