DTS Sentinel unit serial number:	SN413079Multiplexer serial number:	ORYXHardware model number:	OX4-SRSoftware version number:	ORYX F/W v4.00 Oryx Data Collector v3.7.2.0data status	okinstallation	princeton_trtdifferential loss correction	single-endedforward channel	channel 1reverse channel	N/Adate	2019/09/16time	05:46:35forward acquisition time	60.00reverse acquisition time	0.00gamma	496.2192k internal	0.2331k external	0.2331temperature offset calibration	0.9982default loss term (dB/km)	0.3790temperature slope calibration	1.0000multiplexer offset coefficient	1.0000multiplexer slope coefficient	1.0000fibre end	0.00T internal ref (°C)	27.37T ext. ref 1 (°C)	11.19T ext. ref 2 (°C)	22.21length (m)	temperature (°C)	Stokes	anti-Stokes-747.200	-200.000	0.009	0.063
-746.185	122.945	-0.101	0.128
-745.171	554.979	0.079	-0.192
-744.156	-117.203	-0.157	-0.029
-743.142	276.801	-0.072	-0.129
-742.127	-200.000	-0.032	0.410
-741.112	800.000	-0.045	0.166
-740.098	655.419	0.201	0.518
-739.083	636.042	-0.079	0.201
-738.069	-200.000	-0.056	0.345
-737.054	800.000	0.121	-0.408
-736.039	1.349	0.242	-0.175
-735.025	511.343	0.111	-0.260
-734.010	43.158	0.186	-0.171
-732.996	800.000	-0.080	-0.274
-731.981	-96.873	-0.072	-0.019
-730.966	-124.724	-0.071	-0.011
-729.952	-43.152	0.156	0.080
-728.937	15.527	-0.121	-0.096
-727.923	800.000	-0.042	-0.155
-726.908	-200.000	-0.020	0.381
-725.894	294.244	0.113	0.208
-724.879	307.938	-0.145	-0.272
-723.864	23.372	0.127	0.105
-722.850	-63.649	-0.556	-0.230
-721.835	79.546	0.115	-0.125
-720.821	166.889	0.101	0.145
-719.806	-57.512	-0.223	0.098
-718.791	287.742	-0.077	-0.140
-717.777	-105.249	0.080	0.018
-716.762	-56.156	-0.326	-0.146
-715.748	-178.744	0.380	-0.009
-714.733	4.688	0.152	0.112
-713.718	-65.946	-0.116	-0.047
-712.704	397.025	-0.084	0.176
-711.689	-26.530	0.215	-0.127
-710.675	-20.392	-0.366	0.226
-709.660	-50.082	-0.153	-0.073
-708.645	-104.324	0.453	-0.106
-707.631	76.279	-0.065	-0.069
-706.616	5.249	-0.283	0.210
-705.602	775.430	0.091	-0.250
-704.587	-200.000	-0.001	0.097
-703.572	493.652	0.040	-0.093
-702.558	173.653	0.090	-0.130
-701.543	-72.683	0.255	-0.094
-700.529	32.482	-0.275	0.239
-699.514	-188.938	0.150	0.002
-698.499	20.464	0.270	-0.220
-697.485	-150.262	-0.267	0.021
-696.470	27.748	-0.043	-0.037
-695.456	-57.247	0.139	-0.062
-694.441	-126.580	-0.070	0.010
-693.426	-200.000	0.027	0.256
-692.412	-200.000	0.042	0.503
-691.397	773.156	0.073	0.199
-690.383	4.969	0.273	0.202
-689.368	800.000	0.050	-0.186
-688.354	-103.429	0.256	-0.061
-687.339	47.857	-0.121	0.113
-686.324	166.085	0.061	-0.087
-685.310	238.841	0.127	-0.212
-684.295	475.515	-0.093	-0.210
-683.281	-171.542	0.233	0.008
-682.266	459.151	0.040	0.089
-681.251	-27.403	-0.162	0.094
-680.237	-200.000	-0.038	-0.601
-679.222	8.245	-0.237	0.179
-678.208	169.999	-0.138	-0.198
-677.193	231.936	-0.050	-0.082
-676.178	-17.706	0.178	0.113
-675.164	800.000	0.095	0.350
-674.149	571.335	-0.078	-0.192
-673.135	-200.000	0.004	0.064
-672.120	561.419	-0.027	0.067
-671.105	-58.739	0.150	0.065
-670.091	-200.000	-0.043	-0.260
-669.076	-161.386	-0.447	0.023
-668.062	180.026	0.080	-0.118
-667.047	-158.867	-0.192	-0.011
-666.032	53.857	-0.161	-0.156
-665.018	133.904	0.083	-0.107
-664.003	86.027	0.084	0.093
-662.989	-162.574	-0.109	0.005
-661.974	-86.729	0.148	-0.046
-660.959	-200.000	0.034	-0.362
-659.945	-36.782	-0.217	-0.117
-658.930	321.031	-0.126	0.240
-657.916	-119.632	0.071	0.012
-656.901	-129.543	-0.250	0.035
-655.886	-200.000	0.018	0.254
-654.872	-91.534	-0.268	0.077
-653.857	-52.150	-0.095	0.044
-652.843	-2.384	-0.154	0.108
-651.828	92.152	-0.100	-0.113
-650.814	-73.805	0.074	-0.027
-649.799	-55.572	0.246	0.111
-648.784	43.801	0.360	-0.331
-647.770	-61.117	0.103	0.044
-646.755	-80.358	0.349	0.117
-645.741	-200.000	-0.007	-0.117
-644.726	-85.263	-0.174	0.055
-643.711	205.741	-0.089	0.139
-642.697	800.000	0.011	-0.033
-641.682	-44.556	-0.187	0.094
-640.668	-200.000	-0.018	0.245
-639.653	88.686	0.099	0.110
-638.638	-200.000	0.067	-0.363
-637.624	-200.000	-0.012	-0.417
-636.609	-142.015	0.134	-0.013
-635.595	-200.000	-0.005	-0.250
-634.580	310.867	-0.178	0.335
-633.565	-59.643	-0.089	0.038
-632.551	60.240	-0.326	0.323
-631.536	-112.638	0.391	0.078
-630.522	63.915	0.080	0.080
-629.507	68.654	0.342	-0.351
-628.492	-128.865	0.342	0.048
-627.478	224.164	-0.107	-0.173
-626.463	9.005	0.275	-0.208
-625.449	-133.810	0.158	-0.020
-624.434	800.000	0.053	-0.168
-623.419	81.900	-0.149	-0.161
-622.405	346.985	0.052	-0.103
-621.390	-200.000	0.003	0.099
-620.376	341.708	-0.032	0.063
-619.361	16.244	-0.135	0.107
-618.346	-105.672	-0.349	0.079
-617.332	54.414	0.036	-0.035
-616.317	-25.555	0.066	-0.039
-615.303	-82.855	0.461	-0.149
-614.288	-98.941	0.288	0.073
-613.273	-200.000	-0.001	-0.162
-612.259	174.298	-0.025	0.036
-611.244	123.558	-0.076	-0.095
-610.230	-200.000	-0.095	-0.430
-609.215	238.413	-0.062	-0.103
-608.201	37.804	-0.057	0.051
-607.186	-81.773	-0.208	0.068
-606.171	-38.998	-0.248	0.131
-605.157	300.650	-0.104	-0.192
-604.142	-23.679	-0.044	0.027
-603.128	-6.410	0.014	-0.010
-602.113	44.496	-0.228	0.210
-601.098	238.859	0.108	-0.179
-600.084	-102.383	0.401	-0.096
-599.069	88.476	0.073	0.081
-598.055	-117.120	-0.231	0.042
-597.040	-124.316	-0.360	-0.056
-596.025	-75.056	-0.135	-0.048
-595.011	218.778	0.122	0.196
-593.996	496.412	0.138	-0.317
-592.982	-27.832	0.042	-0.024
-591.967	319.522	-0.089	0.169
-590.952	-137.136	0.478	0.055
-589.938	-14.558	0.260	-0.167
-588.923	53.216	-0.232	-0.222
-587.909	124.326	0.031	-0.039
-586.894	800.000	0.053	0.170
-585.879	-171.675	-0.314	-0.010
-584.865	-87.675	0.232	-0.070
-583.850	-44.735	0.157	-0.078
-582.836	800.000	-0.112	0.355
-581.821	-200.000	0.000	0.034
-580.806	-164.669	0.274	0.012
-579.792	82.406	-0.217	0.236
-578.777	115.003	0.206	-0.251
-577.763	148.573	-0.208	-0.282
-576.748	84.384	-0.155	0.169
-575.733	135.323	0.046	-0.060
-574.719	-200.000	0.018	0.264
-573.704	-200.000	0.018	0.189
-572.690	-134.460	0.168	0.021
-571.675	-133.418	-0.125	-0.016
-570.661	378.759	-0.143	-0.292
-569.646	-85.437	0.156	-0.049
-568.631	-200.000	0.012	0.087
-567.617	-200.000	0.008	-0.074
-566.602	-3.730	0.085	-0.059
-565.588	123.803	-0.271	0.339
-564.573	162.944	0.209	-0.293
-563.558	227.812	0.117	-0.190
-562.544	-21.543	-0.058	0.036
-561.529	-50.192	-0.165	0.078
-560.515	-200.000	-0.019	-0.084
-559.500	39.140	0.248	-0.222
-558.485	396.765	-0.068	0.141
-557.471	482.396	-0.113	0.256
-556.456	26.384	-0.179	-0.150
-555.442	537.557	-0.182	-0.431
-554.427	20.512	-0.085	0.068
-553.412	182.471	-0.180	0.266
-552.398	10.688	-0.221	0.168
-551.383	-200.000	0.002	0.053
-550.369	800.000	0.044	-0.158
-549.354	-58.931	-0.073	0.032
-548.339	800.000	-0.062	0.221
-547.325	-69.820	-0.103	0.039
-546.310	-134.651	-0.201	0.024
-545.296	-200.000	-0.008	-0.140
-544.281	-158.500	0.123	-0.007
-543.266	578.896	-0.066	-0.161
-542.252	-118.240	-0.186	-0.033
-541.237	-142.020	-0.142	0.014
-540.223	481.328	-0.120	-0.272
-539.208	-200.000	0.011	0.243
-538.193	-61.888	0.255	-0.107
-537.179	-20.838	0.082	0.050
-536.164	-200.000	0.005	-0.207
-535.150	-200.000	-0.009	0.075
-534.135	-21.593	-0.203	0.123
-533.121	54.421	0.195	-0.188
-532.106	176.165	-0.049	0.072
-531.091	-200.000	0.061	0.294
-530.077	131.545	-0.139	0.179
-529.062	441.619	-0.142	-0.309
-528.048	156.607	-0.019	0.026
-527.033	-168.919	-0.120	0.004
-526.018	800.000	-0.074	0.259
-525.004	800.000	-0.116	0.367
-523.989	800.000	-0.087	0.249
-522.975	-142.224	-0.127	0.013
-521.960	-188.532	0.248	-0.003
-520.945	192.398	-0.072	-0.108
-519.931	800.000	-0.039	-0.159
-518.916	-200.000	0.055	-0.335
-517.902	-200.000	0.040	0.235
-516.887	624.137	-0.074	0.185
-515.872	-38.059	0.237	-0.126
-514.858	-200.000	0.018	0.195
-513.843	-129.350	0.151	0.021
-512.829	84.058	-0.199	0.216
-511.814	-200.000	-0.024	-0.162
-510.799	-94.220	0.161	0.044
-509.785	-123.662	-0.253	0.040
-508.770	-78.737	0.162	-0.055
-507.756	-68.526	-0.117	0.045
-506.741	-171.134	0.235	0.008
-505.726	-135.441	-0.219	-0.026
-504.712	-200.000	0.040	0.251
-503.697	23.695	-0.122	-0.100
-502.683	-177.788	0.364	-0.009
-501.668	84.042	0.119	0.129
-500.653	-38.922	-0.124	0.065
-499.639	15.961	0.221	0.174
-498.624	-200.000	-0.016	0.107
-497.610	-159.910	-0.105	-0.006
-496.595	-54.033	-0.058	-0.026
-495.581	307.619	0.125	-0.232
-494.566	-88.530	0.186	-0.055
-493.551	-49.438	0.359	-0.171
-492.537	365.690	-0.079	-0.160
-491.522	800.000	0.055	0.171
-490.508	349.555	-0.066	0.129
-489.493	800.000	-0.020	-0.073
-488.478	-166.463	0.026	0.001
-487.464	522.292	-0.155	-0.364
-486.449	97.459	-0.070	-0.080
-485.435	-39.761	0.316	0.164
-484.420	-116.634	-0.314	0.058
-483.405	-94.208	0.050	-0.014
-482.391	536.021	0.058	-0.137
-481.376	47.520	-0.201	0.187
-480.362	284.582	-0.151	0.270
-479.347	36.789	-0.127	0.112
-478.332	90.395	-0.011	-0.012
-477.318	162.599	0.120	0.168
-476.303	-87.522	-0.074	0.022
-475.289	-200.000	-0.050	-0.271
-474.274	352.118	-0.081	-0.160
-473.259	263.617	-0.084	-0.145
-472.245	155.252	-0.166	-0.228
-471.230	-17.156	-0.129	-0.081
-470.216	-115.486	-0.352	0.066
-469.201	-117.119	0.284	0.051
-468.186	-153.015	-0.486	0.034
-467.172	-144.847	0.061	-0.006
-466.157	-70.538	-0.285	-0.107
-465.143	800.000	0.080	-0.228
-464.128	-95.293	-0.235	0.063
-463.113	86.885	-0.105	-0.115
-462.099	-200.000	0.022	-0.191
-461.084	800.000	-0.134	-0.388
-460.070	-13.115	0.234	-0.152
-459.055	0.510	0.237	-0.168
-458.040	-22.043	0.260	-0.157
-457.026	499.349	-0.085	-0.194
-456.011	800.000	0.046	-0.190
-454.997	-200.000	0.120	-0.000
-453.982	101.082	-0.163	-0.189
-452.968	-200.000	0.004	0.216
-451.953	-48.694	0.289	0.138
-450.938	-85.157	0.283	-0.088
-449.924	116.539	0.142	0.173
-448.909	104.312	0.137	0.161
-447.895	114.963	-0.097	-0.117
-446.880	-129.428	0.229	0.032
-445.865	-145.461	-0.142	0.013
-444.851	800.000	-0.041	-0.165
-443.836	33.235	-0.097	-0.084
-442.822	-83.466	-0.394	-0.126
-441.807	-111.233	0.235	0.048
-440.792	800.000	-0.028	-0.117
-439.778	322.096	0.080	0.151
-438.763	-62.454	-0.362	0.150
-437.749	508.237	-0.133	0.306
-436.734	-200.000	0.048	-0.358
-435.719	-27.439	-0.238	-0.138
-434.705	-72.127	-0.336	-0.124
-433.690	60.344	-0.106	0.104
-432.676	-117.919	0.092	-0.016
-431.661	-102.462	-0.247	0.059
-430.646	313.850	0.094	-0.176
-429.632	-139.505	-0.284	0.030
-428.617	-56.806	-0.116	-0.051
-427.603	800.000	0.143	-0.505
-426.588	43.951	0.204	-0.186
-425.573	196.307	0.091	0.137
-424.559	5.685	0.068	-0.050
-423.544	730.245	-0.095	0.253
-422.530	349.045	0.108	-0.211
-421.515	-143.896	0.220	-0.021
-420.500	406.188	0.044	-0.093
-419.486	708.321	0.069	0.180
-418.471	-0.491	0.097	0.069
-417.457	92.298	0.260	0.291
-416.442	-84.885	0.254	-0.079
-415.428	-200.000	-0.025	-0.214
-414.413	-200.000	0.033	0.168
-413.398	-200.000	0.073	-0.370
-412.384	-68.864	-0.245	-0.094
-411.369	237.879	-0.109	-0.179
-410.355	731.805	0.093	-0.247
-409.340	346.889	0.086	-0.168
-408.325	-70.840	-0.028	-0.011
-407.311	296.848	0.135	-0.247
-406.296	481.433	0.101	0.227
-405.282	-139.486	-0.070	0.007
-404.267	-20.176	0.212	0.130
-403.252	-200.000	0.020	0.187
-402.238	686.255	-0.037	0.096
-401.223	196.188	0.119	-0.179
-400.209	2.989	0.107	0.077
-399.194	682.559	0.061	0.158
-398.179	288.468	0.111	0.200
-397.165	55.205	0.126	0.121
-396.150	16.847	-0.246	-0.194
-395.136	69.048	-0.103	-0.105
-394.121	129.935	-0.241	0.306
-393.106	800.000	-0.043	0.159
-392.092	29.011	0.106	0.089
-391.077	323.669	-0.088	0.167
-390.063	-103.078	0.187	0.044
-389.048	494.445	-0.142	0.323
-388.033	-72.096	-0.198	0.073
-387.019	-0.416	0.202	-0.143
-386.004	273.477	-0.117	-0.205
-384.990	-130.444	-0.287	0.039
-383.975	9.611	0.009	0.007
-382.960	173.503	0.065	-0.092
-381.946	800.000	0.054	0.234
-380.931	-155.277	-0.062	-0.004
-379.917	113.983	-0.130	0.157
-378.902	800.000	-0.098	-0.346
-377.888	-200.000	-0.004	-0.160
-376.873	68.465	0.187	-0.190
-375.858	-110.449	-0.095	0.020
-374.844	-31.133	-0.223	-0.124
-373.829	-108.202	0.098	-0.021
-372.815	-200.000	0.015	0.096
-371.800	-9.995	-0.065	-0.043
-370.785	525.249	-0.140	0.328
-369.771	764.098	0.061	0.164
-368.756	800.000	-0.032	0.110
-367.742	800.000	0.026	0.092
-366.727	-80.432	0.348	0.115
-365.712	556.825	-0.097	-0.232
-364.698	-200.000	-0.026	0.129
-363.683	485.849	-0.073	-0.166
-362.669	-114.120	-0.328	0.063
-361.654	-92.385	0.114	-0.032
-360.639	-148.959	-0.119	0.010
-359.625	-200.000	0.009	-0.151
-358.610	-25.618	0.265	-0.155
-357.596	411.162	-0.035	-0.073
-356.581	31.144	0.188	0.160
-355.566	74.363	-0.271	-0.283
-354.552	-200.000	-0.064	0.354
-353.537	24.810	-0.122	0.100
-352.523	-143.427	0.265	0.025
-351.508	13.043	-0.067	-0.051
-350.493	-200.000	-0.015	-0.256
-349.479	-88.407	0.241	-0.071
-348.464	800.000	-0.012	0.036
-347.450	-79.057	-0.259	0.087
-346.435	-67.678	0.115	0.045
-345.420	663.524	-0.165	-0.421
-344.406	296.304	-0.104	0.188
-343.391	643.637	0.020	-0.050
-342.377	-66.771	-0.194	-0.076
-341.362	-99.261	0.105	-0.026
-340.348	61.298	0.140	-0.137
-339.333	418.182	-0.108	-0.228
-338.318	19.258	0.257	-0.204
-337.304	-13.364	0.184	-0.119
-336.289	-65.399	0.186	-0.074
-335.275	-72.416	-0.081	0.030
-334.260	-48.100	0.110	-0.053
-333.245	800.000	-0.042	-0.168
-332.231	-200.000	-0.039	-0.320
-331.216	250.231	-0.139	0.233
-330.202	-200.000	0.016	-0.101
-329.187	70.258	-0.090	-0.093
-328.172	-59.545	-0.618	-0.263
-327.158	58.306	0.250	0.243
-326.143	53.686	-0.094	0.090
-325.129	84.011	-0.122	-0.132
-324.114	80.165	-0.227	-0.241
-323.099	93.111	-0.194	-0.218
-322.085	123.993	-0.207	0.257
-321.070	163.392	-0.075	0.105
-320.056	-11.738	0.202	-0.131
-319.041	-82.174	0.470	-0.152
-318.026	-79.069	-0.239	-0.080
-317.012	800.000	0.029	0.119
-315.997	235.823	0.151	0.247
-314.983	-175.005	0.147	0.004
-313.968	151.038	-0.099	-0.134
-312.953	70.953	-0.135	-0.138
-311.939	-200.000	-0.021	-0.513
-310.924	-200.000	0.076	0.349
-309.910	164.563	0.263	0.366
-308.895	-36.831	0.281	0.149
-307.880	800.000	0.014	0.042
-306.866	-13.009	-0.325	0.209
-305.851	-200.000	-0.003	0.131
-304.837	-122.402	-0.325	-0.052
-303.822	-177.617	0.338	-0.008
-302.807	-200.000	-0.089	0.444
-301.793	652.360	-0.165	0.419
-300.778	112.468	0.114	-0.137
-299.764	-24.309	0.098	-0.058
-298.749	-200.000	-0.044	0.218
-297.735	-31.834	-0.119	-0.066
-296.720	-119.209	-0.128	-0.022
-295.705	40.937	0.203	-0.181
-294.691	-17.469	0.158	-0.098
-293.676	247.616	-0.092	-0.154
-292.662	12.891	-0.327	-0.250
-291.647	193.610	0.155	0.232
-290.632	-123.705	-0.435	-0.068
-289.618	-95.576	0.089	-0.024
-288.603	-60.616	-0.174	-0.073
-287.589	673.913	0.074	-0.190
-286.574	-200.000	-0.008	0.196
-285.559	-200.000	0.015	0.184
-284.545	-169.246	-0.176	0.006
-283.530	-200.000	-0.046	0.244
-282.516	-160.005	-0.078	0.004
-281.501	-200.000	0.008	-0.064
-280.486	-8.013	-0.121	0.081
-279.472	-101.677	0.078	0.019
-278.457	800.000	0.056	0.206
-277.443	12.031	-0.134	-0.102
-276.428	-43.997	-0.185	-0.092
-275.413	197.930	0.084	0.128
-274.399	450.221	0.093	0.203
-273.384	800.000	0.078	-0.289
-272.370	-100.486	-0.149	-0.036
-271.355	175.219	0.136	-0.194
-270.340	800.000	0.118	0.371
-269.326	73.024	0.022	0.023
-268.311	-84.020	0.213	-0.067
-267.297	131.052	0.101	0.128
-266.282	752.151	0.053	-0.142
-265.267	-200.000	0.008	0.068
-264.253	-200.000	0.040	0.391
-263.238	-200.000	-0.032	-0.163
-262.224	339.521	0.075	-0.145
-261.209	284.558	-0.123	-0.219
-260.195	581.886	0.152	0.368
-259.180	59.076	-0.149	0.145
-258.165	-42.815	0.248	-0.125
-257.151	36.152	-0.095	-0.082
-256.136	67.204	0.153	0.154
-255.122	553.809	-0.048	0.115
-254.107	15.427	-0.054	-0.042
-253.092	-92.550	0.290	-0.080
-252.078	-139.184	0.095	0.010
-251.063	-143.905	0.147	0.014
-250.049	-200.000	-0.019	0.094
-249.034	224.487	0.221	0.352
-248.019	-45.771	0.089	0.043
-247.005	98.382	-0.031	-0.036
-245.990	-64.816	-0.061	0.025
-244.976	73.469	0.138	0.143
-243.961	-165.150	0.193	-0.008
-242.946	-200.000	-0.012	0.144
-241.932	-200.000	-0.024	0.321
-240.917	-64.314	-0.094	-0.038
-239.903	-69.662	-0.179	0.068
-238.888	-125.397	0.099	0.015
-237.873	-105.774	0.177	0.040
-236.859	-16.580	-0.245	-0.153
-235.844	-200.000	-0.028	-0.210
-234.830	585.476	-0.128	0.312
-233.815	-28.402	0.282	0.160
-232.800	-154.421	0.335	0.022
-231.786	72.454	-0.233	0.240
-230.771	168.436	0.269	-0.378
-229.757	8.652	-0.158	0.117
-228.742	-37.056	-0.197	-0.104
-227.727	-200.000	-0.042	-0.194
-226.713	-200.000	-0.059	0.402
-225.698	-200.000	0.025	0.138
-224.684	87.004	0.172	-0.187
-223.669	-111.540	-0.346	0.069
-222.655	424.162	0.102	-0.217
-221.640	19.999	0.270	0.214
-220.625	-48.589	0.146	-0.069
-219.611	744.128	-0.046	0.122
-218.596	84.866	-0.145	0.157
-217.582	26.369	-0.200	-0.165
-216.567	168.257	-0.198	-0.279
-215.552	-200.000	-0.022	0.310
-214.538	448.037	0.121	0.262
-213.523	-200.000	-0.017	0.379
-212.509	50.128	-0.378	0.352
-211.494	-173.206	0.115	0.003
-210.479	-52.943	0.093	-0.042
-209.465	-80.204	-0.246	0.081
-208.450	249.352	0.133	-0.221
-207.436	-200.000	0.008	0.243
-206.421	-78.857	0.166	0.056
-205.406	-163.499	-0.183	-0.009
-204.392	-141.886	0.496	-0.049
-203.377	281.757	0.087	0.154
-202.363	-200.000	0.019	0.298
-201.348	-139.314	-0.252	0.027
-200.333	800.000	-0.035	-0.147
-199.319	-136.656	0.411	-0.047
-198.304	134.572	0.372	0.475
-197.290	505.732	0.229	0.523
-196.275	225.332	0.206	0.328
-195.260	585.597	0.102	0.248
-194.246	-171.161	0.282	0.009
-193.231	-200.000	0.051	-0.320
-192.217	800.000	-0.018	-0.070
-191.202	-116.730	0.225	0.041
-190.187	25.160	0.159	0.130
-189.173	800.000	0.043	0.156
-188.158	59.659	-0.052	-0.050
-187.144	-7.470	-0.159	-0.106
-186.129	-115.308	0.459	-0.085
-185.114	-147.321	-0.130	0.011
-184.100	122.241	-0.198	-0.244
-183.085	-113.550	0.219	0.042
-182.071	-36.919	0.091	-0.048
-181.056	-200.000	0.006	-0.277
-180.042	-200.000	-0.009	-0.065
-179.027	-52.510	-0.217	-0.099
-178.012	-90.344	-0.227	-0.065
-176.998	67.925	0.249	-0.250
-175.983	-0.649	-0.282	0.197
-174.969	-189.041	0.218	0.003
-173.954	800.000	-0.055	0.231
-172.939	-3.105	-0.225	-0.155
-171.925	183.960	-0.043	0.063
-170.910	-72.862	0.288	0.104
-169.896	-21.524	0.042	0.025
-168.881	-200.000	-0.007	-0.033
-167.866	-11.242	0.062	0.040
-166.852	84.796	-0.212	-0.228
-165.837	-200.000	-0.001	-0.120
-164.823	-97.855	-0.168	-0.043
-163.808	-200.000	0.019	-0.374
-162.793	293.610	-0.167	0.300
-161.779	-66.243	-0.224	-0.088
-160.764	-16.090	0.051	0.032
-159.750	-46.240	-0.310	-0.150
-158.735	212.117	0.111	0.172
-157.720	800.000	-0.054	0.155
-156.706	-200.000	-0.011	0.082
-155.691	-58.987	0.306	-0.130
-154.677	204.616	-0.118	-0.180
-153.662	-126.299	0.245	-0.036
-152.647	-12.395	-0.166	0.106
-151.633	-106.074	-0.430	0.095
-150.618	263.751	0.221	0.378
-149.604	800.000	-0.029	0.102
-148.589	-133.444	-0.281	0.035
-147.574	175.662	0.165	0.236
-146.560	38.308	0.100	-0.087
-145.545	-200.000	-0.034	-0.188
-144.531	59.739	0.129	0.126
-143.516	628.990	-0.024	-0.060
-142.502	-162.264	0.104	0.005
-141.487	137.090	0.119	0.153
-140.472	-51.996	0.103	0.047
-139.458	800.000	0.021	-0.065
-138.443	-200.000	-0.008	0.033
-137.429	-121.916	0.086	-0.014
-136.414	-200.000	-0.150	-0.672
-135.399	-132.900	0.161	0.020
-134.385	449.654	-0.130	-0.281
-133.370	105.219	-0.133	0.155
-132.356	-200.000	-0.008	-0.199
-131.341	-200.000	0.046	0.255
-130.326	-41.088	-0.318	-0.161
-129.312	-200.000	-0.051	-0.368
-128.297	-78.522	0.196	0.066
-127.283	-96.915	-0.165	0.043
-126.268	-114.807	-0.427	0.080
-125.253	-185.702	0.384	0.006
-124.239	57.235	-0.316	-0.303
-123.224	201.036	0.197	0.297
-122.210	-200.000	-0.003	0.025
-121.195	7.726	-0.218	0.160
-120.180	-6.581	0.208	-0.139
-119.166	476.969	-0.041	0.091
-118.151	-146.307	-0.177	0.015
-117.137	166.013	-0.249	0.347
-116.122	364.388	0.023	-0.046
-115.107	800.000	0.114	0.352
-114.093	800.000	-0.059	-0.224
-113.078	-88.393	-0.110	0.032
-112.064	66.094	0.148	-0.147
-111.049	165.606	0.146	0.203
-110.034	67.254	-0.218	-0.218
-109.020	-200.000	0.011	-0.133
-108.005	-200.000	-0.005	0.272
-106.991	-101.663	0.344	-0.082
-105.976	-200.000	0.017	-0.107
-104.962	-89.446	-0.312	-0.090
-103.947	-109.758	0.399	-0.082
-102.932	90.346	0.146	-0.160
-101.918	111.998	0.119	-0.141
-100.903	800.000	0.059	0.163
-99.889	36.432	-0.127	-0.110
-98.874	-200.000	0.031	0.287
-97.859	-35.595	-0.171	0.091
-96.845	346.640	-0.061	-0.118
-95.830	26.244	-0.090	0.074
-94.816	56.819	0.118	0.112
-93.801	111.512	-0.174	0.206
-92.786	116.596	0.154	-0.185
-91.772	-200.000	0.022	0.244
-90.757	800.000	-0.075	-0.274
-89.743	-200.000	-0.048	-0.299
-88.728	104.891	0.217	-0.250
-87.713	13.950	-0.094	-0.072
-86.699	341.498	-0.063	0.121
-85.684	691.159	0.041	-0.105
-84.670	-200.000	-0.048	0.367
-83.655	531.787	0.069	-0.161
-82.640	80.594	-0.136	-0.144
-81.626	-55.803	0.073	-0.032
-80.611	151.043	-0.227	-0.303
-79.597	7.188	-0.236	-0.173
-78.582	489.119	-0.057	0.128
-77.567	-110.556	0.195	0.040
-76.553	-82.409	0.121	-0.039
-75.538	-97.432	-0.140	-0.036
-74.524	-114.302	-0.218	-0.041
-73.509	287.491	-0.025	-0.045
-72.494	72.778	0.126	0.129
-71.480	792.701	0.126	-0.339
-70.465	800.000	-0.072	0.247
-69.451	-23.996	-0.268	0.157
-68.436	130.435	-0.153	0.192
-67.422	11.484	-0.217	-0.163
-66.407	134.248	0.030	0.038
-65.392	11.534	-0.331	0.249
-64.378	135.264	0.056	0.071
-63.363	-171.847	-0.257	0.008
-62.349	800.000	0.124	0.348
-61.334	139.250	-0.809	-1.042
-60.319	185.528	0.472	0.687
-59.305	800.000	-0.315	-1.276
-58.290	593.564	0.619	1.500
-57.276	800.000	0.589	1.786
-56.261	-200.000	113.667	641.747
-55.246	463.593	1511.236	3307.897
-54.232	146.556	2678.368	3524.651
-53.217	103.220	2156.822	2476.977
-52.203	38.824	1603.075	1402.340
-51.188	30.687	1348.718	1130.584
-50.173	27.839	1310.408	1081.583
-49.159	55.352	1366.292	1294.635
-48.144	53.867	1380.930	1299.504
-47.130	31.022	1336.806	1122.441
-46.115	27.435	1319.264	1086.312
-45.100	27.245	1314.314	1081.064
-44.086	27.171	1311.952	1078.640
-43.071	27.181	1309.515	1076.648
-42.057	27.219	1307.203	1074.929
-41.042	27.276	1305.863	1074.126
-40.027	27.278	1303.923	1072.496
-39.013	27.204	1302.008	1070.444
-37.998	27.294	1300.190	1069.438
-36.984	27.397	1298.452	1068.568
-35.969	27.317	1297.014	1066.876
-34.954	27.530	1295.067	1066.475
-33.940	27.298	1294.102	1064.282
-32.925	27.277	1292.825	1063.070
-31.911	27.459	1291.155	1062.714
-30.896	27.406	1289.605	1061.088
-29.881	27.457	1288.313	1060.278
-28.867	27.570	1286.178	1059.136
-27.852	27.623	1284.932	1058.376
-26.838	27.485	1283.998	1056.766
-25.823	27.537	1282.754	1056.002
-24.809	27.441	1281.310	1054.214
-23.794	27.547	1279.937	1053.658
-22.779	27.473	1278.536	1052.032
-21.765	27.429	1277.385	1050.789
-20.750	27.504	1276.285	1050.275
-19.736	27.339	1275.273	1048.450
-18.721	27.377	1273.874	1047.479
-17.706	27.360	1272.454	1046.172
-16.692	27.380	1271.476	1045.439
-15.677	27.213	1270.695	1043.797
-14.663	27.426	1268.725	1043.356
-13.648	27.375	1267.653	1042.144
-12.633	27.306	1267.425	1041.518
-11.619	27.309	1266.590	1040.811
-10.604	27.257	1265.575	1039.639
-9.590	27.358	1264.097	1038.957
-8.575	27.258	1263.468	1037.828
-7.560	27.232	1262.444	1036.797
-6.546	27.252	1261.821	1036.361
-5.531	27.293	1260.759	1035.681
-4.517	27.358	1259.660	1035.106
-3.502	27.273	1259.234	1034.232
-2.487	27.275	1258.080	1033.257
-1.473	27.297	1253.949	1029.947
-0.458	25.849	1239.583	1009.995
0.556	21.263	1222.683	974.043
1.571	17.798	1229.621	960.014
2.586	17.076	1245.054	967.865
3.600	17.311	1233.871	960.416
4.615	15.929	1167.553	901.322
5.629	12.872	1100.881	834.331
6.644	11.295	1084.689	814.116
7.659	11.162	1082.172	811.495
8.673	11.192	1080.734	810.490
9.688	11.131	1079.252	809.006
10.702	11.324	1077.477	808.563
11.717	13.227	1079.021	819.089
12.731	16.144	1083.433	836.855
13.746	17.624	1084.911	845.273
14.761	17.594	1084.568	844.780
15.775	16.713	1081.861	838.241
16.790	15.638	1079.929	831.351
17.804	14.937	1077.815	826.191
18.819	14.464	1076.966	823.133
19.834	14.154	1075.974	820.774
20.848	13.907	1075.099	818.814
21.863	13.707	1074.579	817.361
22.877	13.585	1073.592	815.935
23.892	13.512	1072.736	814.857
24.907	13.461	1072.224	814.144
25.921	13.627	1070.727	813.750
26.936	13.575	1069.859	812.761
27.950	13.550	1068.570	811.590
28.965	13.724	1066.893	811.095
29.980	13.754	1064.812	809.584
30.994	13.938	1063.766	809.617
32.009	13.999	1062.418	808.815
33.023	13.760	1061.872	807.166
34.038	13.856	1060.683	806.656
35.053	13.858	1059.739	805.879
36.067	13.614	1059.290	804.282
37.082	13.705	1058.255	803.867
38.096	13.718	1057.668	803.411
39.111	13.734	1057.030	802.932
40.126	13.591	1055.812	801.247
41.140	13.533	1054.875	800.182
42.155	13.414	1053.525	798.514
43.169	13.448	1052.283	797.666
44.184	13.386	1051.461	796.676
45.199	13.477	1050.087	796.001
46.213	13.550	1049.327	795.702
47.228	13.689	1047.989	795.285
48.242	13.652	1046.874	794.190
49.257	13.569	1046.059	793.108
50.271	13.722	1045.067	793.014
51.286	13.771	1044.050	792.409
52.301	13.800	1042.845	791.560
53.315	13.655	1042.311	790.395
54.330	13.624	1041.229	789.354
55.344	13.633	1040.230	788.573
56.359	13.671	1038.840	787.630
57.374	13.571	1038.538	786.853
58.388	13.514	1037.556	785.774
59.403	13.446	1036.973	784.940
60.417	13.466	1035.820	784.090
61.432	13.475	1034.829	783.312
62.447	13.441	1034.394	782.755
63.461	13.428	1033.453	781.912
64.476	13.466	1032.174	781.056
65.490	13.478	1031.785	780.746
66.505	13.579	1030.409	780.111
67.520	13.469	1030.322	779.460
68.534	13.474	1029.538	778.822
69.549	13.507	1029.008	778.506
70.563	13.486	1028.170	777.706
71.578	13.432	1027.163	776.623
72.593	13.327	1026.904	775.865
73.607	13.247	1026.466	775.090
74.622	13.274	1025.639	774.524
75.636	13.384	1024.123	773.824
76.651	13.412	1023.459	773.383
77.666	13.378	1023.086	772.873
78.680	13.376	1022.435	772.307
79.695	13.575	1021.920	772.777
80.709	13.550	1021.369	772.176
81.724	13.414	1020.957	771.160
82.739	13.547	1019.971	770.969
83.753	13.704	1019.160	771.017
84.768	13.651	1018.127	769.921
85.782	13.801	1017.197	769.848
86.797	13.785	1016.313	769.034
87.812	13.619	1015.363	767.479
88.826	13.749	1014.441	767.316
89.841	13.810	1013.312	766.674
90.855	13.779	1012.537	765.876
91.870	13.758	1012.190	765.452
92.884	13.772	1011.113	764.633
93.899	13.860	1009.880	764.038
94.914	13.813	1009.643	763.574
95.928	13.880	1008.875	763.235
96.943	13.870	1007.630	762.181
97.957	13.717	1007.044	760.966
98.972	13.849	1006.122	760.809
99.987	13.832	1005.099	759.889
101.001	13.845	1004.089	759.119
102.016	13.732	1003.593	758.159
103.030	13.791	1002.780	757.748
104.045	13.875	1001.906	757.403
105.060	13.783	1000.615	755.941
106.074	13.757	999.491	754.904
107.089	13.549	999.014	753.535
108.103	13.527	998.042	752.632
109.118	13.592	996.849	751.961
110.133	13.580	995.923	751.145
111.147	13.492	995.203	750.132
112.162	13.550	994.079	749.484
113.176	13.685	993.108	749.295
114.191	13.751	992.906	749.373
115.206	13.677	991.471	747.893
116.220	13.651	991.022	747.371
117.235	13.698	990.061	746.791
118.249	13.642	988.979	745.658
119.264	13.683	988.313	745.271
120.279	13.668	987.498	744.522
121.293	13.551	986.699	743.331
122.308	13.474	985.757	742.212
123.322	13.545	984.733	741.691
124.337	13.658	983.152	740.943
125.352	13.504	982.617	739.785
126.366	13.588	981.936	739.579
127.381	13.470	980.704	738.062
128.395	13.567	979.915	737.836
129.410	13.628	978.807	737.208
130.424	13.821	977.320	736.880
131.439	13.669	977.148	736.009
132.454	13.731	976.527	735.751
133.468	13.731	975.660	735.031
134.483	13.766	974.757	734.443
135.497	13.783	973.998	733.878
136.512	13.688	973.216	732.807
137.527	13.693	972.197	731.996
138.541	13.707	971.898	731.769
139.556	13.695	971.053	731.016
140.570	13.804	970.359	730.908
141.585	13.870	969.582	730.546
142.600	13.727	968.686	729.181
143.614	13.904	967.941	729.333
144.629	13.929	967.126	728.763
145.643	13.850	966.187	727.643
146.658	13.842	964.865	726.551
147.673	13.869	963.678	725.707
148.687	13.758	963.323	724.894
149.702	13.729	962.221	723.874
150.716	13.726	961.692	723.396
151.731	13.858	960.383	722.924
152.746	13.699	960.434	722.207
153.760	13.856	959.406	722.052
154.775	13.898	958.942	721.821
155.789	13.820	957.689	720.477
156.804	13.934	957.381	720.675
157.819	14.054	956.859	720.740
158.833	13.968	956.351	719.921
159.848	14.188	954.952	719.756
160.862	14.020	954.552	718.662
161.877	13.832	953.629	717.095
162.892	13.843	952.624	716.320
163.906	13.870	951.753	715.720
164.921	13.959	950.636	715.199
165.935	13.995	949.813	714.673
166.950	14.031	948.383	713.687
167.964	14.020	947.687	713.050
168.979	14.008	947.002	712.420
169.994	13.980	946.404	711.790
171.008	14.047	945.419	711.271
172.023	14.085	944.706	710.836
173.037	13.969	944.086	709.812
174.052	14.019	943.479	709.503
175.067	14.042	942.725	708.973
176.081	13.978	941.964	708.066
177.096	13.937	941.864	707.752
178.110	13.902	941.206	707.045
179.125	14.050	940.126	706.804
180.140	14.000	939.600	706.132
181.154	14.208	939.213	706.661
182.169	14.301	938.382	706.370
183.183	14.314	937.802	705.925
184.198	14.264	937.114	705.133
185.213	14.330	936.589	704.955
186.227	14.299	936.127	704.412
187.242	14.324	935.445	703.943
188.256	14.450	934.678	703.838
189.271	14.318	933.837	702.583
190.286	14.171	933.146	701.381
191.300	14.047	932.321	700.178
192.315	14.120	931.355	699.698
193.329	14.063	931.315	699.364
194.344	14.192	930.540	699.266
195.359	14.272	930.091	699.200
196.373	14.211	929.693	698.583
197.388	14.370	928.948	698.628
198.402	14.455	928.447	698.547
199.417	14.465	927.848	698.077
200.432	14.480	927.220	697.605
201.446	14.604	927.116	697.981
202.461	14.659	926.285	697.527
203.475	14.549	925.763	696.610
204.490	14.503	925.014	695.794
205.504	14.502	924.060	695.012
206.519	14.482	923.706	694.601
207.534	14.598	922.713	694.274
208.548	14.678	921.653	693.748
209.563	14.414	921.515	692.483
210.577	14.467	920.816	692.120
211.592	14.601	920.162	692.122
212.607	14.697	919.542	691.991
213.621	14.660	918.412	690.928
214.636	14.667	917.725	690.377
215.650	14.809	916.592	690.050
216.665	14.674	916.115	689.075
217.680	14.820	915.485	689.140
218.694	14.744	914.849	688.290
219.709	14.796	914.052	687.842
220.723	14.918	913.376	687.776
221.738	14.688	912.811	686.343
222.753	14.729	912.563	686.264
223.767	14.902	911.698	686.262
224.782	14.849	911.431	685.782
225.796	14.991	910.858	685.876
226.811	14.780	910.194	684.449
227.826	14.734	909.697	683.826
228.840	14.889	908.584	683.561
229.855	14.869	907.703	682.756
230.869	14.772	907.059	681.817
231.884	14.832	906.127	681.300
232.899	14.928	905.573	681.214
233.913	14.748	905.184	680.130
234.928	14.715	904.514	679.433
235.942	14.910	903.537	679.430
236.957	14.821	903.084	678.666
237.972	14.774	902.627	678.072
238.986	14.794	901.939	677.577
240.001	14.802	901.661	677.343
241.015	14.944	900.761	677.180
242.030	14.974	899.873	676.574
243.045	14.938	899.339	675.968
244.059	14.941	898.962	675.635
245.074	15.037	898.223	675.408
246.088	14.986	897.481	674.586
247.103	15.071	897.166	674.632
248.117	15.194	896.514	674.576
249.132	15.132	896.471	674.234
250.147	15.115	895.458	673.345
251.161	15.353	894.345	673.404
252.176	15.494	893.662	673.398
253.190	15.272	893.474	672.306
254.205	15.315	892.720	671.848
255.220	15.348	891.832	671.253
256.234	15.421	891.483	671.225
257.249	15.451	890.465	670.520
258.263	15.401	889.820	669.772
259.278	15.397	889.192	669.225
260.293	15.468	888.928	669.251
261.307	15.526	887.973	668.702
262.322	15.601	887.592	668.658
263.336	15.562	886.734	667.795
264.351	15.538	886.182	667.226
265.366	15.586	885.579	666.903
266.380	15.512	885.053	666.153
267.395	15.691	884.081	666.073
268.409	15.599	883.208	664.990
269.424	15.572	882.488	664.286
270.439	15.556	881.936	663.749
271.453	15.579	881.039	663.104
272.468	15.630	880.548	662.875
273.482	15.386	880.844	662.078
274.497	15.615	879.153	661.650
275.512	15.599	879.212	661.571
276.526	15.758	878.449	661.564
277.541	15.613	878.061	660.645
278.555	15.764	877.172	660.509
279.570	15.845	876.771	660.469
280.585	15.564	876.162	658.849
281.599	15.571	875.337	658.200
282.614	15.785	874.330	658.218
283.628	15.794	873.932	657.895
284.643	15.665	873.684	657.146
285.657	15.812	872.392	656.691
286.672	15.796	872.317	656.516
287.687	15.805	871.399	655.802
288.701	15.710	871.286	655.288
289.716	15.763	870.509	654.853
290.730	15.875	869.853	654.736
291.745	15.855	868.961	653.930
292.760	16.145	868.281	654.484
293.774	16.127	867.808	654.001
294.789	16.031	867.040	652.990
295.803	15.954	866.368	652.132
296.818	15.920	865.853	651.553
297.833	15.940	865.414	651.242
298.847	15.973	864.527	650.644
299.862	16.151	863.970	650.855
300.876	16.016	863.854	650.188
301.891	16.070	863.111	649.781
302.906	16.106	862.377	649.310
303.920	16.253	861.811	649.392
304.935	16.335	861.099	649.113
305.949	16.264	860.699	648.480
306.964	16.195	860.097	647.705
307.979	16.158	859.912	647.366
308.993	16.247	859.264	647.163
310.008	16.385	858.342	646.938
311.022	16.175	858.213	645.981
312.037	16.227	857.367	645.485
313.052	16.093	856.791	644.482
314.066	16.110	856.164	644.020
315.081	16.043	856.056	643.624
316.095	16.088	855.023	642.963
317.110	16.223	854.053	642.689
318.125	16.224	853.710	642.381
319.139	16.227	853.329	642.049
320.154	16.268	853.237	642.076
321.168	16.110	852.682	641.002
322.183	16.262	851.713	640.793
323.197	16.108	851.706	640.147
324.212	16.341	850.732	640.241
325.227	16.340	849.834	639.506
326.241	16.422	849.196	639.280
327.256	16.254	849.001	638.439
328.270	16.309	848.232	638.013
329.285	16.257	847.902	637.512
330.300	16.347	847.020	637.134
331.314	16.282	846.713	636.599
332.329	16.375	846.345	636.619
333.343	16.370	846.321	636.526
334.358	16.393	845.471	635.915
335.373	16.473	845.243	635.990
336.387	16.502	845.274	636.066
337.402	16.647	844.575	636.028
338.416	16.506	844.410	635.317
339.431	16.519	844.021	635.017
340.446	16.562	843.325	634.600
341.460	16.762	842.769	634.875
342.475	16.751	842.625	634.666
343.489	16.760	841.938	634.129
344.504	16.670	841.879	633.688
345.519	16.820	841.215	633.695
346.533	16.828	840.337	633.008
347.548	16.652	839.868	631.941
348.562	16.614	839.567	631.518
349.577	16.772	838.699	631.398
350.592	16.663	838.085	630.473
351.606	16.728	837.280	630.054
352.621	16.758	836.506	629.525
353.635	16.756	836.306	629.313
354.650	16.861	835.417	628.979
355.665	16.852	834.956	628.541
356.679	16.902	834.363	628.225
357.694	16.851	833.755	627.522
358.708	16.827	833.246	626.997
359.723	16.826	832.581	626.435
360.738	16.820	831.984	625.910
361.752	16.957	831.167	625.745
362.767	17.059	830.758	625.756
363.781	17.046	829.953	625.050
364.796	17.026	830.064	625.004
365.810	17.192	829.089	624.825
366.825	17.206	828.975	624.733
367.840	17.208	828.511	624.338
368.854	17.017	828.203	623.349
369.869	17.010	827.810	622.970
370.883	17.105	827.195	622.803
371.898	17.178	826.812	622.727
372.913	17.298	826.359	622.769
373.927	17.145	825.857	621.775
374.942	17.269	825.516	621.918
375.956	17.155	825.084	621.120
376.971	17.375	824.435	621.382
377.986	17.373	824.164	621.113
379.000	17.195	824.044	620.319
380.015	17.306	823.114	619.967
381.029	17.384	822.652	619.851
382.044	17.418	821.962	619.399
383.059	17.418	821.335	618.873
384.073	17.319	820.962	618.177
385.088	17.298	820.306	617.552
386.102	17.349	819.907	617.383
387.117	17.304	818.723	616.272
388.132	17.284	818.447	615.938
389.146	17.365	817.892	615.758
390.161	17.477	817.864	616.087
391.175	17.477	817.277	615.591
392.190	17.429	816.529	614.800
393.205	17.467	815.868	614.386
394.219	17.395	815.819	614.034
395.234	17.442	815.404	613.839
396.248	17.309	814.945	612.956
397.263	17.380	814.500	612.824
398.278	17.375	814.210	612.536
399.292	17.430	813.489	612.136
400.307	17.287	813.260	611.395
401.321	17.371	812.508	611.077
402.336	17.523	812.249	611.375
403.350	17.350	811.683	610.275
404.365	17.544	811.203	610.554
405.380	17.682	810.674	610.597
406.394	17.557	810.195	609.733
407.409	17.602	809.980	609.680
408.423	17.769	809.683	609.998
409.438	17.878	809.037	609.848
410.453	17.858	808.713	609.477
411.467	17.769	808.282	608.783
412.482	17.752	808.055	608.495
413.496	17.880	807.528	608.502
414.511	17.865	807.096	608.069
415.526	17.869	806.669	607.708
416.540	17.960	805.940	607.427
417.555	17.903	805.627	606.937
418.569	17.899	805.272	606.603
419.584	17.883	804.899	606.211
420.599	18.074	804.029	606.177
421.613	111.388	1295.652	1476.897
422.628	96.040	1367.271	1477.000
