DTS Sentinel unit serial number:	SN413079Multiplexer serial number:	ORYXHardware model number:	OX4-SRSoftware version number:	ORYX F/W v4.00 Oryx Data Collector v3.7.2.0data status	okinstallation	princeton_trtdifferential loss correction	single-endedforward channel	channel 1reverse channel	N/Adate	2019/09/13time	19:14:35forward acquisition time	60.00reverse acquisition time	0.00gamma	496.2192k internal	0.2325k external	0.2325temperature offset calibration	1.0123default loss term (dB/km)	0.3790temperature slope calibration	1.0000multiplexer offset coefficient	1.0000multiplexer slope coefficient	1.0000fibre end	0.00T internal ref (°C)	31.34T ext. ref 1 (°C)	3.82T ext. ref 2 (°C)	24.71length (m)	temperature (°C)	Stokes	anti-Stokes-747.200	-200.000	-0.026	0.227
-746.185	800.000	0.069	0.256
-745.171	-200.000	-0.069	-0.322
-744.156	800.000	-0.043	-0.156
-743.142	-135.054	0.072	0.009
-742.127	387.473	-0.128	0.268
-741.112	795.815	-0.054	0.150
-740.098	175.342	0.355	0.519
-739.083	-200.000	0.012	0.057
-738.069	172.079	0.077	-0.111
-737.054	-100.834	-0.108	-0.027
-736.039	-72.330	0.098	-0.037
-735.025	-200.000	-0.042	-0.403
-734.010	-200.000	-0.026	-0.309
-732.996	79.207	-0.163	-0.176
-731.981	-62.733	-0.277	-0.116
-730.966	111.671	-0.200	-0.244
-729.952	78.155	-0.124	0.134
-728.937	124.033	-0.311	-0.394
-727.923	-200.000	-0.034	-0.263
-726.908	297.792	-0.071	0.132
-725.894	-151.161	-0.187	0.014
-724.879	774.408	0.103	-0.284
-723.864	8.143	-0.155	0.118
-722.850	296.836	-0.068	-0.126
-721.835	-147.673	-0.230	0.019
-720.821	-153.495	-0.384	0.027
-719.806	800.000	0.073	-0.205
-718.791	-200.000	-0.004	-0.110
-717.777	-200.000	-0.025	0.228
-716.762	-93.709	0.088	0.024
-715.748	-94.850	-0.326	0.089
-714.733	-200.000	-0.047	-0.371
-713.718	366.553	0.068	0.139
-712.704	-82.851	-0.295	0.096
-711.689	-200.000	-0.047	0.221
-710.675	117.190	0.155	-0.191
-709.660	-200.000	0.072	0.414
-708.645	800.000	0.097	0.341
-707.631	7.922	-0.241	0.182
-706.616	-200.000	-0.028	0.314
-705.602	-200.000	-0.020	-0.220
-704.587	-44.357	0.295	0.149
-703.572	800.000	-0.106	-0.452
-702.558	800.000	0.051	-0.202
-701.543	-96.957	-0.134	0.035
-700.529	258.849	0.050	-0.086
-699.514	-200.000	0.030	0.152
-698.499	-51.340	0.086	-0.041
-697.485	23.304	0.072	-0.060
-696.470	-71.609	-0.259	-0.097
-695.456	-82.557	0.225	-0.073
-694.441	149.567	0.227	-0.310
-693.426	147.391	0.130	-0.176
-692.412	170.823	0.201	-0.290
-691.397	714.242	-0.069	0.185
-690.383	748.840	0.079	-0.214
-689.368	52.922	0.207	-0.200
-688.354	800.000	0.027	0.114
-687.339	294.966	-0.081	0.148
-686.324	800.000	-0.064	-0.263
-685.310	-63.863	0.074	-0.030
-684.295	-5.822	-0.342	-0.236
-683.281	-25.060	-0.321	-0.192
-682.266	107.231	0.127	0.151
-681.251	28.940	-0.174	0.149
-680.237	-164.674	-0.094	0.004
-679.222	419.780	-0.106	0.228
-678.208	-99.489	0.284	0.072
-677.193	-200.000	0.005	0.077
-676.178	62.952	0.288	-0.290
-675.164	-36.489	-0.210	0.114
-674.149	113.936	0.047	0.057
-673.135	-31.107	-0.307	-0.174
-672.120	54.865	-0.100	-0.097
-671.105	259.981	-0.130	0.225
-670.091	65.014	0.176	-0.179
-669.076	800.000	-0.083	-0.240
-668.062	-200.000	-0.032	-0.281
-667.047	601.677	-0.048	0.119
-666.032	25.798	0.291	-0.244
-665.018	-137.964	0.208	-0.023
-664.003	515.114	-0.005	0.011
-662.989	-52.912	-0.206	-0.095
-661.974	159.452	-0.213	0.299
-660.959	663.183	0.061	-0.159
-659.945	-163.939	0.201	-0.009
-658.930	-200.000	-0.061	-0.272
-657.916	-98.875	0.344	-0.088
-656.901	-200.000	-0.033	-0.273
-655.886	258.686	0.161	0.279
-654.872	-1.207	-0.022	-0.016
-653.857	131.454	0.080	-0.104
-652.843	40.598	-0.190	0.172
-651.828	55.187	-0.402	-0.391
-650.814	-200.000	0.007	-0.084
-649.799	606.081	-0.103	-0.258
-648.784	93.809	0.235	0.268
-647.770	288.920	-0.101	0.183
-646.755	-21.572	0.106	-0.065
-645.741	-89.893	0.462	-0.136
-644.726	360.767	0.090	-0.182
-643.711	-42.478	0.217	0.111
-642.697	-200.000	0.037	-0.314
-641.682	-86.141	-0.101	-0.031
-640.668	-118.946	0.273	-0.048
-639.653	30.359	-0.133	0.114
-638.638	800.000	-0.030	0.096
-637.624	-115.941	0.229	0.043
-636.609	-57.407	-0.179	-0.079
-635.595	194.893	0.111	-0.169
-634.580	19.946	-0.163	-0.132
-633.565	-200.000	0.026	-0.157
-632.551	-55.552	-0.112	0.050
-631.536	-106.355	-0.119	-0.027
-630.522	150.568	0.124	-0.169
-629.507	-200.000	0.012	0.227
-628.492	-66.054	0.386	0.155
-627.478	-56.460	-0.050	0.022
-626.463	-12.087	-0.183	-0.120
-625.449	800.000	0.037	0.112
-624.434	611.232	-0.065	-0.163
-623.419	186.949	-0.147	0.221
-622.405	99.797	0.129	0.150
-621.390	-200.000	-0.004	-0.146
-620.376	800.000	-0.095	-0.282
-619.361	-200.000	0.005	0.025
-618.346	-170.693	0.299	-0.010
-617.332	685.701	0.146	-0.383
-616.317	800.000	0.009	-0.028
-615.303	149.370	0.132	0.180
-614.288	31.098	0.109	0.094
-613.273	690.860	0.136	-0.358
-612.259	-200.000	0.018	-0.226
-611.244	-200.000	0.014	-0.189
-610.230	39.390	0.030	-0.027
-609.215	-67.494	-0.095	-0.037
-608.201	-8.409	0.066	-0.044
-607.186	-8.863	-0.255	-0.172
-606.171	-0.139	0.145	0.104
-605.157	52.145	-0.114	-0.109
-604.142	-35.378	-0.169	-0.092
-603.128	-200.000	0.014	0.202
-602.113	175.487	-0.184	-0.268
-601.098	-166.651	-0.269	-0.011
-600.084	-52.778	-0.138	-0.064
-599.069	242.226	0.101	0.169
-598.055	-138.490	-0.379	-0.042
-597.040	-5.732	-0.073	-0.050
-596.025	-46.247	0.301	-0.148
-595.011	-145.608	-0.204	0.018
-593.996	45.346	0.200	0.185
-592.982	-197.324	0.297	0.002
-591.967	620.853	-0.120	0.303
-590.952	-200.000	0.008	-0.119
-589.938	96.034	-0.080	-0.091
-588.923	79.031	-0.049	-0.053
-587.909	-180.713	-0.211	0.004
-586.894	209.344	-0.058	0.092
-585.879	800.000	0.030	0.132
-584.865	800.000	0.078	0.251
-583.850	274.857	-0.076	-0.136
-582.836	-200.000	0.004	-0.376
-581.821	-170.963	0.122	0.004
-580.806	763.384	0.036	-0.099
-579.792	312.957	0.112	-0.212
-578.777	317.056	0.052	-0.099
-577.763	-95.534	0.246	-0.066
-576.748	-200.000	-0.017	-0.124
-575.733	-44.830	-0.205	-0.102
-574.719	15.347	-0.346	0.272
-573.704	-88.345	0.178	-0.053
-572.690	-200.000	-0.031	0.143
-571.675	67.314	0.110	0.113
-570.661	20.981	-0.068	-0.055
-569.646	236.259	-0.062	0.102
-568.631	46.808	-0.085	-0.079
-567.617	-78.735	-0.339	-0.116
-566.602	111.758	0.323	0.390
-565.588	-38.156	-0.112	-0.060
-564.573	-58.694	-0.190	0.082
-563.558	-200.000	-0.001	-0.010
-562.544	-161.830	-0.089	-0.005
-561.529	800.000	-0.097	0.340
-560.515	-200.000	0.007	-0.232
-559.500	328.065	-0.108	-0.207
-558.485	-17.905	0.078	0.049
-557.471	265.886	0.160	-0.279
-556.456	800.000	0.086	-0.317
-555.442	-103.608	-0.251	0.059
-554.427	-63.321	-0.086	0.035
-553.412	5.647	0.175	-0.130
-552.398	-134.025	-0.192	-0.024
-551.383	800.000	0.093	0.274
-550.369	163.973	-0.222	-0.313
-549.354	-38.686	-0.220	-0.116
-548.339	-81.463	0.082	0.027
-547.325	-38.057	0.089	0.047
-546.310	145.799	0.132	0.177
-545.296	8.850	-0.224	0.169
-544.281	-85.819	-0.028	0.009
-543.266	171.627	0.130	0.186
-542.252	-55.238	0.192	-0.086
-541.237	-89.894	-0.369	-0.108
-540.223	-131.094	0.098	0.013
-539.208	702.980	0.070	0.184
-538.193	36.869	0.246	-0.218
-537.179	137.903	0.103	0.135
-536.164	259.176	-0.100	-0.173
-535.150	102.605	0.087	-0.102
-534.135	-49.571	0.006	0.003
-533.121	-200.000	0.011	-0.095
-532.106	-73.438	-0.179	0.065
-531.091	212.054	-0.062	0.097
-530.077	99.488	0.042	-0.048
-529.062	-58.633	-0.299	-0.130
-528.048	128.176	0.126	-0.161
-527.033	-71.415	0.397	0.149
-526.018	341.164	0.156	-0.305
-525.004	800.000	0.108	-0.431
-523.989	-133.310	-0.279	0.035
-522.975	-85.900	0.424	0.131
-521.960	88.620	-0.034	-0.038
-520.945	-89.444	-0.420	0.124
-519.931	-55.989	-0.184	-0.082
-518.916	-200.000	0.063	-0.387
-517.902	140.047	0.087	0.115
-516.887	165.904	0.165	-0.234
-515.872	354.176	-0.057	-0.114
-514.858	418.827	-0.099	-0.213
-513.843	800.000	-0.123	-0.343
-512.829	-200.000	0.229	0.001
-511.814	800.000	-0.019	0.068
-510.799	-35.610	-0.127	0.069
-509.785	-94.264	-0.212	0.058
-508.770	167.021	0.176	0.249
-507.756	27.610	0.311	-0.262
-506.741	447.808	0.190	-0.418
-505.726	-200.000	-0.035	0.163
-504.712	732.035	-0.081	-0.217
-503.697	-36.110	0.198	0.107
-502.683	71.792	-0.112	0.117
-501.668	-79.229	-0.260	-0.088
-500.653	49.747	-0.180	0.169
-499.639	177.039	0.117	0.171
-498.624	-151.176	-0.167	0.012
-497.610	-68.710	0.105	-0.041
-496.595	438.817	0.076	0.165
-495.581	-90.286	0.117	-0.034
-494.566	41.133	0.127	0.115
-493.551	-31.906	-0.234	-0.131
-492.537	-5.452	-0.173	-0.118
-491.522	-68.862	0.199	-0.077
-490.508	800.000	-0.046	-0.150
-489.493	215.446	-0.106	-0.168
-488.478	409.833	0.094	-0.199
-487.464	-200.000	-0.005	-0.187
-486.449	-200.000	0.012	-0.139
-485.435	110.353	0.057	0.069
-484.420	14.457	0.261	0.203
-483.405	-200.000	0.057	0.329
-482.391	800.000	-0.078	0.222
-481.376	-200.000	-0.033	0.147
-480.362	800.000	-0.094	0.292
-479.347	7.193	0.164	-0.122
-478.332	2.653	0.127	-0.092
-477.318	-171.514	0.266	-0.009
-476.303	368.699	-0.046	-0.092
-475.289	-200.000	0.002	-0.063
-474.274	-200.000	0.014	-0.290
-473.259	-107.055	-0.156	-0.034
-472.245	-69.935	0.124	0.047
-471.230	-144.471	0.151	-0.014
-470.216	749.511	-0.070	0.189
-469.201	-20.598	0.185	0.114
-468.186	-87.032	0.053	0.016
-467.172	219.280	0.255	0.407
-466.157	-200.000	0.020	-0.239
-465.143	131.243	0.124	-0.159
-464.128	268.196	-0.043	-0.075
-463.113	-63.478	0.146	0.060
-462.099	-2.911	-0.265	-0.185
-461.084	-33.908	-0.113	0.062
-460.070	-76.008	0.204	-0.072
-459.055	-15.688	0.051	0.033
-458.040	519.957	0.194	0.454
-457.026	374.123	-0.129	-0.262
-456.011	77.607	0.154	0.164
-454.997	225.580	-0.105	0.169
-453.982	337.722	-0.091	0.177
-452.968	-72.006	-0.099	-0.037
-451.953	-69.801	-0.117	-0.045
-450.938	67.534	0.074	-0.075
-449.924	-61.250	0.137	0.058
-448.909	-149.004	-0.378	-0.030
-447.895	259.675	0.099	-0.170
-446.880	-140.592	0.160	0.017
-445.865	-200.000	-0.004	0.222
-444.851	3.562	0.234	0.170
-443.836	-200.000	-0.014	0.079
-442.822	-200.000	-0.060	0.282
-441.807	-87.591	0.212	0.064
-440.792	-200.000	-0.038	0.315
-439.778	453.282	-0.056	0.124
-438.763	-48.639	-0.206	-0.099
-437.749	43.993	-0.137	0.125
-436.734	800.000	-0.092	0.295
-435.719	19.441	0.170	-0.136
-434.705	-127.163	-0.187	-0.027
-433.690	-151.561	0.247	-0.018
-432.676	-200.000	0.044	0.407
-431.661	-200.000	-0.063	0.315
-430.646	-43.268	-0.050	-0.025
-429.632	-127.656	0.126	-0.018
-428.617	-118.803	-0.128	0.023
-427.603	297.715	-0.121	-0.222
-426.588	219.586	-0.102	-0.163
-425.573	153.015	-0.066	0.090
-424.559	800.000	0.139	-0.477
-423.544	-67.591	0.165	0.064
-422.530	-200.000	0.015	-0.122
-421.515	111.416	0.177	0.213
-420.500	-32.589	-0.172	-0.095
-419.486	-121.300	0.122	0.020
-418.471	600.631	-0.064	0.157
-417.457	800.000	-0.053	0.231
-416.442	165.060	0.033	-0.047
-415.428	459.582	-0.130	-0.288
-414.413	-41.399	0.070	0.036
-413.398	694.602	-0.071	0.186
-412.384	-149.499	0.221	0.017
-411.369	375.477	-0.005	0.011
-410.355	-17.328	0.209	0.131
-409.340	-46.819	-0.238	0.116
-408.325	-200.000	-0.001	0.383
-407.311	-99.003	-0.189	0.048
-406.296	-56.610	0.166	-0.073
-405.282	-51.192	0.060	0.028
-404.267	-127.157	0.097	0.014
-403.252	-130.466	-0.475	0.064
-402.238	19.388	0.138	0.111
-401.223	595.492	0.164	0.404
-400.209	800.000	-0.095	0.276
-399.194	-200.000	-0.052	0.306
-398.179	-200.000	0.008	0.089
-397.165	42.127	0.206	0.186
-396.150	-128.336	-0.359	-0.051
-395.136	-25.882	-0.225	-0.132
-394.121	800.000	0.106	-0.326
-393.106	-80.414	0.359	0.119
-392.092	47.790	-0.199	0.185
-391.077	118.743	-0.124	-0.152
-390.063	227.872	-0.146	-0.237
-389.048	165.529	0.182	-0.256
-388.033	595.862	0.071	-0.175
-387.019	259.377	-0.143	0.245
-386.004	12.347	-0.211	0.161
-384.990	56.230	-0.139	-0.134
-383.975	-200.000	-0.058	-0.265
-382.960	136.026	-0.022	0.029
-381.946	114.643	0.096	0.116
-380.931	119.451	0.018	0.023
-379.917	-83.007	0.202	-0.065
-378.902	-200.000	0.047	0.338
-377.888	-125.779	-0.187	0.028
-376.873	-9.967	0.308	-0.204
-375.858	791.616	-0.057	0.155
-374.844	-40.627	0.178	0.092
-373.829	83.235	-0.011	0.011
-372.815	-91.855	-0.087	-0.024
-371.800	142.546	-0.201	-0.266
-370.785	-200.000	0.012	-0.108
-369.771	-69.834	-0.152	-0.058
-368.756	800.000	-0.055	0.152
-367.742	-24.793	0.063	-0.037
-366.727	172.636	-0.278	0.398
-365.712	-108.103	0.267	0.058
-364.698	108.392	0.158	0.188
-363.683	8.743	-0.239	0.179
-362.669	-102.000	-0.061	-0.015
-361.654	-81.485	0.072	-0.024
-360.639	-3.770	-0.128	-0.088
-359.625	-69.859	-0.321	0.122
-358.610	-47.346	0.199	-0.096
-357.596	7.101	-0.084	0.062
-356.581	-200.000	0.046	0.316
-355.566	-101.277	-0.083	-0.020
-354.552	-47.618	0.333	0.161
-353.537	-105.162	-0.210	-0.048
-352.523	-80.024	0.195	-0.065
-351.508	-160.389	0.049	0.003
-350.493	-200.000	0.005	0.199
-349.479	-200.000	-0.005	-0.105
-348.464	-64.632	0.195	0.078
-347.450	-79.284	0.073	-0.025
-346.435	141.799	-0.104	0.137
-345.420	-112.287	-0.279	0.055
-344.406	-166.878	0.062	-0.003
-343.391	-4.842	0.219	-0.150
-342.377	170.102	-0.164	-0.233
-341.362	-197.769	0.164	0.001
-340.348	152.160	-0.116	-0.157
-339.333	-120.866	0.263	0.044
-338.318	-200.000	0.004	-0.187
-337.304	143.252	0.091	0.121
-336.289	357.167	-0.209	-0.413
-335.275	-20.617	-0.224	0.137
-334.260	-131.159	-0.413	0.054
-333.245	55.942	0.357	-0.344
-332.231	455.774	-0.043	-0.094
-331.216	202.424	0.123	0.189
-330.202	0.478	-0.169	-0.120
-329.187	-200.000	-0.021	0.128
-328.172	4.386	-0.268	0.195
-327.158	379.243	-0.064	0.130
-326.143	48.490	0.174	0.162
-325.129	800.000	0.053	0.175
-324.114	-8.281	0.187	-0.125
-323.099	800.000	-0.065	0.210
-322.085	800.000	0.072	-0.207
-321.070	800.000	-0.118	-0.388
-320.056	211.530	-0.123	-0.192
-319.041	800.000	-0.032	0.101
-318.026	272.350	0.107	0.186
-317.012	496.363	0.130	0.296
-315.997	800.000	-0.069	0.294
-314.983	14.884	-0.183	0.142
-313.968	175.331	-0.139	0.199
-312.953	-200.000	0.014	-0.161
-311.939	-147.712	-0.423	-0.035
-310.924	52.643	-0.177	-0.168
-309.910	-200.000	-0.018	0.138
-308.895	620.851	0.120	-0.300
-307.880	240.659	-0.125	-0.206
-306.866	11.543	0.279	0.212
-305.851	226.290	-0.180	0.289
-304.837	636.067	0.177	0.445
-303.822	-165.192	0.315	0.014
-302.807	53.128	0.081	0.077
-301.793	-200.000	-0.010	-0.235
-300.778	-200.000	0.032	0.156
-299.764	800.000	-0.060	0.182
-298.749	-55.684	-0.211	0.094
-297.735	85.867	-0.299	-0.326
-296.720	769.932	-0.090	0.242
-295.705	-5.061	0.089	0.061
-294.691	133.268	-0.091	0.117
-293.676	223.584	0.105	0.168
-292.662	-19.326	-0.262	-0.161
-291.647	-186.356	-0.311	-0.004
-290.632	-200.000	0.018	-0.467
-289.618	800.000	-0.049	-0.180
-288.603	-38.576	0.273	0.143
-287.589	13.571	0.204	-0.157
-286.574	408.945	-0.054	-0.114
-285.559	-71.398	-0.150	-0.056
-284.545	-61.260	0.117	0.049
-283.530	-10.912	0.299	0.196
-282.516	449.140	0.016	-0.035
-281.501	-173.719	0.176	-0.005
-280.486	322.247	-0.190	-0.358
-279.472	-104.589	0.119	-0.027
-278.457	71.541	-0.203	-0.209
-277.443	-64.899	0.211	0.084
-276.428	48.411	-0.177	-0.164
-275.413	-200.000	0.029	0.177
-274.399	-145.061	-0.069	0.006
-273.384	199.867	0.060	-0.091
-272.370	13.775	0.367	0.282
-271.355	-200.000	-0.067	-0.595
-270.340	-200.000	-0.011	-0.205
-269.326	-200.000	0.032	0.390
-268.311	116.140	0.227	-0.275
-267.297	26.642	-0.256	-0.212
-266.282	-19.041	0.032	0.019
-265.267	-138.786	-0.041	0.004
-264.253	-48.234	0.342	-0.163
-263.238	211.668	0.078	0.121
-262.224	-121.300	-0.184	-0.030
-261.209	-114.433	-0.154	0.029
-260.195	800.000	0.043	-0.187
-259.180	800.000	0.037	0.127
-258.165	203.419	0.151	0.232
-257.151	139.680	-0.066	-0.086
-256.136	-200.000	0.008	0.286
-255.122	51.806	0.068	-0.064
-254.107	20.692	-0.088	-0.070
-253.092	201.553	-0.019	-0.029
-252.078	-108.031	-0.167	-0.036
-251.063	-200.000	0.051	-0.241
-250.049	-122.242	0.150	0.024
-249.034	-13.865	-0.080	0.051
-248.019	783.046	0.068	0.185
-247.005	127.337	-0.191	-0.240
-245.990	-92.512	-0.189	0.053
-244.976	449.183	0.144	0.315
-243.961	581.522	0.091	-0.222
-242.946	55.002	0.186	-0.177
-241.932	-139.100	-0.216	0.023
-240.917	-79.546	0.223	-0.075
-239.903	-56.151	0.433	0.191
-238.888	-91.265	-0.322	0.091
-237.873	-14.746	-0.029	-0.018
-236.859	-200.000	0.001	-0.022
-235.844	120.619	-0.208	0.256
-234.830	22.449	-0.159	-0.128
-233.815	800.000	-0.007	0.024
-232.800	-200.000	-0.017	0.343
-231.786	-189.954	-0.155	0.002
-230.771	-48.183	0.290	-0.139
-229.757	103.567	-0.087	-0.101
-228.742	-191.750	-0.488	0.005
-227.727	160.606	-0.138	-0.190
-226.713	178.650	-0.110	0.159
-225.698	-115.120	-0.301	0.056
-224.684	685.443	0.009	-0.024
-223.669	-74.130	0.144	-0.052
-222.655	416.896	0.135	-0.284
-221.640	-44.683	-0.116	-0.057
-220.625	-119.531	-0.155	-0.027
-219.611	-169.074	0.071	0.003
-218.596	-200.000	0.012	-0.410
-217.582	-200.000	0.032	-0.320
-216.567	800.000	-0.061	-0.169
-215.552	55.725	-0.370	-0.354
-214.538	57.149	-0.047	0.045
-213.523	49.248	0.165	-0.153
-212.509	267.954	-0.019	-0.033
-211.494	-81.494	-0.095	0.031
-210.479	201.848	0.063	0.096
-209.465	741.356	0.064	-0.169
-208.450	800.000	0.101	-0.402
-207.436	-50.814	-0.174	-0.081
-206.421	-15.630	0.220	0.139
-205.406	332.411	-0.080	0.153
-204.392	62.363	-0.026	0.026
-203.377	-98.106	-0.157	0.040
-202.363	357.329	0.218	0.429
-201.348	-200.000	0.025	0.251
-200.333	-196.840	-0.227	-0.001
-199.319	-83.999	-0.311	-0.098
-198.304	-122.155	-0.392	0.063
-197.290	-128.217	-0.118	-0.017
-196.275	6.211	0.123	0.090
-195.260	-107.051	0.412	-0.090
-194.246	198.687	0.131	-0.198
-193.231	277.239	-0.096	0.168
-192.217	109.521	0.129	-0.153
-191.202	-41.146	0.303	0.154
-190.187	98.126	-0.135	0.154
-189.173	800.000	0.017	0.072
-188.158	800.000	0.051	0.217
-187.144	-200.000	-0.005	0.155
-186.129	58.078	0.078	0.076
-185.114	506.786	0.182	0.417
-184.100	-40.946	-0.513	0.262
-183.085	-142.186	0.208	-0.020
-182.071	-86.092	0.122	-0.037
-181.056	-11.572	0.128	0.083
-180.042	800.000	-0.093	-0.264
-179.027	240.106	0.116	-0.190
-178.012	-97.213	0.101	0.026
-176.998	250.041	0.031	-0.051
-175.983	20.895	-0.044	-0.035
-174.969	-164.331	0.218	-0.010
-173.954	-200.000	-0.002	0.148
-172.939	-87.359	0.141	0.042
-171.925	-160.748	0.281	0.015
-170.910	-200.000	-0.033	-0.150
-169.896	800.000	-0.081	-0.252
-168.881	-33.223	0.096	0.053
-167.866	754.487	0.079	0.211
-166.852	-200.000	-0.007	0.386
-165.837	-47.811	-0.237	-0.113
-164.823	-166.797	-0.125	-0.005
-163.808	-200.000	-0.017	0.421
-162.793	800.000	0.107	0.331
-161.779	-200.000	-0.039	-0.474
-160.764	12.407	-0.162	0.123
-159.750	800.000	-0.043	0.167
-158.735	800.000	0.058	-0.227
-157.720	800.000	0.014	0.056
-156.706	115.443	0.171	0.206
-155.691	447.761	0.051	0.112
-154.677	800.000	0.038	0.119
-153.662	-11.234	0.390	-0.253
-152.647	-81.931	-0.131	0.042
-151.633	-200.000	-0.021	-0.105
-150.618	221.804	0.033	-0.053
-149.604	-45.813	-0.185	-0.090
-148.589	-200.000	-0.015	-0.394
-147.574	153.403	0.215	-0.290
-146.560	-200.000	0.118	0.001
-145.545	53.413	0.201	-0.190
-144.531	463.190	0.078	0.171
-143.516	-103.434	-0.208	-0.048
-142.502	-128.406	0.289	-0.040
-141.487	-52.461	0.327	-0.149
-140.472	183.813	0.051	0.075
-139.458	-52.181	0.312	0.142
-138.443	119.197	0.109	0.133
-137.429	-173.395	0.438	0.013
-136.414	4.751	-0.142	-0.103
-135.399	-200.000	0.041	0.308
-134.385	377.814	-0.085	0.171
-133.370	-200.000	0.028	0.320
-132.356	-8.048	-0.103	-0.068
-131.341	-45.556	-0.149	-0.073
-130.326	-6.887	-0.189	-0.127
-129.312	-122.822	-0.117	-0.019
-128.297	-34.221	-0.268	0.145
-127.283	108.506	-0.094	0.111
-126.268	-169.090	-0.302	0.011
-125.253	-58.183	-0.140	-0.060
-124.239	287.538	0.099	-0.176
-123.224	-122.371	0.146	0.023
-122.210	800.000	-0.149	0.482
-121.195	-200.000	0.026	-0.226
-120.180	70.038	0.142	0.144
-119.166	6.492	-0.149	0.109
-118.151	622.680	-0.116	0.287
-117.137	133.410	-0.147	-0.187
-116.122	45.902	0.194	0.176
-115.107	-200.000	0.030	0.342
-114.093	-67.002	-0.557	-0.217
-113.078	-200.000	0.029	0.311
-112.064	21.156	0.378	0.302
-111.049	-200.000	0.047	0.335
-110.034	800.000	0.094	-0.270
-109.020	-200.000	0.033	-0.170
-108.005	800.000	-0.033	-0.137
-106.991	-17.477	-0.269	-0.166
-105.976	-55.438	0.134	0.059
-104.962	624.352	-0.160	0.397
-103.947	51.422	-0.057	0.053
-102.932	177.748	0.035	-0.050
-101.918	505.729	-0.079	0.180
-100.903	-200.000	-0.003	0.061
-99.889	-200.000	0.016	-0.099
-98.874	-50.043	-0.097	0.045
-97.859	-6.781	-0.342	-0.229
-96.845	-4.519	-0.221	-0.150
-95.830	-60.592	-0.387	0.162
-94.816	800.000	-0.061	0.178
-93.801	-200.000	-0.017	-0.340
-92.786	800.000	0.042	-0.134
-91.772	-200.000	-0.022	0.399
-90.757	546.971	-0.072	0.170
-89.743	551.881	0.147	-0.348
-88.728	93.444	0.189	0.210
-87.713	93.278	0.233	0.259
-86.699	80.799	0.260	0.275
-85.684	-38.512	0.315	0.164
-84.670	-75.179	-0.362	0.127
-83.655	-89.265	-0.326	-0.094
-82.640	-15.836	-0.213	0.133
-81.626	-6.322	0.357	-0.239
-80.611	-44.660	-0.257	0.126
-79.597	-200.000	-0.020	-0.208
-78.582	-200.000	0.013	-0.162
-77.567	206.547	0.173	0.264
-76.553	-13.331	0.006	-0.004
-75.538	-200.000	-0.026	-0.154
-74.524	800.000	-0.035	-0.114
-73.509	-200.000	0.032	0.292
-72.494	498.156	-0.043	-0.098
-71.480	22.858	-0.279	0.225
-70.465	-92.007	-0.196	0.054
-69.451	-200.000	0.011	-0.273
-68.436	352.673	0.017	0.033
-67.422	-139.413	-0.239	-0.025
-66.407	-120.033	0.055	0.009
-65.392	-58.434	0.125	-0.054
-64.378	800.000	0.035	0.132
-63.363	-109.717	-0.489	-0.101
-62.349	-200.000	-0.003	-0.510
-61.334	64.956	-1.026	-1.017
-60.319	119.416	0.526	0.640
-59.305	673.888	-0.331	-0.844
-58.290	562.022	0.465	1.105
-57.276	443.059	0.660	1.420
-56.261	-200.000	101.757	598.794
-55.246	573.676	1418.530	3397.356
-54.232	190.637	2602.672	3841.726
-53.217	117.739	2138.073	2584.967
-52.203	43.087	1593.517	1427.666
-51.188	34.932	1330.021	1143.068
-50.173	31.790	1288.625	1089.217
-49.159	55.688	1339.893	1274.681
-48.144	57.129	1356.587	1299.033
-47.130	35.066	1312.342	1128.486
-46.115	31.528	1295.223	1093.089
-45.100	31.342	1290.336	1087.839
-44.086	31.259	1287.664	1085.061
-43.071	31.209	1285.401	1082.821
-42.057	31.183	1283.489	1081.020
-41.042	31.282	1282.330	1080.571
-40.027	31.229	1280.403	1078.602
-39.013	31.315	1278.775	1077.684
-37.998	31.359	1276.525	1075.998
-36.984	31.472	1274.531	1074.921
-35.969	31.448	1272.743	1073.232
-34.954	31.360	1271.593	1071.718
-33.940	31.378	1270.376	1070.752
-32.925	31.478	1269.122	1070.226
-31.911	31.530	1267.620	1069.214
-30.896	31.396	1266.241	1067.242
-29.881	31.410	1265.079	1066.301
-28.867	31.521	1263.130	1065.245
-27.852	31.508	1261.408	1063.679
-26.838	31.515	1260.193	1062.653
-25.823	31.475	1258.761	1061.174
-24.809	31.295	1257.797	1059.300
-23.794	31.291	1256.598	1058.223
-22.779	31.447	1254.967	1057.692
-21.765	31.549	1253.197	1056.736
-20.750	31.429	1252.324	1055.277
-19.736	31.388	1250.782	1053.707
-18.721	31.308	1250.312	1052.820
-17.706	31.263	1249.010	1051.429
-16.692	31.273	1248.025	1050.613
-15.677	31.268	1247.000	1049.677
-14.663	31.210	1245.762	1048.268
-13.648	31.239	1244.443	1047.283
-12.633	31.285	1243.373	1046.597
-11.619	31.164	1243.073	1045.624
-10.604	31.276	1241.948	1045.263
-9.590	31.217	1241.140	1044.210
-8.575	31.287	1239.860	1043.485
-7.560	31.213	1239.501	1042.727
-6.546	31.176	1238.289	1041.462
-5.531	31.165	1237.250	1040.487
-4.517	31.309	1236.317	1040.464
-3.502	31.353	1235.243	1039.759
-2.487	31.323	1234.511	1038.935
-1.473	31.194	1230.434	1034.749
-0.458	29.407	1214.883	1011.839
0.556	26.115	1196.190	967.984
1.571	21.618	1200.294	946.958
2.586	20.546	1214.302	952.059
3.600	19.738	1202.517	938.351
4.615	15.074	1132.548	859.780
5.629	7.495	1060.625	768.532
6.644	3.986	1042.400	738.539
7.659	3.826	1039.964	735.984
8.673	3.685	1038.716	734.363
9.688	3.793	1037.225	733.760
10.702	3.922	1035.672	733.208
11.717	8.157	1040.921	756.997
12.731	15.894	1051.766	801.792
13.746	20.450	1057.107	827.548
14.761	20.748	1056.932	828.759
15.775	19.724	1055.409	822.617
16.790	18.810	1053.329	816.580
17.804	18.082	1051.621	811.728
18.819	17.877	1050.767	810.023
19.834	17.716	1050.012	808.609
20.848	17.606	1049.313	807.479
21.863	17.376	1048.369	805.590
22.877	17.221	1047.765	804.323
23.892	17.209	1047.045	803.643
24.907	17.264	1046.397	803.330
25.921	17.238	1045.114	802.152
26.936	17.219	1044.285	801.357
27.950	17.243	1042.497	800.029
28.965	17.354	1041.127	799.427
29.980	17.484	1039.632	798.819
30.994	17.601	1038.867	798.708
32.009	17.630	1037.315	797.580
33.023	17.600	1036.749	796.933
34.038	17.489	1036.048	795.804
35.053	17.368	1035.017	794.377
36.067	17.420	1033.783	793.604
37.082	17.442	1032.816	792.895
38.096	17.505	1032.385	792.786
39.111	17.528	1031.849	792.412
40.126	17.259	1031.028	790.459
41.140	17.166	1028.954	788.369
42.155	17.030	1028.052	786.975
43.169	16.910	1027.026	785.566
44.184	16.975	1025.957	784.977
45.199	16.948	1025.170	784.181
46.213	17.026	1024.155	783.697
47.228	17.232	1023.407	784.007
48.242	17.335	1022.590	783.786
49.257	17.307	1021.057	782.412
50.271	17.269	1020.789	781.961
51.286	17.380	1019.654	781.536
52.301	17.343	1018.419	780.351
53.315	17.228	1017.761	779.247
54.330	17.001	1016.351	777.062
55.344	17.001	1015.889	776.638
56.359	17.039	1015.129	776.163
57.374	17.151	1013.808	775.595
58.388	16.983	1013.105	774.222
59.403	16.886	1012.410	773.179
60.417	17.013	1011.012	772.623
61.432	16.973	1010.452	771.944
62.447	16.935	1010.017	771.370
63.461	16.880	1008.884	770.186
64.476	16.770	1007.961	768.915
65.490	16.721	1007.530	768.294
66.505	16.893	1006.613	768.307
67.520	16.800	1005.970	767.330
68.534	16.935	1005.107	767.212
69.549	16.688	1004.841	765.823
70.563	16.796	1003.472	765.200
71.578	16.574	1003.006	763.778
72.593	16.613	1002.169	763.245
73.607	16.575	1001.560	762.546
74.622	16.754	1000.546	762.511
75.636	16.588	1000.174	761.414
76.651	16.739	999.149	761.244
77.666	16.711	998.827	760.806
78.680	16.852	997.545	760.394
79.695	16.850	997.431	760.232
80.709	16.955	996.801	760.156
81.724	16.969	996.154	759.659
82.739	17.077	995.560	759.620
83.753	17.265	994.964	759.938
84.768	17.479	994.033	760.115
85.782	17.593	993.161	759.892
86.797	17.391	992.755	758.612
87.812	17.333	992.044	757.741
88.826	17.369	990.659	756.779
89.841	17.545	989.693	756.755
90.855	17.618	988.815	756.339
91.870	17.558	988.631	755.868
92.884	17.571	987.263	754.810
93.899	17.557	986.202	753.871
94.914	17.583	985.876	753.671
95.928	17.579	985.031	752.942
96.943	17.457	984.042	751.578
97.957	17.333	983.158	750.292
98.972	17.416	982.366	749.987
99.987	17.584	981.136	749.720
101.001	17.445	980.653	748.673
102.016	17.413	979.752	747.778
103.030	17.516	978.688	747.354
104.045	17.627	977.710	747.025
105.060	17.453	977.175	745.787
106.074	17.068	976.099	743.216
107.089	16.810	975.308	741.421
108.103	16.918	974.435	741.162
109.118	16.947	973.374	740.415
110.133	16.884	972.306	739.263
111.147	16.854	972.081	738.896
112.162	17.013	970.896	738.622
113.176	17.067	970.439	738.443
114.191	17.133	969.886	738.244
115.206	17.049	968.921	737.079
116.220	17.081	968.003	736.458
117.235	17.063	966.680	735.305
118.249	17.019	966.092	734.604
119.264	16.960	965.450	733.793
120.279	16.831	964.715	732.615
121.293	16.902	963.910	732.245
122.308	16.849	962.605	730.958
123.322	16.741	961.655	729.707
124.337	16.784	960.799	729.179
125.352	16.719	959.879	728.139
126.366	16.898	958.639	727.901
127.381	16.721	958.354	726.859
128.395	16.862	956.957	726.341
129.410	16.815	956.228	725.524
130.424	16.889	955.634	725.325
131.439	17.062	954.888	725.433
132.454	17.057	954.519	725.068
133.468	17.112	953.550	724.501
134.483	17.066	952.625	723.537
135.497	17.082	951.640	722.796
136.512	17.174	950.739	722.437
137.527	17.163	950.171	721.897
138.541	17.245	949.430	721.615
139.556	17.266	948.511	720.942
140.570	17.201	948.300	720.442
141.585	17.447	947.457	720.783
142.600	17.532	946.763	720.549
143.614	17.540	946.170	720.069
144.629	17.580	945.273	719.490
145.643	17.492	944.369	718.369
146.658	17.324	943.075	716.612
147.673	17.213	942.439	715.598
148.687	17.171	941.163	714.387
149.702	17.051	940.523	713.335
150.716	16.978	939.463	712.163
151.731	17.065	938.765	711.934
152.746	17.101	938.558	711.866
153.760	17.184	937.929	711.672
154.775	17.427	937.212	712.084
155.789	17.421	936.619	711.545
156.804	17.366	935.990	710.772
157.819	17.508	934.992	710.544
158.833	17.619	934.191	710.335
159.848	17.588	933.689	709.764
160.862	17.474	932.656	708.442
161.877	17.185	931.942	706.635
162.892	17.247	930.386	705.649
163.906	17.192	929.696	704.835
164.921	17.136	929.034	704.039
165.935	17.322	928.232	704.139
166.950	17.382	927.376	703.673
167.964	17.453	925.853	702.753
168.979	17.275	925.451	701.649
169.994	17.391	924.825	701.592
171.008	17.360	924.247	700.961
172.023	17.461	923.652	700.864
173.037	17.578	923.135	700.891
174.052	17.515	922.159	699.831
175.067	17.387	921.137	698.467
176.081	17.276	920.635	697.570
177.096	17.243	920.332	697.143
178.110	17.193	920.230	696.798
179.125	17.383	918.964	696.558
180.140	17.402	918.435	696.170
181.154	17.474	918.448	696.413
182.169	17.684	917.531	696.517
183.183	17.598	917.240	695.883
184.198	17.666	916.137	695.260
185.213	17.630	915.740	694.751
186.227	17.763	914.822	694.535
187.242	17.730	914.901	694.399
188.256	17.991	913.507	694.342
189.271	17.899	912.977	693.504
190.286	17.492	911.974	691.026
191.300	17.186	910.976	688.970
192.315	17.112	910.723	688.416
193.329	17.266	909.886	688.348
194.344	17.245	909.844	688.170
195.359	17.459	908.901	688.261
196.373	17.495	908.630	688.140
197.388	17.680	908.228	688.520
198.402	17.844	907.499	688.572
199.417	17.874	906.873	688.154
200.432	18.007	906.951	688.691
201.446	18.119	906.385	688.650
202.461	18.106	905.782	688.078
203.475	18.204	904.972	687.796
204.490	17.948	904.156	686.088
205.504	17.801	903.314	684.798
206.519	17.792	902.873	684.368
207.534	17.804	902.054	683.733
208.548	17.871	900.968	683.120
209.563	17.803	900.821	682.674
210.577	17.955	899.932	682.550
211.592	18.068	899.431	682.557
212.607	18.119	898.639	682.102
213.621	18.019	897.968	681.130
214.636	17.860	897.117	679.793
215.650	17.963	896.793	679.897
216.665	18.105	895.922	679.741
217.680	18.192	895.550	679.746
218.694	18.182	894.920	679.169
219.709	18.174	893.898	678.299
220.723	18.045	893.513	677.438
221.738	18.099	892.408	676.753
222.753	18.066	892.314	676.491
223.767	18.190	891.790	676.525
224.782	18.293	891.181	676.408
225.796	18.407	890.469	676.258
226.811	18.323	889.941	675.466
227.826	18.098	889.198	673.954
228.840	18.001	888.268	672.809
229.855	18.107	887.657	672.703
230.869	18.227	886.310	672.096
231.884	18.025	886.054	671.049
232.899	17.873	885.591	670.043
233.913	17.874	885.008	669.543
234.928	17.912	884.198	669.022
235.942	17.884	883.850	668.588
236.957	18.028	883.306	668.684
237.972	17.906	882.663	667.660
238.986	17.909	882.492	667.484
240.001	17.810	881.739	666.469
241.015	17.970	881.065	666.524
242.030	18.110	880.299	666.431
243.045	18.166	879.855	666.254
244.059	18.291	878.993	666.028
245.074	18.367	877.992	665.507
246.088	18.243	877.987	664.964
247.103	18.389	877.731	665.275
248.117	18.551	877.006	665.297
249.132	18.708	876.634	665.565
250.147	18.909	876.075	665.862
251.161	19.045	875.034	665.537
252.176	18.974	874.703	664.950
253.190	18.991	874.122	664.516
254.205	19.016	873.055	663.741
255.220	18.939	872.616	663.052
256.234	18.924	872.026	662.487
257.249	18.947	871.669	662.247
258.263	18.797	870.901	661.028
259.278	18.890	869.760	660.462
260.293	18.865	869.763	660.309
261.307	19.040	869.097	660.418
262.322	19.023	868.675	659.971
263.336	19.049	867.911	659.432
264.351	19.076	866.882	658.697
265.366	19.049	866.578	658.303
266.380	19.088	865.539	657.605
267.395	19.008	865.088	656.897
268.409	19.019	863.842	655.936
269.424	18.996	863.505	655.534
270.439	18.935	862.499	654.482
271.453	18.942	861.661	653.813
272.468	18.843	861.704	653.411
273.482	18.790	861.364	652.894
274.497	18.853	860.459	652.389
275.512	18.796	860.201	651.920
276.526	18.982	859.870	652.317
277.541	19.075	858.976	651.936
278.555	19.101	858.646	651.725
279.570	19.263	857.861	651.683
280.585	19.266	857.097	651.056
281.599	19.142	856.381	649.989
282.614	19.117	855.336	649.042
283.628	19.010	854.961	648.298
284.643	19.140	854.303	648.229
285.657	19.175	853.690	647.839
286.672	19.300	853.116	647.818
287.687	19.110	852.855	646.847
288.701	19.135	851.890	646.151
289.716	19.113	851.751	645.907
290.730	19.118	851.111	645.381
291.745	19.299	850.664	645.664
292.760	19.332	849.959	645.197
293.774	19.386	849.667	645.118
294.789	19.448	848.442	644.362
295.803	19.083	847.944	642.565
296.818	19.111	847.084	641.963
297.833	19.054	846.774	641.458
298.847	19.205	846.200	641.529
299.862	19.176	845.769	641.036
300.876	19.288	845.226	640.987
301.891	19.244	844.783	640.430
302.906	19.497	844.142	640.824
303.920	19.541	843.550	640.484
304.935	19.742	843.194	640.902
305.949	19.417	842.950	639.455
306.964	19.375	841.816	638.382
307.979	19.597	841.367	638.805
308.993	19.641	840.686	638.395
310.008	19.557	839.992	637.501
311.022	19.626	839.629	637.424
312.037	19.480	839.025	636.371
313.052	19.254	838.140	634.813
314.066	19.197	837.845	634.323
315.081	19.307	836.941	633.988
316.095	19.195	836.875	633.469
317.110	19.210	836.125	632.899
318.125	19.350	835.586	632.950
319.139	19.156	835.245	631.924
320.154	19.319	834.501	631.903
321.168	19.337	833.973	631.512
322.183	19.349	833.456	631.110
323.197	19.497	833.085	631.314
324.212	19.409	832.491	630.487
325.227	19.449	831.946	630.165
326.241	19.399	831.397	629.510
327.256	19.302	830.824	628.665
328.270	19.421	830.315	628.658
329.285	19.322	829.729	627.800
330.300	19.310	829.119	627.240
331.314	19.333	828.797	627.025
332.329	19.633	828.140	627.559
333.343	19.645	827.688	627.205
334.358	19.554	827.294	626.522
335.373	19.702	826.729	626.574
336.387	19.836	826.934	627.161
337.402	19.834	826.676	626.903
338.416	19.954	826.253	626.962
339.431	19.973	826.048	626.819
340.446	20.039	825.765	626.786
341.460	20.079	825.402	626.601
342.475	20.083	824.943	626.212
343.489	19.998	824.469	625.487
344.504	20.253	823.940	625.954
345.519	20.200	823.692	625.516
346.533	20.282	822.635	624.955
347.548	20.053	822.174	623.724
348.562	19.957	821.497	622.811
349.577	19.735	820.971	621.559
350.592	19.766	820.555	621.300
351.606	19.837	819.597	620.774
352.621	19.865	818.874	620.274
353.635	19.848	818.459	619.844
354.650	19.870	817.779	619.352
355.665	19.959	817.279	619.235
356.679	19.956	816.703	618.735
357.694	20.011	816.346	618.606
358.708	19.924	815.490	617.593
359.723	20.119	814.839	617.741
360.738	20.061	814.120	616.934
361.752	20.045	813.543	616.383
362.767	20.209	813.385	616.794
363.781	20.420	812.932	617.145
364.796	20.393	812.406	616.594
365.810	20.445	812.592	616.866
366.825	20.524	811.845	616.524
367.840	20.443	811.257	615.735
368.854	20.459	810.684	615.306
369.869	20.382	810.470	614.815
370.883	20.282	809.846	613.931
371.898	20.639	809.335	614.755
372.913	20.557	809.050	614.192
373.927	20.257	808.822	612.906
374.942	20.420	808.084	612.865
375.956	20.644	807.932	613.489
376.971	20.707	807.570	613.380
377.986	20.689	807.273	613.039
379.000	20.720	806.313	612.362
380.015	20.626	806.062	611.787
381.029	20.691	805.358	611.430
382.044	20.783	804.749	611.234
383.059	20.851	804.374	611.133
384.073	20.672	803.526	609.808
385.088	20.586	802.821	608.919
386.102	20.492	802.447	608.251
387.117	20.412	801.703	607.355
388.132	20.333	801.055	606.534
389.146	20.476	800.449	606.519
390.161	20.634	800.048	606.713
391.175	20.738	799.885	606.898
392.190	20.682	799.228	606.151
393.205	20.583	798.955	605.546
394.219	20.513	798.684	605.044
395.234	20.395	797.936	604.014
396.248	20.243	797.782	603.314
397.263	20.302	797.138	602.978
398.278	20.328	796.851	602.800
399.292	20.446	796.074	602.568
400.307	20.405	795.788	602.155
401.321	20.299	795.611	601.601
402.336	20.512	794.630	601.543
403.350	20.633	794.432	601.758
404.365	20.836	793.903	602.007
405.380	20.877	793.809	602.024
406.394	20.835	793.321	601.455
407.409	20.925	793.127	601.565
408.423	20.948	792.771	601.321
409.438	21.139	791.924	601.284
410.453	21.035	792.072	600.984
411.467	21.041	791.489	600.509
412.482	21.287	791.040	600.963
413.496	21.298	790.815	600.774
414.511	21.365	790.307	600.568
415.526	21.158	789.723	599.358
416.540	21.079	789.429	598.811
417.555	21.203	789.025	598.877
418.569	21.214	788.460	598.433
419.584	21.004	788.315	597.550
420.599	21.275	787.531	597.833
421.613	162.282	1369.914	1794.720
422.628	140.525	1454.755	1794.835
