DTS Sentinel unit serial number:	SN413079Multiplexer serial number:	ORYXHardware model number:	OX4-SRSoftware version number:	ORYX F/W v4.00 Oryx Data Collector v3.7.2.0data status	okinstallation	princeton_trtdifferential loss correction	single-endedforward channel	channel 1reverse channel	N/Adate	2019/09/10time	20:00:11forward acquisition time	60.00reverse acquisition time	0.00gamma	496.2192k internal	0.2324k external	0.2324temperature offset calibration	0.9928default loss term (dB/km)	0.3790temperature slope calibration	1.0000multiplexer offset coefficient	1.0000multiplexer slope coefficient	1.0000fibre end	0.00T internal ref (°C)	32.66T ext. ref 1 (°C)	-0.32T ext. ref 2 (°C)	25.60length (m)	temperature (°C)	Stokes	anti-Stokes-747.200	-37.171	-0.295	-0.159
-746.185	-55.243	-0.318	0.144
-745.171	332.172	0.130	0.254
-744.156	163.327	-0.293	0.415
-743.142	-131.625	0.339	-0.045
-742.127	-200.000	-0.021	0.130
-741.112	-79.153	0.190	0.065
-740.098	-30.859	-0.144	0.082
-739.083	492.407	-0.067	-0.154
-738.069	-200.000	-0.032	0.185
-737.054	362.570	-0.103	0.208
-736.039	-200.000	-0.005	0.143
-735.025	547.019	0.105	0.254
-734.010	-7.218	0.061	0.042
-732.996	117.479	-0.275	-0.342
-731.981	65.661	0.182	-0.186
-730.966	-42.826	-0.180	0.092
-729.952	-200.000	0.111	0.001
-728.937	95.962	-0.200	-0.230
-727.923	-59.499	0.219	0.095
-726.908	-14.358	-0.136	-0.088
-725.894	167.474	0.145	-0.208
-724.879	-126.373	-0.037	-0.006
-723.864	-63.819	-0.063	-0.026
-722.850	800.000	0.058	-0.211
-721.835	-200.000	-0.059	-0.412
-720.821	-35.586	-0.210	-0.115
-719.806	-200.000	-0.001	0.047
-718.791	147.453	0.079	-0.108
-717.777	62.980	-0.171	-0.173
-716.762	-110.548	0.282	0.059
-715.748	149.417	-0.210	-0.286
-714.733	-76.029	-0.117	-0.042
-713.718	-167.485	-0.311	-0.013
-712.704	54.544	-0.211	0.205
-711.689	-200.000	-0.023	-0.142
-710.675	-42.470	-0.081	-0.042
-709.660	141.132	-0.235	0.314
-708.645	-200.000	-0.005	0.184
-707.631	-200.000	-0.020	0.088
-706.616	-137.397	-0.286	-0.033
-705.602	-200.000	-0.045	-0.339
-704.587	-200.000	-0.010	-0.117
-703.572	-122.717	-0.075	-0.012
-702.558	800.000	0.023	0.064
-701.543	-168.334	0.083	0.003
-700.529	-69.003	0.081	0.032
-699.514	-9.368	-0.236	0.159
-698.499	-143.689	0.196	-0.019
-697.485	-77.019	0.383	-0.135
-696.470	108.556	0.037	-0.044
-695.456	-137.127	-0.148	-0.017
-694.441	157.693	-0.022	-0.030
-693.426	261.820	0.081	-0.141
-692.412	122.727	-0.248	-0.313
-691.397	98.830	-0.117	0.136
-690.383	214.618	-0.088	-0.140
-689.368	-200.000	0.011	0.068
-688.354	418.220	-0.095	-0.205
-687.339	-160.921	-0.181	0.010
-686.324	-45.479	0.259	0.129
-685.310	-51.230	0.358	-0.169
-684.295	-200.000	-0.005	0.124
-683.281	-23.382	0.084	-0.051
-682.266	68.134	-0.134	0.138
-681.251	-189.310	0.145	0.002
-680.237	14.805	-0.072	-0.057
-679.222	15.778	-0.241	0.191
-678.208	-48.253	-0.149	-0.072
-677.193	-48.590	0.086	0.042
-676.178	-102.276	0.142	0.034
-675.164	141.464	0.045	0.059
-674.149	146.220	-0.083	0.112
-673.135	-106.924	0.100	-0.022
-672.120	-200.000	0.001	-0.131
-671.105	-102.360	-0.261	-0.063
-670.091	-82.028	0.220	0.072
-669.076	157.557	-0.122	-0.169
-668.062	226.422	0.140	-0.228
-667.047	140.767	-0.183	-0.243
-666.032	-163.765	0.164	-0.008
-665.018	-84.586	0.352	0.112
-664.003	800.000	0.070	-0.194
-662.989	-43.133	-0.171	0.087
-661.974	-43.533	-0.327	0.166
-660.959	97.248	-0.158	-0.183
-659.945	-143.041	0.242	-0.023
-658.930	-16.628	-0.116	-0.074
-657.916	191.312	-0.163	0.247
-656.901	-120.074	0.309	0.053
-655.886	-200.000	-0.036	-0.285
-654.872	52.658	-0.282	-0.271
-653.857	8.470	0.219	-0.166
-652.843	506.301	0.075	-0.175
-651.828	800.000	0.124	0.530
-650.814	184.301	0.125	-0.186
-649.799	-156.941	0.127	0.008
-648.784	-200.000	-0.011	-0.268
-647.770	800.000	-0.073	-0.232
-646.755	-187.458	0.369	-0.005
-645.741	-200.000	0.034	0.162
-644.726	-200.000	-0.060	-0.341
-643.711	-108.549	-0.080	0.017
-642.697	-200.000	0.032	0.170
-641.682	-5.406	-0.107	-0.074
-640.668	133.101	0.155	-0.201
-639.653	583.583	-0.084	-0.207
-638.638	8.464	0.129	0.097
-637.624	-170.902	0.051	0.002
-636.609	-200.000	-0.027	-0.128
-635.595	77.509	-0.244	0.262
-634.580	406.470	-0.169	-0.358
-633.565	-163.412	0.289	-0.014
-632.551	800.000	0.006	-0.027
-631.536	-200.000	0.013	-0.151
-630.522	-200.000	-0.033	-0.169
-629.507	-71.959	0.228	0.085
-628.492	-160.438	0.189	0.010
-627.478	-89.121	0.265	0.079
-626.463	-75.506	-0.313	-0.112
-625.449	93.866	-0.126	0.143
-624.434	313.675	0.217	0.409
-623.419	-3.082	-0.178	0.125
-622.405	81.555	0.084	-0.091
-621.390	224.717	-0.186	0.302
-620.376	1.449	-0.075	-0.054
-619.361	27.380	-0.083	-0.070
-618.346	-200.000	0.015	0.297
-617.332	-122.933	-0.141	0.023
-616.317	171.796	0.156	0.226
-615.303	-26.529	-0.066	0.039
-614.288	480.550	-0.040	0.091
-613.273	-99.432	0.085	-0.021
-612.259	6.910	0.273	-0.204
-611.244	-80.758	0.067	-0.022
-610.230	-175.539	0.221	0.006
-609.215	-200.000	0.057	-0.273
-608.201	-200.000	0.017	-0.327
-607.186	761.160	-0.153	0.416
-606.171	-115.411	-0.339	-0.064
-605.157	-191.558	-0.253	-0.003
-604.142	-200.000	0.014	-0.135
-603.128	-111.104	-0.567	0.117
-602.113	-200.000	0.014	-0.119
-601.098	136.519	0.077	0.100
-600.084	220.742	-0.340	0.547
-599.069	-200.000	0.018	0.132
-598.055	-55.142	0.295	0.133
-597.040	107.170	0.085	0.101
-596.025	-47.137	-0.306	-0.150
-595.011	774.664	0.065	-0.177
-593.996	-125.160	0.177	0.027
-592.982	-104.094	0.067	0.016
-591.967	258.368	-0.058	-0.100
-590.952	-82.608	0.281	0.091
-589.938	-81.373	-0.058	-0.019
-588.923	-200.000	-0.040	-0.319
-587.909	15.961	0.396	-0.313
-586.894	800.000	0.052	-0.185
-585.879	-134.020	0.206	0.026
-584.865	-200.000	0.011	-0.094
-583.850	-32.794	0.182	-0.102
-582.836	-81.190	0.240	-0.079
-581.821	800.000	0.015	-0.048
-580.806	153.895	-0.135	0.186
-579.792	-135.699	0.197	-0.023
-578.777	-162.854	0.051	0.003
-577.763	107.248	0.181	0.216
-576.748	-81.265	0.219	-0.073
-575.733	800.000	0.027	0.102
-574.719	311.697	-0.069	0.129
-573.704	576.099	0.061	0.149
-572.690	-200.000	0.010	-0.065
-571.675	8.434	0.114	0.086
-570.661	800.000	0.102	-0.366
-569.646	75.670	0.166	0.176
-568.631	-200.000	0.025	-0.164
-567.617	-69.905	0.069	-0.026
-566.602	59.452	-0.048	-0.047
-565.588	-195.199	0.070	0.001
-564.573	10.001	0.078	-0.059
-563.558	-149.850	-0.169	-0.013
-562.544	-163.577	-0.235	-0.011
-561.529	-142.718	0.251	-0.025
-560.515	-89.545	-0.133	-0.039
-559.500	-200.000	0.012	0.193
-558.485	34.476	-0.108	-0.094
-557.471	101.660	-0.048	0.056
-556.456	-62.140	0.094	0.039
-555.442	-59.212	-0.297	-0.128
-554.427	-25.114	-0.353	0.210
-553.412	-114.914	-0.355	-0.068
-552.398	-189.884	0.287	0.003
-551.383	-106.445	0.076	-0.017
-550.369	149.573	-0.097	-0.131
-549.354	-87.855	-0.194	0.059
-548.339	-69.146	0.093	-0.036
-547.325	-200.000	-0.029	-0.158
-546.310	66.837	-0.054	-0.055
-545.296	149.457	0.170	-0.231
-544.281	-200.000	0.016	-0.341
-543.266	94.577	-0.118	-0.134
-542.252	60.576	0.207	0.205
-541.237	-200.000	-0.011	-0.115
-540.223	345.428	-0.145	-0.284
-539.208	-69.317	-0.109	-0.042
-538.193	261.239	-0.026	-0.045
-537.179	-175.286	-0.041	0.001
-536.164	40.136	-0.240	0.216
-535.150	-200.000	-0.015	-0.163
-534.135	-113.619	-0.092	0.018
-533.121	-5.785	-0.113	-0.078
-532.106	41.387	-0.135	-0.122
-531.091	-30.224	0.147	0.084
-530.077	-200.000	-0.039	-0.224
-529.062	-16.628	0.092	0.059
-528.048	-200.000	0.015	-0.079
-527.033	-14.765	-0.301	0.194
-526.018	-40.574	0.084	0.044
-525.004	-200.000	-0.037	-0.206
-523.989	800.000	0.019	-0.054
-522.975	138.581	-0.074	0.097
-521.960	-71.124	-0.361	0.136
-520.945	31.081	0.298	-0.256
-519.931	-86.412	0.354	-0.109
-518.916	-82.714	-0.294	0.095
-517.902	641.770	0.026	0.065
-516.887	27.092	0.196	0.165
-515.872	454.112	0.037	0.082
-514.858	-11.154	-0.130	-0.085
-513.843	82.080	0.199	0.216
-512.829	-82.177	0.376	-0.123
-511.814	-200.000	-0.007	0.291
-510.799	800.000	0.021	0.088
-509.785	800.000	-0.013	0.039
-508.770	138.448	-0.058	0.076
-507.756	28.406	-0.207	-0.175
-506.741	493.235	-0.119	-0.272
-505.726	35.974	0.136	0.120
-504.712	-200.000	-0.025	-0.146
-503.697	7.235	-0.133	0.099
-502.683	44.009	-0.044	-0.041
-501.668	-47.201	0.267	-0.130
-500.653	35.535	-0.106	0.093
-499.639	104.332	0.144	-0.169
-498.624	-31.814	-0.203	0.114
-497.610	730.126	0.061	-0.163
-496.595	268.280	-0.130	0.228
-495.581	5.984	0.086	0.064
-494.566	-96.548	-0.181	0.048
-493.551	-52.458	0.251	0.116
-492.537	74.769	0.226	0.237
-491.522	505.737	-0.064	0.149
-490.508	-77.539	0.195	-0.068
-489.493	-94.033	-0.132	0.036
-488.478	44.572	-0.049	-0.045
-487.464	95.015	-0.094	0.107
-486.449	-200.000	-0.001	0.186
-485.435	800.000	-0.069	0.291
-484.420	94.731	-0.154	-0.175
-483.405	-165.317	-0.447	-0.020
-482.391	70.292	0.087	-0.090
-481.376	-200.000	0.018	0.427
-480.362	-200.000	0.003	-0.169
-479.347	-110.104	0.344	0.072
-478.332	-200.000	-0.017	0.266
-477.318	-66.767	0.129	-0.051
-476.303	-10.476	0.045	0.030
-475.289	-200.000	-0.004	-0.219
-474.274	-96.934	-0.280	0.073
-473.259	-56.954	0.270	-0.119
-472.245	-86.444	-0.208	0.064
-471.230	-102.715	0.194	-0.046
-470.216	-58.211	-0.253	-0.110
-469.201	-179.181	0.046	0.001
-468.186	-101.872	-0.205	0.049
-467.172	-19.437	-0.345	0.214
-466.157	71.291	-0.186	-0.193
-465.143	-200.000	-0.044	-0.292
-464.128	800.000	0.060	0.169
-463.113	-2.017	0.089	-0.062
-462.099	-153.516	-0.276	-0.019
-461.084	376.525	0.074	0.151
-460.070	53.049	-0.180	0.172
-459.055	152.262	-0.184	0.250
-458.040	-171.269	-0.366	0.012
-457.026	-144.609	0.390	0.036
-456.011	157.768	0.196	0.272
-454.997	-200.000	-0.036	0.438
-453.982	-6.334	0.138	0.094
-452.968	-92.528	0.388	0.109
-451.953	-200.000	-0.002	-0.030
-450.938	501.208	-0.141	-0.326
-449.924	800.000	0.073	0.242
-448.909	676.913	-0.109	-0.283
-447.895	16.419	-0.050	-0.040
-446.880	-159.942	0.316	-0.017
-445.865	80.472	0.229	0.246
-444.851	29.798	0.088	-0.075
-443.836	8.587	0.281	-0.211
-442.822	196.563	-0.337	0.512
-441.807	1.932	0.166	0.119
-440.792	435.032	-0.183	-0.397
-439.778	104.353	0.135	-0.158
-438.763	26.232	0.162	0.135
-437.749	-200.000	0.040	-0.183
-436.734	194.088	-0.063	-0.094
-435.719	18.534	0.270	0.215
-434.705	-60.398	-0.153	-0.065
-433.690	-24.139	-0.124	-0.074
-432.676	85.437	-0.221	-0.242
-431.661	-87.795	0.167	-0.050
-430.646	190.330	-0.181	-0.271
-429.632	720.700	-0.063	0.166
-428.617	128.937	-0.201	-0.256
-427.603	690.421	-0.129	-0.337
-426.588	-170.037	0.256	-0.009
-425.573	-75.643	0.016	-0.006
-424.559	-54.675	0.573	-0.258
-423.544	129.455	-0.047	-0.059
-422.530	-92.543	0.150	0.042
-421.515	-200.000	-0.049	-0.378
-420.500	800.000	-0.094	0.374
-419.486	230.898	-0.088	-0.143
-418.471	292.421	0.197	0.358
-417.457	106.000	-0.107	-0.127
-416.442	31.405	-0.207	-0.178
-415.428	133.585	-0.044	-0.057
-414.413	206.970	0.074	-0.116
-413.398	800.000	0.014	0.048
-412.384	106.014	-0.162	0.191
-411.369	-30.162	-0.170	0.096
-410.355	112.444	-0.305	-0.367
-409.340	3.155	-0.165	0.120
-408.325	36.828	-0.132	0.116
-407.311	114.784	-0.114	0.138
-406.296	-83.181	0.180	-0.058
-405.282	-87.765	0.182	0.055
-404.267	-200.000	-0.027	0.322
-403.252	-53.618	0.124	0.056
-402.238	-200.000	0.009	-0.252
-401.223	37.522	-0.036	-0.032
-400.209	-200.000	-0.050	0.230
-399.194	10.883	0.099	-0.076
-398.179	16.995	0.195	-0.154
-397.165	-123.267	0.107	0.017
-396.150	-53.498	0.209	-0.095
-395.136	123.419	-0.208	0.259
-394.121	-19.808	0.182	-0.112
-393.106	-17.973	-0.149	0.093
-392.092	800.000	-0.124	-0.480
-391.077	32.272	-0.033	0.028
-390.063	283.783	-0.085	0.152
-389.048	800.000	0.016	-0.059
-388.033	-133.995	0.231	0.028
-387.019	-89.734	-0.077	0.022
-386.004	47.704	0.152	-0.141
-384.990	-200.000	-0.092	0.477
-383.975	22.478	0.171	0.139
-382.960	-117.242	-0.274	0.050
-381.946	-85.989	0.074	-0.023
-380.931	-200.000	-0.049	0.236
-379.917	-100.972	-0.257	0.063
-378.902	-33.186	0.176	-0.097
-377.888	-200.000	-0.050	0.350
-376.873	89.641	-0.092	0.102
-375.858	-200.000	0.005	0.083
-374.844	-51.795	-0.228	-0.106
-373.829	-81.161	0.344	-0.113
-372.815	-200.000	0.029	-0.313
-371.800	-52.176	0.216	0.100
-370.785	252.295	-0.068	0.116
-369.771	-33.711	-0.090	-0.050
-368.756	-32.894	-0.289	-0.160
-367.742	-58.489	0.378	0.163
-366.727	581.490	-0.154	-0.375
-365.712	800.000	-0.078	-0.239
-364.698	-150.637	0.103	0.008
-363.683	35.008	-0.321	-0.279
-362.669	-9.893	0.292	-0.193
-361.654	318.904	-0.075	0.141
-360.639	-162.088	-0.227	-0.011
-359.625	4.507	-0.309	-0.225
-358.610	800.000	0.055	0.165
-357.596	160.511	-0.190	0.264
-356.581	234.080	0.078	-0.127
-355.566	37.417	0.219	0.193
-354.552	559.203	0.098	0.236
-353.537	-71.305	-0.097	-0.036
-352.523	-200.000	0.028	0.304
-351.508	65.956	0.089	0.090
-350.493	-200.000	0.000	0.025
-349.479	672.209	0.102	0.262
-348.464	-200.000	0.029	0.184
-347.450	299.764	0.183	0.334
-346.435	-200.000	0.007	0.036
-345.420	-105.608	-0.260	0.059
-344.406	-124.153	0.268	-0.042
-343.391	-200.000	-0.044	0.253
-342.377	127.449	0.039	-0.049
-341.362	-24.454	-0.235	-0.139
-340.348	39.091	0.140	-0.124
-339.333	800.000	0.050	-0.213
-338.318	800.000	0.184	0.510
-337.304	-35.639	0.322	-0.174
-336.289	8.893	-0.149	-0.112
-335.275	49.940	0.055	0.051
-334.260	126.380	-0.079	0.100
-333.245	656.182	0.009	-0.023
-332.231	324.768	-0.121	0.230
-331.216	-200.000	0.014	0.150
-330.202	-6.225	0.054	0.037
-329.187	18.466	0.227	-0.180
-328.172	725.454	-0.046	0.122
-327.158	-74.095	0.181	0.065
-326.143	-200.000	-0.001	0.044
-325.129	130.309	-0.138	0.176
-324.114	17.729	-0.132	0.105
-323.099	247.354	-0.026	0.044
-322.085	301.224	0.043	-0.078
-321.070	699.381	-0.033	0.086
-320.056	-163.609	-0.394	-0.018
-319.041	331.850	-0.074	0.142
-318.026	246.123	-0.245	0.410
-317.012	-21.567	-0.198	0.120
-315.997	85.831	0.217	0.237
-314.983	-200.000	0.001	-0.109
-313.968	111.873	-0.096	-0.115
-312.953	357.390	0.110	0.218
-311.939	800.000	0.111	-0.319
-310.924	-46.803	0.178	-0.087
-309.910	33.681	0.083	0.072
-308.895	-59.255	-0.452	-0.193
-307.880	687.925	0.097	-0.251
-306.866	-26.577	-0.109	-0.063
-305.851	158.219	0.120	0.165
-304.837	-65.679	0.174	0.069
-303.822	298.029	0.145	-0.265
-302.807	361.395	-0.091	-0.181
-301.793	-97.042	-0.120	-0.031
-300.778	-177.863	-0.274	0.007
-299.764	-127.335	0.091	-0.013
-298.749	-141.696	-0.482	0.048
-297.735	-156.558	0.228	-0.014
-296.720	-59.314	0.223	-0.095
-295.705	-46.480	-0.256	-0.125
-294.691	-90.442	0.135	0.039
-293.676	-177.055	-0.230	0.006
-292.662	800.000	0.027	0.102
-291.647	-185.672	-0.114	-0.002
-290.632	-39.592	0.092	0.048
-289.618	-65.194	0.108	0.043
-288.603	-67.834	-0.221	0.086
-287.589	800.000	-0.032	-0.105
-286.574	-98.252	-0.184	-0.047
-285.559	-96.095	0.266	0.070
-284.545	110.701	-0.154	0.184
-283.530	582.117	0.157	-0.383
-282.516	99.420	-0.156	0.179
-281.501	-73.005	-0.189	-0.069
-280.486	-29.308	0.049	0.028
-279.472	165.822	-0.131	0.184
-278.457	800.000	0.044	0.187
-277.443	97.151	-0.131	-0.149
-276.428	125.404	0.160	0.199
-275.413	218.068	0.105	-0.166
-274.399	-87.039	0.142	0.043
-273.384	-7.746	0.254	-0.170
-272.370	23.905	-0.120	-0.098
-271.355	-53.145	0.318	0.145
-270.340	-153.029	0.260	-0.018
-269.326	67.845	0.159	0.161
-268.311	22.804	-0.027	-0.022
-267.297	800.000	0.048	-0.178
-266.282	-85.097	-0.266	-0.083
-265.267	112.968	0.083	-0.099
-264.253	-123.688	0.290	-0.045
-263.238	24.864	0.108	0.089
-262.224	178.675	-0.141	-0.203
-261.209	-79.139	-0.071	0.024
-260.195	-150.838	0.372	0.028
-259.180	-152.220	-0.144	0.010
-258.165	220.278	-0.089	-0.141
-257.151	48.162	0.115	0.106
-256.136	-67.147	0.175	0.068
-255.122	71.683	0.184	-0.189
-254.107	-200.000	0.023	-0.179
-253.092	47.754	-0.155	-0.143
-252.078	178.578	-0.221	0.319
-251.063	18.447	-0.202	0.160
-250.049	-90.453	-0.124	-0.036
-249.034	-200.000	-0.027	-0.201
-248.019	-125.686	0.264	0.040
-247.005	-200.000	0.006	0.413
-245.990	-8.236	-0.093	0.062
-244.976	47.208	-0.106	0.098
-243.961	44.254	0.144	-0.131
-242.946	-158.732	0.104	0.006
-241.932	-63.639	0.130	0.053
-240.917	800.000	0.046	-0.151
-239.903	-109.607	0.372	0.078
-238.888	693.333	-0.030	0.079
-237.873	800.000	0.127	0.460
-236.859	136.860	-0.068	-0.087
-235.844	297.525	-0.109	-0.198
-234.830	408.899	-0.021	0.045
-233.815	-44.882	0.212	-0.105
-232.800	622.522	0.125	-0.311
-231.786	-176.216	-0.641	0.017
-230.771	377.562	-0.146	0.295
-229.757	-200.000	-0.030	0.156
-228.742	-101.543	0.113	-0.027
-227.727	800.000	-0.082	0.298
-226.713	-5.757	0.239	0.162
-225.698	800.000	-0.081	-0.298
-224.684	-71.887	0.291	-0.107
-223.669	289.463	0.133	-0.239
-222.655	-200.000	0.011	-0.308
-221.640	39.911	0.090	-0.080
-220.625	-136.508	0.331	-0.038
-219.611	-26.896	-0.075	-0.043
-218.596	-104.427	-0.063	-0.014
-217.582	-200.000	-0.092	-0.457
-216.567	-107.267	0.334	0.073
-215.552	-125.479	-0.165	-0.025
-214.538	800.000	-0.077	0.303
-213.523	244.416	0.028	0.046
-212.509	7.716	-0.145	0.107
-211.494	800.000	-0.051	-0.217
-210.479	294.319	0.139	0.251
-209.465	36.835	-0.367	-0.321
-208.450	-65.813	-0.295	0.117
-207.436	45.765	-0.154	0.140
-206.421	378.804	0.195	-0.395
-205.406	-30.808	-0.101	-0.057
-204.392	269.398	-0.101	-0.175
-203.377	-200.000	0.086	-0.478
-202.363	-200.000	-0.033	-0.308
-201.348	646.046	0.072	0.181
-200.333	-109.260	0.334	-0.070
-199.319	800.000	0.002	0.007
-198.304	-9.278	0.230	-0.152
-197.290	7.330	0.178	0.131
-196.275	376.317	-0.151	0.304
-195.260	131.570	0.133	0.169
-194.246	2.354	-0.136	-0.098
-193.231	13.611	0.036	-0.028
-192.217	800.000	-0.014	-0.042
-191.202	-200.000	0.022	-0.161
-190.187	-26.339	0.080	0.046
-189.173	800.000	0.126	-0.400
-188.158	-83.659	0.222	-0.070
-187.144	-5.120	-0.048	-0.032
-186.129	10.393	-0.190	0.143
-185.114	222.191	0.110	0.175
-184.100	224.026	0.067	0.107
-183.085	-77.333	-0.197	0.068
-182.071	-200.000	0.027	0.273
-181.056	-101.230	-0.113	-0.027
-180.042	126.211	0.214	-0.268
-179.027	-25.483	0.110	0.064
-178.012	-66.863	-0.257	0.100
-176.998	-61.624	0.062	-0.026
-175.983	-60.781	-0.272	0.114
-174.969	165.675	-0.166	-0.231
-173.954	-86.466	-0.452	0.137
-172.939	150.663	0.060	-0.080
-171.925	224.483	-0.084	-0.133
-170.910	-200.000	-0.011	-0.131
-169.896	76.320	-0.128	0.134
-168.881	800.000	-0.094	0.279
-167.866	-167.852	-0.243	0.009
-166.852	-97.078	0.261	-0.067
-165.837	-64.391	0.433	-0.174
-164.823	61.865	-0.221	0.217
-163.808	-116.005	0.233	0.043
-162.793	-63.681	-0.303	-0.122
-161.779	800.000	-0.089	0.285
-160.764	80.422	-0.202	0.215
-159.750	-52.939	0.145	-0.066
-158.735	208.152	0.072	-0.111
-157.720	-200.000	-0.002	-0.189
-156.706	33.428	0.073	-0.063
-155.691	267.093	-0.137	-0.237
-154.677	-186.264	0.009	0.000
-153.662	-81.302	-0.185	0.060
-152.647	-33.232	0.293	0.160
-151.633	-29.681	-0.273	0.154
-150.618	-200.000	-0.055	0.347
-149.604	90.532	-0.156	0.172
-148.589	255.307	-0.217	-0.366
-147.574	800.000	0.071	0.220
-146.560	-200.000	-0.038	0.189
-145.545	267.524	-0.110	0.189
-144.531	9.858	0.070	-0.052
-143.516	-110.237	-0.303	0.062
-142.502	-61.920	-0.129	-0.053
-141.487	712.261	-0.056	-0.146
-140.472	-93.903	0.500	0.136
-139.458	38.325	-0.146	0.128
-138.443	-200.000	-0.016	0.181
-137.429	797.293	0.087	0.237
-136.414	-200.000	0.027	-0.122
-135.399	-85.406	0.090	-0.028
-134.385	-178.839	-0.153	-0.003
-133.370	-65.368	-0.341	0.135
-132.356	-3.479	-0.185	-0.127
-131.341	800.000	-0.097	0.406
-130.326	16.241	0.224	-0.174
-129.312	-200.000	-0.016	0.134
-128.297	800.000	-0.113	-0.350
-127.283	800.000	0.065	-0.191
-126.268	-200.000	0.036	-0.532
-125.253	168.579	0.251	-0.352
-124.239	29.316	-0.056	0.047
-123.224	-200.000	0.031	0.289
-122.210	2.683	-0.060	-0.043
-121.195	800.000	-0.041	-0.119
-120.180	-11.797	-0.151	-0.097
-119.166	-181.497	-0.166	-0.003
-118.151	174.768	0.239	0.341
-117.137	80.673	0.299	0.317
-116.122	-33.048	-0.230	0.126
-115.107	-24.200	-0.102	-0.060
-114.093	-26.991	0.158	0.091
-113.078	70.976	-0.153	-0.156
-112.064	106.533	0.132	-0.154
-111.049	-46.768	0.158	0.076
-110.034	199.684	0.157	-0.236
-109.020	-15.331	-0.176	0.111
-108.005	339.662	-0.189	0.363
-106.991	1.048	0.222	0.157
-105.976	360.303	-0.118	0.233
-104.962	200.797	0.172	0.260
-103.947	800.000	0.080	0.222
-102.932	95.504	-0.098	-0.110
-101.918	-67.411	0.389	0.150
-100.903	-165.550	-0.372	-0.016
-99.889	-83.467	0.168	-0.053
-98.874	800.000	0.020	-0.085
-97.859	-61.641	0.099	-0.041
-96.845	-123.200	-0.297	0.047
-95.830	-200.000	0.003	-0.014
-94.816	-14.629	-0.070	0.044
-93.801	213.252	0.092	0.144
-92.786	-54.626	-0.314	0.140
-91.772	800.000	0.043	-0.130
-90.757	119.120	0.188	0.229
-89.743	-114.482	0.228	0.043
-88.728	195.060	0.105	-0.156
-87.713	24.848	0.306	-0.250
-86.699	-200.000	0.012	0.054
-85.684	-95.358	0.186	0.049
-84.670	36.036	0.253	0.219
-83.655	13.565	-0.127	0.097
-82.640	104.138	0.031	0.036
-81.626	219.013	0.027	-0.043
-80.611	141.487	0.071	0.092
-79.597	60.677	0.099	-0.096
-78.582	95.022	-0.317	-0.355
-77.567	108.757	0.138	-0.162
-76.553	211.337	0.007	0.011
-75.538	-63.483	0.256	0.103
-74.524	-200.000	-0.011	-0.173
-73.509	800.000	0.052	-0.210
-72.494	-123.109	-0.150	0.024
-71.480	-80.338	0.119	-0.039
-70.465	132.411	-0.028	0.035
-69.451	1.270	0.278	0.196
-68.436	57.390	0.252	-0.242
-67.422	205.596	-0.117	0.178
-66.407	-61.955	0.140	0.058
-65.392	-200.000	-0.005	0.353
-64.378	339.056	-0.121	0.232
-63.363	-200.000	0.020	0.157
-62.349	-128.535	0.104	-0.014
-61.334	220.829	-0.657	-1.036
-60.319	800.000	0.167	0.481
-59.305	800.000	-0.267	-0.997
-58.290	238.428	0.638	1.041
-57.276	-200.000	0.362	1.683
-56.261	-200.000	99.693	606.019
-55.246	603.086	1419.866	3469.740
-54.232	188.057	2615.832	3839.927
-53.217	117.176	2161.044	2609.195
-52.203	44.498	1613.740	1456.580
-51.188	36.248	1351.788	1170.316
-50.173	32.998	1310.005	1114.953
-49.159	54.630	1358.657	1286.859
-48.144	56.646	1375.234	1314.621
-47.130	36.268	1331.919	1153.050
-46.115	32.901	1314.223	1117.786
-45.100	32.780	1309.562	1113.066
-44.086	32.655	1306.645	1109.805
-43.071	32.602	1304.675	1107.777
-42.057	32.478	1302.896	1105.493
-41.042	32.564	1301.152	1104.473
-40.027	32.635	1299.705	1103.618
-39.013	32.553	1297.991	1101.642
-37.998	32.539	1296.051	1099.871
-36.984	32.700	1294.027	1099.044
-35.969	32.777	1292.220	1097.918
-34.954	32.663	1290.989	1096.166
-33.940	32.727	1289.612	1095.323
-32.925	32.705	1288.618	1094.306
-31.911	32.669	1287.302	1092.935
-30.896	32.700	1285.735	1091.743
-29.881	32.796	1283.840	1090.644
-28.867	32.756	1282.895	1089.567
-27.852	32.794	1281.142	1088.258
-26.838	32.713	1280.041	1086.810
-25.823	32.755	1278.200	1085.447
-24.809	32.832	1276.688	1084.561
-23.794	32.706	1275.277	1082.594
-22.779	32.694	1274.505	1081.827
-21.765	32.827	1272.677	1080.994
-20.750	32.742	1271.253	1079.260
-19.736	32.663	1270.582	1078.192
-18.721	32.553	1269.745	1076.810
-17.706	32.735	1267.736	1076.103
-16.692	32.618	1266.849	1074.640
-15.677	32.627	1266.090	1074.003
-14.663	32.653	1264.509	1072.770
-13.648	32.570	1263.869	1071.711
-12.633	32.644	1262.714	1071.113
-11.619	32.531	1262.243	1070.027
-10.604	32.583	1261.235	1069.426
-9.590	32.460	1260.423	1067.995
-8.575	32.589	1259.073	1067.539
-7.560	32.579	1258.125	1066.637
-6.546	32.527	1257.457	1065.736
-5.531	32.565	1256.587	1065.169
-4.517	32.594	1255.782	1064.608
-3.502	32.630	1255.115	1064.204
-2.487	32.605	1253.767	1062.882
-1.473	32.509	1250.056	1059.150
-0.458	30.886	1234.904	1037.246
0.556	24.752	1216.064	996.320
1.571	20.805	1220.804	977.993
2.586	19.957	1235.593	984.932
3.600	19.703	1225.366	975.259
4.615	14.356	1153.355	889.393
5.629	4.555	1076.538	781.032
6.644	-0.048	1055.813	743.202
7.659	-0.400	1053.218	739.574
8.673	-0.361	1051.364	738.398
9.688	-0.480	1050.327	737.020
10.702	-0.048	1048.749	737.970
11.717	5.857	1057.396	773.156
12.731	14.974	1070.305	827.825
13.746	18.432	1074.201	847.909
14.761	18.342	1073.780	847.054
15.775	18.212	1073.221	845.894
16.790	18.014	1072.105	843.965
17.804	17.840	1071.529	842.578
18.819	18.059	1071.093	843.240
19.834	17.989	1070.614	842.445
20.848	18.029	1069.912	842.012
21.863	18.054	1069.371	841.636
22.877	17.943	1068.733	840.515
23.892	17.943	1068.297	840.096
24.907	18.079	1067.457	840.031
25.921	17.974	1066.486	838.677
26.936	18.022	1064.730	837.456
27.950	17.951	1063.384	835.976
28.965	17.710	1061.068	832.906
29.980	17.828	1059.372	832.073
30.994	18.040	1058.473	832.328
32.009	18.043	1056.808	830.961
33.023	17.788	1055.908	828.940
34.038	17.885	1055.091	828.694
35.053	18.081	1054.267	828.926
36.067	18.023	1053.639	828.077
37.082	18.195	1052.394	827.855
38.096	18.286	1052.095	827.989
39.111	18.241	1051.311	827.081
40.126	18.171	1050.080	825.702
41.140	17.807	1047.866	822.136
42.155	17.762	1046.439	820.723
43.169	17.838	1045.407	820.209
44.184	17.946	1044.150	819.670
45.199	17.773	1043.140	817.975
46.213	17.731	1042.375	817.102
47.228	17.747	1041.264	816.232
48.242	17.890	1040.360	816.136
49.257	17.884	1039.673	815.496
50.271	17.973	1038.533	814.955
51.286	17.922	1037.863	814.115
52.301	18.047	1036.537	813.598
53.315	18.011	1035.532	812.563
54.330	17.889	1034.698	811.259
55.344	18.085	1034.040	811.600
56.359	17.988	1033.020	810.268
57.374	17.844	1032.074	808.772
58.388	17.835	1031.332	808.076
59.403	17.756	1030.665	807.107
60.417	17.671	1029.461	805.696
61.432	17.767	1028.909	805.642
62.447	17.864	1028.447	805.667
63.461	17.949	1027.075	804.922
64.476	18.038	1025.996	804.427
65.490	17.818	1025.515	802.941
66.505	17.901	1024.297	802.305
67.520	17.890	1023.908	801.879
68.534	17.605	1023.009	799.768
69.549	17.428	1021.691	797.835
70.563	17.439	1021.237	797.464
71.578	17.565	1020.589	797.477
72.593	17.452	1019.231	795.815
73.607	17.649	1018.665	796.227
74.622	17.844	1018.569	796.990
75.636	17.891	1017.587	796.369
76.651	17.725	1016.827	794.933
77.666	17.615	1016.056	793.744
78.680	17.631	1015.415	793.249
79.695	17.783	1014.709	793.336
80.709	17.917	1013.501	792.942
81.724	17.820	1013.094	792.104
82.739	17.873	1012.238	791.609
83.753	17.945	1012.045	791.724
84.768	18.260	1010.814	792.147
85.782	18.262	1009.757	791.261
86.797	18.199	1008.730	790.094
87.812	18.026	1007.758	788.466
88.826	18.158	1006.746	788.211
89.841	18.191	1005.585	787.384
90.855	18.098	1004.740	786.224
91.870	18.143	1003.666	785.522
92.884	18.029	1002.815	784.265
93.899	18.123	1001.512	783.605
94.914	18.186	1000.656	783.156
95.928	18.041	999.499	781.519
96.943	17.788	998.601	779.589
97.957	17.661	997.202	777.848
98.972	17.575	996.051	776.490
99.987	17.820	995.576	777.168
101.001	18.002	994.828	777.341
102.016	17.971	994.070	776.541
103.030	17.735	993.069	774.616
104.045	17.672	991.916	773.362
105.060	17.494	990.547	771.420
106.074	17.767	989.978	772.145
107.089	18.248	989.309	773.731
108.103	18.069	988.100	771.909
109.118	18.021	986.586	770.445
110.133	17.989	986.098	769.849
111.147	17.803	984.935	768.036
112.162	17.717	983.701	766.618
113.176	17.878	983.044	766.761
114.191	17.815	982.117	765.689
115.206	17.479	981.137	763.348
116.220	17.418	980.475	762.495
117.235	17.677	979.323	762.689
118.249	17.639	978.627	761.909
119.264	17.719	977.464	761.293
120.279	17.875	976.564	761.220
121.293	17.796	975.996	760.360
122.308	17.757	975.234	759.526
123.322	17.833	973.445	758.403
124.337	17.590	972.674	756.655
125.352	17.223	970.755	753.468
126.366	17.134	969.291	751.870
127.381	17.709	969.125	754.219
128.395	18.070	968.386	755.175
129.410	18.224	967.293	754.936
130.424	18.179	966.458	754.019
131.439	18.155	965.175	752.846
132.454	18.085	963.699	751.321
133.468	17.920	963.537	750.402
134.483	18.150	962.523	750.557
135.497	18.335	961.846	750.774
136.512	18.298	960.945	749.838
137.527	18.454	959.765	749.535
138.541	18.391	958.924	748.538
139.556	18.246	958.323	747.370
140.570	18.307	957.291	746.764
141.585	18.314	956.271	745.933
142.600	18.246	955.186	744.726
143.614	18.444	954.347	744.866
144.629	18.585	953.343	744.626
145.643	18.404	952.585	743.185
146.658	18.201	951.234	741.188
147.673	18.094	950.209	739.860
148.687	18.104	949.249	739.089
149.702	18.136	948.010	738.196
150.716	18.164	946.725	737.250
151.731	18.196	946.821	737.400
152.746	18.397	946.325	737.814
153.760	18.482	945.559	737.517
154.775	18.438	945.071	736.881
155.789	18.531	943.687	736.135
156.804	18.447	943.285	735.396
157.819	18.468	941.787	734.255
158.833	18.553	940.902	733.864
159.848	18.452	940.045	732.696
160.862	18.297	939.008	731.164
161.877	18.449	938.090	731.032
162.892	18.543	937.382	730.816
163.906	18.477	936.644	729.896
164.921	18.514	935.539	729.127
165.935	18.513	934.674	728.383
166.950	18.345	933.767	726.901
167.964	18.432	932.966	726.583
168.979	18.275	931.925	725.040
169.994	18.261	930.475	723.790
171.008	18.432	930.594	724.542
172.023	18.430	929.116	723.317
173.037	18.202	927.970	721.401
174.052	18.113	927.398	720.514
175.067	18.172	926.691	720.153
176.081	18.271	926.302	720.201
177.096	18.300	925.907	719.952
178.110	18.000	924.662	717.661
179.125	17.775	923.880	716.048
180.140	17.957	923.378	716.357
181.154	18.063	922.808	716.298
182.169	18.223	922.436	716.613
183.183	18.563	922.121	717.732
184.198	18.352	921.168	716.042
185.213	18.431	920.362	715.681
186.227	18.471	919.591	715.186
187.242	18.549	918.584	714.665
188.256	18.526	918.154	714.171
189.271	18.492	917.577	713.517
190.286	18.350	916.367	711.923
191.300	17.876	914.945	708.788
192.315	17.150	913.846	704.861
193.329	17.155	913.267	704.374
194.344	17.867	913.701	707.597
195.359	18.449	913.389	709.709
196.373	18.468	912.717	709.200
197.388	18.351	911.933	708.046
198.402	18.139	911.038	706.413
199.417	18.213	910.633	706.339
200.432	17.808	909.711	703.890
201.446	17.802	908.765	703.072
202.461	17.809	907.865	702.341
203.475	17.146	906.311	698.354
204.490	16.501	905.145	694.742
205.504	17.456	905.305	698.728
206.519	18.064	905.329	701.180
207.534	18.096	904.558	700.650
208.548	18.445	904.825	702.228
209.563	18.225	903.444	700.193
210.577	18.221	902.973	699.750
211.592	18.416	902.508	700.124
212.607	18.393	901.316	699.044
213.621	18.506	900.884	699.106
214.636	18.545	900.130	698.620
215.650	18.419	899.167	697.297
216.665	18.667	898.601	697.806
217.680	18.423	897.944	696.243
218.694	18.093	896.690	693.868
219.709	17.958	896.390	693.028
220.723	18.347	895.668	693.983
221.738	18.420	895.194	693.850
222.753	18.361	894.307	692.863
223.767	18.385	893.981	692.648
224.782	18.562	893.699	693.083
225.796	18.652	892.885	692.752
226.811	17.979	890.904	688.443
227.826	17.473	890.010	685.656
228.840	17.771	889.379	686.305
229.855	17.761	888.460	685.497
230.869	17.597	887.382	683.948
231.884	17.905	887.444	685.170
232.899	18.534	887.379	687.580
233.913	18.415	886.956	686.715
234.928	18.582	886.103	686.662
235.942	18.515	885.709	686.028
236.957	18.301	884.660	684.301
237.972	18.305	884.129	683.848
238.986	18.155	883.975	683.068
240.001	18.262	882.788	682.517
241.015	18.429	882.115	682.602
242.030	18.513	881.600	682.476
243.045	18.537	881.196	682.199
244.059	18.597	880.969	682.202
245.074	18.453	879.572	680.489
246.088	18.224	878.143	678.415
247.103	18.395	878.031	678.946
248.117	18.806	877.956	680.454
249.132	18.867	877.560	680.329
250.147	18.733	876.998	679.302
251.161	18.925	876.510	679.627
252.176	19.055	875.341	679.174
253.190	19.217	874.920	679.423
254.205	19.289	874.322	679.181
255.220	19.274	873.703	678.583
256.234	19.205	872.627	677.416
257.249	19.030	872.327	676.436
258.263	19.009	871.589	675.722
259.278	19.034	871.087	675.371
260.293	19.190	870.408	675.393
261.307	18.926	869.608	673.681
262.322	18.854	868.232	672.273
263.336	18.171	866.557	668.248
264.351	17.094	864.811	662.642
265.366	17.268	864.440	662.980
266.380	18.279	865.083	667.358
267.395	18.818	864.778	669.161
268.409	18.571	864.252	667.734
269.424	19.136	863.556	669.335
270.439	19.015	862.999	668.374
271.453	19.071	862.231	667.938
272.468	19.260	861.838	668.305
273.482	19.149	861.855	667.830
274.497	18.938	860.025	665.536
275.512	18.618	859.029	663.470
276.526	19.043	859.115	665.121
277.541	19.082	858.666	664.863
278.555	18.772	857.764	662.910
279.570	18.633	856.556	661.385
280.585	18.858	855.906	661.691
281.599	19.002	855.036	661.511
282.614	18.417	854.303	658.637
283.628	18.464	853.817	658.384
284.643	18.756	853.051	658.856
285.657	18.460	852.054	656.895
286.672	18.095	851.221	654.795
287.687	18.575	851.148	656.521
288.701	18.610	850.804	656.331
289.716	18.388	849.947	654.761
290.730	18.422	848.744	653.908
291.745	18.183	847.912	652.297
292.760	18.465	847.962	653.355
293.774	19.315	848.202	656.721
294.789	19.560	847.819	657.298
295.803	19.686	847.289	657.307
296.818	19.634	846.768	656.650
297.833	19.349	845.411	654.458
298.847	19.231	844.844	653.514
299.862	19.479	844.526	654.149
300.876	19.622	843.633	653.941
301.891	19.430	843.328	652.920
302.906	19.062	842.415	650.763
303.920	19.062	841.874	650.290
304.935	19.432	841.571	651.393
305.949	19.411	840.820	650.676
306.964	19.502	840.042	650.360
307.979	19.374	839.804	649.635
308.993	19.747	839.384	650.655
310.008	19.633	839.057	649.917
311.022	19.304	838.350	648.074
312.037	19.211	837.795	647.240
313.052	19.112	836.743	645.998
314.066	18.511	835.280	642.561
315.081	18.073	834.862	640.538
316.095	18.884	834.938	643.579
317.110	19.241	834.606	644.601
318.125	18.670	832.875	641.076
319.139	17.798	831.823	636.954
320.154	17.850	831.440	636.799
321.168	18.596	831.403	639.496
322.183	19.096	831.669	641.508
323.197	19.280	830.900	641.545
324.212	19.498	830.678	642.127
325.227	19.393	830.592	641.612
326.241	19.439	829.306	640.735
327.256	19.440	828.476	640.039
328.270	19.344	828.088	639.326
329.285	18.996	827.602	637.607
330.300	18.852	826.505	636.172
331.314	19.238	826.022	637.170
332.329	19.444	825.891	637.776
333.343	19.538	825.594	637.837
334.358	19.466	825.011	637.064
335.373	19.574	824.695	637.162
336.387	19.897	824.438	638.097
337.402	19.947	824.213	638.050
338.416	19.844	823.640	637.172
339.431	19.826	823.420	636.880
340.446	20.025	823.257	637.431
341.460	19.883	822.369	636.164
342.475	19.652	822.054	635.016
343.489	19.739	821.707	635.011
344.504	19.958	821.327	635.464
345.519	20.121	820.893	635.669
346.533	20.203	820.672	635.742
347.548	20.107	819.777	634.642
348.562	20.249	819.626	634.988
349.577	20.243	818.954	634.388
350.592	20.301	818.079	633.870
351.606	20.254	817.463	633.164
352.621	20.082	816.936	632.072
353.635	19.976	815.853	630.791
354.650	19.481	814.234	627.685
355.665	18.700	812.984	623.829
356.679	18.942	812.811	624.521
357.694	19.377	812.409	625.734
358.708	19.200	811.981	624.706
359.723	19.671	811.779	626.202
360.738	19.927	811.210	626.637
361.752	19.927	810.767	626.238
362.767	20.274	810.462	627.200
363.781	20.325	810.230	627.152
364.796	20.404	809.770	627.025
365.810	20.428	809.392	626.765
366.825	20.467	809.029	626.570
367.840	20.216	807.841	624.689
368.854	19.883	807.291	623.009
369.869	19.988	806.994	623.102
370.883	20.012	806.323	622.614
371.898	19.919	805.396	621.512
372.913	19.948	805.619	621.731
373.927	20.109	805.210	621.939
374.942	20.240	804.851	622.075
375.956	20.347	804.661	622.257
376.971	20.388	803.958	621.806
377.986	20.494	803.651	621.892
379.000	20.152	803.302	620.345
380.015	20.188	802.460	619.768
381.029	20.256	802.124	619.697
382.044	20.359	801.404	619.453
383.059	20.375	801.063	619.191
384.073	20.396	800.673	618.911
385.088	20.750	799.752	619.404
386.102	20.440	798.937	617.617
387.117	20.455	798.730	617.455
388.132	19.913	797.761	614.725
389.146	19.641	796.619	612.826
390.161	19.854	796.627	613.532
391.175	20.172	796.352	614.396
392.190	20.074	795.104	613.030
393.205	18.682	793.667	606.951
394.219	17.762	791.963	602.344
395.234	17.707	791.627	601.842
396.248	19.101	792.842	607.638
397.263	20.394	793.627	612.751
398.278	20.345	792.897	611.962
399.292	20.256	792.586	611.352
400.307	20.187	791.973	610.584
401.321	20.167	791.940	610.433
402.336	20.530	791.641	611.424
403.350	20.891	791.442	612.487
404.365	20.954	791.030	612.335
405.380	21.154	790.773	612.785
406.394	21.158	790.028	612.165
407.409	20.926	789.541	610.920
408.423	21.008	789.532	611.149
409.438	21.160	788.787	611.050
410.453	21.155	788.465	610.729
411.467	21.148	787.760	610.103
412.482	21.113	787.223	609.513
413.496	21.099	787.032	609.261
414.511	21.134	786.673	609.053
415.526	21.120	786.315	608.673
416.540	21.109	785.023	607.581
417.555	20.823	784.652	606.244
418.569	20.688	784.551	605.640
419.584	20.621	784.543	605.350
420.599	20.560	783.577	604.337
421.613	156.785	1361.455	1793.276
422.628	135.586	1445.637	1793.357
