DTS Sentinel unit serial number:	SN413079Multiplexer serial number:	ORYXHardware model number:	OX4-SRSoftware version number:	ORYX F/W v4.00 Oryx Data Collector v3.7.2.0data status	okinstallation	princeton_trtdifferential loss correction	single-endedforward channel	channel 1reverse channel	N/Adate	2019/09/12time	19:49:34forward acquisition time	15.00reverse acquisition time	0.00gamma	496.2192k internal	0.2323k external	0.2323temperature offset calibration	1.0138default loss term (dB/km)	0.3790temperature slope calibration	1.0000multiplexer offset coefficient	1.0000multiplexer slope coefficient	1.0000fibre end	0.00T internal ref (°C)	31.94T ext. ref 1 (°C)	3.46T ext. ref 2 (°C)	26.59length (m)	temperature (°C)	Stokes	anti-Stokes-747.200	800.000	0.129	0.498
-746.185	800.000	0.067	0.248
-745.171	172.410	-0.250	-0.363
-744.156	59.198	0.265	0.264
-743.142	800.000	-0.202	0.623
-742.127	324.926	0.219	-0.423
-741.112	-46.534	-0.468	-0.232
-740.098	-5.846	-0.284	-0.196
-739.083	381.282	0.068	-0.142
-738.069	-54.070	0.544	0.250
-737.054	371.070	-0.173	0.354
-736.039	-133.238	0.435	-0.055
-735.025	575.706	-0.106	0.262
-734.010	-41.703	-0.415	-0.215
-732.996	-88.555	0.197	-0.059
-731.981	800.000	-0.117	0.412
-730.966	33.673	0.154	0.135
-729.952	-11.277	-0.375	0.250
-728.937	38.816	-0.513	-0.462
-727.923	365.704	-0.180	-0.366
-726.908	105.940	-0.134	-0.160
-725.894	-52.258	-0.535	-0.250
-724.879	494.532	-0.159	-0.369
-723.864	-119.191	-0.397	-0.070
-722.850	-106.086	-0.581	0.132
-721.835	-139.853	1.195	0.128
-720.821	-24.319	-0.631	0.379
-719.806	285.597	0.312	-0.567
-718.791	-96.058	0.299	0.080
-717.777	-60.178	0.357	-0.154
-716.762	-117.211	0.492	-0.090
-715.748	548.048	0.195	0.470
-714.733	-29.254	0.443	0.256
-713.718	-100.635	0.295	-0.073
-712.704	-200.000	-0.101	0.709
-711.689	-46.960	0.638	-0.314
-710.675	-16.874	-0.488	0.311
-709.660	-126.921	0.318	-0.047
-708.645	-70.129	-0.492	-0.189
-707.631	-8.053	-0.626	0.425
-706.616	537.307	0.317	-0.759
-705.602	134.419	0.427	0.558
-704.587	-124.574	-0.266	-0.042
-703.572	45.594	0.167	-0.156
-702.558	79.872	-0.627	0.679
-701.543	-200.000	0.031	-0.851
-700.529	-200.000	-0.053	1.036
-699.514	108.730	0.348	0.419
-698.499	27.750	-0.349	0.296
-697.485	541.371	0.187	-0.449
-696.470	-152.414	-0.470	0.034
-695.456	-70.813	-0.865	-0.329
-694.441	800.000	-0.402	-1.147
-693.426	23.399	0.667	-0.553
-692.412	-30.405	1.066	0.609
-691.397	64.630	-0.594	0.604
-690.383	24.747	-0.166	0.138
-689.368	61.300	0.249	0.250
-688.354	-56.024	0.589	-0.264
-687.339	-200.000	-0.073	0.506
-686.324	-84.010	-0.756	-0.242
-685.310	-35.968	0.072	0.039
-684.295	-4.571	-0.643	0.447
-683.281	182.019	0.794	1.178
-682.266	-95.631	0.174	0.047
-681.251	-96.069	-0.400	0.107
-680.237	46.498	-0.787	-0.736
-679.222	81.477	-0.393	0.428
-678.208	335.842	0.091	-0.177
-677.193	-200.000	-0.010	-0.100
-676.178	437.347	0.276	0.606
-675.164	800.000	0.277	-0.855
-674.149	21.347	-0.863	-0.706
-673.135	-73.867	-0.780	0.285
-672.120	-74.869	0.725	-0.262
-671.105	-200.000	0.039	0.424
-670.091	-200.000	-0.091	-0.501
-669.076	-90.372	0.817	-0.239
-668.062	-125.389	-0.108	-0.017
-667.047	-30.842	-0.207	-0.118
-666.032	800.000	-0.017	0.050
-665.018	203.776	-0.383	-0.597
-664.003	3.368	-0.399	-0.293
-662.989	800.000	0.125	-0.414
-661.974	-109.746	0.686	0.145
-660.959	258.257	-0.178	0.309
-659.945	77.849	-0.526	-0.565
-658.930	-105.360	0.530	-0.121
-657.916	-2.058	-0.293	0.207
-656.901	-25.201	0.837	0.499
-655.886	-93.091	0.233	-0.065
-654.872	550.229	-0.315	0.759
-653.857	89.253	0.481	0.539
-652.843	-200.000	-0.074	0.514
-651.828	-83.392	0.534	0.172
-650.814	-110.616	0.361	0.075
-649.799	-147.452	-0.376	0.032
-648.784	800.000	-0.063	-0.214
-647.770	641.873	-0.154	-0.396
-646.755	27.982	0.303	-0.257
-645.741	64.216	-0.184	-0.187
-644.726	-91.788	0.881	-0.252
-643.711	-59.345	0.638	-0.276
-642.697	-67.492	-0.659	0.260
-641.682	124.299	0.311	-0.393
-640.668	-200.000	-0.172	1.020
-639.653	800.000	0.045	0.172
-638.638	-65.124	-0.442	-0.179
-637.624	800.000	-0.030	-0.119
-636.609	41.646	-0.353	0.321
-635.595	42.426	-0.124	0.114
-634.580	-1.029	-0.344	-0.245
-633.565	596.165	-0.462	1.150
-632.551	100.947	0.460	-0.537
-631.536	-44.318	0.226	-0.114
-630.522	41.276	0.569	0.517
-629.507	149.164	0.336	0.457
-628.492	-200.000	0.029	0.572
-627.478	69.608	0.077	-0.080
-626.463	44.480	0.092	0.085
-625.449	89.259	0.213	0.239
-624.434	-50.064	-0.553	-0.264
-623.419	294.183	-0.326	-0.599
-622.405	-132.054	0.370	-0.048
-621.390	704.744	0.095	-0.251
-620.376	123.223	-0.270	-0.341
-619.361	-90.176	-0.256	-0.075
-618.346	-200.000	-0.065	0.415
-617.332	-144.061	-0.466	-0.044
-616.317	8.155	-0.421	-0.318
-615.303	564.825	-0.084	-0.203
-614.288	49.002	-0.059	0.056
-613.273	-200.000	-0.099	-0.438
-612.259	110.139	-0.388	0.468
-611.244	-137.544	0.800	-0.091
-610.230	125.387	-0.388	0.492
-609.215	-20.209	0.244	-0.151
-608.201	-200.000	-0.002	-0.157
-607.186	324.790	0.216	-0.415
-606.171	-22.975	-0.644	0.390
-605.157	15.312	-0.973	0.767
-604.142	-85.508	0.439	-0.137
-603.128	145.713	0.240	0.322
-602.113	-161.038	-0.668	0.035
-601.098	519.868	0.359	0.845
-600.084	134.340	-0.355	-0.462
-599.069	268.686	-0.573	-1.009
-598.055	85.862	0.039	0.044
-597.040	71.419	-0.245	0.255
-596.025	31.773	0.097	0.084
-595.011	-135.386	-0.454	-0.055
-593.996	-21.715	0.160	0.098
-592.982	-104.735	0.229	-0.053
-591.967	369.245	-0.185	0.375
-590.952	-77.434	1.077	-0.375
-589.938	94.271	0.553	0.630
-588.923	-168.631	-0.853	0.033
-587.909	-63.562	-0.880	0.363
-586.894	-73.093	0.179	-0.066
-585.879	-41.623	-0.694	0.358
-584.865	134.957	0.266	0.347
-583.850	133.861	-0.169	-0.220
-582.836	665.481	0.150	-0.389
-581.821	-200.000	0.011	-1.090
-580.806	473.768	-0.242	-0.548
-579.792	-200.000	0.282	0.001
-578.777	800.000	-0.287	-0.960
-577.763	-200.000	0.037	-1.002
-576.748	161.858	0.259	0.364
-575.733	-200.000	-0.022	-0.141
-574.719	260.840	-0.464	0.805
-573.704	-51.579	0.906	-0.424
-572.690	-112.049	-0.873	0.176
-571.675	-20.481	0.490	-0.302
-570.661	127.942	0.315	-0.402
-569.646	-138.860	-1.131	-0.124
-568.631	18.150	-0.282	0.226
-567.617	205.400	-0.208	-0.325
-566.602	-91.431	-0.300	0.086
-565.588	800.000	0.083	0.264
-564.573	-200.000	-0.044	0.498
-563.558	-94.193	0.308	-0.085
-562.544	-32.092	0.171	-0.096
-561.529	152.305	0.520	0.711
-560.515	-109.514	0.643	-0.136
-559.500	61.479	0.415	0.414
-558.485	-200.000	-0.057	-0.444
-557.471	-82.796	-0.092	0.030
-556.456	-119.828	0.111	0.019
-555.442	-200.000	0.053	-0.549
-554.427	640.152	0.179	-0.456
-553.412	-200.000	0.036	-0.453
-552.398	-22.568	0.572	-0.347
-551.383	-200.000	0.064	-0.780
-550.369	234.673	-0.134	0.221
-549.354	-90.919	-0.919	-0.265
-548.339	101.406	-0.819	0.957
-547.325	60.664	-0.570	0.566
-546.310	44.621	0.869	-0.801
-545.296	62.278	-0.340	0.340
-544.281	-53.403	0.571	-0.262
-543.266	725.897	0.450	-1.202
-542.252	-200.000	-0.001	-0.209
-541.237	-123.809	-0.172	-0.027
-540.223	-106.590	0.523	0.117
-539.208	800.000	-0.114	0.473
-538.193	104.329	0.541	0.638
-537.179	800.000	0.206	0.599
-536.164	-127.721	-0.477	0.069
-535.150	-200.000	0.122	-0.717
-534.135	246.188	0.227	-0.383
-533.121	28.483	0.284	0.241
-532.106	-44.619	0.652	0.326
-531.091	-200.000	0.057	0.445
-530.077	-49.332	-0.202	-0.096
-529.062	800.000	-0.121	-0.462
-528.048	-200.000	-0.007	-0.161
-527.033	-108.931	-0.318	0.068
-526.018	-74.132	0.456	-0.165
-525.004	111.915	-0.340	-0.412
-523.989	509.958	-0.231	0.537
-522.975	-62.420	-0.445	0.185
-521.960	18.329	-0.565	-0.452
-520.945	8.926	-0.268	0.202
-519.931	-57.072	0.462	0.204
-518.916	475.542	0.075	-0.168
-517.902	25.026	-0.751	0.623
-516.887	-200.000	-0.020	1.623
-515.872	-15.417	0.251	0.161
-514.858	-4.463	-0.399	0.276
-513.843	71.032	-0.315	0.326
-512.829	-77.666	0.611	0.212
-511.814	202.998	0.325	-0.502
-510.799	599.383	-0.172	-0.428
-509.785	610.603	0.164	0.410
-508.770	495.017	0.342	-0.787
-507.756	-200.000	0.062	-0.660
-506.741	111.761	-0.375	-0.452
-505.726	89.313	-0.354	-0.395
-504.712	101.576	0.429	-0.500
-503.697	-109.336	0.624	-0.132
-502.683	-200.000	0.062	0.558
-501.668	-200.000	0.061	-0.383
-500.653	47.192	-1.005	0.936
-499.639	-200.000	0.089	1.087
-498.624	-200.000	0.008	-0.406
-497.610	-135.464	-0.341	0.041
-496.595	-54.161	-0.272	-0.124
-495.581	-120.019	0.700	0.120
-494.566	-138.218	0.352	0.039
-493.551	-200.000	-0.052	-0.359
-492.537	800.000	-0.034	-0.098
-491.522	82.285	-0.314	-0.340
-490.508	800.000	0.131	-0.550
-489.493	800.000	0.064	0.256
-488.478	-5.015	0.417	0.287
-487.464	-200.000	0.048	0.743
-486.449	-39.057	-0.716	-0.377
-485.435	-12.275	0.216	-0.141
-484.420	790.288	-0.243	0.669
-483.405	669.056	-0.141	0.364
-482.391	800.000	0.069	0.254
-481.376	-64.178	0.885	-0.361
-480.362	329.810	-0.440	-0.846
-479.347	-166.580	-0.197	0.008
-478.332	11.612	0.611	0.468
-477.318	-200.000	0.058	-0.381
-476.303	-73.550	-0.430	0.157
-475.289	-176.227	-0.595	-0.016
-474.274	-142.999	-0.650	-0.063
-473.259	327.972	0.225	-0.432
-472.245	104.183	0.181	-0.213
-471.230	-58.341	-0.249	0.108
-470.216	166.395	0.720	-1.019
-469.201	-68.627	-0.916	0.354
-468.186	-200.000	0.008	0.513
-467.172	-44.110	0.295	0.148
-466.157	267.788	-0.319	-0.558
-465.143	486.115	-0.576	-1.312
-464.128	-5.182	0.650	-0.446
-463.113	-27.763	0.065	0.037
-462.099	139.706	0.200	-0.263
-461.084	-200.000	-0.022	-0.128
-460.070	492.737	0.291	0.665
-459.055	-169.589	-0.306	-0.011
-458.040	376.710	0.184	-0.375
-457.026	14.643	-0.201	-0.156
-456.011	-200.000	0.001	-0.390
-454.997	231.148	-0.232	0.379
-453.982	206.786	0.249	-0.387
-452.968	315.901	-0.163	0.307
-451.953	-200.000	-0.074	-0.390
-450.938	-12.630	0.206	0.134
-449.924	57.397	0.314	0.306
-448.909	800.000	-0.053	0.227
-447.895	36.011	0.367	-0.323
-446.880	143.301	-0.236	0.313
-445.865	71.705	-0.222	0.230
-444.851	-32.229	0.734	-0.409
-443.836	73.937	-0.093	-0.098
-442.822	139.435	-0.286	-0.375
-441.807	790.719	0.158	-0.433
-440.792	26.223	-0.318	-0.265
-439.778	-68.129	0.438	0.170
-438.763	800.000	0.127	0.458
-437.749	-83.223	0.161	0.052
-436.734	-50.463	0.423	-0.199
-435.719	29.273	-0.322	-0.273
-434.705	-72.661	-0.366	0.135
-433.690	93.371	0.543	-0.613
-432.676	800.000	-0.153	-0.658
-431.661	-143.284	-0.428	0.041
-430.646	164.442	0.421	-0.592
-429.632	800.000	-0.294	-0.980
-428.617	239.390	-0.421	-0.698
-427.603	136.270	-0.506	-0.658
-426.588	399.590	0.142	0.296
-425.573	-100.788	-0.626	-0.154
-424.559	-200.000	-0.100	-0.916
-423.544	-108.551	0.837	0.180
-422.530	-48.313	-0.292	-0.140
-421.515	-91.675	0.370	-0.105
-420.500	-200.000	0.037	-0.587
-419.486	-40.133	0.241	0.125
-418.471	800.000	-0.113	0.395
-417.457	-172.336	0.417	-0.013
-416.442	-20.170	0.495	-0.304
-415.428	-200.000	-0.001	-0.430
-414.413	-83.240	0.681	0.218
-413.398	-112.494	-0.356	0.071
-412.384	204.099	-0.345	0.532
-411.369	-38.465	-0.298	0.157
-410.355	268.540	-0.701	-1.226
-409.340	104.036	0.136	-0.160
-408.325	56.094	-0.258	0.250
-407.311	-0.063	-0.532	-0.377
-406.296	-5.936	-0.548	0.374
-405.282	-103.247	-0.523	0.123
-404.267	122.811	0.109	-0.136
-403.252	800.000	0.099	-0.289
-402.238	-200.000	-0.133	-0.697
-401.223	-102.975	-0.667	0.158
-400.209	-200.000	0.005	0.698
-399.194	-69.611	0.241	-0.092
-398.179	-71.825	0.494	-0.183
-397.165	128.146	0.474	0.601
-396.150	29.684	-0.456	0.387
-395.136	176.663	-0.249	0.360
-394.121	65.607	-0.318	-0.321
-393.106	43.987	0.297	0.271
-392.092	21.277	1.153	0.932
-391.077	-32.287	0.633	0.352
-390.063	-200.000	0.013	-0.086
-389.048	139.945	0.526	0.691
-388.033	800.000	-0.264	0.828
-387.019	-99.233	-0.357	-0.090
-386.004	19.431	-0.056	0.045
-384.990	36.190	-0.252	-0.221
-383.975	800.000	-0.115	-0.453
-382.960	-200.000	-0.068	0.351
-381.946	292.479	-0.141	0.255
-380.931	-111.065	0.628	0.128
-379.917	-200.000	-0.222	1.167
-378.902	800.000	0.253	0.718
-377.888	-109.805	1.076	-0.225
-376.873	127.711	-0.421	0.533
-375.858	-62.572	0.876	0.362
-374.844	-154.506	-0.832	-0.055
-373.829	-104.444	0.698	0.161
-372.815	481.132	0.239	0.540
-371.800	-66.927	0.603	0.237
-370.785	-131.376	-0.299	0.039
-369.771	214.249	-0.231	0.365
-368.756	-153.436	0.502	0.035
-367.742	-182.502	-0.107	-0.002
-366.727	-176.923	0.276	-0.007
-365.712	-60.962	-0.786	-0.331
-364.698	-200.000	0.011	0.209
-363.683	800.000	-0.095	0.357
-362.669	69.991	-0.481	-0.494
-361.654	-200.000	0.067	-0.627
-360.639	-20.797	0.357	0.218
-359.625	91.391	-0.234	0.261
-358.610	-109.348	0.456	0.096
-357.596	-2.526	0.082	0.057
-356.581	-88.713	-0.469	-0.139
-355.566	-82.505	0.347	0.112
-354.552	-87.389	-0.104	0.031
-353.537	-200.000	0.037	-0.470
-352.523	73.299	-0.241	-0.251
-351.508	-58.373	-0.061	0.026
-350.493	-50.948	-0.181	0.084
-349.479	-41.108	0.300	0.154
-348.464	41.182	0.431	0.387
-347.450	314.895	-0.080	-0.151
-346.435	800.000	0.142	0.455
-345.420	392.011	-0.301	-0.622
-344.406	800.000	0.152	-0.421
-343.391	-157.121	0.720	0.044
-342.377	110.998	0.355	0.425
-341.362	75.685	-0.280	-0.294
-340.348	598.701	-0.279	0.687
-339.333	125.851	0.214	0.269
-338.318	-80.202	0.585	-0.195
-337.304	800.000	0.234	0.710
-336.289	-89.019	-0.654	0.192
-335.275	141.101	0.119	0.156
-334.260	-200.000	0.068	0.313
-333.245	-200.000	-0.040	-0.387
-332.231	-141.707	0.734	0.073
-331.216	800.000	-0.118	0.463
-330.202	-78.542	0.718	-0.244
-329.187	-93.382	0.394	-0.109
-328.172	800.000	0.229	0.767
-327.158	146.862	-0.290	0.387
-326.143	119.150	0.128	-0.157
-325.129	-200.000	-0.086	-0.852
-324.114	800.000	0.051	-0.146
-323.099	800.000	-0.049	0.212
-322.085	66.434	-0.179	-0.180
-321.070	207.545	-0.486	0.753
-320.056	-129.040	0.323	-0.045
-319.041	172.023	-0.187	0.267
-318.026	-79.906	-0.801	0.267
-317.012	60.687	0.173	0.171
-315.997	-200.000	-0.067	-0.790
-314.983	800.000	0.245	0.938
-313.968	-18.818	-0.562	-0.348
-312.953	-37.205	0.219	0.116
-311.939	-89.413	0.353	0.103
-310.924	30.234	-0.402	-0.341
-309.910	103.930	0.340	-0.397
-308.895	-154.552	-0.637	0.042
-307.880	268.342	0.119	-0.207
-306.866	-200.000	-0.034	-0.776
-305.851	381.687	-0.119	0.242
-304.837	-200.000	-0.051	-0.467
-303.822	800.000	-0.132	-0.468
-302.807	-49.544	0.278	0.132
-301.793	12.657	-0.979	-0.750
-300.778	88.748	-0.316	-0.349
-299.764	106.158	-0.822	0.966
-298.749	-105.508	0.710	-0.160
-297.735	125.785	0.257	0.322
-296.720	-123.771	-0.457	0.072
-295.705	-9.596	-0.100	-0.066
-294.691	-66.879	-0.676	0.265
-293.676	403.408	0.163	-0.340
-292.662	552.423	0.285	-0.678
-291.647	-29.856	0.916	0.518
-290.632	2.885	-0.739	0.532
-289.618	800.000	0.064	0.185
-288.603	-177.232	-0.686	0.017
-287.589	94.734	0.168	-0.190
-286.574	45.044	-0.361	-0.330
-285.559	-165.872	-0.312	0.013
-284.545	800.000	-0.128	0.444
-283.530	55.461	-0.425	-0.408
-282.516	36.801	-0.437	-0.383
-281.501	800.000	0.133	0.372
-280.486	-200.000	0.124	-0.565
-279.472	-127.110	-0.174	0.025
-278.457	425.662	0.408	-0.871
-277.443	406.913	-0.350	0.734
-276.428	198.397	0.534	0.810
-275.413	-200.000	-0.042	0.330
-274.399	-5.247	-0.094	0.064
-273.384	547.405	0.303	-0.719
-272.370	1.476	-0.609	-0.435
-271.355	33.727	0.168	0.145
-270.340	16.991	0.279	-0.219
-269.326	-200.000	0.102	1.190
-268.311	-19.677	0.265	0.162
-267.297	800.000	-0.071	0.292
-266.282	-200.000	-0.099	1.279
-265.267	-200.000	-0.041	-0.202
-264.253	-89.829	0.655	0.190
-263.238	0.814	0.358	0.254
-262.224	8.571	0.623	0.465
-261.209	-200.000	-0.130	1.004
-260.195	-96.673	-0.212	0.055
-259.180	119.589	0.405	0.497
-258.165	-200.000	-0.065	-0.520
-257.151	454.133	-0.330	0.725
-256.136	-200.000	0.044	-0.244
-255.122	-53.775	-0.644	-0.291
-254.107	-151.116	0.611	0.045
-253.092	800.000	-0.120	-0.392
-252.078	-200.000	-0.018	-0.439
-251.063	73.362	0.226	-0.235
-250.049	-114.128	0.063	0.012
-249.034	469.541	0.409	0.909
-248.019	-148.659	0.599	0.048
-247.005	-200.000	-0.073	0.377
-245.990	-200.000	0.009	0.095
-244.976	-79.485	0.704	-0.236
-243.961	-200.000	-0.067	0.372
-242.946	-111.446	0.199	0.040
-241.932	329.232	0.400	0.761
-240.917	800.000	0.032	0.114
-239.903	-120.768	-0.546	-0.091
-238.888	82.120	0.140	-0.151
-237.873	392.538	-0.171	0.353
-236.859	235.571	-0.364	-0.596
-235.844	256.492	0.164	-0.279
-234.830	-70.807	0.102	-0.038
-233.815	-200.000	0.062	0.405
-232.800	-45.513	0.816	-0.400
-231.786	-41.523	-0.487	0.248
-230.771	800.000	-0.193	0.555
-229.757	10.734	-0.413	0.312
-228.742	-200.000	0.017	-0.178
-227.727	800.000	0.217	0.618
-226.713	341.677	0.128	-0.247
-225.698	204.618	-0.626	-0.960
-224.684	-110.521	-0.220	0.045
-223.669	3.835	-0.594	0.429
-222.655	-200.000	-0.017	-0.237
-221.640	47.132	-0.700	0.644
-220.625	-111.953	-0.404	0.081
-219.611	800.000	0.207	-0.857
-218.596	-200.000	0.017	-0.386
-217.582	-200.000	0.024	0.389
-216.567	-200.000	0.130	0.834
-215.552	271.312	-0.142	0.248
-214.538	19.518	-0.060	-0.048
-213.523	76.114	-0.265	-0.277
-212.509	72.833	0.913	-0.943
-211.494	-149.458	-0.440	0.035
-210.479	-53.392	0.188	-0.085
-209.465	600.023	0.053	-0.130
-208.450	-200.000	0.136	1.448
-207.436	-129.758	-0.960	-0.131
-206.421	-38.056	0.651	0.342
-205.406	243.268	-0.086	-0.143
-204.392	-107.324	-0.753	-0.164
-203.377	239.789	0.231	0.381
-202.363	-43.590	-0.709	0.354
-201.348	-200.000	-0.028	0.241
-200.333	54.573	0.305	0.291
-199.319	259.616	0.364	0.622
-198.304	-157.003	0.489	0.030
-197.290	800.000	-0.125	-0.344
-196.275	-74.357	-0.408	-0.146
-195.260	-193.608	-0.456	-0.004
-194.246	-200.000	0.130	-0.818
-193.231	-42.644	0.149	-0.075
-192.217	322.082	-0.439	-0.826
-191.202	-83.914	0.642	0.202
-190.187	-33.753	0.138	-0.075
-189.173	-31.844	-0.426	0.236
-188.158	116.641	0.297	0.360
-187.144	69.376	-0.130	0.132
-186.129	311.507	-0.453	-0.840
-185.114	778.929	0.231	0.623
-184.100	-51.378	0.427	0.197
-183.085	205.150	0.395	-0.605
-182.071	-74.974	0.337	-0.119
-181.056	5.024	0.821	0.597
-180.042	-77.068	0.249	0.086
-179.027	-94.304	-0.700	0.189
-178.012	-183.746	0.544	0.009
-176.998	-200.000	0.007	-0.236
-175.983	158.337	-0.176	0.241
-174.969	-200.000	0.065	-1.278
-173.954	-112.472	-0.271	-0.053
-172.939	1.854	0.450	0.320
-171.925	-200.000	0.002	-1.257
-170.910	-91.100	-0.297	-0.084
-169.896	255.246	-0.168	0.285
-168.881	229.687	-0.187	-0.301
-167.866	403.068	-0.242	-0.502
-166.852	28.363	-0.284	0.237
-165.837	-121.678	-0.485	-0.079
-164.823	800.000	-0.049	-0.184
-163.808	800.000	0.130	0.522
-162.793	150.425	-0.198	-0.266
-161.779	174.089	0.264	0.376
-160.764	-73.137	0.902	-0.326
-159.750	43.831	-0.218	-0.197
-158.735	-200.000	-0.017	0.514
-157.720	41.577	-0.273	0.244
-156.706	-198.429	0.723	-0.004
-155.691	-72.175	0.988	0.362
-154.677	-200.000	0.021	-0.460
-153.662	-200.000	0.009	-0.649
-152.647	-169.524	0.668	0.024
-151.633	512.225	0.301	-0.691
-150.618	20.199	-0.216	-0.172
-149.604	63.255	-1.012	-1.001
-148.589	41.140	0.061	0.055
-147.574	52.182	-0.679	-0.639
-146.560	-200.000	0.022	1.030
-145.545	95.932	-0.263	0.297
-144.531	-200.000	-0.061	0.590
-143.516	-113.773	0.937	-0.180
-142.502	-200.000	-0.025	0.649
-141.487	38.798	-0.489	0.430
-140.472	-149.445	0.165	0.013
-139.458	237.082	-0.126	-0.205
-138.443	-193.178	0.301	-0.003
-137.429	-133.253	0.874	-0.109
-136.414	66.509	-0.766	-0.768
-135.399	133.514	0.499	0.636
-134.385	246.969	0.262	-0.436
-133.370	137.342	-0.330	0.425
-132.356	100.612	0.639	-0.732
-131.341	171.103	0.380	0.537
-130.326	-200.000	-0.005	0.100
-129.312	226.845	-0.120	-0.193
-128.297	210.115	0.199	-0.307
-127.283	375.022	-0.221	0.445
-126.268	555.309	0.194	-0.461
-125.253	-200.000	-0.096	0.438
-124.239	800.000	0.100	0.275
-123.224	207.888	0.254	-0.392
-122.210	-8.473	-0.591	-0.391
-121.195	800.000	-0.094	-0.400
-120.180	800.000	-0.042	0.157
-119.166	-60.254	0.306	-0.129
-118.151	-58.495	-0.793	-0.339
-117.137	800.000	-0.070	-0.212
-116.122	21.382	1.008	0.807
-115.107	-93.891	0.380	-0.103
-114.093	52.555	0.553	0.521
-113.078	-115.279	0.770	-0.143
-112.064	119.460	0.192	-0.234
-111.049	27.746	-0.472	0.392
-110.034	-33.729	-0.286	-0.155
-109.020	800.000	0.267	0.847
-108.005	-200.000	-0.046	0.298
-106.991	36.309	0.628	-0.545
-105.976	-200.000	0.011	0.690
-104.962	45.819	-0.396	-0.360
-103.947	-200.000	0.005	-0.148
-102.932	-200.000	-0.006	0.250
-101.918	-200.000	0.189	1.092
-100.903	800.000	-0.050	-0.162
-99.889	-43.867	-0.585	-0.290
-98.874	-51.099	0.312	-0.144
-97.859	49.316	0.228	-0.211
-96.845	778.207	-0.126	-0.338
-95.830	405.353	0.233	-0.483
-94.816	338.099	-0.228	0.437
-93.801	-200.000	-0.012	0.196
-92.786	-117.101	-0.906	-0.162
-91.772	800.000	0.169	-0.698
-90.757	-187.261	0.627	-0.008
-89.743	-25.371	0.818	-0.476
-88.728	-67.863	-0.355	0.137
-87.713	-143.223	-0.226	0.021
-86.699	-1.739	0.801	0.555
-85.684	800.000	0.102	0.420
-84.670	-200.000	0.070	-0.427
-83.655	18.511	-0.167	0.131
-82.640	-200.000	-0.100	0.509
-81.626	161.070	0.198	-0.272
-80.611	457.792	0.176	0.384
-79.597	48.168	0.507	0.466
-78.582	678.752	-0.136	-0.349
-77.567	-200.000	0.105	0.816
-76.553	208.304	0.586	0.901
-75.538	11.299	-0.157	-0.118
-74.524	163.714	-0.292	0.404
-73.509	-72.107	0.723	-0.264
-72.494	96.751	-0.228	0.257
-71.480	356.979	0.389	0.762
-70.465	-163.907	-0.547	-0.025
-69.451	800.000	-0.238	-0.941
-68.436	14.372	-0.457	0.351
-67.422	98.109	-0.366	0.415
-66.407	-200.000	-0.038	-0.248
-65.392	113.154	0.521	0.622
-64.378	177.707	0.170	0.243
-63.363	262.047	-0.380	-0.647
-62.349	-200.000	0.173	1.014
-61.334	101.455	-0.614	-0.704
-60.319	-99.367	0.977	0.242
-59.305	800.000	0.173	-0.492
-58.290	178.688	0.685	0.984
-57.276	521.791	0.584	1.348
-56.261	-200.000	97.477	609.701
-55.246	660.048	1362.924	3448.955
-54.232	203.326	2527.482	3841.743
-53.217	120.532	2118.471	2586.581
-52.203	44.318	1586.509	1431.239
-51.188	35.774	1326.484	1145.991
-50.173	32.385	1284.870	1090.392
-49.159	57.096	1335.860	1280.106
-48.144	57.427	1352.272	1297.733
-47.130	35.757	1310.609	1131.993
-46.115	32.404	1291.695	1096.124
-45.100	32.295	1286.377	1090.930
-44.086	31.784	1285.971	1087.579
-43.071	31.825	1282.841	1085.130
-42.057	32.046	1280.095	1084.038
-41.042	32.167	1278.325	1083.193
-40.027	32.069	1277.650	1082.016
-39.013	31.941	1275.537	1079.445
-37.998	31.881	1273.972	1077.736
-36.984	31.888	1271.822	1075.914
-35.969	31.820	1271.365	1075.094
-34.954	31.959	1268.207	1073.175
-33.940	32.117	1267.757	1073.656
-32.925	31.961	1266.055	1071.279
-31.911	32.152	1264.755	1071.229
-30.896	32.270	1262.564	1070.000
-29.881	31.893	1262.386	1067.658
-28.867	32.160	1261.038	1067.995
-27.852	32.120	1258.995	1065.995
-26.838	32.076	1256.934	1063.964
-25.823	31.965	1256.007	1062.504
-24.809	31.776	1256.425	1061.746
-23.794	31.950	1254.856	1061.362
-22.779	32.177	1252.263	1060.408
-21.765	31.990	1250.960	1058.206
-20.750	31.919	1250.590	1057.454
-19.736	32.004	1248.220	1055.887
-18.721	31.852	1247.766	1054.607
-17.706	31.762	1246.841	1053.274
-16.692	31.961	1245.362	1053.100
-15.677	31.829	1244.356	1051.466
-14.663	31.882	1243.745	1051.207
-13.648	31.977	1240.913	1049.303
-12.633	31.862	1241.156	1048.824
-11.619	31.608	1241.475	1047.628
-10.604	31.701	1240.024	1046.885
-9.590	31.783	1238.285	1045.835
-8.575	31.945	1236.602	1045.270
-7.560	32.065	1236.052	1045.437
-6.546	31.902	1236.302	1044.698
-5.531	31.949	1234.505	1043.395
-4.517	31.532	1235.031	1041.481
-3.502	31.966	1232.776	1041.951
-2.487	32.118	1232.966	1042.913
-1.473	31.776	1228.420	1037.133
-0.458	30.266	1212.699	1015.559
0.556	28.042	1195.993	977.521
1.571	24.534	1200.873	962.552
2.586	23.492	1215.560	968.547
3.600	22.858	1204.290	956.051
4.615	17.290	1132.672	870.679
5.629	8.014	1059.040	769.396
6.644	3.723	1039.362	734.662
7.659	3.491	1036.300	731.332
8.673	3.250	1035.527	729.578
9.688	3.376	1033.055	728.370
10.702	3.739	1033.596	730.399
11.717	9.438	1041.113	762.721
12.731	19.047	1052.646	816.941
13.746	23.807	1059.446	844.834
14.761	24.439	1059.262	847.615
15.775	24.070	1058.346	845.054
16.790	23.536	1058.385	842.477
17.804	23.408	1056.504	840.298
18.819	23.156	1056.113	838.719
19.834	23.499	1055.093	839.460
20.848	23.372	1055.761	839.312
21.863	23.296	1054.802	838.117
22.877	23.292	1052.927	836.536
23.892	23.062	1052.851	835.312
24.907	23.389	1052.506	836.508
25.921	23.171	1051.502	834.608
26.936	22.747	1051.319	832.393
27.950	22.871	1048.203	830.431
28.965	23.087	1046.342	829.900
29.980	23.132	1044.699	828.735
30.994	23.327	1044.973	829.791
32.009	23.232	1042.765	827.521
33.023	23.174	1043.186	827.509
34.038	23.481	1040.550	826.776
35.053	23.121	1041.308	825.625
36.067	22.762	1041.406	823.954
37.082	22.899	1038.865	822.509
38.096	23.474	1037.770	824.244
39.111	23.187	1038.158	823.143
40.126	23.196	1037.255	822.398
41.140	22.638	1035.639	818.456
42.155	22.514	1032.960	815.691
43.169	22.831	1031.786	816.159
44.184	22.428	1031.937	814.341
45.199	22.413	1030.608	813.153
46.213	22.707	1030.545	814.386
47.228	23.344	1029.852	816.704
48.242	23.385	1029.413	816.473
49.257	23.239	1028.711	815.171
50.271	23.521	1027.777	815.658
51.286	23.638	1026.447	815.065
52.301	23.447	1026.359	814.045
53.315	23.115	1025.198	811.532
54.330	22.911	1024.548	810.009
55.344	23.008	1022.979	809.142
56.359	23.063	1021.890	808.461
57.374	22.738	1021.533	806.621
58.388	22.951	1020.948	807.063
59.403	22.754	1019.620	805.041
60.417	22.756	1018.687	804.243
61.432	22.456	1019.240	803.238
62.447	22.819	1017.613	803.537
63.461	22.742	1015.914	801.777
64.476	22.632	1014.888	800.394
65.490	22.266	1014.727	798.536
66.505	22.594	1014.574	799.833
67.520	22.581	1014.045	799.289
68.534	22.534	1011.786	797.222
69.549	22.211	1012.007	795.867
70.563	21.694	1012.016	793.461
71.578	21.834	1009.387	791.960
72.593	21.740	1009.891	791.862
73.607	21.878	1009.055	791.761
74.622	21.820	1007.988	790.589
75.636	22.229	1006.182	790.945
76.651	22.101	1006.030	790.180
77.666	22.257	1006.486	791.170
78.680	22.165	1005.763	790.120
79.695	22.026	1005.494	789.212
80.709	22.591	1003.943	790.461
81.724	22.236	1004.744	789.425
82.739	22.542	1002.741	789.154
83.753	22.952	1003.595	791.595
84.768	23.826	1002.062	794.222
85.782	23.672	1001.578	793.080
86.797	23.816	1001.168	793.328
87.812	23.132	1001.019	790.085
88.826	23.212	999.766	789.385
89.841	23.635	997.242	789.202
90.855	23.597	997.107	788.855
91.870	23.779	996.051	788.759
92.884	23.301	994.988	785.730
93.899	23.377	994.722	785.784
94.914	23.793	993.501	786.592
95.928	23.383	992.421	783.856
96.943	23.327	991.085	782.482
97.957	23.206	990.557	781.463
98.972	23.241	989.370	780.611
99.987	23.430	989.010	781.093
101.001	23.461	987.181	779.716
102.016	23.098	986.702	777.671
103.030	23.459	986.400	778.951
104.045	23.458	986.016	778.576
105.060	23.411	984.155	776.831
106.074	22.945	984.941	775.339
107.089	22.953	982.788	773.610
108.103	22.887	981.046	771.879
109.118	22.648	980.130	770.049
110.133	22.081	979.604	767.092
111.147	22.527	978.101	767.790
112.162	22.193	978.025	766.206
113.176	22.570	976.423	766.523
114.191	22.476	976.797	766.343
115.206	22.728	974.533	765.591
116.220	22.622	973.706	764.413
117.235	22.389	973.973	763.547
118.249	22.380	972.864	762.568
119.264	22.298	972.042	761.505
120.279	21.864	971.746	759.327
121.293	21.944	970.809	758.870
122.308	22.072	969.543	758.367
123.322	22.276	967.063	757.241
124.337	21.899	966.732	755.292
125.352	21.746	966.720	754.556
126.366	21.798	965.050	753.409
127.381	22.299	965.265	755.663
128.395	22.323	964.310	754.950
129.410	22.387	962.578	753.803
130.424	22.346	962.769	753.708
131.439	22.898	960.742	754.415
132.454	22.903	961.272	754.785
133.468	22.658	960.264	752.881
134.483	22.856	959.371	752.961
135.497	22.524	959.677	751.718
136.512	22.913	958.429	752.329
137.527	22.678	957.394	750.452
138.541	22.963	956.938	751.239
139.556	22.745	956.087	749.580
140.570	23.136	955.600	750.790
141.585	23.440	953.984	750.741
142.600	23.563	954.385	751.511
143.614	23.785	953.315	751.540
144.629	23.989	952.630	751.795
145.643	23.497	951.308	748.613
146.658	22.983	950.033	745.376
147.673	22.971	949.268	744.657
148.687	22.525	948.647	742.228
149.702	22.980	946.042	742.031
150.716	22.726	947.054	741.693
151.731	22.822	946.214	741.372
152.746	22.695	945.407	740.142
153.760	23.196	944.765	741.675
154.775	22.992	944.929	740.882
155.789	23.227	943.633	740.784
156.804	23.360	941.866	739.889
157.819	23.572	940.565	739.685
158.833	23.593	941.770	740.656
159.848	23.624	941.225	740.288
160.862	23.507	939.783	738.600
161.877	22.919	938.897	735.392
162.892	23.148	936.720	734.576
163.906	22.579	935.937	731.536
164.921	22.637	934.453	730.551
165.935	22.917	934.794	731.913
166.950	23.090	934.009	731.950
167.964	23.048	932.725	730.704
168.979	22.886	931.553	729.054
169.994	23.000	930.615	728.723
171.008	23.122	930.432	729.020
172.023	23.324	929.952	729.411
173.037	23.362	929.614	729.238
174.052	23.491	927.629	728.144
175.067	22.780	928.108	725.536
176.081	22.684	926.811	724.062
177.096	22.501	925.799	722.456
178.110	22.483	925.687	722.234
179.125	22.485	925.603	722.112
180.140	22.835	923.826	722.093
181.154	23.185	923.874	723.496
182.169	23.315	924.385	724.366
183.183	22.994	924.510	723.086
184.198	22.981	923.133	721.891
185.213	23.214	921.840	721.769
186.227	23.271	921.174	721.415
187.242	23.325	921.155	721.555
188.256	23.207	921.020	720.906
189.271	23.823	918.927	721.707
190.286	23.140	918.428	718.479
191.300	22.756	917.421	716.069
192.315	22.110	916.277	712.494
193.329	22.377	915.979	713.282
194.344	22.629	916.038	714.286
195.359	23.082	914.101	714.542
196.373	23.195	914.522	715.262
197.388	23.253	914.372	715.316
198.402	23.988	913.277	717.362
199.417	24.136	914.047	718.502
200.432	23.961	913.264	717.115
201.446	24.152	912.787	717.446
202.461	23.972	912.378	716.339
203.475	23.800	910.905	714.426
204.490	22.922	910.821	710.767
205.504	22.934	909.467	709.696
206.519	23.059	908.861	709.660
207.534	23.166	907.842	709.231
208.548	23.321	907.766	709.731
209.563	23.251	907.514	709.190
210.577	23.298	906.515	708.536
211.592	23.496	906.730	709.431
212.607	24.044	905.332	710.464
213.621	23.703	904.650	708.506
214.636	23.401	903.449	706.300
215.650	23.577	903.033	706.615
216.665	23.828	901.683	706.493
217.680	23.870	902.403	707.161
218.694	23.619	901.305	705.240
219.709	23.462	900.859	704.204
220.723	23.457	899.744	703.250
221.738	23.348	898.636	701.891
222.753	23.353	898.454	701.706
223.767	23.706	897.433	702.246
224.782	23.789	897.445	702.520
225.796	23.546	898.035	701.958
226.811	23.407	896.228	699.933
227.826	22.954	895.765	697.721
228.840	23.201	894.506	697.653
229.855	23.067	893.745	696.469
230.869	23.146	893.210	696.303
231.884	23.026	893.635	696.101
232.899	23.072	892.197	695.100
233.913	22.707	891.496	693.059
234.928	22.987	890.643	693.433
235.942	22.482	890.859	691.555
236.957	22.298	889.995	690.102
237.972	22.803	888.571	690.915
238.986	22.819	888.781	691.079
240.001	22.691	888.445	690.258
241.015	22.887	887.238	690.022
242.030	23.163	887.279	691.073
243.045	23.143	886.681	690.470
244.059	23.201	885.792	689.939
245.074	23.117	885.760	689.525
246.088	23.566	884.579	690.294
247.103	23.907	884.006	691.112
248.117	23.771	885.003	691.301
249.132	24.113	884.599	692.254
250.147	24.750	884.156	694.319
251.161	24.732	883.452	693.633
252.176	24.660	882.874	692.838
253.190	24.649	882.238	692.238
254.205	24.799	881.351	692.061
255.220	24.422	881.403	690.582
256.234	24.423	880.684	689.961
257.249	24.321	879.009	688.196
258.263	24.126	878.707	687.143
259.278	24.200	877.190	686.181
260.293	24.346	877.843	687.197
261.307	24.469	877.024	686.968
262.322	24.667	876.202	687.022
263.336	24.438	875.617	685.625
264.351	24.001	875.629	683.893
265.366	24.312	874.787	684.368
266.380	24.578	874.776	685.320
267.395	24.340	873.120	683.053
268.409	24.353	872.573	682.613
269.424	24.491	871.220	682.022
270.439	24.318	870.595	680.810
271.453	24.423	869.045	679.941
272.468	24.293	870.163	680.255
273.482	24.210	870.237	679.937
274.497	24.225	869.678	679.500
275.512	24.176	868.055	677.985
276.526	24.198	867.894	677.882
277.541	24.542	867.260	678.633
278.555	24.427	866.718	677.712
279.570	24.707	867.146	679.050
280.585	25.012	865.660	678.983
281.599	24.344	864.172	675.229
282.614	24.006	863.863	673.648
283.628	23.654	863.447	671.931
284.643	24.290	862.553	673.582
285.657	23.961	862.376	672.139
286.672	24.314	861.713	672.898
287.687	24.503	860.954	672.956
288.701	24.276	861.126	672.174
289.716	24.117	860.650	671.147
290.730	24.262	859.991	671.119
291.745	24.455	858.930	670.958
292.760	24.417	858.839	670.683
293.774	24.690	858.609	671.470
294.789	24.850	857.624	671.241
295.803	24.320	856.884	668.613
296.818	24.205	856.727	668.003
297.833	24.074	855.150	666.223
298.847	24.098	855.102	666.218
299.862	24.440	853.827	666.443
300.876	24.390	854.369	666.619
301.891	24.458	853.483	666.124
302.906	25.117	853.104	668.224
303.920	24.781	853.198	666.987
304.935	25.139	852.649	667.834
305.949	24.606	852.213	665.446
306.964	24.637	850.968	664.532
307.979	24.433	850.666	663.479
308.993	24.491	849.634	662.831
310.008	24.821	850.071	664.336
311.022	24.454	849.379	662.378
312.037	24.539	847.890	661.474
313.052	24.219	847.901	660.237
314.066	24.072	845.723	657.939
315.081	24.003	845.760	657.656
316.095	24.228	844.797	657.676
317.110	24.089	844.159	656.610
318.125	23.924	843.860	655.710
319.139	23.257	844.023	653.322
320.154	23.979	842.802	654.976
321.168	24.082	842.408	654.990
322.183	24.250	842.252	655.429
323.197	24.368	841.361	655.112
324.212	24.179	840.282	653.521
325.227	23.878	840.644	652.637
326.241	23.825	839.690	651.647
327.256	23.790	839.279	651.140
328.270	23.614	839.338	650.484
329.285	24.043	837.423	650.513
330.300	23.616	837.148	648.678
331.314	23.855	837.077	649.442
332.329	24.079	836.620	649.847
333.343	24.236	836.672	650.402
334.358	23.943	837.003	649.530
335.373	24.326	836.286	650.315
336.387	24.683	835.584	651.011
337.402	24.903	835.108	651.384
338.416	24.902	835.515	651.642
339.431	25.242	835.600	652.885
340.446	25.250	834.984	652.378
341.460	25.725	833.240	652.680
342.475	25.214	834.645	651.865
343.489	25.079	834.317	651.060
344.504	25.451	833.612	651.801
345.519	25.743	832.612	652.021
346.533	25.388	833.121	651.075
347.548	25.077	831.763	648.831
348.562	25.153	830.099	647.749
349.577	24.998	829.718	646.835
350.592	24.601	828.861	644.677
351.606	24.234	828.730	643.195
352.621	24.530	827.197	643.014
353.635	24.778	826.591	643.379
354.650	24.494	826.882	642.527
355.665	24.542	825.731	641.746
356.679	24.938	824.141	641.876
357.694	24.757	824.335	641.319
358.708	24.259	824.466	639.578
359.723	24.702	823.289	640.195
360.738	24.456	823.091	639.106
361.752	24.862	822.518	640.055
362.767	25.101	821.746	640.253
363.781	25.173	822.750	641.234
364.796	25.514	821.449	641.380
365.810	25.840	821.093	642.207
366.825	25.323	821.330	640.494
367.840	25.553	819.698	639.981
368.854	25.170	820.031	638.820
369.869	25.143	818.819	637.724
370.883	24.901	819.421	637.275
371.898	25.235	819.229	638.258
372.913	25.040	818.805	637.177
373.927	24.914	817.312	635.514
374.942	24.978	816.701	635.208
375.956	25.289	816.752	636.295
376.971	25.563	816.537	637.042
377.986	25.592	815.711	636.445
379.000	25.816	815.515	637.026
380.015	25.393	815.197	635.226
381.029	25.726	814.090	635.483
382.044	25.659	813.658	634.854
383.059	25.854	812.829	634.838
384.073	25.693	811.809	633.419
385.088	25.132	811.607	631.230
386.102	24.581	811.241	628.950
387.117	25.199	810.100	630.182
388.132	24.775	809.557	628.217
389.146	25.033	808.904	628.559
390.161	25.556	808.851	630.294
391.175	25.582	808.137	629.773
392.190	25.426	808.262	629.270
393.205	25.141	806.691	626.995
394.219	24.363	805.668	623.426
395.234	24.560	805.647	624.043
396.248	24.853	804.797	624.350
397.263	25.133	804.367	624.940
398.278	24.597	803.873	622.632
399.292	24.389	804.342	622.214
400.307	24.598	803.277	622.066
401.321	24.685	802.831	621.965
402.336	24.985	802.761	622.900
403.350	25.030	803.082	623.252
404.365	25.555	802.735	624.753
405.380	25.863	802.229	625.372
406.394	25.955	803.044	626.271
407.409	26.444	802.166	627.228
408.423	26.164	801.220	625.462
409.438	25.699	801.438	623.965
410.453	25.831	800.990	624.018
411.467	25.915	799.606	623.175
412.482	25.923	799.531	623.088
413.496	26.187	798.954	623.497
414.511	25.918	798.674	622.294
415.526	25.983	797.890	621.852
416.540	26.050	797.450	621.686
417.555	26.041	796.332	620.729
418.569	26.351	796.289	621.704
419.584	25.908	796.222	620.075
420.599	25.909	796.375	620.144
421.613	162.381	1370.534	1794.840
422.628	140.886	1454.271	1794.957
