DTS Sentinel unit serial number:	SN413079Multiplexer serial number:	ORYXHardware model number:	OX4-SRSoftware version number:	ORYX F/W v4.00 Oryx Data Collector v3.7.2.0data status	okinstallation	princeton_trtdifferential loss correction	single-endedforward channel	channel 1reverse channel	N/Adate	2019/09/13time	11:26:35forward acquisition time	60.00reverse acquisition time	0.00gamma	496.2192k internal	0.2315k external	0.2315temperature offset calibration	1.0145default loss term (dB/km)	0.3790temperature slope calibration	1.0000multiplexer offset coefficient	1.0000multiplexer slope coefficient	1.0000fibre end	0.00T internal ref (°C)	32.62T ext. ref 1 (°C)	4.36T ext. ref 2 (°C)	29.92length (m)	temperature (°C)	Stokes	anti-Stokes-747.200	-68.082	0.029	0.012
-746.185	55.356	-0.440	0.431
-745.171	130.933	0.150	-0.195
-744.156	92.548	-0.133	0.152
-743.142	-68.884	0.185	-0.072
-742.127	-200.000	-0.019	0.180
-741.112	491.472	0.166	0.384
-740.098	-7.474	0.243	0.167
-739.083	-200.000	-0.006	0.164
-738.069	101.660	0.048	0.057
-737.054	157.854	-0.036	0.051
-736.039	-200.000	-0.029	-0.211
-735.025	654.561	0.065	0.169
-734.010	349.151	0.163	0.326
-732.996	456.970	0.074	0.166
-731.981	-200.000	0.001	0.110
-730.966	16.512	0.142	-0.114
-729.952	733.364	-0.079	-0.215
-728.937	191.652	-0.164	-0.250
-727.923	-35.426	-0.295	-0.162
-726.908	-176.787	0.160	-0.004
-725.894	800.000	0.028	-0.093
-724.879	17.333	-0.140	-0.113
-723.864	800.000	0.073	0.239
-722.850	-106.270	-0.263	-0.060
-721.835	386.672	0.243	0.508
-720.821	-95.612	0.321	0.087
-719.806	-116.623	-0.197	0.037
-718.791	293.401	-0.253	-0.467
-717.777	-58.380	-0.187	-0.082
-716.762	-152.333	0.170	-0.012
-715.748	65.749	0.373	0.383
-714.733	800.000	0.068	-0.276
-713.718	-48.087	-0.205	0.100
-712.704	538.600	-0.142	-0.342
-711.689	-92.305	-0.241	-0.069
-710.675	-7.471	-0.047	-0.032
-709.660	48.803	0.148	0.140
-708.645	63.284	0.090	-0.091
-707.631	85.970	0.033	0.037
-706.616	-198.410	0.046	-0.000
-705.602	716.145	0.125	-0.335
-704.587	-200.000	0.043	-0.235
-703.572	-99.006	0.186	-0.048
-702.558	-200.000	-0.021	0.145
-701.543	800.000	0.023	0.082
-700.529	104.091	0.250	0.297
-699.514	230.090	0.187	-0.309
-698.499	83.735	-0.063	0.070
-697.485	192.466	-0.083	0.127
-696.470	-106.662	0.178	0.040
-695.456	339.519	0.076	0.150
-694.441	-200.000	-0.000	0.071
-693.426	-60.139	-0.151	0.065
-692.412	-90.420	0.154	0.045
-691.397	-178.587	0.174	-0.004
-690.383	800.000	-0.065	-0.181
-689.368	-18.215	-0.206	-0.130
-688.354	196.521	-0.206	-0.317
-687.339	800.000	0.146	-0.416
-686.324	34.571	-0.170	-0.151
-685.310	77.192	0.065	0.070
-684.295	-116.987	-0.164	0.030
-683.281	-20.550	-0.146	0.091
-682.266	-120.794	-0.463	-0.079
-681.251	37.602	0.178	0.160
-680.237	-200.000	0.026	-0.244
-679.222	1.245	0.075	0.054
-678.208	-66.896	-0.138	0.055
-677.193	144.002	-0.152	-0.205
-676.178	508.988	0.186	-0.436
-675.164	7.355	-0.281	-0.212
-674.149	114.707	0.307	-0.378
-673.135	-200.000	-0.001	0.027
-672.120	29.926	0.189	-0.163
-671.105	-36.509	-0.223	0.121
-670.091	667.475	0.076	0.199
-669.076	-200.000	-0.061	-0.271
-668.062	17.537	-0.208	-0.167
-667.047	-49.943	0.210	0.101
-666.032	-120.791	0.043	-0.007
-665.018	-85.913	-0.143	-0.045
-664.003	800.000	0.067	-0.274
-662.989	-147.436	0.300	0.026
-661.974	485.735	-0.050	-0.115
-660.959	-115.988	-0.397	0.075
-659.945	-66.610	-0.134	-0.054
-658.930	-200.000	0.007	0.130
-657.916	-139.251	0.140	-0.015
-656.901	122.967	-0.217	0.275
-655.886	327.574	-0.198	-0.384
-654.872	-200.000	-0.018	-0.183
-653.857	-136.052	0.283	0.034
-652.843	41.659	-0.154	-0.141
-651.828	-115.472	-0.213	0.041
-650.814	-37.491	-0.095	0.051
-649.799	34.152	0.081	-0.071
-648.784	-65.672	-0.279	-0.113
-647.770	574.562	-0.029	0.071
-646.755	-99.696	0.128	0.032
-645.741	-21.380	-0.168	-0.104
-644.726	94.162	-0.313	0.359
-643.711	129.083	-0.057	0.073
-642.697	-118.339	-0.159	0.029
-641.682	34.404	0.197	-0.174
-640.668	275.774	-0.141	-0.252
-639.653	-200.000	-0.015	-0.500
-638.638	800.000	-0.060	-0.187
-637.624	-108.718	0.376	-0.081
-636.609	153.539	0.093	0.129
-635.595	-200.000	-0.014	-0.100
-634.580	800.000	-0.029	-0.116
-633.565	375.108	-0.154	0.317
-632.551	106.042	0.274	0.327
-631.536	800.000	-0.123	-0.374
-630.522	-73.778	0.267	0.098
-629.507	73.183	0.149	0.157
-628.492	111.229	0.148	0.180
-627.478	-107.108	-0.049	0.011
-626.463	-200.000	0.007	-0.267
-625.449	-48.474	-0.263	-0.128
-624.434	-124.334	0.284	-0.045
-623.419	10.998	0.195	-0.150
-622.405	-184.992	0.124	-0.002
-621.390	14.339	-0.063	-0.050
-620.376	-35.560	0.233	-0.127
-619.361	161.010	0.138	-0.195
-618.346	43.932	-0.236	0.218
-617.332	-107.605	-0.327	-0.072
-616.317	-22.786	-0.133	0.081
-615.303	-200.000	-0.002	0.166
-614.288	800.000	0.094	-0.340
-613.273	-17.109	-0.241	-0.154
-612.259	80.808	-0.190	0.207
-611.244	80.098	0.101	0.109
-610.230	12.695	0.401	-0.312
-609.215	173.186	0.293	-0.425
-608.201	634.099	0.023	0.060
-607.186	434.725	-0.076	0.166
-606.171	-200.000	0.022	0.142
-605.157	165.582	0.066	-0.094
-604.142	-0.947	-0.227	-0.162
-603.128	580.146	-0.130	-0.320
-602.113	-97.189	-0.459	0.121
-601.098	-67.162	-0.146	-0.058
-600.084	-46.578	0.307	-0.152
-599.069	-187.105	0.453	0.006
-598.055	-105.154	-0.140	0.032
-597.040	371.778	-0.055	-0.113
-596.025	800.000	0.040	-0.126
-595.011	281.467	-0.265	-0.479
-593.996	-86.795	0.049	-0.015
-592.982	-200.000	0.004	-0.028
-591.967	-154.272	-0.286	0.019
-590.952	-104.842	-0.151	-0.035
-589.938	-94.447	0.148	0.041
-588.923	-200.000	0.050	-0.268
-587.909	-116.670	-0.095	-0.018
-586.894	800.000	-0.022	-0.071
-585.879	50.153	0.044	0.041
-584.865	800.000	-0.032	0.104
-583.850	-200.000	0.023	0.185
-582.836	-62.588	0.113	-0.047
-581.821	800.000	-0.092	0.283
-580.806	-1.830	0.156	0.110
-579.792	-156.571	0.124	-0.008
-578.777	-103.651	-0.524	0.124
-577.763	-200.000	-0.010	-0.224
-576.748	-40.027	-0.389	-0.204
-575.733	326.071	0.137	0.265
-574.719	-29.515	-0.288	0.166
-573.704	-200.000	0.030	0.359
-572.690	-79.637	-0.156	-0.053
-571.675	-9.305	-0.309	-0.208
-570.661	6.093	0.136	-0.102
-569.646	-45.356	0.395	0.197
-568.631	288.254	0.070	0.127
-567.617	16.292	0.050	0.040
-566.602	96.113	-0.142	-0.163
-565.588	800.000	-0.085	0.297
-564.573	190.877	0.209	0.316
-563.558	-132.637	0.239	0.031
-562.544	248.517	-0.158	-0.269
-561.529	800.000	-0.118	0.343
-560.515	-7.636	0.178	0.121
-559.500	214.463	-0.111	-0.176
-558.485	570.473	0.004	0.010
-557.471	-183.998	-0.337	-0.006
-556.456	-91.637	0.274	0.079
-555.442	800.000	0.026	0.113
-554.427	0.957	-0.194	-0.140
-553.412	-117.014	-0.469	0.086
-552.398	-23.185	-0.313	-0.190
-551.383	38.373	0.392	-0.351
-550.369	231.021	0.128	0.212
-549.354	800.000	-0.028	0.125
-548.339	-138.180	-0.323	-0.036
-547.325	-112.793	-0.086	0.017
-546.310	399.354	0.147	-0.310
-545.296	250.930	-0.121	-0.206
-544.281	491.067	0.017	-0.039
-543.266	156.351	0.042	-0.058
-542.252	-200.000	0.006	-0.072
-541.237	86.981	-0.048	-0.053
-540.223	-91.826	-0.449	0.128
-539.208	277.382	0.095	-0.169
-538.193	273.179	-0.045	-0.080
-537.179	40.572	0.092	0.083
-536.164	438.162	0.078	-0.172
-535.150	182.520	-0.166	0.246
-534.135	-35.691	0.150	0.081
-533.121	251.412	0.145	-0.248
-532.106	-85.455	0.377	-0.118
-531.091	-101.916	-0.154	0.037
-530.077	170.478	-0.195	-0.281
-529.062	70.823	0.118	-0.123
-528.048	-200.000	0.055	-0.247
-527.033	129.387	0.111	-0.142
-526.018	356.507	0.093	0.187
-525.004	-20.128	0.285	0.177
-523.989	-133.499	-0.177	0.022
-522.975	105.606	0.113	0.134
-521.960	-92.509	-0.282	-0.080
-520.945	55.776	0.217	0.211
-519.931	-47.404	0.394	0.192
-518.916	800.000	0.093	-0.353
-517.902	-129.753	0.256	0.035
-516.887	-200.000	0.016	0.098
-515.872	-200.000	-0.029	0.149
-514.858	145.346	-0.123	-0.165
-513.843	-18.713	0.054	0.034
-512.829	63.553	0.142	0.143
-511.814	-200.000	-0.016	0.090
-510.799	-200.000	-0.034	-0.221
-509.785	-200.000	0.028	-0.198
-508.770	-183.982	-0.531	-0.009
-507.756	678.068	0.168	-0.438
-506.741	-91.238	0.184	0.053
-505.726	532.515	0.119	-0.284
-504.712	32.188	-0.275	-0.238
-503.697	-120.809	-0.073	-0.012
-502.683	-99.822	0.377	0.095
-501.668	-21.182	-0.122	0.075
-500.653	-200.000	0.022	0.167
-499.639	800.000	-0.042	0.134
-498.624	6.669	-0.250	-0.186
-497.610	-115.388	0.058	0.011
-496.595	-200.000	-0.051	0.249
-495.581	130.101	0.192	0.247
-494.566	166.071	-0.284	-0.404
-493.551	-200.000	-0.035	-0.191
-492.537	11.679	-0.240	0.185
-491.522	214.894	-0.086	-0.137
-490.508	135.897	0.008	0.011
-489.493	-81.045	-0.142	-0.047
-488.478	-200.000	-0.042	-0.420
-487.464	-13.935	0.274	-0.177
-486.449	-110.141	0.127	-0.027
-485.435	-28.303	-0.046	-0.026
-484.420	-200.000	0.437	-0.000
-483.405	456.844	-0.041	-0.091
-482.391	94.877	0.160	-0.182
-481.376	447.672	0.070	-0.156
-480.362	-200.000	0.024	0.242
-479.347	-200.000	-0.001	0.013
-478.332	513.550	0.025	-0.058
-477.318	-101.283	-0.013	-0.003
-476.303	-56.236	-0.120	-0.053
-475.289	-200.000	0.028	0.204
-474.274	-67.648	0.228	0.090
-473.259	-18.596	-0.153	-0.096
-472.245	-11.085	0.144	-0.095
-471.230	-147.868	-0.198	-0.017
-470.216	642.648	0.021	0.054
-469.201	-200.000	-0.004	0.067
-468.186	-35.983	-0.181	0.098
-467.172	24.178	0.157	0.130
-466.157	397.097	-0.071	-0.150
-465.143	-200.000	-0.038	0.237
-464.128	800.000	-0.089	-0.317
-463.113	-44.898	-0.063	0.031
-462.099	97.141	-0.180	0.207
-461.084	116.281	0.291	-0.358
-460.070	-104.724	0.158	0.036
-459.055	48.238	0.397	-0.372
-458.040	800.000	-0.043	0.149
-457.026	278.355	0.265	0.474
-456.011	111.021	-0.071	-0.085
-454.997	-19.203	-0.323	0.201
-453.982	18.778	0.266	0.213
-452.968	800.000	0.124	-0.361
-451.953	-114.737	-0.130	-0.025
-450.938	-76.608	-0.219	-0.077
-449.924	-40.411	0.124	-0.065
-448.909	-147.958	-0.190	-0.016
-447.895	95.307	-0.144	0.164
-446.880	-126.001	-0.070	0.011
-445.865	52.913	0.173	-0.166
-444.851	-154.895	0.223	0.015
-443.836	1.106	-0.269	-0.193
-442.822	800.000	-0.080	-0.350
-441.807	380.436	-0.140	-0.288
-440.792	87.279	-0.266	0.294
-439.778	800.000	0.116	-0.469
-438.763	-200.000	0.018	-0.150
-437.749	22.742	0.153	-0.126
-436.734	10.309	-0.156	0.119
-435.719	800.000	0.033	-0.098
-434.705	136.034	0.128	-0.168
-433.690	27.808	-0.168	-0.142
-432.676	-8.325	-0.194	0.131
-431.661	-90.654	-0.191	0.055
-430.646	800.000	0.127	0.362
-429.632	-107.290	-0.279	-0.061
-428.617	85.775	0.320	-0.352
-427.603	800.000	-0.050	0.198
-426.588	466.268	-0.120	0.269
-425.573	-108.698	0.352	0.075
-424.559	66.579	0.077	0.078
-423.544	75.705	-0.181	0.191
-422.530	13.752	0.036	-0.028
-421.515	474.243	-0.030	-0.067
-420.500	-116.054	-0.334	0.062
-419.486	-83.650	-0.273	0.087
-418.471	-200.000	-0.037	0.251
-417.457	-57.849	0.249	0.109
-416.442	59.415	-0.263	-0.260
-415.428	-200.000	0.048	0.321
-414.413	55.705	-0.090	0.088
-413.398	-72.470	0.182	0.067
-412.384	-159.814	0.145	-0.008
-411.369	137.387	0.219	0.286
-410.355	177.066	-0.186	0.271
-409.340	24.452	0.064	-0.053
-408.325	800.000	0.021	0.088
-407.311	-200.000	-0.025	0.147
-406.296	42.570	0.244	0.222
-405.282	-200.000	0.021	-0.223
-404.267	-68.711	-0.034	-0.013
-403.252	332.726	0.199	-0.385
-402.238	275.886	0.087	0.155
-401.223	280.023	0.172	0.307
-400.209	176.215	-0.056	0.082
-399.194	-48.493	-0.308	0.148
-398.179	28.856	-0.055	0.047
-397.165	-200.000	-0.043	-0.232
-396.150	398.611	-0.042	-0.087
-395.136	800.000	-0.081	-0.244
-394.121	308.085	0.193	0.360
-393.106	800.000	-0.100	0.279
-392.092	-173.989	-0.216	-0.006
-391.077	308.938	-0.078	0.146
-390.063	133.500	-0.164	-0.212
-389.048	154.379	-0.093	0.127
-388.033	-26.537	-0.089	0.052
-387.019	5.836	0.194	0.143
-386.004	719.360	0.053	0.139
-384.990	25.177	0.116	-0.096
-383.975	21.011	0.115	0.093
-382.960	304.646	0.123	-0.227
-381.946	-62.517	-0.026	-0.011
-380.931	40.252	0.192	-0.172
-379.917	553.128	0.114	0.273
-378.902	659.961	-0.023	0.059
-377.888	70.997	0.075	-0.078
-376.873	102.373	-0.146	-0.170
-375.858	-51.054	-0.122	0.057
-374.844	76.432	0.037	0.039
-373.829	-63.504	-0.063	-0.026
-372.815	34.509	-0.049	-0.043
-371.800	54.176	-0.133	-0.128
-370.785	-91.590	-0.255	-0.073
-369.771	-121.798	-0.367	0.061
-368.756	133.467	0.113	-0.145
-367.742	-104.493	0.521	0.120
-366.727	-200.000	-0.021	0.201
-365.712	323.277	0.048	0.091
-364.698	177.560	-0.057	0.083
-363.683	-9.747	-0.239	-0.159
-362.669	-76.219	0.198	0.070
-361.654	268.489	0.127	0.222
-360.639	800.000	-0.041	-0.143
-359.625	94.606	0.108	-0.122
-358.610	-27.697	-0.094	-0.055
-357.596	-200.000	-0.012	-0.200
-356.581	116.527	-0.178	-0.218
-355.566	-200.000	-0.032	-0.174
-354.552	34.728	0.132	0.115
-353.537	-200.000	0.019	0.130
-352.523	-41.042	-0.132	-0.068
-351.508	-200.000	-0.011	-0.131
-350.493	-97.987	0.107	-0.027
-349.479	13.622	-0.235	-0.182
-348.464	-200.000	-0.031	-0.217
-347.450	258.602	0.070	-0.121
-346.435	11.985	0.147	-0.113
-345.420	49.275	0.119	0.112
-344.406	499.863	-0.073	-0.169
-343.391	117.233	-0.049	-0.060
-342.377	-152.236	-0.103	-0.007
-341.362	-200.000	-0.001	0.077
-340.348	-112.170	-0.149	0.030
-339.333	-200.000	0.046	0.204
-338.318	800.000	-0.052	-0.153
-337.304	-200.000	0.017	0.133
-336.289	800.000	-0.095	0.293
-335.275	160.421	-0.124	-0.172
-334.260	-105.009	0.136	0.031
-333.245	800.000	-0.050	0.163
-332.231	-26.333	0.267	0.156
-331.216	-94.594	-0.247	0.067
-330.202	800.000	-0.051	-0.204
-329.187	580.094	-0.089	0.217
-328.172	43.576	0.211	0.192
-327.158	242.174	0.159	-0.264
-326.143	69.592	0.180	0.185
-325.129	15.858	-0.220	-0.172
-324.114	800.000	-0.023	0.081
-323.099	-73.560	0.055	-0.020
-322.085	123.113	-0.024	-0.029
-321.070	464.657	-0.167	0.372
-320.056	310.808	0.179	0.334
-319.041	640.274	-0.154	0.391
-318.026	-51.250	-0.109	-0.051
-317.012	35.580	-0.139	0.121
-315.997	691.859	0.110	0.287
-314.983	-43.832	0.162	0.081
-313.968	-200.000	-0.031	0.199
-312.953	-51.843	-0.138	-0.064
-311.939	-79.752	0.113	0.038
-310.924	167.508	-0.230	0.326
-309.910	-200.000	0.020	-0.288
-308.895	-150.310	0.285	-0.022
-307.880	363.910	-0.053	0.107
-306.866	261.991	-0.124	-0.214
-305.851	214.282	0.062	-0.097
-304.837	-200.000	0.043	0.307
-303.822	800.000	0.075	-0.211
-302.807	154.292	0.131	0.179
-301.793	800.000	0.063	-0.229
-300.778	-200.000	-0.002	0.259
-299.764	-114.657	0.239	-0.046
-298.749	17.773	-0.103	0.081
-297.735	117.852	0.136	-0.167
-296.720	6.847	-0.243	-0.180
-295.705	230.885	-0.072	-0.117
-294.691	20.792	0.338	-0.273
-293.676	-200.000	0.035	0.218
-292.662	-41.665	-0.193	-0.099
-291.647	-137.654	0.435	0.049
-290.632	84.930	-0.119	0.130
-289.618	75.539	0.122	-0.129
-288.603	75.270	0.030	0.032
-287.589	-200.000	0.022	-0.250
-286.574	-159.215	-0.360	-0.020
-285.559	727.813	0.121	0.322
-284.545	225.982	-0.038	-0.061
-283.530	-19.574	-0.180	-0.111
-282.516	-32.957	-0.143	0.079
-281.501	-200.000	-0.056	-0.328
-280.486	800.000	0.021	-0.066
-279.472	35.308	0.118	-0.103
-278.457	680.585	-0.174	-0.450
-277.443	-200.000	0.019	-0.207
-276.428	800.000	-0.035	0.112
-275.413	-136.304	0.185	0.021
-274.399	90.350	0.120	-0.134
-273.384	-185.516	0.379	0.006
-272.370	-200.000	0.018	0.253
-271.355	624.858	-0.140	-0.350
-270.340	-92.595	0.098	0.027
-269.326	179.864	0.103	-0.150
-268.311	91.175	0.139	-0.155
-267.297	102.443	0.119	-0.138
-266.282	26.554	0.199	-0.166
-265.267	-200.000	0.014	0.232
-264.253	199.143	0.051	0.077
-263.238	-200.000	-0.005	-0.193
-262.224	-12.426	-0.411	0.267
-261.209	25.491	0.085	0.071
-260.195	-200.000	-0.017	-0.090
-259.180	-62.176	-0.239	0.099
-258.165	-200.000	0.019	-0.152
-257.151	-22.214	-0.399	-0.241
-256.136	379.227	0.032	-0.065
-255.122	-28.530	0.176	0.101
-254.107	-99.618	0.246	-0.061
-253.092	147.927	-0.151	-0.202
-252.078	-79.016	-0.282	0.095
-251.063	-200.000	0.033	0.243
-250.049	136.499	-0.106	0.138
-249.034	-10.458	-0.249	-0.164
-248.019	64.094	0.246	-0.246
-247.005	-50.362	-0.050	0.023
-245.990	-168.640	0.086	-0.003
-244.976	-107.304	0.292	-0.064
-243.961	22.523	-0.134	-0.109
-242.946	25.937	-0.283	0.234
-241.932	-38.682	0.225	0.118
-240.917	-114.063	0.131	0.025
-239.903	-200.000	-0.015	0.110
-238.888	-14.952	-0.152	0.097
-237.873	-101.932	0.089	0.021
-236.859	-200.000	0.015	-0.087
-235.844	-107.370	-0.244	0.053
-234.830	33.476	-0.083	0.072
-233.815	-200.000	-0.028	0.207
-232.800	-148.466	-0.304	0.025
-231.786	-200.000	0.024	0.188
-230.771	-6.466	-0.310	0.210
-229.757	-200.000	0.015	-0.123
-228.742	-200.000	0.010	-0.191
-227.727	-107.507	-0.198	-0.043
-226.713	24.279	0.276	0.227
-225.698	139.705	0.151	0.197
-224.684	11.087	-0.199	0.151
-223.669	-18.720	-0.097	-0.060
-222.655	-200.000	-0.002	-0.210
-221.640	511.758	0.066	0.152
-220.625	364.753	0.053	0.107
-219.611	-198.662	0.166	0.001
-218.596	-200.000	-0.001	-0.031
-217.582	52.198	0.157	0.149
-216.567	293.616	0.057	0.102
-215.552	33.025	-0.057	0.049
-214.538	-27.556	0.169	0.097
-213.523	156.068	0.318	0.435
-212.509	-6.526	-0.271	-0.183
-211.494	455.035	-0.042	0.092
-210.479	255.420	0.200	-0.340
-209.465	-65.221	0.350	-0.140
-208.450	114.661	-0.100	0.121
-207.436	800.000	-0.085	0.276
-206.421	800.000	0.063	0.229
-205.406	144.501	0.176	0.234
-204.392	532.260	-0.026	0.060
-203.377	47.153	0.061	-0.056
-202.363	-57.696	-0.143	0.062
-201.348	-144.671	0.045	-0.004
-200.333	265.838	-0.109	0.189
-199.319	-200.000	-0.006	-0.090
-198.304	323.144	-0.167	0.316
-197.290	315.461	-0.070	-0.131
-196.275	-105.373	-0.333	0.075
-195.260	-32.454	0.232	-0.128
-194.246	-187.669	-0.167	0.002
-193.231	-96.456	-0.234	0.061
-192.217	792.364	0.084	0.228
-191.202	798.266	0.048	-0.132
-190.187	80.057	0.158	0.169
-189.173	800.000	0.066	-0.196
-188.158	728.737	-0.102	-0.271
-187.144	-45.750	0.234	-0.115
-186.129	-200.000	0.010	0.228
-185.114	137.501	0.092	-0.120
-184.100	-48.931	0.317	-0.150
-183.085	-162.990	0.418	0.020
-182.071	800.000	-0.020	-0.084
-181.056	4.109	-0.153	-0.111
-180.042	-14.170	-0.072	-0.046
-179.027	800.000	-0.051	0.161
-178.012	106.073	-0.336	0.394
-176.998	-200.000	0.005	0.104
-175.983	34.576	0.380	-0.329
-174.969	168.806	0.168	0.238
-173.954	-69.480	0.151	0.057
-172.939	-95.397	0.082	-0.022
-171.925	94.468	-0.112	0.126
-170.910	-149.624	0.258	-0.020
-169.896	154.774	0.035	-0.048
-168.881	-200.000	0.008	0.175
-167.866	-200.000	-0.006	0.301
-166.852	-117.109	-0.262	0.047
-165.837	-200.000	-0.044	-0.234
-164.823	-67.060	0.221	-0.086
-163.808	800.000	-0.104	-0.287
-162.793	-200.000	0.004	0.061
-161.779	400.318	-0.150	0.311
-160.764	347.909	0.074	0.144
-159.750	-114.536	-0.182	0.035
-158.735	-88.818	0.345	0.101
-157.720	518.208	-0.085	0.197
-156.706	561.146	0.060	0.143
-155.691	145.381	0.161	0.213
-154.677	184.125	0.277	0.406
-153.662	-76.481	-0.318	0.111
-152.647	-102.738	0.045	-0.011
-151.633	-200.000	0.024	-0.282
-150.618	26.920	0.276	-0.229
-149.604	-80.054	0.404	-0.134
-148.589	40.239	-0.069	-0.062
-147.574	-167.918	-0.169	-0.007
-146.560	743.546	-0.048	-0.128
-145.545	209.454	0.165	0.256
-144.531	66.066	-0.078	0.078
-143.516	195.008	0.086	-0.129
-142.502	476.124	0.104	-0.233
-141.487	-101.852	0.113	0.027
-140.472	-152.609	0.156	0.011
-139.458	217.190	-0.215	0.339
-138.443	800.000	-0.093	0.351
-137.429	-180.668	-0.313	0.006
-136.414	-200.000	0.078	0.408
-135.399	-177.048	0.196	0.005
-134.385	126.267	-0.125	-0.156
-133.370	139.024	0.095	0.123
-132.356	-82.160	0.113	-0.037
-131.341	270.601	-0.095	0.166
-130.326	800.000	0.011	-0.036
-129.312	-175.597	-0.123	-0.003
-128.297	11.590	0.111	-0.084
-127.283	-175.182	0.300	-0.008
-126.268	800.000	0.065	-0.186
-125.253	144.024	-0.112	0.147
-124.239	-115.148	-0.076	-0.014
-123.224	285.085	-0.198	0.353
-122.210	800.000	0.059	0.222
-121.195	-26.811	-0.192	0.111
-120.180	-7.409	0.228	0.153
-119.166	379.787	0.186	-0.376
-118.151	33.566	0.183	-0.157
-117.137	120.053	0.080	0.098
-116.122	3.313	0.275	0.198
-115.107	-77.345	0.202	0.069
-114.093	-200.000	0.003	0.110
-113.078	45.387	0.057	0.052
-112.064	800.000	0.054	-0.190
-111.049	-42.548	0.317	-0.160
-110.034	-142.143	-0.125	-0.012
-109.020	-200.000	0.025	-0.573
-108.005	629.657	-0.049	0.121
-106.991	-70.554	-0.352	0.132
-105.976	555.433	0.034	0.080
-104.962	-200.000	0.012	0.381
-103.947	-55.242	-0.100	0.045
-102.932	-200.000	-0.063	0.332
-101.918	695.141	-0.104	-0.269
-100.903	340.576	0.107	-0.206
-99.889	-5.367	0.050	-0.034
-98.874	-25.961	-0.215	0.125
-97.859	-107.083	-0.100	0.022
-96.845	-200.000	0.061	-0.358
-95.830	5.723	-0.288	0.211
-94.816	40.426	0.299	-0.266
-93.801	-81.488	-0.230	-0.075
-92.786	-200.000	0.056	-0.325
-91.772	-23.300	-0.185	0.110
-90.757	-90.217	-0.187	-0.054
-89.743	-200.000	0.049	-0.454
-88.728	-200.000	0.004	0.200
-87.713	25.469	-0.231	0.189
-86.699	42.113	0.240	-0.215
-85.684	-200.000	0.019	-0.189
-84.670	-84.174	-0.186	0.058
-83.655	11.617	-0.294	-0.222
-82.640	43.494	-0.197	0.178
-81.626	-10.777	-0.197	-0.129
-80.611	43.238	0.246	0.222
-79.597	800.000	0.019	-0.079
-78.582	205.082	0.168	-0.258
-77.567	-72.011	-0.152	0.056
-76.553	-200.000	-0.002	0.067
-75.538	-79.924	0.260	-0.086
-74.524	-129.189	-0.363	-0.050
-73.509	5.345	0.261	0.190
-72.494	27.539	-0.169	-0.141
-71.480	-86.680	-0.282	-0.085
-70.465	721.639	-0.084	0.222
-69.451	38.353	0.123	-0.108
-68.436	800.000	-0.131	0.374
-67.422	328.202	0.003	-0.006
-66.407	800.000	-0.015	-0.047
-65.392	800.000	0.071	-0.284
-64.378	163.201	0.234	0.324
-63.363	-20.333	0.342	0.208
-62.349	612.343	0.031	-0.077
-61.334	20.462	-1.007	-0.803
-60.319	73.286	0.512	0.528
-59.305	-200.000	-0.182	-0.789
-58.290	120.564	0.666	0.817
-57.276	800.000	0.554	1.595
-56.261	-200.000	97.226	589.871
-55.246	615.829	1424.947	3524.113
-54.232	185.121	2623.987	3840.225
-53.217	119.907	2186.035	2673.082
-52.203	44.644	1632.474	1480.252
-51.188	36.204	1365.325	1186.337
-50.173	32.915	1322.493	1129.436
-49.159	55.732	1370.032	1309.277
-48.144	58.138	1386.648	1339.703
-47.130	36.379	1344.655	1169.249
-46.115	32.818	1327.194	1132.686
-45.100	32.649	1322.377	1127.521
-44.086	32.585	1320.432	1125.432
-43.071	32.504	1317.645	1122.534
-42.057	32.539	1315.413	1120.794
-41.042	32.450	1313.976	1118.993
-40.027	32.539	1312.593	1118.305
-39.013	32.475	1311.048	1116.560
-37.998	32.507	1308.667	1114.681
-36.984	32.570	1307.088	1113.665
-35.969	32.703	1305.200	1112.797
-34.954	32.689	1303.404	1111.134
-33.940	32.681	1302.456	1110.236
-32.925	32.784	1300.820	1109.407
-31.911	32.673	1299.570	1107.642
-30.896	32.767	1297.791	1106.632
-29.881	32.690	1296.779	1105.276
-28.867	32.827	1295.292	1104.766
-27.852	32.822	1293.426	1103.103
-26.838	32.825	1291.913	1101.787
-25.823	32.601	1291.232	1099.856
-24.809	32.658	1289.668	1098.811
-23.794	32.647	1288.215	1097.467
-22.779	32.837	1286.480	1097.050
-21.765	32.774	1285.376	1095.695
-20.750	32.682	1284.290	1094.194
-19.736	32.553	1283.483	1092.714
-18.721	32.643	1282.131	1092.039
-17.706	32.608	1280.556	1090.454
-16.692	32.582	1279.186	1089.095
-15.677	32.463	1278.878	1088.103
-14.663	32.564	1277.532	1087.496
-13.648	32.527	1276.424	1086.297
-12.633	32.582	1275.439	1085.729
-11.619	32.635	1274.426	1085.131
-10.604	32.435	1273.813	1083.416
-9.590	32.561	1272.490	1082.972
-8.575	32.587	1271.289	1082.056
-7.560	32.531	1270.826	1081.296
-6.546	32.505	1270.241	1080.607
-5.531	32.500	1269.274	1079.710
-4.517	32.634	1268.132	1079.466
-3.502	32.665	1267.160	1078.773
-2.487	32.432	1266.865	1077.147
-1.473	32.574	1262.383	1074.104
-0.458	31.602	1247.849	1056.214
0.556	29.884	1229.236	1017.695
1.571	25.949	1233.935	999.722
2.586	24.652	1248.564	1004.205
3.600	22.946	1235.944	984.470
4.615	17.035	1162.965	895.169
5.629	8.628	1087.353	795.269
6.644	4.675	1067.638	761.460
7.659	4.433	1064.674	758.096
8.673	4.119	1063.484	755.649
9.688	4.205	1061.954	754.915
10.702	4.801	1060.581	756.769
11.717	10.349	1068.941	789.788
12.731	18.687	1080.508	839.194
13.746	21.944	1084.171	857.915
14.761	21.868	1083.057	856.588
15.775	20.848	1081.538	850.336
16.790	19.913	1079.853	844.373
17.804	19.359	1077.681	839.902
18.819	19.094	1076.856	837.895
19.834	18.808	1076.417	836.088
20.848	18.753	1075.703	835.195
21.863	18.526	1074.819	833.328
22.877	18.409	1074.091	832.125
23.892	18.266	1073.596	830.972
24.907	18.394	1072.693	830.820
25.921	18.316	1071.249	829.252
26.936	18.408	1069.863	828.549
27.950	18.322	1069.269	827.600
28.965	18.425	1067.344	826.536
29.980	18.656	1065.949	826.493
30.994	18.858	1064.762	826.474
32.009	18.768	1064.044	825.410
33.023	18.817	1062.808	824.613
34.038	18.618	1061.481	822.557
35.053	18.539	1060.771	821.553
36.067	18.352	1060.238	820.173
37.082	18.449	1059.454	819.957
38.096	18.531	1059.014	819.938
39.111	18.647	1058.016	819.646
40.126	18.451	1056.456	817.428
41.140	18.166	1054.730	814.666
42.155	18.116	1053.712	813.567
43.169	17.995	1052.854	812.260
44.184	18.056	1052.016	811.832
45.199	17.999	1050.965	810.676
46.213	18.270	1049.726	810.935
47.228	18.351	1049.149	810.800
48.242	18.535	1048.335	810.969
49.257	18.564	1046.793	809.841
50.271	18.573	1046.163	809.324
51.286	18.593	1045.466	808.811
52.301	18.571	1044.596	807.960
53.315	18.416	1043.092	805.996
54.330	18.273	1042.223	804.583
55.344	18.331	1041.527	804.244
56.359	18.270	1040.734	803.275
57.374	18.266	1039.899	802.544
58.388	18.055	1038.892	800.707
59.403	18.036	1037.862	799.751
60.417	18.115	1037.039	799.416
61.432	17.982	1036.766	798.514
62.447	17.990	1035.738	797.686
63.461	17.890	1035.039	796.611
64.476	17.723	1034.127	795.063
65.490	17.760	1033.015	794.308
66.505	17.940	1031.959	794.265
67.520	17.893	1031.688	793.769
68.534	17.919	1030.851	793.172
69.549	17.993	1030.170	792.924
70.563	17.820	1029.386	791.446
71.578	17.849	1028.110	790.528
72.593	17.701	1027.377	789.211
73.607	17.649	1026.967	788.583
74.622	17.670	1026.181	788.009
75.636	17.799	1025.836	788.270
76.651	17.802	1024.564	787.237
77.666	17.772	1024.581	787.044
78.680	17.801	1023.907	786.589
79.695	17.933	1023.239	786.614
80.709	17.978	1023.161	786.692
81.724	18.119	1022.121	786.472
82.739	18.177	1021.648	786.304
83.753	18.447	1020.778	786.803
84.768	18.630	1020.293	787.202
85.782	18.858	1019.294	787.405
86.797	18.755	1018.718	786.421
87.812	18.520	1017.151	784.066
88.826	18.603	1016.479	783.856
89.841	18.622	1015.945	783.464
90.855	18.755	1015.014	783.284
91.870	18.690	1014.322	782.383
92.884	18.811	1013.001	781.845
93.899	18.797	1012.242	781.126
94.914	18.866	1011.546	780.834
95.928	18.853	1010.566	779.948
96.943	18.752	1009.610	778.684
97.957	18.611	1008.730	777.298
98.972	18.714	1007.662	776.873
99.987	18.776	1006.790	776.413
101.001	18.674	1006.292	775.499
102.016	18.659	1005.471	774.730
103.030	18.839	1004.786	774.945
104.045	18.725	1003.883	773.667
105.060	18.688	1002.784	772.583
106.074	18.262	1001.977	769.979
107.089	17.995	1000.688	767.722
108.103	18.016	999.673	766.969
109.118	18.022	998.266	765.847
110.133	17.902	997.630	764.755
111.147	17.906	997.077	764.280
112.162	18.066	995.931	764.049
113.176	18.121	995.962	764.253
114.191	18.215	995.223	764.035
115.206	18.254	994.029	763.226
116.220	18.154	993.300	762.152
117.235	18.024	992.494	760.887
118.249	18.037	991.465	760.092
119.264	18.035	990.772	759.483
120.279	17.966	990.019	758.531
121.293	17.983	988.738	757.561
122.308	17.877	988.388	756.752
123.322	17.760	987.487	755.481
124.337	17.819	986.088	754.602
125.352	17.872	984.922	753.876
126.366	17.893	984.007	753.202
127.381	17.901	983.002	752.402
128.395	17.834	982.472	751.634
129.410	17.914	981.510	751.185
130.424	18.178	980.472	751.485
131.439	18.194	980.412	751.442
132.454	18.189	979.465	750.628
133.468	18.206	978.607	749.980
134.483	18.119	978.023	749.084
135.497	18.246	976.829	748.660
136.512	18.239	976.207	748.084
137.527	18.288	975.250	747.499
138.541	18.266	974.846	747.027
139.556	18.297	974.101	746.527
140.570	18.396	973.412	746.362
141.585	18.666	972.637	746.879
142.600	18.573	972.032	745.942
143.614	18.746	971.036	745.865
144.629	18.792	970.325	745.449
145.643	18.632	969.334	743.932
146.658	18.553	968.167	742.628
147.673	18.293	966.950	740.503
148.687	18.276	965.817	739.496
149.702	18.370	965.198	739.361
150.716	18.278	964.469	738.341
151.731	18.150	963.918	737.301
152.746	18.272	963.172	737.192
153.760	18.353	962.189	736.725
154.775	18.395	962.478	737.059
155.789	18.530	961.311	736.681
156.804	18.529	960.153	735.727
157.819	18.657	959.871	735.994
158.833	18.748	959.436	735.985
159.848	18.909	958.489	735.881
160.862	18.694	957.398	734.059
161.877	18.509	955.824	731.999
162.892	18.164	955.078	729.889
163.906	18.289	954.194	729.685
164.921	18.068	954.216	728.693
165.935	18.300	952.645	728.417
166.950	18.547	951.632	728.625
167.964	18.393	950.840	727.303
168.979	18.267	950.023	726.076
169.994	18.267	949.275	725.441
171.008	18.469	948.386	725.553
172.023	18.659	948.041	726.029
173.037	18.785	947.975	726.448
174.052	18.674	946.735	724.964
175.067	18.349	945.853	722.855
176.081	18.048	945.757	721.447
177.096	18.206	944.925	721.411
178.110	18.359	944.120	721.379
179.125	18.369	943.609	720.969
180.140	18.409	943.159	720.730
181.154	18.673	942.735	721.449
182.169	18.864	942.227	721.799
183.183	18.741	941.923	720.986
184.198	18.627	941.063	719.788
185.213	18.826	940.371	720.029
186.227	18.740	939.935	719.270
187.242	18.921	938.968	719.224
188.256	19.030	938.482	719.243
189.271	19.060	937.763	718.755
190.286	18.671	936.513	716.108
191.300	18.216	935.149	713.107
192.315	18.142	934.465	712.215
193.329	18.197	934.603	712.485
194.344	18.386	933.711	712.531
195.359	18.627	933.116	713.012
196.373	18.813	932.445	713.209
197.388	18.876	932.477	713.432
198.402	19.051	931.886	713.644
199.417	19.037	931.425	713.167
200.432	19.251	930.826	713.532
201.446	19.289	930.589	713.445
202.461	19.367	929.880	713.160
203.475	19.300	929.146	712.260
204.490	19.064	927.945	710.301
205.504	18.899	927.454	709.181
206.519	18.789	927.037	708.347
207.534	18.878	925.941	707.814
208.548	18.968	925.242	707.584
209.563	18.958	924.413	706.850
210.577	18.818	924.426	706.221
211.592	19.098	923.933	706.931
212.607	19.222	923.095	706.738
213.621	19.237	921.441	705.470
214.636	19.121	921.425	704.917
215.650	19.264	920.759	704.934
216.665	19.226	920.242	704.320
217.680	19.343	919.698	704.319
218.694	19.401	918.774	703.784
219.709	19.288	918.433	703.003
220.723	19.270	917.853	702.423
221.738	19.127	916.998	701.123
222.753	19.141	916.685	700.879
223.767	19.274	915.892	700.750
224.782	19.465	915.349	701.048
225.796	19.485	915.165	700.928
226.811	19.503	913.862	699.940
227.826	19.148	913.493	698.156
228.840	19.084	912.327	696.947
229.855	19.250	911.573	696.979
230.869	19.131	911.169	696.127
231.884	19.067	910.169	695.042
232.899	19.062	909.441	694.405
233.913	18.872	908.633	692.961
234.928	18.843	908.365	692.577
235.942	18.952	907.687	692.439
236.957	18.976	907.155	692.067
237.972	19.020	906.422	691.625
238.986	18.882	906.374	690.972
240.001	19.051	905.217	690.707
241.015	19.191	904.692	690.807
242.030	19.247	903.887	690.356
243.045	19.293	903.671	690.315
244.059	19.306	903.066	689.845
245.074	19.332	902.423	689.396
246.088	19.376	902.190	689.331
247.103	19.526	901.534	689.369
248.117	19.639	901.036	689.378
249.132	19.910	900.923	690.313
250.147	20.321	900.275	691.390
251.161	19.939	900.032	689.623
252.176	20.176	899.393	690.014
253.190	20.195	898.463	689.318
254.205	20.219	897.714	688.777
255.220	20.187	897.369	688.321
256.234	20.152	896.875	687.743
257.249	20.162	896.156	687.171
258.263	20.133	895.194	686.259
259.278	20.188	894.213	685.663
260.293	20.226	894.139	685.695
261.307	20.326	893.658	685.660
262.322	20.437	892.545	685.187
263.336	20.398	892.121	684.646
264.351	20.328	891.418	683.770
265.366	20.310	890.904	683.241
266.380	20.373	889.983	682.723
267.395	20.254	889.148	681.557
268.409	20.099	888.543	680.424
269.424	20.172	888.235	680.416
270.439	20.006	887.400	679.063
271.453	20.118	886.381	678.662
272.468	19.997	886.159	677.959
273.482	20.073	885.250	677.500
274.497	20.141	884.694	677.282
275.512	20.139	884.195	676.831
276.526	20.057	883.841	676.179
277.541	20.112	883.592	676.143
278.555	20.391	883.084	676.783
279.570	20.556	882.248	676.726
280.585	20.551	881.317	675.930
281.599	20.195	881.014	674.257
282.614	20.233	879.992	673.560
283.628	20.189	879.313	672.812
284.643	20.180	878.839	672.354
285.657	20.073	878.538	671.648
286.672	20.151	877.546	671.132
287.687	20.197	876.784	670.668
288.701	20.188	876.851	670.627
289.716	20.231	875.932	670.028
290.730	20.199	875.245	669.323
291.745	20.251	874.588	668.960
292.760	20.502	874.006	669.425
293.774	20.602	873.532	669.384
294.789	20.607	872.912	668.872
295.803	20.217	872.121	666.708
296.818	20.223	871.404	666.124
297.833	20.310	870.788	665.926
298.847	20.404	870.294	665.851
299.862	20.391	869.531	665.159
300.876	20.429	869.685	665.361
301.891	20.550	868.648	664.973
302.906	20.649	867.995	664.793
303.920	20.698	868.003	664.929
304.935	20.851	867.589	665.136
305.949	20.892	866.296	664.241
306.964	20.669	865.630	662.825
307.979	20.769	865.180	662.802
308.993	20.592	864.822	661.794
310.008	20.850	863.990	662.078
311.022	20.734	863.225	660.995
312.037	20.515	862.694	659.698
313.052	20.409	861.728	658.501
314.066	20.268	861.429	657.677
315.081	20.366	860.986	657.654
316.095	20.401	859.884	656.886
317.110	20.527	859.209	656.787
318.125	20.358	859.211	656.091
319.139	20.356	858.990	655.858
320.154	20.196	858.402	654.749
321.168	20.466	857.981	655.385
322.183	20.461	857.303	654.790
323.197	20.432	856.982	654.378
324.212	20.302	856.662	653.587
325.227	20.359	855.649	652.971
326.241	20.549	854.807	652.985
327.256	20.477	854.727	652.595
328.270	20.412	853.900	651.663
329.285	20.332	853.382	650.910
330.300	20.319	852.693	650.276
331.314	20.537	852.336	650.766
332.329	20.674	851.720	650.749
333.343	20.694	851.516	650.609
334.358	20.888	851.073	650.939
335.373	20.861	850.517	650.355
336.387	20.888	850.589	650.455
337.402	20.994	850.572	650.777
338.416	20.852	850.422	650.075
339.431	21.156	849.663	650.573
340.446	21.201	849.290	650.395
341.460	21.367	849.009	650.743
342.475	21.316	848.731	650.281
343.489	21.428	848.142	650.188
344.504	21.365	848.025	649.806
345.519	21.383	847.571	649.469
346.533	21.343	846.645	648.552
347.548	21.182	845.701	647.175
348.562	20.910	845.164	645.698
349.577	20.790	844.591	644.760
350.592	20.873	844.121	644.651
351.606	20.729	843.499	643.589
352.621	20.773	842.698	643.083
353.635	20.956	841.817	643.027
354.650	20.850	841.476	642.319
355.665	20.950	841.024	642.285
356.679	21.111	840.023	642.056
357.694	21.068	839.766	641.644
358.708	21.082	839.231	641.231
359.723	21.159	838.531	640.923
360.738	21.275	837.688	640.649
361.752	21.151	837.138	639.716
362.767	21.331	836.942	640.170
363.781	21.503	836.707	640.563
364.796	21.502	836.251	640.154
365.810	21.787	835.704	640.717
366.825	21.778	835.329	640.342
367.840	21.646	834.791	639.392
368.854	21.437	834.238	638.147
369.869	21.378	834.105	637.774
370.883	21.479	833.588	637.692
371.898	21.546	833.116	637.517
372.913	21.825	832.592	638.076
373.927	21.581	832.082	636.741
374.942	21.622	831.719	636.557
375.956	21.838	830.858	636.627
376.971	21.784	830.591	636.167
377.986	22.026	830.363	636.815
379.000	22.004	829.949	636.360
380.015	21.889	829.388	635.460
381.029	21.771	828.652	634.412
382.044	21.971	828.000	634.580
383.059	21.968	827.482	634.115
384.073	21.905	826.804	633.313
385.088	21.695	825.776	631.711
386.102	21.547	825.549	630.947
387.117	21.550	824.783	630.320
388.132	21.535	824.485	629.980
389.146	21.605	823.804	629.655
390.161	21.732	823.556	629.869
391.175	21.821	823.103	629.784
392.190	21.610	822.422	628.451
393.205	21.522	821.892	627.675
394.219	21.629	821.470	627.681
395.234	21.547	820.702	626.744
396.248	21.541	820.507	626.520
397.263	21.343	819.955	625.333
398.278	21.177	820.227	624.892
399.292	21.392	819.154	624.787
400.307	21.203	818.765	623.761
401.321	21.224	818.451	623.540
402.336	21.417	817.866	623.729
403.350	21.647	817.307	624.067
404.365	21.792	817.182	624.431
405.380	21.899	816.758	624.434
406.394	21.943	816.233	624.133
407.409	22.025	816.139	624.298
408.423	22.103	815.960	624.384
409.438	22.162	815.332	624.057
410.453	22.286	814.948	624.148
411.467	22.284	814.235	623.538
412.482	22.479	813.860	623.889
413.496	22.436	813.657	623.525
414.511	22.354	813.360	622.953
415.526	22.440	812.460	622.513
416.540	22.197	812.240	621.428
417.555	22.145	811.963	620.979
418.569	22.300	811.350	621.002
419.584	22.321	810.840	620.629
420.599	22.479	810.271	620.696
421.613	161.090	1369.806	1792.918
422.628	140.240	1451.322	1793.063
