DTS Sentinel unit serial number:	SN413079Multiplexer serial number:	ORYXHardware model number:	OX4-SRSoftware version number:	ORYX F/W v4.00 Oryx Data Collector v3.7.2.0data status	okinstallation	princeton_trtdifferential loss correction	single-endedforward channel	channel 1reverse channel	N/Adate	2019/09/18time	10:10:36forward acquisition time	60.00reverse acquisition time	0.00gamma	496.2192k internal	0.2329k external	0.2329temperature offset calibration	0.9972default loss term (dB/km)	0.3790temperature slope calibration	1.0000multiplexer offset coefficient	1.0000multiplexer slope coefficient	1.0000fibre end	0.00T internal ref (°C)	27.77T ext. ref 1 (°C)	0.32T ext. ref 2 (°C)	24.27length (m)	temperature (°C)	Stokes	anti-Stokes-747.200	-98.020	0.158	0.041
-746.185	-60.084	-0.277	0.119
-745.171	279.256	-0.185	-0.332
-744.156	-9.914	-0.291	-0.195
-743.142	-200.000	0.083	0.436
-742.127	85.471	-0.176	0.195
-741.112	422.025	0.134	-0.289
-740.098	-4.486	-0.275	0.192
-739.083	-108.345	-0.289	0.063
-738.069	-200.000	0.033	0.370
-737.054	-92.990	0.314	0.088
-736.039	46.095	-0.017	-0.016
-735.025	663.686	-0.080	-0.208
-734.010	-114.657	-0.396	0.076
-732.996	269.416	-0.113	-0.199
-731.981	-76.009	-0.059	-0.021
-730.966	-43.418	-0.192	-0.098
-729.952	-11.563	0.117	-0.077
-728.937	-106.317	-0.076	-0.017
-727.923	48.141	-0.233	0.220
-726.908	417.117	-0.090	-0.194
-725.894	-53.130	0.300	0.139
-724.879	-42.451	-0.139	0.071
-723.864	669.411	-0.109	-0.285
-722.850	-12.427	0.208	-0.136
-721.835	96.650	-0.094	-0.108
-720.821	-57.170	0.082	0.036
-719.806	120.178	-0.213	-0.266
-718.791	800.000	-0.098	-0.289
-717.777	-24.090	-0.187	0.112
-716.762	113.293	-0.100	0.122
-715.748	-123.097	0.241	-0.039
-714.733	555.320	0.058	0.140
-713.718	800.000	-0.119	-0.401
-712.704	-60.152	-0.300	0.129
-711.689	309.520	-0.115	0.217
-710.675	124.141	0.120	0.151
-709.660	-3.408	-0.327	0.229
-708.645	71.216	0.134	-0.139
-707.631	-97.116	-0.316	0.083
-706.616	800.000	-0.069	0.253
-705.602	-190.458	-0.220	0.002
-704.587	-195.455	-0.271	0.002
-703.572	-69.910	0.142	0.054
-702.558	363.283	0.089	-0.179
-701.543	-200.000	0.010	-0.264
-700.529	102.960	0.225	-0.265
-699.514	-64.636	-0.142	-0.058
-698.499	-1.087	-0.192	0.136
-697.485	-112.608	-0.280	0.056
-696.470	-200.000	0.012	0.056
-695.456	-200.000	-0.025	-0.236
-694.441	232.641	0.125	-0.207
-693.426	-200.000	-0.016	0.168
-692.412	79.849	-0.132	0.143
-691.397	574.514	0.104	-0.254
-690.383	131.068	-0.155	0.200
-689.368	800.000	0.059	-0.180
-688.354	-22.929	-0.291	0.176
-687.339	-68.806	-0.510	0.198
-686.324	-59.060	0.354	-0.154
-685.310	-160.195	-0.196	-0.011
-684.295	-200.000	-0.007	0.038
-683.281	52.731	0.222	0.213
-682.266	-73.892	0.256	0.093
-681.251	46.753	0.088	0.082
-680.237	153.446	0.020	0.028
-679.222	-170.903	0.029	-0.001
-678.208	-200.000	-0.020	-0.116
-677.193	-200.000	-0.006	-0.167
-676.178	-200.000	0.017	-0.153
-675.164	-93.821	-0.275	-0.076
-674.149	86.492	-0.258	-0.286
-673.135	505.374	0.025	0.059
-672.120	114.299	-0.036	0.044
-671.105	-24.395	-0.162	0.097
-670.091	-81.457	-0.252	-0.083
-669.076	268.480	-0.087	-0.154
-668.062	-200.000	-0.039	-0.365
-667.047	64.687	-0.090	0.091
-666.032	165.837	0.060	-0.085
-665.018	800.000	-0.094	-0.275
-664.003	179.464	0.056	-0.083
-662.989	-200.000	0.011	0.216
-661.974	142.422	0.080	0.107
-660.959	577.968	0.159	-0.389
-659.945	-200.000	0.006	0.084
-658.930	379.056	-0.087	0.178
-657.916	125.456	-0.071	-0.090
-656.901	-39.534	-0.083	0.044
-655.886	-77.058	0.067	-0.023
-654.872	-64.495	-0.096	0.039
-653.857	800.000	0.056	0.180
-652.843	-74.320	-0.178	0.065
-651.828	78.396	-0.188	-0.201
-650.814	-48.036	0.084	-0.041
-649.799	413.199	0.050	0.107
-648.784	-200.000	-0.062	-0.334
-647.770	191.774	-0.219	-0.331
-646.755	100.757	0.082	0.095
-645.741	-37.896	-0.487	0.260
-644.726	-110.367	0.211	-0.044
-643.711	29.584	0.211	-0.180
-642.697	-48.859	0.111	0.053
-641.682	-152.899	0.315	-0.022
-640.668	-106.395	0.154	0.034
-639.653	112.996	-0.182	-0.221
-638.638	-112.467	-0.490	-0.098
-637.624	-137.633	0.170	0.019
-636.609	612.602	-0.071	0.177
-635.595	128.252	-0.102	-0.130
-634.580	800.000	-0.049	-0.163
-633.565	-117.542	-0.076	-0.014
-632.551	-138.180	0.295	-0.033
-631.536	-200.000	0.017	0.000
-630.522	96.127	-0.129	0.148
-629.507	94.862	0.062	0.071
-628.492	-200.000	0.006	-0.276
-627.478	-200.000	-0.052	-0.232
-626.463	10.582	0.266	0.204
-625.449	-200.000	0.016	-0.376
-624.434	-111.896	0.556	-0.112
-623.419	43.131	-0.048	0.044
-622.405	-200.000	-0.063	0.278
-621.390	-1.549	0.194	-0.137
-620.376	26.622	0.141	0.119
-619.361	254.326	0.161	-0.277
-618.346	51.496	-0.270	-0.257
-617.332	-38.601	0.223	-0.118
-616.317	304.087	-0.186	0.345
-615.303	325.532	-0.101	-0.193
-614.288	257.498	0.119	-0.205
-613.273	109.404	0.080	0.096
-612.259	-123.770	0.170	0.027
-611.244	-200.000	0.067	-0.362
-610.230	2.432	0.287	-0.208
-609.215	-200.000	-0.004	0.025
-608.201	111.027	-0.108	0.131
-607.186	377.155	-0.070	0.142
-606.171	313.924	-0.007	0.014
-605.157	-86.325	0.167	0.052
-604.142	-200.000	0.010	0.262
-603.128	589.470	0.111	-0.274
-602.113	800.000	-0.065	-0.198
-601.098	-200.000	-0.085	-0.398
-600.084	-81.213	0.442	0.146
-599.069	-54.437	0.121	0.055
-598.055	800.000	-0.074	-0.235
-597.040	59.668	-0.098	-0.097
-596.025	47.680	-0.159	0.148
-595.011	194.347	-0.112	0.170
-593.996	-156.608	0.175	0.011
-592.982	254.402	0.034	0.058
-591.967	-83.204	-0.030	0.010
-590.952	-47.499	0.162	0.079
-589.938	223.484	-0.103	0.167
-588.923	108.802	0.288	-0.344
-587.909	26.913	0.306	0.257
-586.894	-200.000	-0.031	-0.188
-585.879	606.294	0.017	-0.042
-584.865	-200.000	0.007	0.356
-583.850	365.094	0.125	0.253
-582.836	800.000	0.067	-0.188
-581.821	-200.000	0.043	0.403
-580.806	23.543	-0.116	0.095
-579.792	101.559	0.235	-0.274
-578.777	137.328	-0.207	0.270
-577.763	68.485	-0.214	-0.220
-576.748	-17.970	-0.194	0.122
-575.733	-200.000	-0.017	0.501
-574.719	126.017	0.271	0.342
-573.704	-41.733	-0.142	0.073
-572.690	-146.845	0.238	-0.021
-571.675	-20.768	-0.279	0.171
-570.661	-119.717	0.201	-0.035
-569.646	-200.000	0.016	-0.256
-568.631	495.014	-0.139	-0.320
-567.617	-126.837	-0.104	0.015
-566.602	-0.766	0.059	-0.042
-565.588	2.562	0.263	0.190
-564.573	-101.402	0.529	0.129
-563.558	254.661	-0.316	-0.541
-562.544	-178.867	0.264	-0.006
-561.529	113.367	-0.127	0.154
-560.515	144.229	-0.144	0.192
-559.500	-51.094	0.235	0.110
-558.485	-96.102	0.193	0.051
-557.471	11.982	0.230	0.177
-556.456	-90.821	-0.238	0.069
-555.442	-110.081	0.125	-0.026
-554.427	132.694	0.246	0.318
-553.412	-200.000	0.017	0.118
-552.398	-81.159	0.089	-0.029
-551.383	-16.225	0.073	0.046
-550.369	672.492	-0.220	-0.571
-549.354	60.262	-0.074	-0.073
-548.339	800.000	0.113	0.356
-547.325	-200.000	0.015	-0.118
-546.310	-200.000	0.026	0.288
-545.296	-31.485	0.159	0.090
-544.281	-92.159	-0.140	-0.039
-543.266	29.783	0.343	0.292
-542.252	-200.000	0.053	-0.319
-541.237	-92.817	0.220	-0.062
-540.223	251.956	-0.230	-0.391
-539.208	-180.313	-0.335	0.007
-538.193	-200.000	-0.004	0.104
-537.179	-31.484	-0.020	-0.011
-536.164	55.117	0.276	-0.266
-535.150	187.004	-0.211	-0.315
-534.135	7.808	0.190	-0.142
-533.121	-16.550	-0.027	-0.017
-532.106	-200.000	0.095	-0.488
-531.091	-56.662	-0.258	-0.114
-530.077	341.220	-0.092	0.180
-529.062	91.494	-0.252	-0.283
-528.048	-114.943	0.058	-0.011
-527.033	-113.942	-0.257	-0.050
-526.018	-33.420	-0.083	-0.046
-525.004	-47.579	-0.122	-0.059
-523.989	-38.339	0.265	0.140
-522.975	-30.282	-0.105	0.060
-521.960	-179.746	-0.154	-0.003
-520.945	73.376	-0.188	0.196
-519.931	-200.000	0.055	-0.244
-518.916	-200.000	-0.004	0.413
-517.902	-115.230	-0.269	0.051
-516.887	-36.167	-0.119	-0.064
-515.872	175.727	0.130	0.188
-514.858	-152.551	-0.176	-0.013
-513.843	800.000	0.090	0.256
-512.829	166.327	0.072	0.102
-511.814	149.724	0.162	0.219
-510.799	82.882	-0.278	0.302
-509.785	-87.740	-0.170	0.051
-508.770	481.515	0.006	0.014
-507.756	-200.000	0.013	-0.065
-506.741	-200.000	-0.029	0.146
-505.726	-200.000	0.031	-0.237
-504.712	-91.503	0.184	-0.052
-503.697	-23.261	-0.142	0.085
-502.683	70.088	-0.027	-0.028
-501.668	-145.726	-0.361	0.032
-500.653	582.858	-0.048	0.119
-499.639	-32.659	-0.204	0.113
-498.624	-22.082	-0.182	0.110
-497.610	-111.624	-0.185	0.037
-496.595	411.968	-0.127	0.269
-495.581	-200.000	-0.000	-0.082
-494.566	-135.749	0.150	0.018
-493.551	234.572	-0.047	0.078
-492.537	194.868	0.082	-0.123
-491.522	-86.813	-0.444	0.135
-490.508	-16.791	0.234	0.148
-489.493	-46.042	0.109	0.054
-488.478	-81.956	0.386	-0.126
-487.464	-129.283	-0.249	0.035
-486.449	23.476	-0.252	0.206
-485.435	-200.000	-0.014	-0.228
-484.420	800.000	0.085	0.296
-483.405	46.175	-0.157	0.145
-482.391	-200.000	-0.003	0.096
-481.376	800.000	0.094	-0.344
-480.362	-150.183	0.392	-0.030
-479.347	150.320	-0.122	-0.165
-478.332	-133.736	-0.262	0.033
-477.318	-81.974	-0.064	0.021
-476.303	-30.771	0.240	0.135
-475.289	125.646	-0.133	-0.168
-474.274	-48.261	-0.077	0.037
-473.259	294.932	-0.050	0.090
-472.245	-149.908	-0.085	-0.007
-471.230	330.766	-0.063	0.121
-470.216	-135.031	-0.246	0.030
-469.201	606.428	-0.108	-0.268
-468.186	503.655	0.112	-0.258
-467.172	125.433	-0.107	0.134
-466.157	669.368	0.198	-0.511
-465.143	186.590	0.070	0.104
-464.128	29.169	-0.105	0.089
-463.113	-200.000	-0.031	0.141
-462.099	-154.355	-0.304	0.020
-461.084	-200.000	0.034	-0.254
-460.070	670.096	-0.080	0.206
-459.055	-30.957	-0.368	-0.207
-458.040	-178.560	0.134	-0.003
-457.026	115.550	-0.114	-0.139
-456.011	-106.796	0.330	0.073
-454.997	800.000	-0.031	0.113
-453.982	336.356	0.041	-0.078
-452.968	446.436	-0.176	0.386
-451.953	87.798	-0.164	-0.181
-450.938	-57.550	0.159	0.069
-449.924	359.133	0.051	-0.101
-448.909	220.571	0.193	0.309
-447.895	-21.086	0.107	0.065
-446.880	78.785	-0.110	0.117
-445.865	800.000	0.102	-0.380
-444.851	-70.854	-0.216	-0.081
-443.836	231.221	0.174	-0.283
-442.822	800.000	0.098	0.414
-441.807	707.286	-0.093	-0.246
-440.792	81.641	0.058	-0.062
-439.778	800.000	0.019	0.067
-438.763	-42.240	-0.261	0.132
-437.749	98.158	0.155	-0.177
-436.734	342.267	0.108	0.211
-435.719	-200.000	0.048	0.416
-434.705	71.591	-0.089	0.092
-433.690	32.267	0.137	-0.118
-432.676	47.534	0.105	-0.098
-431.661	-158.425	-0.338	0.019
-430.646	-72.525	-0.268	0.099
-429.632	-142.503	0.456	0.045
-428.617	-200.000	0.079	0.402
-427.603	-80.274	0.311	0.104
-426.588	-55.317	-0.119	-0.053
-425.573	-82.207	0.178	-0.058
-424.559	73.453	0.262	0.273
-423.544	-86.023	-0.310	-0.095
-422.530	720.486	-0.044	0.116
-421.515	800.000	-0.045	0.191
-420.500	-200.000	0.009	-0.107
-419.486	800.000	0.056	0.180
-418.471	-95.445	0.061	-0.016
-417.457	-200.000	-0.041	-0.217
-416.442	0.807	0.011	0.008
-415.428	-200.000	-0.179	0.000
-414.413	74.204	-0.169	-0.176
-413.398	-123.546	0.076	-0.012
-412.384	-31.377	-0.089	-0.050
-411.369	800.000	-0.050	-0.172
-410.355	666.514	-0.063	0.161
-409.340	116.083	-0.241	-0.294
-408.325	-159.133	-0.160	-0.009
-407.311	157.275	-0.125	-0.172
-406.296	35.181	-0.209	-0.182
-405.282	465.847	-0.121	-0.268
-404.267	34.706	0.087	-0.076
-403.252	613.227	0.160	-0.398
-402.238	295.026	-0.184	-0.334
-401.223	285.549	-0.065	-0.116
-400.209	-77.400	0.108	-0.037
-399.194	-107.598	-0.167	-0.036
-398.179	-103.787	0.228	0.053
-397.165	167.960	-0.104	-0.146
-396.150	-200.000	0.009	0.211
-395.136	800.000	0.050	-0.147
-394.121	-42.369	-0.178	0.090
-393.106	14.512	0.115	0.089
-392.092	48.660	-0.082	-0.076
-391.077	402.765	-0.092	-0.192
-390.063	-4.035	-0.069	-0.048
-389.048	3.634	-0.226	0.164
-388.033	309.371	-0.139	0.258
-387.019	-58.075	-0.142	0.062
-386.004	-147.763	-0.117	0.010
-384.990	254.256	0.071	0.121
-383.975	-37.855	0.069	-0.037
-382.960	72.285	-0.257	0.266
-381.946	800.000	0.084	0.240
-380.931	-80.847	-0.155	0.051
-379.917	800.000	0.045	0.163
-378.902	-118.284	-0.255	-0.045
-377.888	-27.658	-0.253	-0.146
-376.873	-200.000	-0.047	0.388
-375.858	-12.051	0.039	-0.025
-374.844	800.000	0.034	-0.094
-373.829	800.000	0.031	-0.104
-372.815	147.385	0.205	0.274
-371.800	-144.912	-0.055	-0.005
-370.785	-200.000	0.012	-0.221
-369.771	800.000	-0.067	0.223
-368.756	-32.553	0.184	-0.102
-367.742	-101.572	0.521	-0.126
-366.727	800.000	0.062	0.233
-365.712	-50.022	-0.275	-0.129
-364.698	83.085	0.118	-0.127
-363.683	800.000	0.029	-0.106
-362.669	71.463	0.082	0.084
-361.654	-200.000	0.027	0.136
-360.639	-176.973	-0.237	-0.006
-359.625	230.221	0.010	0.017
-358.610	-39.436	0.203	-0.106
-357.596	-40.627	0.360	-0.185
-356.581	-8.119	-0.106	0.071
-355.566	428.765	-0.046	0.099
-354.552	226.867	-0.173	-0.278
-353.537	800.000	0.050	-0.205
-352.523	-87.566	0.210	-0.063
-351.508	-151.966	-0.268	0.019
-350.493	83.533	-0.113	0.122
-349.479	153.744	0.178	0.242
-348.464	-10.259	0.124	0.082
-347.450	48.820	0.207	0.193
-346.435	398.243	-0.157	0.326
-345.420	486.048	-0.109	-0.246
-344.406	45.067	0.068	0.062
-343.391	-200.000	0.107	0.506
-342.377	399.546	-0.140	-0.290
-341.362	800.000	-0.055	0.192
-340.348	65.823	-0.042	-0.042
-339.333	4.803	-0.065	-0.047
-338.318	440.653	-0.152	0.329
-337.304	148.656	0.066	0.089
-336.289	800.000	-0.041	-0.134
-335.275	23.141	-0.056	-0.045
-334.260	177.733	-0.043	0.062
-333.245	-57.569	0.011	0.005
-332.231	-200.000	-0.013	-0.194
-331.216	-32.995	-0.160	0.088
-330.202	285.527	0.070	0.125
-329.187	185.799	0.104	-0.152
-328.172	-72.402	-0.409	0.150
-327.158	621.882	-0.085	-0.213
-326.143	-7.545	-0.213	0.143
-325.129	374.063	-0.157	-0.316
-324.114	456.747	-0.156	0.344
-323.099	-96.706	0.189	0.049
-322.085	101.580	-0.037	0.043
-321.070	-112.478	-0.485	0.096
-320.056	-200.000	-0.036	-0.275
-319.041	-159.345	-0.197	-0.011
-318.026	114.507	-0.220	0.265
-317.012	635.432	-0.045	0.113
-315.997	615.771	-0.105	-0.260
-314.983	253.882	0.108	0.183
-313.968	-70.477	-0.270	0.101
-312.953	-200.000	0.060	0.342
-311.939	-113.610	0.293	-0.057
-310.924	-134.446	-0.222	-0.027
-309.910	485.278	-0.051	-0.115
-308.895	105.166	0.170	0.198
-307.880	800.000	-0.019	0.066
-306.866	-122.711	-0.126	-0.020
-305.851	344.750	0.166	-0.322
-304.837	92.325	0.182	-0.203
-303.822	-200.000	0.011	-0.213
-302.807	-38.187	-0.192	-0.101
-301.793	403.679	-0.015	0.031
-300.778	-139.624	-0.248	-0.026
-299.764	-23.252	0.407	0.242
-298.749	50.608	0.372	-0.349
-297.735	92.557	-0.073	-0.082
-296.720	-187.130	0.247	0.003
-295.705	-160.906	0.177	0.009
-294.691	194.487	-0.122	0.182
-293.676	116.132	0.120	0.146
-292.662	400.012	0.096	0.199
-291.647	-25.891	-0.024	-0.014
-290.632	-200.000	-0.003	0.230
-289.618	325.098	-0.131	0.247
-288.603	3.750	0.153	-0.110
-287.589	-200.000	0.037	0.166
-286.574	-19.857	-0.177	0.108
-285.559	-162.575	0.060	-0.003
-284.545	-57.015	0.281	-0.123
-283.530	257.817	0.013	0.023
-282.516	800.000	0.061	0.177
-281.501	251.061	0.110	-0.185
-280.486	-24.871	-0.126	-0.074
-279.472	-133.828	-0.047	0.006
-278.457	800.000	-0.139	-0.401
-277.443	7.587	-0.114	-0.084
-276.428	-54.530	-0.331	0.148
-275.413	-14.834	-0.271	0.172
-274.399	-22.771	0.308	0.184
-273.384	-18.640	-0.200	-0.123
-272.370	-25.908	0.125	-0.073
-271.355	-25.846	-0.209	-0.122
-270.340	-200.000	0.010	-0.214
-269.326	243.961	0.096	0.160
-268.311	497.182	-0.141	-0.320
-267.297	-114.434	-0.145	0.027
-266.282	-69.172	0.286	-0.109
-265.267	-200.000	-0.020	-0.479
-264.253	306.873	-0.122	-0.224
-263.238	-23.021	-0.165	-0.099
-262.224	-200.000	0.023	-0.217
-261.209	-200.000	0.003	-0.095
-260.195	-114.700	0.250	0.047
-259.180	51.289	-0.137	0.129
-258.165	-168.774	-0.089	-0.003
-257.151	315.634	0.080	0.148
-256.136	130.512	-0.064	0.081
-255.122	-46.283	-0.261	-0.127
-254.107	-200.000	-0.013	0.137
-253.092	-200.000	0.034	0.312
-252.078	-86.582	-0.224	0.068
-251.063	-200.000	0.027	-0.204
-250.049	-117.888	0.061	0.011
-249.034	-200.000	-0.043	0.320
-248.019	343.967	-0.172	-0.334
-247.005	-63.585	-0.348	0.141
-245.990	-10.335	0.222	-0.145
-244.976	-116.340	0.401	-0.073
-243.961	18.394	0.134	0.105
-242.946	1.921	0.113	0.080
-241.932	-140.345	-0.061	-0.006
-240.917	227.612	-0.036	-0.058
-239.903	-120.228	-0.455	0.077
-238.888	581.929	-0.062	0.151
-237.873	152.590	0.154	0.208
-236.859	16.006	0.243	-0.189
-235.844	461.884	-0.151	0.332
-234.830	-23.875	0.081	-0.048
-233.815	-109.643	-0.043	0.009
-232.800	-67.161	0.233	-0.091
-231.786	-167.768	0.234	0.009
-230.771	122.908	0.123	-0.152
-229.757	111.373	-0.070	0.083
-228.742	-169.018	-0.185	-0.007
-227.727	-42.184	0.220	0.111
-226.713	12.783	0.130	0.099
-225.698	-200.000	-0.009	0.265
-224.684	-121.330	0.186	0.031
-223.669	-15.009	0.238	0.151
-222.655	189.510	0.106	0.156
-221.640	-36.573	0.194	0.103
-220.625	-170.013	-0.254	0.009
-219.611	-131.581	0.235	0.031
-218.596	-35.315	0.182	0.098
-217.582	-200.000	0.020	-0.112
-216.567	221.544	-0.142	0.225
-215.552	-77.014	0.193	0.067
-214.538	-80.947	-0.124	0.040
-213.523	-124.673	-0.186	-0.028
-212.509	-200.000	0.001	-0.163
-211.494	119.341	0.066	-0.081
-210.479	800.000	-0.020	0.054
-209.465	258.011	0.074	0.125
-208.450	166.316	-0.042	-0.058
-207.436	-20.483	0.119	-0.072
-206.421	-21.274	0.166	-0.100
-205.406	0.890	-0.307	0.217
-204.392	-129.978	0.382	0.052
-203.377	-119.781	-0.330	-0.056
-202.363	21.768	-0.163	-0.131
-201.348	800.000	0.057	-0.155
-200.333	800.000	-0.025	-0.102
-199.319	150.701	0.070	0.094
-198.304	-22.171	-0.228	-0.136
-197.290	-120.941	0.346	-0.057
-196.275	-129.263	0.230	0.032
-195.260	392.832	-0.085	0.174
-194.246	-89.289	-0.291	-0.084
-193.231	-35.947	0.144	0.077
-192.217	800.000	0.176	0.652
-191.202	-7.919	0.346	0.230
-190.187	800.000	-0.026	0.076
-189.173	-16.122	0.293	0.184
-188.158	-108.172	0.398	-0.085
-187.144	-200.000	-0.045	-0.465
-186.129	-1.496	0.296	-0.206
-185.114	14.980	0.168	-0.129
-184.100	-88.831	0.223	-0.065
-183.085	-39.896	-0.167	-0.086
-182.071	-54.790	0.508	-0.226
-181.056	19.935	0.190	0.151
-180.042	406.801	-0.090	-0.187
-179.027	575.181	-0.082	-0.197
-178.012	-200.000	0.028	-0.166
-176.998	-95.366	0.309	-0.082
-175.983	82.497	0.271	0.290
-174.969	800.000	0.015	-0.050
-173.954	-200.000	0.046	-0.281
-172.939	-200.000	0.150	0.000
-171.925	-110.907	0.352	0.071
-170.910	656.423	-0.171	-0.434
-169.896	800.000	-0.149	-0.572
-168.881	218.408	0.046	0.073
-167.866	37.074	0.141	-0.123
-166.852	-200.000	0.024	0.185
-165.837	-66.073	-0.253	0.099
-164.823	-23.844	-0.131	0.077
-163.808	472.540	-0.029	-0.065
-162.793	800.000	-0.061	-0.194
-161.779	-19.466	-0.185	0.113
-160.764	-22.373	-0.121	-0.072
-159.750	8.401	-0.162	0.120
-158.735	-25.245	-0.255	0.149
-157.720	80.605	0.125	-0.133
-156.706	230.689	0.049	0.079
-155.691	-81.773	-0.281	-0.091
-154.677	33.934	0.082	0.070
-153.662	-121.406	-0.350	-0.057
-152.647	73.232	0.055	0.057
-151.633	800.000	0.067	-0.250
-150.618	800.000	-0.049	-0.176
-149.604	11.749	-0.274	0.207
-148.589	423.691	0.124	0.262
-147.574	-56.865	0.297	-0.129
-146.560	394.464	0.113	0.232
-145.545	199.812	0.164	0.247
-144.531	66.630	0.198	0.198
-143.516	-39.977	-0.106	0.054
-142.502	-131.749	-0.193	-0.025
-141.487	103.430	-0.043	0.050
-140.472	-106.216	-0.235	0.052
-139.458	19.744	0.273	-0.216
-138.443	86.001	0.174	0.189
-137.429	282.806	-0.049	-0.087
-136.414	-101.294	-0.143	0.034
-135.399	-1.585	0.249	-0.173
-134.385	-127.418	0.212	0.030
-133.370	259.172	-0.062	-0.105
-132.356	-176.647	0.333	0.008
-131.341	-21.768	0.055	0.033
-130.326	-12.613	0.214	-0.137
-129.312	128.236	0.092	-0.115
-128.297	-78.911	-0.212	0.071
-127.283	276.203	-0.093	-0.162
-126.268	101.044	0.143	0.164
-125.253	-200.000	0.023	-0.279
-124.239	217.393	-0.230	-0.360
-123.224	-4.326	-0.195	-0.132
-122.210	-114.714	0.178	-0.033
-121.195	800.000	0.057	-0.209
-120.180	-97.673	0.384	0.098
-119.166	-0.959	-0.003	-0.002
-118.151	141.012	-0.154	-0.200
-117.137	50.478	0.176	-0.164
-116.122	-200.000	0.026	0.289
-115.107	16.307	-0.039	-0.031
-114.093	-89.038	0.243	0.071
-113.078	-200.000	-0.033	0.413
-112.064	-13.917	0.078	-0.049
-111.049	12.313	-0.102	-0.077
-110.034	340.985	0.128	0.245
-109.020	195.521	0.209	-0.312
-108.005	-200.000	-0.017	0.180
-106.991	-1.451	0.149	0.103
-105.976	-114.160	-0.259	0.049
-104.962	-200.000	-0.010	-0.309
-103.947	-130.665	-0.266	-0.035
-102.932	477.287	-0.064	-0.141
-101.918	-92.770	0.110	0.030
-100.903	-46.975	0.113	-0.054
-99.889	800.000	-0.088	0.306
-98.874	-121.771	0.099	-0.016
-97.859	-200.000	0.000	0.144
-96.845	-200.000	-0.007	0.159
-95.830	700.474	0.059	-0.154
-94.816	-181.713	-0.119	0.002
-93.801	161.625	-0.262	0.360
-92.786	-69.820	0.289	-0.108
-91.772	-2.987	-0.339	-0.232
-90.757	-63.488	0.415	-0.167
-89.743	800.000	-0.058	0.185
-88.728	205.420	-0.160	0.244
-87.713	800.000	-0.079	-0.275
-86.699	264.580	-0.103	-0.175
-85.684	-2.980	0.093	-0.064
-84.670	38.398	-0.075	0.065
-83.655	64.130	-0.238	-0.235
-82.640	800.000	-0.086	0.243
-81.626	-200.000	-0.003	-0.103
-80.611	313.564	0.058	0.106
-79.597	31.989	-0.041	0.035
-78.582	-85.868	0.204	-0.062
-77.567	-200.000	0.058	0.258
-76.553	30.408	0.248	-0.208
-75.538	248.262	0.163	0.271
-74.524	-200.000	-0.006	0.155
-73.509	-95.845	-0.326	-0.085
-72.494	-191.123	0.290	-0.003
-71.480	800.000	0.044	-0.187
-70.465	-171.291	0.321	0.011
-69.451	152.513	-0.209	-0.280
-68.436	-27.289	-0.345	-0.197
-67.422	-200.000	-0.055	0.381
-66.407	-121.484	0.032	-0.005
-65.392	60.242	-0.099	-0.096
-64.378	-186.750	-0.332	-0.005
-63.363	152.824	-0.050	0.067
-62.349	639.042	-0.019	-0.047
-61.334	15.021	-1.189	-0.913
-60.319	16.868	0.621	0.482
-59.305	325.411	-0.516	-0.967
-58.290	800.000	0.336	1.419
-57.276	800.000	0.541	1.621
-56.261	-200.000	110.613	599.575
-55.246	425.044	1525.530	3219.563
-54.232	142.667	2706.517	3525.012
-53.217	101.519	2186.529	2497.869
-52.203	39.115	1627.031	1426.413
-51.188	31.023	1370.598	1151.816
-50.173	28.083	1332.006	1101.657
-49.159	52.740	1386.007	1298.425
-48.144	52.658	1400.882	1311.805
-47.130	31.247	1357.217	1141.758
-46.115	28.089	1339.327	1107.575
-45.100	27.762	1334.159	1101.283
-44.086	27.698	1332.013	1099.083
-43.071	27.570	1329.773	1096.420
-42.057	27.572	1327.413	1094.442
-41.042	27.676	1325.575	1093.506
-40.027	27.694	1323.991	1092.266
-39.013	27.642	1322.070	1090.325
-37.998	27.635	1320.458	1088.912
-36.984	27.687	1318.994	1087.971
-35.969	27.693	1316.860	1086.202
-34.954	27.752	1315.209	1085.146
-33.940	27.817	1313.762	1084.299
-32.925	27.851	1312.303	1083.254
-31.911	27.796	1311.219	1081.990
-30.896	27.774	1310.081	1080.879
-29.881	27.903	1308.264	1080.099
-28.867	27.947	1306.654	1078.983
-27.852	27.980	1305.183	1077.919
-26.838	27.932	1303.758	1076.421
-25.823	27.768	1303.239	1074.984
-24.809	27.801	1301.592	1073.778
-23.794	27.801	1300.518	1072.848
-22.779	27.810	1298.896	1071.521
-21.765	27.948	1297.064	1070.775
-20.750	27.843	1296.010	1069.244
-19.736	27.907	1294.403	1068.256
-18.721	27.728	1293.033	1066.031
-17.706	27.730	1292.230	1065.340
-16.692	27.826	1291.159	1064.974
-15.677	27.631	1290.484	1063.243
-14.663	27.635	1289.049	1062.036
-13.648	27.787	1287.603	1061.689
-12.633	27.745	1287.066	1060.964
-11.619	27.696	1286.341	1060.036
-10.604	27.745	1284.971	1059.150
-9.590	27.744	1283.933	1058.248
-8.575	27.651	1283.287	1057.131
-7.560	27.632	1282.567	1056.388
-6.546	27.749	1281.511	1056.150
-5.531	27.678	1280.348	1054.741
-4.517	27.699	1279.922	1054.470
-3.502	27.745	1278.693	1053.680
-2.487	27.680	1278.176	1052.839
-1.473	27.675	1273.887	1049.234
-0.458	26.647	1259.096	1031.165
0.556	21.931	1242.602	995.407
1.571	18.660	1249.689	982.298
2.586	17.840	1264.865	989.389
3.600	17.424	1252.817	977.490
4.615	12.796	1178.307	894.212
5.629	4.376	1101.492	792.974
6.644	0.580	1081.873	759.709
7.659	0.302	1079.527	756.599
8.673	0.219	1078.738	755.561
9.688	0.200	1077.518	754.549
10.702	0.350	1076.081	754.223
11.717	5.250	1081.783	782.755
12.731	13.239	1092.355	830.624
13.746	16.663	1095.966	850.530
14.761	16.805	1096.009	851.201
15.775	15.978	1094.086	845.485
16.790	15.125	1091.852	839.409
17.804	14.448	1090.461	834.874
18.819	13.950	1089.621	831.665
19.834	13.715	1088.523	829.581
20.848	13.581	1087.393	827.975
21.863	13.212	1086.438	825.334
22.877	13.067	1085.795	824.047
23.892	13.034	1085.114	823.291
24.907	13.166	1084.096	823.105
25.921	12.995	1084.072	822.161
26.936	13.246	1082.557	822.188
27.950	13.249	1081.543	821.362
28.965	13.272	1080.387	820.525
29.980	13.325	1079.210	819.822
30.994	13.276	1077.837	818.461
32.009	13.276	1077.057	817.800
33.023	13.375	1075.704	817.188
34.038	13.232	1074.870	815.776
35.053	13.222	1074.179	815.129
36.067	13.236	1073.132	814.332
37.082	13.229	1072.015	813.375
38.096	13.340	1071.272	813.288
39.111	13.277	1070.782	812.535
40.126	13.297	1069.316	811.450
41.140	13.115	1068.067	809.536
42.155	13.076	1066.753	808.277
43.169	13.005	1066.106	807.367
44.184	13.161	1064.786	807.062
45.199	13.122	1064.192	806.346
46.213	13.248	1062.626	805.702
47.228	13.100	1062.101	804.516
48.242	13.237	1060.627	803.994
49.257	13.210	1059.597	803.007
50.271	13.234	1058.674	802.353
51.286	13.067	1058.248	801.151
52.301	13.120	1056.903	800.320
53.315	13.087	1056.469	799.759
54.330	13.128	1055.438	799.107
55.344	13.091	1054.298	797.994
56.359	13.191	1053.111	797.510
57.374	13.231	1052.073	796.842
58.388	12.964	1051.764	795.252
59.403	13.058	1050.815	794.920
60.417	13.049	1049.608	793.891
61.432	13.017	1049.242	793.392
62.447	13.074	1048.142	792.762
63.461	13.091	1047.406	792.215
64.476	12.912	1046.563	790.650
65.490	13.092	1045.271	790.464
66.505	13.069	1045.023	790.101
67.520	13.125	1044.272	789.730
68.534	13.022	1043.870	788.863
69.549	13.036	1042.798	788.051
70.563	12.990	1042.130	787.257
71.578	13.011	1040.829	786.303
72.593	12.882	1040.319	785.234
73.607	13.137	1039.559	785.803
74.622	13.009	1038.782	784.538
75.636	13.088	1038.227	784.423
76.651	13.271	1036.723	784.090
77.666	12.953	1036.810	782.577
78.680	13.059	1036.089	782.464
79.695	13.067	1035.239	781.793
80.709	12.981	1034.655	780.872
81.724	13.144	1033.739	780.886
82.739	13.173	1033.050	780.435
83.753	13.188	1032.370	779.921
84.768	13.287	1031.544	779.694
85.782	13.202	1030.709	778.593
86.797	13.400	1029.720	778.708
87.812	13.111	1028.926	776.681
88.826	13.160	1027.634	775.868
89.841	13.308	1026.514	775.645
90.855	13.127	1026.024	774.360
91.870	13.236	1025.430	774.352
92.884	13.410	1024.268	774.222
93.899	13.368	1023.660	773.497
94.914	13.365	1022.697	772.686
95.928	13.333	1021.826	771.813
96.943	13.357	1020.912	771.162
97.957	13.298	1020.156	770.248
98.972	13.238	1019.419	769.348
99.987	13.277	1018.233	768.564
101.001	13.199	1017.837	767.836
102.016	13.378	1016.394	767.510
103.030	13.275	1015.741	766.472
104.045	13.304	1015.241	766.161
105.060	13.305	1014.073	765.214
106.074	13.302	1012.869	764.224
107.089	13.169	1012.115	762.974
108.103	13.266	1011.105	762.594
109.118	13.307	1009.937	761.832
110.133	13.185	1009.410	760.809
111.147	13.229	1008.464	760.227
112.162	13.230	1007.257	759.259
113.176	13.345	1006.381	759.058
114.191	13.179	1006.256	758.134
115.206	13.200	1005.061	757.261
116.220	13.250	1004.398	756.926
117.235	13.263	1002.998	755.861
118.249	13.201	1002.798	755.362
119.264	13.175	1001.935	754.524
120.279	13.257	1000.780	753.963
121.293	13.239	999.989	753.217
122.308	13.218	999.434	752.637
123.322	13.163	998.332	751.491
124.337	13.253	997.280	751.043
125.352	13.233	995.776	749.753
126.366	13.205	995.074	749.031
127.381	13.235	993.809	748.150
128.395	13.231	992.716	747.242
129.410	13.211	991.691	746.311
130.424	13.249	991.262	746.095
131.439	13.177	990.483	745.117
132.454	13.264	990.136	745.184
133.468	13.239	989.005	744.152
134.483	13.356	987.542	743.512
135.497	13.346	986.706	742.774
136.512	13.241	986.150	741.819
137.527	13.325	985.385	741.555
138.541	13.465	984.351	741.336
139.556	13.320	983.948	740.320
140.570	13.457	982.974	740.134
141.585	13.425	981.981	739.177
142.600	13.361	981.468	738.438
143.614	13.473	980.442	738.103
144.629	13.539	979.732	737.796
145.643	13.399	979.308	736.787
146.658	13.334	978.404	735.753
147.673	13.344	977.256	734.872
148.687	13.474	975.695	734.207
149.702	13.413	975.352	733.613
150.716	13.419	974.523	732.954
151.731	13.359	973.737	732.030
152.746	13.356	973.051	731.437
153.760	13.433	972.537	731.328
154.775	13.514	971.854	731.105
155.789	13.437	971.440	730.390
156.804	13.500	970.239	729.698
157.819	13.428	969.901	729.063
158.833	13.612	969.207	729.286
159.848	13.663	967.995	728.533
160.862	13.548	967.236	727.395
161.877	13.531	966.307	726.558
162.892	13.519	965.306	725.685
163.906	13.526	964.500	725.047
164.921	13.491	963.898	724.378
165.935	13.494	962.844	723.535
166.950	13.496	962.177	722.980
167.964	13.629	961.183	722.749
168.979	13.540	960.817	722.020
169.994	13.516	959.359	720.758
171.008	13.529	958.753	720.292
172.023	13.605	957.937	719.949
173.037	13.798	957.063	720.064
174.052	13.651	956.663	719.062
175.067	13.612	955.827	718.199
176.081	13.533	955.771	717.752
177.096	13.688	954.771	717.609
178.110	13.733	953.688	716.925
179.125	13.619	953.711	716.388
180.140	13.632	953.400	716.149
181.154	13.692	952.657	715.782
182.169	13.639	952.326	715.245
183.183	13.732	951.448	714.922
184.198	13.752	950.756	714.426
185.213	13.780	950.064	713.963
186.227	13.806	949.427	713.533
187.242	13.953	948.427	713.348
188.256	13.926	948.014	712.860
189.271	13.804	947.397	711.807
190.286	13.817	946.345	711.009
191.300	13.733	945.572	710.006
192.315	13.581	945.138	708.971
193.329	13.515	944.885	708.433
194.344	13.770	943.870	708.698
195.359	13.691	943.293	707.868
196.373	13.746	942.680	707.578
197.388	13.910	942.138	707.808
198.402	13.943	941.537	707.433
199.417	14.060	940.792	707.311
200.432	14.058	940.287	706.859
201.446	14.145	940.053	706.991
202.461	14.090	939.462	706.252
203.475	14.216	938.590	706.066
204.490	14.037	937.875	704.706
205.504	14.136	936.971	704.385
206.519	14.038	936.565	703.602
207.534	14.122	935.766	703.297
208.548	14.067	935.090	702.493
209.563	14.026	934.688	701.955
210.577	14.158	933.878	701.840
211.592	14.167	932.997	701.155
212.607	14.286	931.713	700.627
213.621	14.090	931.646	699.690
214.636	14.251	930.758	699.639
215.650	14.284	929.580	698.829
216.665	14.226	929.024	698.109
217.680	14.285	928.878	698.185
218.694	14.367	928.082	697.869
219.709	14.185	927.406	696.534
220.723	14.281	926.428	696.142
221.738	14.291	925.891	695.716
222.753	14.310	925.476	695.425
223.767	14.344	925.099	695.220
224.782	14.261	924.558	694.408
225.796	14.435	923.563	694.322
226.811	14.437	922.875	693.751
227.826	14.380	922.146	692.905
228.840	14.400	921.400	692.367
229.855	14.385	920.411	691.501
230.869	14.431	919.833	691.196
231.884	14.481	918.717	690.504
232.899	14.395	918.243	689.731
233.913	14.396	917.646	689.225
234.928	14.334	917.382	688.707
235.942	14.275	916.706	687.896
236.957	14.383	916.069	687.804
237.972	14.538	915.260	687.774
238.986	14.382	914.729	686.672
240.001	14.318	914.000	685.801
241.015	14.506	913.212	685.923
242.030	14.411	913.012	685.322
243.045	14.571	912.352	685.422
244.059	14.388	911.744	684.153
245.074	14.470	910.699	683.644
246.088	14.542	910.174	683.484
247.103	14.605	909.419	683.117
248.117	14.625	909.271	683.026
249.132	14.715	908.603	682.831
250.147	14.825	907.812	682.624
251.161	14.750	907.126	681.744
252.176	14.694	906.668	681.112
253.190	14.832	905.610	680.816
254.205	14.834	905.217	680.468
255.220	14.935	904.630	680.379
256.234	14.799	904.061	679.340
257.249	14.837	903.282	678.847
258.263	14.981	902.255	678.600
259.278	14.990	901.683	678.146
260.293	15.039	900.863	677.665
261.307	15.116	900.557	677.690
262.322	15.033	900.083	676.937
263.336	15.066	899.092	676.263
264.351	15.085	898.184	675.600
265.366	15.135	897.796	675.448
266.380	15.028	897.881	675.023
267.395	15.088	896.426	674.108
268.409	15.061	895.973	673.601
269.424	15.214	895.230	673.597
270.439	15.179	894.052	672.512
271.453	15.068	893.872	671.871
272.468	15.088	893.974	671.967
273.482	15.082	892.731	670.948
274.497	15.018	892.272	670.289
275.512	15.136	891.442	670.080
276.526	15.156	891.483	670.131
277.541	15.238	890.161	669.406
278.555	15.243	890.010	669.253
279.570	15.349	889.415	669.169
280.585	15.290	888.476	668.169
281.599	15.394	887.730	667.961
282.614	15.348	887.187	667.312
283.628	15.240	886.513	666.314
284.643	15.217	885.713	665.563
285.657	15.241	885.377	665.346
286.672	15.328	884.565	665.024
287.687	15.420	883.768	664.730
288.701	15.420	883.452	664.433
289.716	15.164	883.231	663.194
290.730	15.404	882.194	663.308
291.745	15.410	881.688	662.891
292.760	15.520	880.830	662.622
293.774	15.551	880.204	662.213
294.789	15.539	879.786	661.795
295.803	15.588	879.053	661.375
296.818	15.477	878.510	660.474
297.833	15.601	877.323	660.008
298.847	15.488	877.167	659.391
299.862	15.451	876.902	658.989
300.876	15.468	876.110	658.398
301.891	15.582	875.197	658.104
302.906	15.604	874.738	657.786
303.920	15.746	874.099	657.801
304.935	15.851	873.308	657.559
305.949	15.812	872.801	656.966
306.964	15.746	872.238	656.226
307.979	15.707	871.732	655.636
308.993	15.754	871.354	655.476
310.008	15.813	870.673	655.137
311.022	15.812	870.018	654.581
312.037	15.837	869.161	653.976
313.052	15.806	868.757	653.495
314.066	15.843	867.973	652.990
315.081	15.772	867.768	652.502
316.095	15.793	866.774	651.780
317.110	15.813	866.382	651.504
318.125	15.819	866.086	651.245
319.139	15.813	865.957	651.067
320.154	15.807	865.294	650.491
321.168	15.745	864.651	649.707
322.183	15.891	863.900	649.649
323.197	15.891	863.355	649.184
324.212	15.659	863.138	648.070
325.227	15.779	862.542	648.027
326.241	15.835	861.881	647.689
327.256	15.857	860.978	647.036
328.270	15.900	860.544	646.818
329.285	15.908	859.802	646.232
330.300	15.884	859.588	645.922
331.314	15.940	858.674	645.393
332.329	15.838	858.471	644.792
333.343	16.116	857.803	645.297
334.358	16.061	857.532	644.826
335.373	16.053	857.033	644.366
336.387	15.969	856.888	643.878
337.402	16.087	856.820	644.220
338.416	16.070	856.072	643.537
339.431	16.244	855.578	643.770
340.446	16.099	855.080	642.789
341.460	16.144	854.813	642.703
342.475	16.323	854.224	642.881
343.489	16.309	853.640	642.333
344.504	16.386	853.320	642.328
345.519	16.362	852.657	641.682
346.533	16.274	852.402	641.097
347.548	16.154	851.732	640.083
348.562	16.272	851.451	640.264
349.577	16.386	850.479	639.908
350.592	16.312	849.910	639.143
351.606	16.197	849.439	638.294
352.621	16.406	848.202	638.099
353.635	16.366	847.948	637.700
354.650	16.355	846.991	636.885
355.665	16.402	846.778	636.844
356.679	16.578	846.143	636.973
357.694	16.556	845.295	636.197
358.708	16.446	844.907	635.432
359.723	16.459	844.195	634.892
360.738	16.534	843.619	634.682
361.752	16.525	842.770	633.955
362.767	16.510	842.390	633.555
363.781	16.571	841.857	633.327
364.796	16.573	841.664	633.134
365.810	16.542	841.184	632.602
366.825	16.606	840.803	632.496
367.840	16.664	840.461	632.402
368.854	16.683	839.724	631.862
369.869	16.689	839.351	631.546
370.883	16.707	839.007	631.299
371.898	16.688	838.548	630.829
372.913	16.854	837.804	630.829
373.927	16.808	837.542	630.404
374.942	16.796	837.195	630.043
375.956	16.926	836.791	630.165
376.971	16.983	836.232	629.902
377.986	16.793	836.056	629.009
379.000	16.949	835.180	628.873
380.015	16.894	835.027	628.498
381.029	16.930	834.304	628.032
382.044	16.866	833.806	627.363
383.059	16.953	833.070	627.075
384.073	16.914	832.532	626.471
385.088	17.011	831.595	626.068
386.102	16.913	831.526	625.600
387.117	16.822	831.218	624.979
388.132	16.913	830.501	624.717
389.146	17.098	829.945	624.927
390.161	17.104	829.150	624.295
391.175	17.036	829.042	623.907
392.190	17.102	828.293	623.533
393.205	16.985	827.732	622.623
394.219	16.992	827.519	622.436
395.234	17.029	826.769	621.951
396.248	16.906	826.895	621.539
397.263	17.055	825.759	621.175
398.278	16.940	825.545	620.541
399.292	17.070	825.189	620.692
400.307	17.081	825.003	620.538
401.321	17.201	824.039	620.197
402.336	17.108	823.983	619.761
403.350	17.115	823.603	619.446
404.365	17.082	823.303	619.043
405.380	17.324	822.309	619.123
406.394	17.296	821.815	618.593
407.409	17.208	821.303	617.834
408.423	17.237	821.152	617.770
409.438	17.317	820.654	617.631
410.453	17.320	820.437	617.426
411.467	17.394	819.599	617.008
412.482	17.293	819.568	616.565
413.496	17.609	818.643	616.959
414.511	17.406	818.851	616.325
415.526	17.420	818.409	615.988
416.540	17.542	817.557	615.732
417.555	17.385	817.232	614.866
418.569	17.469	816.963	614.912
419.584	17.365	816.324	614.001
420.599	17.409	816.449	614.203
421.613	110.533	1297.536	1477.338
422.628	95.577	1367.604	1477.403
