DTS Sentinel unit serial number:	SN413079Multiplexer serial number:	ORYXHardware model number:	OX4-SRSoftware version number:	ORYX F/W v4.00 Oryx Data Collector v3.7.2.0data status	okinstallation	princeton_trtdifferential loss correction	single-endedforward channel	channel 1reverse channel	N/Adate	2019/09/12time	04:08:11forward acquisition time	60.00reverse acquisition time	0.00gamma	496.2192k internal	0.2323k external	0.2323temperature offset calibration	1.0084default loss term (dB/km)	0.3790temperature slope calibration	1.0000multiplexer offset coefficient	1.0000multiplexer slope coefficient	1.0000fibre end	0.00T internal ref (°C)	31.98T ext. ref 1 (°C)	2.22T ext. ref 2 (°C)	25.87length (m)	temperature (°C)	Stokes	anti-Stokes-747.200	-151.945	0.482	0.036
-746.185	800.000	-0.017	0.070
-745.171	138.718	0.135	-0.180
-744.156	800.000	-0.040	0.150
-743.142	63.560	0.116	-0.118
-742.127	147.850	-0.342	0.466
-741.112	36.899	0.006	-0.005
-740.098	-15.655	-0.112	0.072
-739.083	-184.997	0.015	0.000
-738.069	-16.188	0.051	-0.033
-737.054	84.083	-0.239	-0.264
-736.039	131.192	0.074	-0.095
-735.025	151.071	-0.137	0.188
-734.010	73.434	0.216	0.228
-732.996	-200.000	0.030	0.235
-731.981	-44.693	-0.113	-0.057
-730.966	800.000	-0.040	-0.159
-729.952	-29.408	0.255	-0.148
-728.937	-200.000	0.017	0.279
-727.923	-200.000	0.008	0.041
-726.908	382.481	-0.156	-0.323
-725.894	-88.600	-0.195	-0.059
-724.879	800.000	-0.067	0.245
-723.864	-110.169	0.100	0.021
-722.850	337.353	-0.141	-0.277
-721.835	4.303	0.178	-0.132
-720.821	356.140	-0.116	-0.233
-719.806	480.718	-0.117	-0.268
-718.791	213.455	0.250	-0.399
-717.777	-32.947	0.330	0.185
-716.762	200.143	0.165	-0.256
-715.748	325.550	-0.142	-0.274
-714.733	800.000	0.073	-0.279
-713.718	-200.000	-0.062	0.380
-712.704	-24.077	-0.318	-0.192
-711.689	-200.000	-0.018	0.141
-710.675	-52.173	-0.083	-0.039
-709.660	-42.505	-0.475	-0.244
-708.645	211.394	0.023	-0.036
-707.631	800.000	-0.135	-0.402
-706.616	161.485	0.159	-0.225
-705.602	51.019	0.181	0.173
-704.587	-43.328	-0.350	-0.178
-703.572	-68.512	0.297	0.116
-702.558	-83.533	-0.117	-0.038
-701.543	-200.000	0.010	-0.150
-700.529	-65.480	0.089	0.036
-699.514	-153.066	0.415	0.029
-698.499	800.000	0.101	-0.298
-697.485	190.489	-0.102	0.155
-696.470	103.559	0.149	-0.176
-695.456	0.256	-0.217	-0.156
-694.441	-200.000	0.066	-0.338
-693.426	70.963	0.091	-0.095
-692.412	165.736	-0.245	-0.349
-691.397	101.162	0.061	0.072
-690.383	-81.955	-0.228	0.075
-689.368	-171.181	-0.150	0.005
-688.354	4.084	0.045	0.033
-687.339	-136.505	0.057	-0.007
-686.324	70.191	0.185	-0.193
-685.310	-44.058	0.251	-0.127
-684.295	208.893	-0.136	0.214
-683.281	-200.000	-0.027	0.283
-682.266	-200.000	0.032	0.355
-681.251	-56.305	-0.119	-0.053
-680.237	62.520	-0.178	-0.179
-679.222	-26.894	-0.236	-0.139
-678.208	-200.000	0.053	-0.486
-677.193	104.581	0.269	-0.319
-676.178	122.127	-0.239	-0.300
-675.164	800.000	0.045	0.159
-674.149	93.494	-0.277	-0.316
-673.135	26.464	0.017	0.015
-672.120	-12.550	-0.084	-0.055
-671.105	554.310	-0.024	-0.059
-670.091	-30.783	0.021	-0.012
-669.076	-156.045	-0.228	-0.015
-668.062	-40.658	-0.420	0.219
-667.047	211.663	-0.085	0.134
-666.032	386.589	-0.167	0.348
-665.018	143.171	0.096	0.128
-664.003	800.000	0.027	-0.096
-662.989	-113.950	-0.194	0.038
-661.974	800.000	0.127	-0.408
-660.959	82.627	0.213	-0.233
-659.945	672.292	-0.127	0.332
-658.930	-133.146	0.163	-0.021
-657.916	800.000	0.054	-0.215
-656.901	-57.996	0.125	0.055
-655.886	32.279	0.060	-0.052
-654.872	-23.656	0.391	0.236
-653.857	-103.594	-0.355	-0.084
-652.843	13.801	0.198	-0.155
-651.828	800.000	-0.080	0.265
-650.814	-200.000	0.006	0.057
-649.799	-90.039	0.280	0.082
-648.784	663.157	-0.090	0.234
-647.770	82.349	-0.222	0.242
-646.755	-34.288	0.256	0.141
-645.741	-123.686	-0.134	-0.021
-644.726	-200.000	0.044	-0.213
-643.711	-200.000	-0.030	-0.154
-642.697	242.110	0.102	-0.171
-641.682	-87.946	-0.081	0.024
-640.668	-65.337	-0.166	0.067
-639.653	44.525	-0.247	-0.228
-638.638	-200.000	-0.016	-0.197
-637.624	-120.695	0.186	-0.032
-636.609	-8.463	-0.172	-0.116
-635.595	-199.409	0.328	0.002
-634.580	152.635	-0.089	-0.122
-633.565	297.406	-0.105	0.193
-632.551	363.149	-0.103	-0.209
-631.536	800.000	0.080	0.250
-630.522	530.788	0.049	-0.116
-629.507	-133.649	-0.078	0.010
-628.492	-23.134	0.147	-0.089
-627.478	800.000	-0.021	0.079
-626.463	800.000	-0.122	0.368
-625.449	-3.694	-0.104	0.073
-624.434	377.703	-0.177	0.363
-623.419	17.233	-0.270	-0.215
-622.405	-42.836	0.241	-0.123
-621.390	-34.295	0.062	-0.034
-620.376	74.789	-0.106	-0.112
-619.361	125.920	0.108	0.138
-618.346	-36.875	0.236	-0.127
-617.332	-51.464	0.161	-0.075
-616.317	15.657	0.225	-0.177
-615.303	-200.000	0.022	-0.171
-614.288	23.345	0.146	-0.120
-613.273	-200.000	-0.043	-0.210
-612.259	-200.000	0.019	-0.281
-611.244	-46.146	-0.193	-0.095
-610.230	465.252	0.060	0.134
-609.215	212.329	0.181	-0.287
-608.201	-35.362	0.109	-0.059
-607.186	-200.000	0.039	-0.213
-606.171	-200.000	-0.023	0.201
-605.157	800.000	-0.018	-0.064
-604.142	-58.378	-0.019	-0.008
-603.128	282.853	-0.061	-0.111
-602.113	605.089	-0.148	-0.371
-601.098	-22.742	0.242	-0.147
-600.084	-97.105	0.174	0.046
-599.069	208.675	0.108	-0.170
-598.055	-53.986	-0.337	-0.154
-597.040	-200.000	0.000	-0.269
-596.025	-28.842	0.064	-0.037
-595.011	-71.254	-0.060	-0.023
-593.996	-86.949	-0.115	-0.035
-592.982	-88.041	-0.064	0.019
-591.967	27.120	0.301	-0.254
-590.952	424.701	0.103	-0.222
-589.938	800.000	0.116	-0.351
-588.923	-200.000	-0.029	-0.187
-587.909	800.000	0.103	-0.367
-586.894	19.182	0.114	-0.092
-585.879	800.000	-0.113	0.383
-584.865	-143.203	0.234	-0.023
-583.850	-131.522	0.141	0.019
-582.836	-51.220	-0.128	-0.060
-581.821	800.000	-0.173	-0.568
-580.806	162.535	0.238	0.335
-579.792	-76.318	0.062	0.022
-578.777	800.000	0.108	-0.329
-577.763	-92.064	-0.085	-0.024
-576.748	315.243	-0.028	0.052
-575.733	-32.624	-0.313	0.175
-574.719	-37.725	0.235	-0.125
-573.704	170.196	0.149	0.214
-572.690	-151.809	-0.297	-0.022
-571.675	131.828	0.062	-0.080
-570.661	-127.028	0.329	-0.048
-569.646	85.709	-0.094	-0.104
-568.631	-200.000	-0.036	0.200
-567.617	-103.314	0.299	0.071
-566.602	-30.348	0.152	0.086
-565.588	-165.600	0.168	0.007
-564.573	-138.860	-0.147	-0.016
-563.558	-200.000	0.012	0.139
-562.544	12.629	0.098	-0.076
-561.529	-109.201	0.196	-0.042
-560.515	105.615	-0.069	-0.082
-559.500	58.894	-0.095	0.094
-558.485	800.000	0.095	0.286
-557.471	-0.829	0.326	0.232
-556.456	-56.030	-0.151	-0.067
-555.442	-118.619	0.249	-0.044
-554.427	239.430	-0.079	0.132
-553.412	-10.274	0.268	-0.178
-552.398	93.973	-0.035	-0.039
-551.383	-8.459	-0.302	-0.204
-550.369	800.000	-0.054	0.188
-549.354	-173.370	-0.245	0.007
-548.339	32.503	-0.092	-0.080
-547.325	-90.517	0.169	0.049
-546.310	800.000	-0.027	-0.112
-545.296	479.329	0.098	-0.222
-544.281	75.503	-0.075	0.079
-543.266	224.701	0.130	0.210
-542.252	800.000	0.059	0.169
-541.237	-120.989	0.306	0.052
-540.223	800.000	-0.104	-0.354
-539.208	800.000	0.015	-0.060
-538.193	-95.105	-0.185	-0.050
-537.179	-200.000	0.040	0.206
-536.164	-24.599	0.270	0.161
-535.150	-200.000	0.018	-0.502
-534.135	451.824	-0.135	0.298
-533.121	-200.000	0.013	-0.275
-532.106	58.397	0.062	-0.061
-531.091	126.892	0.051	-0.064
-530.077	6.423	-0.367	0.273
-529.062	-128.706	0.112	0.016
-528.048	60.518	0.217	0.215
-527.033	149.475	-0.143	0.194
-526.018	-51.519	-0.223	0.104
-525.004	655.181	0.101	0.259
-523.989	15.851	0.130	-0.103
-522.975	-160.083	-0.510	0.028
-521.960	594.635	-0.120	0.297
-520.945	-83.750	0.097	-0.031
-519.931	-58.140	0.268	-0.117
-518.916	-200.000	-0.028	-0.131
-517.902	-72.712	-0.268	-0.099
-516.887	-200.000	0.008	-0.257
-515.872	-196.002	-0.287	0.002
-514.858	153.140	0.124	0.169
-513.843	-163.819	0.315	-0.015
-512.829	-156.627	0.245	0.015
-511.814	-200.000	-0.017	0.135
-510.799	120.923	0.185	-0.230
-509.785	-54.875	0.228	-0.103
-508.770	-200.000	0.021	-0.155
-507.756	-105.831	0.319	0.072
-506.741	-112.761	0.079	0.016
-505.726	479.449	-0.048	0.109
-504.712	-200.000	-0.011	-0.090
-503.697	-200.000	0.003	-0.174
-502.683	449.179	-0.034	0.076
-501.668	72.866	-0.200	0.208
-500.653	-162.846	0.141	0.007
-499.639	-200.000	-0.009	0.159
-498.624	92.794	-0.037	0.041
-497.610	-200.000	0.008	-0.323
-496.595	-200.000	0.038	-0.188
-495.581	-200.000	-0.036	-0.292
-494.566	-187.404	-0.169	0.002
-493.551	-200.000	-0.063	-0.339
-492.537	-200.000	-0.034	-0.437
-491.522	-46.683	-0.221	0.108
-490.508	-162.987	-0.126	0.006
-489.493	-170.012	0.451	-0.016
-488.478	-132.978	0.241	0.031
-487.464	-44.397	0.198	0.099
-486.449	-200.000	-0.015	0.255
-485.435	-0.841	0.219	-0.155
-484.420	68.558	0.074	0.076
-483.405	-103.738	-0.170	0.040
-482.391	-22.460	-0.335	0.203
-481.376	256.601	0.228	-0.392
-480.362	-200.000	0.031	0.221
-479.347	237.671	-0.132	0.220
-478.332	95.260	0.277	0.316
-477.318	-170.859	-0.124	0.004
-476.303	800.000	-0.085	-0.334
-475.289	34.375	-0.094	-0.082
-474.274	-110.511	-0.208	-0.043
-473.259	16.887	0.063	-0.050
-472.245	-53.655	-0.555	-0.254
-471.230	-200.000	-0.016	-0.176
-470.216	69.390	-0.208	0.214
-469.201	800.000	-0.219	-0.604
-468.186	-200.000	0.026	-0.131
-467.172	-148.684	-0.182	0.015
-466.157	-200.000	-0.011	0.112
-465.143	800.000	0.080	-0.271
-464.128	-200.000	-0.041	0.205
-463.113	239.877	0.106	-0.176
-462.099	-200.000	0.054	-0.291
-461.084	-35.057	0.258	0.140
-460.070	135.291	0.161	0.209
-459.055	-112.960	-0.244	-0.048
-458.040	11.779	0.039	-0.030
-457.026	-127.530	0.101	-0.015
-456.011	800.000	0.049	-0.171
-454.997	-200.000	0.005	-0.203
-453.982	43.805	-0.219	0.200
-452.968	84.620	-0.140	-0.153
-451.953	202.794	-0.116	-0.179
-450.938	-167.472	0.347	-0.014
-449.924	123.498	-0.142	-0.177
-448.909	332.969	0.056	-0.109
-447.895	651.794	-0.089	-0.227
-446.880	800.000	-0.070	-0.221
-445.865	366.951	0.055	-0.110
-444.851	90.881	0.115	0.128
-443.836	-200.000	-0.025	0.126
-442.822	75.050	-0.173	0.181
-441.807	124.937	-0.111	-0.139
-440.792	-20.496	0.256	-0.157
-439.778	-200.000	0.003	0.198
-438.763	435.277	0.058	0.126
-437.749	-43.506	-0.194	0.098
-436.734	-21.339	0.217	-0.132
-435.719	99.069	0.323	0.372
-434.705	800.000	0.094	0.266
-433.690	147.835	-0.266	-0.358
-432.676	29.185	0.109	0.092
-431.661	-107.134	-0.302	0.066
-430.646	57.999	0.019	0.019
-429.632	18.065	-0.203	0.161
-428.617	-200.000	-0.030	-0.229
-427.603	-143.614	0.184	-0.017
-426.588	-200.000	-0.025	0.223
-425.573	72.136	-0.055	-0.058
-424.559	800.000	-0.147	0.529
-423.544	-200.000	-0.017	-0.264
-422.530	136.200	-0.148	-0.192
-421.515	292.387	-0.075	-0.136
-420.500	-48.889	0.184	0.088
-419.486	272.844	-0.080	0.140
-418.471	102.265	0.200	-0.233
-417.457	-99.843	0.109	-0.027
-416.442	376.225	-0.097	0.198
-415.428	61.219	0.116	0.115
-414.413	130.987	-0.121	-0.155
-413.398	-35.937	-0.236	-0.127
-412.384	198.569	0.158	-0.242
-411.369	-69.160	0.199	0.076
-410.355	-51.375	0.179	0.083
-409.340	229.154	-0.132	0.214
-408.325	-32.120	0.258	0.144
-407.311	-138.284	-0.170	0.019
-406.296	-200.000	0.019	0.457
-405.282	-78.819	-0.220	-0.075
-404.267	-156.397	-0.161	-0.010
-403.252	-71.132	-0.215	-0.081
-402.238	800.000	0.068	-0.223
-401.223	554.987	-0.089	0.214
-400.209	-175.716	-0.229	-0.006
-399.194	-47.268	-0.080	-0.039
-398.179	23.121	-0.135	-0.110
-397.165	660.159	0.014	0.036
-396.150	-65.951	-0.102	0.041
-395.136	33.656	-0.119	-0.103
-394.121	754.749	-0.047	-0.127
-393.106	-138.076	0.070	0.008
-392.092	-200.000	-0.013	-0.347
-391.077	-45.979	0.035	0.017
-390.063	-21.332	0.213	-0.130
-389.048	-70.146	0.099	-0.037
-388.033	-146.642	-0.180	0.016
-387.019	-200.000	-0.012	0.239
-386.004	-122.382	-0.009	0.001
-384.990	-86.111	-0.210	-0.065
-383.975	-200.000	0.017	0.499
-382.960	244.167	0.124	0.207
-381.946	44.723	0.253	-0.232
-380.931	-200.000	-0.010	0.333
-379.917	325.992	-0.103	0.196
-378.902	-200.000	-0.004	-0.145
-377.888	800.000	0.104	0.302
-376.873	-120.065	-0.272	0.046
-375.858	-160.965	-0.183	0.010
-374.844	-106.688	0.163	-0.036
-373.829	187.196	-0.202	-0.300
-372.815	-200.000	-0.016	-0.319
-371.800	101.506	-0.184	0.213
-370.785	-55.403	-0.251	0.112
-369.771	-71.036	-0.257	0.096
-368.756	-83.923	-0.169	0.053
-367.742	-44.704	0.078	0.039
-366.727	497.471	-0.101	0.231
-365.712	-70.585	0.387	0.146
-364.698	-100.541	-0.425	0.105
-363.683	-119.696	0.527	0.090
-362.669	410.199	-0.073	0.154
-361.654	399.911	0.073	0.153
-360.639	-200.000	0.018	-0.178
-359.625	-65.803	-0.223	0.089
-358.610	74.594	0.184	0.193
-357.596	39.404	-0.346	0.308
-356.581	38.159	-0.076	-0.067
-355.566	-200.000	-0.007	-0.080
-354.552	800.000	-0.027	0.080
-353.537	-200.000	0.016	0.206
-352.523	262.153	0.024	0.042
-351.508	16.506	-0.095	0.074
-350.493	-200.000	-0.015	-0.074
-349.479	-0.072	-0.280	-0.198
-348.464	68.609	-0.393	-0.401
-347.450	-80.202	0.177	-0.059
-346.435	800.000	0.073	0.213
-345.420	-83.458	0.055	-0.018
-344.406	-115.709	-0.404	-0.075
-343.391	-200.000	-0.039	-0.188
-342.377	-200.000	-0.058	-0.429
-341.362	800.000	-0.118	0.437
-340.348	138.111	0.077	-0.100
-339.333	-113.262	-0.071	-0.014
-338.318	-111.175	-0.071	-0.014
-337.304	-58.800	0.126	-0.054
-336.289	77.346	-0.239	-0.253
-335.275	266.613	-0.069	-0.120
-334.260	4.441	-0.078	-0.057
-333.245	-108.188	-0.103	-0.022
-332.231	800.000	-0.064	0.263
-331.216	154.685	-0.126	0.172
-330.202	-100.396	-0.144	-0.036
-329.187	-200.000	0.020	0.234
-328.172	-68.100	0.299	0.116
-327.158	7.042	0.103	-0.076
-326.143	3.313	0.267	0.193
-325.129	162.311	0.027	-0.038
-324.114	462.255	-0.121	-0.268
-323.099	3.441	-0.160	0.116
-322.085	-172.149	-0.298	0.010
-321.070	196.824	-0.253	0.383
-320.056	800.000	0.021	-0.062
-319.041	-77.889	0.189	0.065
-318.026	-200.000	0.002	0.158
-317.012	103.858	0.187	-0.219
-315.997	800.000	0.038	-0.139
-314.983	800.000	-0.025	-0.079
-313.968	-176.827	-0.269	-0.007
-312.953	-200.000	0.015	-0.227
-311.939	10.744	-0.206	0.156
-310.924	-77.824	-0.070	-0.024
-309.910	-14.695	-0.101	-0.064
-308.895	144.586	0.196	-0.260
-307.880	-177.674	0.211	0.005
-306.866	37.509	0.106	-0.093
-305.851	198.638	-0.062	0.095
-304.837	625.955	-0.024	-0.061
-303.822	41.502	0.058	0.052
-302.807	-47.008	-0.253	0.123
-301.793	-79.404	-0.292	-0.098
-300.778	404.128	0.045	0.094
-299.764	-128.651	-0.335	0.047
-298.749	800.000	-0.092	-0.294
-297.735	800.000	0.054	0.204
-296.720	-200.000	0.017	0.186
-295.705	407.189	-0.083	-0.173
-294.691	-200.000	0.010	0.139
-293.676	501.616	0.214	-0.491
-292.662	-155.587	-0.266	0.017
-291.647	-10.559	0.419	0.275
-290.632	70.643	-0.246	0.253
-289.618	-82.190	0.452	0.146
-288.603	406.982	-0.182	-0.381
-287.589	-200.000	-0.008	-0.082
-286.574	-57.622	0.261	-0.113
-285.559	-7.081	-0.015	0.010
-284.545	-95.349	-0.249	0.066
-283.530	-17.858	-0.403	-0.251
-282.516	-200.000	0.011	0.231
-281.501	-200.000	0.005	0.153
-280.486	-200.000	0.009	0.064
-279.472	-200.000	0.035	0.173
-278.457	800.000	-0.138	-0.513
-277.443	24.237	0.234	-0.192
-276.428	-6.900	-0.171	0.115
-275.413	609.293	-0.041	0.102
-274.399	-80.603	-0.212	0.070
-273.384	800.000	-0.042	0.154
-272.370	121.360	-0.268	-0.331
-271.355	-29.492	-0.131	-0.074
-270.340	800.000	-0.020	0.075
-269.326	-77.872	0.203	-0.070
-268.311	-158.473	0.099	-0.006
-267.297	-111.527	0.336	-0.068
-266.282	-52.913	-0.264	0.120
-265.267	355.756	0.116	0.230
-264.253	366.138	0.085	-0.169
-263.238	800.000	0.090	-0.385
-262.224	627.418	0.089	-0.223
-261.209	-158.775	-0.082	0.005
-260.195	206.359	-0.097	0.150
-259.180	-84.193	-0.110	0.035
-258.165	46.267	0.109	0.100
-257.151	-100.062	0.301	0.074
-256.136	-128.938	0.316	-0.044
-255.122	-124.567	0.247	-0.038
-254.107	-22.045	0.390	-0.234
-253.092	-200.000	0.001	-0.071
-252.078	-80.956	-0.074	0.024
-251.063	136.917	0.110	0.143
-250.049	-200.000	-0.009	0.313
-249.034	800.000	0.075	-0.264
-248.019	-96.128	0.045	-0.012
-247.005	-163.046	0.312	-0.015
-245.990	751.985	-0.096	0.256
-244.976	-200.000	-0.002	-0.032
-243.961	238.235	0.076	-0.125
-242.946	-39.967	0.243	0.126
-241.932	28.915	-0.310	0.261
-240.917	-140.224	-0.376	-0.039
-239.903	27.544	0.217	-0.181
-238.888	-200.000	0.034	-0.150
-237.873	-110.510	-0.284	-0.058
-236.859	61.781	-0.081	-0.080
-235.844	0.883	-0.160	-0.113
-234.830	305.016	-0.108	0.199
-233.815	-127.306	0.269	0.039
-232.800	-87.653	0.312	0.093
-231.786	-128.506	-0.103	-0.014
-230.771	-32.496	-0.141	0.078
-229.757	204.108	0.108	-0.166
-228.742	452.135	-0.109	0.239
-227.727	180.990	-0.041	-0.060
-226.713	253.800	0.062	-0.105
-225.698	-170.370	0.130	-0.005
-224.684	197.103	0.112	0.170
-223.669	3.521	0.099	-0.072
-222.655	-200.000	0.005	0.105
-221.640	291.332	-0.246	0.443
-220.625	-112.518	0.447	0.088
-219.611	-76.216	0.274	-0.096
-218.596	-200.000	-0.002	0.068
-217.582	139.037	-0.183	0.238
-216.567	567.025	0.118	0.284
-215.552	800.000	0.013	0.041
-214.538	-200.000	0.047	0.292
-213.523	-9.089	0.170	-0.112
-212.509	-200.000	0.019	0.181
-211.494	334.922	0.067	0.128
-210.479	687.340	0.022	-0.057
-209.465	-200.000	0.033	-0.174
-208.450	-176.765	0.184	0.005
-207.436	-101.658	-0.315	0.076
-206.421	-200.000	0.023	0.382
-205.406	-200.000	0.004	0.199
-204.392	80.574	-0.114	-0.122
-203.377	800.000	0.073	-0.221
-202.363	-200.000	0.024	0.279
-201.348	-147.386	-0.132	-0.011
-200.333	-200.000	-0.035	0.193
-199.319	-135.274	-0.241	-0.029
-198.304	800.000	0.065	0.239
-197.290	-104.066	0.152	0.035
-196.275	-134.263	0.141	-0.017
-195.260	-200.000	0.028	0.265
-194.246	412.739	-0.018	0.039
-193.231	-115.777	-0.414	0.077
-192.217	12.240	-0.056	-0.043
-191.202	-200.000	-0.067	0.384
-190.187	-59.060	0.132	-0.057
-189.173	-170.682	-0.133	0.005
-188.158	-114.786	-0.093	-0.018
-187.144	305.084	0.220	0.404
-186.129	-200.000	-0.062	-0.481
-185.114	-60.561	-0.278	-0.117
-184.100	-95.838	0.134	0.035
-183.085	-33.455	0.514	0.280
-182.071	-200.000	0.007	0.271
-181.056	-86.210	0.269	0.082
-180.042	-200.000	-0.014	0.204
-179.027	-59.079	-0.391	0.166
-178.012	-61.939	0.094	-0.039
-176.998	-200.000	0.002	-0.120
-175.983	-108.614	0.220	0.047
-174.969	-200.000	-0.046	0.212
-173.954	208.481	-0.052	0.081
-172.939	383.833	0.139	0.284
-171.925	800.000	-0.053	-0.205
-170.910	-200.000	-0.003	0.070
-169.896	-133.630	0.033	-0.004
-168.881	216.774	0.234	0.368
-167.866	-200.000	-0.014	0.074
-166.852	-90.921	0.240	0.068
-165.837	-200.000	0.023	-0.106
-164.823	-65.163	-0.172	-0.068
-163.808	-61.283	0.184	0.076
-162.793	-119.075	0.287	-0.050
-161.779	1.363	0.298	0.211
-160.764	800.000	-0.080	-0.284
-159.750	-88.911	-0.256	-0.075
-158.735	-69.307	0.362	-0.137
-157.720	800.000	0.024	0.077
-156.706	800.000	-0.101	-0.312
-155.691	-25.111	-0.254	0.149
-154.677	-102.041	-0.277	0.066
-153.662	39.816	0.274	0.242
-152.647	-152.987	0.055	0.004
-151.633	338.032	-0.157	0.301
-150.618	168.721	-0.125	-0.176
-149.604	-104.506	0.332	0.076
-148.589	114.703	-0.081	0.097
-147.574	223.120	-0.075	0.119
-146.560	137.659	-0.154	0.199
-145.545	-200.000	0.008	-0.234
-144.531	539.718	-0.038	-0.090
-143.516	-124.010	0.383	0.059
-142.502	28.088	0.194	0.161
-141.487	46.230	-0.184	-0.168
-140.472	-35.393	0.117	-0.063
-139.458	-98.321	-0.310	-0.078
-138.443	305.133	0.145	0.265
-137.429	297.549	-0.117	-0.213
-136.414	-200.000	0.050	0.460
-135.399	-38.508	0.235	-0.123
-134.385	-84.332	-0.031	-0.010
-133.370	-127.439	0.096	-0.014
-132.356	-14.477	0.076	-0.048
-131.341	-57.370	-0.128	0.055
-130.326	-92.688	-0.109	-0.030
-129.312	-141.623	-0.086	-0.009
-128.297	-44.871	0.086	-0.042
-127.283	-2.214	0.112	0.078
-126.268	-200.000	-0.019	0.208
-125.253	-105.399	-0.214	0.048
-124.239	-200.000	-0.007	-0.290
-123.224	-173.013	0.062	-0.002
-122.210	-129.800	0.302	-0.041
-121.195	673.607	0.116	0.296
-120.180	72.526	0.228	-0.234
-119.166	170.758	0.112	0.158
-118.151	136.370	-0.313	0.402
-117.137	217.270	0.158	-0.247
-116.122	58.642	0.350	0.339
-115.107	-97.582	-0.256	-0.065
-114.093	200.763	-0.121	0.183
-113.078	-90.740	-0.161	-0.046
-112.064	144.522	-0.171	0.225
-111.049	-177.702	-0.173	-0.004
-110.034	90.115	0.189	0.208
-109.020	560.067	0.018	0.044
-108.005	87.407	0.215	-0.235
-106.991	-200.000	0.063	-0.370
-105.976	-200.000	-0.011	-0.159
-104.962	-68.666	-0.112	-0.043
-103.947	800.000	0.166	-0.569
-102.932	423.109	0.084	0.178
-101.918	-192.975	-0.195	0.002
-100.903	42.379	-0.283	-0.254
-99.889	-200.000	-0.105	0.481
-98.874	-9.052	-0.171	0.113
-97.859	-200.000	0.013	-0.325
-96.845	62.477	0.122	0.120
-95.830	317.010	-0.153	0.285
-94.816	-18.730	-0.356	0.219
-93.801	644.916	0.067	-0.170
-92.786	-50.400	0.208	0.097
-91.772	-173.901	0.267	-0.008
-90.757	-159.448	-0.199	-0.011
-89.743	-200.000	0.006	0.044
-88.728	-44.899	-0.297	-0.146
-87.713	-71.722	0.357	0.131
-86.699	-200.000	-0.034	0.147
-85.684	-200.000	0.021	0.095
-84.670	57.805	-0.377	0.363
-83.655	-130.133	-0.613	-0.082
-82.640	-193.854	-0.247	-0.002
-81.626	-200.000	-0.064	-0.477
-80.611	-200.000	0.000	0.005
-79.597	-138.715	-0.397	0.043
-78.582	435.180	-0.127	-0.272
-77.567	-200.000	0.021	-0.125
-76.553	-152.190	-0.295	-0.021
-75.538	-200.000	-0.019	-0.143
-74.524	83.593	0.133	-0.142
-73.509	230.576	-0.188	-0.302
-72.494	790.532	-0.101	-0.273
-71.480	100.328	-0.370	-0.422
-70.465	-77.380	-0.296	0.101
-69.451	800.000	-0.076	0.271
-68.436	497.574	-0.140	0.318
-67.422	77.385	-0.121	-0.127
-66.407	-200.000	0.027	-0.136
-65.392	-128.178	0.131	0.018
-64.378	-72.260	0.169	-0.062
-63.363	-147.906	0.227	0.019
-62.349	-63.824	0.057	0.023
-61.334	57.189	-1.203	-1.154
-60.319	-29.882	0.782	0.438
-59.305	-200.000	-0.195	-0.951
-58.290	423.838	0.489	1.034
-57.276	800.000	0.430	1.531
-56.261	-200.000	96.639	605.234
-55.246	565.637	1366.079	3256.978
-54.232	162.975	2540.880	3508.284
-53.217	113.991	2132.131	2549.088
-52.203	43.997	1597.463	1439.234
-51.188	35.607	1336.175	1153.669
-50.173	32.442	1293.929	1098.711
-49.159	54.434	1342.234	1270.943
-48.144	56.702	1358.736	1299.986
-47.130	35.753	1317.415	1138.154
-46.115	32.140	1300.561	1102.392
-45.100	31.957	1294.917	1096.493
-44.086	31.905	1292.596	1094.182
-43.071	31.919	1290.262	1092.245
-42.057	31.815	1288.337	1089.968
-41.042	31.863	1286.267	1088.452
-40.027	31.850	1285.176	1087.412
-39.013	31.861	1283.174	1085.737
-37.998	31.912	1281.258	1084.366
-36.984	31.984	1279.601	1083.337
-35.969	31.870	1278.199	1081.453
-34.954	32.028	1276.104	1080.546
-33.940	32.032	1274.821	1079.441
-32.925	31.994	1273.524	1078.076
-31.911	32.051	1271.723	1076.839
-30.896	32.100	1270.216	1075.803
-29.881	32.154	1268.941	1074.985
-28.867	31.998	1268.007	1073.261
-27.852	32.142	1266.387	1072.668
-26.838	32.145	1264.421	1070.981
-25.823	32.017	1263.608	1069.518
-24.809	32.097	1262.447	1068.950
-23.794	31.946	1261.509	1067.252
-22.779	32.117	1259.500	1066.483
-21.765	32.098	1258.667	1065.624
-20.750	32.149	1257.135	1064.579
-19.736	32.070	1255.805	1062.961
-18.721	32.028	1254.739	1061.781
-17.706	31.970	1253.584	1060.430
-16.692	32.007	1252.177	1059.411
-15.677	31.906	1251.895	1058.558
-14.663	31.922	1250.362	1057.312
-13.648	31.885	1248.844	1055.779
-12.633	31.966	1248.216	1055.659
-11.619	31.950	1247.190	1054.660
-10.604	31.846	1246.694	1053.614
-9.590	31.851	1245.128	1052.275
-8.575	31.975	1243.798	1051.807
-7.560	31.929	1243.626	1051.358
-6.546	31.808	1242.988	1050.099
-5.531	31.895	1242.002	1049.711
-4.517	31.987	1240.845	1049.206
-3.502	31.979	1239.905	1048.327
-2.487	31.999	1239.041	1047.666
-1.473	31.928	1235.169	1043.958
-0.458	30.488	1220.242	1023.376
0.556	27.898	1203.445	988.349
1.571	24.768	1210.595	977.064
2.586	24.339	1226.112	987.130
3.600	23.819	1215.543	975.679
4.615	17.813	1141.988	885.485
5.629	7.278	1065.155	774.580
6.644	2.624	1044.286	736.997
7.659	2.141	1041.682	732.778
8.673	2.068	1040.635	731.629
9.688	2.049	1039.320	730.547
10.702	2.608	1038.064	732.274
11.717	9.558	1047.599	772.353
12.731	19.591	1062.176	831.584
13.746	24.531	1066.974	859.096
14.761	25.264	1069.122	864.281
15.775	25.499	1067.878	864.327
16.790	25.260	1067.068	862.449
17.804	25.199	1066.681	861.763
18.819	25.274	1066.489	861.894
19.834	25.469	1066.255	862.564
20.848	25.501	1065.385	861.937
21.863	25.561	1064.597	861.514
22.877	25.362	1064.517	860.418
23.892	25.237	1063.557	858.967
24.907	25.300	1063.096	858.821
25.921	25.289	1061.899	857.724
26.936	25.357	1060.652	856.967
27.950	25.268	1059.067	855.186
28.965	25.324	1057.022	853.725
29.980	25.229	1055.932	852.316
30.994	25.524	1055.190	853.046
32.009	25.433	1053.832	851.441
33.023	25.247	1052.824	849.670
34.038	25.352	1052.010	849.435
35.053	25.402	1051.625	849.284
36.067	25.426	1050.535	848.441
37.082	25.627	1049.734	848.666
38.096	25.653	1049.379	848.431
39.111	25.601	1048.693	847.556
40.126	25.547	1046.775	845.674
41.140	25.322	1044.891	843.022
42.155	25.049	1043.771	840.761
43.169	25.020	1043.118	840.025
44.184	25.068	1041.943	839.230
45.199	24.999	1040.944	838.027
46.213	25.025	1040.394	837.636
47.228	25.279	1039.218	837.797
48.242	25.361	1038.199	837.284
49.257	25.463	1037.864	837.416
50.271	25.442	1037.156	836.674
51.286	25.572	1036.274	836.491
52.301	25.504	1035.738	835.668
53.315	25.336	1034.573	833.878
54.330	25.430	1033.529	833.396
55.344	25.396	1032.651	832.457
56.359	25.314	1032.311	831.732
57.374	25.269	1030.806	830.234
58.388	25.290	1029.628	829.308
59.403	25.155	1028.989	828.098
60.417	24.850	1028.804	826.470
61.432	25.106	1027.787	826.759
62.447	25.080	1027.650	826.456
63.461	25.132	1026.929	826.043
64.476	25.063	1025.561	824.553
65.490	25.086	1024.449	823.690
66.505	25.183	1023.876	823.602
67.520	25.136	1023.084	822.675
68.534	24.855	1022.592	820.921
69.549	24.707	1021.154	819.016
70.563	24.590	1020.602	817.964
71.578	24.710	1019.824	817.818
72.593	24.529	1018.507	815.859
73.607	24.754	1018.227	816.591
74.622	24.910	1017.977	817.031
75.636	25.020	1017.117	816.770
76.651	24.823	1016.132	815.010
77.666	24.729	1015.652	814.123
78.680	24.705	1015.284	813.650
79.695	24.830	1014.943	813.874
80.709	25.001	1013.498	813.419
81.724	25.035	1013.055	813.146
82.739	25.161	1012.116	812.890
83.753	25.457	1012.117	814.161
84.768	25.715	1011.293	814.591
85.782	25.761	1010.306	813.934
86.797	25.680	1009.349	812.725
87.812	25.619	1007.978	811.274
88.826	25.643	1007.460	810.896
89.841	25.708	1006.620	810.437
90.855	25.737	1005.305	809.440
91.870	25.712	1004.875	808.911
92.884	25.580	1003.558	807.185
93.899	25.561	1002.248	805.973
94.914	25.610	1001.989	805.916
95.928	25.486	1000.745	804.286
96.943	25.304	999.476	802.382
97.957	25.016	998.452	800.202
98.972	24.923	997.130	798.658
99.987	25.283	996.769	799.903
101.001	25.378	996.144	799.754
102.016	25.317	995.660	799.023
103.030	25.235	994.669	797.793
104.045	25.121	993.712	796.447
105.060	25.041	992.507	795.060
106.074	25.137	991.845	794.881
107.089	25.458	991.434	795.905
108.103	25.430	990.452	794.921
109.118	25.083	989.355	792.438
110.133	25.167	987.690	791.402
111.147	25.096	986.793	790.304
112.162	24.846	985.902	788.420
113.176	25.155	985.532	789.414
114.191	24.939	984.885	787.874
115.206	24.675	983.562	785.584
116.220	24.731	982.556	784.960
117.235	24.683	982.356	784.519
118.249	24.799	981.416	784.206
119.264	24.664	980.936	783.165
120.279	24.697	980.322	782.746
121.293	24.771	979.498	782.346
122.308	24.810	978.621	781.746
123.322	24.754	977.321	780.393
124.337	24.722	975.609	778.817
125.352	24.124	974.219	775.037
126.366	24.026	973.865	774.261
127.381	24.929	973.645	777.942
128.395	25.210	973.467	778.954
129.410	25.538	972.246	779.331
130.424	25.331	971.724	777.946
131.439	25.259	970.742	776.777
132.454	25.203	969.713	775.645
133.468	25.213	968.529	774.670
134.483	25.553	967.875	775.548
135.497	25.525	967.441	775.011
136.512	25.707	966.165	774.703
137.527	25.576	965.450	773.495
138.541	25.492	965.329	772.972
139.556	25.559	964.392	772.439
140.570	25.623	963.543	771.964
141.585	25.694	962.617	771.459
142.600	25.497	961.846	769.929
143.614	25.811	960.807	770.374
144.629	25.963	959.945	770.262
145.643	25.715	959.123	768.475
146.658	25.542	957.540	766.405
147.673	25.533	956.174	765.204
148.687	25.414	955.448	764.049
149.702	25.314	954.896	763.114
150.716	25.133	953.969	761.540
151.731	25.478	953.175	762.299
152.746	25.600	953.133	762.718
153.760	25.848	951.707	762.559
154.775	25.886	951.638	762.594
155.789	25.682	951.085	761.224
156.804	25.771	949.787	760.493
157.819	25.732	949.132	759.738
158.833	26.006	948.200	760.079
159.848	26.005	947.273	759.261
160.862	25.676	946.542	757.225
161.877	25.860	945.069	756.752
162.892	25.796	944.488	755.953
163.906	25.719	943.243	754.566
164.921	25.683	942.681	753.899
165.935	25.787	941.633	753.429
166.950	25.856	940.887	753.056
167.964	25.838	939.683	751.950
168.979	25.670	938.822	750.493
169.994	25.621	937.613	749.255
171.008	25.856	936.979	749.660
172.023	25.801	936.567	749.037
173.037	25.561	935.582	747.187
174.052	25.585	934.505	746.359
175.067	25.522	934.132	745.734
176.081	25.653	933.588	745.776
177.096	25.489	933.093	744.635
178.110	25.308	931.959	742.916
179.125	25.085	930.842	741.039
180.140	25.136	930.770	741.126
181.154	25.180	930.951	741.386
182.169	25.537	930.979	742.817
183.183	25.807	929.757	742.893
184.198	25.618	928.995	741.437
185.213	25.632	928.415	740.968
186.227	25.799	927.807	741.102
187.242	25.853	927.117	740.707
188.256	25.782	926.439	739.809
189.271	25.925	925.847	739.858
190.286	25.558	924.638	737.321
191.300	24.881	923.385	733.487
192.315	24.187	921.575	729.142
193.329	24.155	921.574	728.947
194.344	24.927	921.997	732.377
195.359	25.661	921.626	735.016
196.373	25.785	921.237	735.145
197.388	25.497	920.696	733.473
198.402	25.683	920.157	733.739
199.417	25.694	919.719	733.370
200.432	25.369	918.117	730.704
201.446	25.291	917.459	729.801
202.461	25.343	916.931	729.526
203.475	24.355	915.385	724.221
204.490	23.631	914.201	720.287
205.504	24.606	914.563	724.463
206.519	25.223	914.330	726.715
207.534	25.315	913.659	726.487
208.548	25.776	913.634	728.269
209.563	25.551	912.487	726.381
210.577	25.389	912.226	725.456
211.592	25.888	911.775	727.044
212.607	25.808	910.785	725.871
213.621	25.842	910.339	725.587
214.636	25.810	909.892	725.038
215.650	25.731	908.986	723.935
216.665	25.891	908.433	724.073
217.680	25.826	907.624	723.103
218.694	25.366	906.514	720.312
219.709	25.401	905.862	719.869
220.723	25.731	904.941	720.394
221.738	25.676	904.734	719.945
222.753	25.622	904.417	719.414
223.767	25.610	904.172	719.108
224.782	25.981	903.678	720.133
225.796	25.952	903.232	719.597
226.811	25.270	901.725	715.613
227.826	24.632	900.097	711.717
228.840	24.790	900.100	712.288
229.855	24.930	899.237	712.100
230.869	24.691	898.087	710.175
231.884	24.947	897.976	711.041
232.899	25.704	897.912	713.932
233.913	25.530	897.430	712.794
234.928	25.530	897.028	712.414
235.942	25.503	896.143	711.540
236.957	25.128	895.367	709.376
237.972	25.188	895.120	709.359
238.986	25.372	894.273	709.351
240.001	25.427	893.707	709.056
241.015	25.340	893.596	708.563
242.030	25.499	892.901	708.573
243.045	25.635	892.605	708.813
244.059	25.716	891.873	708.487
245.074	25.529	890.932	706.944
246.088	25.342	889.998	705.405
247.103	25.653	890.029	706.588
248.117	26.065	889.724	707.898
249.132	26.236	889.470	708.306
250.147	26.497	888.658	708.618
251.161	26.612	888.450	708.841
252.176	26.564	888.272	708.448
253.190	26.566	887.804	708.018
254.205	26.688	887.021	707.809
255.220	26.706	886.513	707.410
256.234	26.455	885.853	705.841
257.249	26.522	884.690	705.116
258.263	26.472	883.834	704.174
259.278	26.516	883.441	703.971
260.293	26.683	882.962	704.176
261.307	26.537	882.477	703.161
262.322	26.220	881.769	701.301
263.336	25.441	879.778	696.638
264.351	24.561	877.833	691.629
265.366	24.732	877.633	692.074
266.380	25.800	878.481	696.815
267.395	26.180	877.806	697.687
268.409	26.113	877.493	697.117
269.424	26.265	876.757	697.058
270.439	26.341	876.443	697.039
271.453	26.428	875.755	696.768
272.468	26.549	875.520	696.984
273.482	26.635	875.120	696.934
274.497	26.271	873.541	694.218
275.512	25.916	872.497	691.963
276.526	26.437	872.455	693.869
277.541	26.456	872.685	694.063
278.555	26.226	871.478	692.159
279.570	26.104	871.063	691.302
280.585	26.335	869.913	691.211
281.599	26.171	869.519	690.211
282.614	25.599	867.899	686.679
283.628	25.630	867.983	686.805
284.643	25.852	867.826	687.467
285.657	25.576	866.594	685.377
286.672	25.279	865.809	683.564
287.687	25.838	865.632	685.493
288.701	25.980	865.070	685.528
289.716	25.690	863.822	683.377
290.730	25.653	863.341	682.795
291.745	25.192	862.496	680.319
292.760	25.625	862.753	682.103
293.774	26.574	863.156	685.958
294.789	27.004	862.610	687.093
295.803	27.026	861.916	686.563
296.818	26.930	861.268	685.620
297.833	26.454	860.417	683.088
298.847	26.350	859.956	682.269
299.862	26.712	859.467	683.184
300.876	26.986	859.353	684.068
301.891	26.720	858.720	682.499
302.906	26.446	857.495	680.435
303.920	26.620	856.943	680.590
304.935	26.996	856.888	681.902
305.949	26.880	856.179	680.838
306.964	26.675	855.430	679.415
307.979	26.730	855.135	679.325
308.993	27.098	855.022	680.556
310.008	27.124	854.123	679.878
311.022	26.789	853.553	678.109
312.037	26.735	852.869	677.308
313.052	26.339	851.898	674.995
314.066	25.423	850.490	670.406
315.081	25.139	849.866	668.794
316.095	26.064	849.842	672.166
317.110	26.528	849.743	673.755
318.125	25.741	848.006	669.393
319.139	24.627	846.808	664.248
320.154	24.597	846.401	663.758
321.168	25.500	846.907	667.454
322.183	26.458	846.609	670.715
323.197	26.490	846.558	670.731
324.212	26.619	846.490	671.099
325.227	26.689	845.709	670.677
326.241	26.511	845.228	669.577
327.256	26.420	844.409	668.534
328.270	26.348	843.894	667.802
329.285	26.282	842.782	666.619
330.300	25.985	842.249	665.041
331.314	26.238	842.104	665.803
332.329	26.561	841.891	666.763
333.343	26.774	841.905	667.500
334.358	26.662	841.258	666.517
335.373	26.761	840.730	666.403
336.387	26.989	841.032	667.423
337.402	27.068	840.911	667.558
338.416	26.994	840.685	667.047
339.431	27.260	840.140	667.530
340.446	27.407	839.649	667.624
341.460	27.379	838.885	666.854
342.475	27.000	838.494	665.094
343.489	27.225	837.914	665.397
344.504	27.461	837.796	666.110
345.519	27.714	837.193	666.496
346.533	27.550	836.756	665.490
347.548	27.680	836.613	665.794
348.562	27.427	836.336	664.592
349.577	27.422	835.664	663.980
350.592	27.430	834.901	663.341
351.606	27.481	834.117	662.847
352.621	27.277	833.253	661.360
353.635	27.357	832.202	660.756
354.650	26.757	830.527	657.195
355.665	25.788	829.700	652.970
356.679	26.075	829.659	653.919
357.694	26.645	829.111	655.495
358.708	26.422	828.567	654.202
359.723	26.947	828.118	655.685
360.738	27.226	827.902	656.464
361.752	27.299	827.419	656.287
362.767	27.580	827.177	657.049
363.781	27.811	827.145	657.796
364.796	28.137	825.945	657.956
365.810	28.014	826.109	657.586
366.825	27.844	825.651	656.555
367.840	27.658	824.505	654.916
368.854	27.361	824.016	653.403
369.869	27.329	823.754	653.026
370.883	27.374	822.891	652.443
371.898	27.230	822.646	651.676
372.913	27.438	822.335	652.118
373.927	27.436	821.903	651.707
374.942	27.620	821.635	652.098
375.956	27.558	821.480	651.693
376.971	27.717	820.576	651.488
377.986	27.942	820.665	652.304
379.000	27.960	820.079	651.843
380.015	27.602	819.568	650.104
381.029	27.953	818.690	650.602
382.044	27.813	818.302	649.735
383.059	28.014	817.690	649.906
384.073	27.808	817.290	648.801
385.088	27.852	816.605	648.356
386.102	27.684	815.762	647.033
387.117	27.713	814.832	646.341
388.132	27.245	813.798	643.807
389.146	26.900	812.781	641.726
390.161	27.172	813.446	643.156
391.175	27.680	813.234	644.726
392.190	27.337	811.809	642.331
393.205	25.735	810.050	635.234
394.219	24.434	807.950	628.948
395.234	24.408	808.053	628.884
396.248	25.980	809.480	635.482
397.263	27.472	809.952	641.052
398.278	27.397	809.637	640.481
399.292	27.159	809.154	639.208
400.307	27.236	808.403	638.829
401.321	27.214	808.310	638.619
402.336	27.654	808.171	640.000
403.350	27.975	808.194	641.088
404.365	28.357	807.879	642.120
405.380	28.735	807.640	643.195
406.394	28.764	806.815	642.584
407.409	28.569	806.238	641.386
408.423	28.398	806.687	641.088
409.438	28.641	806.020	641.350
410.453	28.607	805.750	640.959
411.467	28.620	804.626	640.055
412.482	28.559	804.742	639.876
413.496	28.537	804.460	639.520
414.511	28.746	803.532	639.453
415.526	28.688	803.054	638.815
416.540	28.612	802.414	637.983
417.555	28.290	801.960	636.449
418.569	28.412	801.502	636.451
419.584	28.471	800.554	635.849
420.599	28.127	800.395	634.474
421.613	112.058	1286.804	1460.284
422.628	96.717	1357.664	1460.409
