DTS Sentinel unit serial number:	SN413079Multiplexer serial number:	ORYXHardware model number:	OX4-SRSoftware version number:	ORYX F/W v4.00 Oryx Data Collector v3.7.2.0data status	okinstallation	princeton_trtdifferential loss correction	single-endedforward channel	channel 1reverse channel	N/Adate	2019/09/13time	04:58:35forward acquisition time	60.00reverse acquisition time	0.00gamma	496.2192k internal	0.2335k external	0.2335temperature offset calibration	1.0160default loss term (dB/km)	0.3790temperature slope calibration	1.0000multiplexer offset coefficient	1.0000multiplexer slope coefficient	1.0000fibre end	0.00T internal ref (°C)	26.50T ext. ref 1 (°C)	4.05T ext. ref 2 (°C)	20.95length (m)	temperature (°C)	Stokes	anti-Stokes-747.200	-195.531	0.248	-0.002
-746.185	-21.745	0.137	0.084
-745.171	350.542	0.091	0.181
-744.156	800.000	0.070	0.238
-743.142	660.762	-0.071	0.183
-742.127	-200.000	-0.006	0.149
-741.112	-38.677	-0.322	-0.171
-740.098	-195.718	0.117	0.001
-739.083	3.087	0.117	-0.085
-738.069	713.382	0.171	0.455
-737.054	-42.435	-0.348	-0.178
-736.039	20.249	-0.132	0.107
-735.025	400.112	0.100	-0.211
-734.010	-200.000	-0.013	-0.111
-732.996	800.000	0.086	-0.307
-731.981	84.519	-0.183	-0.202
-730.966	-200.000	0.009	0.334
-729.952	265.073	-0.125	-0.218
-728.937	32.911	-0.111	0.097
-727.923	-131.368	-0.211	0.028
-726.908	-27.772	0.050	-0.029
-725.894	-6.377	-0.280	-0.192
-724.879	-200.000	-0.019	-0.181
-723.864	86.918	0.068	-0.075
-722.850	-29.827	-0.053	0.030
-721.835	541.694	-0.084	-0.200
-720.821	-44.994	0.422	0.211
-719.806	5.970	0.085	-0.063
-718.791	-5.106	-0.181	-0.125
-717.777	-200.000	0.025	-0.137
-716.762	-53.470	-0.254	-0.117
-715.748	28.251	-0.293	-0.249
-714.733	173.246	-0.196	0.283
-713.718	-194.417	0.172	-0.001
-712.704	800.000	-0.084	0.276
-711.689	-92.874	0.339	-0.095
-710.675	132.884	-0.162	-0.210
-709.660	3.199	-0.128	-0.093
-708.645	-200.000	0.045	-0.227
-707.631	309.089	0.196	0.367
-706.616	353.508	-0.085	-0.170
-705.602	-45.224	-0.347	0.173
-704.587	62.474	0.128	0.129
-703.572	-19.474	0.401	-0.249
-702.558	3.539	-0.131	-0.096
-701.543	-45.432	-0.342	-0.170
-700.529	-200.000	-0.042	0.203
-699.514	-200.000	0.001	0.024
-698.499	800.000	0.064	-0.179
-697.485	800.000	-0.036	-0.145
-696.470	13.700	-0.202	0.157
-695.456	87.005	-0.198	-0.220
-694.441	33.702	0.322	-0.281
-693.426	434.462	-0.104	0.227
-692.412	-200.000	-0.041	0.205
-691.397	-48.743	0.156	-0.075
-690.383	-2.506	0.334	-0.235
-689.368	-100.246	-0.344	0.086
-688.354	-90.309	0.216	0.063
-687.339	-200.000	0.016	0.265
-686.324	19.714	-0.090	-0.073
-685.310	239.824	0.065	-0.109
-684.295	527.160	0.093	-0.219
-683.281	-137.241	-0.179	-0.020
-682.266	511.417	0.046	-0.108
-681.251	800.000	0.074	-0.298
-680.237	-5.853	-0.107	0.073
-679.222	-0.064	0.122	-0.087
-678.208	-200.000	-0.014	-0.113
-677.193	-200.000	-0.008	0.141
-676.178	286.969	0.099	-0.179
-675.164	-162.693	-0.288	-0.014
-674.149	-102.079	-0.397	-0.096
-673.135	194.901	-0.112	-0.170
-672.120	-200.000	-0.038	-0.223
-671.105	403.025	-0.141	-0.297
-670.091	800.000	-0.015	0.047
-669.076	800.000	-0.063	-0.260
-668.062	-29.745	-0.199	-0.114
-667.047	-200.000	-0.018	-0.190
-666.032	-33.741	0.095	-0.052
-665.018	666.232	0.123	0.318
-664.003	-146.391	-0.067	-0.006
-662.989	-200.000	-0.053	0.430
-661.974	150.548	-0.177	-0.240
-660.959	-200.000	0.003	0.353
-659.945	119.351	0.194	0.241
-658.930	582.678	-0.143	0.351
-657.916	-13.173	-0.505	-0.329
-656.901	-97.918	0.107	-0.028
-655.886	-180.030	0.247	-0.005
-654.872	-92.445	-0.171	0.048
-653.857	341.737	0.150	0.294
-652.843	265.068	0.163	0.284
-651.828	-74.215	-0.175	0.064
-650.814	15.156	-0.215	0.169
-649.799	-200.000	0.024	-0.139
-648.784	-93.917	0.190	0.052
-647.770	16.136	-0.176	-0.139
-646.755	-200.000	-0.022	-0.248
-645.741	-51.507	-0.123	0.057
-644.726	800.000	-0.102	-0.342
-643.711	-151.521	0.178	0.013
-642.697	-66.211	-0.082	-0.033
-641.682	16.424	0.273	0.216
-640.668	33.923	0.197	0.172
-639.653	-200.000	0.024	-0.148
-638.638	-200.000	-0.010	0.051
-637.624	173.230	0.287	0.414
-636.609	-179.549	-0.317	0.007
-635.595	-150.661	-0.090	-0.007
-634.580	332.988	0.100	0.194
-633.565	-56.615	-0.189	-0.084
-632.551	-67.226	-0.214	-0.084
-631.536	166.145	-0.180	0.254
-630.522	-127.062	-0.086	0.013
-629.507	10.532	0.236	-0.180
-628.492	-148.214	0.375	-0.031
-627.478	528.902	0.022	0.052
-626.463	-200.000	-0.080	0.000
-625.449	-111.510	-0.116	-0.024
-624.434	-37.972	0.092	0.049
-623.419	-131.469	-0.449	-0.059
-622.405	-11.516	0.253	0.166
-621.390	-200.000	-0.007	0.045
-620.376	800.000	-0.102	-0.367
-619.361	-84.774	0.199	-0.063
-618.346	746.188	-0.092	-0.247
-617.332	-61.686	-0.140	0.058
-616.317	42.617	0.126	0.114
-615.303	269.446	-0.070	0.123
-614.288	76.312	0.214	0.227
-613.273	736.739	-0.130	-0.348
-612.259	-200.000	-0.514	0.002
-611.244	-200.000	0.033	0.374
-610.230	-116.161	-0.113	-0.021
-609.215	-200.000	-0.015	-0.080
-608.201	-139.040	-0.144	0.016
-607.186	-31.052	0.108	-0.061
-606.171	-165.453	-0.155	0.007
-605.157	-49.923	-0.231	-0.110
-604.142	-72.988	-0.174	0.064
-603.128	-200.000	0.032	-0.227
-602.113	-106.626	0.057	0.013
-601.098	-200.000	-0.015	-0.106
-600.084	268.097	0.080	-0.141
-599.069	-28.108	-0.290	-0.167
-598.055	478.021	0.110	-0.248
-597.040	800.000	-0.045	0.140
-596.025	437.313	-0.086	-0.188
-595.011	-102.626	0.195	-0.046
-593.996	131.648	-0.210	-0.270
-592.982	262.145	-0.256	-0.443
-591.967	-21.311	-0.151	0.092
-590.952	261.914	-0.049	0.086
-589.938	-31.877	-0.110	-0.062
-588.923	44.979	0.106	0.097
-587.909	-200.000	0.015	0.116
-586.894	-80.754	-0.362	0.120
-585.879	464.799	-0.033	0.073
-584.865	54.581	0.276	-0.265
-583.850	-200.000	-0.002	-0.143
-582.836	295.014	-0.296	-0.541
-581.821	-108.238	0.247	0.053
-580.806	-14.631	0.116	0.075
-579.792	-134.585	-0.080	-0.010
-578.777	-78.958	-0.208	-0.071
-577.763	306.581	0.074	-0.137
-576.748	48.352	0.177	0.165
-575.733	265.442	-0.207	0.359
-574.719	-134.920	0.201	-0.024
-573.704	-178.736	-0.041	-0.001
-572.690	-67.544	-0.258	-0.101
-571.675	-23.963	0.097	0.058
-570.661	489.298	-0.112	-0.256
-569.646	414.905	-0.067	-0.143
-568.631	-200.000	0.008	0.545
-567.617	-200.000	-0.063	0.333
-566.602	800.000	0.081	0.348
-565.588	97.520	-0.101	-0.115
-564.573	-200.000	0.017	-0.192
-563.558	182.708	0.259	-0.381
-562.544	-71.497	0.173	-0.065
-561.529	-50.709	0.035	0.017
-560.515	-55.119	0.361	-0.162
-559.500	-64.504	0.176	0.071
-558.485	-147.433	-0.211	0.018
-557.471	79.128	0.257	-0.275
-556.456	506.987	-0.030	0.068
-555.442	121.130	-0.172	0.214
-554.427	345.342	0.049	-0.095
-553.412	-200.000	-0.030	0.293
-552.398	-200.000	0.018	0.213
-551.383	-103.951	0.081	-0.019
-550.369	-17.108	0.074	-0.046
-549.354	-144.044	0.342	-0.032
-548.339	-200.000	-0.052	-0.292
-547.325	51.914	0.177	-0.168
-546.310	-139.501	-0.085	0.009
-545.296	382.100	0.049	0.101
-544.281	282.172	0.159	0.284
-543.266	-72.069	0.370	0.137
-542.252	-107.625	-0.286	-0.062
-541.237	-136.854	-0.101	0.012
-540.223	-200.000	-0.023	-0.153
-539.208	-48.849	-0.279	-0.133
-538.193	133.188	0.152	-0.195
-537.179	68.075	0.244	0.249
-536.164	72.823	-0.163	0.170
-535.150	-93.622	0.097	0.027
-534.135	667.571	-0.073	0.187
-533.121	-108.518	0.061	0.013
-532.106	123.425	-0.181	-0.226
-531.091	548.457	-0.089	-0.213
-530.077	800.000	0.040	-0.156
-529.062	-34.117	-0.320	0.175
-528.048	-200.000	0.000	-0.099
-527.033	108.427	-0.091	-0.108
-526.018	-139.722	0.230	0.024
-525.004	-146.157	0.038	0.003
-523.989	117.201	0.134	-0.164
-522.975	121.594	0.009	-0.011
-521.960	-116.709	-0.156	0.029
-520.945	-147.860	-0.367	-0.030
-519.931	-139.263	0.437	-0.047
-518.916	-101.273	0.190	-0.046
-517.902	24.476	0.129	-0.107
-516.887	243.882	0.054	0.091
-515.872	-200.000	0.070	0.486
-514.858	495.828	-0.096	0.220
-513.843	-170.775	0.283	-0.010
-512.829	311.579	0.034	-0.063
-511.814	319.904	-0.243	-0.460
-510.799	99.820	-0.082	-0.094
-509.785	-200.000	-0.010	0.082
-508.770	800.000	0.038	-0.150
-507.756	-38.491	0.050	-0.026
-506.741	-129.817	0.287	-0.039
-505.726	-111.363	-0.141	-0.029
-504.712	-200.000	0.047	0.256
-503.697	84.399	0.199	-0.216
-502.683	169.949	-0.218	0.311
-501.668	-10.378	0.165	0.109
-500.653	42.239	0.123	0.111
-499.639	545.453	0.107	-0.254
-498.624	52.853	0.171	-0.162
-497.610	352.082	-0.071	0.140
-496.595	665.342	0.100	-0.256
-495.581	305.981	0.098	0.181
-494.566	-200.000	-0.026	-0.176
-493.551	-93.244	0.275	-0.076
-492.537	46.590	-0.157	-0.145
-491.522	800.000	-0.058	-0.181
-490.508	-200.000	0.044	-0.229
-489.493	251.823	-0.167	-0.283
-488.478	181.775	-0.120	-0.176
-487.464	183.818	0.228	-0.336
-486.449	-1.508	-0.360	-0.253
-485.435	-200.000	-0.030	-0.369
-484.420	800.000	-0.046	0.160
-483.405	-200.000	-0.036	0.365
-482.391	-54.774	-0.229	-0.103
-481.376	-191.194	0.286	0.003
-480.362	800.000	0.066	0.273
-479.347	-91.807	0.073	-0.021
-478.332	-84.028	0.253	0.080
-477.318	-200.000	0.036	0.253
-476.303	-200.000	0.010	0.054
-475.289	233.696	-0.080	-0.131
-474.274	-30.655	-0.279	0.157
-473.259	-60.836	-0.173	0.073
-472.245	453.820	-0.110	0.243
-471.230	229.500	0.089	-0.144
-470.216	-200.000	-0.011	-0.240
-469.201	-82.757	0.241	-0.078
-468.186	-41.075	-0.263	0.135
-467.172	131.013	-0.052	0.066
-466.157	110.122	-0.114	0.136
-465.143	-200.000	0.021	-0.109
-464.128	-145.723	-0.473	-0.042
-463.113	800.000	0.055	0.155
-462.099	-200.000	-0.081	-0.457
-461.084	-41.178	-0.306	0.157
-460.070	44.562	-0.086	0.079
-459.055	72.909	-0.081	0.084
-458.040	178.937	-0.053	0.078
-457.026	-33.717	-0.318	0.174
-456.011	-200.000	0.049	-0.340
-454.997	-200.000	-0.003	0.056
-453.982	-154.818	0.096	-0.006
-452.968	-83.286	-0.210	0.067
-451.953	-200.000	0.004	0.076
-450.938	-83.116	0.231	0.074
-449.924	-40.528	0.146	0.075
-448.909	-67.346	0.190	0.074
-447.895	800.000	-0.024	0.103
-446.880	800.000	0.046	0.175
-445.865	-55.128	0.037	-0.016
-444.851	-5.243	0.351	-0.240
-443.836	82.140	0.132	0.142
-442.822	145.524	-0.125	-0.167
-441.807	-60.004	-0.279	0.118
-440.792	428.826	0.137	-0.295
-439.778	-200.000	0.039	-0.266
-438.763	-200.000	0.017	-0.189
-437.749	-200.000	0.024	-0.238
-436.734	-8.000	-0.194	0.130
-435.719	-200.000	-0.002	-0.234
-434.705	102.551	0.283	-0.328
-433.690	692.646	-0.090	-0.235
-432.676	129.848	-0.077	-0.098
-431.661	55.344	-0.114	0.109
-430.646	-14.720	0.079	0.050
-429.632	-41.763	-0.435	-0.221
-428.617	-200.000	-0.001	0.319
-427.603	-200.000	-0.020	0.380
-426.588	78.352	0.176	0.187
-425.573	474.003	0.105	-0.236
-424.559	-200.000	0.051	-0.229
-423.544	800.000	0.069	0.220
-422.530	-89.441	-0.380	0.111
-421.515	260.788	-0.226	-0.387
-420.500	-110.932	-0.217	-0.044
-419.486	-99.705	-0.124	0.031
-418.471	-38.898	-0.153	-0.080
-417.457	15.878	-0.209	-0.163
-416.442	-84.933	-0.404	0.126
-415.428	800.000	0.112	0.310
-414.413	-63.816	0.469	-0.190
-413.398	326.163	-0.209	0.397
-412.384	323.944	0.199	-0.376
-411.369	635.661	0.102	-0.256
-410.355	-152.735	-0.124	0.009
-409.340	233.593	-0.118	0.193
-408.325	-122.961	0.396	0.063
-407.311	-67.448	-0.125	0.049
-406.296	268.329	0.097	0.168
-405.282	199.703	-0.049	0.074
-404.267	190.990	-0.093	-0.139
-403.252	-128.389	-0.071	0.010
-402.238	-63.064	0.197	-0.081
-401.223	-29.121	0.178	0.101
-400.209	8.441	0.028	-0.021
-399.194	-103.033	0.472	0.111
-398.179	209.816	0.079	0.122
-397.165	-86.355	-0.293	-0.089
-396.150	198.118	-0.035	-0.053
-395.136	-147.138	0.445	-0.038
-394.121	-200.000	-0.044	-0.253
-393.106	-17.942	0.113	0.070
-392.092	-36.268	0.139	0.074
-391.077	-106.402	-0.250	-0.055
-390.063	-13.552	-0.237	-0.152
-389.048	161.284	-0.140	0.194
-388.033	-200.000	0.003	-0.036
-387.019	-102.117	0.430	-0.103
-386.004	-24.663	-0.133	-0.078
-384.990	329.868	0.089	0.169
-383.975	-200.000	-0.007	-0.064
-382.960	282.433	0.131	0.233
-381.946	-156.423	-0.142	-0.009
-380.931	-147.147	-0.244	0.021
-379.917	44.171	-0.098	0.089
-378.902	43.934	0.339	0.308
-377.888	39.874	0.118	0.105
-376.873	-200.000	-0.032	-0.319
-375.858	192.324	0.042	0.063
-374.844	-130.515	0.098	-0.013
-373.829	532.877	0.045	0.105
-372.815	248.399	0.077	0.129
-371.800	220.766	-0.175	0.278
-370.785	12.690	0.169	0.129
-369.771	133.775	-0.139	0.178
-368.756	564.820	0.106	0.255
-367.742	658.804	0.084	0.213
-366.727	-65.236	-0.268	-0.107
-365.712	53.505	0.352	-0.334
-364.698	800.000	-0.067	-0.223
-363.683	-40.580	-0.096	-0.049
-362.669	-44.105	0.181	0.090
-361.654	259.098	-0.121	-0.207
-360.639	-57.227	0.089	-0.039
-359.625	-133.001	0.469	0.059
-358.610	35.632	-0.220	0.191
-357.596	-200.000	-0.066	0.421
-356.581	-0.199	0.157	0.111
-355.566	-62.471	-0.103	0.042
-354.552	-97.324	0.129	-0.033
-353.537	421.205	-0.088	0.188
-352.523	800.000	-0.128	0.351
-351.508	-110.549	0.243	0.050
-350.493	345.634	-0.080	-0.155
-349.479	-65.006	-0.061	0.024
-348.464	0.873	0.090	0.064
-347.450	25.109	0.327	0.268
-346.435	431.185	0.085	0.183
-345.420	-132.258	0.395	0.051
-344.406	127.321	-0.070	0.087
-343.391	142.270	-0.075	-0.099
-342.377	800.000	0.098	0.392
-341.362	-99.928	0.781	-0.193
-340.348	88.883	-0.221	-0.243
-339.333	800.000	-0.044	0.121
-338.318	245.997	-0.213	-0.356
-337.304	-149.081	0.213	0.017
-336.289	-19.513	0.019	-0.012
-335.275	-200.000	0.021	-0.111
-334.260	-200.000	0.028	-0.398
-333.245	-17.228	-0.405	0.252
-332.231	-66.554	-0.245	0.096
-331.216	-200.000	-0.017	0.323
-330.202	-55.240	-0.162	0.072
-329.187	69.579	-0.205	-0.209
-328.172	-12.049	-0.340	-0.220
-327.158	800.000	0.056	-0.164
-326.143	-116.970	0.501	0.091
-325.129	369.726	0.163	-0.326
-324.114	-62.112	-0.189	-0.078
-323.099	-119.761	0.100	0.017
-322.085	363.865	-0.099	0.196
-321.070	-83.759	0.194	-0.061
-320.056	259.350	-0.158	-0.270
-319.041	259.327	0.100	0.171
-318.026	-149.269	0.089	-0.007
-317.012	113.027	0.118	0.141
-315.997	-74.923	0.313	-0.111
-314.983	67.994	-0.145	0.146
-313.968	-121.214	-0.351	0.058
-312.953	169.019	-0.105	-0.148
-311.939	800.000	0.055	0.235
-310.924	-63.678	-0.260	-0.105
-309.910	408.770	-0.164	-0.343
-308.895	149.046	0.399	0.534
-307.880	8.011	0.241	0.179
-306.866	95.651	-0.115	0.130
-305.851	-200.000	0.004	-0.265
-304.837	-53.358	0.222	0.100
-303.822	94.919	-0.314	0.353
-302.807	633.990	-0.089	0.223
-301.793	-200.000	-0.022	-0.206
-300.778	-82.132	-0.172	0.055
-299.764	-95.804	-0.095	0.025
-298.749	0.625	-0.310	-0.219
-297.735	-200.000	0.208	0.001
-296.720	800.000	0.091	0.278
-295.705	800.000	-0.017	-0.063
-294.691	73.061	0.133	-0.137
-293.676	-134.830	0.221	-0.026
-292.662	238.395	-0.266	0.436
-291.647	25.149	0.121	-0.099
-290.632	65.336	0.236	-0.236
-289.618	800.000	-0.076	0.249
-288.603	-200.000	-0.029	-0.180
-287.589	-200.000	-0.023	0.164
-286.574	-170.097	-0.154	-0.005
-285.559	-49.162	-0.184	0.087
-284.545	-48.917	-0.200	0.094
-283.530	45.857	0.079	-0.072
-282.516	24.930	-0.158	-0.130
-281.501	3.039	-0.109	0.078
-280.486	6.312	-0.204	0.150
-279.472	-103.255	-0.044	-0.010
-278.457	239.393	0.205	0.337
-277.443	800.000	0.085	0.245
-276.428	-99.837	-0.217	-0.054
-275.413	206.055	-0.227	0.349
-274.399	-76.274	0.091	0.032
-273.384	-36.646	-0.060	-0.032
-272.370	95.914	-0.112	0.126
-271.355	-65.417	0.383	0.152
-270.340	-200.000	-0.067	0.302
-269.326	-200.000	0.019	0.253
-268.311	800.000	0.026	0.105
-267.297	63.807	-0.047	-0.046
-266.282	503.856	0.015	0.035
-265.267	-8.895	0.257	-0.170
-264.253	89.911	0.228	-0.251
-263.238	50.733	0.084	-0.078
-262.224	800.000	0.034	0.120
-261.209	272.328	0.076	-0.132
-260.195	-0.084	0.104	-0.073
-259.180	-200.000	0.022	-0.313
-258.165	-57.267	0.312	0.135
-257.151	86.974	0.073	-0.079
-256.136	110.809	-0.037	0.044
-255.122	800.000	-0.080	0.272
-254.107	-114.279	0.064	-0.012
-253.092	767.516	-0.055	-0.147
-252.078	331.310	0.107	0.204
-251.063	-200.000	0.008	-0.186
-250.049	-200.000	0.015	-0.078
-249.034	-9.360	0.189	0.124
-248.019	-198.728	-0.316	0.002
-247.005	521.902	-0.115	0.265
-245.990	-161.350	0.129	-0.007
-244.976	-200.000	0.021	0.089
-243.961	368.283	0.114	-0.227
-242.946	-62.897	-0.154	0.063
-241.932	24.681	0.164	-0.134
-240.917	121.255	-0.130	-0.159
-239.903	800.000	0.128	0.419
-238.888	-116.472	-0.151	-0.028
-237.873	-200.000	0.036	-0.260
-236.859	-115.764	-0.106	0.020
-235.844	292.180	-0.285	0.512
-234.830	63.469	-0.144	0.142
-233.815	-200.000	-0.026	0.317
-232.800	21.106	-0.314	0.251
-231.786	800.000	0.058	-0.167
-230.771	233.706	0.243	-0.394
-229.757	800.000	0.039	-0.116
-228.742	624.914	0.025	0.063
-227.727	-52.018	-0.249	0.114
-226.713	71.060	0.137	0.140
-225.698	-109.673	-0.225	0.047
-224.684	63.817	0.049	-0.048
-223.669	-94.818	-0.142	0.038
-222.655	-118.166	-0.279	-0.049
-221.640	-200.000	-0.037	0.228
-220.625	-46.821	0.291	0.140
-219.611	-120.011	-0.269	-0.045
-218.596	-3.219	-0.019	-0.013
-217.582	107.660	-0.035	0.041
-216.567	-110.104	-0.076	0.016
-215.552	-200.000	0.003	-0.045
-214.538	-200.000	-0.027	-0.279
-213.523	296.837	-0.040	-0.073
-212.509	-200.000	0.051	-0.272
-211.494	-42.110	0.277	0.139
-210.479	363.510	0.148	-0.293
-209.465	-200.000	-0.005	-0.113
-208.450	339.421	-0.146	-0.280
-207.436	145.669	0.126	0.167
-206.421	800.000	-0.061	-0.179
-205.406	800.000	-0.095	-0.294
-204.392	763.726	-0.055	0.148
-203.377	-109.855	0.146	0.030
-202.363	28.252	0.182	0.151
-201.348	-68.065	-0.327	0.125
-200.333	12.871	0.111	-0.084
-199.319	-154.473	-0.186	-0.012
-198.304	-109.734	0.189	0.039
-197.290	-186.781	-0.305	-0.004
-196.275	-200.000	0.004	0.096
-195.260	-123.140	-0.257	-0.040
-194.246	-195.941	0.036	0.000
-193.231	-123.503	-0.316	0.049
-192.217	-57.635	0.243	0.105
-191.202	800.000	-0.033	-0.128
-190.187	390.635	0.144	-0.293
-189.173	-25.473	-0.223	0.130
-188.158	-200.000	0.053	0.283
-187.144	113.259	-0.303	-0.362
-186.129	-13.084	0.254	0.162
-185.114	-200.000	-0.047	0.239
-184.100	118.397	-0.211	-0.256
-183.085	-200.000	-0.027	0.159
-182.071	-77.872	0.169	0.057
-181.056	283.959	0.061	-0.108
-180.042	-66.048	0.642	-0.252
-179.027	-200.000	0.034	-0.171
-178.012	-9.687	0.378	-0.248
-176.998	70.870	-0.021	0.022
-175.983	206.801	-0.086	-0.132
-174.969	-200.000	0.068	0.311
-173.954	-16.540	0.286	0.178
-172.939	565.668	-0.048	0.115
-171.925	-54.007	-0.229	-0.102
-170.910	71.622	-0.174	-0.178
-169.896	100.568	-0.116	0.133
-168.881	-108.213	0.283	-0.060
-167.866	-200.000	-0.053	0.238
-166.852	71.982	0.091	-0.093
-165.837	-165.583	0.488	-0.021
-164.823	-158.217	-0.156	-0.009
-163.808	-101.724	-0.225	0.054
-162.793	316.234	0.119	0.221
-161.779	-177.140	-0.202	-0.005
-160.764	-200.000	0.035	-0.252
-159.750	-136.739	0.351	-0.040
-158.735	214.356	-0.201	-0.312
-157.720	48.637	0.223	0.205
-156.706	-148.218	0.200	-0.016
-155.691	800.000	-0.044	0.176
-154.677	135.072	-0.098	-0.125
-153.662	800.000	0.017	-0.049
-152.647	-200.000	-0.008	-0.185
-151.633	189.764	-0.106	0.156
-150.618	-0.022	0.296	-0.207
-149.604	-152.681	-0.341	-0.024
-148.589	271.889	-0.067	0.116
-147.574	479.794	-0.051	-0.113
-146.560	-49.200	0.100	0.047
-145.545	-142.796	0.123	-0.012
-144.531	297.439	0.022	0.039
-143.516	-200.000	0.028	-0.132
-142.502	88.652	0.222	0.242
-141.487	-55.309	-0.228	0.100
-140.472	-47.255	-0.208	0.100
-139.458	-37.696	0.071	0.037
-138.443	94.258	-0.320	-0.356
-137.429	-20.590	0.188	-0.113
-136.414	343.445	0.134	0.258
-135.399	-56.830	0.124	-0.054
-134.385	-164.277	0.279	0.013
-133.370	-176.827	-0.237	0.006
-132.356	-146.205	0.373	0.032
-131.341	-85.972	-0.122	0.037
-130.326	-200.000	0.027	0.307
-129.312	-163.216	0.354	-0.017
-128.297	-200.000	0.045	-0.317
-127.283	307.613	-0.145	0.266
-126.268	132.604	0.139	-0.176
-125.253	74.908	0.149	0.154
-124.239	-43.361	0.216	-0.107
-123.224	-85.912	-0.070	-0.021
-122.210	112.736	0.138	0.164
-121.195	-115.546	-0.169	-0.031
-120.180	208.425	0.056	-0.086
-119.166	-26.347	-0.233	0.134
-118.151	-200.000	-0.006	-0.051
-117.137	-107.502	0.096	-0.021
-116.122	195.521	-0.052	0.078
-115.107	13.246	0.099	0.075
-114.093	29.349	0.111	0.093
-113.078	139.871	0.142	-0.184
-112.064	-200.000	-0.011	-0.188
-111.049	379.525	0.076	0.152
-110.034	-72.803	0.312	-0.113
-109.020	-200.000	-0.023	-0.216
-108.005	170.558	0.152	0.213
-106.991	-200.000	-0.020	-0.121
-105.976	-113.387	-0.291	-0.056
-104.962	-74.752	-0.069	0.024
-103.947	-134.475	0.343	0.041
-102.932	403.839	0.166	0.342
-101.918	800.000	-0.062	0.184
-100.903	800.000	-0.144	0.417
-99.889	34.012	0.126	0.107
-98.874	795.193	-0.093	-0.252
-97.859	-61.845	-0.163	0.067
-96.845	17.425	0.178	0.138
-95.830	800.000	-0.106	0.342
-94.816	175.930	0.183	-0.260
-93.801	82.530	0.180	0.191
-92.786	-15.659	-0.383	0.239
-91.772	-140.943	0.050	0.005
-90.757	-113.078	0.384	0.074
-89.743	-38.787	-0.105	0.054
-88.728	62.568	0.317	-0.310
-87.713	92.199	0.236	0.260
-86.699	8.161	-0.324	0.238
-85.684	169.210	0.211	-0.295
-84.670	-59.806	-0.120	-0.050
-83.655	-200.000	0.010	0.209
-82.640	16.165	0.016	0.012
-81.626	371.782	0.036	0.071
-80.611	-64.002	0.130	0.052
-79.597	-98.122	-0.184	-0.046
-78.582	-95.994	0.413	-0.108
-77.567	299.186	0.074	0.133
-76.553	144.844	0.156	0.204
-75.538	-200.000	0.009	0.191
-74.524	800.000	-0.045	-0.146
-73.509	-200.000	0.041	0.177
-72.494	-200.000	0.057	-0.308
-71.480	-151.278	-0.079	0.006
-70.465	800.000	-0.049	-0.198
-69.451	-48.543	0.219	0.103
-68.436	15.405	-0.162	0.124
-67.422	504.235	-0.127	0.288
-66.407	274.240	0.201	0.348
-65.392	147.754	0.052	0.069
-64.378	407.161	-0.159	-0.330
-63.363	-105.850	0.298	-0.066
-62.349	117.063	-0.177	0.213
-61.334	73.867	-1.159	-1.189
-60.319	6.380	0.657	0.477
-59.305	-200.000	-0.247	-1.202
-58.290	230.248	0.678	1.085
-57.276	800.000	0.361	1.272
-56.261	-200.000	117.014	655.237
-55.246	508.069	1543.465	3504.414
-54.232	175.620	2710.180	3843.650
-53.217	106.575	2148.541	2492.042
-52.203	38.194	1584.801	1379.498
-51.188	29.867	1328.334	1106.664
-50.173	26.932	1289.856	1057.490
-49.159	53.324	1348.300	1263.456
-48.144	51.537	1361.627	1265.265
-47.130	29.946	1316.221	1096.867
-46.115	26.599	1297.387	1061.544
-45.100	26.419	1292.390	1056.365
-44.086	26.329	1289.812	1053.687
-43.071	26.336	1287.405	1051.722
-42.057	26.276	1285.405	1049.694
-41.042	26.467	1283.781	1049.435
-40.027	26.332	1282.472	1047.544
-39.013	26.342	1280.411	1045.875
-37.998	26.397	1278.418	1044.523
-36.984	26.379	1277.145	1043.342
-35.969	26.503	1275.115	1042.351
-34.954	26.498	1273.333	1040.827
-33.940	26.538	1272.041	1039.958
-32.925	26.575	1270.750	1039.072
-31.911	26.656	1269.237	1038.262
-30.896	26.460	1268.269	1036.302
-29.881	26.598	1266.669	1035.744
-28.867	26.746	1264.834	1035.052
-27.852	26.632	1263.613	1033.357
-26.838	26.667	1262.198	1032.362
-25.823	26.590	1261.255	1031.110
-24.809	26.521	1259.695	1029.400
-23.794	26.637	1258.117	1028.731
-22.779	26.549	1257.454	1027.645
-21.765	26.632	1255.221	1026.252
-20.750	26.580	1254.775	1025.550
-19.736	26.510	1253.593	1024.149
-18.721	26.476	1252.631	1023.127
-17.706	26.514	1250.986	1021.961
-16.692	26.491	1250.109	1021.073
-15.677	26.417	1248.882	1019.612
-14.663	26.554	1247.307	1019.059
-13.648	26.410	1246.579	1017.610
-12.633	26.432	1245.974	1017.202
-11.619	26.484	1244.885	1016.567
-10.604	26.486	1244.073	1015.875
-9.590	26.502	1242.970	1015.020
-8.575	26.437	1241.996	1013.820
-7.560	26.336	1241.858	1013.100
-6.546	26.370	1240.923	1012.488
-5.531	26.317	1240.237	1011.592
-4.517	26.477	1238.528	1011.056
-3.502	26.509	1237.958	1010.730
-2.487	26.528	1236.582	1009.671
-1.473	26.467	1232.593	1006.031
-0.458	24.886	1217.795	985.225
0.556	22.989	1201.281	947.868
1.571	19.020	1207.839	931.508
2.586	18.175	1222.228	937.891
3.600	18.042	1210.742	928.273
4.615	14.030	1140.175	853.526
5.629	7.244	1069.819	767.990
6.644	4.277	1052.360	741.229
7.659	4.151	1049.655	738.659
8.673	3.883	1048.851	736.748
9.688	3.880	1047.363	735.627
10.702	4.185	1045.792	735.906
11.717	8.804	1050.925	761.448
12.731	16.477	1062.232	806.303
13.746	21.319	1068.238	833.955
14.761	22.376	1068.914	839.455
15.775	21.695	1067.512	835.037
16.790	20.655	1065.500	828.437
17.804	20.131	1064.307	824.944
18.819	19.861	1063.129	822.675
19.834	19.841	1062.931	822.353
20.848	19.877	1062.087	821.796
21.863	19.667	1061.246	820.078
22.877	19.590	1060.331	818.933
23.892	19.564	1059.505	818.098
24.907	19.568	1058.262	817.086
25.921	19.272	1058.266	815.619
26.936	19.359	1056.963	814.951
27.950	19.336	1055.418	813.580
28.965	19.407	1054.458	813.102
29.980	19.762	1052.635	813.295
30.994	19.688	1052.098	812.459
32.009	19.797	1051.169	812.184
33.023	19.746	1049.498	810.580
34.038	19.580	1048.846	809.226
35.053	19.415	1047.852	807.618
36.067	19.493	1047.124	807.351
37.082	19.559	1046.282	806.935
38.096	19.674	1045.472	806.776
39.111	19.699	1045.418	806.781
40.126	19.533	1043.548	804.493
41.140	19.157	1041.996	801.477
42.155	19.026	1040.805	799.880
43.169	18.941	1039.435	798.361
44.184	18.892	1038.801	797.579
45.199	18.963	1037.890	797.135
46.213	19.227	1036.735	797.398
47.228	19.332	1036.308	797.486
48.242	19.528	1035.299	797.546
49.257	19.501	1034.266	796.554
50.271	19.572	1034.057	796.651
51.286	19.594	1032.850	795.750
52.301	19.465	1031.980	794.416
53.315	19.329	1030.722	792.752
54.330	19.252	1029.860	791.664
55.344	19.228	1029.051	790.864
56.359	19.203	1028.098	789.948
57.374	19.217	1026.766	788.917
58.388	19.021	1026.113	787.452
59.403	19.176	1024.828	787.102
60.417	18.909	1024.794	785.784
61.432	19.013	1023.686	785.343
62.447	18.936	1022.487	783.999
63.461	18.798	1022.436	783.262
64.476	18.720	1021.330	781.993
65.490	18.880	1020.197	781.782
66.505	18.910	1019.078	780.994
67.520	18.812	1019.253	780.613
68.534	18.902	1018.386	780.288
69.549	18.810	1017.218	778.906
70.563	18.674	1016.769	777.875
71.578	18.557	1015.843	776.569
72.593	18.373	1014.935	774.976
73.607	18.388	1014.557	774.687
74.622	18.488	1013.702	774.417
75.636	18.617	1013.135	774.498
76.651	18.644	1012.694	774.214
77.666	18.604	1011.948	773.393
78.680	18.651	1011.356	773.085
79.695	18.677	1010.806	772.712
80.709	18.909	1010.407	773.381
81.724	18.984	1009.625	773.056
82.739	19.111	1008.730	772.872
83.753	19.383	1009.074	774.287
84.768	19.706	1007.873	774.745
85.782	20.014	1007.374	775.672
86.797	19.783	1006.068	773.564
87.812	19.597	1005.470	772.206
88.826	19.654	1004.327	771.515
89.841	19.754	1003.477	771.239
90.855	19.800	1003.181	771.148
91.870	19.750	1002.377	770.240
92.884	19.840	1000.990	769.505
93.899	19.855	999.705	768.515
94.914	19.813	999.490	768.096
95.928	19.843	998.476	767.382
96.943	19.629	997.125	765.328
97.957	19.593	996.640	764.728
98.972	19.787	995.422	764.585
99.987	19.704	995.071	763.881
101.001	19.660	993.542	762.446
102.016	19.438	993.457	761.331
103.030	19.790	992.040	761.729
104.045	19.901	991.139	761.460
105.060	19.586	990.414	759.450
106.074	19.293	989.354	757.283
107.089	18.991	988.097	754.927
108.103	18.941	986.908	753.734
109.118	18.830	986.018	752.503
110.133	18.727	985.234	751.383
111.147	18.850	984.209	751.075
112.162	18.858	983.539	750.531
113.176	19.026	983.036	750.816
114.191	19.090	982.752	750.809
115.206	19.129	981.294	749.800
116.220	18.946	980.819	748.574
117.235	18.979	980.010	748.036
118.249	18.983	978.943	747.173
119.264	18.704	978.389	745.473
120.279	18.748	977.162	744.659
121.293	18.655	976.429	743.633
122.308	18.447	975.862	742.235
123.322	18.380	974.691	740.989
124.337	18.528	973.664	740.782
125.352	18.580	972.439	740.010
126.366	18.585	971.554	739.292
127.381	18.550	970.401	738.200
128.395	18.606	970.069	738.120
129.410	18.622	969.044	737.344
130.424	18.898	968.277	737.881
131.439	19.058	967.618	738.001
132.454	19.076	966.778	737.371
133.468	19.061	966.188	736.793
134.483	18.995	965.228	735.713
135.497	19.003	964.215	734.911
136.512	19.100	963.724	734.884
137.527	19.148	962.404	734.019
138.541	19.153	962.081	733.729
139.556	19.201	961.430	733.371
140.570	19.438	961.173	734.118
141.585	19.600	960.660	734.351
142.600	19.611	959.793	733.667
143.614	19.709	959.156	733.533
144.629	19.645	958.454	732.659
145.643	19.831	957.073	732.326
146.658	19.435	956.295	729.993
147.673	19.286	955.128	728.408
148.687	19.207	954.057	727.193
149.702	19.157	952.873	726.015
150.716	19.106	951.984	725.055
151.731	19.182	951.379	724.851
152.746	19.200	950.984	724.563
153.760	19.256	950.323	724.230
154.775	19.392	949.746	724.298
155.789	19.402	949.427	724.033
156.804	19.476	948.429	723.517
157.819	19.479	948.063	723.187
158.833	19.764	947.323	723.750
159.848	19.854	946.434	723.385
160.862	19.659	945.537	721.821
161.877	19.251	943.387	718.417
162.892	19.091	942.997	717.386
163.906	19.067	941.736	716.264
164.921	19.047	941.486	715.927
165.935	19.270	940.416	715.978
166.950	19.234	939.656	715.185
167.964	19.228	938.732	714.396
168.979	19.165	937.686	713.274
169.994	19.281	936.777	712.999
171.008	19.211	936.332	712.311
172.023	19.704	935.579	713.709
173.037	19.688	935.281	713.352
174.052	19.457	934.018	711.374
175.067	19.318	933.193	710.111
176.081	19.103	932.597	708.708
177.096	19.108	931.778	708.043
178.110	19.149	931.208	707.715
179.125	19.249	930.916	707.842
180.140	19.344	930.569	707.906
181.154	19.367	930.794	708.109
182.169	19.568	930.094	708.337
183.183	19.581	929.598	707.950
184.198	19.637	928.564	707.332
185.213	19.632	927.919	706.755
186.227	19.595	927.415	706.161
187.242	19.784	926.755	706.367
188.256	20.105	926.129	707.138
189.271	19.961	925.355	705.894
190.286	19.515	924.436	703.314
191.300	18.903	923.296	699.895
192.315	18.938	922.672	699.504
193.329	19.034	922.337	699.576
194.344	19.230	921.355	699.566
195.359	19.330	921.171	699.769
196.373	19.460	920.590	699.793
197.388	19.766	920.187	700.668
198.402	20.019	919.760	701.306
199.417	20.110	919.411	701.344
200.432	20.237	918.998	701.481
201.446	20.185	918.793	701.051
202.461	20.265	918.190	700.851
203.475	20.106	917.284	699.458
204.490	19.900	916.406	697.896
205.504	19.736	915.626	696.580
206.519	19.646	914.856	695.569
207.534	19.704	914.203	695.245
208.548	19.755	913.272	694.679
209.563	19.829	912.562	694.377
210.577	19.772	912.354	693.926
211.592	19.971	911.837	694.269
212.607	20.095	911.056	694.110
213.621	20.095	910.126	693.340
214.636	19.978	909.428	692.279
215.650	19.998	909.047	692.008
216.665	20.258	908.281	692.401
217.680	20.244	907.872	691.972
218.694	20.351	906.885	691.587
219.709	20.313	906.060	690.744
220.723	20.117	905.737	689.659
221.738	20.156	904.538	688.838
222.753	20.018	904.342	688.081
223.767	20.205	903.881	688.410
224.782	20.343	903.582	688.671
225.796	20.380	903.349	688.580
226.811	20.257	902.123	687.095
227.826	19.984	901.466	685.452
228.840	19.942	900.850	684.758
229.855	20.086	899.585	684.307
230.869	20.012	898.709	683.288
231.884	19.876	898.557	682.575
232.899	19.782	897.439	681.294
233.913	19.806	896.685	680.754
234.928	19.750	895.803	679.806
235.942	19.676	895.437	679.176
236.957	19.828	894.636	679.106
237.972	19.638	894.711	678.356
238.986	19.607	894.135	677.737
240.001	19.832	893.081	677.762
241.015	19.987	892.609	677.952
242.030	20.033	892.323	677.853
243.045	20.027	891.804	677.375
244.059	19.987	891.096	676.622
245.074	19.964	890.770	676.225
246.088	20.199	890.105	676.575
247.103	20.438	889.989	677.359
248.117	20.671	889.307	677.690
249.132	20.706	889.353	677.800
250.147	21.119	888.298	678.544
251.161	21.090	888.369	678.426
252.176	21.131	887.602	677.940
253.190	21.205	886.716	677.489
254.205	21.230	886.088	677.046
255.220	21.199	885.503	676.419
256.234	21.235	884.453	675.694
257.249	21.105	884.118	674.878
258.263	20.956	883.369	673.669
259.278	21.072	882.658	673.514
260.293	21.342	881.969	673.972
261.307	21.401	881.642	673.892
262.322	21.436	880.948	673.435
263.336	21.382	879.917	672.378
264.351	21.300	879.643	671.797
265.366	21.358	878.988	671.457
266.380	21.219	878.580	670.552
267.395	21.105	877.699	669.384
268.409	20.995	876.877	668.278
269.424	21.023	876.219	667.822
270.439	20.950	875.480	666.922
271.453	20.825	875.062	666.065
272.468	20.645	874.617	664.979
273.482	20.842	873.923	665.147
274.497	20.843	873.392	664.688
275.512	20.863	872.737	664.206
276.526	20.854	872.221	663.719
277.541	20.990	871.662	663.754
278.555	21.095	871.448	663.931
279.570	21.436	870.507	664.454
280.585	21.242	869.964	663.241
281.599	20.994	869.186	661.648
282.614	20.880	868.424	660.577
283.628	21.000	867.638	660.375
284.643	20.938	867.195	659.745
285.657	21.043	866.388	659.470
286.672	21.043	865.778	658.948
287.687	21.030	865.179	658.385
288.701	21.226	864.359	658.444
289.716	21.119	864.342	657.969
290.730	21.127	863.389	657.216
291.745	20.995	863.314	656.602
292.760	21.274	862.636	657.079
293.774	21.566	862.059	657.679
294.789	21.391	861.294	656.379
295.803	21.101	860.502	654.630
296.818	21.037	859.838	653.825
297.833	21.102	859.402	653.681
298.847	21.111	858.768	653.175
299.862	21.203	858.180	653.015
300.876	21.346	857.702	653.126
301.891	21.582	857.209	653.574
302.906	21.517	856.977	653.097
303.920	21.719	856.780	653.643
304.935	21.958	855.846	653.763
305.949	21.659	855.092	652.015
306.964	21.453	854.291	650.580
307.979	21.588	853.752	650.615
308.993	21.674	853.321	650.549
310.008	21.607	852.760	649.812
311.022	21.400	852.226	648.582
312.037	21.300	851.669	647.732
313.052	21.143	850.847	646.467
314.066	21.090	850.248	645.758
315.081	20.943	849.737	644.770
316.095	21.097	849.151	644.835
317.110	21.068	848.545	644.213
318.125	21.094	847.698	643.606
319.139	21.064	847.425	643.231
320.154	21.049	846.947	642.758
321.168	21.247	846.691	643.235
322.183	21.134	846.375	642.523
323.197	21.262	845.450	642.236
324.212	21.279	845.037	641.925
325.227	21.174	844.264	640.898
326.241	21.141	843.835	640.394
327.256	21.127	842.886	639.565
328.270	21.063	842.495	638.979
329.285	21.085	841.928	638.572
330.300	21.036	841.389	637.926
331.314	21.078	841.227	637.902
332.329	21.414	840.787	638.737
333.343	21.515	840.150	638.567
334.358	21.415	840.227	638.203
335.373	21.629	839.527	638.398
336.387	21.727	839.209	638.455
337.402	21.546	839.487	637.950
338.416	21.812	838.772	638.317
339.431	21.981	838.477	638.654
340.446	21.970	838.351	638.459
341.460	22.102	838.087	638.681
342.475	22.195	837.677	638.651
343.489	22.307	836.933	638.433
344.504	22.252	836.704	638.003
345.519	22.330	836.153	637.811
346.533	22.324	835.045	636.887
347.548	21.839	834.990	635.030
348.562	21.736	834.106	633.933
349.577	21.712	832.998	632.946
350.592	21.692	832.018	632.074
351.606	21.594	831.994	631.646
352.621	21.552	831.114	630.770
353.635	21.697	830.739	630.951
354.650	21.538	830.624	630.235
355.665	21.818	829.593	630.407
356.679	21.905	829.102	630.289
357.694	21.929	828.431	629.809
358.708	21.704	828.070	628.670
359.723	21.775	827.362	628.333
360.738	21.801	826.681	627.855
361.752	21.932	826.134	627.850
362.767	22.189	825.710	628.392
363.781	22.367	825.368	628.713
364.796	22.414	824.933	628.493
365.810	22.489	824.864	628.653
366.825	22.553	824.356	628.440
367.840	22.495	823.557	627.568
368.854	22.425	822.567	626.508
369.869	22.427	822.435	626.359
370.883	22.267	822.076	625.462
371.898	22.361	822.179	625.817
372.913	22.428	821.859	625.756
373.927	22.392	820.930	624.868
374.942	22.452	820.444	624.656
375.956	22.586	820.288	624.958
376.971	22.728	819.778	625.015
377.986	22.824	819.136	624.810
379.000	22.668	818.879	624.006
380.015	22.757	818.130	623.694
381.029	22.693	817.774	623.143
382.044	22.854	817.172	623.199
383.059	22.758	816.379	622.198
384.073	22.583	815.608	620.939
385.088	22.352	815.451	619.953
386.102	22.333	814.195	618.876
387.117	22.282	813.768	618.315
388.132	22.263	813.065	617.660
389.146	22.332	812.801	617.648
390.161	22.668	812.444	618.499
391.175	22.700	811.993	618.216
392.190	22.388	811.568	616.744
393.205	22.291	810.855	615.806
394.219	22.173	810.530	615.091
395.234	22.154	810.091	614.638
396.248	22.045	809.411	613.688
397.263	22.013	808.795	613.054
398.278	21.922	808.740	612.640
399.292	21.997	808.218	612.454
400.307	22.071	807.549	612.149
401.321	22.127	807.105	611.955
402.336	22.348	806.731	612.385
403.350	22.467	806.747	612.758
404.365	22.693	805.986	612.911
405.380	22.758	805.970	613.069
406.394	22.896	805.296	612.981
407.409	22.989	804.816	612.887
408.423	22.950	804.733	612.633
409.438	23.194	804.113	612.952
410.453	23.108	803.984	612.501
411.467	23.141	803.608	612.275
412.482	23.340	802.973	612.425
413.496	23.279	802.703	611.954
414.511	23.016	802.488	610.827
415.526	23.309	801.818	611.274
416.540	23.022	801.563	610.037
417.555	23.103	800.760	609.650
418.569	23.011	800.417	609.019
419.584	23.091	800.031	608.946
420.599	23.195	799.189	608.609
421.613	165.655	1371.304	1798.360
422.628	143.944	1454.644	1798.443
