DTS Sentinel unit serial number:	SN413079Multiplexer serial number:	ORYXHardware model number:	OX4-SRSoftware version number:	ORYX F/W v4.00 Oryx Data Collector v3.7.2.0data status	okinstallation	princeton_trtdifferential loss correction	single-endedforward channel	channel 1reverse channel	N/Adate	2019/09/15time	23:50:35forward acquisition time	60.00reverse acquisition time	0.00gamma	496.2192k internal	0.2332k external	0.2332temperature offset calibration	0.9973default loss term (dB/km)	0.3790temperature slope calibration	1.0000multiplexer offset coefficient	1.0000multiplexer slope coefficient	1.0000fibre end	0.00T internal ref (°C)	27.94T ext. ref 1 (°C)	9.30T ext. ref 2 (°C)	21.70length (m)	temperature (°C)	Stokes	anti-Stokes-747.200	-13.879	0.444	0.289
-746.185	-43.729	-0.295	0.149
-745.171	533.505	-0.018	-0.042
-744.156	-151.925	-0.190	-0.014
-743.142	192.687	0.196	-0.298
-742.127	-121.333	-0.342	0.057
-741.112	-139.204	0.141	-0.015
-740.098	-200.000	0.009	0.510
-739.083	107.948	0.344	0.413
-738.069	-90.552	0.090	0.026
-737.054	-98.843	-0.221	-0.057
-736.039	-200.000	0.058	-0.351
-735.025	-86.444	0.306	0.094
-734.010	203.299	-0.147	-0.228
-732.996	-200.000	-0.062	-0.413
-731.981	103.263	-0.142	-0.167
-730.966	505.811	-0.159	0.370
-729.952	25.551	-0.207	-0.174
-728.937	572.209	0.123	-0.300
-727.923	8.123	-0.277	-0.209
-726.908	-113.821	0.384	-0.075
-725.894	-64.277	0.241	-0.099
-724.879	-200.000	-0.020	0.391
-723.864	71.323	-0.129	0.135
-722.850	-92.014	-0.126	-0.036
-721.835	304.976	0.113	0.210
-720.821	-119.630	-0.247	-0.043
-719.806	121.475	-0.199	0.249
-718.791	-200.000	0.001	-0.404
-717.777	-200.000	-0.000	-0.108
-716.762	-60.890	0.092	-0.039
-715.748	-18.928	-0.337	0.211
-714.733	201.528	0.228	0.353
-713.718	-200.000	0.026	0.261
-712.704	376.716	0.106	-0.218
-711.689	-28.173	-0.291	0.169
-710.675	800.000	-0.066	-0.256
-709.660	288.414	-0.045	-0.082
-708.645	-118.216	-0.079	0.014
-707.631	14.844	-0.088	0.069
-706.616	800.000	-0.074	-0.216
-705.602	202.535	0.174	-0.269
-704.587	-104.601	-0.357	0.083
-703.572	49.433	-0.109	-0.103
-702.558	12.500	-0.066	0.051
-701.543	133.216	-0.144	-0.187
-700.529	50.050	0.126	-0.120
-699.514	165.594	-0.286	0.406
-698.499	800.000	0.013	0.058
-697.485	-81.024	0.269	0.090
-696.470	-200.000	0.011	-0.204
-695.456	-2.143	0.185	-0.130
-694.441	-30.758	0.168	-0.095
-693.426	179.191	0.085	0.124
-692.412	-37.859	0.295	-0.158
-691.397	131.904	0.096	0.124
-690.383	17.988	-0.227	-0.182
-689.368	-200.000	-0.005	0.145
-688.354	-124.324	-0.367	-0.057
-687.339	-82.725	0.209	-0.068
-686.324	100.842	-0.298	-0.348
-685.310	5.623	-0.109	0.081
-684.295	100.714	0.297	-0.346
-683.281	-200.000	-0.011	0.272
-682.266	-200.000	-0.003	-0.283
-681.251	-125.532	-0.354	-0.054
-680.237	282.182	-0.140	0.251
-679.222	26.462	0.273	-0.229
-678.208	-200.000	0.078	-0.503
-677.193	91.619	-0.148	-0.167
-676.178	-3.226	-0.337	-0.236
-675.164	-200.000	0.018	-0.195
-674.149	2.148	-0.175	-0.127
-673.135	-49.706	-0.272	-0.130
-672.120	-16.855	0.083	-0.053
-671.105	-27.970	0.191	0.111
-670.091	-200.000	-0.039	0.354
-669.076	-72.215	-0.204	0.076
-668.062	-164.881	0.410	-0.018
-667.047	-98.899	0.053	-0.014
-666.032	-100.252	0.263	0.065
-665.018	-164.631	-0.180	-0.008
-664.003	35.367	0.174	0.153
-662.989	-200.000	0.031	0.200
-661.974	7.144	-0.267	0.200
-660.959	429.983	-0.031	0.067
-659.945	-70.569	-0.272	0.103
-658.930	-91.093	-0.399	-0.115
-657.916	-200.000	-0.037	-0.280
-656.901	800.000	-0.048	0.146
-655.886	-155.917	-0.372	0.024
-654.872	-200.000	-0.032	-0.328
-653.857	223.505	0.141	-0.228
-652.843	147.538	0.144	-0.195
-651.828	120.875	0.231	0.288
-650.814	-103.976	-0.025	-0.006
-649.799	539.984	0.032	-0.077
-648.784	738.427	0.117	-0.314
-647.770	94.104	-0.202	-0.230
-646.755	0.991	0.264	-0.190
-645.741	247.777	-0.108	-0.184
-644.726	-150.312	0.259	0.020
-643.711	-38.798	-0.115	-0.061
-642.697	31.643	-0.210	-0.181
-641.682	-27.541	-0.211	0.123
-640.668	57.769	-0.381	-0.374
-639.653	166.710	-0.120	0.171
-638.638	76.853	-0.083	-0.089
-637.624	144.575	-0.049	-0.065
-636.609	91.263	0.202	-0.227
-635.595	101.612	-0.045	-0.052
-634.580	-73.997	0.266	0.097
-633.565	-200.000	-0.019	-0.230
-632.551	-100.415	-0.304	-0.075
-631.536	-28.023	-0.042	-0.024
-630.522	-17.124	-0.251	-0.158
-629.507	-48.491	0.221	0.107
-628.492	237.144	0.083	-0.138
-627.478	800.000	-0.045	-0.154
-626.463	119.045	0.069	-0.085
-625.449	-105.021	-0.389	-0.089
-624.434	157.268	-0.140	-0.194
-623.419	-200.000	-0.007	-0.162
-622.405	-153.985	-0.312	-0.021
-621.390	-103.802	0.270	0.063
-620.376	-200.000	-0.003	-0.210
-619.361	-24.414	-0.050	-0.030
-618.346	-200.000	0.033	0.353
-617.332	800.000	0.056	0.174
-616.317	-25.194	0.186	0.110
-615.303	316.404	-0.154	0.291
-614.288	271.379	-0.095	0.168
-613.273	-200.000	-0.003	0.172
-612.259	-109.304	0.054	0.011
-611.244	-200.000	-0.057	-0.531
-610.230	264.892	0.160	-0.278
-609.215	-117.004	-0.005	-0.001
-608.201	800.000	0.071	0.201
-607.186	800.000	0.035	0.129
-606.171	-95.744	-0.334	0.089
-605.157	35.706	0.060	-0.052
-604.142	-200.000	-0.066	-0.298
-603.128	800.000	0.117	0.352
-602.113	29.498	0.047	-0.040
-601.098	-115.205	-0.223	-0.042
-600.084	135.283	-0.069	-0.090
-599.069	404.046	-0.063	0.133
-598.055	-151.182	0.382	0.029
-597.040	305.151	-0.072	0.134
-596.025	602.348	-0.131	-0.326
-595.011	-134.426	-0.027	-0.003
-593.996	-63.660	0.229	-0.094
-592.982	155.515	-0.124	0.171
-591.967	-101.913	0.156	-0.038
-590.952	-200.000	0.046	0.296
-589.938	533.168	0.038	-0.091
-588.923	-29.421	0.150	0.086
-587.909	105.508	0.110	0.130
-586.894	348.934	0.154	-0.305
-585.879	62.675	-0.133	-0.133
-584.865	-200.000	0.020	-0.130
-583.850	-59.169	0.247	-0.107
-582.836	237.531	0.211	-0.350
-581.821	-137.756	0.267	0.030
-580.806	28.113	-0.157	-0.132
-579.792	-74.123	-0.135	-0.049
-578.777	-200.000	-0.105	0.493
-577.763	-200.000	0.006	-0.181
-576.748	103.408	0.093	-0.109
-575.733	-50.036	0.258	0.122
-574.719	99.861	0.129	-0.149
-573.704	-197.179	-0.254	0.002
-572.690	39.709	-0.157	-0.140
-571.675	-200.000	0.065	-0.484
-570.661	422.364	-0.065	0.139
-569.646	-172.523	0.151	-0.005
-568.631	-49.604	-0.412	0.196
-567.617	-121.901	-0.249	0.041
-566.602	800.000	0.029	0.114
-565.588	31.302	0.088	0.076
-564.573	-200.000	0.005	-0.041
-563.558	-12.699	-0.161	0.105
-562.544	-113.608	-0.183	-0.036
-561.529	67.599	0.298	0.304
-560.515	-200.000	-0.014	0.066
-559.500	67.009	-0.183	-0.186
-558.485	259.813	-0.117	0.203
-557.471	-45.134	0.346	-0.172
-556.456	-200.000	-0.020	-0.104
-555.442	-124.668	-0.380	0.059
-554.427	-172.596	-0.279	-0.009
-553.412	384.662	-0.127	-0.260
-552.398	-200.000	0.098	-0.481
-551.383	14.960	0.073	0.057
-550.369	-200.000	0.024	0.225
-549.354	-200.000	0.001	0.081
-548.339	56.452	0.154	-0.150
-547.325	-46.435	-0.130	-0.064
-546.310	-10.054	0.088	-0.058
-545.296	-49.257	0.200	0.095
-544.281	-13.058	0.185	-0.120
-543.266	348.137	0.092	0.181
-542.252	-200.000	-0.015	0.104
-541.237	-143.616	-0.207	-0.020
-540.223	633.705	0.162	-0.409
-539.208	-200.000	-0.001	-0.482
-538.193	228.348	-0.253	0.411
-537.179	-140.866	-0.295	0.030
-536.164	-40.421	0.284	-0.147
-535.150	75.579	-0.153	0.162
-534.135	800.000	-0.067	-0.259
-533.121	-80.891	0.139	0.046
-532.106	62.896	0.161	0.160
-531.091	106.740	0.139	0.165
-530.077	-200.000	0.033	-0.147
-529.062	-37.583	-0.305	0.162
-528.048	-66.013	0.299	-0.119
-527.033	-172.115	0.351	-0.011
-526.018	3.666	0.055	0.040
-525.004	-29.652	-0.059	0.034
-523.989	-32.153	-0.262	-0.146
-522.975	-200.000	-0.056	-0.317
-521.960	-64.176	0.118	-0.048
-520.945	-47.424	-0.130	-0.063
-519.931	-65.486	0.181	0.073
-518.916	27.270	-0.214	0.180
-517.902	64.397	-0.184	0.185
-516.887	-52.440	0.277	-0.128
-515.872	279.234	0.078	-0.139
-514.858	533.049	0.076	-0.179
-513.843	142.693	0.096	-0.128
-512.829	133.651	-0.063	-0.082
-511.814	349.969	0.163	-0.320
-510.799	-131.154	0.317	0.042
-509.785	149.960	-0.167	0.226
-508.770	800.000	-0.081	0.273
-507.756	-157.443	0.127	-0.008
-506.741	549.299	-0.043	-0.102
-505.726	9.911	0.197	-0.149
-504.712	-83.063	-0.183	0.059
-503.697	108.322	-0.198	0.235
-502.683	290.592	0.189	-0.342
-501.668	-51.787	0.210	0.098
-500.653	45.592	0.094	0.087
-499.639	-84.580	-0.051	0.016
-498.624	66.270	0.155	0.157
-497.610	-82.862	-0.165	0.053
-496.595	-40.979	0.249	0.128
-495.581	800.000	-0.083	-0.239
-494.566	800.000	0.045	-0.177
-493.551	-115.677	-0.227	-0.042
-492.537	650.088	0.054	0.138
-491.522	-93.755	0.207	0.057
-490.508	-56.960	-0.325	-0.143
-489.493	-200.000	-0.064	0.388
-488.478	-200.000	0.021	0.273
-487.464	73.418	-0.075	0.079
-486.449	98.658	-0.050	-0.057
-485.435	-200.000	0.002	-0.132
-484.420	800.000	0.084	0.266
-483.405	2.862	0.239	-0.173
-482.391	458.647	0.055	-0.121
-481.376	800.000	-0.061	0.242
-480.362	-15.775	-0.210	-0.133
-479.347	263.325	0.265	-0.458
-478.332	-200.000	0.004	0.280
-477.318	-33.765	0.505	0.277
-476.303	-200.000	-0.031	0.182
-475.289	-45.737	-0.220	0.108
-474.274	58.117	0.116	-0.113
-473.259	-152.925	0.327	-0.023
-472.245	95.073	-0.092	0.104
-471.230	9.718	0.093	-0.071
-470.216	-21.789	0.375	0.227
-469.201	5.783	-0.373	0.274
-468.186	-200.000	0.016	-0.224
-467.172	800.000	-0.032	-0.114
-466.157	-200.000	0.023	0.267
-465.143	646.688	0.040	0.102
-464.128	800.000	-0.018	-0.054
-463.113	63.308	-0.210	0.210
-462.099	212.077	0.146	-0.229
-461.084	174.682	-0.138	-0.199
-460.070	383.549	0.112	0.230
-459.055	-81.925	0.126	-0.041
-458.040	-54.689	0.247	0.111
-457.026	-200.000	-0.020	0.228
-456.011	-200.000	0.002	0.036
-454.997	-200.000	-0.086	-0.378
-453.982	-200.000	0.016	0.193
-452.968	102.829	-0.119	-0.139
-451.953	-77.114	0.131	0.045
-450.938	-200.000	0.011	-0.176
-449.924	7.637	-0.263	0.196
-448.909	276.924	0.095	0.168
-447.895	13.674	0.148	0.114
-446.880	800.000	-0.043	0.156
-445.865	-200.000	0.076	-0.355
-444.851	-175.536	0.138	-0.004
-443.836	-89.387	0.157	-0.046
-442.822	-200.000	-0.025	-0.256
-441.807	-3.507	0.201	-0.139
-440.792	-75.935	-0.160	-0.056
-439.778	800.000	0.054	0.176
-438.763	-42.097	0.397	-0.202
-437.749	-17.471	-0.116	-0.072
-436.734	-20.608	0.269	-0.164
-435.719	70.922	-0.128	0.132
-434.705	-94.235	0.200	0.054
-433.690	-84.916	-0.181	-0.056
-432.676	218.291	-0.215	-0.341
-431.661	-105.618	-0.101	0.023
-430.646	-22.335	-0.047	-0.028
-429.632	-196.722	0.227	-0.001
-428.617	-125.153	-0.174	-0.026
-427.603	526.320	-0.066	0.155
-426.588	-200.000	-0.054	0.423
-425.573	-128.209	-0.261	-0.037
-424.559	-27.064	-0.223	0.129
-423.544	84.324	0.195	0.212
-422.530	229.602	-0.015	-0.025
-421.515	800.000	0.060	0.182
-420.500	800.000	-0.112	0.365
-419.486	-200.000	0.005	0.104
-418.471	113.208	0.350	-0.422
-417.457	-39.190	-0.128	-0.067
-416.442	-52.876	-0.118	0.054
-415.428	729.668	0.104	-0.276
-414.413	-200.000	-0.016	0.190
-413.398	727.801	0.111	-0.295
-412.384	42.034	0.225	0.203
-411.369	179.222	-0.107	-0.156
-410.355	-9.606	-0.483	0.320
-409.340	800.000	-0.104	0.379
-408.325	50.787	-0.117	-0.110
-407.311	800.000	0.063	0.223
-406.296	229.012	0.106	0.171
-405.282	42.605	0.139	-0.126
-404.267	-146.566	0.174	-0.015
-403.252	103.930	-0.220	-0.256
-402.238	800.000	-0.126	0.356
-401.223	278.538	-0.107	-0.189
-400.209	-132.530	-0.206	0.026
-399.194	-45.304	0.309	0.152
-398.179	421.716	-0.082	-0.175
-397.165	-108.316	0.434	0.093
-396.150	571.917	-0.109	0.264
-395.136	-172.267	-0.289	0.009
-394.121	769.547	0.093	-0.252
-393.106	76.821	-0.200	-0.211
-392.092	-200.000	0.006	-0.209
-391.077	59.193	-0.157	0.153
-390.063	33.151	-0.143	0.123
-389.048	-200.000	0.012	0.098
-388.033	30.320	0.214	0.181
-387.019	-200.000	0.025	-0.309
-386.004	-200.000	0.006	0.145
-384.990	-200.000	-0.034	-0.162
-383.975	25.806	-0.225	-0.186
-382.960	-28.517	0.207	0.119
-381.946	174.257	0.042	-0.060
-380.931	116.938	-0.094	0.115
-379.917	800.000	0.026	0.086
-378.902	-123.127	-0.198	-0.031
-377.888	800.000	-0.059	-0.221
-376.873	629.505	0.022	0.056
-375.858	365.308	-0.194	-0.386
-374.844	56.557	0.015	0.015
-373.829	-17.571	-0.046	-0.029
-372.815	60.198	-0.111	0.108
-371.800	-24.237	-0.185	0.109
-370.785	-138.507	0.172	0.019
-369.771	117.984	-0.288	-0.352
-368.756	-200.000	0.072	0.473
-367.742	-200.000	0.010	0.061
-366.727	800.000	-0.082	0.223
-365.712	-200.000	0.008	0.487
-364.698	432.133	-0.072	-0.155
-363.683	49.932	-0.067	0.063
-362.669	-160.594	-0.110	-0.006
-361.654	-200.000	-0.005	0.143
-360.639	147.409	0.081	0.109
-359.625	109.192	0.141	-0.167
-358.610	72.792	0.162	-0.167
-357.596	176.174	-0.036	0.051
-356.581	56.483	0.262	-0.253
-355.566	-29.072	-0.091	-0.052
-354.552	600.534	-0.092	0.226
-353.537	-200.000	-0.054	-0.243
-352.523	357.004	0.197	0.389
-351.508	-19.613	-0.342	-0.210
-350.493	65.604	-0.219	-0.219
-349.479	211.849	0.038	-0.059
-348.464	-36.009	-0.202	-0.108
-347.450	24.270	0.303	-0.248
-346.435	800.000	0.055	0.158
-345.420	33.217	0.258	-0.221
-344.406	-200.000	-0.021	-0.262
-343.391	-58.044	0.124	0.054
-342.377	-128.910	-0.091	0.013
-341.362	-138.588	-0.181	-0.020
-340.348	-66.265	0.186	0.073
-339.333	479.412	0.153	0.344
-338.318	-133.839	-0.068	-0.008
-337.304	-129.168	-0.369	-0.051
-336.289	-38.517	-0.449	0.235
-335.275	-180.944	-0.283	-0.006
-334.260	39.580	-0.285	-0.253
-333.245	-123.422	0.275	0.043
-332.231	61.497	0.179	0.176
-331.216	99.330	-0.293	0.336
-330.202	75.978	0.273	0.286
-329.187	76.074	-0.187	0.196
-328.172	34.834	-0.239	-0.207
-327.158	116.112	-0.238	-0.288
-326.143	-10.668	-0.281	-0.184
-325.129	800.000	-0.080	0.284
-324.114	-53.574	-0.068	0.031
-323.099	-121.838	0.375	-0.061
-322.085	598.125	-0.045	-0.109
-321.070	-194.747	0.328	-0.003
-320.056	141.714	-0.075	0.099
-319.041	-98.023	-0.272	0.069
-318.026	-70.660	0.230	0.086
-317.012	23.322	0.202	0.164
-315.997	-200.000	0.008	-0.080
-314.983	125.351	0.226	-0.282
-313.968	-25.568	-0.196	-0.114
-312.953	-200.000	0.032	0.186
-311.939	250.981	-0.108	0.181
-310.924	-189.096	0.074	0.001
-309.910	800.000	0.035	-0.122
-308.895	-36.068	-0.218	-0.116
-307.880	47.239	0.187	0.172
-306.866	82.709	-0.111	0.119
-305.851	-200.000	0.005	-0.164
-304.837	-200.000	-0.032	0.232
-303.822	8.762	-0.398	-0.296
-302.807	191.528	-0.037	0.055
-301.793	-200.000	0.020	0.098
-300.778	-113.346	0.026	0.005
-299.764	239.977	-0.081	-0.133
-298.749	32.098	-0.112	0.096
-297.735	800.000	-0.054	-0.173
-296.720	-200.000	0.013	0.296
-295.705	-81.597	0.094	-0.030
-294.691	223.655	0.245	-0.391
-293.676	284.897	0.124	-0.221
-292.662	-27.324	0.065	0.038
-291.647	164.167	-0.204	0.284
-290.632	92.570	0.134	-0.149
-289.618	245.947	0.071	0.119
-288.603	-200.000	-0.026	-0.118
-287.589	-168.600	-0.422	0.016
-286.574	94.536	0.101	-0.113
-285.559	-107.639	-0.240	-0.052
-284.545	-55.555	-0.042	-0.018
-283.530	-200.000	-0.010	-0.076
-282.516	244.991	0.068	0.112
-281.501	75.000	0.082	0.085
-280.486	488.406	0.152	-0.344
-279.472	-111.609	-0.155	-0.031
-278.457	-96.592	0.245	-0.064
-277.443	664.784	-0.105	-0.269
-276.428	-162.926	-0.226	-0.011
-275.413	77.411	-0.031	0.032
-274.399	531.754	0.073	-0.170
-273.384	309.273	-0.222	0.409
-272.370	-200.000	-0.057	-0.255
-271.355	-130.023	-0.192	-0.026
-270.340	14.493	0.088	-0.068
-269.326	48.024	0.205	0.189
-268.311	108.530	0.051	-0.060
-267.297	213.774	-0.199	-0.311
-266.282	-25.676	-0.323	-0.188
-265.267	-85.644	-0.048	0.015
-264.253	31.011	-0.274	-0.232
-263.238	227.011	-0.097	0.156
-262.224	-200.000	-0.059	0.259
-261.209	-109.732	0.144	-0.030
-260.195	-200.000	0.035	0.276
-259.180	270.576	0.120	-0.208
-258.165	125.917	0.138	0.172
-257.151	90.673	-0.185	0.204
-256.136	-28.731	-0.146	-0.083
-255.122	387.974	-0.046	0.095
-254.107	-33.455	0.059	0.032
-253.092	321.504	-0.103	0.193
-252.078	-200.000	0.044	-0.199
-251.063	800.000	-0.035	0.112
-250.049	436.295	-0.131	0.282
-249.034	49.910	0.213	0.198
-248.019	152.189	-0.050	0.068
-247.005	-6.769	-0.082	-0.055
-245.990	206.104	-0.085	-0.131
-244.976	12.586	0.343	-0.261
-243.961	520.249	0.194	0.449
-242.946	-200.000	0.030	0.189
-241.932	156.232	0.147	0.200
-240.917	-200.000	-0.010	0.391
-239.903	175.967	-0.242	-0.346
-238.888	-200.000	-0.011	0.156
-237.873	9.714	0.199	0.149
-236.859	-107.647	0.170	-0.037
-235.844	42.900	-0.113	-0.102
-234.830	248.035	-0.078	0.130
-233.815	71.719	0.193	0.198
-232.800	-73.027	-0.329	0.119
-231.786	306.299	0.062	0.114
-230.771	-123.290	-0.323	-0.051
-229.757	-200.000	0.062	0.384
-228.742	209.597	0.167	0.258
-227.727	129.170	-0.038	-0.048
-226.713	800.000	0.091	0.319
-225.698	76.645	0.305	0.318
-224.684	113.375	0.037	-0.045
-223.669	-101.523	-0.277	0.066
-222.655	783.897	-0.129	0.349
-221.640	-105.489	-0.064	0.014
-220.625	-200.000	0.017	-0.284
-219.611	170.456	0.063	0.089
-218.596	-62.378	-0.105	0.043
-217.582	278.827	0.053	0.093
-216.567	331.720	-0.096	0.182
-215.552	519.947	0.054	-0.124
-214.538	800.000	-0.104	-0.436
-213.523	413.470	-0.112	0.234
-212.509	51.189	0.307	0.287
-211.494	-36.183	0.219	-0.116
-210.479	18.037	0.161	0.126
-209.465	686.753	-0.093	-0.241
-208.450	132.373	-0.262	-0.333
-207.436	-200.000	-0.028	-0.147
-206.421	4.543	-0.159	0.115
-205.406	-200.000	0.038	-0.195
-204.392	800.000	-0.031	-0.099
-203.377	-200.000	0.015	-0.079
-202.363	224.588	-0.188	-0.299
-201.348	-0.090	0.065	0.046
-200.333	-200.000	0.000	-0.037
-199.319	-80.699	0.303	0.099
-198.304	291.553	0.162	-0.290
-197.290	-6.049	-0.137	0.092
-196.275	-86.140	0.183	-0.056
-195.260	-200.000	0.026	-0.207
-194.246	-90.214	0.199	-0.057
-193.231	396.705	-0.074	0.152
-192.217	-200.000	0.021	0.450
-191.202	341.636	0.175	-0.336
-190.187	-200.000	-0.080	0.462
-189.173	-108.136	-0.124	0.026
-188.158	-77.796	0.188	-0.064
-187.144	-31.980	0.323	0.178
-186.129	-200.000	-0.031	0.209
-185.114	-87.247	-0.278	0.083
-184.100	51.177	0.134	0.125
-183.085	-30.338	0.277	0.155
-182.071	800.000	-0.046	-0.146
-181.056	-29.458	0.314	-0.177
-180.042	-38.559	0.155	-0.080
-179.027	800.000	-0.178	-0.556
-178.012	-107.582	0.412	0.089
-176.998	-200.000	0.029	-0.141
-175.983	-35.525	0.157	0.084
-174.969	220.539	0.051	-0.080
-173.954	-9.734	-0.155	-0.101
-172.939	26.537	0.155	0.128
-171.925	12.575	0.210	0.160
-170.910	56.945	-0.417	0.400
-169.896	800.000	0.060	0.176
-168.881	-47.833	0.185	0.088
-167.866	644.406	0.101	-0.252
-166.852	158.115	-0.137	0.187
-165.837	-200.000	-0.018	-0.180
-164.823	-47.028	0.225	-0.108
-163.808	-159.889	0.130	-0.007
-162.793	-200.000	-0.031	0.258
-161.779	1.803	-0.167	0.118
-160.764	-44.000	0.289	0.143
-159.750	-200.000	0.090	-0.474
-158.735	211.338	-0.233	-0.360
-157.720	800.000	0.028	0.088
-156.706	-3.950	0.138	0.094
-155.691	-200.000	-0.000	-0.180
-154.677	408.543	0.113	0.234
-153.662	621.384	-0.110	0.272
-152.647	-72.531	0.326	-0.118
-151.633	-200.000	0.009	-0.092
-150.618	125.736	0.265	0.329
-149.604	11.754	-0.181	0.136
-148.589	262.010	-0.173	-0.294
-147.574	158.561	-0.313	-0.427
-146.560	46.024	-0.132	-0.120
-145.545	106.272	-0.279	0.325
-144.531	-116.416	0.401	0.073
-143.516	-54.970	-0.178	-0.079
-142.502	-78.345	0.102	-0.034
-141.487	-23.312	0.099	0.059
-140.472	-100.429	0.235	0.057
-139.458	207.828	0.079	0.121
-138.443	166.906	-0.164	0.228
-137.429	664.249	-0.045	0.115
-136.414	800.000	-0.067	0.207
-135.399	-200.000	-0.029	0.150
-134.385	-1.752	-0.353	0.244
-133.370	-200.000	-0.022	-0.101
-132.356	-200.000	-0.050	0.334
-131.341	95.811	-0.234	0.263
-130.326	19.706	0.091	0.072
-129.312	190.579	0.162	0.239
-128.297	800.000	0.100	-0.350
-127.283	14.497	-0.130	-0.100
-126.268	42.259	-0.085	0.076
-125.253	169.859	0.141	0.197
-124.239	800.000	-0.025	-0.073
-123.224	-145.255	-0.291	0.026
-122.210	-200.000	0.044	0.198
-121.195	-16.729	0.115	-0.071
-120.180	-126.504	0.277	0.040
-119.166	800.000	0.006	0.021
-118.151	227.443	-0.044	0.070
-117.137	-200.000	-0.040	0.174
-116.122	-132.307	-0.368	-0.047
-115.107	-128.559	-0.276	-0.038
-114.093	-154.471	0.167	0.011
-113.078	800.000	0.029	0.094
-112.064	-200.000	0.036	-0.219
-111.049	-115.706	-0.140	0.026
-110.034	399.129	-0.148	0.304
-109.020	138.583	-0.183	0.235
-108.005	7.406	0.362	0.266
-106.991	664.835	0.121	-0.306
-105.976	-200.000	0.072	-0.317
-104.962	-148.906	-0.401	-0.032
-103.947	-159.936	-0.257	-0.014
-102.932	800.000	-0.023	0.069
-101.918	-200.000	-0.011	0.116
-100.903	-165.651	0.447	0.019
-99.889	-17.535	0.051	-0.031
-98.874	225.262	0.208	-0.330
-97.859	82.611	0.067	0.071
-96.845	800.000	0.062	-0.169
-95.830	-32.584	0.184	-0.101
-94.816	793.652	-0.157	0.424
-93.801	327.782	0.153	0.289
-92.786	48.121	0.180	-0.165
-91.772	-200.000	0.030	0.226
-90.757	-138.642	-0.021	-0.002
-89.743	-192.942	0.502	0.004
-88.728	-165.948	-0.138	0.006
-87.713	59.590	-0.271	-0.262
-86.699	114.380	0.248	0.296
-85.684	-121.087	0.196	0.032
-84.670	19.518	-0.120	0.094
-83.655	-4.349	-0.134	0.091
-82.640	-200.000	0.006	0.087
-81.626	-200.000	-0.013	-0.229
-80.611	800.000	-0.070	-0.284
-79.597	-200.000	0.017	-0.112
-78.582	800.000	0.096	-0.289
-77.567	597.064	0.053	-0.130
-76.553	-127.616	-0.231	0.033
-75.538	-200.000	-0.009	0.073
-74.524	-200.000	-0.082	0.414
-73.509	7.548	-0.171	-0.126
-72.494	-128.288	0.481	0.067
-71.480	800.000	-0.028	0.108
-70.465	34.068	-0.168	0.143
-69.451	-139.451	0.260	-0.027
-68.436	87.259	-0.168	0.182
-67.422	-120.459	0.151	0.025
-66.407	-46.551	-0.158	0.076
-65.392	133.921	0.194	0.246
-64.378	-130.965	0.073	-0.010
-63.363	-1.366	-0.292	0.202
-62.349	8.312	0.051	-0.038
-61.334	21.805	-1.141	-0.911
-60.319	95.316	0.512	0.571
-59.305	800.000	-0.434	-1.490
-58.290	273.941	0.689	1.194
-57.276	575.545	0.549	1.312
-56.261	-200.000	112.181	644.926
-55.246	484.718	1487.508	3315.945
-54.232	151.132	2646.525	3525.612
-53.217	105.326	2138.175	2472.361
-52.203	39.198	1595.320	1397.491
-51.188	31.186	1344.351	1129.359
-50.173	28.350	1306.333	1080.676
-49.159	56.561	1361.517	1296.603
-48.144	55.217	1376.293	1302.568
-47.130	31.509	1332.547	1121.202
-46.115	28.002	1314.962	1085.577
-45.100	27.818	1310.507	1080.767
-44.086	27.811	1307.669	1078.339
-43.071	27.811	1305.537	1076.539
-42.057	27.691	1303.717	1074.288
-41.042	27.831	1302.088	1073.731
-40.027	27.768	1300.448	1071.965
-39.013	27.816	1298.514	1070.606
-37.998	27.887	1296.280	1069.138
-36.984	27.920	1294.624	1067.927
-35.969	27.893	1293.272	1066.608
-34.954	27.945	1291.447	1065.366
-33.940	27.973	1289.946	1064.250
-32.925	27.874	1289.116	1062.944
-31.911	27.938	1287.610	1062.031
-30.896	27.976	1286.119	1060.982
-29.881	28.080	1284.725	1060.392
-28.867	28.145	1283.246	1059.504
-27.852	28.129	1281.441	1057.882
-26.838	28.113	1280.228	1056.746
-25.823	28.028	1279.205	1055.368
-24.809	27.928	1278.449	1054.126
-23.794	27.979	1276.589	1052.846
-22.779	28.136	1274.844	1052.263
-21.765	28.048	1273.874	1050.918
-20.750	28.002	1272.354	1049.360
-19.736	27.967	1271.383	1048.318
-18.721	27.826	1270.318	1046.586
-17.706	27.917	1268.997	1045.980
-16.692	27.873	1267.825	1044.720
-15.677	27.980	1266.589	1044.272
-14.663	27.905	1265.830	1043.173
-13.648	27.819	1264.742	1041.746
-12.633	27.920	1263.465	1041.226
-11.619	27.768	1263.162	1040.070
-10.604	27.904	1261.917	1039.777
-9.590	27.922	1260.505	1038.675
-8.575	27.814	1260.136	1037.719
-7.560	27.966	1258.913	1037.532
-6.546	27.783	1258.339	1035.979
-5.531	27.918	1257.563	1036.068
-4.517	27.831	1256.985	1035.057
-3.502	27.897	1256.118	1034.675
-2.487	27.948	1254.454	1033.553
-1.473	27.882	1250.698	1030.045
-0.458	26.338	1235.007	1008.473
0.556	21.183	1218.140	970.334
1.571	17.434	1224.221	954.112
2.586	16.650	1239.256	961.292
3.600	16.640	1227.942	952.379
4.615	14.863	1161.276	891.126
5.629	11.257	1094.164	821.413
6.644	9.501	1077.410	800.043
7.659	9.257	1075.276	797.175
8.673	9.249	1073.503	795.751
9.688	9.194	1073.088	795.104
10.702	9.463	1070.617	794.531
11.717	11.616	1072.967	806.842
12.731	15.340	1077.991	828.986
13.746	17.485	1079.918	841.006
14.761	17.378	1079.925	840.410
15.775	16.512	1077.397	834.094
16.790	15.503	1075.155	827.317
17.804	14.725	1073.652	822.261
18.819	14.245	1072.709	819.103
19.834	14.011	1071.841	817.216
20.848	13.785	1070.875	815.298
21.863	13.578	1069.894	813.460
22.877	13.377	1069.601	812.180
23.892	13.359	1068.962	811.535
24.907	13.449	1067.648	810.909
25.921	13.338	1067.248	809.990
26.936	13.547	1065.281	809.446
27.950	13.510	1064.350	808.485
28.965	13.639	1062.563	807.685
29.980	13.681	1061.196	806.777
30.994	13.649	1060.057	805.686
32.009	13.609	1059.267	804.821
33.023	13.657	1058.289	804.238
34.038	13.596	1057.153	803.008
35.053	13.653	1056.144	802.447
36.067	13.537	1055.415	801.261
37.082	13.518	1054.572	800.460
38.096	13.647	1053.848	800.463
39.111	13.659	1052.706	799.580
40.126	13.481	1051.450	797.699
41.140	13.391	1050.036	796.122
42.155	13.439	1048.821	795.360
43.169	13.269	1048.179	793.989
44.184	13.449	1046.571	793.562
45.199	13.446	1045.643	792.772
46.213	13.375	1044.793	791.719
47.228	13.402	1043.928	791.124
48.242	13.604	1042.920	791.253
49.257	13.516	1041.376	789.594
50.271	13.597	1040.729	789.416
51.286	13.678	1040.009	789.186
52.301	13.492	1039.037	787.498
53.315	13.496	1037.932	786.607
54.330	13.556	1036.890	786.033
55.344	13.421	1035.956	784.615
56.359	13.480	1035.066	784.154
57.374	13.476	1034.449	783.597
58.388	13.257	1033.612	781.856
59.403	13.350	1032.910	781.696
60.417	13.378	1031.703	780.846
61.432	13.219	1031.056	779.539
62.447	13.258	1030.095	778.924
63.461	13.264	1029.402	778.362
64.476	13.249	1028.785	777.757
65.490	13.209	1028.032	776.929
66.505	13.162	1027.520	776.251
67.520	13.342	1026.505	776.260
68.534	13.375	1025.779	775.798
69.549	13.294	1024.773	774.592
70.563	13.243	1024.041	773.729
71.578	13.332	1022.941	773.244
72.593	13.213	1022.542	772.319
73.607	13.209	1021.914	771.761
74.622	13.171	1021.417	771.139
75.636	13.297	1020.953	771.307
76.651	13.285	1019.623	770.176
77.666	13.252	1019.467	769.840
78.680	13.265	1018.836	769.355
79.695	13.261	1017.881	768.547
80.709	13.367	1017.261	768.503
81.724	13.368	1016.584	767.926
82.739	13.347	1016.148	767.431
83.753	13.576	1014.703	767.332
84.768	13.665	1014.170	767.276
85.782	13.621	1013.052	766.157
86.797	13.590	1012.271	765.357
87.812	13.534	1011.384	764.358
88.826	13.519	1010.455	763.522
89.841	13.603	1009.573	763.172
90.855	13.662	1008.656	762.686
91.870	13.679	1007.773	762.028
92.884	13.829	1006.402	761.612
93.899	13.711	1006.059	760.746
94.914	13.685	1005.277	759.966
95.928	13.681	1004.575	759.348
96.943	13.632	1004.007	758.629
97.957	13.686	1002.478	757.652
98.972	13.675	1002.038	757.204
99.987	13.696	1000.768	756.270
101.001	13.652	999.803	755.278
102.016	13.633	999.331	754.768
103.030	13.592	998.368	753.784
104.045	13.703	997.701	753.721
105.060	13.582	996.585	752.262
106.074	13.566	995.815	751.541
107.089	13.504	994.731	750.376
108.103	13.525	993.612	749.560
109.118	13.507	992.730	748.748
110.133	13.334	992.237	747.524
111.147	13.405	991.007	746.855
112.162	13.485	990.045	746.425
113.176	13.476	989.495	745.905
114.191	13.453	989.077	745.417
115.206	13.500	988.226	744.920
116.220	13.503	987.477	744.303
117.235	13.577	986.138	743.563
118.249	13.449	985.524	742.460
119.264	13.436	984.658	741.681
120.279	13.491	983.979	741.352
121.293	13.388	983.235	740.265
122.308	13.317	982.553	739.366
123.322	13.399	981.414	738.811
124.337	13.453	980.211	738.081
125.352	13.508	979.053	737.388
126.366	13.456	977.718	736.087
127.381	13.399	977.373	735.508
128.395	13.451	976.424	734.959
129.410	13.443	975.452	734.131
130.424	13.550	974.404	733.748
131.439	13.579	974.001	733.508
132.454	13.540	973.447	732.855
133.468	13.525	972.457	731.977
134.483	13.597	971.295	731.355
135.497	13.522	970.644	730.470
136.512	13.430	970.351	729.779
137.527	13.521	969.159	729.221
138.541	13.579	968.095	728.611
139.556	13.515	967.759	728.013
140.570	13.594	967.077	727.779
141.585	13.715	966.014	727.447
142.600	13.784	965.305	727.153
143.614	13.692	964.877	726.361
144.629	13.793	964.219	726.243
145.643	13.621	963.022	724.526
146.658	13.517	961.616	722.949
147.673	13.587	960.971	722.708
148.687	13.569	960.040	721.864
149.702	13.560	959.503	721.357
150.716	13.648	958.241	720.726
151.731	13.555	957.911	720.013
152.746	13.606	956.850	719.372
153.760	13.611	956.173	718.822
154.775	13.667	955.716	718.657
155.789	13.869	954.657	718.671
156.804	13.824	954.578	718.353
157.819	13.832	953.640	717.621
158.833	13.832	953.264	717.272
159.848	13.934	951.888	716.613
160.862	13.798	951.305	715.524
161.877	13.887	949.930	714.810
162.892	13.747	949.409	713.750
163.906	13.715	948.482	712.856
164.921	13.808	947.458	712.423
165.935	13.841	946.828	712.027
166.950	13.776	946.034	711.090
167.964	13.848	945.026	710.577
168.979	13.851	943.929	709.702
169.994	13.830	943.462	709.196
171.008	13.840	942.801	708.679
172.023	13.856	942.287	708.298
173.037	13.962	941.234	707.896
174.052	13.943	940.429	707.149
175.067	13.906	940.041	706.635
176.081	13.862	939.409	705.912
177.096	13.868	938.593	705.262
178.110	13.934	938.032	705.058
179.125	13.849	937.609	704.317
180.140	14.000	936.985	704.427
181.154	14.110	936.449	704.428
182.169	13.893	936.392	703.400
183.183	14.075	935.259	703.258
184.198	14.102	934.260	702.558
185.213	14.152	933.790	702.355
186.227	14.136	933.246	701.816
187.242	14.126	932.740	701.332
188.256	14.175	931.827	700.788
189.271	14.219	931.186	700.428
190.286	14.111	929.862	698.919
191.300	13.908	929.497	697.729
192.315	13.946	928.853	697.344
193.329	13.824	928.747	696.691
194.344	13.841	928.001	696.142
195.359	14.026	927.395	696.401
196.373	14.061	926.692	695.956
197.388	14.218	926.027	696.051
198.402	14.274	925.659	695.948
199.417	14.379	924.733	695.630
200.432	14.365	924.276	695.163
201.446	14.308	924.232	694.832
202.461	14.355	923.861	694.688
203.475	14.388	922.963	694.089
204.490	14.349	922.087	693.208
205.504	14.300	921.462	692.472
206.519	14.215	920.536	691.359
207.534	14.376	919.765	691.391
208.548	14.371	919.386	691.021
209.563	14.243	918.478	689.750
210.577	14.364	917.877	689.736
211.592	14.321	917.794	689.435
212.607	14.477	916.423	688.991
213.621	14.560	915.967	688.929
214.636	14.433	915.019	687.632
215.650	14.427	914.316	687.015
216.665	14.542	913.523	686.835
217.680	14.586	913.147	686.672
218.694	14.594	912.302	686.006
219.709	14.676	911.386	685.596
220.723	14.575	911.078	684.890
221.738	14.582	910.390	684.338
222.753	14.590	909.831	683.893
223.767	14.725	908.742	683.566
224.782	14.701	908.741	683.407
225.796	14.734	908.121	683.014
226.811	14.790	907.160	682.459
227.826	14.625	906.447	681.187
228.840	14.628	905.852	680.693
229.855	14.741	904.867	680.353
230.869	14.715	903.783	679.371
231.884	14.645	903.622	678.906
232.899	14.721	902.508	678.317
233.913	14.692	901.839	677.638
234.928	14.665	901.660	677.335
235.942	14.514	901.176	676.298
236.957	14.555	900.621	675.989
237.972	14.724	899.872	676.051
238.986	14.587	899.413	675.092
240.001	14.779	898.326	674.990
241.015	14.682	898.128	674.391
242.030	14.742	897.263	673.925
243.045	14.776	896.637	673.529
244.059	14.764	896.010	672.952
245.074	14.840	895.743	672.997
246.088	14.848	894.868	672.315
247.103	14.957	894.108	672.121
248.117	15.076	893.438	672.035
249.132	15.121	892.891	671.746
250.147	15.106	892.383	671.244
251.161	15.196	891.585	670.942
252.176	15.222	891.133	670.648
253.190	15.289	890.591	670.450
254.205	15.207	890.298	669.843
255.220	15.162	889.352	668.890
256.234	15.167	888.960	668.555
257.249	15.219	888.497	668.358
258.263	15.256	887.319	667.561
259.278	15.138	886.869	666.693
260.293	15.300	885.989	666.617
261.307	15.349	885.346	666.266
262.322	15.325	884.856	665.743
263.336	15.287	884.549	665.305
264.351	15.425	883.480	664.987
265.366	15.563	882.588	664.802
266.380	15.472	882.181	664.079
267.395	15.457	881.413	663.383
268.409	15.327	880.683	662.260
269.424	15.385	879.921	661.859
270.439	15.522	878.998	661.647
271.453	15.447	878.260	660.734
272.468	15.447	877.919	660.422
273.482	15.310	877.815	659.745
274.497	15.391	876.940	659.346
275.512	15.581	876.206	659.483
276.526	15.471	875.819	658.700
277.541	15.519	875.584	658.656
278.555	15.617	874.711	658.324
279.570	15.590	874.163	657.747
280.585	15.551	873.448	657.000
281.599	15.631	872.501	656.542
282.614	15.592	872.102	656.029
283.628	15.638	871.053	655.362
284.643	15.470	870.652	654.347
285.657	15.568	870.290	654.398
286.672	15.711	869.084	653.991
287.687	15.659	869.055	653.708
288.701	15.652	868.514	653.219
289.716	15.715	867.559	652.686
290.730	15.602	867.198	651.919
291.745	15.824	866.644	652.302
292.760	15.773	866.224	651.732
293.774	15.755	865.661	651.183
294.789	15.805	864.693	650.588
295.803	15.799	863.618	649.699
296.818	15.812	862.984	649.218
297.833	15.810	862.486	648.775
298.847	15.974	861.801	648.836
299.862	15.891	861.351	648.118
300.876	15.864	860.979	647.678
301.891	15.975	860.408	647.617
302.906	15.794	860.069	646.612
303.920	15.941	859.188	646.455
304.935	16.063	858.652	646.461
305.949	16.092	858.174	646.157
306.964	16.107	857.341	645.529
307.979	16.024	856.925	644.841
308.993	16.198	856.129	644.851
310.008	16.140	855.600	644.173
311.022	16.106	855.297	643.760
312.037	16.020	854.580	642.835
313.052	15.898	854.247	642.063
314.066	15.813	853.875	641.402
315.081	16.022	852.851	641.372
316.095	15.959	852.318	640.673
317.110	16.041	851.910	640.621
318.125	15.965	851.305	639.821
319.139	15.849	851.056	639.139
320.154	15.975	850.343	639.023
321.168	16.226	849.562	639.331
322.183	16.015	849.596	638.500
323.197	15.964	849.200	637.954
324.212	16.021	849.007	637.969
325.227	16.057	848.135	637.392
326.241	16.080	846.895	636.490
327.256	16.163	846.450	636.415
328.270	16.153	845.886	635.896
329.285	16.077	845.927	635.583
330.300	16.007	845.266	634.767
331.314	16.134	844.676	634.745
332.329	16.300	843.998	634.802
333.343	16.245	843.436	634.119
334.358	16.348	842.802	633.974
335.373	16.263	842.713	633.529
336.387	16.267	842.400	633.255
337.402	16.433	842.038	633.549
338.416	16.390	841.947	633.262
339.431	16.391	841.379	632.784
340.446	16.369	840.870	632.263
341.460	16.510	840.235	632.253
342.475	16.532	839.971	632.083
343.489	16.605	839.377	631.853
344.504	16.611	839.288	631.752
345.519	16.617	838.642	631.230
346.533	16.633	837.763	630.574
347.548	16.549	837.506	630.013
348.562	16.622	836.776	629.680
349.577	16.608	836.514	629.376
350.592	16.456	835.946	628.326
351.606	16.447	835.309	627.760
352.621	16.533	834.578	627.473
353.635	16.434	833.949	626.579
354.650	16.490	833.070	626.069
355.665	16.673	832.487	626.251
356.679	16.640	831.841	625.588
357.694	16.613	831.322	625.045
358.708	16.523	830.983	624.402
359.723	16.577	830.249	623.993
360.738	16.692	829.675	623.931
361.752	16.605	829.133	623.146
362.767	16.784	828.366	623.176
363.781	16.840	827.904	622.979
364.796	17.041	827.485	623.345
365.810	16.898	827.566	622.824
366.825	17.014	826.492	622.388
367.840	17.080	826.199	622.355
368.854	16.895	825.962	621.444
369.869	16.822	825.548	620.809
370.883	16.905	825.073	620.702
371.898	17.005	824.751	620.767
372.913	17.073	824.165	620.521
373.927	17.057	823.728	620.079
374.942	17.103	823.193	619.788
375.956	17.047	822.980	619.371
376.971	17.078	822.406	618.997
377.986	17.171	821.981	618.961
379.000	17.173	821.428	618.498
380.015	17.177	821.046	618.168
381.029	17.240	820.209	617.711
382.044	17.097	819.813	616.839
383.059	17.099	819.480	616.542
384.073	17.161	818.635	616.079
385.088	17.217	817.875	615.655
386.102	17.214	816.960	614.900
387.117	17.183	816.562	614.432
388.132	17.122	816.554	614.153
389.146	17.252	815.741	613.958
390.161	17.212	815.603	613.653
391.175	17.439	814.867	613.866
392.190	17.320	814.099	612.805
393.205	17.267	813.811	612.343
394.219	17.257	813.318	611.881
395.234	17.218	813.221	611.613
396.248	17.143	812.939	611.077
397.263	17.069	812.498	610.424
398.278	17.043	811.922	609.846
399.292	17.132	811.237	609.597
400.307	17.353	810.754	609.970
401.321	17.317	810.101	609.298
402.336	17.272	809.831	608.880
403.350	17.342	809.314	608.685
404.365	17.447	808.934	608.723
405.380	17.297	809.125	608.274
406.394	17.375	808.455	607.996
407.409	17.530	808.045	608.190
408.423	17.475	807.557	607.572
409.438	17.525	807.154	607.393
410.453	17.669	806.647	607.471
411.467	17.607	806.082	606.769
412.482	17.809	805.609	607.080
413.496	17.825	805.149	606.738
414.511	17.734	805.186	606.388
415.526	17.739	804.730	606.006
416.540	17.749	803.979	605.424
417.555	17.715	803.504	604.893
418.569	17.725	803.010	604.501
419.584	17.871	802.522	604.597
420.599	17.790	802.390	604.160
421.613	111.644	1294.915	1477.870
422.628	96.252	1366.621	1477.975
