DTS Sentinel unit serial number:	SN413079Multiplexer serial number:	ORYXHardware model number:	OX4-SRSoftware version number:	ORYX F/W v4.00 Oryx Data Collector v3.7.2.0data status	okinstallation	princeton_trtdifferential loss correction	single-endedforward channel	channel 1reverse channel	N/Adate	2019/09/14time	13:22:35forward acquisition time	60.00reverse acquisition time	0.00gamma	496.2192k internal	0.2294k external	0.2294temperature offset calibration	1.0087default loss term (dB/km)	0.3790temperature slope calibration	1.0000multiplexer offset coefficient	1.0000multiplexer slope coefficient	1.0000fibre end	0.00T internal ref (°C)	37.95T ext. ref 1 (°C)	4.90T ext. ref 2 (°C)	33.62length (m)	temperature (°C)	Stokes	anti-Stokes-747.200	152.826	-0.102	0.142
-746.185	316.550	-0.123	0.237
-745.171	-11.042	0.287	-0.194
-744.156	-183.894	0.159	0.003
-743.142	218.815	-0.103	0.168
-742.127	-72.032	-0.169	-0.064
-741.112	-38.618	0.183	0.099
-740.098	32.692	-0.112	0.099
-739.083	102.773	-0.331	0.396
-738.069	109.681	-0.222	0.273
-737.054	301.536	0.212	-0.401
-736.039	411.596	0.194	-0.421
-735.025	800.000	0.071	-0.238
-734.010	-119.751	-0.138	0.024
-732.996	-101.200	-0.110	-0.028
-731.981	-200.000	-0.039	0.191
-730.966	237.762	-0.173	-0.293
-729.952	800.000	-0.042	-0.127
-728.937	-200.000	-0.017	-0.223
-727.923	-200.000	0.037	-0.388
-726.908	-35.355	-0.166	-0.092
-725.894	-181.778	0.140	-0.003
-724.879	572.870	-0.050	0.124
-723.864	7.065	-0.102	-0.078
-722.850	-200.000	0.067	-0.477
-721.835	251.188	0.099	0.172
-720.821	800.000	-0.109	-0.336
-719.806	25.552	0.224	-0.190
-718.791	6.386	-0.223	-0.169
-717.777	-128.664	0.232	0.033
-716.762	243.335	-0.059	0.101
-715.748	800.000	0.068	-0.208
-714.733	117.632	0.102	0.128
-713.718	89.561	-0.108	0.123
-712.704	14.491	-0.276	0.220
-711.689	-25.377	0.137	-0.083
-710.675	-125.769	-0.258	-0.040
-709.660	-159.409	0.363	0.021
-708.645	-200.000	0.007	-0.127
-707.631	-87.397	-0.287	0.089
-706.616	800.000	0.066	-0.278
-705.602	800.000	-0.118	-0.364
-704.587	-140.001	0.361	0.039
-703.572	-81.595	-0.239	-0.080
-702.558	402.169	0.045	0.097
-701.543	-144.207	-0.237	-0.023
-700.529	-200.000	0.018	-0.089
-699.514	331.222	0.055	-0.109
-698.499	-127.370	0.210	-0.031
-697.485	-115.880	-0.106	0.020
-696.470	-200.000	-0.028	-0.229
-695.456	345.649	-0.068	0.136
-694.441	181.294	0.018	-0.027
-693.426	-42.333	0.249	-0.130
-692.412	518.979	-0.141	-0.338
-691.397	-163.518	0.170	0.008
-690.383	-200.000	0.035	-0.324
-689.368	-102.241	-0.146	0.036
-688.354	91.553	-0.130	-0.149
-687.339	-200.000	-0.007	-0.313
-686.324	-200.000	-0.003	0.174
-685.310	161.059	0.059	-0.084
-684.295	-200.000	-0.036	0.280
-683.281	-200.000	0.023	-0.274
-682.266	-96.133	0.077	-0.021
-681.251	-114.295	0.141	-0.028
-680.237	37.371	-0.250	-0.226
-679.222	800.000	-0.029	-0.105
-678.208	259.153	-0.147	-0.258
-677.193	149.333	-0.123	-0.170
-676.178	-153.771	-0.316	0.022
-675.164	74.455	0.079	0.084
-674.149	-21.462	-0.094	0.058
-673.135	-6.800	0.180	-0.125
-672.120	-93.808	-0.280	0.079
-671.105	-100.716	0.232	0.058
-670.091	-94.498	-0.122	-0.034
-669.076	-83.278	-0.332	-0.109
-668.062	-89.675	0.165	0.049
-667.047	162.098	0.143	0.205
-666.032	-112.660	-0.175	0.035
-665.018	-113.746	0.242	-0.048
-664.003	-114.507	0.105	-0.021
-662.989	745.750	0.080	-0.220
-661.974	58.047	0.176	0.176
-660.959	-94.370	0.221	0.061
-659.945	800.000	0.040	0.127
-658.930	107.357	-0.154	-0.187
-657.916	-200.000	0.228	0.001
-656.901	63.531	0.060	-0.062
-655.886	13.710	0.125	0.099
-654.872	497.630	0.092	0.215
-653.857	-67.913	-0.255	-0.102
-652.843	645.290	-0.039	-0.102
-651.828	389.243	-0.068	0.144
-650.814	15.855	-0.324	-0.260
-649.799	104.746	-0.122	-0.146
-648.784	-53.501	-0.094	0.044
-647.770	800.000	-0.029	0.113
-646.755	454.780	0.100	-0.225
-645.741	8.809	0.121	-0.093
-644.726	-99.346	0.283	0.073
-643.711	148.729	-0.032	0.044
-642.697	146.454	0.123	-0.169
-641.682	-30.026	0.115	0.067
-640.668	308.288	0.118	-0.225
-639.653	-88.792	0.238	-0.072
-638.638	-200.000	-0.002	-0.180
-637.624	63.833	0.135	-0.138
-636.609	215.605	0.103	0.166
-635.595	-57.435	-0.102	-0.045
-634.580	-75.344	-0.306	0.111
-633.565	685.396	0.088	0.235
-632.551	-42.616	-0.189	0.098
-631.536	-96.046	-0.335	-0.091
-630.522	776.140	-0.054	0.151
-629.507	-5.005	-0.200	-0.140
-628.492	32.880	-0.285	-0.251
-627.478	133.997	-0.033	0.043
-626.463	-200.000	0.002	-0.139
-625.449	-174.793	-0.130	-0.004
-624.434	263.580	0.077	-0.137
-623.419	-34.892	-0.110	0.061
-622.405	-13.350	0.246	0.163
-621.390	138.569	-0.225	-0.300
-620.376	-137.632	-0.241	0.028
-619.361	226.082	-0.099	0.163
-618.346	-136.505	-0.129	-0.015
-617.332	-200.000	-0.005	-0.136
-616.317	-57.301	-0.191	0.085
-615.303	-103.709	-0.064	-0.015
-614.288	264.683	0.066	-0.118
-613.273	125.266	-0.022	-0.028
-612.259	398.415	-0.074	0.158
-611.244	800.000	-0.088	0.307
-610.230	-166.455	-0.138	0.006
-609.215	-200.000	-0.046	0.224
-608.201	-34.221	0.398	-0.222
-607.186	565.660	0.068	-0.167
-606.171	368.023	0.101	-0.209
-605.157	-65.193	0.060	0.025
-604.142	43.819	0.233	-0.217
-603.128	-28.654	-0.268	-0.157
-602.113	-160.904	0.342	-0.018
-601.098	800.000	0.104	-0.441
-600.084	-8.731	-0.199	0.136
-599.069	-5.309	-0.146	0.102
-598.055	251.894	-0.088	-0.153
-597.040	800.000	-0.136	-0.385
-596.025	195.184	-0.072	-0.112
-595.011	-170.538	0.126	-0.004
-593.996	-60.354	-0.207	0.090
-592.982	-200.000	0.035	-0.380
-591.967	800.000	-0.039	0.127
-590.952	171.668	-0.087	-0.127
-589.938	-10.102	0.149	0.101
-588.923	131.702	0.171	0.224
-587.909	-200.000	-0.043	0.284
-586.894	-200.000	-0.027	0.296
-585.879	-108.316	0.182	0.040
-584.865	192.100	0.063	0.096
-583.850	60.759	-0.129	0.130
-582.836	-63.527	0.236	0.099
-581.821	-35.023	-0.107	0.059
-580.806	-200.000	0.036	-0.222
-579.792	800.000	-0.029	-0.110
-578.777	8.000	0.123	0.094
-577.763	66.476	0.038	-0.039
-576.748	-81.067	0.113	-0.038
-575.733	-45.887	0.043	0.022
-574.719	-61.574	-0.195	-0.083
-573.704	186.724	-0.113	-0.172
-572.690	163.677	0.117	-0.167
-571.675	-200.000	0.000	0.050
-570.661	-200.000	-0.005	0.110
-569.646	-153.962	0.164	0.011
-568.631	-71.219	0.128	0.049
-567.617	-200.000	0.046	0.226
-566.602	-79.603	-0.254	0.087
-565.588	285.827	0.026	-0.048
-564.573	-14.245	-0.025	0.016
-563.558	-171.930	0.209	0.007
-562.544	36.292	-0.308	-0.275
-561.529	-200.000	0.076	-0.457
-560.515	-101.153	0.201	0.050
-559.500	-200.000	0.031	-0.397
-558.485	-200.000	-0.025	-0.140
-557.471	-100.457	0.206	-0.052
-556.456	144.214	0.061	-0.083
-555.442	195.006	0.035	0.054
-554.427	42.568	-0.171	0.158
-553.412	7.030	-0.175	0.132
-552.398	-32.498	-0.280	0.158
-551.383	800.000	-0.039	0.165
-550.369	310.707	-0.166	0.317
-549.354	-116.047	-0.114	-0.022
-548.339	800.000	0.056	0.169
-547.325	-200.000	0.004	-0.118
-546.310	-25.968	-0.107	0.064
-545.296	-68.071	0.031	0.012
-544.281	-143.401	-0.251	-0.024
-543.266	-200.000	-0.047	-0.284
-542.252	-66.744	-0.254	-0.102
-541.237	-200.000	-0.010	0.098
-540.223	-200.000	-0.053	-0.334
-539.208	-40.535	0.161	-0.085
-538.193	-31.713	-0.368	-0.209
-537.179	-62.566	0.441	-0.186
-536.164	-105.118	-0.211	0.049
-535.150	-28.700	0.126	0.074
-534.135	-188.654	-0.295	0.004
-533.121	-95.405	0.321	0.087
-532.106	106.704	0.135	0.162
-531.091	-44.030	0.145	-0.074
-530.077	-146.215	0.165	0.015
-529.062	-200.000	0.084	-0.401
-528.048	251.640	0.230	-0.398
-527.033	-37.525	0.061	-0.033
-526.018	-33.147	0.030	0.017
-525.004	49.482	-0.135	-0.129
-523.989	530.941	-0.049	-0.119
-522.975	-91.874	-0.306	0.088
-521.960	-165.360	0.266	0.012
-520.945	272.039	0.078	0.140
-519.931	-48.940	0.206	-0.100
-518.916	-200.000	-0.014	0.213
-517.902	800.000	0.064	0.219
-516.887	364.435	0.128	-0.260
-515.872	-27.056	-0.425	-0.251
-514.858	800.000	-0.074	-0.233
-513.843	386.970	-0.049	-0.103
-512.829	202.061	-0.062	0.096
-511.814	-33.063	-0.110	0.062
-510.799	13.826	0.117	-0.092
-509.785	30.194	-0.128	-0.111
-508.770	-12.912	-0.051	0.033
-507.756	-52.891	-0.266	0.124
-506.741	154.349	-0.145	0.202
-505.726	14.932	-0.330	0.262
-504.712	-24.107	-0.198	0.120
-503.697	-128.945	0.327	-0.046
-502.683	-161.896	-0.100	-0.005
-501.668	-200.000	-0.016	0.295
-500.653	-65.892	-0.391	-0.159
-499.639	-200.000	0.065	0.340
-498.624	-200.000	-0.082	0.386
-497.610	424.182	0.051	0.111
-496.595	535.877	-0.076	0.184
-495.581	83.039	0.050	-0.055
-494.566	-18.780	-0.101	-0.064
-493.551	800.000	0.038	0.119
-492.537	-200.000	0.034	0.249
-491.522	184.943	0.251	-0.377
-490.508	512.521	0.108	-0.255
-489.493	-64.378	0.387	-0.159
-488.478	274.364	-0.054	-0.096
-487.464	-97.830	0.113	-0.030
-486.449	75.023	-0.214	0.229
-485.435	98.722	-0.125	0.146
-484.420	-200.000	-0.019	-0.229
-483.405	-77.230	-0.144	0.051
-482.391	800.000	0.172	0.523
-481.376	-200.000	-0.017	0.281
-480.362	-76.127	-0.511	-0.183
-479.347	800.000	0.060	-0.210
-478.332	211.880	-0.094	-0.149
-477.318	-73.326	0.221	-0.082
-476.303	-26.437	0.240	-0.143
-475.289	49.252	-0.209	-0.199
-474.274	-70.553	-0.237	0.091
-473.259	800.000	0.035	-0.118
-472.245	-27.827	0.139	0.082
-471.230	-109.011	-0.214	0.046
-470.216	-81.654	-0.106	-0.035
-469.201	537.912	0.030	-0.071
-468.186	-129.764	0.232	0.032
-467.172	-66.139	0.099	0.040
-466.157	225.562	-0.161	0.264
-465.143	-200.000	0.015	0.112
-464.128	-200.000	-0.090	-0.445
-463.113	147.757	-0.170	-0.232
-462.099	26.625	0.080	0.068
-461.084	5.721	0.238	0.178
-460.070	37.873	0.042	0.038
-459.055	637.725	-0.058	-0.150
-458.040	13.896	-0.147	0.116
-457.026	-75.388	0.354	0.128
-456.011	-43.933	-0.347	0.176
-454.997	167.137	-0.127	0.183
-453.982	76.779	0.060	-0.064
-452.968	92.511	0.251	-0.286
-451.953	223.131	0.058	0.095
-450.938	-129.236	0.146	0.021
-449.924	764.372	0.053	0.146
-448.909	-200.000	-0.004	-0.158
-447.895	-84.699	-0.455	0.145
-446.880	247.839	0.138	0.236
-445.865	-164.716	-0.080	-0.004
-444.851	32.331	-0.068	0.059
-443.836	-72.992	-0.295	-0.110
-442.822	-49.737	-0.208	0.100
-441.807	6.472	-0.053	-0.040
-440.792	-183.563	0.459	0.008
-439.778	-200.000	-0.044	-0.200
-438.763	-0.774	-0.042	-0.030
-437.749	466.081	0.022	0.050
-436.734	161.270	0.112	0.158
-435.719	36.049	-0.252	0.224
-434.705	-9.526	0.243	0.164
-433.690	-75.789	-0.166	0.059
-432.676	-200.000	-0.047	0.274
-431.661	-130.966	0.162	-0.022
-430.646	-23.851	0.210	-0.127
-429.632	771.482	-0.095	0.261
-428.617	-200.000	-0.037	-0.307
-427.603	188.923	0.087	0.132
-426.588	82.992	-0.088	0.097
-425.573	90.691	-0.344	-0.390
-424.559	-173.508	-0.170	0.005
-423.544	-56.266	0.057	0.026
-422.530	269.601	-0.061	0.108
-421.515	16.842	0.116	0.093
-420.500	-95.207	0.221	0.060
-419.486	86.951	0.124	-0.138
-418.471	-72.763	0.204	0.076
-417.457	800.000	-0.099	-0.298
-416.442	-80.993	-0.169	-0.057
-415.428	-58.051	0.277	0.122
-414.413	-105.230	-0.442	-0.102
-413.398	800.000	-0.114	0.470
-412.384	79.612	-0.157	0.170
-411.369	-200.000	-0.006	0.261
-410.355	-15.266	0.348	0.224
-409.340	-200.000	0.012	-0.286
-408.325	24.137	0.390	-0.325
-407.311	-134.885	-0.120	-0.015
-406.296	90.791	-0.092	0.104
-405.282	-122.583	-0.207	0.034
-404.267	135.698	-0.073	0.096
-403.252	251.844	-0.090	-0.154
-402.238	179.633	-0.175	-0.259
-401.223	-54.313	-0.378	-0.173
-400.209	800.000	0.105	-0.392
-399.194	-27.200	0.192	0.113
-398.179	-107.833	0.129	0.028
-397.165	-200.000	0.014	-0.071
-396.150	-200.000	0.026	0.304
-395.136	58.780	0.202	-0.200
-394.121	364.265	0.160	-0.324
-393.106	-125.783	0.167	0.025
-392.092	800.000	-0.070	0.209
-391.077	-176.892	0.468	0.012
-390.063	-43.378	0.109	-0.055
-389.048	-152.864	-0.151	-0.011
-388.033	86.414	-0.151	0.167
-387.019	-62.525	-0.215	-0.090
-386.004	-25.056	-0.203	-0.122
-384.990	-41.233	0.154	0.080
-383.975	-82.764	-0.286	0.093
-382.960	340.106	0.176	0.347
-381.946	330.492	0.075	-0.145
-380.931	22.245	0.096	0.079
-379.917	-200.000	0.048	-0.287
-378.902	-59.942	-0.071	0.030
-377.888	-104.730	-0.253	-0.059
-376.873	47.076	0.231	-0.217
-375.858	115.801	0.042	-0.052
-374.844	-122.219	0.391	-0.064
-373.829	299.190	-0.136	0.252
-372.815	-130.584	-0.310	-0.042
-371.800	504.850	-0.184	-0.429
-370.785	116.552	-0.085	-0.105
-369.771	-126.694	0.302	0.045
-368.756	-200.000	-0.059	-0.370
-367.742	-68.688	-0.131	-0.051
-366.727	-200.000	-0.002	-0.099
-365.712	236.868	0.052	0.086
-364.698	258.540	-0.052	-0.091
-363.683	-97.774	-0.284	-0.074
-362.669	800.000	0.105	0.332
-361.654	117.181	0.066	-0.082
-360.639	-200.000	0.061	0.367
-359.625	212.510	-0.017	0.027
-358.610	-22.666	-0.407	-0.248
-357.596	-116.210	0.239	0.045
-356.581	-200.000	-0.311	0.001
-355.566	281.653	0.080	-0.144
-354.552	604.362	-0.017	0.043
-353.537	800.000	0.019	0.070
-352.523	800.000	-0.027	-0.102
-351.508	-117.610	-0.136	-0.025
-350.493	46.403	0.247	-0.230
-349.479	-16.814	-0.189	0.120
-348.464	-90.969	-0.205	-0.059
-347.450	800.000	-0.084	-0.319
-346.435	78.111	0.069	0.074
-345.420	-16.035	0.225	-0.144
-344.406	248.664	0.083	-0.141
-343.391	0.489	0.113	0.081
-342.377	-48.077	0.050	0.024
-341.362	-33.603	-0.114	-0.063
-340.348	-112.645	-0.405	-0.081
-339.333	-43.266	0.064	0.033
-338.318	-17.563	-0.357	0.226
-337.304	800.000	0.005	-0.014
-336.289	58.623	-0.146	-0.145
-335.275	800.000	0.094	-0.353
-334.260	-121.501	-0.208	-0.035
-333.245	-127.323	0.108	-0.016
-332.231	-83.963	-0.181	-0.058
-331.216	90.249	-0.132	-0.149
-330.202	-33.465	-0.260	0.145
-329.187	-134.331	0.412	0.051
-328.172	-130.562	0.023	-0.003
-327.158	-50.046	0.066	-0.031
-326.143	-200.000	0.048	0.277
-325.129	89.869	0.129	0.144
-324.114	-98.191	0.211	-0.055
-323.099	-182.316	-0.350	-0.007
-322.085	-200.000	-0.003	0.055
-321.070	-109.411	0.094	-0.020
-320.056	-200.000	0.011	-0.208
-319.041	161.448	0.070	-0.099
-318.026	738.574	0.134	0.362
-317.012	-200.000	-0.032	0.225
-315.997	62.581	0.066	-0.067
-314.983	800.000	-0.027	0.104
-313.968	-9.995	0.203	-0.136
-312.953	-200.000	0.020	0.126
-311.939	-123.287	-0.095	0.015
-310.924	180.184	0.152	-0.224
-309.910	-111.416	0.184	0.038
-308.895	-110.622	-0.097	0.020
-307.880	91.476	-0.094	0.107
-306.866	437.765	-0.149	0.327
-305.851	-200.000	0.014	0.129
-304.837	188.802	-0.080	-0.120
-303.822	800.000	0.116	0.410
-302.807	150.488	-0.203	0.277
-301.793	800.000	-0.014	0.057
-300.778	70.964	0.123	-0.128
-299.764	112.901	-0.137	0.167
-298.749	427.143	-0.057	-0.123
-297.735	-200.000	-0.044	-0.350
-296.720	-93.685	-0.219	0.061
-295.705	-41.812	0.424	-0.219
-294.691	-200.000	-0.040	-0.182
-293.676	-75.710	-0.107	-0.038
-292.662	-36.219	0.214	0.116
-291.647	-200.000	-0.025	0.168
-290.632	-101.100	-0.144	-0.035
-289.618	800.000	0.099	0.292
-288.603	59.193	0.297	0.294
-287.589	-104.445	-0.177	-0.041
-286.574	-200.000	0.005	-0.100
-285.559	-8.494	0.171	-0.115
-284.545	-97.679	-0.274	-0.071
-283.530	306.001	0.214	-0.400
-282.516	-187.108	0.214	0.003
-281.501	-60.728	-0.388	-0.165
-280.486	-200.000	0.013	0.206
-279.472	800.000	-0.092	-0.323
-278.457	-79.541	-0.168	-0.057
-277.443	107.657	-0.161	-0.193
-276.428	87.379	0.182	0.202
-275.413	-200.000	0.023	-0.107
-274.399	-5.751	0.055	0.038
-273.384	204.544	0.201	-0.313
-272.370	-126.677	-0.304	0.045
-271.355	-52.742	0.085	-0.039
-270.340	333.216	-0.127	-0.246
-269.326	-200.000	-0.006	0.049
-268.311	719.776	-0.126	-0.337
-267.297	-37.882	-0.282	0.150
-266.282	-143.502	0.531	0.051
-265.267	-153.402	0.139	0.010
-264.253	-110.505	0.190	-0.039
-263.238	276.326	0.153	0.273
-262.224	5.071	-0.157	0.116
-261.209	107.271	-0.220	-0.262
-260.195	265.297	0.195	-0.342
-259.180	-78.463	0.414	-0.142
-258.165	-9.057	0.217	-0.146
-257.151	374.609	0.112	0.229
-256.136	64.458	-0.353	0.357
-255.122	-31.954	-0.031	-0.018
-254.107	18.363	-0.087	0.070
-253.092	-57.926	-0.274	0.120
-252.078	-65.206	0.125	0.051
-251.063	128.348	0.209	0.267
-250.049	88.957	0.133	-0.148
-249.034	295.224	0.108	0.199
-248.019	-8.388	-0.103	-0.070
-247.005	-140.125	-0.195	0.021
-245.990	-200.000	0.072	0.423
-244.976	800.000	-0.089	-0.271
-243.961	-55.255	-0.246	0.111
-242.946	-139.874	0.224	0.024
-241.932	128.648	-0.033	0.042
-240.917	6.979	0.051	-0.038
-239.903	-43.730	0.228	0.115
-238.888	800.000	-0.025	-0.101
-237.873	-194.175	0.143	0.001
-236.859	709.285	0.080	-0.211
-235.844	86.944	-0.102	0.112
-234.830	-200.000	-0.036	-0.279
-233.815	800.000	-0.097	0.279
-232.800	-200.000	0.029	0.321
-231.786	-200.000	0.099	0.438
-230.771	-72.468	0.165	-0.061
-229.757	-61.705	0.241	0.101
-228.742	54.876	0.127	0.122
-227.727	-34.020	0.025	-0.014
-226.713	104.781	-0.077	-0.090
-225.698	33.437	-0.279	0.243
-224.684	-47.115	-0.093	-0.045
-223.669	800.000	-0.059	0.196
-222.655	73.657	-0.284	0.298
-221.640	-129.382	-0.040	0.006
-220.625	-200.000	-0.023	-0.112
-219.611	19.145	-0.180	-0.144
-218.596	-200.000	0.054	0.298
-217.582	32.342	0.306	-0.265
-216.567	-200.000	-0.076	0.446
-215.552	-160.925	-0.062	0.003
-214.538	-51.642	0.220	0.103
-213.523	-140.592	-0.090	0.009
-212.509	36.651	0.128	-0.113
-211.494	399.921	0.151	0.317
-210.479	-200.000	-0.005	-0.147
-209.465	-34.646	-0.465	-0.255
-208.450	-164.378	0.374	-0.017
-207.436	-104.716	0.115	-0.027
-206.421	800.000	-0.076	-0.228
-205.406	159.954	0.162	0.226
-204.392	-99.375	0.180	-0.045
-203.377	330.416	-0.016	-0.030
-202.363	-36.893	-0.104	0.056
-201.348	414.735	-0.141	-0.301
-200.333	168.596	0.024	-0.034
-199.319	151.588	-0.156	0.212
-198.304	277.235	0.063	0.112
-197.290	99.190	0.129	-0.149
-196.275	-19.832	0.106	0.065
-195.260	-121.169	0.134	0.023
-194.246	-200.000	-0.066	0.340
-193.231	68.258	-0.009	0.009
-192.217	-154.561	0.288	-0.019
-191.202	239.866	0.157	0.263
-190.187	-16.695	0.082	-0.052
-189.173	800.000	0.145	0.478
-188.158	800.000	-0.039	-0.154
-187.144	101.289	-0.178	-0.208
-186.129	-200.000	-0.038	-0.177
-185.114	1.718	0.227	-0.163
-184.100	299.542	-0.058	0.107
-183.085	-45.088	-0.275	0.137
-182.071	-200.000	-0.055	-0.267
-181.056	491.086	0.065	0.149
-180.042	147.511	0.035	0.047
-179.027	-70.667	0.341	-0.129
-178.012	-99.604	0.273	0.069
-176.998	-197.206	0.212	-0.001
-175.983	-200.000	-0.003	0.204
-174.969	-194.360	-0.182	0.001
-173.954	-71.680	0.280	0.105
-172.939	206.427	0.229	0.357
-171.925	800.000	0.048	-0.158
-170.910	269.418	-0.070	0.123
-169.896	800.000	0.061	-0.204
-168.881	-32.953	0.166	-0.092
-167.866	23.441	-0.153	0.126
-166.852	532.458	-0.072	0.170
-165.837	87.458	-0.102	0.113
-164.823	-200.000	-0.052	-0.230
-163.808	190.050	-0.041	0.062
-162.793	-200.000	0.020	0.185
-161.779	-125.630	0.386	-0.059
-160.764	-39.046	0.100	0.053
-159.750	800.000	0.104	0.360
-158.735	800.000	0.054	-0.230
-157.720	-175.904	0.181	0.005
-156.706	-200.000	0.004	-0.108
-155.691	427.579	0.057	0.123
-154.677	-200.000	-0.010	-0.135
-153.662	-200.000	0.042	0.384
-152.647	11.498	0.254	-0.195
-151.633	-200.000	-0.020	0.157
-150.618	-50.836	-0.188	0.089
-149.604	2.985	0.227	0.165
-148.589	-1.693	0.233	-0.164
-147.574	-147.198	0.236	0.020
-146.560	-200.000	0.099	0.476
-145.545	-112.632	-0.285	0.057
-144.531	432.884	0.023	0.049
-143.516	8.602	0.141	-0.106
-142.502	800.000	-0.020	0.056
-141.487	4.494	0.074	0.054
-140.472	-126.843	0.124	-0.018
-139.458	-200.000	0.023	-0.131
-138.443	800.000	-0.024	-0.103
-137.429	-177.954	-0.445	0.011
-136.414	-200.000	-0.028	0.137
-135.399	-166.563	0.191	0.008
-134.385	-127.374	0.299	0.043
-133.370	79.257	0.028	0.030
-132.356	-200.000	0.011	-0.146
-131.341	61.481	0.295	0.293
-130.326	-200.000	-0.014	0.227
-129.312	-150.085	0.265	0.021
-128.297	-137.770	-0.436	0.049
-127.283	-200.000	0.048	-0.255
-126.268	800.000	-0.038	-0.110
-125.253	-89.578	0.113	-0.033
-124.239	59.428	0.089	0.088
-123.224	110.968	0.044	0.053
-122.210	-71.056	-0.434	-0.163
-121.195	-11.543	0.175	0.115
-120.180	-163.091	0.160	0.008
-119.166	-200.000	0.016	0.072
-118.151	-26.506	0.417	-0.244
-117.137	14.814	0.040	0.031
-116.122	-144.927	0.459	-0.042
-115.107	180.017	0.184	0.270
-114.093	-79.379	-0.112	-0.038
-113.078	636.554	0.033	0.085
-112.064	99.036	0.135	0.156
-111.049	69.359	-0.109	-0.111
-110.034	761.789	-0.048	-0.129
-109.020	-200.000	-0.056	-0.251
-108.005	-177.721	0.197	-0.005
-106.991	726.588	0.050	-0.133
-105.976	-200.000	0.030	0.223
-104.962	-1.572	0.086	0.060
-103.947	800.000	-0.049	-0.198
-102.932	-31.276	0.050	0.028
-101.918	-7.953	-0.133	-0.089
-100.903	-16.690	0.185	0.117
-99.889	-62.493	-0.139	0.058
-98.874	-125.258	0.346	0.053
-97.859	-23.645	-0.144	0.086
-96.845	162.710	-0.182	0.255
-95.830	295.821	0.084	0.154
-94.816	53.712	-0.200	-0.191
-93.801	39.857	-0.404	-0.361
-92.786	554.689	-0.091	0.219
-91.772	76.443	0.122	-0.129
-90.757	-136.455	0.144	-0.017
-89.743	334.164	0.094	0.181
-88.728	-192.328	0.181	-0.002
-87.713	-28.070	0.167	0.097
-86.699	800.000	0.056	0.202
-85.684	172.019	0.171	-0.244
-84.670	-200.000	-0.024	0.234
-83.655	140.373	-0.069	-0.091
-82.640	-200.000	-0.031	-0.384
-81.626	-69.925	0.197	-0.075
-80.611	-200.000	0.002	0.060
-79.597	188.993	0.116	0.172
-78.582	-75.333	-0.405	-0.144
-77.567	-200.000	0.012	-0.090
-76.553	361.200	0.088	-0.175
-75.538	8.569	0.174	-0.130
-74.524	-100.580	-0.221	0.055
-73.509	-2.660	0.258	-0.180
-72.494	-12.316	0.242	-0.157
-71.480	59.540	-0.195	-0.192
-70.465	-159.209	0.239	-0.013
-69.451	-114.027	-0.178	0.034
-68.436	-46.209	-0.135	-0.066
-67.422	-155.790	0.056	-0.004
-66.407	-200.000	0.027	-0.245
-65.392	-56.695	0.039	0.017
-64.378	-1.935	-0.100	0.070
-63.363	93.974	-0.138	0.156
-62.349	800.000	0.124	0.343
-61.334	-32.485	-1.041	-0.578
-60.319	-111.412	0.658	0.134
-59.305	-200.000	-0.095	-1.051
-58.290	37.682	0.544	0.481
-57.276	472.924	0.743	1.667
-56.261	-200.000	85.037	495.864
-55.246	518.928	1396.346	3255.759
-54.232	180.369	2618.874	3825.139
-53.217	118.430	2241.281	2753.267
-52.203	48.695	1684.153	1572.067
-51.188	41.289	1413.288	1272.131
-50.173	38.033	1368.965	1212.009
-49.159	56.563	1410.829	1366.127
-48.144	61.266	1429.915	1414.168
-47.130	41.774	1388.569	1252.724
-46.115	38.009	1371.139	1213.593
-45.100	37.842	1366.226	1208.158
-44.086	37.780	1363.559	1205.369
-43.071	37.801	1360.881	1203.087
-42.057	37.806	1358.884	1201.299
-41.042	37.783	1357.239	1199.658
-40.027	37.866	1355.574	1198.649
-39.013	37.764	1353.666	1196.286
-37.998	37.755	1351.903	1194.625
-36.984	37.808	1350.325	1193.513
-35.969	37.931	1347.911	1192.082
-34.954	37.975	1346.432	1190.991
-33.940	37.926	1345.111	1189.479
-32.925	38.053	1343.423	1188.711
-31.911	38.169	1341.748	1187.891
-30.896	38.077	1340.817	1186.460
-29.881	38.150	1339.005	1185.251
-28.867	38.039	1337.928	1183.576
-27.852	38.064	1336.145	1182.103
-26.838	38.065	1334.843	1180.910
-25.823	38.056	1333.512	1179.636
-24.809	38.067	1332.457	1178.719
-23.794	38.015	1330.755	1176.857
-22.779	37.981	1329.539	1175.530
-21.765	38.153	1328.405	1175.514
-20.750	37.972	1326.845	1172.997
-19.736	37.942	1325.084	1171.214
-18.721	37.851	1324.095	1169.749
-17.706	37.939	1323.135	1169.378
-16.692	37.922	1321.873	1168.116
-15.677	37.973	1320.708	1167.347
-14.663	37.929	1319.388	1165.868
-13.648	37.982	1318.058	1164.964
-12.633	37.905	1317.130	1163.641
-11.619	37.929	1316.112	1162.840
-10.604	37.937	1315.526	1162.322
-9.590	37.868	1314.543	1160.997
-8.575	37.894	1313.640	1160.304
-7.560	37.866	1312.617	1159.192
-6.546	37.852	1311.645	1158.203
-5.531	37.838	1310.825	1157.351
-4.517	37.968	1309.694	1157.074
-3.502	37.931	1308.779	1156.005
-2.487	37.882	1307.927	1154.915
-1.473	37.936	1304.239	1151.928
-0.458	36.687	1288.601	1130.781
0.556	33.480	1268.380	1086.700
1.571	29.254	1271.207	1064.673
2.586	27.689	1285.308	1067.237
3.600	26.077	1272.777	1047.392
4.615	19.477	1196.735	948.580
5.629	9.609	1115.688	833.444
6.644	5.041	1092.913	793.169
7.659	4.822	1090.149	789.985
8.673	4.929	1089.183	789.757
9.688	4.819	1088.407	788.565
10.702	5.078	1086.687	788.561
11.717	10.374	1094.919	821.377
12.731	19.046	1106.591	874.313
13.746	21.424	1108.485	887.823
14.761	20.033	1105.907	878.631
15.775	18.857	1104.279	871.298
16.790	17.792	1101.851	863.916
17.804	17.077	1100.103	858.854
18.819	16.713	1099.178	856.213
19.834	16.554	1098.055	854.458
20.848	16.225	1097.326	852.157
21.863	16.018	1096.779	850.609
22.877	15.891	1096.159	849.411
23.892	15.929	1095.196	848.783
24.907	15.880	1094.591	847.993
25.921	15.949	1093.025	847.051
26.936	15.978	1092.150	846.445
27.950	15.963	1090.657	845.137
28.965	16.100	1089.085	844.530
29.980	16.229	1087.349	843.756
30.994	16.222	1086.211	842.760
32.009	16.276	1085.282	842.234
33.023	16.227	1083.927	840.865
34.038	16.187	1082.912	839.803
35.053	16.143	1082.305	839.040
36.067	16.039	1081.715	837.991
37.082	16.181	1080.370	837.580
38.096	16.262	1079.678	837.372
39.111	16.263	1078.858	836.666
40.126	16.096	1077.388	834.628
41.140	15.933	1076.219	832.844
42.155	15.820	1074.543	830.915
43.169	15.733	1073.887	829.901
44.184	15.863	1072.735	829.581
45.199	15.705	1071.965	828.135
46.213	15.878	1070.760	827.978
47.228	15.999	1069.672	827.661
48.242	15.973	1068.395	826.471
49.257	15.908	1067.585	825.450
50.271	16.036	1066.742	825.356
51.286	16.097	1065.837	824.879
52.301	15.988	1064.802	823.473
53.315	15.981	1063.739	822.544
54.330	15.910	1062.486	821.155
55.344	15.903	1061.247	820.090
56.359	16.050	1060.534	820.186
57.374	15.881	1059.764	818.692
58.388	15.709	1058.986	817.182
59.403	15.750	1058.182	816.690
60.417	15.741	1057.873	816.338
61.432	15.853	1056.489	815.739
62.447	15.631	1055.617	813.920
63.461	15.636	1054.679	813.149
64.476	15.729	1053.693	812.766
65.490	15.705	1053.003	812.043
66.505	15.764	1052.690	812.017
67.520	15.654	1052.262	811.086
68.534	15.642	1051.335	810.239
69.549	15.743	1050.125	809.720
70.563	15.604	1049.322	808.362
71.578	15.700	1048.309	807.971
72.593	15.483	1047.933	806.567
73.607	15.475	1047.154	805.857
74.622	15.614	1046.283	805.785
75.636	15.490	1045.578	804.576
76.651	15.610	1044.893	804.552
77.666	15.599	1044.336	803.998
78.680	15.713	1043.334	803.700
79.695	15.612	1042.933	802.838
80.709	15.728	1042.339	802.866
81.724	15.777	1041.404	802.308
82.739	15.913	1040.636	802.291
83.753	16.067	1040.083	802.530
84.768	16.163	1039.255	802.277
85.782	16.184	1038.301	801.566
86.797	16.172	1037.466	800.797
87.812	16.105	1036.211	799.436
88.826	15.988	1035.753	798.461
89.841	16.191	1034.420	798.319
90.855	16.242	1033.828	798.034
91.870	16.186	1032.905	796.988
92.884	16.250	1031.947	796.481
93.899	16.187	1031.480	795.754
94.914	16.314	1030.491	795.515
95.928	16.427	1029.551	795.254
96.943	16.101	1028.943	793.178
97.957	16.138	1027.840	792.433
98.972	16.166	1026.955	791.809
99.987	16.063	1026.165	790.651
101.001	16.152	1024.621	789.807
102.016	16.146	1024.052	789.268
103.030	16.189	1023.538	789.005
104.045	16.190	1022.712	788.304
105.060	16.042	1021.774	786.819
106.074	15.968	1020.566	785.475
107.089	15.774	1019.559	783.727
108.103	15.793	1018.404	782.858
109.118	15.807	1017.279	781.991
110.133	15.736	1016.818	781.235
111.147	15.793	1015.454	780.385
112.162	15.716	1014.913	779.542
113.176	15.804	1014.538	779.590
114.191	15.881	1014.036	779.492
115.206	15.945	1012.762	778.740
116.220	15.890	1011.551	777.488
117.235	15.892	1010.801	776.849
118.249	15.913	1009.933	776.210
119.264	15.821	1009.469	775.361
120.279	15.755	1008.457	774.216
121.293	15.856	1007.752	774.068
122.308	15.764	1006.823	772.862
123.322	15.758	1005.084	771.434
124.337	15.709	1004.488	770.683
125.352	15.812	1003.556	770.371
126.366	15.603	1002.848	768.804
127.381	15.771	1001.399	768.390
128.395	15.855	1000.243	767.822
129.410	15.773	1000.231	767.370
130.424	15.918	998.808	766.868
131.439	15.938	998.178	766.408
132.454	15.956	997.139	765.624
133.468	16.121	996.491	765.808
134.483	15.978	995.708	764.489
135.497	16.017	994.641	763.782
136.512	16.014	993.813	763.064
137.527	16.055	992.920	762.495
138.541	16.022	992.764	762.158
139.556	16.041	992.053	761.630
140.570	16.075	991.300	761.140
141.585	16.235	990.958	761.534
142.600	16.269	989.545	760.532
143.614	16.332	988.896	760.250
144.629	16.321	988.069	759.497
145.643	16.403	986.746	758.783
146.658	16.282	985.643	757.322
147.673	16.204	984.388	755.940
148.687	16.072	984.085	755.050
149.702	16.004	982.957	753.817
150.716	16.036	982.558	753.587
151.731	16.144	981.340	753.068
152.746	16.107	980.619	752.284
153.760	16.059	980.192	751.676
154.775	16.130	979.817	751.637
155.789	16.235	979.457	751.762
156.804	16.241	978.332	750.858
157.819	16.290	977.479	750.353
158.833	16.339	977.199	750.291
159.848	16.369	976.331	749.690
160.862	16.327	975.119	748.510
161.877	16.296	973.832	747.316
162.892	16.101	972.890	745.667
163.906	15.965	972.299	744.545
164.921	16.163	971.205	744.515
165.935	16.208	970.214	743.891
166.950	16.271	969.486	743.543
167.964	16.252	968.538	742.667
168.979	16.136	967.587	741.359
169.994	16.233	966.777	741.101
171.008	16.319	966.248	741.006
172.023	16.269	965.367	740.049
173.037	16.309	964.855	739.765
174.052	16.370	964.282	739.524
175.067	16.192	963.308	737.934
176.081	16.100	963.047	737.270
177.096	16.078	962.248	736.494
178.110	16.085	962.060	736.317
179.125	16.305	960.978	736.381
180.140	16.283	960.403	735.783
181.154	16.370	960.408	736.099
182.169	16.461	959.699	735.887
183.183	16.371	959.134	734.999
184.198	16.516	957.865	734.588
185.213	16.438	957.355	733.796
186.227	16.563	956.721	733.786
187.242	16.556	956.673	733.655
188.256	16.659	955.296	732.980
189.271	16.748	954.811	732.928
190.286	16.469	953.882	730.942
191.300	16.197	952.694	728.792
192.315	16.171	952.214	728.250
193.329	16.223	951.996	728.243
194.344	16.248	951.523	727.926
195.359	16.442	950.221	727.698
196.373	16.542	949.900	727.818
197.388	16.609	949.545	727.770
198.402	16.706	949.261	727.906
199.417	16.700	948.789	727.453
200.432	16.809	948.215	727.419
201.446	16.889	947.332	727.020
202.461	16.989	947.007	727.131
203.475	16.897	946.284	726.119
204.490	16.709	945.390	724.566
205.504	16.734	944.387	723.838
206.519	16.685	943.872	723.170
207.534	16.665	943.192	722.503
208.548	16.763	942.241	722.128
209.563	16.728	941.912	721.663
210.577	16.760	941.006	721.041
211.592	16.841	940.326	720.798
212.607	16.796	939.833	720.167
213.621	16.801	938.944	719.441
214.636	16.842	938.033	718.855
215.650	16.882	937.500	718.551
216.665	16.794	937.002	717.736
217.680	16.889	936.363	717.583
218.694	17.047	935.482	717.513
219.709	17.104	934.636	717.043
220.723	16.986	933.858	715.882
221.738	16.995	933.071	715.256
222.753	17.047	932.572	715.029
223.767	17.040	932.221	714.665
224.782	17.113	931.563	714.404
225.796	17.146	930.899	713.970
226.811	17.064	930.349	713.144
227.826	17.005	929.681	712.319
228.840	17.062	928.792	711.815
229.855	17.010	928.085	710.992
230.869	16.979	927.009	709.976
231.884	16.886	926.505	709.136
232.899	16.956	925.967	708.954
233.913	16.873	924.998	707.805
234.928	16.946	924.228	707.456
235.942	16.937	923.705	706.954
236.957	17.074	923.237	707.104
237.972	16.963	922.566	706.069
238.986	16.832	922.144	705.137
240.001	16.935	921.064	704.675
241.015	16.929	920.911	704.473
242.030	17.068	919.858	704.181
243.045	17.144	919.231	703.955
244.059	17.042	919.091	703.363
245.074	17.115	918.449	703.110
246.088	16.988	918.033	702.203
247.103	17.164	917.201	702.235
248.117	17.316	916.895	702.564
249.132	17.400	916.033	702.190
250.147	17.635	915.380	702.594
251.161	17.651	914.890	702.224
252.176	17.554	914.587	701.528
253.190	17.678	913.452	701.108
254.205	17.623	912.984	700.457
255.220	17.664	911.909	699.741
256.234	17.747	911.704	699.862
257.249	17.808	910.592	699.195
258.263	17.842	909.827	698.685
259.278	17.642	909.682	697.693
260.293	17.754	909.166	697.696
261.307	17.735	908.263	696.864
262.322	17.860	907.403	696.650
263.336	17.880	906.611	696.065
264.351	17.920	905.942	695.651
265.366	17.890	905.367	695.026
266.380	17.840	904.777	694.307
267.395	17.869	903.945	693.725
268.409	17.775	903.584	693.006
269.424	17.781	902.709	692.298
270.439	17.751	902.053	691.612
271.453	17.719	900.961	690.584
272.468	17.722	900.737	690.364
273.482	17.956	899.775	690.511
274.497	17.856	899.422	689.776
275.512	17.808	898.780	689.028
276.526	17.784	898.447	688.615
277.541	17.688	898.416	688.143
278.555	18.010	897.242	688.481
279.570	18.055	896.897	688.337
280.585	17.976	896.160	687.392
281.599	18.038	894.953	686.654
282.614	17.836	894.561	685.480
283.628	17.972	893.849	685.419
284.643	17.939	893.365	684.855
285.657	17.980	892.674	684.432
286.672	17.983	891.810	683.717
287.687	18.012	891.042	683.187
288.701	17.980	890.714	682.745
289.716	18.001	890.370	682.508
290.730	17.878	889.780	681.504
291.745	18.111	888.727	681.566
292.760	18.162	888.143	681.259
293.774	18.094	887.671	680.567
294.789	18.157	886.898	680.163
295.803	18.088	886.569	679.577
296.818	17.978	885.984	678.633
297.833	18.058	885.147	678.250
298.847	18.030	884.719	677.747
299.862	18.205	883.970	677.807
300.876	18.160	883.452	677.173
301.891	18.289	882.819	677.137
302.906	18.198	882.461	676.444
303.920	18.353	881.955	676.609
304.935	18.482	881.397	676.631
305.949	18.353	880.802	675.605
306.964	18.401	879.883	675.030
307.979	18.444	879.375	674.748
308.993	18.354	879.065	674.099
310.008	18.503	878.079	673.867
311.022	18.447	877.508	673.150
312.037	18.336	876.911	672.196
313.052	18.298	876.135	671.394
314.066	18.214	875.670	670.646
315.081	18.292	875.122	670.473
316.095	18.240	874.122	669.445
317.110	18.211	873.889	669.094
318.125	18.213	873.176	668.495
319.139	18.320	873.026	668.742
320.154	18.324	872.278	668.126
321.168	18.317	872.258	668.025
322.183	18.388	871.188	667.423
323.197	18.292	870.912	666.776
324.212	18.338	870.213	666.362
325.227	18.305	869.873	665.914
326.241	18.398	868.924	665.491
327.256	18.331	868.614	664.932
328.270	18.342	868.070	664.502
329.285	18.360	867.336	663.951
330.300	18.550	866.140	663.710
331.314	18.396	865.995	662.946
332.329	18.419	865.502	662.597
333.343	18.592	865.292	663.048
334.358	18.624	864.976	662.869
335.373	18.654	864.478	662.545
336.387	18.709	863.930	662.279
337.402	18.597	863.956	661.810
338.416	18.855	863.549	662.435
339.431	18.859	863.172	662.100
340.446	18.873	862.750	661.773
341.460	18.899	862.389	661.535
342.475	18.957	862.235	661.583
343.489	18.966	861.381	660.902
344.504	18.965	861.075	660.606
345.519	19.132	860.308	660.600
346.533	18.990	859.867	659.658
347.548	18.992	859.261	659.143
348.562	18.863	858.832	658.263
349.577	18.849	857.927	657.457
350.592	18.797	857.238	656.671
351.606	18.738	856.574	655.879
352.621	18.791	856.208	655.744
353.635	18.793	855.394	655.068
354.650	18.912	854.446	654.739
355.665	18.954	853.926	654.443
356.679	18.961	853.214	653.867
357.694	18.904	853.022	653.443
358.708	18.948	852.397	653.073
359.723	19.000	851.213	652.306
360.738	19.142	850.960	652.595
361.752	19.191	850.179	652.121
362.767	19.082	849.579	651.191
363.781	19.049	849.511	650.957
364.796	19.058	849.466	650.897
365.810	19.275	848.487	650.913
366.825	19.242	848.482	650.725
367.840	19.253	847.642	650.064
368.854	19.201	847.071	649.374
369.869	19.085	847.014	648.835
370.883	19.213	846.374	648.770
371.898	19.301	846.252	648.951
372.913	19.390	845.548	648.687
373.927	19.361	845.068	648.152
374.942	19.370	844.740	647.879
375.956	19.546	843.929	647.860
376.971	19.542	843.765	647.659
377.986	19.483	843.548	647.216
379.000	19.670	842.529	647.078
380.015	19.498	842.408	646.283
381.029	19.521	841.544	645.648
382.044	19.512	841.334	645.396
383.059	19.708	840.570	645.484
384.073	19.488	839.678	643.924
385.088	19.469	839.059	643.322
386.102	19.383	838.547	642.551
387.117	19.475	838.055	642.461
388.132	19.386	837.301	641.494
389.146	19.597	836.803	641.840
390.161	19.603	836.788	641.792
391.175	19.526	835.826	640.713
392.190	19.511	835.486	640.341
393.205	19.497	834.999	639.857
394.219	19.490	834.320	639.253
395.234	19.507	834.348	639.284
396.248	19.354	834.132	638.494
397.263	19.396	832.932	637.676
398.278	19.420	832.746	637.566
399.292	19.361	832.257	636.916
400.307	19.534	831.782	637.136
401.321	19.488	831.065	636.360
402.336	19.456	830.806	635.985
403.350	19.583	830.303	636.013
404.365	19.697	829.597	635.836
405.380	19.773	829.519	635.999
406.394	19.821	828.882	635.630
407.409	19.887	828.393	635.440
408.423	19.881	828.224	635.234
409.438	20.011	827.779	635.312
410.453	20.116	827.181	635.181
411.467	20.179	826.883	635.126
412.482	20.191	826.554	634.865
413.496	20.152	826.600	634.698
414.511	20.108	825.823	633.886
415.526	20.167	825.248	633.604
416.540	20.101	824.578	632.794
417.555	19.915	824.547	632.034
418.569	19.987	823.949	631.783
419.584	20.094	823.536	631.799
420.599	20.076	823.256	631.462
421.613	152.616	1368.763	1777.828
422.628	132.992	1448.271	1777.936
