DTS Sentinel unit serial number:	SN413079Multiplexer serial number:	ORYXHardware model number:	OX4-SRSoftware version number:	ORYX F/W v4.00 Oryx Data Collector v3.7.2.0data status	okinstallation	princeton_trtdifferential loss correction	single-endedforward channel	channel 1reverse channel	N/Adate	2019/09/12time	19:22:34forward acquisition time	15.00reverse acquisition time	0.00gamma	496.2192k internal	0.2321k external	0.2321temperature offset calibration	1.0121default loss term (dB/km)	0.3790temperature slope calibration	1.0000multiplexer offset coefficient	1.0000multiplexer slope coefficient	1.0000fibre end	0.00T internal ref (°C)	32.37T ext. ref 1 (°C)	3.23T ext. ref 2 (°C)	26.91length (m)	temperature (°C)	Stokes	anti-Stokes-747.200	-200.000	-0.007	-0.038
-746.185	-155.027	-0.403	0.027
-745.171	-200.000	-0.054	-0.345
-744.156	800.000	0.258	-0.751
-743.142	293.508	-0.173	-0.319
-742.127	-51.112	0.672	-0.319
-741.112	-122.053	-0.835	0.138
-740.098	-11.750	-0.670	-0.444
-739.083	-111.706	-0.230	0.047
-738.069	-89.725	0.060	-0.018
-737.054	290.837	0.240	0.441
-736.039	800.000	0.057	-0.212
-735.025	345.661	0.425	-0.844
-734.010	-87.855	-0.626	-0.190
-732.996	181.489	0.394	-0.585
-731.981	-60.923	0.481	0.206
-730.966	-200.000	-0.051	0.284
-729.952	800.000	0.089	0.313
-728.937	-129.975	-0.443	-0.061
-727.923	-200.000	0.093	0.933
-726.908	32.175	-0.641	0.559
-725.894	800.000	0.157	-0.473
-724.879	201.671	0.278	0.433
-723.864	-14.739	0.281	0.183
-722.850	-60.882	-0.377	-0.161
-721.835	-125.437	-1.140	0.175
-720.821	764.206	0.236	-0.646
-719.806	163.191	-0.355	0.504
-718.791	-92.345	0.623	-0.177
-717.777	-43.470	-0.587	-0.299
-716.762	-154.270	0.170	-0.012
-715.748	-163.091	1.124	-0.055
-714.733	-35.325	-0.868	-0.477
-713.718	-49.819	-0.356	-0.171
-712.704	-17.173	-0.574	-0.365
-711.689	-200.000	-0.053	-0.586
-710.675	-100.008	-0.196	0.049
-709.660	206.198	0.437	-0.687
-708.645	-0.422	-0.508	0.364
-707.631	213.972	-0.185	-0.296
-706.616	-56.814	0.474	-0.212
-705.602	-68.303	0.189	0.074
-704.587	800.000	0.062	-0.186
-703.572	20.112	0.487	0.396
-702.558	-6.794	0.547	0.376
-701.543	-200.000	0.013	0.457
-700.529	504.011	-0.186	0.433
-699.514	-200.000	0.049	0.827
-698.499	306.588	0.071	-0.133
-697.485	-200.000	-0.052	-0.476
-696.470	77.967	0.547	-0.588
-695.456	254.257	-0.510	-0.879
-694.441	238.609	-0.286	-0.479
-693.426	800.000	0.173	-0.612
-692.412	-200.000	0.035	0.290
-691.397	199.477	0.264	0.408
-690.383	-90.731	-0.151	0.044
-689.368	77.090	-0.564	-0.604
-688.354	2.258	0.419	-0.306
-687.339	262.456	-0.176	0.308
-686.324	148.372	-0.399	0.543
-685.310	-200.000	-0.196	-0.927
-684.295	-200.000	-0.148	-0.835
-683.281	-1.179	-0.318	-0.226
-682.266	-200.000	0.001	-0.040
-681.251	-90.546	-0.461	0.135
-680.237	-108.073	0.073	-0.016
-679.222	-137.465	-0.041	-0.005
-678.208	-116.252	0.196	0.037
-677.193	-156.173	-0.752	0.048
-676.178	135.566	0.172	0.226
-675.164	-195.499	0.369	-0.003
-674.149	76.775	-0.402	-0.430
-673.135	46.832	-0.791	-0.741
-672.120	118.808	0.204	-0.254
-671.105	-150.443	0.170	-0.013
-670.091	800.000	0.412	-1.328
-669.076	-78.686	0.145	0.050
-668.062	-114.709	-0.791	-0.152
-667.047	-104.368	0.826	-0.193
-666.032	-150.190	-0.459	-0.036
-665.018	-56.612	0.402	-0.179
-664.003	30.462	-0.261	-0.225
-662.989	405.808	0.070	0.148
-661.974	501.617	-0.156	-0.363
-660.959	-50.654	-0.259	0.123
-659.945	19.985	-0.697	0.566
-658.930	-200.000	-0.041	0.719
-657.916	-200.000	-0.139	-0.660
-656.901	-4.070	-0.376	-0.262
-655.886	83.838	-0.307	-0.337
-654.872	37.827	0.153	-0.137
-653.857	491.468	-0.412	0.950
-652.843	44.016	0.161	-0.148
-651.828	-200.000	-0.015	-0.402
-650.814	27.951	-0.506	-0.429
-649.799	-48.654	-0.277	0.134
-648.784	233.222	-0.576	-0.954
-647.770	800.000	-0.117	-0.337
-646.755	-200.000	0.079	0.495
-645.741	387.800	0.379	0.789
-644.726	178.624	-0.352	0.517
-643.711	473.426	-0.283	-0.642
-642.697	-155.441	1.004	0.065
-641.682	332.786	0.293	0.570
-640.668	308.237	0.278	-0.522
-639.653	-138.678	-0.419	0.046
-638.638	570.651	-0.317	0.777
-637.624	181.760	-0.277	-0.410
-636.609	94.040	-0.102	-0.117
-635.595	-21.716	0.253	-0.155
-634.580	-39.376	-0.170	-0.090
-633.565	-200.000	0.089	0.450
-632.551	-22.137	-0.240	-0.146
-631.536	-113.183	-0.476	0.094
-630.522	81.089	0.487	-0.529
-629.507	75.482	-0.491	-0.521
-628.492	-200.000	0.090	-1.199
-627.478	-54.220	-1.000	-0.457
-626.463	800.000	0.356	-1.046
-625.449	-28.205	0.938	-0.545
-624.434	-26.477	0.384	-0.226
-623.419	426.396	-0.354	0.767
-622.405	800.000	-0.057	-0.249
-621.390	-121.267	-0.888	-0.149
-620.376	800.000	0.181	-0.556
-619.361	-38.131	0.812	-0.433
-618.346	-200.000	-0.048	-0.468
-617.332	-54.758	-0.965	-0.438
-616.317	401.649	0.363	-0.768
-615.303	-75.300	-0.506	-0.182
-614.288	800.000	-0.129	0.471
-613.273	800.000	0.097	-0.334
-612.259	51.741	-0.319	-0.305
-611.244	-153.014	-0.753	-0.053
-610.230	-62.719	-0.260	-0.108
-609.215	-71.074	0.192	-0.073
-608.201	8.144	-0.429	-0.324
-607.186	-176.980	0.560	-0.014
-606.171	-7.101	-0.937	-0.639
-605.157	-200.000	0.000	0.343
-604.142	391.120	-0.029	-0.060
-603.128	-41.863	-0.119	-0.062
-602.113	117.047	-0.375	-0.464
-601.098	-104.186	-0.195	-0.046
-600.084	-137.699	-0.465	0.053
-599.069	26.503	-0.594	-0.499
-598.055	-200.000	0.033	0.840
-597.040	-108.626	0.432	-0.093
-596.025	546.389	0.379	0.910
-595.011	-59.481	-0.606	0.261
-593.996	-149.567	-0.423	0.034
-592.982	-196.120	1.109	-0.008
-591.967	-22.905	-0.227	-0.138
-590.952	-59.434	-0.387	-0.167
-589.938	59.780	-0.327	-0.324
-588.923	101.670	-0.731	0.857
-587.909	787.045	0.154	0.424
-586.894	800.000	-0.205	0.580
-585.879	243.333	-0.294	0.495
-584.865	41.136	-0.357	0.324
-583.850	134.059	-0.243	-0.316
-582.836	-200.000	-0.000	0.340
-581.821	-200.000	0.943	0.003
-580.806	-200.000	0.035	-0.156
-579.792	-27.021	-0.058	0.034
-578.777	-200.000	-0.009	1.110
-577.763	383.112	-0.071	0.146
-576.748	-119.620	0.905	-0.157
-575.733	740.620	-0.316	-0.852
-574.719	-58.069	-0.356	-0.156
-573.704	217.833	-0.398	-0.637
-572.690	240.656	-0.005	-0.008
-571.675	-121.726	0.707	-0.117
-570.661	-200.000	-0.041	0.185
-569.646	800.000	0.274	0.800
-568.631	239.266	-0.263	-0.440
-567.617	296.137	0.357	0.656
-566.602	393.910	0.272	-0.568
-565.588	-147.586	0.438	-0.037
-564.573	246.847	0.441	0.747
-563.558	-200.000	-0.022	-0.105
-562.544	-86.089	0.592	0.183
-561.529	-200.000	0.122	-0.544
-560.515	-84.085	0.354	-0.113
-559.500	23.214	-0.171	-0.141
-558.485	275.007	0.705	-1.254
-557.471	-54.592	-0.743	-0.337
-556.456	-111.247	1.133	0.232
-555.442	-58.546	-0.788	0.343
-554.427	-117.123	-0.370	-0.068
-553.412	-174.988	-0.126	-0.004
-552.398	117.488	-0.086	-0.107
-551.383	-52.358	-0.854	-0.397
-550.369	-73.470	-0.588	-0.215
-549.354	128.495	0.082	0.105
-548.339	445.590	0.288	0.634
-547.325	-62.154	0.035	0.015
-546.310	55.586	0.261	0.254
-545.296	-200.000	0.007	0.352
-544.281	800.000	0.193	0.825
-543.266	-200.000	0.090	0.790
-542.252	14.545	-0.112	-0.087
-541.237	88.442	-0.487	-0.543
-540.223	-169.390	-0.565	-0.021
-539.208	-108.524	-0.755	-0.163
-538.193	-79.321	0.744	-0.253
-537.179	-175.588	-0.423	-0.011
-536.164	-200.000	0.072	-0.578
-535.150	77.886	-0.698	-0.746
-534.135	179.119	0.516	-0.757
-533.121	-55.796	0.557	0.249
-532.106	-58.777	-1.511	0.656
-531.091	800.000	0.285	0.788
-530.077	-181.985	-0.132	-0.003
-529.062	11.225	-0.431	0.331
-528.048	-164.578	-0.149	-0.007
-527.033	-37.782	0.402	-0.214
-526.018	-200.000	-0.007	-0.345
-525.004	-26.805	-0.225	0.132
-523.989	165.460	0.589	-0.835
-522.975	-47.296	-0.449	-0.219
-521.960	159.103	-0.060	0.084
-520.945	178.907	-0.579	0.848
-519.931	64.525	0.552	0.558
-518.916	-99.306	-0.519	-0.131
-517.902	47.243	0.147	0.137
-516.887	-200.000	0.519	0.000
-515.872	163.861	-0.414	-0.584
-514.858	178.520	-0.237	0.347
-513.843	-200.000	0.090	0.810
-512.829	432.184	0.129	0.280
-511.814	-200.000	0.039	-0.512
-510.799	-200.000	-0.068	-0.387
-509.785	15.221	0.338	-0.266
-508.770	800.000	0.262	0.967
-507.756	-87.056	-0.277	-0.085
-506.741	143.908	-0.440	-0.588
-505.726	-56.943	-0.113	0.050
-504.712	229.116	0.143	0.233
-503.697	199.886	0.490	-0.753
-502.683	-158.312	-1.110	0.065
-501.668	330.420	0.076	0.146
-500.653	-54.540	-0.184	-0.083
-499.639	-164.302	0.301	-0.014
-498.624	-5.872	0.729	0.499
-497.610	-14.032	0.269	0.174
-496.595	-73.757	-0.958	-0.349
-495.581	-140.111	0.288	0.030
-494.566	-48.098	-0.558	-0.270
-493.551	-120.380	0.604	-0.103
-492.537	-85.496	0.452	-0.141
-491.522	-200.000	0.025	0.150
-490.508	109.911	0.366	0.439
-489.493	-200.000	-0.006	-0.294
-488.478	141.351	0.154	0.203
-487.464	91.982	-0.411	0.463
-486.449	57.662	-0.188	-0.184
-485.435	124.463	-0.379	-0.476
-484.420	48.799	0.225	0.211
-483.405	1.411	-0.162	0.117
-482.391	800.000	-0.141	-0.436
-481.376	-200.000	0.069	-0.349
-480.362	-50.347	0.518	-0.245
-479.347	54.304	0.319	-0.307
-478.332	256.213	0.301	-0.517
-477.318	-200.000	0.011	-0.363
-476.303	466.734	0.288	0.645
-475.289	54.896	0.286	0.276
-474.274	6.376	0.519	-0.385
-473.259	41.582	0.157	-0.142
-472.245	-170.811	0.142	0.005
-471.230	800.000	-0.031	-0.134
-470.216	-200.000	-0.001	-0.394
-469.201	-200.000	0.080	0.500
-468.186	-128.377	0.202	-0.029
-467.172	357.939	-0.311	0.621
-466.157	123.620	0.200	-0.251
-465.143	437.476	-0.231	-0.503
-464.128	-142.450	-0.339	0.033
-463.113	800.000	-0.199	0.567
-462.099	-94.654	1.134	0.308
-461.084	-122.875	0.437	0.070
-460.070	-180.250	-0.591	0.012
-459.055	-200.000	-0.045	-0.338
-458.040	279.890	0.220	0.392
-457.026	-4.315	0.868	0.600
-456.011	780.276	0.099	0.270
-454.997	-200.000	-0.113	0.648
-453.982	587.884	-0.109	-0.268
-452.968	487.587	0.184	0.420
-451.953	77.077	-0.417	0.442
-450.938	475.867	-0.148	0.334
-449.924	-76.572	0.373	-0.131
-448.909	800.000	0.115	-0.344
-447.895	593.345	0.217	-0.537
-446.880	-200.000	0.007	0.375
-445.865	-41.265	-0.332	-0.171
-444.851	75.394	-0.379	0.400
-443.836	20.759	1.050	-0.850
-442.822	-115.866	0.512	0.096
-441.807	-58.471	0.551	0.239
-440.792	800.000	-0.197	-0.664
-439.778	-54.233	-0.873	0.396
-438.763	-200.000	0.141	-0.776
-437.749	-177.697	0.433	-0.010
-436.734	-150.536	0.677	-0.052
-435.719	-88.363	-0.971	-0.290
-434.705	-200.000	-0.007	0.079
-433.690	800.000	-0.101	0.328
-432.676	-200.000	0.046	0.472
-431.661	-95.501	-0.478	-0.128
-430.646	42.970	-0.723	-0.658
-429.632	-169.876	0.349	-0.012
-428.617	-119.276	0.252	-0.044
-427.603	135.963	0.240	-0.311
-426.588	641.489	-0.152	0.386
-425.573	172.208	0.228	0.327
-424.559	-66.296	-0.807	0.320
-423.544	-200.000	-0.043	0.299
-422.530	-200.000	0.073	-0.881
-421.515	174.241	0.114	-0.165
-420.500	-64.523	0.390	0.158
-419.486	-200.000	-0.849	-0.003
-418.471	-158.939	0.588	0.033
-417.457	27.331	0.141	-0.118
-416.442	-11.385	0.744	-0.489
-415.428	96.766	-0.709	-0.811
-414.413	-200.000	0.193	-1.008
-413.398	-200.000	0.065	-0.700
-412.384	800.000	0.138	-0.394
-411.369	-200.000	-0.043	-0.545
-410.355	800.000	0.219	0.888
-409.340	161.841	-0.264	0.369
-408.325	178.787	-0.419	0.611
-407.311	800.000	0.111	-0.340
-406.296	-200.000	0.077	-0.798
-405.282	-99.154	-0.580	0.146
-404.267	800.000	0.106	0.423
-403.252	-29.746	0.302	-0.172
-402.238	16.453	-0.542	0.427
-401.223	5.484	0.582	-0.428
-400.209	-200.000	-0.038	0.619
-399.194	47.181	0.593	0.550
-398.179	-1.895	0.279	-0.195
-397.165	-103.492	-0.155	0.036
-396.150	-161.611	-0.807	-0.041
-395.136	-200.000	0.889	0.001
-394.121	337.264	0.304	0.590
-393.106	15.935	0.374	-0.294
-392.092	800.000	-0.071	-0.202
-391.077	243.528	0.277	-0.463
-390.063	-85.910	-0.739	-0.228
-389.048	-33.433	0.774	0.426
-388.033	-120.790	-0.999	0.168
-387.019	84.610	0.472	0.515
-386.004	800.000	0.173	0.632
-384.990	48.202	0.632	0.589
-383.975	264.116	-0.036	-0.063
-382.960	60.457	-0.380	-0.375
-381.946	342.231	0.166	-0.323
-380.931	800.000	0.054	0.227
-379.917	800.000	0.206	0.664
-378.902	-136.183	0.839	-0.098
-377.888	800.000	0.180	-0.611
-376.873	-49.128	0.614	-0.292
-375.858	-22.300	0.262	0.158
-374.844	-121.973	0.281	-0.046
-373.829	-163.588	0.737	-0.035
-372.815	-79.357	-0.521	0.176
-371.800	800.000	0.099	-0.308
-370.785	-147.196	0.281	-0.024
-369.771	-116.371	0.479	-0.088
-368.756	86.468	-0.398	0.437
-367.742	-13.308	0.967	-0.625
-366.727	-200.000	-0.057	-0.407
-365.712	-200.000	0.052	-0.595
-364.698	-39.010	0.339	0.178
-363.683	-100.867	-0.292	0.071
-362.669	212.523	-0.070	0.110
-361.654	-44.004	-0.638	-0.319
-360.639	-161.336	0.477	-0.025
-359.625	66.573	-0.113	0.114
-358.610	-118.419	-0.364	0.064
-357.596	78.275	-0.215	0.229
-356.581	-200.000	0.018	0.106
-355.566	67.240	-0.641	-0.651
-354.552	90.537	-0.297	0.330
-353.537	16.292	0.057	-0.044
-352.523	800.000	0.035	-0.146
-351.508	-88.459	0.805	-0.239
-350.493	800.000	-0.173	-0.590
-349.479	448.745	-0.317	0.696
-348.464	-120.009	0.559	0.095
-347.450	-135.963	0.501	0.059
-346.435	345.495	-0.253	-0.494
-345.420	-56.528	0.358	-0.158
-344.406	800.000	-0.498	1.692
-343.391	-52.829	-1.282	0.588
-342.377	299.732	0.225	-0.412
-341.362	84.856	-0.101	-0.110
-340.348	-200.000	0.016	-0.134
-339.333	105.339	-0.385	-0.452
-338.318	153.801	0.113	0.154
-337.304	-152.281	0.603	-0.043
-336.289	-12.795	-0.228	-0.148
-335.275	-104.388	0.461	-0.106
-334.260	-200.000	-0.053	0.803
-333.245	-49.929	1.031	0.486
-332.231	11.795	-0.139	0.106
-331.216	-66.398	-0.285	-0.113
-330.202	-148.414	0.499	0.041
-329.187	-139.397	-0.479	0.051
-328.172	-71.701	-0.345	0.128
-327.158	800.000	0.109	0.336
-326.143	41.543	0.653	0.587
-325.129	-200.000	-0.056	0.336
-324.114	800.000	-0.345	0.991
-323.099	800.000	-0.141	0.593
-322.085	37.030	-0.519	0.457
-321.070	800.000	0.170	0.726
-320.056	-91.105	0.497	-0.142
-319.041	-101.774	-0.536	-0.129
-318.026	-200.000	0.038	0.513
-317.012	104.828	0.282	0.331
-315.997	3.347	0.820	-0.593
-314.983	-100.623	-0.192	-0.047
-313.968	-91.236	0.650	-0.185
-312.953	-64.791	-0.889	-0.358
-311.939	-110.633	0.886	0.182
-310.924	80.851	0.228	0.244
-309.910	362.699	-0.320	0.637
-308.895	205.347	-0.102	0.157
-307.880	78.674	-0.339	0.360
-306.866	800.000	-0.179	-0.616
-305.851	54.096	-0.586	-0.560
-304.837	-200.000	0.095	-1.597
-303.822	-57.654	0.530	-0.231
-302.807	388.977	0.224	-0.461
-301.793	90.350	-0.522	-0.580
-300.778	513.835	-0.277	-0.642
-299.764	339.876	-0.347	-0.671
-298.749	9.925	-0.276	0.208
-297.735	-163.625	0.903	0.042
-296.720	185.430	0.449	-0.662
-295.705	800.000	-0.108	0.432
-294.691	-137.624	0.376	-0.042
-293.676	-13.203	0.438	0.283
-292.662	22.076	0.527	-0.427
-291.647	-139.360	-0.987	-0.105
-290.632	800.000	-0.194	0.659
-289.618	402.974	-0.197	-0.412
-288.603	606.964	0.129	-0.319
-287.589	190.072	0.325	0.484
-286.574	-200.000	0.019	0.638
-285.559	-200.000	0.120	0.961
-284.545	-122.158	-0.357	0.058
-283.530	-3.366	-0.746	0.515
-282.516	-128.595	-0.534	0.075
-281.501	18.724	0.511	0.406
-280.486	49.580	0.434	-0.405
-279.472	-60.453	0.235	0.099
-278.457	800.000	0.055	0.154
-277.443	76.492	-0.348	0.366
-276.428	800.000	0.079	-0.305
-275.413	68.214	-0.503	-0.511
-274.399	-131.604	0.518	-0.068
-273.384	38.720	-0.262	-0.232
-272.370	639.507	0.395	-0.996
-271.355	146.393	-0.564	0.751
-270.340	800.000	-0.189	0.595
-269.326	-200.000	-0.052	0.670
-268.311	356.411	-0.113	-0.223
-267.297	800.000	0.028	0.108
-266.282	95.160	0.437	-0.494
-265.267	-37.933	0.497	-0.262
-264.253	800.000	0.163	0.617
-263.238	800.000	0.082	-0.336
-262.224	591.542	0.110	-0.269
-261.209	85.667	-0.225	0.245
-260.195	220.479	-0.505	0.803
-259.180	-139.426	0.222	-0.024
-258.165	8.827	-0.097	0.073
-257.151	150.472	-0.203	-0.273
-256.136	110.341	-0.100	-0.119
-255.122	-63.398	-0.544	0.222
-254.107	-50.233	-0.329	0.154
-253.092	74.387	0.211	0.220
-252.078	4.004	0.265	0.192
-251.063	262.464	-0.256	0.440
-250.049	-200.000	0.026	-0.288
-249.034	-139.660	-0.540	-0.057
-248.019	-23.740	0.145	-0.086
-247.005	-200.000	-0.098	0.577
-245.990	-120.015	-0.535	0.091
-244.976	213.177	0.214	0.336
-243.961	800.000	0.087	0.331
-242.946	800.000	0.252	-0.717
-241.932	147.029	-0.244	0.325
-240.917	575.874	0.085	0.205
-239.903	125.722	-0.248	0.311
-238.888	-200.000	-0.068	0.449
-237.873	175.985	0.305	-0.438
-236.859	-53.525	-0.405	0.184
-235.844	800.000	-0.057	0.226
-234.830	522.838	0.174	0.405
-233.815	800.000	-0.205	0.665
-232.800	800.000	-0.248	-0.808
-231.786	-200.000	0.008	0.898
-230.771	-200.000	0.162	-0.764
-229.757	424.533	0.192	-0.408
-228.742	129.793	-0.460	0.583
-227.727	-17.161	-0.133	-0.083
-226.713	-145.018	0.372	-0.034
-225.698	800.000	0.160	0.600
-224.684	-200.000	0.035	-0.261
-223.669	-200.000	0.010	0.495
-222.655	106.415	-0.426	0.500
-221.640	-150.533	-0.408	0.031
-220.625	800.000	-0.179	-0.703
-219.611	-26.970	0.271	-0.157
-218.596	-3.121	0.085	-0.059
-217.582	-200.000	-0.089	-0.400
-216.567	-200.000	-0.091	0.788
-215.552	241.621	-0.078	-0.129
-214.538	740.224	-0.393	1.045
-213.523	140.441	0.209	-0.274
-212.509	-200.000	-0.034	-0.386
-211.494	-100.523	-1.035	-0.253
-210.479	-200.000	0.165	0.736
-209.465	-200.000	0.147	-0.783
-208.450	51.782	0.289	-0.272
-207.436	800.000	-0.201	0.777
-206.421	89.357	-0.219	0.242
-205.406	616.826	-0.211	-0.523
-204.392	-38.523	-0.393	-0.206
-203.377	-200.000	-0.051	0.287
-202.363	17.595	0.130	0.102
-201.348	4.217	0.599	-0.434
-200.333	-200.000	-0.001	-0.423
-199.319	-114.861	0.730	-0.138
-198.304	-117.128	0.361	-0.065
-197.290	-200.000	-0.005	-0.287
-196.275	52.927	0.376	0.356
-195.260	800.000	0.150	0.610
-194.246	72.317	0.356	0.366
-193.231	123.689	-0.222	0.275
-192.217	84.832	-0.684	-0.741
-191.202	4.001	-0.751	0.543
-190.187	-160.985	0.325	0.017
-189.173	68.219	-0.346	-0.350
-188.158	11.914	-0.466	-0.354
-187.144	-5.309	-0.640	0.435
-186.129	-0.344	0.213	0.150
-185.114	-115.056	0.246	0.046
-184.100	-82.700	0.838	0.268
-183.085	300.758	0.424	0.773
-182.071	-28.606	0.788	-0.449
-181.056	-200.000	0.042	0.537
-180.042	414.904	-0.112	0.235
-179.027	50.383	-0.300	-0.281
-178.012	-156.817	-0.377	-0.023
-176.998	282.530	0.235	-0.417
-175.983	-200.000	-0.008	0.170
-174.969	675.405	0.149	0.382
-173.954	-200.000	0.038	-0.226
-172.939	-125.974	0.731	0.109
-171.925	79.400	0.268	0.284
-170.910	462.759	0.105	0.232
-169.896	47.709	-0.073	-0.067
-168.881	-5.930	-0.542	-0.366
-167.866	133.502	-0.405	-0.518
-166.852	43.763	-0.194	0.176
-165.837	-131.896	-0.326	-0.042
-164.823	8.472	-0.254	-0.189
-163.808	-200.000	0.090	-1.506
-162.793	-200.000	-0.004	-0.447
-161.779	-120.232	0.681	0.115
-160.764	-4.545	0.329	-0.224
-159.750	658.864	0.176	-0.447
-158.735	523.556	-0.061	-0.142
-157.720	315.360	0.021	-0.040
-156.706	-200.000	-0.047	0.485
-155.691	-95.522	0.667	-0.177
-154.677	-3.020	-0.468	0.323
-153.662	48.504	0.406	0.376
-152.647	-17.135	-0.100	0.062
-151.633	-37.382	-0.086	0.045
-150.618	491.811	-0.385	0.871
-149.604	-85.508	-0.866	-0.266
-148.589	-143.288	-0.390	-0.037
-147.574	511.476	0.343	0.788
-146.560	800.000	-0.147	0.416
-145.545	687.836	0.262	-0.675
-144.531	-6.214	-0.155	-0.105
-143.516	169.136	0.104	0.146
-142.502	-193.890	-0.250	-0.002
-141.487	-7.364	0.376	0.251
-140.472	-24.861	-0.184	0.108
-139.458	-100.463	0.254	-0.062
-138.443	-69.248	-0.186	-0.071
-137.429	-200.000	-0.040	0.300
-136.414	-195.055	0.546	0.004
-135.399	-57.701	-0.477	0.206
-134.385	26.641	0.344	-0.285
-133.370	168.756	0.476	-0.669
-132.356	620.385	-0.212	0.527
-131.341	-140.212	0.795	-0.082
-130.326	306.869	0.142	-0.261
-129.312	182.123	-0.184	-0.268
-128.297	8.804	0.075	0.056
-127.283	-30.782	1.015	-0.566
-126.268	-35.687	0.214	-0.115
-125.253	269.327	0.331	-0.574
-124.239	-86.332	-0.527	-0.160
-123.224	2.548	-0.166	-0.118
-122.210	-164.378	0.675	0.030
-121.195	800.000	-0.146	-0.405
-120.180	261.169	0.148	-0.252
-119.166	-109.250	-0.309	-0.065
-118.151	-42.431	0.516	-0.259
-117.137	546.074	0.109	-0.258
-116.122	146.462	-0.754	0.998
-115.107	273.672	-0.188	0.328
-114.093	748.301	-0.146	-0.389
-113.078	-182.800	1.005	-0.018
-112.064	-200.000	0.153	1.179
-111.049	-103.463	-0.727	0.169
-110.034	92.294	-0.260	0.289
-109.020	-118.126	-0.300	-0.053
-108.005	-127.354	0.367	-0.053
-106.991	306.677	-0.099	-0.182
-105.976	-200.000	-0.023	-0.192
-104.962	272.128	0.274	-0.476
-103.947	800.000	0.046	-0.158
-102.932	-200.000	0.025	-0.133
-101.918	800.000	-0.180	0.610
-100.903	323.579	0.399	0.750
-99.889	-200.000	0.032	0.592
-98.874	-55.627	0.692	-0.305
-97.859	-200.000	0.079	-0.368
-96.845	-159.616	0.044	0.002
-95.830	277.637	0.299	0.523
-94.816	-20.190	0.858	-0.521
-93.801	800.000	0.176	-0.602
-92.786	800.000	0.133	-0.495
-91.772	-104.023	0.445	0.102
-90.757	384.668	-0.168	-0.342
-89.743	33.731	0.827	0.708
-88.728	24.859	0.380	-0.310
-87.713	207.968	0.438	-0.674
-86.699	99.918	0.049	-0.056
-85.684	-41.999	0.208	-0.105
-84.670	-87.265	-0.483	0.144
-83.655	-136.203	0.509	0.059
-82.640	209.978	0.340	-0.525
-81.626	-200.000	0.178	-0.807
-80.611	507.906	0.077	0.176
-79.597	-68.201	0.712	-0.273
-78.582	800.000	-0.111	0.462
-77.567	-10.065	0.098	0.064
-76.553	174.248	0.323	0.460
-75.538	285.281	0.300	0.532
-74.524	339.804	-0.075	-0.145
-73.509	603.196	0.125	0.306
-72.494	43.413	0.546	0.491
-71.480	559.289	-0.285	0.677
-70.465	-56.350	0.653	0.285
-69.451	19.558	-0.194	0.154
-68.436	1.922	-0.316	-0.225
-67.422	800.000	0.139	0.379
-66.407	67.438	0.369	0.370
-65.392	608.290	0.290	0.711
-64.378	4.060	0.525	-0.378
-63.363	136.903	-0.400	-0.514
-62.349	-26.291	0.823	-0.475
-61.334	800.000	-0.425	-1.233
-60.319	-91.659	0.842	-0.236
-59.305	800.000	-0.169	-0.546
-58.290	-26.483	0.852	0.491
-57.276	166.683	0.863	1.204
-56.261	-200.000	95.609	599.020
-55.246	676.097	1353.061	3457.736
-54.232	205.040	2514.899	3840.051
-53.217	120.977	2119.052	2593.089
-52.203	44.404	1590.400	1436.534
-51.188	36.038	1331.556	1152.895
-50.173	32.734	1291.134	1098.639
-49.159	56.031	1340.671	1279.531
-48.144	56.723	1358.392	1300.493
-47.130	36.176	1315.609	1139.721
-46.115	32.731	1297.756	1104.077
-45.100	32.424	1292.707	1097.949
-44.086	32.363	1290.037	1095.286
-43.071	32.265	1288.083	1093.009
-42.057	32.374	1285.346	1091.277
-41.042	32.402	1283.401	1089.747
-40.027	32.550	1281.774	1089.177
-39.013	32.087	1282.125	1086.750
-37.998	32.300	1278.608	1084.958
-36.984	32.059	1278.247	1083.219
-35.969	32.077	1276.369	1081.685
-34.954	32.488	1273.763	1081.801
-33.940	32.315	1273.516	1080.550
-32.925	32.414	1271.067	1078.996
-31.911	32.489	1270.342	1078.770
-30.896	32.516	1267.555	1076.516
-29.881	32.369	1267.082	1075.231
-28.867	32.513	1266.414	1075.443
-27.852	32.676	1264.263	1074.505
-26.838	32.505	1263.352	1072.713
-25.823	32.682	1260.975	1071.657
-24.809	32.285	1260.770	1069.185
-23.794	32.377	1259.814	1068.856
-22.779	32.562	1257.486	1067.883
-21.765	32.599	1256.607	1067.308
-20.750	32.519	1255.175	1065.593
-19.736	32.425	1253.432	1063.538
-18.721	32.350	1252.923	1062.641
-17.706	32.355	1251.674	1061.568
-16.692	32.323	1250.164	1060.068
-15.677	32.589	1248.892	1060.446
-14.663	32.712	1247.852	1060.211
-13.648	32.277	1247.286	1057.245
-12.633	32.081	1247.348	1056.152
-11.619	32.115	1246.079	1055.227
-10.604	32.277	1244.556	1054.802
-9.590	32.228	1243.310	1053.432
-8.575	32.297	1242.349	1052.959
-7.560	32.228	1241.597	1051.892
-6.546	32.580	1240.985	1053.305
-5.531	32.332	1239.736	1050.815
-4.517	32.642	1238.268	1051.260
-3.502	32.581	1238.244	1050.855
-2.487	32.274	1236.895	1047.961
-1.473	32.138	1233.598	1044.370
-0.458	30.775	1217.582	1023.284
0.556	28.147	1201.157	984.739
1.571	24.655	1205.595	969.388
2.586	23.535	1218.800	973.774
3.600	22.780	1208.947	961.706
4.615	17.013	1137.902	875.439
5.629	7.566	1062.931	771.958
6.644	3.508	1043.503	738.386
7.659	3.293	1039.383	734.383
8.673	3.055	1038.702	732.700
9.688	3.065	1037.129	731.575
10.702	3.954	1035.180	734.353
11.717	9.206	1044.001	765.630
12.731	18.770	1057.584	821.485
13.746	23.664	1063.168	849.221
14.761	24.406	1063.809	853.208
15.775	24.065	1061.317	849.505
16.790	23.806	1060.934	847.889
17.804	23.617	1061.369	847.258
18.819	23.746	1059.905	846.632
19.834	23.792	1060.147	846.966
20.848	23.626	1059.664	845.717
21.863	23.550	1059.159	844.878
22.877	23.574	1057.531	843.619
23.892	23.670	1057.372	843.870
24.907	23.676	1055.795	842.566
25.921	23.245	1055.412	840.143
26.936	23.304	1054.707	839.784
27.950	23.436	1052.729	838.763
28.965	23.160	1051.686	836.552
29.980	23.477	1048.938	835.788
30.994	23.603	1048.122	835.657
32.009	23.528	1048.277	835.354
33.023	23.556	1047.276	834.611
34.038	23.310	1046.780	832.985
35.053	23.230	1045.682	831.662
36.067	23.266	1044.790	831.050
37.082	23.409	1043.138	830.333
38.096	23.530	1043.043	830.751
39.111	23.460	1042.749	830.112
40.126	23.418	1041.973	829.225
41.140	23.320	1039.055	826.373
42.155	22.867	1037.989	823.341
43.169	22.840	1038.058	823.198
44.184	22.914	1036.526	822.255
45.199	23.110	1034.453	821.449
46.213	22.959	1034.743	820.904
47.228	23.341	1034.516	822.425
48.242	23.758	1033.755	823.680
49.257	23.434	1033.805	822.145
50.271	23.763	1031.809	822.006
51.286	23.929	1031.285	822.287
52.301	23.826	1030.208	820.878
53.315	23.674	1029.529	819.564
54.330	23.167	1028.936	816.680
55.344	23.326	1028.059	816.642
56.359	23.204	1026.831	815.032
57.374	23.138	1027.054	814.835
58.388	23.128	1024.945	813.043
59.403	22.840	1024.652	811.416
60.417	23.218	1022.897	811.686
61.432	23.270	1022.465	811.511
62.447	23.017	1022.381	810.213
63.461	22.920	1022.121	809.493
64.476	23.114	1020.049	808.664
65.490	22.755	1019.709	806.683
66.505	23.091	1018.701	807.350
67.520	22.910	1018.026	805.916
68.534	22.691	1016.732	803.823
69.549	22.615	1015.937	802.776
70.563	22.469	1015.253	801.500
71.578	22.044	1014.997	799.293
72.593	21.623	1013.884	796.432
73.607	21.951	1013.098	797.237
74.622	22.147	1012.785	797.807
75.636	22.416	1011.416	797.878
76.651	22.659	1010.624	798.286
77.666	22.877	1010.472	799.080
78.680	22.531	1009.483	796.661
79.695	22.461	1009.354	796.174
80.709	23.051	1007.968	797.673
81.724	22.753	1008.384	796.588
82.739	23.019	1006.426	796.165
83.753	23.510	1006.713	798.536
84.768	23.826	1006.443	799.673
85.782	24.065	1005.838	800.196
86.797	23.866	1005.367	798.853
87.812	23.909	1003.501	797.494
88.826	23.926	1002.505	796.708
89.841	23.657	1002.284	795.256
90.855	23.790	1001.348	795.041
91.870	24.176	999.966	795.599
92.884	23.789	999.541	793.459
93.899	23.605	999.526	792.557
94.914	24.011	997.053	792.336
95.928	23.658	996.290	790.087
96.943	23.458	995.848	788.777
97.957	23.572	994.448	788.104
98.972	23.485	992.982	786.485
99.987	23.509	992.522	786.160
101.001	23.424	992.328	785.561
102.016	23.520	990.503	784.469
103.030	23.573	990.639	784.744
104.045	23.793	989.709	784.911
105.060	23.822	988.942	784.357
106.074	23.265	988.292	781.316
107.089	23.155	988.105	780.615
108.103	23.248	985.471	778.875
109.118	22.939	984.555	776.724
110.133	22.660	983.791	774.825
111.147	22.727	981.770	773.458
112.162	22.868	981.384	773.705
113.176	23.155	981.396	774.902
114.191	23.138	980.278	773.878
115.206	22.682	979.864	771.486
116.220	22.537	979.111	770.192
117.235	22.684	977.506	769.503
118.249	22.446	977.547	768.427
119.264	22.500	976.214	767.548
120.279	22.839	974.848	767.880
121.293	22.355	974.934	765.775
122.308	22.339	974.168	765.038
123.322	22.686	972.354	765.050
124.337	22.021	971.977	761.803
125.352	22.341	970.265	761.779
126.366	22.337	969.904	761.409
127.381	22.789	969.112	762.674
128.395	22.841	968.006	761.959
129.410	22.878	967.486	761.643
130.424	22.763	967.091	760.769
131.439	23.093	966.191	761.414
132.454	23.286	965.326	761.496
133.468	22.924	964.819	759.471
134.483	23.123	963.842	759.493
135.497	23.237	963.034	759.277
136.512	23.091	963.308	758.796
137.527	23.471	960.705	758.306
138.541	23.237	960.650	757.196
139.556	23.324	959.777	756.811
140.570	23.321	960.204	757.071
141.585	23.784	959.867	758.714
142.600	24.033	957.608	757.923
143.614	23.863	957.500	757.046
144.629	23.956	956.945	756.936
145.643	24.286	955.198	756.889
146.658	23.848	953.555	753.662
147.673	23.476	953.244	751.773
148.687	23.022	952.417	749.130
149.702	23.274	950.410	748.551
150.716	23.432	949.449	748.397
151.731	23.332	949.988	748.333
152.746	23.574	949.193	748.662
153.760	23.562	948.457	747.962
154.775	23.707	949.425	749.272
155.789	23.941	946.762	748.091
156.804	23.577	946.072	745.947
157.819	23.463	946.000	745.343
158.833	23.774	944.992	745.790
159.848	23.886	944.345	745.683
160.862	23.866	941.969	743.656
161.877	23.700	941.612	742.618
162.892	23.365	940.988	740.658
163.906	23.459	938.900	739.342
164.921	23.251	938.722	738.266
165.935	23.395	938.208	738.401
166.950	23.509	937.258	738.060
167.964	23.535	937.179	738.040
168.979	23.120	936.047	735.360
169.994	23.098	935.049	734.417
171.008	23.368	934.660	735.169
172.023	23.906	933.828	736.680
173.037	24.196	933.119	737.255
174.052	23.907	930.928	734.264
175.067	23.361	930.542	731.641
176.081	23.151	929.348	729.772
177.096	22.980	929.417	729.055
178.110	22.899	928.702	728.099
179.125	22.914	928.592	728.008
180.140	22.963	928.153	727.804
181.154	23.469	928.469	730.070
182.169	23.810	927.846	730.916
183.183	23.733	927.358	730.152
184.198	23.740	926.532	729.464
185.213	23.473	925.377	727.396
186.227	23.501	925.389	727.455
187.242	23.592	925.647	727.968
188.256	24.048	924.716	729.038
189.271	23.918	923.127	727.189
190.286	23.337	922.288	724.091
191.300	22.948	920.746	721.230
192.315	22.643	919.760	719.151
193.329	22.622	920.418	719.513
194.344	22.937	920.094	720.481
195.359	23.434	918.988	721.577
196.373	23.441	919.120	721.646
197.388	23.592	919.504	722.497
198.402	24.163	918.018	723.586
199.417	24.162	918.451	723.859
200.432	24.387	917.304	723.805
201.446	24.185	916.938	722.631
202.461	24.432	915.614	722.522
203.475	24.064	914.769	720.306
204.490	23.756	913.521	718.015
205.504	23.530	912.999	716.626
206.519	23.432	912.653	715.896
207.534	23.567	911.280	715.302
208.548	23.857	910.992	716.181
209.563	23.493	911.335	714.918
210.577	23.547	911.024	714.828
211.592	23.721	910.700	715.210
212.607	24.183	909.378	715.969
213.621	24.012	908.674	714.662
214.636	23.864	907.879	713.379
215.650	23.755	907.654	712.705
216.665	24.048	905.913	712.447
217.680	23.906	906.463	712.249
218.694	23.981	905.613	711.818
219.709	23.827	904.543	710.297
220.723	23.467	904.291	708.597
221.738	23.580	903.371	708.264
222.753	23.601	902.119	707.304
223.767	23.715	902.587	708.062
224.782	24.164	901.479	708.919
225.796	24.276	901.532	709.346
226.811	23.748	900.867	706.657
227.826	23.273	899.837	703.901
228.840	23.284	898.841	703.103
229.855	23.535	897.764	703.194
230.869	23.441	896.907	702.089
231.884	23.690	897.073	703.140
232.899	23.549	895.361	701.180
233.913	23.506	895.110	700.753
234.928	22.790	895.194	697.923
235.942	22.881	894.355	697.567
236.957	22.924	893.391	696.926
237.972	23.144	892.379	696.941
238.986	22.999	891.931	695.956
240.001	23.029	891.674	695.814
241.015	23.231	890.770	695.841
242.030	23.495	890.637	696.711
243.045	23.283	890.358	695.601
244.059	23.365	890.735	696.154
245.074	23.689	888.842	695.883
246.088	23.852	889.844	697.247
247.103	24.024	888.821	697.059
248.117	24.365	888.110	697.771
249.132	24.723	888.395	699.335
250.147	24.852	887.261	698.883
251.161	25.185	886.340	699.397
252.176	24.955	886.186	698.315
253.190	24.876	886.501	698.192
254.205	25.088	884.972	697.753
255.220	24.865	884.452	696.415
256.234	24.575	883.937	694.817
257.249	24.625	883.555	694.650
258.263	24.427	882.633	693.095
259.278	24.537	883.018	693.763
260.293	24.630	881.933	693.212
261.307	25.104	880.033	693.489
262.322	24.690	880.440	692.148
263.336	24.818	879.310	691.691
264.351	24.542	878.037	689.564
265.366	24.728	877.702	689.957
266.380	24.874	878.220	690.869
267.395	24.715	878.013	690.028
268.409	24.791	876.464	689.043
269.424	24.613	875.804	687.781
270.439	24.898	874.408	687.718
271.453	24.544	874.336	686.240
272.468	24.377	873.978	685.258
273.482	24.522	873.158	685.108
274.497	24.740	872.099	685.052
275.512	24.518	872.840	684.725
276.526	24.542	872.039	684.129
277.541	24.354	871.475	682.904
278.555	24.731	871.497	684.305
279.570	25.005	870.133	684.219
280.585	24.701	869.686	682.647
281.599	24.327	868.783	680.450
282.614	23.998	868.826	679.168
283.628	23.987	868.040	678.450
284.643	24.202	867.181	678.539
285.657	24.171	865.606	677.130
286.672	24.505	864.519	677.487
287.687	24.580	865.125	678.187
288.701	24.549	864.478	677.501
289.716	24.535	863.828	676.880
290.730	24.534	863.717	676.727
291.745	24.687	862.243	676.094
292.760	24.669	862.436	676.114
293.774	25.114	861.812	677.249
294.789	24.942	861.460	676.264
295.803	24.823	860.932	675.338
296.818	24.427	860.051	673.093
297.833	24.328	859.459	672.198
298.847	24.642	857.804	672.024
299.862	24.802	858.380	673.019
300.876	24.994	857.215	672.768
301.891	25.257	857.430	673.863
302.906	25.200	857.382	673.553
303.920	25.281	857.115	673.589
304.935	25.522	856.191	673.706
305.949	25.432	854.702	672.136
306.964	24.969	854.207	669.956
307.979	24.856	853.414	668.855
308.993	24.901	853.486	669.019
310.008	25.100	853.668	669.845
311.022	25.209	851.345	668.370
312.037	24.758	851.017	666.375
313.052	24.641	850.708	665.638
314.066	24.080	849.984	662.922
315.081	24.367	849.191	663.316
316.095	24.873	848.153	664.323
317.110	24.615	848.131	663.290
318.125	24.321	847.434	661.595
319.139	23.782	847.271	659.410
320.154	24.221	847.086	660.836
321.168	24.267	846.122	660.195
322.183	24.337	846.086	660.369
323.197	24.497	845.672	660.578
324.212	24.287	845.171	659.353
325.227	24.487	844.516	659.521
326.241	24.330	843.115	657.789
327.256	24.427	843.126	658.099
328.270	23.950	843.454	656.537
329.285	24.383	841.183	656.302
330.300	23.939	840.764	654.285
331.314	24.134	840.382	654.647
332.329	24.675	840.424	656.611
333.343	24.589	840.675	656.433
334.358	24.790	839.621	656.287
335.373	24.838	838.944	655.875
336.387	24.698	839.463	655.712
337.402	25.087	839.452	657.072
338.416	25.304	839.332	657.712
339.431	25.782	838.537	658.783
340.446	25.402	838.655	657.424
341.460	25.520	838.421	657.615
342.475	25.512	838.021	657.216
343.489	25.638	837.094	656.891
344.504	25.719	836.537	656.690
345.519	25.524	836.390	655.804
346.533	25.543	835.918	655.444
347.548	25.564	834.952	654.708
348.562	25.286	834.608	653.369
349.577	24.682	834.735	651.209
350.592	24.977	832.780	650.700
351.606	24.955	832.435	650.291
352.621	25.173	830.449	649.472
353.635	24.909	830.780	648.718
354.650	25.062	829.908	648.535
355.665	24.713	830.325	647.539
356.679	25.096	828.549	647.478
357.694	24.941	828.150	646.549
358.708	24.838	827.813	645.858
359.723	25.033	826.699	645.633
360.738	24.952	826.599	645.208
361.752	24.768	826.332	644.279
362.767	25.434	826.364	646.646
363.781	25.921	825.370	647.559
364.796	25.615	825.136	646.220
365.810	26.117	824.473	647.447
366.825	25.780	824.936	646.541
367.840	25.261	824.175	644.025
368.854	25.484	823.162	643.976
369.869	25.072	822.552	641.965
370.883	25.090	822.461	641.903
371.898	25.385	821.843	642.420
372.913	25.597	822.394	643.553
373.927	25.351	821.567	641.970
374.942	25.023	821.339	640.560
375.956	25.326	820.806	641.172
376.971	25.454	820.342	641.209
377.986	25.644	820.205	641.721
379.000	25.580	818.653	640.226
380.015	25.263	819.576	639.761
381.029	25.754	817.271	639.649
382.044	25.939	817.665	640.559
383.059	25.937	816.572	639.636
384.073	25.626	815.926	637.972
385.088	25.627	814.551	636.843
386.102	25.367	814.575	635.884
387.117	25.272	813.220	634.435
388.132	24.801	812.781	632.374
389.146	25.186	812.220	633.239
390.161	25.390	812.635	634.229
391.175	25.795	812.247	635.299
392.190	25.340	811.716	633.221
393.205	24.891	810.634	630.742
394.219	24.869	808.947	629.296
395.234	24.853	808.319	628.695
396.248	24.899	809.564	629.769
397.263	24.818	808.905	628.917
398.278	24.865	807.738	628.117
399.292	24.506	807.494	626.613
400.307	24.810	807.157	627.361
401.321	24.638	806.215	625.971
402.336	24.919	806.454	627.087
403.350	25.128	806.892	628.103
404.365	25.778	806.155	629.750
405.380	26.077	806.423	630.946
406.394	26.072	805.504	630.156
407.409	25.938	805.266	629.445
408.423	25.786	805.585	629.109
409.438	26.493	804.091	630.349
410.453	26.350	804.024	629.743
411.467	25.996	803.504	628.049
412.482	26.122	803.050	628.075
413.496	26.238	802.103	627.683
414.511	25.820	803.263	627.080
415.526	25.663	802.290	625.718
416.540	26.365	800.800	626.939
417.555	25.962	800.417	625.185
418.569	26.256	799.827	625.687
419.584	26.509	799.966	626.617
420.599	26.491	798.471	625.329
421.613	161.259	1370.046	1793.365
422.628	139.939	1453.421	1793.424
