DTS Sentinel unit serial number:	SN413079Multiplexer serial number:	ORYXHardware model number:	OX4-SRSoftware version number:	ORYX F/W v4.00 Oryx Data Collector v3.7.2.0data status	okinstallation	princeton_trtdifferential loss correction	single-endedforward channel	channel 1reverse channel	N/Adate	2019/09/18time	07:14:35forward acquisition time	60.00reverse acquisition time	0.00gamma	496.2192k internal	0.2340k external	0.2340temperature offset calibration	0.9975default loss term (dB/km)	0.3790temperature slope calibration	1.0000multiplexer offset coefficient	1.0000multiplexer slope coefficient	1.0000fibre end	0.00T internal ref (°C)	23.19T ext. ref 1 (°C)	0.19T ext. ref 2 (°C)	17.32length (m)	temperature (°C)	Stokes	anti-Stokes-747.200	730.735	-0.075	-0.202
-746.185	-200.000	-0.063	0.475
-745.171	126.478	0.068	-0.087
-744.156	125.030	-0.127	0.160
-743.142	800.000	-0.165	0.461
-742.127	-200.000	-0.001	0.157
-741.112	-200.000	-0.048	-0.308
-740.098	-35.611	-0.261	0.142
-739.083	-200.000	0.058	0.276
-738.069	-35.164	0.315	0.172
-737.054	383.714	-0.131	0.271
-736.039	-138.972	-0.370	-0.040
-735.025	-200.000	-0.041	0.257
-734.010	5.776	0.096	-0.071
-732.996	186.877	-0.188	-0.281
-731.981	83.041	0.191	0.208
-730.966	480.735	0.073	0.166
-729.952	589.800	-0.102	-0.251
-728.937	-111.921	-0.026	0.005
-727.923	-61.143	-0.234	-0.099
-726.908	-20.168	-0.310	-0.191
-725.894	800.000	-0.113	0.336
-724.879	28.311	-0.102	0.087
-723.864	136.304	-0.070	-0.091
-722.850	373.417	0.117	0.238
-721.835	28.485	-0.105	-0.089
-720.821	-200.000	0.056	-0.394
-719.806	-200.000	0.004	-0.052
-718.791	-19.442	-0.198	0.123
-717.777	-139.208	0.446	0.048
-716.762	-142.583	-0.203	-0.020
-715.748	-200.000	0.006	0.070
-714.733	-200.000	-0.018	-0.222
-713.718	-130.822	0.141	-0.019
-712.704	107.013	-0.235	-0.280
-711.689	-94.747	0.381	-0.103
-710.675	141.201	-0.028	-0.037
-709.660	-57.393	-0.265	-0.117
-708.645	-200.000	-0.081	-0.423
-707.631	221.221	0.066	-0.106
-706.616	-126.031	-0.209	-0.031
-705.602	-56.753	-0.012	-0.005
-704.587	-58.228	-0.069	0.030
-703.572	144.618	-0.076	0.102
-702.558	-90.404	-0.292	-0.085
-701.543	-113.244	0.044	0.009
-700.529	-48.622	-0.213	0.102
-699.514	-200.000	0.009	0.090
-698.499	-33.376	-0.038	-0.021
-697.485	-40.138	-0.209	0.109
-696.470	547.853	0.117	-0.280
-695.456	-69.756	0.115	-0.044
-694.441	-134.720	0.183	0.022
-693.426	-65.088	-0.235	0.095
-692.412	78.708	0.144	-0.154
-691.397	86.264	-0.284	0.313
-690.383	-184.916	-0.317	0.005
-689.368	-41.214	-0.348	0.179
-688.354	-52.839	-0.401	0.185
-687.339	110.242	0.036	0.044
-686.324	800.000	0.061	0.207
-685.310	-11.365	0.320	-0.211
-684.295	800.000	-0.030	0.107
-683.281	800.000	-0.042	0.117
-682.266	193.664	-0.117	0.178
-681.251	-36.979	-0.150	-0.081
-680.237	204.950	0.268	-0.415
-679.222	-149.402	0.059	-0.005
-678.208	31.294	-0.147	0.126
-677.193	-118.326	0.465	-0.083
-676.178	302.638	-0.139	-0.257
-675.164	715.689	-0.044	-0.116
-674.149	173.074	-0.096	-0.138
-673.135	419.793	-0.043	0.092
-672.120	-47.512	0.227	0.110
-671.105	83.650	-0.141	0.153
-670.091	536.073	0.074	-0.177
-669.076	339.323	0.054	0.105
-668.062	168.010	0.176	-0.251
-667.047	-26.054	0.041	0.024
-666.032	-200.000	0.013	-0.170
-665.018	56.436	-0.286	-0.278
-664.003	225.616	0.177	0.286
-662.989	-63.953	-0.274	0.112
-661.974	47.236	0.074	-0.069
-660.959	-95.843	-0.214	0.057
-659.945	-74.353	0.191	0.069
-658.930	614.135	-0.119	-0.299
-657.916	139.246	-0.133	-0.175
-656.901	-98.235	-0.080	0.021
-655.886	-200.000	0.042	-0.390
-654.872	616.409	0.053	0.133
-653.857	-200.000	0.015	0.720
-652.843	233.355	-0.153	-0.251
-651.828	-52.191	-0.405	-0.188
-650.814	336.709	0.163	0.316
-649.799	3.875	0.316	-0.230
-648.784	-80.726	-0.170	-0.057
-647.770	182.427	-0.014	-0.021
-646.755	58.010	-0.131	0.128
-645.741	800.000	-0.058	0.193
-644.726	562.450	-0.042	0.101
-643.711	-187.774	-0.025	-0.000
-642.697	153.251	-0.152	-0.207
-641.682	-170.300	0.121	0.004
-640.668	17.657	-0.015	0.012
-639.653	-200.000	0.002	-0.043
-638.638	-94.758	0.047	-0.013
-637.624	-108.636	-0.264	0.056
-636.609	800.000	0.060	-0.253
-635.595	176.607	-0.319	-0.463
-634.580	-140.914	0.236	-0.024
-633.565	-200.000	-0.061	0.000
-632.551	800.000	0.027	0.091
-631.536	98.465	0.173	-0.200
-630.522	800.000	-0.069	-0.199
-629.507	-200.000	0.007	-0.345
-628.492	429.492	0.079	-0.170
-627.478	-8.576	-0.090	0.060
-626.463	-200.000	0.036	-0.261
-625.449	118.886	-0.100	0.124
-624.434	-41.444	0.135	-0.069
-623.419	-124.713	-0.130	0.020
-622.405	-104.666	0.154	-0.035
-621.390	800.000	-0.098	-0.287
-620.376	800.000	0.064	-0.259
-619.361	800.000	-0.040	0.158
-618.346	115.955	-0.115	-0.141
-617.332	144.506	0.056	0.075
-616.317	-200.000	-0.058	0.327
-615.303	17.607	-0.164	-0.130
-614.288	800.000	-0.100	0.354
-613.273	16.981	-0.206	0.163
-612.259	800.000	-0.040	0.142
-611.244	800.000	-0.111	-0.362
-610.230	800.000	0.045	-0.138
-609.215	624.801	-0.162	-0.406
-608.201	37.227	-0.091	-0.080
-607.186	800.000	-0.141	-0.403
-606.171	-200.000	-0.002	-0.377
-605.157	-99.871	0.212	0.053
-604.142	112.103	-0.142	-0.171
-603.128	-57.498	-0.277	-0.121
-602.113	181.350	-0.003	0.005
-601.098	180.214	0.096	0.140
-600.084	117.641	-0.115	-0.142
-599.069	-200.000	-0.240	-0.001
-598.055	-38.422	-0.084	0.044
-597.040	-69.629	-0.023	-0.009
-596.025	-176.294	0.168	-0.004
-595.011	-102.551	-0.161	-0.038
-593.996	-156.151	-0.174	0.011
-592.982	-156.054	0.057	-0.004
-591.967	-200.000	-0.030	0.248
-590.952	-200.000	0.007	0.152
-589.938	-200.000	0.021	0.147
-588.923	11.600	0.123	-0.094
-587.909	61.423	0.075	0.074
-586.894	-38.455	0.081	0.043
-585.879	-37.090	-0.151	0.080
-584.865	-95.061	0.164	-0.044
-583.850	-200.000	0.015	0.129
-582.836	-200.000	0.045	-0.209
-581.821	-175.493	-0.260	-0.007
-580.806	240.958	0.102	0.169
-579.792	179.197	0.171	0.249
-578.777	285.983	-0.157	0.282
-577.763	800.000	-0.092	-0.267
-576.748	-57.626	-0.314	0.137
-575.733	195.317	-0.093	0.140
-574.719	139.595	-0.096	0.125
-573.704	-200.000	0.010	0.165
-572.690	165.301	0.196	0.275
-571.675	51.658	-0.166	0.157
-570.661	43.839	0.332	0.303
-569.646	-68.384	-0.203	-0.079
-568.631	-15.971	0.218	-0.138
-567.617	800.000	-0.125	-0.456
-566.602	-5.993	-0.338	0.230
-565.588	-78.417	-0.111	0.038
-564.573	-145.901	-0.207	-0.018
-563.558	-44.017	0.256	-0.128
-562.544	-200.000	-0.017	0.168
-561.529	-12.975	-0.118	0.076
-560.515	128.465	0.038	-0.049
-559.500	-200.000	-0.005	-0.203
-558.485	505.958	0.117	-0.271
-557.471	382.571	-0.015	0.032
-556.456	-9.376	0.110	-0.073
-555.442	800.000	0.091	-0.388
-554.427	-129.902	0.132	-0.018
-553.412	-200.000	-0.020	0.101
-552.398	-99.972	-0.177	0.044
-551.383	-200.000	-0.009	0.142
-550.369	800.000	0.043	0.141
-549.354	111.343	-0.180	0.216
-548.339	48.371	0.054	-0.050
-547.325	-200.000	-0.016	0.095
-546.310	-200.000	-0.037	-0.276
-545.296	-200.000	-0.020	-0.267
-544.281	48.801	0.142	-0.132
-543.266	193.844	0.114	-0.172
-542.252	669.199	0.141	-0.362
-541.237	133.861	-0.078	-0.101
-540.223	800.000	-0.022	0.069
-539.208	-4.482	0.154	-0.106
-538.193	137.432	-0.281	-0.366
-537.179	292.785	0.119	-0.216
-536.164	102.920	0.175	-0.204
-535.150	-200.000	-0.012	-0.128
-534.135	-41.475	0.371	-0.190
-533.121	-52.061	-0.186	-0.086
-532.106	35.878	-0.201	-0.176
-531.091	-82.997	0.130	-0.042
-530.077	-90.187	0.218	-0.063
-529.062	199.777	-0.106	0.161
-528.048	153.166	-0.101	0.137
-527.033	-62.990	-0.293	-0.120
-526.018	-102.166	0.578	0.138
-525.004	-0.429	-0.087	-0.062
-523.989	-9.736	0.167	-0.111
-522.975	-37.620	-0.303	0.160
-521.960	-22.029	0.095	-0.057
-520.945	-111.495	0.308	-0.062
-519.931	213.848	-0.225	-0.354
-518.916	-150.540	-0.069	0.005
-517.902	-164.828	0.192	0.009
-516.887	163.906	0.254	0.356
-515.872	729.678	0.104	0.276
-514.858	678.865	0.012	0.032
-513.843	-105.142	-0.144	0.033
-512.829	-200.000	0.012	0.244
-511.814	-199.174	0.341	-0.002
-510.799	-19.653	0.160	0.098
-509.785	800.000	0.182	0.498
-508.770	-200.000	0.029	-0.271
-507.756	800.000	-0.049	0.140
-506.741	-152.350	-0.136	-0.010
-505.726	-72.055	0.180	0.067
-504.712	-200.000	0.038	0.225
-503.697	66.168	0.200	-0.201
-502.683	800.000	0.077	-0.289
-501.668	-200.000	-0.043	-0.201
-500.653	211.283	-0.047	-0.073
-499.639	-200.000	-0.058	-0.470
-498.624	-120.756	0.337	-0.056
-497.610	340.750	-0.046	0.089
-496.595	14.870	-0.136	-0.106
-495.581	-104.027	-0.062	-0.014
-494.566	-31.891	-0.360	0.200
-493.551	-159.445	0.003	-0.000
-492.537	-46.171	-0.341	-0.166
-491.522	-94.736	-0.211	-0.057
-490.508	-18.229	0.201	0.125
-489.493	6.533	0.158	0.117
-488.478	-141.245	0.126	0.013
-487.464	113.805	0.207	-0.250
-486.449	249.870	0.068	0.114
-485.435	10.301	-0.152	0.114
-484.420	-135.343	0.202	-0.024
-483.405	646.509	0.078	-0.197
-482.391	738.284	0.040	0.106
-481.376	-48.406	0.214	0.102
-480.362	100.316	-0.044	0.050
-479.347	800.000	-0.103	0.302
-478.332	-112.817	0.252	-0.050
-477.318	-78.472	0.131	0.045
-476.303	800.000	-0.079	0.253
-475.289	-73.865	-0.286	0.103
-474.274	519.575	0.053	0.122
-473.259	180.928	-0.020	-0.029
-472.245	-28.066	0.247	-0.142
-471.230	-200.000	-0.003	-0.180
-470.216	-124.068	-0.237	-0.037
-469.201	-200.000	0.008	-0.121
-468.186	-43.848	-0.163	0.081
-467.172	331.792	-0.054	-0.104
-466.157	-11.268	0.121	0.079
-465.143	-183.902	0.100	-0.002
-464.128	197.182	-0.077	-0.116
-463.113	800.000	-0.076	0.210
-462.099	-200.000	0.019	-0.146
-461.084	-200.000	-0.034	0.199
-460.070	304.000	0.033	-0.061
-459.055	95.768	0.072	0.081
-458.040	359.310	-0.027	0.053
-457.026	2.170	0.132	-0.094
-456.011	-23.578	-0.092	-0.055
-454.997	-133.024	-0.241	0.030
-453.982	702.752	0.072	0.189
-452.968	365.000	-0.071	0.143
-451.953	-200.000	0.025	-0.281
-450.938	-6.796	0.175	0.118
-449.924	-200.000	0.013	0.123
-448.909	272.662	0.140	-0.246
-447.895	91.564	-0.087	-0.097
-446.880	231.103	0.112	-0.182
-445.865	79.770	0.215	0.229
-444.851	-200.000	-0.039	0.597
-443.836	82.718	-0.139	-0.149
-442.822	800.000	0.028	-0.085
-441.807	155.052	0.047	-0.064
-440.792	-84.858	0.228	0.071
-439.778	37.304	0.179	-0.157
-438.763	-200.000	0.010	-0.370
-437.749	-187.345	-0.317	0.004
-436.734	208.358	0.224	0.347
-435.719	197.922	0.197	-0.299
-434.705	78.176	-0.217	-0.229
-433.690	-68.643	0.211	-0.081
-432.676	-41.954	0.205	0.104
-431.661	104.503	-0.222	-0.259
-430.646	-31.075	-0.200	-0.112
-429.632	129.985	-0.176	-0.223
-428.617	-200.000	0.055	0.242
-427.603	-200.000	-0.043	0.301
-426.588	-8.289	0.259	-0.172
-425.573	-87.357	0.190	0.057
-424.559	800.000	0.151	0.499
-423.544	-134.382	-0.404	0.049
-422.530	-76.787	0.103	-0.036
-421.515	272.830	0.097	0.170
-420.500	432.950	0.076	0.163
-419.486	-200.000	0.003	0.073
-418.471	289.004	-0.067	-0.120
-417.457	-200.000	0.070	0.350
-416.442	-200.000	0.003	0.182
-415.428	-65.138	0.203	0.081
-414.413	508.594	-0.101	-0.232
-413.398	800.000	0.039	-0.110
-412.384	-200.000	-0.031	-0.151
-411.369	432.994	-0.025	-0.053
-410.355	-108.033	0.036	0.008
-409.340	-200.000	0.030	0.404
-408.325	800.000	-0.054	-0.159
-407.311	-84.813	0.323	0.100
-406.296	186.754	-0.227	0.334
-405.282	-200.000	-0.003	0.186
-404.267	312.110	0.061	0.112
-403.252	331.565	-0.107	-0.204
-402.238	218.284	-0.277	0.438
-401.223	-98.594	0.174	0.044
-400.209	93.996	0.112	0.125
-399.194	101.302	-0.320	-0.369
-398.179	-76.036	0.271	0.095
-397.165	-200.000	0.043	-0.222
-396.150	-148.107	-0.233	0.019
-395.136	-166.706	-0.245	0.010
-394.121	6.962	0.429	-0.316
-393.106	35.856	-0.177	-0.154
-392.092	69.475	-0.215	-0.219
-391.077	-3.415	0.062	0.043
-390.063	-140.171	0.093	0.010
-389.048	800.000	-0.062	-0.173
-388.033	-13.091	-0.216	0.139
-387.019	800.000	0.043	0.185
-386.004	-200.000	-0.006	0.146
-384.990	-200.000	-0.020	0.238
-383.975	32.557	0.201	0.172
-382.960	-76.274	0.199	-0.069
-381.946	-72.530	-0.311	-0.114
-380.931	-170.057	-0.521	0.018
-379.917	-200.000	-0.042	-0.205
-378.902	-14.310	-0.056	0.036
-377.888	134.179	0.152	0.195
-376.873	267.943	-0.093	0.160
-375.858	-21.316	-0.151	-0.091
-374.844	-116.171	0.314	0.058
-373.829	800.000	0.041	-0.156
-372.815	-200.000	-0.011	-0.242
-371.800	-35.881	0.114	-0.061
-370.785	-85.685	-0.142	-0.044
-369.771	68.937	0.046	0.047
-368.756	-51.432	-0.108	-0.050
-367.742	-200.000	-0.043	0.198
-366.727	577.388	-0.035	0.085
-365.712	-96.801	0.151	0.039
-364.698	800.000	-0.046	0.137
-363.683	-1.706	-0.223	0.155
-362.669	-200.000	0.019	-0.093
-361.654	102.105	0.190	0.219
-360.639	-52.946	-0.351	0.159
-359.625	800.000	-0.021	0.072
-358.610	46.793	-0.132	0.121
-357.596	134.246	0.259	0.331
-356.581	-139.488	-0.408	0.043
-355.566	-200.000	0.036	-0.232
-354.552	3.343	-0.303	0.218
-353.537	-61.075	0.139	0.058
-352.523	6.833	-0.134	0.099
-351.508	800.000	-0.043	0.141
-350.493	-200.000	-0.057	-0.445
-349.479	-55.796	0.295	0.130
-348.464	488.471	0.093	0.210
-347.450	-200.000	0.022	0.211
-346.435	-99.345	0.280	0.070
-345.420	-88.655	0.184	-0.054
-344.406	-115.011	-0.400	-0.075
-343.391	18.222	-0.278	0.219
-342.377	-47.897	0.217	0.104
-341.362	-200.000	0.004	0.209
-340.348	-80.452	0.056	0.018
-339.333	394.453	-0.053	0.108
-338.318	218.648	-0.288	-0.453
-337.304	-48.846	0.312	-0.148
-336.289	800.000	0.032	-0.094
-335.275	357.259	-0.092	0.181
-334.260	-52.819	0.201	0.092
-333.245	56.933	-0.135	0.130
-332.231	93.627	-0.075	-0.084
-331.216	-200.000	-0.021	0.140
-330.202	202.705	0.115	-0.175
-329.187	152.826	-0.158	-0.213
-328.172	-118.087	-0.105	0.018
-327.158	-200.000	0.045	0.392
-326.143	344.173	0.108	0.209
-325.129	282.145	0.079	-0.140
-324.114	65.350	0.103	0.102
-323.099	-102.018	0.186	0.044
-322.085	-45.695	0.115	-0.056
-321.070	105.864	0.150	-0.176
-320.056	-14.395	0.242	0.154
-319.041	800.000	0.028	-0.092
-318.026	0.933	0.188	0.133
-317.012	592.085	-0.136	0.331
-315.997	181.033	0.051	-0.074
-314.983	-200.000	-0.072	-0.406
-313.968	-200.000	-0.068	-0.434
-312.953	-117.579	-0.256	-0.046
-311.939	156.441	0.092	-0.125
-310.924	66.705	0.182	0.183
-309.910	-97.955	0.085	-0.022
-308.895	800.000	-0.071	-0.289
-307.880	800.000	-0.051	-0.171
-306.866	-200.000	-0.020	-0.229
-305.851	116.202	0.254	0.307
-304.837	-92.360	0.234	-0.065
-303.822	-200.000	-0.011	0.311
-302.807	-31.298	0.483	-0.268
-301.793	-159.074	0.244	0.014
-300.778	65.510	0.051	-0.051
-299.764	-165.532	-0.185	-0.008
-298.749	800.000	-0.017	0.054
-297.735	17.695	0.310	0.243
-296.720	474.711	0.089	0.197
-295.705	-85.545	-0.093	0.028
-294.691	-138.923	0.122	-0.013
-293.676	-61.610	0.140	-0.058
-292.662	182.978	-0.199	0.290
-291.647	-163.225	0.309	0.015
-290.632	-51.098	-0.400	-0.185
-289.618	253.736	0.156	0.263
-288.603	84.625	0.165	0.177
-287.589	487.687	0.190	0.428
-286.574	-118.211	-0.041	-0.007
-285.559	34.675	0.108	-0.093
-284.545	76.472	0.080	0.084
-283.530	-24.073	0.200	0.118
-282.516	800.000	-0.033	0.115
-281.501	-43.629	-0.255	0.127
-280.486	160.227	-0.057	0.079
-279.472	-25.350	-0.068	-0.039
-278.457	134.932	0.206	0.264
-277.443	232.682	0.146	0.237
-276.428	726.639	-0.173	-0.453
-275.413	-159.059	-0.244	0.014
-274.399	2.186	0.065	-0.046
-273.384	207.417	0.275	-0.422
-272.370	115.748	0.115	0.138
-271.355	-111.234	-0.322	0.065
-270.340	112.277	0.098	0.117
-269.326	-52.385	-0.203	-0.093
-268.311	-22.601	-0.107	0.063
-267.297	155.685	0.091	0.123
-266.282	-162.430	-0.173	0.008
-265.267	3.689	-0.135	0.097
-264.253	293.632	0.073	0.131
-263.238	-170.148	-0.300	0.010
-262.224	-135.208	-0.283	-0.033
-261.209	-200.000	-0.011	0.165
-260.195	83.065	0.134	0.144
-259.180	-44.487	0.151	0.075
-258.165	-34.218	0.401	-0.217
-257.151	624.939	-0.096	-0.239
-256.136	233.910	-0.075	-0.121
-255.122	55.863	0.362	-0.345
-254.107	540.102	-0.090	-0.210
-253.092	10.948	-0.254	0.191
-252.078	734.867	0.020	-0.052
-251.063	-66.902	-0.183	-0.071
-250.049	800.000	-0.096	0.326
-249.034	37.023	-0.268	0.233
-248.019	-200.000	0.011	0.163
-247.005	-35.523	0.291	-0.155
-245.990	-82.776	-0.005	0.002
-244.976	71.551	0.031	0.031
-243.961	160.766	-0.129	-0.177
-242.946	-200.000	0.081	0.572
-241.932	-200.000	-0.015	0.285
-240.917	632.137	-0.133	0.331
-239.903	-144.980	0.186	-0.017
-238.888	-200.000	0.059	0.358
-237.873	-200.000	-0.004	0.076
-236.859	323.073	-0.011	0.020
-235.844	-200.000	-0.133	-0.603
-234.830	-78.834	0.303	-0.101
-233.815	-53.757	-0.234	-0.105
-232.800	-45.186	0.205	-0.100
-231.786	-200.000	0.020	-0.115
-230.771	-35.976	-0.107	0.057
-229.757	256.456	-0.210	-0.354
-228.742	800.000	-0.011	0.048
-227.727	-200.000	0.035	0.158
-226.713	451.501	0.065	0.140
-225.698	-59.402	-0.187	0.079
-224.684	28.832	0.196	-0.163
-223.669	-115.315	-0.379	0.070
-222.655	201.555	-0.214	-0.323
-221.640	43.295	-0.229	-0.205
-220.625	-54.146	0.230	0.103
-219.611	36.951	-0.202	0.176
-218.596	9.299	0.351	-0.261
-217.582	200.921	0.076	-0.115
-216.567	-60.323	0.221	0.092
-215.552	-200.000	0.002	-0.033
-214.538	800.000	-0.087	-0.264
-213.523	-89.165	-0.097	0.028
-212.509	-67.030	0.049	0.019
-211.494	-40.272	-0.338	0.173
-210.479	-140.356	-0.237	0.024
-209.465	-162.191	-0.143	-0.007
-208.450	-200.000	0.001	0.277
-207.436	53.599	0.169	-0.159
-206.421	-83.667	-0.341	-0.107
-205.406	-80.182	-0.463	-0.152
-204.392	-104.470	0.190	-0.043
-203.377	119.914	0.188	0.229
-202.363	-41.211	0.140	0.071
-201.348	154.558	-0.054	-0.073
-200.333	-181.457	0.521	-0.010
-199.319	-83.773	0.169	-0.053
-198.304	-60.069	-0.356	-0.149
-197.290	-200.000	-0.072	0.383
-196.275	-200.000	0.039	-0.193
-195.260	800.000	0.107	0.310
-194.246	2.389	-0.124	0.088
-193.231	-87.475	-0.180	-0.053
-192.217	-51.970	0.534	0.243
-191.202	-200.000	0.031	-0.153
-190.187	-113.467	0.071	-0.014
-189.173	-15.647	-0.086	0.054
-188.158	-179.134	-0.470	-0.010
-187.144	182.578	0.135	0.195
-186.129	-24.533	-0.079	-0.046
-185.114	245.816	0.101	-0.166
-184.100	11.069	-0.232	0.174
-183.085	101.533	-0.239	0.274
-182.071	37.541	-0.214	-0.186
-181.056	-128.751	-0.173	-0.024
-180.042	-114.828	0.123	-0.023
-179.027	-0.652	-0.219	-0.152
-178.012	800.000	-0.050	-0.160
-176.998	291.527	0.061	0.109
-175.983	32.085	0.172	0.146
-174.969	32.900	-0.318	0.270
-173.954	31.593	0.220	0.185
-172.939	-200.000	0.093	-0.423
-171.925	800.000	-0.077	-0.267
-170.910	-62.393	-0.164	-0.067
-169.896	-14.315	-0.086	-0.055
-168.881	202.401	-0.131	0.198
-167.866	56.257	0.219	0.209
-166.852	-200.000	-0.033	-0.238
-165.837	174.961	-0.164	0.232
-164.823	62.036	-0.241	0.236
-163.808	151.737	0.211	0.282
-162.793	-68.777	0.270	-0.102
-161.779	172.649	-0.131	0.185
-160.764	-83.263	0.265	0.083
-159.750	281.143	0.155	-0.272
-158.735	661.064	-0.119	-0.300
-157.720	100.942	0.273	-0.311
-156.706	-70.059	0.182	0.068
-155.691	-71.468	-0.287	-0.105
-154.677	236.846	0.041	-0.067
-153.662	54.774	0.183	-0.173
-152.647	-200.000	0.001	-0.322
-151.633	361.096	0.135	-0.266
-150.618	-200.000	-0.061	-0.271
-149.604	-140.002	0.229	0.024
-148.589	267.264	0.067	-0.114
-147.574	761.986	-0.139	0.369
-146.560	732.446	0.072	-0.189
-145.545	-104.864	0.209	-0.047
-144.531	-128.753	-0.170	-0.023
-143.516	37.880	-0.182	0.159
-142.502	800.000	-0.122	0.467
-141.487	800.000	-0.073	0.259
-140.472	-200.000	0.079	-0.344
-139.458	27.969	0.167	-0.138
-138.443	-41.229	-0.277	-0.140
-137.429	222.030	0.245	0.386
-136.414	417.494	-0.232	-0.484
-135.399	800.000	-0.055	-0.172
-134.385	-200.000	-0.021	0.142
-133.370	-200.000	0.015	-0.352
-132.356	223.499	-0.083	-0.131
-131.341	-200.000	0.035	-0.360
-130.326	800.000	0.091	-0.289
-129.312	-200.000	0.010	-0.399
-128.297	-153.105	-0.090	0.006
-127.283	-5.593	-0.217	-0.145
-126.268	-158.697	0.081	0.005
-125.253	-28.758	0.162	-0.091
-124.239	-128.109	0.166	0.023
-123.224	800.000	0.064	0.238
-122.210	-155.902	0.284	-0.018
-121.195	-186.824	-0.059	-0.001
-120.180	233.566	-0.163	-0.263
-119.166	-124.840	0.288	-0.044
-118.151	-55.162	-0.221	0.097
-117.137	105.094	0.115	0.132
-116.122	108.404	0.053	0.062
-115.107	-42.984	0.083	0.041
-114.093	301.343	-0.059	0.107
-113.078	-72.027	0.217	0.079
-112.064	213.358	-0.142	0.219
-111.049	-173.386	-0.163	-0.005
-110.034	-83.039	-0.540	-0.170
-109.020	239.587	-0.133	0.216
-108.005	47.308	-0.206	-0.188
-106.991	356.337	-0.086	0.168
-105.976	-94.553	-0.167	-0.044
-104.962	800.000	-0.027	0.105
-103.947	-143.150	0.348	0.033
-102.932	-8.446	0.099	-0.065
-101.918	-47.266	0.233	-0.111
-100.903	347.179	0.120	0.231
-99.889	800.000	-0.069	-0.208
-98.874	-143.225	0.457	0.043
-97.859	143.934	-0.220	0.287
-96.845	-36.507	-0.114	0.060
-95.830	57.755	0.273	-0.261
-94.816	477.003	-0.116	0.255
-93.801	-145.443	0.463	-0.041
-92.786	598.051	0.037	-0.090
-91.772	-200.000	-0.023	-0.339
-90.757	163.956	-0.094	-0.129
-89.743	227.005	-0.100	0.158
-88.728	102.672	0.208	0.238
-87.713	169.423	0.232	-0.324
-86.699	-102.039	-0.280	0.066
-85.684	-156.103	0.221	0.014
-84.670	-72.241	0.076	-0.028
-83.655	-120.922	-0.223	-0.037
-82.640	-72.793	-0.277	-0.100
-81.626	800.000	-0.019	0.076
-80.611	70.561	0.219	0.222
-79.597	-198.313	0.426	-0.002
-78.582	800.000	-0.090	0.321
-77.567	-92.516	0.387	-0.106
-76.553	18.325	0.272	0.212
-75.538	56.336	-0.342	0.324
-74.524	3.978	0.111	0.079
-73.509	-38.015	-0.122	0.063
-72.494	-110.042	0.109	0.022
-71.480	-129.719	-0.393	0.053
-70.465	-92.704	-0.200	0.055
-69.451	-96.946	-0.131	0.033
-68.436	96.689	-0.102	0.114
-67.422	-200.000	-0.034	-0.173
-66.407	219.501	0.216	-0.337
-65.392	8.974	-0.180	-0.132
-64.378	79.296	0.106	0.111
-63.363	-12.142	-0.217	0.139
-62.349	-8.290	-0.138	0.091
-61.334	110.065	-1.069	-1.253
-60.319	-0.856	0.715	0.495
-59.305	226.025	-0.725	-1.148
-58.290	400.441	0.835	1.710
-57.276	164.320	0.940	1.293
-56.261	-200.000	125.021	651.914
-55.246	401.618	1584.273	3247.237
-54.232	140.244	2745.958	3535.335
-53.217	94.889	2169.470	2408.959
-52.203	34.830	1597.869	1363.994
-51.188	26.315	1340.805	1093.257
-50.173	23.836	1303.354	1048.083
-49.159	52.177	1372.338	1276.417
-48.144	48.716	1383.946	1266.223
-47.130	26.586	1332.129	1087.640
-46.115	23.388	1312.684	1052.759
-45.100	23.059	1307.697	1046.771
-44.086	23.008	1305.553	1044.707
-43.071	23.035	1302.908	1042.712
-42.057	23.067	1300.373	1040.832
-41.042	23.114	1299.191	1040.119
-40.027	23.199	1297.325	1039.082
-39.013	23.138	1295.972	1037.599
-37.998	23.006	1294.024	1035.225
-36.984	23.056	1292.564	1034.308
-35.969	23.181	1290.260	1033.152
-34.954	23.234	1288.594	1032.087
-33.940	23.072	1288.234	1030.815
-32.925	23.249	1286.171	1030.150
-31.911	23.259	1285.106	1029.315
-30.896	23.147	1283.698	1027.500
-29.881	23.312	1282.281	1027.278
-28.867	23.343	1280.727	1026.176
-27.852	23.352	1279.307	1025.046
-26.838	23.336	1278.436	1024.217
-25.823	23.292	1276.729	1022.553
-24.809	23.260	1275.586	1021.415
-23.794	23.245	1274.202	1020.177
-22.779	23.220	1272.921	1018.971
-21.765	23.239	1271.565	1017.952
-20.750	23.354	1269.895	1017.236
-19.736	23.253	1268.931	1015.846
-18.721	23.275	1267.547	1014.820
-17.706	23.058	1266.440	1012.650
-16.692	23.173	1265.329	1012.382
-15.677	23.196	1264.091	1011.481
-14.663	23.184	1263.239	1010.693
-13.648	23.078	1262.103	1009.137
-12.633	23.224	1261.200	1009.206
-11.619	23.119	1260.693	1008.163
-10.604	23.109	1259.678	1007.257
-9.590	23.081	1258.750	1006.312
-8.575	23.103	1257.357	1005.288
-7.560	23.111	1256.914	1004.938
-6.546	23.255	1255.697	1004.741
-5.531	23.075	1255.547	1003.562
-4.517	23.067	1255.081	1003.100
-3.502	23.060	1253.872	1002.059
-2.487	23.191	1252.302	1001.504
-1.473	23.153	1248.522	998.224
-0.458	21.404	1233.811	976.664
0.556	16.597	1217.924	941.313
1.571	12.970	1225.911	927.054
2.586	12.303	1241.307	934.821
3.600	12.429	1229.506	926.561
4.615	9.101	1157.180	854.296
5.629	3.087	1087.270	772.473
6.644	0.360	1070.028	746.661
7.659	0.164	1068.394	744.489
8.673	0.045	1067.407	743.145
9.688	0.172	1066.010	742.731
10.702	0.268	1064.068	741.790
11.717	4.028	1067.809	762.884
12.731	10.708	1077.175	802.619
13.746	15.390	1083.042	830.134
14.761	16.728	1084.024	837.437
15.775	15.980	1082.629	832.587
16.790	15.132	1080.057	826.356
17.804	14.432	1079.052	822.062
18.819	13.907	1077.997	818.594
19.834	13.786	1076.602	816.867
20.848	13.595	1076.156	815.520
21.863	13.285	1075.156	813.162
22.877	13.098	1074.584	811.737
23.892	13.174	1073.334	811.099
24.907	13.085	1073.434	810.666
25.921	13.203	1072.086	810.154
26.936	13.203	1071.175	809.395
27.950	13.231	1070.444	808.904
28.965	13.282	1069.034	808.020
29.980	13.084	1068.322	806.441
30.994	13.284	1066.600	806.043
32.009	13.357	1065.810	805.734
33.023	13.369	1064.579	804.790
34.038	13.443	1063.630	804.360
35.053	13.266	1062.862	802.847
36.067	13.217	1062.111	801.974
37.082	13.119	1062.064	801.392
38.096	13.251	1060.667	800.907
39.111	13.186	1060.081	800.076
40.126	13.216	1058.896	799.256
41.140	13.198	1057.326	797.916
42.155	13.133	1055.982	796.517
43.169	13.021	1055.223	795.333
44.184	13.125	1054.115	794.930
45.199	12.906	1053.327	793.212
46.213	13.117	1051.901	793.080
47.228	13.273	1050.599	792.777
48.242	13.147	1049.998	791.647
49.257	13.225	1049.064	791.250
50.271	13.201	1048.024	790.278
51.286	13.270	1047.446	790.105
52.301	13.126	1046.251	788.444
53.315	13.142	1045.539	787.914
54.330	13.079	1044.761	786.957
55.344	13.132	1043.358	786.085
56.359	13.128	1042.613	785.436
57.374	13.090	1041.705	784.499
58.388	13.059	1041.181	783.887
59.403	13.124	1040.362	783.510
60.417	13.198	1038.792	782.610
61.432	13.063	1038.211	781.462
62.447	13.069	1037.550	780.923
63.461	12.923	1037.144	779.859
64.476	12.993	1036.130	779.359
65.490	13.050	1035.079	778.768
66.505	12.984	1034.563	777.998
67.520	13.035	1033.936	777.703
68.534	13.118	1033.070	777.371
69.549	13.073	1032.457	776.628
70.563	12.958	1031.945	775.637
71.578	13.001	1030.794	774.901
72.593	13.007	1030.192	774.412
73.607	12.867	1029.615	773.253
74.622	13.015	1028.836	773.292
75.636	12.809	1028.269	771.834
76.651	12.873	1027.523	771.503
77.666	12.964	1026.983	771.456
78.680	13.138	1025.512	771.095
79.695	12.956	1025.747	770.351
80.709	12.978	1024.983	769.814
81.724	13.003	1024.445	769.456
82.739	13.137	1023.084	768.991
83.753	13.237	1022.488	768.940
84.768	13.232	1021.559	768.149
85.782	13.349	1020.985	768.195
86.797	13.264	1020.188	767.131
87.812	13.208	1019.066	765.963
88.826	13.018	1018.503	764.589
89.841	13.207	1016.752	764.084
90.855	13.224	1016.246	763.715
91.870	13.188	1015.943	763.252
92.884	13.223	1014.874	762.544
93.899	13.336	1013.632	762.063
94.914	13.412	1012.985	761.861
95.928	13.319	1012.338	760.874
96.943	13.373	1010.788	759.894
97.957	13.314	1010.342	759.220
98.972	13.337	1009.650	758.738
99.987	13.288	1008.440	757.536
101.001	13.250	1007.845	756.847
102.016	13.170	1006.825	755.651
103.030	13.294	1006.022	755.546
104.045	13.336	1005.439	755.234
105.060	13.276	1004.153	753.928
106.074	13.104	1003.545	752.622
107.089	13.225	1002.241	752.125
108.103	13.247	1001.461	751.576
109.118	13.150	1000.633	750.445
110.133	13.084	1000.090	749.673
111.147	13.085	999.212	748.955
112.162	13.148	997.995	748.259
113.176	13.213	997.434	748.069
114.191	13.195	997.233	747.768
115.206	13.166	996.029	746.669
116.220	13.219	995.257	746.265
117.235	13.303	994.056	745.677
118.249	13.201	993.119	744.446
119.264	13.187	992.597	743.928
120.279	13.194	991.857	743.337
121.293	13.172	991.082	742.591
122.308	13.139	990.133	741.667
123.322	13.155	989.315	741.062
124.337	13.256	987.823	740.333
125.352	13.220	986.997	739.483
126.366	13.240	985.637	738.488
127.381	13.100	984.965	737.298
128.395	13.078	984.069	736.464
129.410	13.192	983.219	736.268
130.424	13.222	982.289	735.642
131.439	13.330	981.198	735.237
132.454	13.141	980.716	733.973
133.468	13.325	979.717	733.977
134.483	13.266	978.901	733.039
135.497	13.352	977.929	732.627
136.512	13.244	977.270	731.590
137.527	13.208	976.074	730.470
138.541	13.304	975.647	730.513
139.556	13.396	974.555	730.034
140.570	13.375	973.869	729.363
141.585	13.385	973.150	728.805
142.600	13.302	972.887	728.176
143.614	13.275	971.892	727.252
144.629	13.504	970.972	727.503
145.643	13.439	969.785	726.263
146.658	13.292	969.083	725.031
147.673	13.497	967.749	724.867
148.687	13.332	967.366	723.794
149.702	13.388	966.233	723.124
150.716	13.466	965.645	722.962
151.731	13.512	964.520	722.259
152.746	13.309	964.654	721.408
153.760	13.422	963.766	721.171
154.775	13.488	963.101	720.899
155.789	13.525	962.524	720.564
156.804	13.488	961.884	719.862
157.819	13.585	960.738	719.359
158.833	13.584	960.295	718.962
159.848	13.628	959.847	718.752
160.862	13.615	958.405	717.551
161.877	13.650	957.529	716.984
162.892	13.509	956.842	715.796
163.906	13.456	955.895	714.798
164.921	13.397	955.223	713.976
165.935	13.457	954.327	713.499
166.950	13.705	953.181	713.651
167.964	13.650	952.335	712.714
168.979	13.490	951.737	711.516
169.994	13.605	950.742	711.205
171.008	13.627	949.999	710.679
172.023	13.677	949.288	710.300
173.037	13.666	948.476	709.583
174.052	13.753	947.893	709.457
175.067	13.667	947.174	708.489
176.081	13.501	947.204	707.736
177.096	13.660	946.243	707.633
178.110	13.634	945.763	707.103
179.125	13.535	944.805	705.903
180.140	13.543	944.478	705.631
181.154	13.685	943.690	705.582
182.169	13.730	943.170	705.323
183.183	13.876	942.683	705.515
184.198	13.661	941.887	703.948
185.213	13.729	941.470	703.859
186.227	13.837	940.751	703.719
187.242	13.966	939.721	703.431
188.256	14.014	939.199	703.182
189.271	13.846	938.694	702.031
190.286	13.754	937.949	701.022
191.300	13.597	937.432	699.910
192.315	13.661	936.379	699.334
193.329	13.664	935.915	698.937
194.344	13.773	935.297	698.876
195.359	13.937	934.464	698.881
196.373	13.863	933.971	698.139
197.388	13.950	933.477	698.073
198.402	13.906	933.169	697.593
199.417	14.117	931.995	697.542
200.432	14.183	931.335	697.262
201.446	14.161	931.067	696.907
202.461	14.235	930.645	696.841
203.475	13.936	930.750	695.604
204.490	14.104	929.233	695.114
205.504	14.125	928.391	694.509
206.519	14.143	927.619	693.943
207.534	14.174	926.857	693.441
208.548	14.224	926.441	693.278
209.563	14.088	925.709	692.102
210.577	14.202	924.771	691.816
211.592	14.209	924.355	691.472
212.607	14.195	923.866	690.986
213.621	14.344	922.708	690.675
214.636	14.200	922.221	689.654
215.650	14.230	921.449	689.138
216.665	14.283	920.436	688.541
217.680	14.256	920.588	688.480
218.694	14.321	919.254	687.694
219.709	14.351	918.708	687.348
220.723	14.377	918.181	686.997
221.738	14.320	917.307	686.047
222.753	14.369	916.846	685.844
223.767	14.469	916.188	685.705
224.782	14.489	915.711	685.369
225.796	14.460	915.431	684.978
226.811	14.438	914.483	684.116
227.826	14.445	913.550	683.388
228.840	14.423	912.992	682.820
229.855	14.444	912.390	682.394
230.869	14.406	911.400	681.440
231.884	14.445	910.839	681.120
232.899	14.439	910.161	680.527
233.913	14.428	909.574	679.982
234.928	14.448	908.853	679.464
235.942	14.341	908.404	678.635
236.957	14.479	907.897	678.758
237.972	14.441	907.022	677.890
238.986	14.443	906.326	677.318
240.001	14.394	905.930	676.761
241.015	14.438	905.217	676.348
242.030	14.496	904.458	675.956
243.045	14.743	903.732	676.352
244.059	14.561	903.144	675.118
245.074	14.579	902.925	674.967
246.088	14.625	902.035	674.426
247.103	14.645	901.164	673.797
248.117	14.690	900.787	673.638
249.132	14.700	900.556	673.444
250.147	14.826	899.518	673.117
251.161	14.755	899.222	672.548
252.176	14.886	898.101	672.178
253.190	14.995	897.816	672.344
254.205	14.858	897.041	671.153
255.220	14.986	896.240	671.008
256.234	14.898	895.525	670.061
257.249	15.073	895.104	670.388
258.263	14.959	894.048	669.083
259.278	14.897	893.356	668.259
260.293	15.190	892.730	668.899
261.307	14.903	892.710	667.681
262.322	15.086	891.658	667.563
263.336	15.139	890.746	667.034
264.351	15.123	890.209	666.508
265.366	15.125	889.848	666.186
266.380	15.137	888.916	665.477
267.395	15.252	888.111	665.273
268.409	15.132	887.599	664.355
269.424	15.163	886.518	663.610
270.439	15.213	885.991	663.354
271.453	15.181	885.586	662.865
272.468	15.078	885.196	662.105
273.482	15.064	884.392	661.391
274.497	15.174	883.634	661.200
275.512	15.206	883.284	661.005
276.526	15.242	882.879	660.789
277.541	15.249	882.457	660.440
278.555	15.310	881.490	659.899
279.570	15.379	880.756	659.560
280.585	15.365	880.186	659.022
281.599	15.258	879.533	658.055
282.614	15.427	878.673	658.013
283.628	15.309	878.209	657.147
284.643	15.375	877.774	657.021
285.657	15.395	877.077	656.518
286.672	15.303	876.499	655.669
287.687	15.469	875.235	655.316
288.701	15.446	875.145	655.098
289.716	15.474	874.704	654.822
290.730	15.447	873.863	654.028
291.745	15.396	873.509	653.507
292.760	15.513	872.490	653.142
293.774	15.561	872.052	652.941
294.789	15.459	871.470	652.051
295.803	15.507	870.559	651.499
296.818	15.659	869.676	651.370
297.833	15.529	869.162	650.424
298.847	15.582	868.569	650.128
299.862	15.490	868.173	649.419
300.876	15.625	867.642	649.486
301.891	15.714	866.888	649.207
302.906	15.829	866.331	649.176
303.920	15.706	865.801	648.248
304.935	15.685	865.440	647.839
305.949	15.860	864.546	647.784
306.964	15.696	864.117	646.777
307.979	15.814	863.366	646.609
308.993	15.829	862.846	646.221
310.008	15.904	861.941	645.774
311.022	15.860	861.911	645.525
312.037	15.804	861.261	644.765
313.052	15.675	860.854	643.911
314.066	15.712	860.116	643.444
315.081	15.894	859.281	643.456
316.095	15.844	859.091	643.069
317.110	15.972	858.342	642.939
318.125	15.874	857.809	642.107
319.139	15.886	857.258	641.684
320.154	15.887	856.633	641.164
321.168	15.988	856.083	641.080
322.183	15.955	855.250	640.273
323.197	15.975	855.310	640.338
324.212	16.021	854.546	639.883
325.227	15.966	853.902	639.137
326.241	16.137	853.077	639.112
327.256	15.963	853.078	638.394
328.270	15.907	852.176	637.452
329.285	15.882	851.783	637.008
330.300	15.890	851.057	636.438
331.314	15.995	850.607	636.443
332.329	16.039	850.059	636.143
333.343	16.063	849.748	635.945
334.358	16.038	849.078	635.293
335.373	16.100	848.795	635.257
336.387	16.112	848.519	635.039
337.402	16.094	848.269	634.727
338.416	16.128	848.235	634.774
339.431	16.292	847.282	634.623
340.446	16.361	846.734	634.415
341.460	16.220	846.817	633.892
342.475	16.227	846.228	633.420
343.489	16.350	845.609	633.361
344.504	16.301	845.141	632.772
345.519	16.311	844.945	632.607
346.533	16.411	844.218	632.380
347.548	16.278	843.695	631.434
348.562	16.191	843.157	630.650
349.577	16.315	842.409	630.498
350.592	16.398	841.638	630.176
351.606	16.215	841.349	629.224
352.621	16.458	840.341	629.318
353.635	16.335	840.283	628.762
354.650	16.250	839.339	627.683
355.665	16.385	839.064	627.924
356.679	16.348	838.331	627.182
357.694	16.469	837.549	626.988
358.708	16.629	836.647	626.851
359.723	16.471	836.390	626.020
360.738	16.497	835.660	625.511
361.752	16.479	835.008	624.902
362.767	16.579	834.211	624.621
363.781	16.601	833.587	624.179
364.796	16.687	833.562	624.421
365.810	16.667	833.145	623.980
366.825	16.660	832.907	623.723
367.840	16.687	832.077	623.143
368.854	16.739	831.494	622.843
369.869	16.855	831.185	622.983
370.883	16.832	830.830	622.580
371.898	16.684	830.756	621.923
372.913	16.789	830.217	621.850
373.927	16.783	829.688	621.376
374.942	16.808	829.124	620.990
375.956	16.795	829.175	620.926
376.971	16.813	828.763	620.630
377.986	16.704	828.162	619.727
379.000	17.170	826.967	620.479
380.015	16.923	826.815	619.408
381.029	17.033	826.147	619.256
382.044	17.052	825.474	618.764
383.059	17.055	824.875	618.273
384.073	17.099	824.307	617.950
385.088	16.905	824.097	617.032
386.102	16.971	823.051	616.433
387.117	16.813	823.312	616.001
388.132	17.106	822.144	616.138
389.146	17.061	821.728	615.605
390.161	17.031	821.525	615.291
391.175	17.112	820.846	615.024
392.190	17.020	820.378	614.284
393.205	17.084	820.114	614.262
394.219	17.102	819.662	613.936
395.234	17.001	819.415	613.331
396.248	16.919	818.844	612.555
397.263	17.051	818.213	612.505
398.278	17.045	818.169	612.397
399.292	17.272	817.292	612.503
400.307	16.987	816.897	611.127
401.321	17.049	816.704	611.151
402.336	17.102	815.935	610.711
403.350	17.092	815.660	610.416
404.365	17.175	815.246	610.351
405.380	17.169	814.889	610.008
406.394	17.073	814.390	609.236
407.409	17.271	813.744	609.409
408.423	17.265	813.456	609.117
409.438	17.508	812.718	609.381
410.453	17.530	812.386	609.155
411.467	17.417	812.082	608.471
412.482	17.401	811.795	608.142
413.496	17.423	811.600	608.024
414.511	17.574	810.903	607.987
415.526	17.488	810.340	607.204
416.540	17.651	809.753	607.289
417.555	17.519	809.565	606.625
418.569	17.574	808.933	606.295
419.584	17.620	808.462	606.052
420.599	17.557	808.175	605.557
421.613	113.931	1298.639	1488.233
422.628	98.451	1370.064	1488.304
