DTS Sentinel unit serial number:	SN413079Multiplexer serial number:	ORYXHardware model number:	OX4-SRSoftware version number:	ORYX F/W v4.00 Oryx Data Collector v3.7.2.0data status	okinstallation	princeton_trtdifferential loss correction	single-endedforward channel	channel 1reverse channel	N/Adate	2019/09/12time	14:32:11forward acquisition time	60.00reverse acquisition time	0.00gamma	496.2192k internal	0.2294k external	0.2294temperature offset calibration	1.0055default loss term (dB/km)	0.3790temperature slope calibration	1.0000multiplexer offset coefficient	1.0000multiplexer slope coefficient	1.0000fibre end	0.00T internal ref (°C)	40.06T ext. ref 1 (°C)	2.27T ext. ref 2 (°C)	35.62length (m)	temperature (°C)	Stokes	anti-Stokes-747.200	-200.000	-0.032	0.293
-746.185	-53.863	0.198	-0.093
-745.171	334.971	-0.133	-0.264
-744.156	56.518	0.168	0.167
-743.142	-42.703	0.172	0.089
-742.127	-101.094	-0.373	0.094
-741.112	75.685	0.131	0.142
-740.098	128.299	-0.230	-0.300
-739.083	3.193	0.423	-0.315
-738.069	-200.000	0.054	0.317
-737.054	800.000	-0.042	-0.178
-736.039	-22.076	-0.197	-0.123
-735.025	-125.067	0.055	-0.009
-734.010	89.737	-0.203	-0.232
-732.996	-174.616	0.474	-0.014
-731.981	-200.000	-0.062	0.317
-730.966	-130.402	0.253	0.035
-729.952	-131.449	-0.204	0.028
-728.937	181.274	0.097	-0.146
-727.923	800.000	-0.020	0.077
-726.908	-84.041	-0.190	0.062
-725.894	-15.512	-0.239	-0.156
-724.879	173.435	-0.130	-0.192
-723.864	-80.874	-0.363	0.123
-722.850	106.758	-0.173	-0.209
-721.835	-117.957	-0.082	0.015
-720.821	-200.000	0.026	-0.273
-719.806	-7.573	-0.184	-0.127
-718.791	627.283	-0.037	0.095
-717.777	-200.000	0.026	-0.198
-716.762	-133.590	-0.209	-0.027
-715.748	662.311	-0.068	-0.178
-714.733	283.994	-0.069	0.127
-713.718	-96.579	-0.236	0.064
-712.704	-78.701	-0.300	0.105
-711.689	91.842	-0.271	-0.311
-710.675	125.678	-0.159	-0.205
-709.660	103.649	-0.171	-0.205
-708.645	-200.000	0.018	-0.290
-707.631	550.723	-0.104	0.256
-706.616	18.842	-0.275	0.225
-705.602	-200.000	0.007	-0.109
-704.587	-200.000	0.048	-0.280
-703.572	-192.924	0.107	-0.001
-702.558	-105.710	-0.169	-0.039
-701.543	-94.031	0.081	-0.023
-700.529	-15.007	0.252	-0.165
-699.514	800.000	-0.037	0.155
-698.499	-136.765	-0.266	0.031
-697.485	44.308	-0.386	0.362
-696.470	59.751	0.349	-0.352
-695.456	-66.562	-0.202	0.082
-694.441	662.944	0.113	-0.299
-693.426	68.895	0.139	-0.146
-692.412	-91.214	-0.086	0.025
-691.397	-64.874	-0.130	-0.054
-690.383	145.538	0.105	-0.144
-689.368	-38.295	0.152	0.082
-688.354	-94.271	-0.309	-0.086
-687.339	-156.566	-0.113	0.007
-686.324	-49.951	0.139	0.068
-685.310	327.317	-0.107	-0.209
-684.295	-126.867	-0.094	0.014
-683.281	-121.020	0.074	0.013
-682.266	-200.000	-0.010	0.080
-681.251	-157.518	-0.074	-0.005
-680.237	236.811	-0.026	0.044
-679.222	-84.547	-0.207	-0.067
-678.208	82.737	-0.040	0.044
-677.193	75.397	0.092	-0.099
-676.178	131.612	0.134	-0.175
-675.164	28.404	0.221	0.190
-674.149	-171.561	0.215	-0.007
-673.135	-20.730	-0.290	-0.181
-672.120	-184.403	-0.268	0.004
-671.105	-78.520	-0.436	-0.152
-670.091	-31.181	-0.081	0.047
-669.076	800.000	0.097	0.372
-668.062	113.469	0.156	-0.194
-667.047	-72.732	-0.271	-0.102
-666.032	-200.000	-0.024	0.183
-665.018	156.914	0.160	0.226
-664.003	-169.602	-0.124	0.005
-662.989	141.263	-0.093	-0.125
-661.974	-200.000	0.002	0.308
-660.959	-179.311	0.294	-0.007
-659.945	800.000	0.061	0.214
-658.930	-106.229	0.359	-0.082
-657.916	-200.000	-0.038	0.174
-656.901	-49.993	-0.014	0.007
-655.886	211.771	-0.106	0.171
-654.872	-60.988	-0.139	-0.060
-653.857	725.944	-0.051	0.139
-652.843	396.494	-0.247	-0.525
-651.828	636.691	-0.058	-0.151
-650.814	800.000	0.029	0.107
-649.799	14.017	0.284	0.225
-648.784	-46.094	-0.091	-0.045
-647.770	-200.000	-0.030	0.372
-646.755	-200.000	-0.026	-0.179
-645.741	50.163	-0.145	-0.140
-644.726	-97.118	0.014	0.004
-643.711	800.000	-0.058	-0.229
-642.697	-43.987	-0.196	0.100
-641.682	-191.781	0.504	0.005
-640.668	-32.160	-0.084	0.048
-639.653	251.216	0.201	-0.348
-638.638	-138.569	0.090	-0.010
-637.624	800.000	-0.041	0.125
-636.609	-40.650	-0.159	-0.084
-635.595	-200.000	0.010	-0.151
-634.580	-114.859	0.195	0.038
-633.565	-22.272	0.045	0.028
-632.551	202.065	0.065	-0.102
-631.536	800.000	0.057	-0.251
-630.522	-40.033	-0.086	0.046
-629.507	-159.180	0.215	0.012
-628.492	-5.115	0.246	-0.172
-627.478	-108.073	-0.146	0.032
-626.463	0.878	-0.134	0.098
-625.449	-97.833	0.363	-0.096
-624.434	-200.000	-0.015	0.148
-623.419	-158.946	0.236	0.014
-622.405	77.579	-0.197	0.214
-621.390	-138.676	-0.089	-0.010
-620.376	122.117	0.128	-0.163
-619.361	-200.000	0.015	0.179
-618.346	-138.197	0.115	0.013
-617.332	55.699	-0.108	0.106
-616.317	123.091	-0.064	-0.081
-615.303	193.118	-0.054	0.083
-614.288	-200.000	0.004	0.300
-613.273	-94.998	0.125	-0.034
-612.259	-200.000	-0.026	0.143
-611.244	-200.000	-0.085	0.508
-610.230	201.197	0.150	0.235
-609.215	-90.462	-0.162	-0.048
-608.201	-125.912	-0.229	-0.035
-607.186	547.597	0.152	0.371
-606.171	130.846	-0.152	-0.198
-605.157	-17.867	0.163	-0.104
-604.142	-200.000	-0.032	-0.265
-603.128	-65.717	-0.367	0.150
-602.113	104.083	0.109	0.130
-601.098	238.844	0.111	0.187
-600.084	-65.798	-0.243	0.099
-599.069	-133.777	-0.225	-0.028
-598.055	329.592	0.135	-0.264
-597.040	-200.000	-0.011	-0.132
-596.025	-86.747	0.173	0.054
-595.011	349.724	-0.082	-0.164
-593.996	-2.023	0.173	0.124
-592.982	-118.521	0.536	0.096
-591.967	-63.911	-0.112	-0.046
-590.952	-200.000	-0.003	0.029
-589.938	9.612	0.057	-0.044
-588.923	-176.484	0.259	-0.007
-587.909	-5.448	0.359	-0.250
-586.894	-54.781	-0.154	-0.071
-585.879	-40.264	-0.456	0.241
-584.865	-200.000	0.005	0.073
-583.850	-109.215	-0.354	0.076
-582.836	-178.543	-0.215	0.005
-581.821	187.139	0.129	-0.196
-580.806	116.126	0.089	0.111
-579.792	47.663	-0.173	0.164
-578.777	-21.409	0.100	0.062
-577.763	115.198	0.083	0.103
-576.748	-169.479	-0.383	-0.014
-575.733	800.000	0.050	-0.166
-574.719	-137.540	0.202	-0.023
-573.704	165.147	-0.030	-0.043
-572.690	-78.035	-0.222	-0.078
-571.675	376.598	0.210	-0.436
-570.661	-49.678	0.464	0.224
-569.646	122.810	0.238	0.303
-568.631	-39.902	-0.166	0.088
-567.617	-131.373	-0.129	-0.017
-566.602	800.000	0.020	-0.081
-565.588	9.274	0.183	-0.141
-564.573	-123.516	-0.174	-0.028
-563.558	-7.954	0.310	0.212
-562.544	-200.000	-0.047	0.264
-561.529	83.228	0.141	-0.156
-560.515	-102.732	-0.052	-0.013
-559.500	248.517	0.125	0.214
-558.485	-86.802	0.103	0.032
-557.471	112.961	0.022	0.027
-556.456	-200.000	0.010	-0.289
-555.442	-90.228	-0.254	-0.075
-554.427	-200.000	-0.023	-0.282
-553.412	-200.000	-0.025	0.334
-552.398	-4.207	0.166	-0.117
-551.383	185.235	-0.144	0.218
-550.369	-88.141	-0.266	0.081
-549.354	710.722	0.007	-0.018
-548.339	800.000	0.019	0.065
-547.325	39.807	0.188	-0.171
-546.310	-92.766	-0.290	0.082
-545.296	130.617	-0.167	0.217
-544.281	44.140	-0.176	0.164
-543.266	-98.783	-0.111	-0.029
-542.252	533.641	-0.044	0.106
-541.237	800.000	0.060	0.190
-540.223	-28.883	0.168	0.098
-539.208	150.955	-0.262	-0.362
-538.193	-200.000	0.004	0.146
-537.179	-27.954	-0.117	-0.069
-536.164	47.341	-0.173	-0.164
-535.150	46.114	0.168	-0.158
-534.135	-89.113	-0.173	-0.052
-533.121	-88.091	0.072	0.022
-532.106	-132.275	0.162	0.021
-531.091	181.593	-0.108	0.161
-530.077	-28.637	-0.219	-0.128
-529.062	-115.481	0.181	-0.035
-528.048	-95.341	0.158	-0.043
-527.033	53.400	-0.146	-0.142
-526.018	-97.798	-0.253	-0.066
-525.004	-125.244	0.260	0.040
-523.989	-123.473	-0.144	0.023
-522.975	-200.000	-0.009	0.193
-521.960	232.047	-0.053	0.088
-520.945	-110.143	0.387	-0.082
-519.931	-33.438	0.215	-0.121
-518.916	280.613	-0.060	-0.108
-517.902	-12.507	-0.280	0.185
-516.887	322.948	0.100	-0.194
-515.872	-64.746	-0.221	-0.091
-514.858	-90.736	0.290	0.085
-513.843	20.814	0.137	-0.112
-512.829	-165.034	-0.314	0.014
-511.814	4.303	-0.262	0.195
-510.799	175.531	-0.015	-0.022
-509.785	97.117	-0.159	-0.184
-508.770	-200.000	0.025	0.166
-507.756	-200.000	0.007	-0.044
-506.741	-118.918	0.224	-0.040
-505.726	-51.412	-0.305	-0.145
-504.712	114.208	-0.066	0.081
-503.697	200.688	0.147	-0.229
-502.683	-64.065	0.118	0.049
-501.668	669.403	0.057	0.148
-500.653	-200.000	-0.011	-0.365
-499.639	38.057	0.228	-0.206
-498.624	-44.982	0.170	-0.086
-497.610	-91.291	-0.361	-0.105
-496.595	652.996	-0.025	0.064
-495.581	121.484	0.091	-0.114
-494.566	-200.000	-0.024	0.254
-493.551	-39.224	-0.055	-0.029
-492.537	-183.860	-0.471	0.008
-491.522	-47.306	0.106	0.052
-490.508	-37.956	-0.238	-0.128
-489.493	800.000	0.042	-0.120
-488.478	-61.993	-0.366	0.155
-487.464	-200.000	0.016	-0.284
-486.449	-80.593	-0.307	-0.104
-485.435	800.000	0.019	-0.073
-484.420	38.584	-0.096	0.086
-483.405	-32.202	0.271	0.153
-482.391	-200.000	0.026	0.139
-481.376	-76.161	-0.470	-0.168
-480.362	-23.048	-0.077	-0.047
-479.347	800.000	-0.083	0.248
-478.332	718.102	-0.062	0.165
-477.318	800.000	-0.067	0.251
-476.303	91.907	-0.235	-0.268
-475.289	-145.611	0.241	0.022
-474.274	80.501	0.214	0.233
-473.259	116.094	-0.085	-0.106
-472.245	610.837	-0.050	-0.128
-471.230	-184.994	0.428	-0.007
-470.216	-114.370	-0.271	-0.053
-469.201	-200.000	0.046	-0.268
-468.186	-200.000	0.009	-0.112
-467.172	-200.000	0.046	0.273
-466.157	77.693	0.272	0.293
-465.143	435.240	0.047	0.104
-464.128	-200.000	0.037	0.282
-463.113	113.294	0.115	0.141
-462.099	157.720	0.073	-0.102
-461.084	-36.229	0.217	0.119
-460.070	109.568	-0.147	-0.179
-459.055	161.628	-0.137	-0.195
-458.040	87.209	-0.292	0.326
-457.026	800.000	-0.044	-0.155
-456.011	100.089	-0.107	-0.126
-454.997	53.574	0.095	-0.093
-453.982	-50.923	-0.128	0.061
-452.968	145.351	0.084	-0.114
-451.953	271.569	0.199	0.355
-450.938	-17.538	0.098	-0.062
-449.924	-184.535	-0.205	-0.003
-448.909	-88.318	0.435	0.132
-447.895	-171.241	0.160	-0.005
-446.880	-200.000	0.011	0.126
-445.865	-200.000	-0.004	-0.069
-444.851	-101.845	-0.294	-0.072
-443.836	228.422	-0.111	-0.183
-442.822	-200.000	-0.020	0.098
-441.807	-77.944	0.220	0.077
-440.792	-133.505	-0.275	-0.035
-439.778	-58.808	-0.180	0.079
-438.763	-103.998	0.054	0.013
-437.749	-123.353	0.221	0.036
-436.734	-200.000	0.005	-0.072
-435.719	800.000	0.021	-0.064
-434.705	-111.198	-0.339	-0.070
-433.690	-200.000	-0.008	0.305
-432.676	-27.321	0.188	0.110
-431.661	70.026	0.143	0.149
-430.646	389.724	0.113	-0.237
-429.632	63.148	0.111	0.112
-428.617	-69.192	0.352	-0.137
-427.603	369.691	-0.094	-0.192
-426.588	177.022	-0.184	-0.271
-425.573	95.059	-0.037	0.043
-424.559	800.000	0.059	0.164
-423.544	800.000	0.023	0.087
-422.530	763.719	0.099	-0.272
-421.515	-75.488	-0.125	-0.045
-420.500	-1.171	0.204	-0.146
-419.486	-91.410	-0.347	0.100
-418.471	-109.705	0.070	-0.015
-417.457	-185.239	0.110	-0.002
-416.442	684.377	0.085	-0.224
-415.428	4.081	-0.139	0.103
-414.413	63.071	-0.326	-0.329
-413.398	33.913	-0.203	-0.178
-412.384	-87.098	0.097	-0.030
-411.369	-122.699	0.249	-0.041
-410.355	800.000	0.011	-0.038
-409.340	-200.000	-0.005	-0.311
-408.325	-141.997	-0.087	0.009
-407.311	-4.946	-0.185	-0.128
-406.296	800.000	0.029	0.116
-405.282	230.794	0.041	-0.067
-404.267	2.039	0.208	-0.151
-403.252	-200.000	-0.027	-0.141
-402.238	231.303	-0.070	-0.116
-401.223	800.000	-0.114	-0.423
-400.209	-181.433	0.308	0.006
-399.194	-137.964	0.187	-0.021
-398.179	118.590	-0.147	-0.183
-397.165	68.751	0.138	0.143
-396.150	2.273	-0.505	-0.368
-395.136	-192.060	-0.219	0.002
-394.121	-91.451	-0.285	0.082
-393.106	283.412	-0.042	-0.076
-392.092	3.295	0.068	0.050
-391.077	81.492	0.042	-0.045
-390.063	-122.343	0.399	-0.066
-389.048	800.000	-0.040	0.168
-388.033	-90.031	-0.298	0.088
-387.019	508.116	-0.047	-0.111
-386.004	-123.413	0.258	0.041
-384.990	-137.205	-0.227	0.026
-383.975	-130.231	-0.175	-0.024
-382.960	119.009	-0.226	-0.282
-381.946	-200.000	-0.008	-0.109
-380.931	146.442	-0.068	0.092
-379.917	-200.000	-0.029	0.203
-378.902	36.695	-0.147	-0.131
-377.888	-40.845	-0.044	0.023
-376.873	-200.000	-0.021	0.294
-375.858	8.642	0.043	-0.033
-374.844	800.000	0.022	0.064
-373.829	132.989	0.122	0.159
-372.815	4.465	-0.042	-0.031
-371.800	521.364	-0.068	0.160
-370.785	505.159	-0.113	-0.263
-369.771	-79.162	0.147	0.050
-368.756	-200.000	0.037	0.340
-367.742	152.615	-0.030	-0.042
-366.727	140.219	0.219	0.291
-365.712	-22.363	0.244	-0.149
-364.698	-200.000	0.024	-0.263
-363.683	-200.000	0.005	-0.038
-362.669	-31.760	-0.211	-0.119
-361.654	156.041	-0.201	-0.280
-360.639	340.350	-0.093	-0.183
-359.625	-89.458	-0.067	-0.020
-358.610	117.158	0.249	0.308
-357.596	-127.078	-0.409	-0.060
-356.581	800.000	0.059	0.190
-355.566	-99.925	-0.140	0.035
-354.552	211.705	0.152	0.242
-353.537	-129.908	0.222	-0.031
-352.523	694.087	0.085	-0.224
-351.508	-200.000	0.012	-0.407
-350.493	62.721	-0.072	0.072
-349.479	-16.106	-0.240	0.153
-348.464	-79.061	-0.453	-0.155
-347.450	-49.658	0.103	-0.050
-346.435	-80.847	0.158	0.053
-345.420	-24.249	-0.096	0.057
-344.406	-75.121	-0.200	0.072
-343.391	-93.040	-0.331	-0.093
-342.377	-79.524	0.173	-0.059
-341.362	-175.421	-0.092	0.003
-340.348	281.642	0.022	-0.039
-339.333	67.044	0.149	0.153
-338.318	92.093	0.199	0.225
-337.304	-200.000	0.027	0.129
-336.289	166.935	-0.087	-0.125
-335.275	117.742	-0.071	-0.088
-334.260	-136.362	-0.367	0.043
-333.245	-90.048	0.268	0.078
-332.231	601.851	0.024	-0.060
-331.216	25.405	0.104	0.087
-330.202	-155.586	-0.102	0.007
-329.187	29.851	0.156	-0.134
-328.172	197.084	-0.142	-0.217
-327.158	-15.328	-0.081	0.052
-326.143	366.150	0.053	-0.107
-325.129	-25.274	0.162	-0.097
-324.114	-200.000	-0.066	-0.303
-323.099	-200.000	-0.044	0.307
-322.085	800.000	0.069	0.303
-321.070	567.490	-0.127	-0.309
-320.056	-43.455	0.195	0.099
-319.041	-125.974	0.204	-0.031
-318.026	122.307	0.275	0.346
-317.012	800.000	0.069	0.251
-315.997	-158.383	-0.120	0.007
-314.983	-200.000	-0.056	0.494
-313.968	150.115	0.200	0.273
-312.953	222.955	0.166	0.269
-311.939	-200.000	-0.009	0.073
-310.924	-25.725	-0.190	-0.113
-309.910	-59.247	0.084	-0.036
-308.895	-119.786	-0.306	-0.053
-307.880	-83.698	0.109	-0.035
-306.866	800.000	-0.026	-0.094
-305.851	96.584	-0.147	-0.169
-304.837	-113.882	-0.369	-0.072
-303.822	-111.512	0.244	-0.050
-302.807	-200.000	-0.043	0.202
-301.793	-200.000	-0.337	-0.001
-300.778	-200.000	0.058	0.478
-299.764	-83.175	0.212	-0.068
-298.749	337.954	0.210	-0.410
-297.735	-22.681	0.185	0.113
-296.720	-194.793	-0.226	-0.002
-295.705	72.265	-0.290	-0.304
-294.691	800.000	0.015	0.042
-293.676	36.377	0.326	-0.289
-292.662	33.907	0.049	0.042
-291.647	-200.000	-0.005	0.210
-290.632	-200.000	-0.018	-0.293
-289.618	800.000	0.045	-0.181
-288.603	-73.769	-0.141	-0.052
-287.589	-6.946	0.216	-0.148
-286.574	580.164	0.062	0.154
-285.559	-75.631	0.161	0.057
-284.545	231.875	0.103	-0.169
-283.530	32.851	0.121	0.105
-282.516	-200.000	-0.022	0.292
-281.501	-23.177	0.219	0.133
-280.486	130.177	-0.062	0.079
-279.472	443.550	0.184	-0.406
-278.457	-118.541	-0.155	0.028
-277.443	108.496	-0.059	-0.070
-276.428	800.000	-0.049	-0.193
-275.413	782.561	-0.077	-0.212
-274.399	-156.020	-0.240	-0.015
-273.384	-31.596	0.213	0.120
-272.370	-200.000	0.020	0.114
-271.355	-85.791	0.056	0.018
-270.340	103.588	0.055	0.065
-269.326	-100.346	-0.049	-0.012
-268.311	-200.000	-0.027	0.319
-267.297	800.000	0.067	-0.266
-266.282	-200.000	-0.049	-0.217
-265.267	-30.400	0.106	0.060
-264.253	-200.000	-0.028	-0.225
-263.238	800.000	0.062	0.178
-262.224	-200.000	-0.028	-0.307
-261.209	-143.304	0.103	-0.010
-260.195	-130.164	0.100	0.014
-259.180	5.749	-0.105	0.078
-258.165	311.742	0.083	-0.157
-257.151	800.000	-0.093	-0.378
-256.136	-53.090	0.143	-0.066
-255.122	154.446	0.231	0.318
-254.107	-11.353	0.146	0.096
-253.092	79.059	0.208	-0.223
-252.078	-151.190	0.322	0.024
-251.063	410.133	0.118	-0.250
-250.049	67.419	0.062	0.064
-249.034	210.893	0.371	0.585
-248.019	-200.000	0.000	0.117
-247.005	219.713	-0.110	-0.177
-245.990	-200.000	-0.041	-0.272
-244.976	95.603	0.085	0.098
-243.961	-143.107	0.307	-0.030
-242.946	-200.000	0.046	-0.295
-241.932	-13.461	0.144	0.093
-240.917	-84.784	-0.024	0.008
-239.903	83.029	0.181	0.197
-238.888	777.653	-0.045	0.122
-237.873	292.337	0.008	-0.014
-236.859	251.872	-0.036	0.062
-235.844	-143.870	-0.119	0.011
-234.830	-200.000	0.006	-0.058
-233.815	-85.779	0.203	-0.063
-232.800	305.858	-0.056	0.105
-231.786	377.074	0.112	0.229
-230.771	-15.448	-0.381	-0.244
-229.757	-50.294	0.207	0.098
-228.742	-108.679	0.250	-0.054
-227.727	-122.072	-0.124	0.020
-226.713	107.296	-0.092	0.109
-225.698	36.041	-0.131	-0.116
-224.684	-200.000	-0.089	0.417
-223.669	-155.953	-0.170	-0.011
-222.655	42.558	0.219	0.200
-221.640	55.755	-0.181	0.176
-220.625	-80.069	-0.255	-0.086
-219.611	60.868	-0.125	-0.124
-218.596	123.263	0.141	-0.177
-217.582	183.164	-0.189	0.279
-216.567	-155.505	-0.238	-0.015
-215.552	800.000	-0.031	0.126
-214.538	534.353	-0.085	0.203
-213.523	-79.345	0.209	-0.071
-212.509	800.000	-0.048	0.200
-211.494	-53.642	0.146	0.067
-210.479	-200.000	0.006	0.179
-209.465	3.212	0.133	-0.097
-208.450	-200.000	-0.026	-0.247
-207.436	800.000	-0.064	-0.190
-206.421	26.639	-0.062	-0.052
-205.406	800.000	0.029	0.119
-204.392	-114.140	0.049	0.009
-203.377	-200.000	0.022	-0.161
-202.363	60.076	0.211	-0.209
-201.348	115.477	-0.137	-0.167
-200.333	378.316	0.095	0.195
-199.319	-185.031	0.264	-0.004
-198.304	120.299	0.180	-0.224
-197.290	627.039	0.069	-0.175
-196.275	107.761	0.281	-0.335
-195.260	-5.705	-0.147	-0.101
-194.246	-86.814	0.153	0.047
-193.231	-200.000	-0.022	0.326
-192.217	-82.897	-0.232	-0.075
-191.202	-90.001	-0.216	0.063
-190.187	-21.890	-0.046	0.028
-189.173	-200.000	0.031	0.399
-188.158	-143.817	0.408	0.039
-187.144	-200.000	0.006	0.099
-186.129	-154.350	-0.504	-0.034
-185.114	153.734	-0.125	0.172
-184.100	196.835	-0.084	-0.128
-183.085	-200.000	-0.022	-0.241
-182.071	27.989	-0.213	0.180
-181.056	-2.292	0.221	0.155
-180.042	-3.248	-0.233	-0.162
-179.027	-200.000	0.067	0.308
-178.012	137.659	-0.037	-0.048
-176.998	-104.657	-0.080	0.018
-175.983	-119.799	-0.157	0.027
-174.969	141.252	-0.169	-0.224
-173.954	-64.618	-0.293	-0.119
-172.939	67.467	-0.232	0.237
-171.925	-23.660	-0.250	-0.150
-170.910	72.733	-0.145	-0.151
-169.896	-112.614	0.406	-0.081
-168.881	638.110	0.074	0.189
-167.866	0.718	-0.104	0.075
-166.852	11.518	-0.188	-0.144
-165.837	-82.928	0.251	-0.081
-164.823	-39.983	-0.298	-0.155
-163.808	158.433	-0.022	0.030
-162.793	121.347	0.134	0.166
-161.779	-64.920	-0.141	0.057
-160.764	35.975	0.144	0.127
-159.750	-77.579	0.313	0.109
-158.735	38.088	0.308	0.274
-157.720	379.458	0.063	-0.129
-156.706	-124.399	0.252	-0.039
-155.691	635.753	0.149	0.378
-154.677	163.843	0.042	-0.059
-153.662	800.000	-0.056	0.180
-152.647	-22.066	-0.259	0.157
-151.633	-95.015	0.260	0.070
-150.618	150.767	-0.115	0.156
-149.604	544.865	-0.012	0.029
-148.589	-200.000	-0.011	0.363
-147.574	384.699	0.048	0.098
-146.560	800.000	0.025	0.098
-145.545	-125.068	0.379	-0.058
-144.531	479.540	0.089	0.201
-143.516	60.776	-0.118	0.117
-142.502	236.019	-0.152	-0.251
-141.487	114.035	0.224	-0.272
-140.472	800.000	-0.074	0.206
-139.458	-3.157	-0.248	-0.173
-138.443	-200.000	0.008	-0.176
-137.429	-125.057	-0.236	-0.036
-136.414	771.242	0.152	0.414
-135.399	51.563	0.028	-0.027
-134.385	53.823	0.182	0.175
-133.370	2.831	-0.053	0.038
-132.356	-81.850	0.193	0.063
-131.341	-53.584	0.041	-0.019
-130.326	-186.423	0.155	-0.002
-129.312	95.774	0.114	-0.130
-128.297	596.553	-0.077	0.190
-127.283	273.440	0.050	0.089
-126.268	800.000	-0.100	-0.333
-125.253	800.000	0.140	-0.395
-124.239	33.769	0.152	0.132
-123.224	-200.000	-0.000	-0.141
-122.210	7.434	0.156	-0.116
-121.195	33.509	-0.071	-0.061
-120.180	-200.000	0.018	-0.223
-119.166	-80.635	-0.078	0.026
-118.151	-200.000	0.001	0.131
-117.137	22.923	-0.125	0.103
-116.122	-200.000	0.011	-0.122
-115.107	45.411	0.227	0.209
-114.093	-148.083	-0.414	0.034
-113.078	-136.434	0.171	-0.020
-112.064	-75.806	-0.181	-0.064
-111.049	-97.957	0.168	-0.043
-110.034	-82.218	-0.109	-0.035
-109.020	-43.011	-0.333	-0.168
-108.005	-13.560	-0.385	0.249
-106.991	17.204	-0.120	0.095
-105.976	800.000	-0.098	0.324
-104.962	-59.891	-0.121	-0.052
-103.947	-132.872	0.341	0.043
-102.932	-35.531	0.234	-0.127
-101.918	-132.907	0.152	-0.019
-100.903	-71.858	-0.285	-0.106
-99.889	-93.078	-0.224	-0.062
-98.874	-133.351	-0.042	-0.005
-97.859	-200.000	0.009	0.145
-96.845	93.138	-0.322	0.363
-95.830	-51.790	0.048	0.022
-94.816	114.283	-0.211	0.256
-93.801	-80.098	0.150	-0.050
-92.786	542.881	-0.032	0.076
-91.772	800.000	0.047	-0.166
-90.757	39.165	0.123	0.110
-89.743	338.330	-0.028	-0.054
-88.728	-200.000	0.001	-0.013
-87.713	208.973	-0.231	0.361
-86.699	35.909	0.009	-0.008
-85.684	-200.000	0.027	0.429
-84.670	-2.048	-0.028	0.020
-83.655	-22.895	-0.298	0.179
-82.640	-51.745	-0.236	0.109
-81.626	-63.593	0.303	-0.124
-80.611	56.241	0.110	-0.106
-79.597	800.000	-0.093	-0.327
-78.582	401.427	-0.048	-0.101
-77.567	-112.423	-0.428	-0.085
-76.553	39.140	-0.031	0.027
-75.538	169.477	0.097	0.138
-74.524	-43.690	-0.215	-0.108
-73.509	800.000	0.066	-0.285
-72.494	-7.141	-0.263	-0.178
-71.480	-60.955	-0.133	-0.056
-70.465	-0.127	0.249	0.177
-69.451	-116.848	0.111	-0.020
-68.436	627.842	-0.057	0.142
-67.422	-71.277	-0.223	-0.083
-66.407	6.039	-0.028	0.021
-65.392	-171.873	0.128	0.004
-64.378	-56.091	-0.313	-0.139
-63.363	15.197	0.508	0.397
-62.349	99.903	0.155	-0.178
-61.334	182.333	-0.687	-1.008
-60.319	44.370	0.410	0.375
-59.305	-200.000	0.071	-0.782
-58.290	3.863	0.776	0.564
-57.276	348.250	0.792	1.555
-56.261	-200.000	78.153	506.937
-55.246	506.642	1333.139	3078.015
-54.232	148.199	2558.725	3437.942
-53.217	114.610	2223.310	2697.447
-52.203	51.334	1677.614	1585.805
-51.188	43.652	1406.589	1281.160
-50.173	40.171	1361.336	1218.503
-49.159	58.388	1398.561	1365.588
-48.144	64.977	1416.823	1424.304
-47.130	44.157	1378.684	1258.681
-46.115	40.132	1362.117	1218.771
-45.100	39.948	1357.344	1213.321
-44.086	39.864	1355.408	1211.029
-43.071	39.923	1352.382	1208.635
-42.057	39.807	1350.659	1206.342
-41.042	39.894	1348.996	1205.338
-40.027	39.866	1347.457	1203.744
-39.013	40.011	1345.174	1202.538
-37.998	39.978	1343.331	1200.645
-36.984	40.070	1341.823	1199.807
-35.969	40.120	1339.798	1198.250
-34.954	40.126	1338.171	1196.782
-33.940	40.163	1336.777	1195.714
-32.925	40.170	1335.266	1194.359
-31.911	40.184	1334.032	1193.290
-30.896	40.106	1332.502	1191.404
-29.881	40.066	1331.609	1190.316
-28.867	40.155	1329.338	1188.774
-27.852	40.288	1328.089	1188.407
-26.838	40.175	1326.631	1186.383
-25.823	40.106	1325.261	1184.697
-24.809	40.140	1323.952	1183.679
-23.794	40.256	1321.999	1182.584
-22.779	40.092	1321.356	1180.982
-21.765	40.057	1320.153	1179.651
-20.750	40.106	1318.155	1178.107
-19.736	40.048	1316.698	1176.411
-18.721	40.023	1315.637	1175.272
-17.706	39.973	1314.785	1174.166
-16.692	40.133	1313.006	1173.479
-15.677	40.029	1312.200	1172.098
-14.663	40.104	1310.899	1171.330
-13.648	40.038	1310.413	1170.460
-12.633	40.054	1309.263	1169.483
-11.619	39.920	1308.281	1167.765
-10.604	39.985	1307.531	1167.433
-9.590	39.910	1306.666	1166.175
-8.575	39.996	1305.604	1165.686
-7.560	39.887	1304.640	1164.138
-6.546	39.873	1303.662	1163.133
-5.531	40.015	1302.490	1162.877
-4.517	40.015	1301.687	1162.117
-3.502	39.999	1301.133	1161.483
-2.487	40.009	1299.699	1160.213
-1.473	40.034	1295.948	1156.967
-0.458	38.822	1280.732	1136.321
0.556	35.112	1261.133	1093.313
1.571	31.049	1265.229	1073.438
2.586	29.885	1280.748	1079.724
3.600	28.715	1269.199	1063.125
4.615	20.960	1191.840	955.893
5.629	8.615	1107.292	824.731
6.644	2.705	1083.297	776.915
7.659	2.232	1080.003	772.092
8.673	2.101	1078.304	770.151
9.688	2.023	1076.791	768.609
10.702	2.272	1076.178	769.357
11.717	9.248	1086.571	812.068
12.731	20.296	1103.210	880.812
13.746	25.247	1108.582	910.206
14.761	25.489	1108.531	911.313
15.775	25.462	1108.298	910.904
16.790	25.388	1107.617	909.886
17.804	25.209	1106.930	908.335
18.819	25.426	1105.933	908.536
19.834	25.360	1106.262	908.394
20.848	25.681	1105.057	908.942
21.863	25.555	1104.690	907.923
22.877	25.489	1103.989	906.933
23.892	25.528	1103.355	906.532
24.907	25.399	1102.496	905.096
25.921	25.512	1101.398	904.681
26.936	25.453	1100.126	903.259
27.950	25.382	1098.635	901.602
28.965	25.246	1096.756	899.297
29.980	25.491	1095.149	899.128
30.994	25.556	1094.720	899.020
32.009	25.557	1093.669	898.082
33.023	25.269	1092.418	895.539
34.038	25.476	1091.533	895.766
35.053	25.432	1091.039	895.061
36.067	25.440	1090.645	894.701
37.082	25.608	1089.473	894.491
38.096	25.621	1089.015	894.100
39.111	25.773	1088.302	894.195
40.126	25.628	1086.492	891.909
41.140	25.225	1084.917	888.542
42.155	25.050	1083.219	886.206
43.169	25.105	1082.552	885.856
44.184	25.122	1081.833	885.270
45.199	25.054	1080.534	883.793
46.213	25.082	1080.101	883.498
47.228	25.186	1079.277	883.261
48.242	25.303	1078.112	882.806
49.257	25.405	1077.744	882.927
50.271	25.442	1077.122	882.522
51.286	25.562	1075.925	882.049
52.301	25.544	1075.315	881.385
53.315	25.529	1074.165	880.290
54.330	25.455	1073.086	878.967
55.344	25.431	1072.382	878.193
56.359	25.291	1071.811	876.963
57.374	25.207	1070.510	875.415
58.388	25.113	1070.170	874.599
59.403	25.150	1069.196	873.908
60.417	25.023	1068.224	872.416
61.432	25.090	1067.930	872.425
62.447	25.236	1066.590	871.964
63.461	25.216	1066.132	871.415
64.476	25.126	1065.076	870.038
65.490	25.093	1064.396	869.246
66.505	25.063	1063.687	868.440
67.520	25.319	1062.541	868.667
68.534	25.025	1061.528	866.343
69.549	24.552	1060.981	863.533
70.563	24.629	1059.918	862.963
71.578	24.573	1059.067	861.923
72.593	24.577	1057.955	860.961
73.607	24.556	1057.695	860.575
74.622	25.003	1057.046	862.123
75.636	25.009	1056.778	861.856
76.651	24.753	1055.559	859.553
77.666	24.781	1054.759	858.960
78.680	24.854	1053.844	858.491
79.695	24.945	1053.186	858.316
80.709	24.982	1053.022	858.283
81.724	25.007	1052.019	857.506
82.739	25.113	1051.046	857.147
83.753	25.474	1050.582	858.419
84.768	25.675	1050.161	858.958
85.782	25.830	1049.302	858.916
86.797	25.692	1048.235	857.309
87.812	25.543	1046.872	855.410
88.826	25.568	1046.198	854.903
89.841	25.750	1045.281	854.943
90.855	25.844	1044.058	854.313
91.870	25.620	1043.773	852.940
92.884	25.510	1042.833	851.577
93.899	25.498	1041.402	850.277
94.914	25.703	1040.581	850.501
95.928	25.598	1039.550	849.085
96.943	25.280	1038.581	846.721
97.957	25.034	1037.233	844.388
98.972	24.955	1036.152	843.060
99.987	25.225	1035.366	843.617
101.001	25.456	1034.642	844.038
102.016	25.486	1033.477	843.152
103.030	25.338	1032.924	841.932
104.045	25.054	1032.065	839.827
105.060	25.037	1030.849	838.682
106.074	25.187	1030.558	839.074
107.089	25.485	1030.172	840.080
108.103	25.305	1028.986	838.197
109.118	25.111	1027.620	836.103
110.133	25.137	1026.560	835.289
111.147	24.967	1025.121	833.253
112.162	24.753	1024.665	831.815
113.176	25.074	1024.389	833.011
114.191	25.159	1023.437	832.556
115.206	24.769	1021.969	829.481
116.220	24.745	1021.064	828.560
117.235	24.905	1020.435	828.718
118.249	24.981	1019.279	828.059
119.264	24.666	1018.713	826.067
120.279	24.829	1018.146	826.287
121.293	24.745	1017.736	825.495
122.308	24.971	1016.243	825.254
123.322	24.791	1015.045	823.377
124.337	24.581	1014.275	821.713
125.352	24.239	1012.028	818.253
126.366	24.056	1011.429	816.854
127.381	24.829	1011.652	820.509
128.395	25.217	1011.082	821.752
129.410	25.403	1010.286	821.885
130.424	25.387	1008.766	820.503
131.439	25.294	1008.168	819.519
132.454	25.404	1006.929	818.942
133.468	25.286	1006.294	817.812
134.483	25.427	1005.675	817.880
135.497	25.643	1005.266	818.456
136.512	25.710	1004.129	817.766
137.527	25.718	1002.907	816.731
138.541	25.669	1002.269	815.917
139.556	25.659	1001.922	815.521
140.570	25.717	1001.266	815.176
141.585	25.809	1000.080	814.554
142.600	25.661	999.019	812.949
143.614	26.018	998.255	813.868
144.629	25.929	998.023	813.206
145.643	25.953	996.362	811.885
146.658	25.742	995.183	809.905
147.673	25.452	994.227	807.753
148.687	25.389	993.051	806.442
149.702	25.381	992.148	805.600
150.716	25.428	991.193	804.964
151.731	25.448	990.727	804.606
152.746	25.704	990.181	805.236
153.760	25.847	989.325	805.106
154.775	25.767	988.966	804.389
155.789	25.860	987.625	803.641
156.804	25.727	986.953	802.429
157.819	25.823	986.063	802.062
158.833	25.987	985.738	802.459
159.848	25.975	984.431	801.271
160.862	25.753	983.200	799.211
161.877	25.827	981.944	798.446
162.892	25.867	981.634	798.301
163.906	25.723	980.139	796.378
164.921	25.688	979.257	795.435
165.935	25.826	978.458	795.325
166.950	25.764	977.595	794.279
167.964	25.671	976.645	793.031
168.979	25.514	975.551	791.378
169.994	25.603	974.577	790.909
171.008	25.757	974.005	791.051
172.023	25.789	973.446	790.668
173.037	25.681	971.888	788.860
174.052	25.468	970.906	787.063
175.067	25.397	970.750	786.553
176.081	25.600	970.203	786.928
177.096	25.597	969.516	786.289
178.110	25.263	968.372	783.832
179.125	25.004	968.049	782.373
180.140	25.095	967.134	781.961
181.154	25.351	966.930	782.844
182.169	25.618	966.856	783.877
183.183	25.833	966.421	784.390
184.198	25.660	965.288	782.650
185.213	25.752	964.545	782.379
186.227	25.784	964.249	782.205
187.242	25.831	963.303	781.575
188.256	25.724	963.157	780.925
189.271	25.846	961.849	780.320
190.286	25.512	960.867	778.009
191.300	24.957	959.364	774.326
192.315	23.969	958.038	768.919
193.329	23.999	957.747	768.747
194.344	24.934	957.981	772.906
195.359	25.606	957.911	775.679
196.373	25.667	957.209	775.304
197.388	25.510	956.735	774.178
198.402	25.698	955.913	774.250
199.417	25.820	955.242	774.163
200.432	25.492	954.151	771.805
201.446	25.181	953.837	770.145
202.461	25.471	952.847	770.521
203.475	24.560	950.785	764.886
204.490	23.768	949.608	760.482
205.504	24.629	950.017	764.427
206.519	25.248	950.116	767.090
207.534	25.309	949.619	766.879
208.548	25.672	949.831	768.536
209.563	25.492	948.798	766.862
210.577	25.364	948.106	765.690
211.592	25.893	947.644	767.502
212.607	25.888	946.743	766.684
213.621	25.864	946.225	766.092
214.636	25.804	945.717	765.358
215.650	25.736	945.043	764.459
216.665	25.902	944.164	764.385
217.680	25.886	943.168	763.441
218.694	25.470	942.297	760.909
219.709	25.289	941.619	759.527
220.723	25.590	940.968	760.209
221.738	25.592	940.414	759.702
222.753	25.547	939.792	758.941
223.767	25.762	939.421	759.480
224.782	26.024	939.307	760.425
225.796	25.749	939.248	759.152
226.811	25.239	937.375	755.426
227.826	24.697	935.697	751.725
228.840	24.860	935.137	751.898
229.855	24.912	934.610	751.626
230.869	24.431	933.557	748.694
231.884	24.918	933.782	750.851
232.899	25.630	933.693	753.695
233.913	25.591	932.796	752.744
234.928	25.423	932.614	751.827
235.942	25.349	931.983	750.939
236.957	25.091	931.139	749.117
237.972	25.243	930.466	749.142
238.986	25.289	930.077	748.956
240.001	25.243	929.621	748.329
241.015	25.424	928.534	748.143
242.030	25.535	928.154	748.232
243.045	25.654	928.086	748.607
244.059	25.699	927.688	748.407
245.074	25.544	926.445	746.695
246.088	25.408	925.197	745.057
247.103	25.586	925.353	745.855
248.117	26.003	925.453	747.601
249.132	26.291	925.306	748.608
250.147	26.361	924.255	747.980
251.161	26.580	923.721	748.390
252.176	26.627	922.750	747.731
253.190	26.722	922.436	747.800
254.205	26.714	922.178	747.492
255.220	26.684	921.347	746.628
256.234	26.514	920.629	745.280
257.249	26.470	919.861	744.413
258.263	26.467	919.198	743.798
259.278	26.538	918.564	743.509
260.293	26.638	917.945	743.353
261.307	26.500	917.266	742.175
262.322	26.300	916.575	740.730
263.336	25.615	914.360	736.073
264.351	24.646	912.534	730.579
265.366	24.616	912.380	730.266
266.380	25.763	913.156	735.511
267.395	26.275	912.593	737.080
268.409	26.006	912.235	735.630
269.424	26.356	911.537	736.427
270.439	26.235	911.192	735.592
271.453	26.445	910.311	735.671
272.468	26.511	910.130	735.726
273.482	26.510	910.064	735.603
274.497	26.195	908.468	732.972
275.512	25.913	907.088	730.649
276.526	26.225	907.812	732.435
277.541	26.325	907.268	732.337
278.555	26.157	906.250	730.769
279.570	26.026	905.493	729.565
280.585	26.144	904.833	729.442
281.599	26.207	904.115	729.056
282.614	25.710	902.742	725.878
283.628	25.600	902.306	725.021
284.643	25.958	902.191	726.309
285.657	25.580	900.694	723.520
286.672	25.395	900.164	722.286
287.687	25.788	900.456	724.037
288.701	25.914	899.505	723.711
289.716	25.539	898.503	721.340
290.730	25.539	897.865	720.763
291.745	25.156	897.191	718.622
292.760	25.432	897.042	719.545
293.774	26.590	897.097	724.160
294.789	26.959	896.756	725.297
295.803	26.826	896.484	724.481
296.818	26.814	896.352	724.260
297.833	26.567	894.610	721.806
298.847	26.511	893.776	720.848
299.862	26.517	894.100	721.065
300.876	26.818	893.763	721.931
301.891	26.827	892.535	720.912
302.906	26.552	891.153	718.639
303.920	26.435	891.122	718.085
304.935	26.833	891.197	719.660
305.949	26.802	890.691	719.064
306.964	26.522	889.997	717.334
307.979	26.595	889.361	717.045
308.993	26.939	889.144	718.171
310.008	27.104	888.252	718.038
311.022	26.764	887.531	716.046
312.037	26.697	886.592	714.964
313.052	26.338	885.658	712.730
314.066	25.423	884.501	708.131
315.081	25.046	883.452	705.747
316.095	26.033	883.449	709.566
317.110	26.489	883.678	711.479
318.125	25.687	882.159	707.043
319.139	24.673	880.614	701.766
320.154	24.485	880.438	700.825
321.168	25.499	880.675	704.930
322.183	26.229	880.867	707.882
323.197	26.259	880.831	707.911
324.212	26.559	880.383	708.661
325.227	26.624	879.364	708.032
326.241	26.465	879.060	707.106
327.256	26.392	878.420	706.242
328.270	26.304	877.527	705.117
329.285	26.201	876.342	703.703
330.300	25.908	875.703	701.987
331.314	26.067	875.472	702.356
332.329	26.579	875.425	704.250
333.343	26.777	875.304	704.861
334.358	26.653	874.633	703.774
335.373	26.709	874.409	703.752
336.387	27.116	874.459	705.309
337.402	27.165	874.050	705.108
338.416	27.094	873.631	704.432
339.431	27.207	873.394	704.615
340.446	27.384	873.275	705.144
341.460	27.323	872.359	704.103
342.475	27.111	872.336	703.201
343.489	27.173	871.598	702.786
344.504	27.486	871.652	703.979
345.519	27.563	871.049	703.725
346.533	27.493	870.659	703.078
347.548	27.513	870.274	702.783
348.562	27.632	869.024	702.169
349.577	27.470	868.780	701.287
350.592	27.384	868.227	700.447
351.606	27.464	867.189	699.853
352.621	27.296	866.544	698.627
353.635	27.210	865.855	697.680
354.650	26.628	864.097	693.972
355.665	25.612	862.341	688.615
356.679	26.013	862.203	689.974
357.694	26.304	862.638	691.376
358.708	26.576	861.369	691.339
359.723	26.787	861.465	692.159
360.738	27.327	860.746	693.579
361.752	27.245	860.446	692.963
362.767	27.619	860.265	694.181
363.781	27.790	860.111	694.647
364.796	27.864	859.483	694.360
365.810	27.982	858.919	694.288
366.825	28.072	858.517	694.244
367.840	27.730	857.626	692.167
368.854	27.329	856.975	690.061
369.869	27.152	856.691	689.096
370.883	27.325	856.149	689.256
371.898	27.215	855.340	688.129
372.913	27.358	855.414	688.668
373.927	27.431	854.777	688.372
374.942	27.644	854.497	688.889
375.956	27.619	854.115	688.426
376.971	27.684	853.846	688.392
377.986	27.899	853.625	688.967
379.000	27.865	852.893	688.184
380.015	27.668	851.989	686.652
381.029	27.768	851.607	686.659
382.044	27.973	850.858	686.765
383.059	27.839	850.379	685.817
384.073	27.786	850.349	685.533
385.088	27.861	849.026	684.684
386.102	27.716	848.322	683.513
387.117	27.571	847.363	682.138
388.132	27.138	846.388	679.676
389.146	26.721	845.798	677.581
390.161	27.195	845.436	679.003
391.175	27.643	845.381	680.570
392.190	27.255	844.459	678.321
393.205	25.885	842.206	671.352
394.219	24.316	840.299	663.935
395.234	24.311	839.806	663.470
396.248	25.978	841.535	670.986
397.263	27.284	842.648	676.674
398.278	27.377	842.061	676.491
399.292	27.157	841.331	675.025
400.307	27.018	841.057	674.230
401.321	27.251	840.441	674.542
402.336	27.643	840.086	675.649
403.350	28.107	840.168	677.374
404.365	28.212	840.237	677.760
405.380	28.495	839.998	678.553
406.394	28.493	839.646	678.203
407.409	28.480	838.876	677.471
408.423	28.510	838.296	677.056
409.438	28.564	838.005	676.960
410.453	28.606	837.601	676.729
411.467	28.537	837.047	675.966
412.482	28.406	836.727	675.164
413.496	28.524	836.595	675.432
414.511	28.546	835.874	674.871
415.526	28.528	835.664	674.575
416.540	28.422	834.670	673.324
417.555	28.164	833.825	671.638
418.569	28.332	833.635	672.040
419.584	28.365	832.751	671.390
420.599	28.208	832.158	670.278
421.613	97.072	1270.430	1389.881
422.628	84.047	1334.302	1390.008
