DTS Sentinel unit serial number:	SN413079Multiplexer serial number:	ORYXHardware model number:	OX4-SRSoftware version number:	ORYX F/W v4.00 Oryx Data Collector v3.7.2.0data status	okinstallation	princeton_trtdifferential loss correction	single-endedforward channel	channel 1reverse channel	N/Adate	2019/09/19time	13:22:35forward acquisition time	60.00reverse acquisition time	0.00gamma	496.2192k internal	0.2327k external	0.2327temperature offset calibration	1.0014default loss term (dB/km)	0.3790temperature slope calibration	1.0000multiplexer offset coefficient	1.0000multiplexer slope coefficient	1.0000fibre end	0.00T internal ref (°C)	29.69T ext. ref 1 (°C)	0.95T ext. ref 2 (°C)	26.96length (m)	temperature (°C)	Stokes	anti-Stokes-747.200	-41.217	0.288	0.150
-746.185	366.461	-0.115	0.233
-745.171	-94.242	0.169	0.047
-744.156	-54.622	-0.362	0.165
-743.142	-39.969	0.079	-0.041
-742.127	-200.000	0.016	0.084
-741.112	800.000	-0.115	-0.358
-740.098	550.165	0.082	-0.199
-739.083	711.522	0.049	0.130
-738.069	540.450	-0.142	0.340
-737.054	243.947	0.033	0.056
-736.039	800.000	0.047	-0.140
-735.025	-200.000	-0.002	0.405
-734.010	143.526	-0.135	0.181
-732.996	23.655	0.201	0.167
-731.981	-113.014	-0.156	0.031
-730.966	425.986	0.119	-0.258
-729.952	-115.370	-0.271	-0.052
-728.937	14.424	-0.049	0.038
-727.923	524.546	0.103	-0.243
-726.908	800.000	0.060	-0.173
-725.894	646.153	-0.036	-0.093
-724.879	-200.000	0.024	0.179
-723.864	285.802	-0.054	0.099
-722.850	-200.000	-0.066	-0.295
-721.835	-62.547	-0.223	0.093
-720.821	665.213	-0.017	-0.043
-719.806	-200.000	0.034	-0.342
-718.791	-32.693	-0.120	0.067
-717.777	24.236	0.132	0.109
-716.762	538.992	-0.088	0.211
-715.748	156.914	0.122	-0.170
-714.733	-200.000	0.036	-0.193
-713.718	46.067	-0.180	-0.168
-712.704	456.648	-0.014	-0.032
-711.689	-83.406	0.255	-0.082
-710.675	-15.846	-0.266	-0.170
-709.660	-118.783	-0.489	0.087
-708.645	-71.559	-0.204	-0.077
-707.631	-113.045	-0.230	-0.046
-706.616	-44.603	-0.021	-0.011
-705.602	27.141	-0.132	0.112
-704.587	-200.000	-0.025	0.198
-703.572	367.925	0.144	0.293
-702.558	800.000	-0.066	-0.233
-701.543	264.162	-0.184	0.322
-700.529	325.452	-0.052	-0.100
-699.514	-114.949	0.234	-0.045
-698.499	800.000	0.063	0.256
-697.485	-200.000	-0.023	-0.296
-696.470	-144.373	0.130	-0.012
-695.456	800.000	0.164	0.457
-694.441	800.000	-0.012	-0.042
-693.426	-73.145	-0.208	0.077
-692.412	-200.000	-0.038	0.219
-691.397	51.044	-0.067	0.064
-690.383	258.565	-0.211	0.366
-689.368	-73.198	-0.100	0.037
-688.354	-136.601	0.456	-0.053
-687.339	-69.924	0.089	0.034
-686.324	-134.262	0.146	-0.018
-685.310	425.689	0.085	-0.185
-684.295	122.492	0.145	0.182
-683.281	192.921	0.038	0.058
-682.266	494.769	-0.160	-0.369
-681.251	800.000	-0.118	-0.338
-680.237	198.873	0.084	-0.129
-679.222	287.107	0.013	0.023
-678.208	175.135	-0.183	-0.267
-677.193	800.000	-0.069	-0.257
-676.178	-45.773	-0.375	0.186
-675.164	600.451	-0.073	-0.181
-674.149	-112.144	-0.096	-0.019
-673.135	186.802	-0.255	-0.382
-672.120	-200.000	0.003	-0.016
-671.105	800.000	0.033	-0.135
-670.091	800.000	0.115	-0.335
-669.076	-200.000	-0.046	-0.235
-668.062	51.099	-0.184	-0.176
-667.047	11.924	0.278	-0.215
-666.032	356.959	0.162	-0.325
-665.018	25.526	0.296	-0.247
-664.003	249.219	-0.040	0.068
-662.989	175.227	0.077	-0.112
-661.974	-42.643	0.200	0.102
-660.959	-200.000	-0.025	-0.138
-659.945	624.447	-0.120	0.305
-658.930	-64.810	0.204	0.083
-657.916	-15.778	-0.178	0.114
-656.901	-166.323	-0.382	-0.016
-655.886	23.906	0.172	0.142
-654.872	119.163	-0.357	-0.443
-653.857	91.054	-0.061	0.069
-652.843	39.446	-0.192	-0.173
-651.828	-200.000	0.038	0.275
-650.814	-133.892	0.398	0.050
-649.799	-29.296	-0.129	0.074
-648.784	-26.274	-0.192	0.113
-647.770	240.344	0.004	-0.006
-646.755	-200.000	-0.005	-0.339
-645.741	341.017	-0.070	-0.138
-644.726	233.333	-0.158	0.262
-643.711	-200.000	-0.093	0.490
-642.697	-136.026	-0.207	0.024
-641.682	-37.800	-0.346	-0.185
-640.668	-200.000	-0.011	0.214
-639.653	13.237	0.079	0.062
-638.638	-200.000	0.020	-0.308
-637.624	-7.542	0.320	-0.217
-636.609	-60.158	0.052	-0.022
-635.595	14.937	-0.185	-0.145
-634.580	-35.992	-0.265	-0.144
-633.565	-153.461	0.136	-0.009
-632.551	-39.354	-0.111	-0.058
-631.536	55.368	-0.211	0.205
-630.522	-200.000	-0.023	-0.192
-629.507	6.323	0.153	-0.114
-628.492	44.945	0.161	-0.149
-627.478	92.522	0.091	-0.103
-626.463	-200.000	0.001	0.009
-625.449	-84.638	0.161	0.051
-624.434	-124.371	0.358	-0.056
-623.419	-149.934	-0.194	-0.015
-622.405	-57.335	0.212	-0.094
-621.390	800.000	-0.059	-0.176
-620.376	800.000	0.017	-0.057
-619.361	-172.482	-0.450	0.014
-618.346	800.000	0.087	0.377
-617.332	-200.000	0.021	-0.355
-616.317	-81.122	-0.230	-0.076
-615.303	-200.000	-0.059	-0.606
-614.288	363.896	-0.094	-0.191
-613.273	-114.765	0.239	0.046
-612.259	-67.927	-0.350	-0.137
-611.244	-25.979	-0.135	0.080
-610.230	800.000	0.074	-0.321
-609.215	124.926	-0.077	0.097
-608.201	-83.959	-0.362	0.115
-607.186	64.908	-0.169	-0.171
-606.171	-200.000	-0.018	0.112
-605.157	-176.189	-0.239	0.006
-604.142	-150.075	0.124	-0.010
-603.128	800.000	-0.007	-0.023
-602.113	-33.936	-0.128	0.070
-601.098	800.000	0.115	-0.464
-600.084	-23.937	0.240	0.144
-599.069	552.555	-0.007	-0.017
-598.055	800.000	-0.048	-0.192
-597.040	164.503	-0.133	-0.188
-596.025	-200.000	0.012	-0.444
-595.011	-31.152	0.129	-0.073
-593.996	-123.989	0.260	-0.041
-592.982	-54.363	-0.081	0.037
-591.967	-163.082	-0.120	0.006
-590.952	-200.000	0.038	-0.251
-589.938	800.000	0.043	0.146
-588.923	256.458	0.128	0.219
-587.909	-110.665	-0.126	-0.026
-586.894	800.000	0.076	-0.214
-585.879	-200.000	0.054	0.245
-584.865	-136.556	-0.282	-0.033
-583.850	-200.000	0.178	0.000
-582.836	-18.189	-0.154	-0.097
-581.821	66.506	0.137	0.140
-580.806	-72.279	0.496	0.184
-579.792	53.215	-0.225	-0.216
-578.777	183.363	0.105	-0.155
-577.763	-129.190	-0.131	-0.018
-576.748	-200.000	-0.005	-0.084
-575.733	662.505	-0.071	0.185
-574.719	158.818	0.175	0.244
-573.704	18.709	0.183	0.147
-572.690	-176.135	0.161	-0.004
-571.675	-39.127	0.096	0.051
-570.661	-200.000	-0.029	-0.324
-569.646	98.960	-0.219	-0.254
-568.631	800.000	-0.054	0.218
-567.617	-109.750	0.116	-0.024
-566.602	667.062	0.128	0.330
-565.588	145.682	-0.121	0.163
-564.573	-55.318	-0.395	-0.178
-563.558	641.021	0.142	0.362
-562.544	-200.000	0.023	-0.408
-561.529	-200.000	0.038	0.195
-560.515	800.000	-0.068	0.243
-559.500	-200.000	-0.046	-0.209
-558.485	151.368	-0.154	0.210
-557.471	227.305	0.066	-0.107
-556.456	-69.529	-0.150	0.058
-555.442	-91.252	-0.098	-0.028
-554.427	223.825	-0.063	-0.102
-553.412	-200.000	-0.031	0.165
-552.398	-200.000	0.040	-0.546
-551.383	640.247	-0.120	-0.306
-550.369	-66.761	-0.276	-0.109
-549.354	89.995	0.064	0.072
-548.339	-200.000	0.014	-0.072
-547.325	61.481	0.035	-0.035
-546.310	-3.273	-0.158	-0.110
-545.296	-49.574	0.036	-0.017
-544.281	285.906	-0.092	0.166
-543.266	232.694	-0.020	-0.033
-542.252	149.325	-0.106	0.144
-541.237	36.164	0.175	0.154
-540.223	-200.000	0.019	0.090
-539.208	800.000	-0.088	0.261
-538.193	-112.539	-0.134	-0.027
-537.179	329.004	-0.055	0.106
-536.164	-77.726	-0.153	0.053
-535.150	-6.787	0.053	0.036
-534.135	-88.858	-0.201	-0.060
-533.121	-150.620	0.205	0.016
-532.106	-75.753	-0.076	0.027
-531.091	-65.121	-0.270	-0.109
-530.077	8.525	0.127	-0.095
-529.062	-120.332	-0.127	0.022
-528.048	-181.983	0.215	0.004
-527.033	8.874	0.087	0.066
-526.018	-179.939	-0.065	0.001
-525.004	40.072	0.240	0.215
-523.989	61.749	0.098	-0.097
-522.975	-81.366	-0.414	0.137
-521.960	-29.842	0.368	-0.210
-520.945	2.820	-0.300	0.218
-519.931	-88.033	-0.125	0.038
-518.916	70.136	0.293	-0.302
-517.902	228.922	-0.189	-0.309
-516.887	5.780	0.071	-0.052
-515.872	41.319	0.136	-0.123
-514.858	200.103	0.156	0.239
-513.843	-194.649	0.064	0.001
-512.829	-111.510	-0.276	-0.056
-511.814	31.064	-0.287	-0.246
-510.799	-54.891	-0.219	-0.099
-509.785	-127.768	-0.529	-0.076
-508.770	-200.000	-0.019	-0.286
-507.756	-102.241	-0.245	-0.059
-506.741	-22.362	0.079	0.048
-505.726	-200.000	0.005	0.259
-504.712	-41.886	0.270	-0.138
-503.697	-37.772	0.257	0.136
-502.683	472.867	0.163	0.367
-501.668	95.559	0.176	-0.200
-500.653	362.087	0.085	0.170
-499.639	-200.000	0.001	-0.190
-498.624	-146.019	0.255	-0.023
-497.610	-34.939	-0.260	0.142
-496.595	-154.112	-0.094	-0.006
-495.581	127.063	-0.054	-0.069
-494.566	304.712	0.200	-0.371
-493.551	800.000	-0.054	-0.168
-492.537	800.000	-0.041	0.125
-491.522	-139.430	0.188	-0.020
-490.508	344.849	-0.066	0.129
-489.493	292.117	-0.084	0.154
-488.478	548.020	-0.037	0.088
-487.464	-53.390	0.160	0.073
-486.449	-106.007	0.311	-0.070
-485.435	-200.000	-0.033	0.167
-484.420	-41.631	0.083	0.042
-483.405	521.740	-0.040	-0.094
-482.391	110.206	0.199	0.239
-481.376	-71.123	0.140	0.052
-480.362	-200.000	-0.050	0.239
-479.347	-156.971	-0.137	0.008
-478.332	-200.000	-0.023	0.358
-477.318	239.189	-0.071	-0.118
-476.303	389.413	-0.077	-0.159
-475.289	-178.173	0.250	-0.006
-474.274	-67.793	-0.136	0.053
-473.259	-200.000	0.040	0.312
-472.245	653.950	0.164	0.419
-471.230	-75.315	0.227	-0.081
-470.216	22.089	-0.137	0.112
-469.201	-200.000	-0.014	0.064
-468.186	-10.333	-0.160	0.106
-467.172	-200.000	-0.045	-0.233
-466.157	-72.329	0.287	-0.106
-465.143	800.000	-0.094	0.304
-464.128	-68.275	0.122	0.047
-463.113	-95.163	0.092	0.025
-462.099	52.902	0.004	-0.004
-461.084	800.000	-0.022	0.079
-460.070	-84.679	0.145	-0.045
-459.055	-73.111	-0.415	0.152
-458.040	-200.000	-0.021	-0.212
-457.026	47.571	0.093	-0.087
-456.011	61.385	-0.304	-0.301
-454.997	539.456	0.016	-0.037
-453.982	24.043	0.166	0.136
-452.968	-200.000	-0.005	-0.195
-451.953	-200.000	-0.030	-0.212
-450.938	-200.000	0.010	-0.132
-449.924	-200.000	-0.006	0.156
-448.909	5.707	0.284	0.209
-447.895	85.920	-0.312	-0.342
-446.880	-91.770	-0.418	-0.118
-445.865	-200.000	0.061	0.453
-444.851	153.405	-0.140	0.191
-443.836	162.167	0.146	-0.204
-442.822	-195.327	0.292	-0.002
-441.807	-113.484	0.151	-0.030
-440.792	-114.460	-0.070	-0.013
-439.778	-8.859	-0.158	-0.106
-438.763	-200.000	-0.039	0.198
-437.749	-128.896	0.237	0.033
-436.734	-54.087	-0.140	0.064
-435.719	272.500	-0.137	0.241
-434.705	131.402	-0.135	0.173
-433.690	175.646	0.090	0.129
-432.676	352.516	0.134	0.265
-431.661	-109.820	0.281	0.059
-430.646	202.863	-0.089	-0.136
-429.632	-157.081	-0.179	0.011
-428.617	224.649	-0.111	0.179
-427.603	800.000	0.035	0.145
-426.588	749.109	-0.056	0.152
-425.573	540.151	-0.053	-0.125
-424.559	-31.010	-0.085	0.048
-423.544	-35.925	0.091	0.049
-422.530	-200.000	-0.122	-0.593
-421.515	-200.000	0.056	0.270
-420.500	-36.833	-0.026	-0.014
-419.486	-34.023	-0.071	-0.039
-418.471	-200.000	-0.042	-0.211
-417.457	-148.638	-0.091	-0.007
-416.442	-137.809	-0.090	-0.010
-415.428	1.672	0.208	-0.149
-414.413	365.651	-0.071	0.142
-413.398	-200.000	0.031	-0.263
-412.384	195.893	-0.242	0.367
-411.369	470.701	-0.131	0.292
-410.355	-121.769	0.231	-0.038
-409.340	-111.945	0.049	-0.010
-408.325	246.507	-0.040	-0.067
-407.311	-200.000	0.000	0.026
-406.296	155.019	-0.161	0.221
-405.282	-200.000	0.022	-0.148
-404.267	671.938	-0.091	0.233
-403.252	-200.000	-0.000	0.151
-402.238	-86.554	-0.073	-0.022
-401.223	59.734	-0.115	-0.113
-400.209	-161.799	0.263	-0.013
-399.194	-200.000	-0.014	-0.117
-398.179	-19.773	-0.261	0.160
-397.165	-74.766	0.205	0.073
-396.150	70.069	0.195	-0.200
-395.136	-26.971	-0.245	-0.142
-394.121	279.464	-0.146	-0.260
-393.106	107.505	-0.156	0.184
-392.092	800.000	0.036	0.109
-391.077	-200.000	0.043	0.189
-390.063	28.363	-0.126	0.106
-389.048	800.000	-0.059	0.207
-388.033	-128.435	0.013	0.002
-387.019	67.987	0.122	0.124
-386.004	294.999	0.147	-0.268
-384.990	-200.000	0.032	-0.169
-383.975	-56.768	0.153	-0.067
-382.960	-170.855	-0.197	0.007
-381.946	194.317	0.025	-0.037
-380.931	-200.000	0.038	0.205
-379.917	286.101	-0.232	0.416
-378.902	800.000	-0.091	0.320
-377.888	-94.108	0.120	-0.033
-376.873	57.235	-0.124	-0.120
-375.858	28.235	0.104	0.087
-374.844	800.000	-0.025	-0.105
-373.829	39.533	-0.202	-0.180
-372.815	800.000	0.022	-0.072
-371.800	47.380	0.281	0.260
-370.785	-65.026	-0.484	-0.194
-369.771	159.209	-0.056	-0.077
-368.756	-200.000	-0.012	0.101
-367.742	264.919	-0.094	-0.163
-366.727	-6.540	-0.070	0.048
-365.712	-72.205	0.236	0.087
-364.698	-200.000	0.018	0.418
-363.683	800.000	0.051	-0.173
-362.669	-109.687	-0.246	-0.051
-361.654	23.456	-0.065	-0.053
-360.639	213.808	-0.077	0.121
-359.625	339.361	0.029	-0.057
-358.610	-200.000	0.013	-0.297
-357.596	83.100	0.163	0.176
-356.581	-38.582	0.223	0.117
-355.566	228.873	0.190	0.307
-354.552	-152.652	0.227	0.016
-353.537	207.801	-0.061	0.095
-352.523	-200.000	0.026	-0.284
-351.508	-110.843	0.263	0.054
-350.493	426.549	-0.140	0.299
-349.479	-11.202	-0.216	-0.142
-348.464	-200.000	0.015	-0.296
-347.450	270.992	0.125	-0.218
-346.435	395.872	0.108	0.223
-345.420	-20.970	0.171	0.104
-344.406	-200.000	-0.009	0.075
-343.391	-11.653	0.283	-0.185
-342.377	-157.405	-0.171	-0.010
-341.362	-200.000	0.003	0.053
-340.348	-200.000	-0.031	0.157
-339.333	17.694	-0.168	-0.133
-338.318	497.303	-0.117	0.267
-337.304	-94.500	-0.228	-0.062
-336.289	-130.249	0.242	-0.033
-335.275	26.222	0.089	-0.074
-334.260	-20.712	0.229	0.139
-333.245	-160.963	-0.207	-0.011
-332.231	-54.005	-0.040	0.018
-331.216	-76.232	0.340	-0.119
-330.202	-200.000	-0.046	-0.370
-329.187	-93.691	-0.138	0.038
-328.172	-69.451	0.336	0.128
-327.158	-63.604	0.330	-0.134
-326.143	526.977	0.063	-0.147
-325.129	-69.218	0.146	-0.055
-324.114	-149.607	-0.210	-0.016
-323.099	-58.759	0.018	0.008
-322.085	-26.865	-0.204	-0.118
-321.070	578.575	0.133	-0.322
-320.056	-147.846	-0.639	0.053
-319.041	-27.794	0.165	-0.095
-318.026	-105.768	-0.351	0.079
-317.012	-200.000	-0.010	0.121
-315.997	55.329	0.088	-0.084
-314.983	-97.518	0.092	0.024
-313.968	800.000	-0.120	0.443
-312.953	-200.000	0.026	-0.313
-311.939	-200.000	-0.018	0.079
-310.924	-138.354	-0.203	-0.022
-309.910	-200.000	0.034	-0.218
-308.895	-24.070	0.203	-0.120
-307.880	-158.177	-0.343	-0.020
-306.866	-200.000	0.029	0.290
-305.851	800.000	0.046	-0.172
-304.837	-58.413	0.126	0.054
-303.822	212.135	-0.129	-0.202
-302.807	-91.538	0.067	-0.019
-301.793	757.158	-0.055	-0.148
-300.778	250.003	-0.084	0.141
-299.764	800.000	0.131	-0.360
-298.749	-22.366	-0.231	0.139
-297.735	95.074	0.016	-0.018
-296.720	800.000	-0.093	0.327
-295.705	-200.000	0.006	0.084
-294.691	-59.857	-0.105	0.044
-293.676	-200.000	-0.018	-0.299
-292.662	-61.290	0.146	0.061
-291.647	69.661	0.135	-0.138
-290.632	-69.800	-0.341	0.129
-289.618	-1.054	-0.161	-0.113
-288.603	-127.002	0.638	0.093
-287.589	-110.231	-0.192	-0.040
-286.574	-126.259	-0.341	-0.050
-285.559	-86.684	0.250	-0.076
-284.545	209.410	0.195	0.302
-283.530	102.071	0.089	0.102
-282.516	-90.960	-0.191	-0.054
-281.501	800.000	-0.032	-0.096
-280.486	-5.523	-0.123	0.083
-279.472	-97.184	0.399	-0.103
-278.457	764.812	0.034	-0.091
-277.443	-27.242	0.154	-0.089
-276.428	-200.000	0.007	0.168
-275.413	128.947	-0.165	-0.208
-274.399	-13.322	0.254	-0.163
-273.384	-113.938	0.177	-0.034
-272.370	113.993	-0.102	-0.123
-271.355	-107.003	0.576	-0.126
-270.340	79.795	0.044	0.047
-269.326	-87.087	-0.280	0.084
-268.311	-138.820	0.092	-0.010
-267.297	87.374	0.083	0.091
-266.282	-58.867	0.182	0.078
-265.267	-200.000	0.055	-0.278
-264.253	-200.000	-0.055	0.384
-263.238	56.310	0.240	-0.230
-262.224	212.144	0.104	-0.162
-261.209	461.150	0.064	-0.142
-260.195	378.190	0.065	-0.131
-259.180	-19.908	0.075	0.046
-258.165	1.508	0.148	0.105
-257.151	149.811	0.086	0.116
-256.136	63.079	-0.173	-0.171
-255.122	-88.224	-0.130	-0.038
-254.107	-200.000	-0.007	0.144
-253.092	-48.004	-0.155	-0.074
-252.078	233.887	0.038	0.062
-251.063	-89.957	-0.114	-0.033
-250.049	-200.000	-0.022	0.115
-249.034	51.962	-0.053	0.050
-248.019	-114.476	-0.406	-0.077
-247.005	240.525	0.105	-0.174
-245.990	-110.664	0.218	0.045
-244.976	1.708	0.131	0.093
-243.961	320.123	0.128	-0.240
-242.946	-147.525	-0.264	0.022
-241.932	145.310	0.057	0.076
-240.917	-1.372	0.172	0.120
-239.903	-66.610	-0.095	0.037
-238.888	20.074	0.096	0.077
-237.873	-72.930	-0.173	0.063
-236.859	-35.476	-0.179	-0.096
-235.844	-92.833	0.190	-0.053
-234.830	49.250	-0.193	-0.180
-233.815	2.336	-0.190	0.136
-232.800	-200.000	0.013	-0.251
-231.786	207.588	-0.264	-0.407
-230.771	4.002	0.454	0.328
-229.757	-14.913	0.221	-0.140
-228.742	-56.777	-0.121	0.053
-227.727	447.815	-0.065	0.141
-226.713	-104.246	0.433	0.099
-225.698	-135.555	-0.337	-0.040
-224.684	800.000	0.060	0.239
-223.669	194.422	0.077	0.116
-222.655	51.406	-0.038	0.036
-221.640	36.660	0.179	-0.157
-220.625	-24.877	0.206	0.121
-219.611	-165.222	-0.172	0.007
-218.596	42.418	-0.127	-0.114
-217.582	203.994	0.117	0.179
-216.567	-41.990	0.247	0.125
-215.552	38.757	-0.191	0.168
-214.538	170.118	0.179	0.253
-213.523	800.000	-0.026	0.092
-212.509	164.415	0.011	-0.015
-211.494	-107.039	-0.205	0.045
-210.479	-163.713	-0.108	-0.005
-209.465	180.060	0.031	0.046
-208.450	-161.314	0.258	-0.013
-207.436	291.196	-0.174	0.312
-206.421	-177.606	-0.086	-0.002
-205.406	125.601	0.098	0.122
-204.392	800.000	0.078	0.276
-203.377	-103.968	-0.114	0.026
-202.363	155.081	-0.099	0.134
-201.348	56.279	0.342	0.328
-200.333	-96.339	0.297	-0.078
-199.319	726.970	0.059	0.156
-198.304	-88.923	0.206	-0.060
-197.290	182.451	-0.080	0.116
-196.275	559.308	0.025	0.058
-195.260	278.427	0.209	0.368
-194.246	800.000	-0.029	-0.082
-193.231	54.480	0.113	0.107
-192.217	530.034	-0.072	0.168
-191.202	-200.000	0.237	0.001
-190.187	118.999	0.168	-0.204
-189.173	-141.693	0.051	0.005
-188.158	12.026	-0.057	-0.044
-187.144	622.338	0.112	0.278
-186.129	800.000	0.046	-0.188
-185.114	-56.834	0.248	0.108
-184.100	-74.741	-0.039	-0.014
-183.085	-29.135	0.164	0.093
-182.071	152.274	0.156	-0.210
-181.056	-72.764	-0.283	0.103
-180.042	-30.981	-0.201	-0.112
-179.027	800.000	0.048	0.150
-178.012	376.835	0.055	0.110
-176.998	-151.824	0.407	0.029
-175.983	96.490	-0.276	-0.311
-174.969	800.000	-0.110	0.301
-173.954	114.846	0.148	0.177
-172.939	-200.000	0.008	0.063
-171.925	-33.846	-0.234	0.127
-170.910	205.722	0.121	-0.185
-169.896	-93.566	-0.179	0.049
-168.881	-7.200	0.067	-0.045
-167.866	609.801	-0.170	-0.419
-166.852	-43.678	-0.291	-0.144
-165.837	-127.465	-0.313	-0.045
-164.823	12.411	0.407	-0.309
-163.808	-186.545	0.107	0.002
-162.793	213.127	-0.124	0.194
-161.779	143.453	-0.048	-0.063
-160.764	-69.389	0.459	-0.173
-159.750	-200.000	0.059	0.543
-158.735	-65.011	-0.187	-0.075
-157.720	31.391	0.201	0.170
-156.706	-84.902	0.313	-0.097
-155.691	800.000	-0.054	-0.159
-154.677	58.973	0.083	0.080
-153.662	7.812	-0.495	-0.365
-152.647	169.355	0.197	-0.277
-151.633	166.455	0.175	-0.245
-150.618	-200.000	0.009	-0.111
-149.604	-200.000	-0.003	-0.023
-148.589	-200.000	0.037	0.330
-147.574	15.695	-0.167	0.129
-146.560	38.677	0.152	-0.134
-145.545	-200.000	0.037	-0.204
-144.531	744.860	-0.107	-0.284
-143.516	321.214	0.093	-0.175
-142.502	-136.568	0.273	0.031
-141.487	-16.156	0.067	-0.042
-140.472	-95.486	-0.037	-0.010
-139.458	49.059	-0.259	0.239
-138.443	-200.000	-0.034	0.219
-137.429	-62.175	-0.102	-0.042
-136.414	266.138	0.066	0.114
-135.399	5.830	-0.258	-0.188
-134.385	48.528	-0.170	-0.157
-133.370	-85.662	0.037	0.011
-132.356	-65.951	-0.092	0.036
-131.341	-121.622	-0.107	0.017
-130.326	-129.770	-0.106	-0.014
-129.312	91.962	0.336	0.372
-128.297	800.000	0.058	0.181
-127.283	-126.341	0.117	0.017
-126.268	-125.884	-0.248	0.037
-125.253	-189.104	0.276	-0.003
-124.239	800.000	0.057	-0.202
-123.224	-13.487	0.194	0.123
-122.210	5.958	-0.091	0.067
-121.195	242.685	0.064	0.105
-120.180	62.174	0.099	0.097
-119.166	-131.829	-0.165	0.021
-118.151	-108.514	0.179	0.038
-117.137	-41.830	0.060	-0.030
-116.122	110.702	0.271	-0.321
-115.107	-156.031	-0.288	-0.018
-114.093	-2.072	0.184	0.127
-113.078	-156.298	0.354	0.022
-112.064	-129.978	0.312	-0.042
-111.049	-31.154	-0.092	0.051
-110.034	50.116	-0.199	-0.185
-109.020	8.185	-0.139	-0.102
-108.005	-25.294	-0.056	-0.033
-106.991	323.189	-0.114	0.214
-105.976	-135.698	0.294	0.034
-104.962	-93.845	-0.143	-0.039
-103.947	380.334	0.103	-0.207
-102.932	322.729	-0.064	-0.119
-101.918	56.633	0.059	-0.056
-100.903	-200.000	0.015	0.114
-99.889	800.000	0.050	-0.175
-98.874	-108.998	0.220	-0.046
-97.859	44.244	-0.368	-0.332
-96.845	46.849	-0.112	-0.102
-95.830	800.000	0.062	0.259
-94.816	34.882	-0.100	0.086
-93.801	-200.000	0.035	0.262
-92.786	89.046	-0.070	0.076
-91.772	36.385	0.137	-0.119
-90.757	477.904	0.148	0.329
-89.743	-200.000	0.031	0.329
-88.728	-44.616	0.201	-0.099
-87.713	57.703	-0.064	-0.061
-86.699	126.537	0.117	0.145
-85.684	435.702	0.128	0.274
-84.670	-48.204	-0.136	-0.065
-83.655	-139.675	0.182	0.019
-82.640	76.757	-0.122	-0.127
-81.626	36.326	0.321	0.278
-80.611	-200.000	0.040	0.178
-79.597	800.000	0.074	-0.212
-78.582	-200.000	-0.001	0.104
-77.567	-77.355	-0.122	0.042
-76.553	-181.040	-0.152	0.003
-75.538	208.776	-0.047	-0.072
-74.524	180.445	-0.230	0.331
-73.509	125.527	0.181	0.224
-72.494	54.764	-0.079	0.075
-71.480	800.000	0.067	-0.288
-70.465	292.749	-0.039	-0.070
-69.451	-158.975	0.219	0.012
-68.436	103.458	-0.176	0.203
-67.422	-47.439	0.181	0.086
-66.407	-110.472	0.171	-0.035
-65.392	192.024	0.168	0.249
-64.378	-200.000	-0.004	-0.075
-63.363	201.228	-0.057	0.087
-62.349	67.675	-0.201	0.202
-61.334	38.632	-0.921	-0.806
-60.319	800.000	0.149	0.494
-59.305	800.000	-0.333	-1.297
-58.290	263.198	0.579	0.988
-57.276	227.911	0.958	1.530
-56.261	-200.000	102.689	574.574
-55.246	442.952	1474.100	3170.292
-54.232	143.215	2693.232	3517.094
-53.217	106.339	2202.626	2561.753
-52.203	41.749	1634.484	1453.716
-51.188	33.186	1365.493	1162.098
-50.173	30.065	1323.437	1107.638
-49.159	53.330	1373.981	1292.127
-48.144	53.984	1390.924	1311.987
-47.130	33.235	1347.488	1146.887
-46.115	29.878	1329.173	1111.137
-45.100	29.717	1324.177	1105.952
-44.086	29.572	1321.611	1102.902
-43.071	29.613	1319.202	1101.093
-42.057	29.543	1317.271	1099.021
-41.042	29.614	1315.350	1097.799
-40.027	29.651	1313.805	1096.682
-39.013	29.556	1312.007	1094.577
-37.998	29.620	1310.074	1093.297
-36.984	29.692	1308.414	1092.294
-35.969	29.713	1306.854	1091.074
-34.954	29.712	1304.961	1089.445
-33.940	29.791	1303.270	1088.454
-32.925	29.760	1302.139	1087.284
-31.911	29.762	1301.144	1086.419
-30.896	29.759	1299.308	1084.826
-29.881	29.756	1297.991	1083.669
-28.867	29.781	1296.931	1082.883
-27.852	29.814	1295.098	1081.506
-26.838	29.712	1293.991	1079.942
-25.823	29.741	1292.355	1078.702
-24.809	29.652	1291.206	1077.180
-23.794	29.786	1289.694	1076.657
-22.779	29.732	1288.746	1075.507
-21.765	29.858	1286.945	1074.696
-20.750	29.836	1285.398	1073.234
-19.736	29.720	1284.571	1071.830
-18.721	29.584	1283.567	1070.159
-17.706	29.664	1281.730	1069.051
-16.692	29.653	1280.819	1068.184
-15.677	29.646	1279.989	1067.408
-14.663	29.635	1278.715	1066.240
-13.648	29.671	1277.126	1065.082
-12.633	29.633	1276.231	1064.070
-11.619	29.718	1275.414	1063.836
-10.604	29.594	1275.217	1062.915
-9.590	29.587	1273.911	1061.747
-8.575	29.628	1272.606	1060.851
-7.560	29.650	1271.872	1060.323
-6.546	29.607	1271.115	1059.406
-5.531	29.571	1270.078	1058.295
-4.517	29.555	1269.364	1057.567
-3.502	29.701	1268.144	1057.342
-2.487	29.758	1267.212	1056.850
-1.473	29.690	1263.854	1053.617
-0.458	28.757	1249.345	1036.217
0.556	24.914	1232.209	1000.655
1.571	20.922	1238.959	983.570
2.586	19.423	1253.140	986.176
3.600	18.274	1240.623	969.734
4.615	13.263	1166.606	885.034
5.629	5.066	1090.767	786.252
6.644	1.205	1071.185	752.929
7.659	0.867	1068.884	749.568
8.673	0.887	1068.269	749.171
9.688	0.852	1066.563	747.738
10.702	1.114	1064.755	747.695
11.717	5.495	1070.895	773.635
12.731	13.170	1080.196	818.440
13.746	16.910	1084.649	840.310
14.761	17.358	1085.286	842.950
15.775	16.793	1083.387	838.604
16.790	15.724	1080.980	831.383
17.804	14.945	1079.887	826.623
18.819	14.681	1078.560	824.229
19.834	14.302	1077.742	821.664
20.848	14.175	1076.851	820.285
21.863	13.896	1075.804	818.040
22.877	13.587	1075.316	816.077
23.892	13.639	1074.477	815.620
24.907	13.671	1073.799	815.190
25.921	13.730	1072.488	814.416
26.936	13.644	1072.253	813.744
27.950	13.761	1070.753	813.107
28.965	13.817	1069.475	812.339
29.980	13.882	1068.359	811.735
30.994	13.917	1067.480	811.167
32.009	13.920	1066.170	810.116
33.023	13.946	1065.385	809.570
34.038	13.938	1064.205	808.565
35.053	13.808	1063.637	807.428
36.067	13.738	1062.704	806.308
37.082	13.899	1061.538	806.138
38.096	13.886	1060.991	805.584
39.111	13.855	1060.212	804.773
40.126	13.689	1059.510	803.362
41.140	13.788	1058.313	802.866
42.155	13.678	1057.065	801.315
43.169	13.757	1055.919	800.756
44.184	13.694	1054.850	799.570
45.199	13.720	1053.481	798.588
46.213	13.718	1052.251	797.574
47.228	13.768	1051.005	796.799
48.242	13.728	1050.563	796.206
49.257	13.831	1049.319	795.686
50.271	13.780	1048.810	794.981
51.286	13.967	1047.421	794.756
52.301	13.787	1046.971	793.483
53.315	13.890	1045.759	792.984
54.330	13.769	1044.942	791.718
55.344	13.729	1044.179	790.878
56.359	13.700	1043.095	789.851
57.374	13.631	1042.578	789.062
58.388	13.652	1041.223	788.064
59.403	13.808	1040.150	787.924
60.417	13.585	1040.099	786.755
61.432	13.657	1038.742	786.003
62.447	13.599	1038.026	785.114
63.461	13.692	1037.324	784.954
64.476	13.576	1036.479	783.698
65.490	13.661	1035.339	783.167
66.505	13.640	1034.916	782.678
67.520	13.728	1034.309	782.569
68.534	13.742	1033.386	781.863
69.549	13.765	1032.639	781.341
70.563	13.536	1032.141	779.815
71.578	13.610	1031.206	779.389
72.593	13.626	1030.237	778.663
73.607	13.499	1030.127	777.915
74.622	13.601	1028.999	777.470
75.636	13.671	1027.977	776.956
76.651	13.576	1027.517	776.098
77.666	13.587	1026.901	775.616
78.680	13.659	1026.076	775.259
79.695	13.786	1025.230	775.144
80.709	13.604	1024.750	773.863
81.724	13.738	1024.428	774.179
82.739	13.784	1023.224	773.413
83.753	13.792	1022.634	772.938
84.768	13.992	1021.153	772.677
85.782	13.855	1020.772	771.686
86.797	13.884	1019.771	770.993
87.812	13.850	1018.991	770.179
88.826	13.767	1018.100	769.052
89.841	13.808	1017.197	768.491
90.855	13.873	1016.028	767.842
91.870	13.801	1015.342	766.922
92.884	13.961	1014.098	766.655
93.899	13.868	1013.656	765.824
94.914	14.015	1012.687	765.702
95.928	13.846	1012.203	764.488
96.943	13.993	1011.159	764.311
97.957	13.924	1010.561	763.473
98.972	13.967	1009.459	762.769
99.987	13.919	1008.538	761.787
101.001	13.820	1008.134	760.961
102.016	13.876	1007.183	760.428
103.030	13.779	1006.259	759.220
104.045	13.901	1005.507	759.146
105.060	13.844	1004.366	757.957
106.074	13.734	1003.594	756.803
107.089	13.629	1002.789	755.653
108.103	13.876	1001.564	755.785
109.118	13.774	1000.547	754.489
110.133	13.832	999.917	754.210
111.147	13.813	998.772	753.195
112.162	13.663	998.238	752.045
113.176	13.954	996.990	752.355
114.191	13.803	996.812	751.471
115.206	13.930	995.539	751.018
116.220	13.856	994.703	749.989
117.235	13.889	993.969	749.517
118.249	13.732	993.813	748.625
119.264	13.961	991.908	748.156
120.279	13.846	991.559	747.305
121.293	13.929	990.445	746.773
122.308	13.820	989.935	745.833
123.322	13.767	989.121	744.915
124.337	13.933	987.645	744.485
125.352	13.724	987.175	743.127
126.366	13.804	985.799	742.382
127.381	14.021	984.567	742.360
128.395	13.849	984.102	741.175
129.410	13.937	983.224	740.840
130.424	14.068	982.080	740.498
131.439	13.838	981.721	739.137
132.454	13.894	980.589	738.466
133.468	13.931	979.877	738.032
134.483	13.890	979.001	737.124
135.497	14.083	977.639	736.887
136.512	13.919	976.996	735.611
137.527	13.858	976.717	735.066
138.541	13.962	975.608	734.627
139.556	14.023	974.708	734.152
140.570	13.937	974.484	733.539
141.585	14.115	973.278	733.354
142.600	14.024	972.209	732.082
143.614	14.207	971.456	732.256
144.629	14.012	970.480	730.596
145.643	14.057	969.736	730.169
146.658	13.997	968.942	729.244
147.673	14.011	968.112	728.618
148.687	13.878	967.296	727.356
149.702	13.907	966.764	727.020
150.716	14.120	965.476	726.915
151.731	13.932	964.970	725.650
152.746	14.161	963.757	725.674
153.760	14.151	963.247	725.180
154.775	14.076	962.715	724.392
155.789	14.121	962.267	724.186
156.804	14.081	961.718	723.531
157.819	14.040	961.133	722.849
158.833	14.138	960.550	722.773
159.848	14.163	959.588	722.095
160.862	14.244	958.324	721.432
161.877	14.252	957.198	720.553
162.892	14.213	956.734	719.973
163.906	14.104	955.601	718.584
164.921	14.119	954.764	717.958
165.935	14.183	953.721	717.385
166.950	14.134	953.037	716.596
167.964	14.273	952.034	716.376
168.979	14.130	951.380	715.204
169.994	14.244	950.353	714.861
171.008	14.301	949.245	714.208
172.023	14.220	949.216	713.774
173.037	14.186	948.382	712.938
174.052	14.174	947.946	712.496
175.067	14.157	947.232	711.824
176.081	14.169	946.465	711.239
177.096	14.265	945.824	711.102
178.110	14.246	945.098	710.414
179.125	14.278	944.383	709.950
180.140	14.237	944.486	709.790
181.154	14.282	943.614	709.264
182.169	14.270	943.512	709.072
183.183	14.533	942.237	709.171
184.198	14.390	941.459	707.911
185.213	14.379	941.077	707.517
186.227	14.498	940.027	707.169
187.242	14.461	939.498	706.551
188.256	14.454	939.209	706.243
189.271	14.548	938.025	705.688
190.286	14.488	937.337	704.853
191.300	14.368	936.545	703.689
192.315	14.325	936.033	703.062
193.329	14.328	935.632	702.711
194.344	14.364	934.603	702.026
195.359	14.364	934.131	701.609
196.373	14.541	933.271	701.645
197.388	14.551	932.800	701.270
198.402	14.507	932.474	700.780
199.417	14.523	931.859	700.323
200.432	14.647	931.210	700.294
201.446	14.614	930.674	699.689
202.461	14.824	929.900	699.927
203.475	14.784	929.494	699.391
204.490	14.699	928.658	698.344
205.504	14.660	927.985	697.615
206.519	14.585	927.594	696.944
207.534	14.741	926.615	696.798
208.548	14.843	925.555	696.365
209.563	14.802	925.151	695.829
210.577	14.772	924.518	695.165
211.592	14.851	923.733	694.841
212.607	14.849	923.344	694.481
213.621	14.901	922.301	693.851
214.636	14.744	922.006	692.914
215.650	14.925	921.063	692.895
216.665	14.937	920.162	692.204
217.680	14.941	919.382	691.574
218.694	14.913	918.995	691.107
219.709	14.815	918.337	690.145
220.723	14.904	917.763	690.023
221.738	15.004	916.881	689.708
222.753	14.893	916.563	688.949
223.767	14.979	915.751	688.633
224.782	15.026	915.211	688.361
225.796	15.040	914.455	687.787
226.811	15.137	913.729	687.579
227.826	15.027	913.336	686.771
228.840	15.041	912.380	686.050
229.855	15.015	911.751	685.411
230.869	15.046	910.905	684.838
231.884	15.135	910.210	684.621
232.899	15.049	909.782	683.886
233.913	14.924	909.085	682.791
234.928	15.022	908.388	682.608
235.942	15.025	908.243	682.452
236.957	14.958	907.797	681.780
237.972	15.040	906.990	681.451
238.986	14.994	906.081	680.520
240.001	14.981	905.707	680.124
241.015	14.960	905.213	679.607
242.030	15.185	904.122	679.641
243.045	15.180	903.222	678.885
244.059	15.191	902.772	678.531
245.074	15.034	902.466	677.607
246.088	15.181	901.676	677.545
247.103	15.218	900.837	677.007
248.117	15.262	900.479	676.854
249.132	15.279	899.860	676.397
250.147	15.382	898.925	676.049
251.161	15.342	898.348	675.395
252.176	15.340	898.064	675.115
253.190	15.384	897.109	674.513
254.205	15.455	896.415	674.216
255.220	15.527	895.766	673.960
256.234	15.558	895.111	673.531
257.249	15.684	894.303	673.370
258.263	15.478	893.474	671.858
259.278	15.532	893.150	671.772
260.293	15.492	892.713	671.224
261.307	15.492	892.095	670.699
262.322	15.555	891.461	670.416
263.336	15.649	890.354	669.900
264.351	15.662	889.682	669.387
265.366	15.645	889.589	669.190
266.380	15.649	889.058	668.747
267.395	15.684	887.901	667.958
268.409	15.799	887.042	667.705
269.424	15.721	886.413	666.864
270.439	15.751	885.788	666.454
271.453	15.692	885.194	665.716
272.468	15.741	884.531	665.351
273.482	15.777	883.904	664.964
274.497	15.837	883.482	664.824
275.512	15.723	882.816	663.814
276.526	15.822	882.402	663.833
277.541	15.792	882.101	663.430
278.555	15.883	881.401	663.204
279.570	15.980	880.464	662.824
280.585	16.030	879.342	662.116
281.599	15.844	879.071	661.122
282.614	15.958	878.455	661.047
283.628	15.893	877.784	660.231
284.643	15.927	877.207	659.873
285.657	15.904	876.932	659.515
286.672	16.056	875.708	659.130
287.687	16.070	875.308	658.825
288.701	16.010	874.861	658.197
289.716	16.181	874.067	658.209
290.730	15.905	874.101	657.098
291.745	16.117	872.898	656.964
292.760	16.135	872.021	656.316
293.774	16.089	872.077	656.120
294.789	16.000	871.381	655.193
295.803	16.077	870.361	654.664
296.818	16.015	869.995	654.094
297.833	16.025	869.333	653.576
298.847	16.040	868.718	653.115
299.862	16.173	867.943	652.987
300.876	16.151	867.489	652.503
301.891	16.283	866.958	652.557
302.906	16.314	865.805	651.749
303.920	16.387	865.362	651.641
304.935	16.328	865.113	651.169
305.949	16.375	864.340	650.709
306.964	16.409	863.727	650.324
307.979	16.372	863.138	649.678
308.993	16.451	862.817	649.682
310.008	16.354	862.220	648.804
311.022	16.527	861.349	648.755
312.037	16.421	861.189	648.171
313.052	16.451	860.399	647.634
314.066	16.310	860.101	646.811
315.081	16.559	858.621	646.593
316.095	16.424	858.581	645.989
317.110	16.370	858.641	645.772
318.125	16.463	857.315	645.070
319.139	16.341	857.313	644.547
320.154	16.640	856.215	644.806
321.168	16.628	855.793	644.383
322.183	16.557	855.191	643.603
323.197	16.555	855.004	643.399
324.212	16.572	854.631	643.125
325.227	16.667	853.456	642.544
326.241	16.647	853.038	642.096
327.256	16.683	852.715	641.932
328.270	16.360	852.663	640.613
329.285	16.605	851.054	640.273
330.300	16.637	850.633	640.024
331.314	16.636	850.065	639.533
332.329	16.609	850.117	639.414
333.343	16.611	849.520	638.915
334.358	16.532	849.273	638.378
335.373	16.645	848.696	638.312
336.387	16.596	848.503	637.928
337.402	16.709	848.211	638.075
338.416	16.725	847.807	637.776
339.431	16.796	847.282	637.592
340.446	16.826	846.907	637.364
341.460	16.630	846.916	636.577
342.475	16.910	846.450	637.226
343.489	16.810	846.098	636.526
344.504	17.014	844.890	636.327
345.519	17.017	844.761	636.185
346.533	16.996	843.989	635.468
347.548	16.884	843.870	634.904
348.562	16.901	843.214	634.419
349.577	16.889	842.960	634.127
350.592	16.880	842.022	633.332
351.606	16.972	841.242	633.032
352.621	16.941	840.504	632.305
353.635	16.938	840.028	631.879
354.650	17.007	839.514	631.695
355.665	17.085	838.478	631.149
356.679	16.899	838.172	630.168
357.694	17.035	837.019	629.752
358.708	17.065	836.853	629.683
359.723	16.961	836.399	628.900
360.738	17.176	835.374	628.870
361.752	17.073	834.966	628.126
362.767	17.099	834.261	627.635
363.781	17.201	833.415	627.322
364.796	17.173	833.346	627.110
365.810	17.195	832.971	626.854
366.825	17.325	832.528	626.943
367.840	17.349	832.302	626.806
368.854	17.381	831.540	626.294
369.869	17.378	831.206	625.977
370.883	17.271	830.936	625.325
371.898	17.246	830.584	624.914
372.913	17.431	830.039	625.126
373.927	17.412	829.495	624.593
374.942	17.446	828.975	624.271
375.956	17.574	828.562	624.373
376.971	17.418	828.113	623.406
377.986	17.508	827.722	623.389
379.000	17.512	827.700	623.331
380.015	17.502	826.871	622.615
381.029	17.662	826.255	622.681
382.044	17.483	825.976	621.761
383.059	17.660	824.732	621.415
384.073	17.553	824.294	620.641
385.088	17.567	823.709	620.198
386.102	17.514	823.413	619.726
387.117	17.571	822.764	619.389
388.132	17.653	822.326	619.304
389.146	17.555	822.140	618.751
390.161	17.583	821.372	618.220
391.175	17.588	820.991	617.898
392.190	17.639	820.307	617.512
393.205	17.606	819.824	616.977
394.219	17.643	819.353	616.701
395.234	17.637	819.477	616.718
396.248	17.612	818.839	616.093
397.263	17.638	818.296	615.723
398.278	17.635	817.835	615.311
399.292	17.679	817.360	615.059
400.307	17.738	816.785	614.784
401.321	17.673	816.775	614.488
402.336	17.603	816.105	613.678
403.350	17.718	815.477	613.565
404.365	17.749	814.845	613.145
405.380	17.931	814.219	613.274
406.394	18.036	813.997	613.429
407.409	17.978	813.672	612.921
408.423	17.915	813.292	612.356
409.438	17.847	813.188	611.978
410.453	17.968	812.604	611.917
411.467	17.893	812.093	611.213
412.482	18.050	811.513	611.283
413.496	18.156	810.971	611.198
414.511	18.091	810.878	610.843
415.526	18.094	810.424	610.459
416.540	18.247	809.790	610.470
417.555	18.100	809.367	609.575
418.569	18.215	808.943	609.610
419.584	18.255	808.710	609.523
420.599	18.004	808.319	608.282
421.613	110.862	1293.021	1469.167
422.628	95.732	1363.616	1469.268
