DTS Sentinel unit serial number:	SN413079Multiplexer serial number:	ORYXHardware model number:	OX4-SRSoftware version number:	ORYX F/W v4.00 Oryx Data Collector v3.7.2.0data status	okinstallation	princeton_trtdifferential loss correction	single-endedforward channel	channel 1reverse channel	N/Adate	2019/09/10time	15:44:11forward acquisition time	60.00reverse acquisition time	0.00gamma	496.2192k internal	0.2299k external	0.2299temperature offset calibration	0.9921default loss term (dB/km)	0.3790temperature slope calibration	1.0000multiplexer offset coefficient	1.0000multiplexer slope coefficient	1.0000fibre end	0.00T internal ref (°C)	38.05T ext. ref 1 (°C)	-0.30T ext. ref 2 (°C)	31.48length (m)	temperature (°C)	Stokes	anti-Stokes-747.200	800.000	-0.075	0.246
-746.185	385.500	0.092	0.194
-745.171	800.000	-0.032	-0.130
-744.156	-200.000	-0.007	0.144
-743.142	-84.359	0.210	0.068
-742.127	133.957	-0.246	0.325
-741.112	-200.000	0.007	0.138
-740.098	747.706	0.141	0.387
-739.083	99.916	0.245	-0.290
-738.069	-37.534	0.170	0.093
-737.054	-133.022	0.287	0.037
-736.039	-79.707	-0.184	0.063
-735.025	800.000	-0.064	-0.218
-734.010	109.921	-0.123	-0.151
-732.996	-50.572	-0.271	0.130
-731.981	147.534	0.133	0.182
-730.966	40.065	0.131	0.120
-729.952	105.808	-0.080	-0.097
-728.937	800.000	0.076	-0.294
-727.923	-101.117	-0.376	-0.094
-726.908	-21.670	0.052	-0.032
-725.894	-14.566	-0.064	-0.042
-724.879	364.693	-0.264	-0.542
-723.864	800.000	-0.047	-0.159
-722.850	800.000	0.057	-0.224
-721.835	312.315	0.063	0.121
-720.821	-136.048	-0.376	-0.045
-719.806	278.813	0.209	-0.380
-718.791	-67.407	-0.114	0.046
-717.777	21.442	-0.210	0.174
-716.762	-49.037	-0.271	0.132
-715.748	41.093	0.071	-0.065
-714.733	57.226	-0.148	-0.147
-713.718	2.408	0.223	0.165
-712.704	404.445	-0.182	0.391
-711.689	35.329	0.072	-0.065
-710.675	-200.000	0.012	-0.069
-709.660	-41.749	0.172	-0.090
-708.645	28.656	-0.319	-0.275
-707.631	-112.170	0.491	-0.100
-706.616	-136.114	0.273	0.033
-705.602	-200.000	-0.013	-0.169
-704.587	19.844	-0.111	-0.091
-703.572	-108.071	0.169	-0.037
-702.558	-200.000	-0.036	0.166
-701.543	423.511	0.119	-0.260
-700.529	-135.800	-0.207	0.025
-699.514	-175.755	0.407	0.011
-698.499	47.569	-0.105	-0.100
-697.485	800.000	-0.123	0.373
-696.470	156.738	-0.154	-0.216
-695.456	800.000	-0.023	0.096
-694.441	-96.880	-0.278	0.074
-693.426	31.428	0.237	-0.207
-692.412	-62.045	0.066	0.028
-691.397	97.816	0.135	0.158
-690.383	-156.054	-0.131	0.008
-689.368	-126.284	-0.240	0.037
-688.354	87.332	-0.035	-0.039
-687.339	246.209	0.034	0.058
-686.324	800.000	0.025	0.073
-685.310	34.897	0.124	0.110
-684.295	-29.515	-0.225	0.131
-683.281	-200.000	0.047	0.264
-682.266	-33.683	0.107	-0.060
-681.251	253.242	-0.202	-0.351
-680.237	-200.000	0.068	0.341
-679.222	155.595	-0.170	0.238
-678.208	-200.000	-0.024	0.303
-677.193	209.898	0.130	0.207
-676.178	-16.715	0.116	-0.074
-675.164	57.209	0.183	-0.182
-674.149	-62.590	-0.201	0.085
-673.135	255.483	0.157	-0.275
-672.120	71.363	-0.133	0.140
-671.105	-10.351	0.107	-0.072
-670.091	9.772	0.082	-0.063
-669.076	-132.568	0.179	0.023
-668.062	-8.633	0.260	0.178
-667.047	-117.987	0.516	0.094
-666.032	800.000	0.080	0.319
-665.018	-138.184	0.200	-0.023
-664.003	-200.000	0.002	-0.115
-662.989	110.034	0.051	0.062
-661.974	-200.000	-0.026	-0.136
-660.959	418.876	0.045	-0.098
-659.945	-87.291	0.170	0.053
-658.930	-200.000	0.019	-0.149
-657.916	0.776	-0.056	-0.041
-656.901	-47.727	-0.099	0.049
-655.886	183.445	-0.117	0.177
-654.872	-5.495	0.150	0.104
-653.857	-46.228	0.026	-0.013
-652.843	800.000	0.010	0.031
-651.828	-200.000	-0.020	0.287
-650.814	-200.000	0.039	0.277
-649.799	519.490	-0.017	0.040
-648.784	800.000	0.071	-0.242
-647.770	-200.000	-0.051	0.260
-646.755	-200.000	0.031	0.204
-645.741	-112.781	-0.186	-0.038
-644.726	-123.055	-0.269	-0.044
-643.711	-90.049	-0.241	-0.071
-642.697	-30.565	0.220	-0.127
-641.682	800.000	-0.012	-0.040
-640.668	800.000	-0.030	0.112
-639.653	800.000	0.031	-0.133
-638.638	363.328	-0.137	-0.281
-637.624	-60.350	0.258	-0.111
-636.609	183.018	-0.171	0.257
-635.595	182.757	-0.137	0.206
-634.580	-200.000	-0.043	-0.194
-633.565	-85.364	-0.160	-0.051
-632.551	-137.227	0.313	-0.036
-631.536	-200.000	0.008	-0.383
-630.522	-66.106	-0.161	-0.065
-629.507	800.000	-0.025	0.103
-628.492	540.379	0.112	0.271
-627.478	800.000	-0.079	0.317
-626.463	-129.698	-0.092	0.013
-625.449	648.913	0.016	-0.041
-624.434	-64.482	-0.112	-0.046
-623.419	-130.969	-0.380	0.052
-622.405	-124.865	-0.150	0.023
-621.390	12.106	-0.051	-0.040
-620.376	257.956	0.074	0.129
-619.361	-131.918	-0.322	-0.043
-618.346	-76.394	0.332	-0.118
-617.332	664.395	0.123	-0.323
-616.317	-200.000	-0.061	-0.318
-615.303	206.076	-0.228	-0.360
-614.288	-14.241	0.281	0.184
-613.273	-102.543	-0.035	-0.008
-612.259	-53.755	-0.221	-0.102
-611.244	-57.143	0.334	0.149
-610.230	-200.000	-0.003	-0.014
-609.215	-92.553	-0.137	0.039
-608.201	-76.157	0.206	-0.074
-607.186	40.755	0.026	-0.024
-606.171	-172.567	-0.111	0.004
-605.157	105.627	-0.132	0.159
-604.142	525.625	-0.079	0.188
-603.128	296.131	0.143	-0.266
-602.113	-53.498	-0.321	-0.149
-601.098	-31.970	-0.328	-0.186
-600.084	-200.000	-0.012	0.259
-599.069	-127.924	0.316	-0.046
-598.055	-91.479	0.095	0.027
-597.040	-130.769	-0.331	-0.045
-596.025	800.000	0.062	-0.253
-595.011	-166.302	0.362	-0.015
-593.996	-99.825	-0.407	0.103
-592.982	800.000	-0.026	-0.094
-591.967	-200.000	-0.008	0.043
-590.952	-117.071	-0.041	0.008
-589.938	-200.000	-0.027	0.170
-588.923	-68.406	-0.120	0.047
-587.909	48.605	-0.229	0.217
-586.894	31.818	0.285	0.249
-585.879	12.399	0.054	0.042
-584.865	-200.000	0.046	-0.372
-583.850	-163.398	-0.240	-0.012
-582.836	-37.158	-0.364	0.197
-581.821	-86.027	0.236	-0.074
-580.806	-77.894	-0.119	-0.042
-579.792	-53.235	-0.393	-0.183
-578.777	-71.093	0.324	-0.124
-577.763	39.452	0.074	0.067
-576.748	663.719	-0.027	-0.071
-575.733	800.000	-0.099	-0.427
-574.719	186.795	-0.173	-0.261
-573.704	343.071	-0.053	0.106
-572.690	-98.296	0.146	-0.038
-571.675	-29.607	0.140	0.081
-570.661	-92.625	-0.101	-0.029
-569.646	-92.979	0.154	0.044
-568.631	-101.972	-0.216	0.053
-567.617	27.582	-0.261	-0.223
-566.602	-194.801	-0.166	0.001
-565.588	134.915	-0.115	-0.152
-564.573	-178.286	-0.370	-0.009
-563.558	103.329	0.118	-0.141
-562.544	8.987	0.260	-0.199
-561.529	-82.343	0.035	-0.012
-560.515	-90.934	0.461	0.134
-559.500	145.536	0.236	0.321
-558.485	-166.398	-0.188	0.008
-557.471	-120.975	-0.101	0.017
-556.456	347.848	-0.022	0.044
-555.442	-112.326	0.083	0.017
-554.427	-200.000	-0.020	-0.177
-553.412	-37.289	-0.129	-0.070
-552.398	800.000	-0.069	0.260
-551.383	-52.373	0.430	0.202
-550.369	-123.924	-0.257	0.041
-549.354	-11.123	0.097	0.065
-548.339	-189.469	-0.103	-0.001
-547.325	-128.023	0.265	0.038
-546.310	-110.541	0.257	0.054
-545.296	65.338	-0.337	0.345
-544.281	-101.273	-0.387	0.096
-543.266	3.600	0.239	0.176
-542.252	-129.909	-0.295	0.041
-541.237	-200.000	-0.023	-0.129
-540.223	259.821	0.080	0.140
-539.208	1.589	0.291	-0.212
-538.193	342.421	-0.020	0.039
-537.179	800.000	0.035	-0.133
-536.164	100.263	-0.083	-0.098
-535.150	171.040	-0.143	-0.208
-534.135	-200.000	-0.018	-0.086
-533.121	-140.758	-0.230	0.024
-532.106	-113.099	0.303	-0.060
-531.091	-200.000	-0.018	-0.386
-530.077	232.289	0.026	-0.043
-529.062	-22.297	-0.139	0.085
-528.048	89.675	0.301	-0.340
-527.033	-111.468	0.166	-0.034
-526.018	800.000	0.018	-0.079
-525.004	-200.000	-0.001	0.299
-523.989	-175.446	-0.087	-0.002
-522.975	42.009	-0.082	0.075
-521.960	223.293	-0.108	0.176
-520.945	-200.000	-0.003	0.050
-519.931	800.000	0.046	-0.130
-518.916	-52.614	0.139	-0.065
-517.902	-136.425	-0.303	-0.036
-516.887	-200.000	0.048	0.286
-515.872	-200.000	-0.045	-0.240
-514.858	-106.657	-0.122	0.027
-513.843	-53.346	-0.218	-0.101
-512.829	-200.000	0.002	0.115
-511.814	800.000	0.099	0.328
-510.799	-40.643	-0.265	0.139
-509.785	-200.000	-0.036	0.213
-508.770	800.000	-0.019	-0.082
-507.756	-70.086	0.288	-0.111
-506.741	-64.418	0.216	-0.089
-505.726	33.310	0.019	0.016
-504.712	-171.884	0.265	0.009
-503.697	-200.000	-0.053	0.296
-502.683	-3.458	-0.136	-0.095
-501.668	57.896	0.084	-0.083
-500.653	-86.907	-0.217	0.067
-499.639	800.000	0.076	0.299
-498.624	324.955	-0.159	0.307
-497.610	-45.440	-0.224	0.112
-496.595	-20.578	-0.209	-0.130
-495.581	-148.772	-0.143	0.012
-494.566	-41.799	-0.084	-0.044
-493.551	173.225	0.182	-0.266
-492.537	-71.941	0.263	-0.099
-491.522	212.005	0.067	-0.107
-490.508	-163.602	-0.236	0.011
-489.493	63.051	0.145	0.147
-488.478	-119.681	0.338	-0.059
-487.464	-94.995	-0.197	-0.054
-486.449	-195.615	-0.283	-0.002
-485.435	800.000	-0.126	0.370
-484.420	-200.000	-0.063	-0.311
-483.405	800.000	-0.033	0.145
-482.391	672.317	-0.095	0.250
-481.376	800.000	-0.074	0.290
-480.362	345.562	-0.078	-0.155
-479.347	-124.619	0.129	-0.020
-478.332	-70.878	-0.145	-0.055
-477.318	418.271	-0.050	0.108
-476.303	28.026	-0.342	0.291
-475.289	-200.000	-0.071	-0.453
-474.274	-11.733	-0.137	0.091
-473.259	59.214	0.176	-0.175
-472.245	-200.000	0.033	0.228
-471.230	25.421	0.123	0.104
-470.216	222.239	-0.139	-0.226
-469.201	45.284	-0.055	-0.051
-468.186	-148.199	-0.132	0.011
-467.172	-75.332	-0.132	-0.047
-466.157	171.265	-0.125	0.181
-465.143	-200.000	-0.013	0.062
-464.128	4.009	-0.496	0.366
-463.113	94.326	0.124	0.142
-462.099	102.440	0.244	0.287
-461.084	12.022	0.361	0.280
-460.070	182.052	-0.287	0.427
-459.055	800.000	0.034	-0.097
-458.040	-101.900	0.133	0.032
-457.026	-78.912	0.454	0.156
-456.011	-108.696	-0.183	0.040
-454.997	-53.379	0.072	0.033
-453.982	-92.076	0.366	0.104
-452.968	-180.257	0.258	0.005
-451.953	-200.000	0.020	-0.106
-450.938	-74.720	0.261	-0.095
-449.924	193.168	0.105	0.160
-448.909	800.000	-0.048	-0.194
-447.895	800.000	0.078	0.290
-446.880	-200.000	-0.035	0.168
-445.865	-200.000	-0.019	0.105
-444.851	-134.538	-0.165	-0.020
-443.836	35.511	0.150	-0.133
-442.822	800.000	0.088	0.280
-441.807	-17.925	-0.081	-0.051
-440.792	-99.811	0.316	0.080
-439.778	-200.000	-0.012	0.291
-438.763	-72.714	-0.154	-0.057
-437.749	293.431	-0.088	0.163
-436.734	468.228	0.043	-0.098
-435.719	-200.000	0.027	-0.217
-434.705	-36.874	0.031	-0.017
-433.690	-112.039	-0.283	0.057
-432.676	320.105	-0.059	-0.112
-431.661	-89.570	-0.091	-0.027
-430.646	45.914	-0.171	0.160
-429.632	-18.873	-0.256	0.161
-428.617	307.871	0.155	0.292
-427.603	-101.682	0.232	-0.057
-426.588	-80.361	-0.222	-0.075
-425.573	800.000	-0.040	-0.119
-424.559	-189.836	-0.049	0.001
-423.544	-37.556	0.221	0.119
-422.530	-200.000	0.008	0.284
-421.515	798.257	0.142	-0.393
-420.500	635.896	-0.039	-0.099
-419.486	67.902	-0.023	0.024
-418.471	-200.000	-0.081	0.368
-417.457	-200.000	0.019	0.107
-416.442	139.044	-0.128	-0.169
-415.428	23.330	0.175	-0.145
-414.413	-21.618	-0.165	-0.102
-413.398	-114.017	0.199	0.039
-412.384	14.080	0.131	-0.103
-411.369	124.957	0.271	-0.344
-410.355	313.126	-0.077	-0.145
-409.340	215.620	-0.076	-0.121
-408.325	-200.000	-0.022	-0.174
-407.311	-87.163	-0.241	0.074
-406.296	313.379	-0.197	0.373
-405.282	-76.502	-0.539	0.191
-404.267	-165.189	-0.186	0.008
-403.252	-107.222	-0.122	0.027
-402.238	91.018	0.210	-0.237
-401.223	-200.000	0.068	0.429
-400.209	-200.000	0.023	0.272
-399.194	-34.584	-0.191	0.106
-398.179	800.000	0.012	-0.050
-397.165	86.630	0.282	0.313
-396.150	23.643	0.273	0.226
-395.136	57.856	-0.070	-0.069
-394.121	-67.879	0.246	0.097
-393.106	98.571	-0.163	-0.189
-392.092	2.514	0.200	-0.146
-391.077	309.298	0.069	-0.131
-390.063	-120.435	-0.224	0.038
-389.048	79.484	-0.028	0.030
-388.033	153.139	0.036	0.049
-387.019	800.000	-0.103	0.303
-386.004	238.317	-0.093	-0.156
-384.990	93.746	-0.011	0.013
-383.975	-200.000	0.009	-0.136
-382.960	800.000	0.048	-0.198
-381.946	-200.000	0.025	0.174
-380.931	241.039	-0.096	-0.161
-379.917	-136.569	-0.350	0.041
-378.902	800.000	-0.014	-0.054
-377.888	-200.000	0.098	-0.568
-376.873	-144.682	0.235	0.022
-375.858	223.285	-0.070	-0.113
-374.844	800.000	-0.065	0.270
-373.829	-47.226	-0.075	0.037
-372.815	90.053	0.162	-0.182
-371.800	16.369	0.121	-0.096
-370.785	-200.000	-0.033	-0.192
-369.771	-200.000	-0.009	-0.399
-368.756	209.277	0.156	-0.245
-367.742	-184.001	-0.107	-0.002
-366.727	-82.149	-0.174	0.057
-365.712	50.859	0.175	-0.167
-364.698	-200.000	-0.089	-0.513
-363.683	-66.383	0.052	-0.021
-362.669	-17.950	-0.156	-0.098
-361.654	-73.888	-0.276	-0.101
-360.639	492.825	-0.111	-0.255
-359.625	457.397	-0.092	-0.206
-358.610	21.262	-0.137	-0.112
-357.596	-200.000	0.021	0.179
-356.581	800.000	0.193	0.584
-355.566	800.000	0.010	0.032
-354.552	505.680	-0.053	0.124
-353.537	135.496	-0.117	0.153
-352.523	-200.000	-0.019	-0.231
-351.508	185.891	-0.088	0.131
-350.493	40.130	-0.074	0.067
-349.479	-121.873	-0.423	0.070
-348.464	-88.338	0.229	0.069
-347.450	-12.044	-0.075	0.049
-346.435	-68.035	-0.130	-0.051
-345.420	231.856	0.180	-0.297
-344.406	-200.000	-0.028	0.228
-343.391	-11.922	0.233	-0.153
-342.377	79.430	0.020	-0.021
-341.362	89.208	-0.101	0.113
-340.348	-138.728	-0.380	-0.042
-339.333	800.000	-0.034	0.112
-338.318	166.170	-0.127	-0.181
-337.304	190.895	-0.040	0.060
-336.289	-88.833	0.144	-0.043
-335.275	-200.000	-0.001	-0.009
-334.260	-200.000	-0.025	0.318
-333.245	185.263	-0.168	-0.250
-332.231	-69.289	0.475	-0.183
-331.216	-80.106	-0.243	0.082
-330.202	-2.309	-0.097	-0.069
-329.187	-200.000	-0.045	0.351
-328.172	-51.892	0.249	-0.116
-327.158	-105.992	-0.190	-0.043
-326.143	-157.699	-0.253	0.015
-325.129	-106.275	0.291	-0.065
-324.114	800.000	0.039	-0.160
-323.099	56.175	0.144	0.140
-322.085	51.431	-0.249	0.237
-321.070	-76.655	0.288	0.101
-320.056	92.126	0.215	0.243
-319.041	148.934	0.143	-0.193
-318.026	16.317	0.133	-0.105
-317.012	-141.880	-0.190	-0.019
-315.997	183.362	0.191	-0.283
-314.983	-27.135	0.108	-0.063
-313.968	-93.958	0.222	0.061
-312.953	800.000	-0.071	-0.208
-311.939	437.733	-0.071	-0.156
-310.924	-200.000	0.045	-0.223
-309.910	-92.001	0.176	0.050
-308.895	54.057	0.153	0.148
-307.880	227.001	0.066	0.108
-306.866	-100.936	-0.132	-0.033
-305.851	-168.217	0.172	-0.007
-304.837	42.404	0.042	-0.039
-303.822	-89.470	-0.223	0.066
-302.807	344.071	-0.168	0.330
-301.793	41.401	0.152	0.138
-300.778	46.818	-0.130	0.122
-299.764	399.317	-0.061	-0.129
-298.749	6.542	-0.120	-0.090
-297.735	141.717	0.036	0.047
-296.720	-154.389	0.297	0.020
-295.705	-105.573	0.284	0.065
-294.691	-177.095	0.301	0.008
-293.676	-63.933	-0.021	-0.008
-292.662	-109.476	-0.491	-0.104
-291.647	24.293	-0.287	-0.238
-290.632	-200.000	0.038	0.321
-289.618	800.000	0.059	-0.200
-288.603	800.000	-0.099	-0.358
-287.589	-72.457	-0.340	0.126
-286.574	230.269	0.107	-0.175
-285.559	176.024	0.249	0.363
-284.545	-200.000	0.013	0.239
-283.530	-128.932	0.241	-0.034
-282.516	219.467	0.147	-0.235
-281.501	-144.214	0.354	0.033
-280.486	-54.992	0.070	0.032
-279.472	-93.801	0.165	-0.045
-278.457	-104.990	-0.418	-0.096
-277.443	-26.022	-0.119	-0.070
-276.428	-62.665	0.339	-0.141
-275.413	157.819	-0.165	-0.229
-274.399	351.372	0.048	-0.094
-273.384	-40.574	-0.240	-0.125
-272.370	800.000	-0.020	0.089
-271.355	115.074	0.220	-0.269
-270.340	800.000	0.107	0.349
-269.326	143.175	0.017	-0.023
-268.311	800.000	0.071	-0.228
-267.297	662.340	-0.044	-0.113
-266.282	25.902	-0.207	0.173
-265.267	89.084	-0.332	0.371
-264.253	24.632	0.140	0.116
-263.238	-126.107	0.225	0.034
-262.224	-79.079	-0.495	-0.168
-261.209	-59.376	-0.071	-0.030
-260.195	-88.107	0.200	-0.060
-259.180	-164.939	-0.292	-0.013
-258.165	-22.742	0.229	0.139
-257.151	157.472	-0.039	-0.054
-256.136	-27.717	0.152	-0.088
-255.122	767.151	-0.027	-0.075
-254.107	800.000	-0.034	-0.097
-253.092	800.000	0.030	-0.102
-252.078	-96.905	0.149	-0.039
-251.063	-1.869	0.144	0.102
-250.049	-97.413	0.290	-0.075
-249.034	-87.991	0.200	0.060
-248.019	-200.000	0.048	-0.285
-247.005	800.000	0.053	-0.173
-245.990	105.789	-0.126	-0.149
-244.976	-102.363	-0.243	-0.058
-243.961	-161.238	0.504	0.026
-242.946	202.697	-0.131	-0.202
-241.932	-32.837	0.411	0.229
-240.917	391.932	0.076	0.158
-239.903	63.322	0.186	-0.187
-238.888	294.730	0.064	-0.117
-237.873	-47.365	0.217	0.106
-236.859	800.000	-0.103	0.285
-235.844	442.234	-0.193	0.422
-234.830	800.000	-0.067	-0.214
-233.815	800.000	-0.058	-0.188
-232.800	-200.000	0.024	-0.189
-231.786	-145.628	-0.008	0.001
-230.771	72.688	-0.064	-0.067
-229.757	-200.000	-0.048	0.355
-228.742	-147.737	-0.166	0.014
-227.727	-3.212	-0.277	0.193
-226.713	-99.184	0.188	-0.047
-225.698	30.226	-0.046	-0.039
-224.684	-200.000	-0.006	0.065
-223.669	-156.708	0.258	-0.016
-222.655	142.583	0.230	-0.305
-221.640	83.593	0.146	0.159
-220.625	-200.000	-0.026	0.124
-219.611	-82.394	0.169	0.055
-218.596	602.246	0.059	-0.147
-217.582	236.260	0.147	0.243
-216.567	-200.000	0.015	-0.107
-215.552	-74.781	0.230	-0.083
-214.538	-74.284	0.198	-0.071
-213.523	547.106	0.051	-0.121
-212.509	-200.000	0.053	-0.253
-211.494	-66.200	0.356	-0.142
-210.479	79.440	-0.084	0.090
-209.465	-16.354	-0.173	0.109
-208.450	-139.581	0.270	-0.029
-207.436	134.327	-0.103	-0.134
-206.421	800.000	-0.092	-0.339
-205.406	-9.681	-0.311	0.207
-204.392	45.611	0.234	-0.216
-203.377	219.059	0.156	0.249
-202.363	-200.000	0.017	0.118
-201.348	-146.711	0.306	-0.026
-200.333	-200.000	0.019	-0.099
-199.319	321.849	0.128	0.244
-198.304	168.058	-0.072	0.103
-197.290	-56.186	0.040	0.018
-196.275	-99.654	0.253	0.064
-195.260	-110.114	0.155	0.032
-194.246	189.515	0.120	0.179
-193.231	-128.136	0.112	-0.016
-192.217	-40.653	0.110	-0.057
-191.202	217.036	-0.046	-0.073
-190.187	278.328	0.035	-0.062
-189.173	-66.445	-0.189	-0.075
-188.158	-34.070	0.265	-0.146
-187.144	73.037	-0.180	-0.188
-186.129	-36.030	0.377	-0.203
-185.114	-120.549	0.258	0.044
-184.100	-135.593	-0.442	0.052
-183.085	-200.000	-0.011	0.274
-182.071	-167.757	0.128	-0.005
-181.056	-2.191	-0.217	0.152
-180.042	-200.000	-0.068	-0.317
-179.027	-96.174	-0.364	-0.096
-178.012	800.000	0.031	-0.113
-176.998	-200.000	-0.014	-0.382
-175.983	34.135	0.219	0.190
-174.969	-200.000	0.022	-0.195
-173.954	-200.000	0.056	0.410
-172.939	-200.000	0.014	-0.144
-171.925	469.765	0.062	0.139
-170.910	-200.000	0.056	0.450
-169.896	800.000	0.074	0.250
-168.881	27.817	0.282	-0.237
-167.866	-200.000	-0.011	-0.133
-166.852	116.769	0.156	0.192
-165.837	-200.000	-0.026	0.170
-164.823	-22.082	-0.005	-0.003
-163.808	68.648	0.160	0.163
-162.793	223.012	-0.147	0.236
-161.779	800.000	0.062	0.265
-160.764	800.000	0.014	-0.041
-159.750	22.700	-0.035	-0.028
-158.735	800.000	0.015	0.048
-157.720	-84.506	0.189	0.060
-156.706	-125.408	-0.267	0.041
-155.691	-64.260	0.101	0.041
-154.677	103.551	0.080	0.093
-153.662	-63.034	-0.223	-0.092
-152.647	-19.130	-0.268	-0.166
-151.633	170.625	0.107	-0.152
-150.618	674.125	-0.055	-0.143
-149.604	800.000	-0.018	0.060
-148.589	800.000	0.048	0.208
-147.574	-101.454	0.054	-0.013
-146.560	-24.373	0.326	-0.194
-145.545	-152.546	0.402	-0.029
-144.531	-79.642	-0.153	0.051
-143.516	-200.000	0.081	0.391
-142.502	-27.166	0.119	-0.069
-141.487	25.886	0.092	0.076
-140.472	525.795	-0.086	-0.202
-139.458	-39.284	-0.147	0.077
-138.443	42.981	-0.166	0.150
-137.429	-200.000	0.053	0.243
-136.414	-200.000	-0.012	-0.156
-135.399	24.813	0.132	-0.109
-134.385	-26.412	-0.072	-0.042
-133.370	-58.406	0.397	-0.172
-132.356	138.338	0.178	-0.232
-131.341	-200.000	-0.005	0.089
-130.326	210.075	0.152	0.238
-129.312	-15.652	-0.239	0.152
-128.297	-157.670	0.365	-0.022
-127.283	-37.151	0.268	-0.143
-126.268	-200.000	0.026	0.190
-125.253	-46.076	-0.337	0.166
-124.239	-200.000	-0.061	-0.404
-123.224	-166.603	0.147	-0.006
-122.210	-200.000	0.002	-0.048
-121.195	-185.355	0.175	-0.003
-120.180	-36.518	0.389	0.209
-119.166	153.839	0.068	0.093
-118.151	-200.000	-0.021	0.159
-117.137	800.000	-0.050	-0.161
-116.122	737.799	-0.124	-0.332
-115.107	-95.731	0.100	-0.027
-114.093	-140.900	0.399	-0.041
-113.078	-46.708	0.100	0.049
-112.064	800.000	0.108	0.328
-111.049	-138.070	0.320	-0.035
-110.034	-200.000	-0.038	-0.249
-109.020	-200.000	0.062	-0.335
-108.005	93.445	0.219	0.246
-106.991	431.000	0.037	-0.079
-105.976	-138.699	-0.305	0.033
-104.962	589.373	0.109	0.268
-103.947	-24.191	-0.153	-0.091
-102.932	11.163	0.212	0.162
-101.918	52.580	-0.037	-0.035
-100.903	-106.001	0.076	0.017
-99.889	530.603	0.121	0.285
-98.874	83.913	0.228	0.247
-97.859	-200.000	0.004	0.160
-96.845	17.769	-0.293	0.232
-95.830	800.000	0.029	0.086
-94.816	-83.736	0.155	0.049
-93.801	78.715	0.273	0.291
-92.786	39.068	0.263	0.234
-91.772	-42.617	-0.112	-0.057
-90.757	800.000	-0.081	0.317
-89.743	-22.747	0.092	0.055
-88.728	-200.000	-0.026	-0.222
-87.713	93.763	-0.146	0.165
-86.699	800.000	-0.095	-0.382
-85.684	-200.000	0.055	0.410
-84.670	382.549	-0.174	-0.355
-83.655	410.418	-0.140	0.296
-82.640	-92.562	0.095	-0.026
-81.626	-58.727	0.295	-0.127
-80.611	-120.153	-0.356	0.061
-79.597	-28.066	-0.050	0.029
-78.582	38.037	-0.182	0.161
-77.567	32.257	0.275	0.236
-76.553	178.457	0.061	-0.088
-75.538	-83.958	-0.272	0.086
-74.524	-98.524	-0.144	0.037
-73.509	501.149	0.048	0.110
-72.494	-101.859	0.131	0.031
-71.480	-200.000	-0.016	0.159
-70.465	-44.757	0.356	-0.177
-69.451	264.485	-0.051	-0.088
-68.436	109.801	-0.176	0.209
-67.422	-200.000	0.067	0.366
-66.407	-171.913	-0.427	-0.014
-65.392	191.418	-0.168	-0.252
-64.378	136.667	-0.128	-0.166
-63.363	-102.526	0.419	-0.100
-62.349	-31.191	-0.330	0.185
-61.334	137.126	-0.748	-0.972
-60.319	800.000	0.046	0.198
-59.305	-200.000	-0.141	-0.688
-58.290	116.458	0.623	0.759
-57.276	448.082	0.647	1.416
-56.261	-200.000	82.793	503.221
-55.246	552.097	1386.906	3308.240
-54.232	176.104	2650.499	3822.122
-53.217	120.070	2288.361	2819.209
-52.203	49.310	1729.062	1614.853
-51.188	41.382	1455.740	1307.808
-50.173	38.069	1410.968	1246.423
-49.159	56.436	1450.229	1400.090
-48.144	61.227	1468.336	1448.429
-47.130	41.782	1429.340	1286.459
-46.115	38.207	1412.308	1248.291
-45.100	37.956	1408.051	1242.880
-44.086	37.982	1405.135	1240.423
-43.071	37.967	1402.157	1237.646
-42.057	37.783	1400.578	1235.041
-41.042	37.923	1398.665	1234.187
-40.027	37.975	1397.445	1233.391
-39.013	38.014	1395.138	1231.555
-37.998	37.985	1393.707	1230.058
-36.984	38.109	1391.692	1229.012
-35.969	38.028	1389.711	1226.708
-34.954	38.020	1388.237	1225.309
-33.940	38.048	1386.601	1223.988
-32.925	38.114	1385.354	1223.252
-31.911	38.123	1383.800	1221.890
-30.896	38.086	1382.235	1220.229
-29.881	38.133	1380.652	1219.072
-28.867	38.166	1378.986	1217.759
-27.852	38.158	1377.320	1216.189
-26.838	38.162	1375.923	1214.937
-25.823	38.140	1374.388	1213.393
-24.809	38.171	1373.000	1212.313
-23.794	38.099	1372.024	1210.960
-22.779	38.110	1370.504	1209.633
-21.765	38.186	1369.024	1208.749
-20.750	38.075	1367.867	1206.997
-19.736	38.170	1365.877	1205.780
-18.721	38.044	1364.879	1204.074
-17.706	37.967	1364.067	1202.834
-16.692	38.033	1362.643	1201.937
-15.677	38.043	1361.130	1200.618
-14.663	38.030	1360.258	1199.721
-13.648	38.002	1359.355	1198.701
-12.633	38.042	1357.674	1197.417
-11.619	38.045	1357.153	1196.927
-10.604	38.008	1356.185	1195.799
-9.590	37.945	1354.991	1194.318
-8.575	37.847	1354.572	1193.300
-7.560	37.818	1353.490	1192.124
-6.546	37.926	1352.415	1191.784
-5.531	37.981	1351.109	1190.926
-4.517	37.959	1349.971	1189.741
-3.502	38.030	1349.183	1189.433
-2.487	38.088	1348.276	1188.939
-1.473	37.926	1344.052	1184.181
-0.458	36.635	1328.723	1162.871
0.556	30.557	1307.904	1119.078
1.571	26.586	1312.320	1098.713
2.586	25.578	1328.577	1106.034
3.600	25.159	1318.615	1095.083
4.615	18.991	1240.022	994.183
5.629	6.998	1152.738	859.309
6.644	0.304	1126.946	804.363
7.659	-0.446	1123.298	797.702
8.673	-0.478	1121.716	796.335
9.688	-0.586	1120.414	794.767
10.702	0.154	1120.112	798.410
11.717	8.174	1132.561	850.095
12.731	17.442	1146.084	909.941
13.746	17.418	1143.697	907.839
14.761	14.388	1139.492	888.293
15.775	13.494	1136.857	881.401
16.790	12.941	1135.805	877.568
17.804	12.675	1134.785	875.285
18.819	12.460	1134.145	873.574
19.834	12.335	1133.184	872.093
20.848	12.297	1132.056	870.944
21.863	12.096	1131.736	869.555
22.877	12.062	1131.082	868.796
23.892	11.986	1130.453	867.833
24.907	12.097	1129.135	867.334
25.921	12.115	1128.481	866.850
26.936	12.144	1127.085	865.853
27.950	12.166	1125.214	864.458
28.965	12.077	1123.155	862.330
29.980	12.113	1121.540	861.202
30.994	12.240	1120.047	860.648
32.009	12.122	1119.063	859.197
33.023	12.115	1117.533	857.907
34.038	12.186	1116.564	857.460
35.053	12.225	1115.806	857.003
36.067	12.129	1114.693	855.574
37.082	12.271	1113.367	855.220
38.096	12.287	1112.715	854.728
39.111	12.388	1111.290	854.079
40.126	12.227	1110.490	852.553
41.140	12.162	1108.942	850.955
42.155	12.082	1107.831	849.611
43.169	12.120	1106.580	848.772
44.184	12.127	1105.726	848.079
45.199	12.068	1104.212	846.541
46.213	12.115	1103.042	845.807
47.228	12.111	1101.226	844.321
48.242	11.986	1100.534	843.076
49.257	12.155	1099.186	842.836
50.271	12.247	1098.262	842.525
51.286	12.171	1097.532	841.498
52.301	12.337	1096.287	841.322
53.315	12.209	1095.664	840.110
54.330	12.268	1094.183	839.203
55.344	12.397	1093.670	839.398
56.359	12.331	1092.178	837.838
57.374	12.204	1091.809	836.837
58.388	12.230	1091.065	836.320
59.403	12.239	1089.800	835.328
60.417	12.182	1089.182	834.489
61.432	12.195	1088.291	833.797
62.447	12.200	1087.271	832.969
63.461	12.230	1086.708	832.613
64.476	12.231	1085.742	831.807
65.490	12.234	1084.523	830.812
66.505	12.235	1083.562	830.008
67.520	12.270	1083.058	829.728
68.534	12.301	1082.204	829.154
69.549	12.295	1081.244	828.317
70.563	12.217	1080.625	827.374
71.578	12.304	1079.627	826.979
72.593	12.330	1078.458	826.137
73.607	12.278	1078.351	825.719
74.622	12.295	1077.733	825.261
75.636	12.378	1076.890	824.958
76.651	12.303	1075.798	823.671
77.666	12.265	1075.074	822.858
78.680	12.302	1074.720	822.700
79.695	12.269	1073.939	821.859
80.709	12.470	1072.654	821.812
81.724	12.430	1072.167	821.166
82.739	12.368	1071.558	820.318
83.753	12.368	1070.442	819.387
84.768	12.467	1069.087	818.771
85.782	12.421	1068.330	817.893
86.797	12.399	1067.189	816.837
87.812	12.375	1066.313	815.974
88.826	12.345	1065.701	815.284
89.841	12.397	1064.304	814.403
90.855	12.461	1062.850	813.533
91.870	12.372	1062.130	812.469
92.884	12.330	1061.409	811.642
93.899	12.462	1060.042	811.174
94.914	12.488	1059.199	810.586
95.928	12.386	1058.669	809.606
96.943	12.386	1057.323	808.503
97.957	12.355	1055.943	807.228
98.972	12.292	1055.014	806.132
99.987	12.408	1053.809	805.712
101.001	12.455	1053.223	805.422
102.016	12.474	1052.506	804.895
103.030	12.395	1051.083	803.351
104.045	12.399	1050.115	802.560
105.060	12.423	1049.544	802.168
106.074	12.471	1048.432	801.482
107.089	12.591	1047.726	801.457
108.103	12.549	1046.605	800.324
109.118	12.498	1045.518	799.175
110.133	12.613	1044.744	799.071
111.147	12.387	1044.133	797.435
112.162	12.389	1042.897	796.430
113.176	12.485	1041.808	795.994
114.191	12.565	1040.794	795.534
115.206	12.416	1040.050	794.173
116.220	12.438	1039.290	793.630
117.235	12.639	1037.657	793.283
118.249	12.578	1036.671	792.164
119.264	12.794	1035.733	792.416
120.279	12.657	1035.057	791.172
121.293	12.698	1034.253	790.681
122.308	12.684	1033.089	789.655
123.322	12.567	1032.126	788.289
124.337	12.516	1030.876	787.020
125.352	12.434	1029.282	785.341
126.366	12.492	1027.940	784.528
127.381	12.653	1027.419	784.828
128.395	12.680	1026.580	784.242
129.410	12.831	1025.267	783.892
130.424	12.727	1024.272	782.567
131.439	12.720	1023.553	781.916
132.454	12.775	1022.345	781.184
133.468	12.721	1021.639	780.317
134.483	12.818	1020.437	779.790
135.497	12.836	1019.699	779.246
136.512	12.832	1018.927	778.568
137.527	12.752	1017.896	777.329
138.541	12.835	1017.358	777.241
139.556	12.717	1016.731	776.140
140.570	12.877	1015.065	775.553
141.585	12.750	1014.290	774.294
142.600	12.848	1012.784	773.538
143.614	12.875	1012.076	773.052
144.629	12.877	1011.305	772.404
145.643	12.859	1010.225	771.426
146.658	12.744	1009.145	769.997
147.673	12.816	1007.897	769.315
148.687	12.818	1007.257	768.767
149.702	12.763	1006.560	767.912
150.716	12.782	1005.433	767.069
151.731	12.753	1005.174	766.670
152.746	12.870	1004.325	766.499
153.760	12.891	1003.334	765.771
154.775	12.920	1003.054	765.625
155.789	12.801	1002.028	764.220
156.804	12.879	1001.182	763.871
157.819	12.981	1000.387	763.670
158.833	12.889	999.777	762.710
159.848	13.102	998.361	762.548
160.862	12.960	997.690	761.311
161.877	13.057	996.558	760.825
162.892	12.984	995.512	759.625
163.906	12.988	994.651	758.919
164.921	13.098	993.676	758.615
165.935	13.047	992.743	757.602
166.950	13.027	991.606	756.571
167.964	13.046	990.634	755.852
168.979	12.841	989.892	754.282
169.994	12.956	988.897	753.983
171.008	13.064	988.143	753.833
172.023	13.037	987.131	752.872
173.037	12.916	986.133	751.491
174.052	12.888	985.506	750.820
175.067	12.955	985.051	750.711
176.081	13.107	984.191	750.682
177.096	13.202	983.255	750.334
178.110	13.036	982.387	748.849
179.125	13.069	981.855	748.526
180.140	13.026	981.529	748.018
181.154	13.140	980.883	747.975
182.169	13.156	980.445	747.651
183.183	13.196	980.014	747.435
184.198	13.150	978.774	746.215
185.213	13.348	977.728	746.245
186.227	13.267	977.011	745.268
187.242	13.282	976.023	744.514
188.256	13.125	975.825	743.590
189.271	13.270	974.405	743.096
190.286	13.180	973.691	742.081
191.300	13.072	973.110	741.089
192.315	13.026	972.261	740.169
193.329	13.040	971.576	739.646
194.344	13.093	971.166	739.504
195.359	13.343	970.418	739.988
196.373	13.248	969.816	739.037
197.388	13.212	969.437	738.522
198.402	13.168	968.393	737.468
199.417	13.224	967.273	736.799
200.432	13.076	966.564	735.533
201.446	13.003	966.483	735.082
202.461	13.011	965.328	734.174
203.475	12.931	964.974	733.481
204.490	12.885	963.693	732.239
205.504	12.953	963.443	732.288
206.519	13.196	962.858	732.855
207.534	13.093	962.302	731.913
208.548	13.368	961.557	732.500
209.563	13.235	960.735	731.218
210.577	13.290	959.890	730.755
211.592	13.359	959.034	730.342
212.607	13.285	957.937	729.114
213.621	13.369	957.339	728.967
214.636	13.429	956.796	728.752
215.650	13.511	955.825	728.310
216.665	13.510	955.107	727.693
217.680	13.546	954.374	727.229
218.694	13.387	952.941	725.375
219.709	13.450	952.686	725.393
220.723	13.538	952.132	725.293
221.738	13.597	951.673	725.135
222.753	13.443	950.986	723.875
223.767	13.531	950.202	723.602
224.782	13.754	948.866	723.493
225.796	13.527	948.839	722.416
226.811	13.442	947.778	721.175
227.826	13.386	946.883	720.187
228.840	13.379	946.123	719.512
229.855	13.451	945.001	718.908
230.869	13.543	943.693	718.250
231.884	13.516	943.321	717.786
232.899	13.614	943.377	718.189
233.913	13.688	942.462	717.752
234.928	13.648	942.131	717.261
235.942	13.716	941.198	716.783
236.957	13.703	940.017	715.765
237.972	13.624	939.723	715.136
238.986	13.635	939.265	714.769
240.001	13.593	938.465	713.916
241.015	13.686	937.687	713.663
242.030	13.736	936.720	713.079
243.045	13.795	936.253	712.912
244.059	13.783	935.835	712.482
245.074	13.700	934.896	711.348
246.088	13.583	933.944	710.058
247.103	13.673	933.012	709.673
248.117	13.722	932.615	709.518
249.132	13.784	931.947	709.208
250.147	13.721	931.110	708.242
251.161	13.802	929.940	707.633
252.176	13.779	929.576	707.198
253.190	13.871	929.005	707.091
254.205	13.900	928.279	706.599
255.220	14.004	927.707	706.543
256.234	13.974	926.510	705.441
257.249	14.025	925.746	705.013
258.263	13.981	925.052	704.239
259.278	13.995	924.319	703.675
260.293	13.995	923.396	702.912
261.307	14.032	922.775	702.534
262.322	13.891	922.352	701.554
263.336	13.872	921.224	700.553
264.351	13.743	920.245	699.203
265.366	13.788	919.413	698.700
266.380	13.914	919.348	699.116
267.395	14.152	918.283	699.248
268.409	14.053	917.522	698.189
269.424	14.042	916.751	697.493
270.439	14.079	916.004	697.020
271.453	14.024	915.423	696.286
272.468	14.082	915.078	696.203
273.482	14.099	914.428	695.721
274.497	14.065	913.550	694.850
275.512	13.946	912.815	693.732
276.526	13.989	912.590	693.677
277.541	14.214	911.533	693.752
278.555	14.080	910.908	692.656
279.570	14.129	910.101	692.184
280.585	13.993	909.212	690.882
281.599	14.203	908.275	690.982
282.614	14.142	907.532	690.102
283.628	14.106	906.897	689.410
284.643	14.204	906.466	689.427
285.657	14.131	905.570	688.381
286.672	14.150	905.107	688.048
287.687	14.192	904.062	687.366
288.701	14.141	903.782	686.881
289.716	14.133	902.981	686.178
290.730	14.045	902.627	685.487
291.745	14.211	901.630	685.351
292.760	14.196	901.174	684.881
293.774	14.212	900.483	684.360
294.789	14.420	899.807	684.642
295.803	14.303	898.605	683.189
296.818	14.295	898.008	682.639
297.833	14.324	897.295	682.157
298.847	14.256	897.135	681.695
299.862	14.283	896.187	681.025
300.876	14.247	895.748	680.486
301.891	14.450	894.753	680.498
302.906	14.350	894.700	679.990
303.920	14.416	893.982	679.652
304.935	14.341	893.002	678.541
305.949	14.429	892.087	678.144
306.964	14.368	891.967	677.746
307.979	14.240	891.413	676.745
308.993	14.415	890.249	676.509
310.008	14.450	889.959	676.372
311.022	14.418	889.379	675.740
312.037	14.371	888.930	675.152
313.052	14.368	888.265	674.575
314.066	14.394	887.985	674.407
315.081	14.467	887.043	673.925
316.095	14.516	886.151	673.387
317.110	14.329	885.852	672.347
318.125	14.518	885.001	672.402
319.139	14.443	884.870	671.943
320.154	14.563	884.216	671.866
321.168	14.477	883.668	671.044
322.183	14.442	882.786	670.176
323.197	14.560	881.917	669.931
324.212	14.420	881.582	669.055
325.227	14.412	881.021	668.538
326.241	14.543	880.045	668.262
327.256	14.379	880.051	667.552
328.270	14.432	879.569	667.342
329.285	14.474	878.621	666.728
330.300	14.451	877.843	665.988
331.314	14.445	877.488	665.636
332.329	14.606	876.831	665.720
333.343	14.407	876.811	664.852
334.358	14.455	875.926	664.313
335.373	14.468	875.381	663.895
336.387	14.376	875.175	663.311
337.402	14.361	874.881	662.972
338.416	14.491	874.514	663.152
339.431	14.473	873.995	662.627
340.446	14.377	873.508	661.820
341.460	14.452	873.335	661.929
342.475	14.659	872.597	662.129
343.489	14.612	871.695	661.202
344.504	14.632	871.156	660.814
345.519	14.533	870.384	659.777
346.533	14.417	869.924	658.910
347.548	14.522	869.395	658.869
348.562	14.415	869.192	658.232
349.577	14.432	867.959	657.309
350.592	14.455	867.500	656.994
351.606	14.514	866.845	656.670
352.621	14.477	866.025	655.847
353.635	14.459	865.725	655.489
354.650	14.747	864.878	655.922
355.665	14.906	864.333	656.074
356.679	14.883	863.531	655.315
357.694	14.701	863.014	654.153
358.708	14.712	862.321	653.615
359.723	14.470	861.655	652.103
360.738	14.483	860.943	651.559
361.752	14.582	859.875	651.080
362.767	14.401	859.814	650.268
363.781	14.416	858.829	649.525
364.796	14.425	858.249	649.066
365.810	14.621	857.809	649.437
366.825	14.559	857.460	648.875
367.840	14.715	857.104	649.155
368.854	14.754	856.680	648.926
369.869	14.729	856.326	648.506
370.883	14.692	855.705	647.831
371.898	14.947	855.452	648.572
372.913	14.852	855.199	647.954
373.927	14.631	854.410	646.443
374.942	14.593	853.652	645.667
375.956	14.571	853.322	645.276
376.971	14.590	852.314	644.530
377.986	14.545	851.995	644.058
379.000	14.656	851.554	644.094
380.015	14.757	850.791	643.849
381.029	14.910	849.916	643.720
382.044	14.797	849.595	642.986
383.059	14.813	849.410	642.849
384.073	14.658	848.346	641.391
385.088	14.590	847.837	640.691
386.102	14.556	847.396	640.168
387.117	14.498	846.774	639.422
388.132	14.818	846.330	640.252
389.146	14.958	846.256	640.679
390.161	14.992	845.656	640.299
391.175	14.958	845.008	639.621
392.190	14.920	844.596	639.104
393.205	15.407	844.148	640.569
394.219	15.588	844.681	641.607
395.234	15.549	843.847	640.770
396.248	15.125	843.041	638.487
397.263	14.585	842.216	635.749
398.278	14.432	841.735	634.745
399.292	14.523	841.236	634.660
400.307	14.627	840.315	634.302
401.321	14.533	840.138	633.755
402.336	14.700	838.821	633.340
403.350	14.552	838.532	632.504
404.365	14.645	837.521	632.039
405.380	14.301	837.377	630.571
406.394	14.393	836.528	630.223
407.409	14.483	836.492	630.482
408.423	14.466	836.538	630.395
409.438	14.629	835.398	630.095
410.453	14.438	834.881	628.931
411.467	14.271	834.465	627.933
412.482	14.322	833.696	627.490
413.496	14.374	833.219	627.271
414.511	14.177	833.253	626.500
415.526	14.494	832.608	627.151
416.540	14.635	832.516	627.558
417.555	14.679	832.087	627.342
418.569	14.732	831.672	627.173
419.584	14.746	831.202	626.817
420.599	14.894	830.584	626.851
421.613	149.428	1358.681	1774.390
422.628	130.536	1435.665	1774.517
