DTS Sentinel unit serial number:	SN413079Multiplexer serial number:	ORYXHardware model number:	OX4-SRSoftware version number:	ORYX F/W v4.00 Oryx Data Collector v3.7.2.0data status	okinstallation	princeton_trtdifferential loss correction	single-endedforward channel	channel 1reverse channel	N/Adate	2019/09/16time	03:14:35forward acquisition time	60.00reverse acquisition time	0.00gamma	496.2192k internal	0.2330k external	0.2330temperature offset calibration	0.9978default loss term (dB/km)	0.3790temperature slope calibration	1.0000multiplexer offset coefficient	1.0000multiplexer slope coefficient	1.0000fibre end	0.00T internal ref (°C)	27.75T ext. ref 1 (°C)	10.49T ext. ref 2 (°C)	21.99length (m)	temperature (°C)	Stokes	anti-Stokes-747.200	320.640	-0.066	-0.126
-746.185	-200.000	-0.021	0.208
-745.171	-59.015	0.347	0.151
-744.156	800.000	-0.106	0.325
-743.142	204.357	-0.258	0.402
-742.127	15.219	0.189	0.150
-741.112	-18.471	0.089	0.056
-740.098	613.496	0.164	0.414
-739.083	-200.000	-0.044	-0.279
-738.069	200.972	0.244	0.377
-737.054	-200.000	0.049	-0.392
-736.039	-94.456	-0.365	-0.100
-735.025	-99.363	0.331	0.084
-734.010	-200.000	0.006	-0.067
-732.996	69.362	0.042	-0.043
-731.981	-200.000	0.066	-0.429
-730.966	-21.426	-0.221	-0.136
-729.952	612.093	-0.052	0.130
-728.937	-118.222	-0.086	0.015
-727.923	-69.890	-0.454	-0.174
-726.908	-200.000	0.014	-0.399
-725.894	-14.776	-0.180	0.117
-724.879	357.536	0.057	0.114
-723.864	349.021	0.158	-0.314
-722.850	-40.436	-0.126	-0.066
-721.835	-15.221	-0.091	-0.059
-720.821	-122.301	-0.411	0.067
-719.806	181.839	0.168	-0.248
-718.791	-200.000	0.018	0.218
-717.777	-110.568	-0.292	-0.061
-716.762	-15.416	-0.293	-0.188
-715.748	294.020	0.183	-0.336
-714.733	75.322	0.096	0.102
-713.718	-17.991	0.231	-0.146
-712.704	5.452	-0.246	-0.182
-711.689	262.919	0.129	-0.225
-710.675	-174.438	-0.217	0.006
-709.660	-60.910	-0.058	-0.025
-708.645	-34.489	0.318	0.175
-707.631	-130.418	0.103	-0.014
-706.616	283.714	-0.072	-0.130
-705.602	-82.616	0.065	0.021
-704.587	-200.000	0.023	0.103
-703.572	-76.912	0.124	0.043
-702.558	55.382	0.152	-0.147
-701.543	-35.209	0.163	-0.089
-700.529	-155.429	-0.459	0.030
-699.514	33.194	-0.166	-0.144
-698.499	-200.000	-0.000	0.121
-697.485	155.590	0.133	0.185
-696.470	800.000	0.077	-0.242
-695.456	-200.000	0.017	-0.163
-694.441	-2.746	0.127	-0.090
-693.426	-122.383	-0.152	0.025
-692.412	-200.000	0.002	-0.055
-691.397	-8.486	-0.159	0.107
-690.383	23.838	-0.165	0.136
-689.368	604.118	-0.217	0.541
-688.354	800.000	0.098	0.389
-687.339	273.947	0.119	-0.211
-686.324	154.523	0.162	0.223
-685.310	-53.525	0.132	-0.060
-684.295	57.268	0.173	-0.170
-683.281	-112.445	-0.274	0.055
-682.266	800.000	-0.018	0.052
-681.251	128.998	-0.209	0.268
-680.237	-65.306	-0.388	-0.157
-679.222	213.145	-0.138	0.219
-678.208	290.597	-0.128	0.234
-677.193	97.154	-0.064	-0.074
-676.178	-68.171	0.303	-0.118
-675.164	98.923	-0.158	-0.184
-674.149	-57.398	0.172	0.076
-673.135	40.157	0.242	-0.219
-672.120	281.518	0.013	0.023
-671.105	-200.000	-0.040	0.317
-670.091	-200.000	-0.010	-0.145
-669.076	101.861	-0.469	0.549
-668.062	-116.275	-0.379	-0.070
-667.047	-122.083	-0.199	-0.033
-666.032	94.478	0.136	-0.156
-665.018	-27.798	0.202	-0.118
-664.003	-145.742	-0.346	0.031
-662.989	-200.000	-0.037	-0.195
-661.974	16.913	0.137	-0.109
-660.959	-200.000	0.076	0.000
-659.945	414.694	0.013	-0.028
-658.930	-127.057	0.042	0.006
-657.916	29.002	0.180	0.153
-656.901	629.971	-0.090	0.228
-655.886	-65.406	-0.257	-0.104
-654.872	15.167	0.075	0.059
-653.857	665.920	-0.103	0.268
-652.843	-38.844	0.311	-0.164
-651.828	-132.087	0.221	-0.029
-650.814	-97.904	-0.050	-0.013
-649.799	-15.097	0.180	0.115
-648.784	102.128	-0.074	0.087
-647.770	-132.469	-0.187	-0.024
-646.755	-46.227	0.121	-0.060
-645.741	-53.388	0.286	0.132
-644.726	37.312	0.058	-0.052
-643.711	-32.942	0.281	0.156
-642.697	-100.713	0.087	-0.022
-641.682	600.880	0.158	0.393
-640.668	-200.000	0.002	-0.321
-639.653	-200.000	-0.060	0.350
-638.638	800.000	0.125	-0.362
-637.624	411.026	0.060	-0.127
-636.609	-18.458	0.345	0.216
-635.595	-200.000	0.023	-0.556
-634.580	800.000	-0.084	0.343
-633.565	-48.600	-0.200	0.096
-632.551	175.255	0.142	-0.207
-631.536	78.076	-0.204	0.218
-630.522	-137.815	0.197	-0.022
-629.507	-42.610	0.257	0.131
-628.492	-200.000	0.008	0.403
-627.478	-107.229	0.105	-0.023
-626.463	-131.493	-0.258	-0.034
-625.449	800.000	-0.053	0.151
-624.434	-112.593	-0.255	-0.051
-623.419	-109.612	0.256	-0.054
-622.405	378.104	0.061	0.126
-621.390	72.736	0.138	0.144
-620.376	336.400	0.034	-0.066
-619.361	221.897	-0.067	-0.107
-618.346	287.614	0.049	0.088
-617.332	370.662	0.051	0.104
-616.317	-35.447	-0.199	0.108
-615.303	-124.920	-0.086	0.013
-614.288	-107.061	0.285	0.063
-613.273	-200.000	0.043	0.252
-612.259	78.267	-0.079	0.084
-611.244	-9.289	0.100	0.067
-610.230	6.668	-0.051	0.038
-609.215	64.317	0.269	0.272
-608.201	498.568	0.103	-0.238
-607.186	160.244	0.218	-0.305
-606.171	800.000	0.114	-0.320
-605.157	125.544	-0.319	-0.404
-604.142	-121.700	-0.194	-0.032
-603.128	800.000	-0.036	0.156
-602.113	800.000	-0.083	0.240
-601.098	-200.000	-0.059	-0.307
-600.084	800.000	-0.127	-0.383
-599.069	98.793	0.050	0.058
-598.055	-200.000	0.002	-0.191
-597.040	134.550	-0.058	-0.075
-596.025	800.000	-0.058	-0.220
-595.011	-200.000	-0.021	-0.188
-593.996	285.213	-0.116	0.209
-592.982	-70.496	0.280	0.106
-591.967	243.527	0.153	-0.257
-590.952	-146.006	0.271	0.024
-589.938	-157.292	0.219	-0.013
-588.923	-200.000	0.066	0.361
-587.909	800.000	-0.087	-0.264
-586.894	-47.019	-0.335	-0.164
-585.879	800.000	-0.038	-0.114
-584.865	-97.924	0.105	0.027
-583.850	-148.430	0.507	0.042
-582.836	13.528	-0.076	0.059
-581.821	-68.082	-0.078	0.031
-580.806	-87.992	-0.189	0.057
-579.792	354.024	0.177	0.352
-578.777	39.990	0.121	0.109
-577.763	-54.473	-0.115	0.052
-576.748	-141.594	-0.112	0.011
-575.733	-200.000	0.012	0.203
-574.719	800.000	-0.083	-0.256
-573.704	-200.000	-0.006	-0.240
-572.690	460.995	0.046	-0.103
-571.675	1.717	0.064	0.046
-570.661	-20.492	-0.145	0.089
-569.646	800.000	-0.100	-0.400
-568.631	-200.000	-0.015	0.271
-567.617	-200.000	0.008	-0.044
-566.602	-111.601	-0.250	-0.051
-565.588	98.327	-0.211	-0.243
-564.573	800.000	0.131	-0.439
-563.558	-106.992	0.128	-0.028
-562.544	-160.395	-0.310	0.017
-561.529	123.279	-0.126	-0.158
-560.515	361.015	0.063	-0.127
-559.500	32.274	0.214	-0.184
-558.485	-200.000	-0.015	0.170
-557.471	-60.858	0.334	0.141
-556.456	368.577	0.015	-0.031
-555.442	-200.000	0.063	-0.364
-554.427	800.000	0.046	0.164
-553.412	-200.000	0.040	-0.195
-552.398	800.000	0.089	-0.267
-551.383	-91.349	0.144	-0.041
-550.369	-108.381	0.201	0.043
-549.354	32.360	-0.047	-0.040
-548.339	257.570	-0.169	-0.290
-547.325	218.041	0.119	-0.190
-546.310	75.124	0.167	0.175
-545.296	35.073	-0.225	0.197
-544.281	22.965	-0.055	-0.045
-543.266	411.605	0.046	0.098
-542.252	800.000	-0.102	0.332
-541.237	53.891	-0.167	-0.160
-540.223	-22.829	-0.190	-0.115
-539.208	42.526	0.372	-0.338
-538.193	800.000	-0.023	0.089
-537.179	479.161	0.130	-0.295
-536.164	-200.000	-0.020	-0.147
-535.150	579.437	-0.111	0.271
-534.135	80.510	-0.054	-0.058
-533.121	213.748	-0.037	-0.059
-532.106	-43.114	-0.202	0.102
-531.091	-11.305	-0.030	0.020
-530.077	129.355	0.065	-0.083
-529.062	42.227	0.142	-0.128
-528.048	705.663	0.049	0.129
-527.033	-95.734	-0.295	0.079
-526.018	612.248	0.094	0.234
-525.004	-89.515	0.252	-0.074
-523.989	-178.046	-0.061	-0.001
-522.975	538.066	0.085	-0.201
-521.960	-129.079	-0.289	-0.040
-520.945	-78.679	0.236	0.080
-519.931	135.995	0.114	0.149
-518.916	36.034	0.117	-0.103
-517.902	-35.997	0.142	-0.077
-516.887	183.686	0.066	0.097
-515.872	54.372	-0.259	0.248
-514.858	-168.717	0.251	0.009
-513.843	694.837	0.091	0.237
-512.829	-79.196	-0.154	-0.052
-511.814	134.766	-0.090	0.116
-510.799	-53.680	0.132	0.060
-509.785	-125.091	0.189	-0.029
-508.770	-100.318	-0.302	-0.075
-507.756	-200.000	-0.016	-0.294
-506.741	117.676	-0.113	-0.139
-505.726	68.347	-0.162	0.166
-504.712	800.000	0.070	-0.280
-503.697	139.006	-0.092	-0.121
-502.683	-200.000	0.012	0.087
-501.668	-38.526	-0.080	0.042
-500.653	-44.309	-0.086	0.043
-499.639	-200.000	-0.026	0.222
-498.624	-77.994	0.211	0.072
-497.610	-200.000	0.016	-0.162
-496.595	-97.120	0.295	0.077
-495.581	-200.000	-0.000	-0.067
-494.566	-58.624	0.195	-0.084
-493.551	-6.454	0.117	-0.080
-492.537	-72.230	0.147	-0.054
-491.522	-200.000	-0.050	0.254
-490.508	800.000	0.099	0.394
-489.493	-68.312	0.329	0.127
-488.478	182.922	0.171	-0.252
-487.464	4.758	-0.071	0.052
-486.449	429.998	-0.072	0.155
-485.435	25.820	-0.102	-0.085
-484.420	-73.601	-0.262	0.095
-483.405	-21.576	0.364	-0.221
-482.391	-20.702	0.136	0.083
-481.376	-15.363	-0.136	0.087
-480.362	800.000	-0.090	0.325
-479.347	-125.336	-0.220	-0.034
-478.332	800.000	0.024	0.074
-477.318	-200.000	0.004	-0.044
-476.303	-200.000	0.021	-0.146
-475.289	-29.867	-0.114	-0.065
-474.274	-20.802	-0.112	0.068
-473.259	467.143	-0.139	-0.309
-472.245	184.791	0.027	0.041
-471.230	512.443	-0.042	0.098
-470.216	-9.600	-0.088	0.058
-469.201	57.498	0.171	-0.166
-468.186	-56.073	-0.267	0.118
-467.172	558.531	-0.072	-0.172
-466.157	-49.916	-0.291	0.137
-465.143	329.607	0.103	-0.198
-464.128	310.844	-0.134	0.250
-463.113	118.747	0.018	0.023
-462.099	-200.000	0.013	-0.327
-461.084	800.000	0.118	-0.324
-460.070	81.577	0.112	0.121
-459.055	35.153	-0.119	0.104
-458.040	-200.000	0.046	0.296
-457.026	-76.497	-0.294	-0.103
-456.011	174.483	-0.085	-0.123
-454.997	-7.100	0.062	0.042
-453.982	-97.871	-0.284	0.073
-452.968	-152.034	0.276	-0.020
-451.953	-8.844	0.154	-0.103
-450.938	-200.000	-0.037	-0.222
-449.924	-16.796	-0.336	-0.212
-448.909	690.102	-0.055	0.142
-447.895	-200.000	0.008	0.276
-446.880	16.513	0.430	0.338
-445.865	800.000	0.064	0.253
-444.851	800.000	-0.097	0.316
-443.836	-169.219	-0.246	-0.009
-442.822	-24.036	0.129	-0.077
-441.807	800.000	-0.013	0.047
-440.792	-106.817	-0.142	0.031
-439.778	-45.144	-0.237	0.117
-438.763	-153.395	-0.195	-0.013
-437.749	-33.354	-0.100	-0.055
-436.734	71.256	-0.145	0.149
-435.719	40.836	0.167	-0.150
-434.705	-200.000	0.000	0.063
-433.690	-86.519	-0.402	0.123
-432.676	-52.262	-0.146	-0.067
-431.661	-90.132	-0.127	0.037
-430.646	5.410	-0.266	-0.195
-429.632	87.769	0.076	0.084
-428.617	-64.210	-0.024	-0.010
-427.603	-31.918	-0.042	-0.023
-426.588	-200.000	0.013	-0.283
-425.573	-81.194	-0.268	0.088
-424.559	-9.426	0.215	0.143
-423.544	24.990	0.222	0.183
-422.530	-200.000	0.035	-0.216
-421.515	-49.318	-0.319	0.151
-420.500	-117.852	0.151	-0.027
-419.486	800.000	-0.076	0.243
-418.471	45.971	0.236	0.217
-417.457	-66.279	-0.195	0.077
-416.442	187.331	0.216	0.320
-415.428	-29.621	-0.297	0.169
-414.413	9.059	0.130	-0.097
-413.398	72.690	0.081	0.084
-412.384	-99.724	0.188	0.047
-411.369	-49.313	0.144	-0.068
-410.355	398.582	-0.142	0.296
-409.340	-101.971	-0.058	-0.014
-408.325	695.652	-0.131	0.343
-407.311	-126.127	0.107	-0.016
-406.296	36.285	-0.255	-0.223
-405.282	-200.000	-0.004	-0.370
-404.267	-200.000	-0.016	-0.452
-403.252	-100.345	0.192	-0.047
-402.238	-132.765	-0.149	-0.019
-401.223	-64.397	0.250	-0.101
-400.209	538.140	0.068	-0.159
-399.194	-111.958	0.310	-0.062
-398.179	146.707	0.157	0.210
-397.165	800.000	-0.033	0.118
-396.150	-78.625	-0.182	0.062
-395.136	-8.923	-0.044	-0.030
-394.121	191.954	-0.083	0.124
-393.106	369.086	-0.088	0.176
-392.092	-34.541	-0.282	-0.153
-391.077	-200.000	-0.015	-0.398
-390.063	30.125	0.087	0.074
-389.048	-132.841	0.155	-0.020
-388.033	-200.000	0.038	-0.387
-387.019	-44.325	0.248	-0.123
-386.004	-200.000	0.011	0.074
-384.990	14.903	0.313	-0.243
-383.975	-83.737	-0.318	0.101
-382.960	1.609	0.146	-0.104
-381.946	800.000	-0.023	-0.086
-380.931	800.000	0.137	0.454
-379.917	800.000	-0.076	-0.245
-378.902	23.712	0.192	-0.157
-377.888	-13.777	-0.084	-0.054
-376.873	2.772	-0.189	-0.136
-375.858	-35.084	0.185	0.100
-374.844	42.282	0.282	-0.255
-373.829	37.218	0.204	-0.179
-372.815	392.886	0.075	-0.156
-371.800	263.324	0.181	-0.311
-370.785	498.801	-0.132	-0.301
-369.771	-75.490	-0.115	-0.041
-368.756	-200.000	-0.031	-0.224
-367.742	179.326	0.118	-0.172
-366.727	187.573	-0.184	-0.273
-365.712	130.809	-0.076	0.096
-364.698	14.139	-0.209	-0.162
-363.683	-196.564	-0.217	-0.001
-362.669	150.694	-0.172	-0.232
-361.654	-184.156	-0.147	0.002
-360.639	-42.811	-0.312	-0.157
-359.625	68.596	0.163	-0.166
-358.610	800.000	-0.110	-0.328
-357.596	-2.629	0.055	0.038
-356.581	-97.421	-0.306	-0.079
-355.566	-200.000	0.022	-0.166
-354.552	800.000	-0.119	-0.329
-353.537	9.186	0.224	-0.168
-352.523	46.011	0.175	0.160
-351.508	49.944	-0.129	-0.121
-350.493	148.735	0.156	0.208
-349.479	-200.000	0.022	0.327
-348.464	272.283	-0.098	-0.171
-347.450	-168.923	0.253	0.009
-346.435	-19.682	-0.195	-0.120
-345.420	-200.000	0.025	-0.147
-344.406	-164.393	-0.131	-0.006
-343.391	-2.624	0.103	0.071
-342.377	-200.000	-0.028	-0.261
-341.362	316.562	0.077	0.144
-340.348	-42.051	-0.172	0.087
-339.333	-108.851	-0.353	0.075
-338.318	-77.076	-0.192	0.066
-337.304	-4.728	-0.274	-0.188
-336.289	-69.255	-0.147	0.056
-335.275	198.507	-0.189	-0.286
-334.260	270.480	-0.131	-0.227
-333.245	90.183	-0.094	0.104
-332.231	470.910	0.083	-0.185
-331.216	-200.000	-0.015	0.372
-330.202	-31.066	0.072	-0.040
-329.187	-134.801	0.396	0.048
-328.172	-200.000	-0.074	-0.354
-327.158	33.309	0.185	0.159
-326.143	394.049	-0.087	-0.179
-325.129	133.519	0.061	-0.079
-324.114	300.812	0.134	0.246
-323.099	-100.817	0.052	0.013
-322.085	-200.000	-0.045	-0.209
-321.070	-200.000	-0.036	0.392
-320.056	-119.072	0.303	0.053
-319.041	-91.256	-0.064	0.018
-318.026	72.031	-0.214	0.220
-317.012	520.435	0.082	0.191
-315.997	4.296	0.219	0.159
-314.983	-13.877	0.084	-0.054
-313.968	-100.516	-0.093	-0.023
-312.953	-148.367	0.066	0.005
-311.939	800.000	0.070	0.193
-310.924	-12.214	0.340	0.220
-309.910	-84.238	-0.383	0.120
-308.895	800.000	0.055	-0.151
-307.880	34.174	-0.113	-0.097
-306.866	-58.038	-0.255	0.110
-305.851	21.130	0.067	-0.054
-304.837	-200.000	0.025	0.132
-303.822	576.385	0.142	-0.342
-302.807	59.056	-0.081	-0.079
-301.793	-38.000	-0.252	0.132
-300.778	135.281	0.175	-0.225
-299.764	-200.000	-0.017	0.415
-298.749	157.904	0.238	0.327
-297.735	-195.665	0.123	0.001
-296.720	-23.564	-0.210	-0.124
-295.705	800.000	-0.052	0.144
-294.691	529.040	0.110	-0.258
-293.676	-80.518	-0.364	0.120
-292.662	-14.612	0.135	-0.086
-291.647	-63.880	-0.046	0.019
-290.632	10.693	-0.295	-0.223
-289.618	-127.726	-0.488	0.070
-288.603	86.271	0.021	-0.023
-287.589	-200.000	-0.001	-0.233
-286.574	-2.123	0.228	0.158
-285.559	-120.330	-0.248	0.042
-284.545	-200.000	0.051	-0.254
-283.530	-146.711	-0.153	-0.013
-282.516	-9.785	-0.028	0.018
-281.501	-16.859	0.228	0.142
-280.486	-200.000	0.002	0.121
-279.472	-200.000	0.015	-0.142
-278.457	283.038	0.078	0.139
-277.443	-200.000	-0.021	0.119
-276.428	0.712	0.133	-0.094
-275.413	119.067	-0.236	0.288
-274.399	-18.797	-0.184	-0.114
-273.384	765.269	0.124	0.333
-272.370	-67.128	-0.118	-0.046
-271.355	-200.000	0.031	-0.223
-270.340	272.057	0.173	0.301
-269.326	341.752	0.082	-0.159
-268.311	261.525	-0.171	0.293
-267.297	67.372	0.181	0.182
-266.282	791.956	-0.074	-0.201
-265.267	-63.963	0.152	-0.061
-264.253	497.789	0.182	-0.414
-263.238	800.000	0.035	0.137
-262.224	-200.000	-0.008	-0.062
-261.209	-28.739	0.303	-0.172
-260.195	800.000	0.030	-0.094
-259.180	-200.000	-0.040	0.352
-258.165	-200.000	0.058	0.405
-257.151	-200.000	-0.003	0.059
-256.136	-40.155	0.353	0.182
-255.122	800.000	0.098	0.405
-254.107	524.584	0.026	-0.060
-253.092	-200.000	0.057	0.249
-252.078	800.000	-0.064	-0.176
-251.063	21.458	0.252	-0.203
-250.049	-126.119	0.205	-0.030
-249.034	19.096	0.074	-0.059
-248.019	24.174	0.131	-0.107
-247.005	-83.343	-0.033	-0.010
-245.990	-14.182	0.051	0.032
-244.976	-47.738	-0.178	-0.085
-243.961	-191.325	0.247	-0.002
-242.946	4.267	0.066	0.048
-241.932	-14.610	-0.124	-0.079
-240.917	-126.493	0.304	-0.045
-239.903	31.342	-0.090	-0.076
-238.888	8.845	-0.146	-0.109
-237.873	69.743	-0.180	0.183
-236.859	-200.000	0.003	-0.251
-235.844	-165.865	-0.118	-0.005
-234.830	-200.000	0.038	0.306
-233.815	800.000	0.104	-0.377
-232.800	5.117	0.228	-0.165
-231.786	-200.000	-0.044	0.227
-230.771	-160.636	0.263	0.014
-229.757	148.532	-0.106	0.141
-228.742	-200.000	-0.062	0.317
-227.727	-21.598	0.271	0.163
-226.713	33.418	-0.217	0.186
-225.698	-69.836	-0.222	-0.084
-224.684	-44.888	-0.293	-0.144
-223.669	-82.722	0.135	-0.043
-222.655	14.037	-0.120	0.092
-221.640	-159.549	0.163	0.009
-220.625	7.561	-0.171	0.126
-219.611	106.664	0.224	0.262
-218.596	-126.859	0.199	0.029
-217.582	-200.000	-0.086	-0.384
-216.567	800.000	-0.015	0.051
-215.552	0.718	-0.046	0.032
-214.538	-155.959	0.195	-0.012
-213.523	87.388	0.124	-0.135
-212.509	-32.409	-0.313	-0.172
-211.494	-200.000	0.050	0.259
-210.479	-183.070	-0.408	-0.007
-209.465	-102.142	0.081	-0.019
-208.450	77.741	0.178	-0.187
-207.436	96.697	-0.133	0.151
-206.421	-105.453	0.253	-0.057
-205.406	-200.000	-0.039	-0.175
-204.392	-167.420	-0.263	0.010
-203.377	-17.078	-0.548	-0.341
-202.363	-174.380	-0.074	-0.002
-201.348	220.792	-0.040	-0.063
-200.333	-106.270	-0.089	-0.020
-199.319	-110.053	-0.206	0.043
-198.304	800.000	0.059	0.172
-197.290	-64.555	-0.293	0.117
-196.275	-195.656	-0.064	-0.000
-195.260	55.689	-0.156	-0.149
-194.246	-71.516	0.379	-0.140
-193.231	260.696	0.039	0.067
-192.217	-200.000	0.064	0.458
-191.202	-200.000	-0.001	0.040
-190.187	-200.000	-0.034	0.310
-189.173	-200.000	0.058	-0.308
-188.158	351.967	-0.161	0.314
-187.144	639.672	-0.089	0.222
-186.129	-74.850	-0.353	0.125
-185.114	-200.000	0.140	0.000
-184.100	-5.278	0.095	-0.064
-183.085	-101.569	0.362	0.087
-182.071	-90.991	0.343	0.097
-181.056	380.057	0.148	0.299
-180.042	-141.537	-0.173	-0.017
-179.027	-74.168	-0.378	-0.135
-178.012	-23.563	0.257	0.152
-176.998	800.000	-0.069	0.201
-175.983	-128.888	0.328	-0.045
-174.969	143.449	-0.152	-0.199
-173.954	-200.000	-0.042	0.333
-172.939	89.628	-0.318	0.349
-171.925	800.000	-0.047	0.139
-170.910	-135.104	0.202	0.024
-169.896	-105.969	0.188	-0.042
-168.881	82.746	0.200	-0.214
-167.866	292.969	-0.075	0.135
-166.852	-134.600	-0.379	0.045
-165.837	-200.000	-0.002	0.264
-164.823	-45.755	-0.288	0.140
-163.808	-39.050	0.443	0.229
-162.793	800.000	-0.066	0.181
-161.779	-200.000	0.035	0.473
-160.764	50.004	-0.180	-0.167
-159.750	-12.188	0.239	0.154
-158.735	800.000	-0.058	0.247
-157.720	46.496	0.158	0.144
-156.706	-99.455	0.412	-0.102
-155.691	521.218	-0.121	-0.279
-154.677	303.983	-0.177	-0.322
-153.662	-155.700	-0.282	0.018
-152.647	800.000	-0.062	-0.258
-151.633	-36.029	-0.119	0.063
-150.618	800.000	0.039	0.120
-149.604	800.000	-0.076	0.276
-148.589	-100.916	-0.210	0.051
-147.574	789.083	0.114	-0.309
-146.560	-39.623	0.195	-0.100
-145.545	-31.477	0.187	0.103
-144.531	-163.838	-0.435	-0.020
-143.516	102.171	0.063	0.072
-142.502	55.696	0.414	0.394
-141.487	-84.644	-0.259	-0.080
-140.472	-112.062	0.179	0.036
-139.458	-200.000	-0.057	0.351
-138.443	-200.000	0.004	0.331
-137.429	-200.000	0.023	-0.179
-136.414	-59.647	0.371	0.157
-135.399	8.076	0.161	-0.119
-134.385	318.968	-0.079	-0.147
-133.370	-200.000	0.011	0.447
-132.356	-200.000	0.005	0.154
-131.341	217.965	-0.266	-0.417
-130.326	155.820	0.088	0.119
-129.312	-200.000	-0.016	0.234
-128.297	800.000	0.020	0.073
-127.283	312.945	-0.069	0.128
-126.268	69.347	-0.060	-0.061
-125.253	-200.000	-0.001	-0.035
-124.239	-14.938	0.206	-0.130
-123.224	471.371	0.092	0.204
-122.210	-200.000	0.006	0.142
-121.195	-0.539	0.191	-0.133
-120.180	800.000	0.039	-0.155
-119.166	8.001	0.151	-0.111
-118.151	-102.050	0.233	-0.055
-117.137	208.400	0.069	0.106
-116.122	-200.000	0.004	0.278
-115.107	-170.115	0.098	-0.003
-114.093	-76.067	0.137	0.048
-113.078	-76.403	-0.113	-0.039
-112.064	168.719	0.214	0.300
-111.049	85.839	-0.129	-0.140
-110.034	-108.424	0.217	-0.046
-109.020	-74.694	-0.039	0.014
-108.005	-200.000	-0.042	0.317
-106.991	-109.000	-0.324	-0.068
-105.976	-154.483	0.214	-0.014
-104.962	800.000	0.022	0.064
-103.947	-200.000	-0.074	0.415
-102.932	-200.000	0.022	0.158
-101.918	-44.982	-0.244	0.119
-100.903	-200.000	0.042	-0.439
-99.889	-121.783	0.286	0.046
-98.874	71.652	0.047	-0.048
-97.859	109.897	-0.120	0.142
-96.845	800.000	-0.077	0.298
-95.830	184.194	0.135	0.196
-94.816	800.000	0.031	-0.106
-93.801	266.642	0.076	-0.130
-92.786	-200.000	-0.036	-0.228
-91.772	231.248	0.093	-0.150
-90.757	-200.000	-0.054	-0.288
-89.743	542.397	-0.032	0.074
-88.728	-200.000	0.005	-0.042
-87.713	112.493	-0.286	-0.340
-86.699	-123.644	-0.374	0.058
-85.684	202.338	0.053	-0.081
-84.670	142.968	-0.153	-0.199
-83.655	41.459	0.074	-0.066
-82.640	800.000	0.090	-0.335
-81.626	1.704	0.062	0.044
-80.611	-200.000	0.031	0.237
-79.597	-200.000	0.023	0.196
-78.582	-135.125	0.296	0.035
-77.567	245.982	0.065	-0.107
-76.553	-200.000	0.041	0.218
-75.538	-69.727	-0.260	0.097
-74.524	-82.584	-0.180	-0.057
-73.509	-56.246	-0.112	0.049
-72.494	-92.592	0.278	-0.076
-71.480	-79.289	-0.394	0.131
-70.465	-45.875	0.359	0.174
-69.451	-54.522	0.222	0.098
-68.436	-200.000	0.044	-0.198
-67.422	-94.385	0.190	0.051
-66.407	-102.370	-0.324	0.076
-65.392	-200.000	-0.019	-0.118
-64.378	677.242	0.158	-0.403
-63.363	-145.379	0.094	-0.008
-62.349	-200.000	-0.001	0.106
-61.334	56.738	-0.896	-0.855
-60.319	32.814	0.549	0.466
-59.305	-200.000	-0.145	-1.159
-58.290	-200.000	0.304	1.597
-57.276	513.275	0.807	1.844
-56.261	-200.000	112.388	636.140
-55.246	472.002	1500.440	3310.351
-54.232	147.854	2667.363	3524.083
-53.217	104.160	2152.589	2481.019
-52.203	38.924	1604.654	1404.869
-51.188	30.946	1351.207	1134.598
-50.173	28.024	1313.552	1085.616
-49.159	55.705	1368.241	1298.985
-48.144	54.353	1383.450	1305.216
-47.130	31.300	1339.269	1126.534
-46.115	27.768	1321.869	1090.784
-45.100	27.596	1316.619	1085.387
-44.086	27.537	1314.486	1083.232
-43.071	27.570	1312.155	1081.464
-42.057	27.525	1309.911	1079.305
-41.042	27.583	1308.373	1078.340
-40.027	27.548	1307.170	1077.095
-39.013	27.616	1304.804	1075.505
-37.998	27.598	1302.786	1073.693
-36.984	27.656	1301.184	1072.672
-35.969	27.710	1299.708	1071.734
-34.954	27.751	1297.736	1070.304
-33.940	27.773	1296.317	1069.218
-32.925	27.794	1295.414	1068.552
-31.911	27.842	1293.466	1067.187
-30.896	27.729	1292.284	1065.507
-29.881	27.973	1290.924	1065.770
-28.867	27.825	1290.031	1064.128
-27.852	27.863	1287.824	1062.482
-26.838	27.826	1287.035	1061.576
-25.823	27.802	1285.246	1059.920
-24.809	27.848	1283.861	1059.000
-23.794	27.846	1282.944	1058.192
-22.779	27.851	1281.220	1056.757
-21.765	27.941	1280.141	1056.346
-20.750	27.792	1279.029	1054.522
-19.736	27.802	1277.441	1053.234
-18.721	27.687	1275.834	1051.202
-17.706	27.625	1275.124	1050.217
-16.692	27.776	1274.010	1050.129
-15.677	27.767	1273.054	1049.246
-14.663	27.757	1271.890	1048.186
-13.648	27.740	1270.585	1046.973
-12.633	27.623	1269.947	1045.737
-11.619	27.745	1268.874	1045.511
-10.604	27.765	1267.635	1044.564
-9.590	27.683	1267.348	1043.816
-8.575	27.670	1266.337	1042.868
-7.560	27.702	1265.385	1042.225
-6.546	27.637	1264.624	1041.181
-5.531	27.722	1263.727	1040.886
-4.517	27.738	1262.952	1040.302
-3.502	27.732	1261.879	1039.340
-2.487	27.661	1260.864	1038.060
-1.473	27.573	1256.916	1034.267
-0.458	26.085	1241.242	1012.982
0.556	21.269	1225.012	976.549
1.571	17.624	1231.406	961.038
2.586	16.916	1246.073	968.355
3.600	17.103	1235.278	960.939
4.615	15.504	1168.093	900.034
5.629	12.248	1101.500	832.164
6.644	10.659	1084.523	811.330
7.659	10.554	1081.996	808.844
8.673	10.327	1081.277	807.102
9.688	10.421	1079.794	806.392
10.702	10.648	1077.479	805.718
11.717	12.546	1079.476	816.573
12.731	15.777	1084.031	836.029
13.746	17.559	1086.193	846.485
14.761	17.510	1085.590	845.699
15.775	16.599	1083.322	839.336
16.790	15.547	1081.295	832.481
17.804	14.797	1080.022	827.713
18.819	14.317	1078.606	824.180
19.834	14.085	1077.774	822.327
20.848	13.868	1076.333	820.080
21.863	13.626	1075.991	818.554
22.877	13.476	1075.218	817.150
23.892	13.500	1074.098	816.347
24.907	13.625	1073.302	816.283
25.921	13.543	1071.972	814.800
26.936	13.653	1070.913	814.461
27.950	13.607	1069.536	813.116
28.965	13.538	1068.537	811.945
29.980	13.705	1066.850	811.410
30.994	13.643	1065.730	810.182
32.009	13.739	1064.714	809.807
33.023	13.760	1063.222	808.703
34.038	13.639	1062.364	807.391
35.053	13.651	1061.724	806.893
36.067	13.564	1060.936	805.796
37.082	13.852	1059.515	806.048
38.096	13.638	1059.246	804.730
39.111	13.656	1058.465	804.153
40.126	13.671	1056.707	802.818
41.140	13.442	1055.653	800.842
42.155	13.423	1054.578	799.862
43.169	13.429	1053.479	798.989
44.184	13.364	1052.772	798.064
45.199	13.449	1051.455	797.408
46.213	13.630	1049.640	796.829
47.228	13.597	1049.162	796.240
48.242	13.475	1048.222	794.871
49.257	13.691	1046.770	794.732
50.271	13.625	1046.264	793.962
51.286	13.727	1045.609	793.886
52.301	13.637	1044.597	792.613
53.315	13.647	1043.253	791.574
54.330	13.568	1042.342	790.433
55.344	13.492	1041.715	789.527
56.359	13.568	1040.829	789.145
57.374	13.491	1039.962	788.055
58.388	13.534	1038.810	787.317
59.403	13.454	1037.726	786.043
60.417	13.395	1037.410	785.455
61.432	13.441	1036.257	784.729
62.447	13.439	1035.321	783.942
63.461	13.416	1034.744	783.329
64.476	13.443	1033.726	782.614
65.490	13.440	1032.864	781.880
66.505	13.396	1032.261	781.144
67.520	13.348	1031.902	780.578
68.534	13.455	1031.062	780.379
69.549	13.241	1030.655	778.994
70.563	13.204	1029.761	778.076
71.578	13.333	1028.383	777.572
72.593	13.355	1027.443	776.897
73.607	13.296	1027.046	776.249
74.622	13.209	1026.455	775.326
75.636	13.310	1025.662	775.129
76.651	13.325	1025.046	774.668
77.666	13.324	1024.566	774.232
78.680	13.268	1023.734	773.274
79.695	13.412	1022.664	773.066
80.709	13.482	1022.487	773.194
81.724	13.460	1021.625	772.371
82.739	13.526	1020.801	771.988
83.753	13.555	1020.232	771.622
84.768	13.582	1019.371	771.030
85.782	13.704	1018.149	770.603
86.797	13.698	1017.391	769.934
87.812	13.693	1016.586	769.234
88.826	13.645	1015.502	768.125
89.841	13.676	1014.687	767.581
90.855	13.668	1013.718	766.742
91.870	13.692	1013.044	766.276
92.884	13.772	1011.930	765.737
93.899	13.729	1011.104	764.845
94.914	13.728	1010.487	764.307
95.928	13.950	1009.338	764.389
96.943	13.696	1008.854	762.787
97.957	13.690	1007.695	761.817
98.972	13.661	1007.042	761.125
99.987	13.660	1006.846	760.901
101.001	13.677	1005.203	759.671
102.016	13.654	1004.528	758.988
103.030	13.715	1003.477	758.408
104.045	13.750	1002.487	757.749
105.060	13.662	1001.666	756.663
106.074	13.627	1000.600	755.630
107.089	13.489	999.886	754.397
108.103	13.492	998.916	753.611
109.118	13.457	997.840	752.572
110.133	13.499	997.011	752.071
111.147	13.461	996.202	751.222
112.162	13.494	995.567	750.829
113.176	13.661	994.682	750.852
114.191	13.642	993.847	750.068
115.206	13.634	992.951	749.287
116.220	13.598	992.351	748.605
117.235	13.670	991.137	747.951
118.249	13.623	990.816	747.427
119.264	13.475	989.976	746.062
120.279	13.431	989.242	745.245
121.293	13.498	988.219	744.712
122.308	13.533	987.296	744.106
123.322	13.374	986.266	742.552
124.337	13.497	985.409	742.390
125.352	13.467	984.176	741.264
126.366	13.565	982.811	740.604
127.381	13.559	982.318	740.144
128.395	13.367	981.452	738.566
129.410	13.523	980.412	738.415
130.424	13.583	979.431	737.878
131.439	13.580	979.170	737.601
132.454	13.489	978.173	736.383
133.468	13.695	976.952	736.314
134.483	13.678	975.785	735.294
135.497	13.675	975.566	735.047
136.512	13.602	974.448	733.820
137.527	13.463	973.869	732.701
138.541	13.575	973.263	732.675
139.556	13.606	972.879	732.461
140.570	13.765	971.775	732.267
141.585	13.800	970.964	731.746
142.600	13.821	970.098	731.121
143.614	13.858	969.381	730.677
144.629	13.884	968.270	729.888
145.643	13.762	967.542	728.740
146.658	13.733	966.575	727.821
147.673	13.716	965.481	726.858
148.687	13.766	964.930	726.596
149.702	13.648	963.907	725.245
150.716	13.798	963.013	725.166
151.731	13.670	962.348	724.042
152.746	13.826	961.449	723.980
153.760	13.714	961.377	723.372
154.775	13.845	960.660	723.343
155.789	13.903	959.535	722.683
156.804	13.869	958.723	721.859
157.819	13.893	958.552	721.773
158.833	14.165	957.088	721.786
159.848	13.925	957.143	720.724
160.862	13.961	955.588	719.642
161.877	13.785	954.827	718.244
162.892	13.783	954.010	717.559
163.906	13.864	952.915	717.023
164.921	13.861	951.751	716.070
165.935	13.906	951.157	715.750
166.950	13.812	950.438	714.743
167.964	13.901	949.576	714.416
168.979	13.955	948.880	714.059
169.994	13.859	947.961	712.894
171.008	13.958	947.608	712.988
172.023	13.948	946.614	712.137
173.037	14.032	946.085	712.034
174.052	13.940	945.343	711.019
175.067	13.970	944.447	710.412
176.081	13.891	944.100	709.747
177.096	13.775	943.787	708.956
178.110	14.047	942.643	709.192
179.125	13.909	942.016	708.072
180.140	13.980	941.910	708.233
181.154	14.089	941.525	708.345
182.169	14.080	940.591	707.542
183.183	14.273	939.689	707.621
184.198	14.143	939.494	706.858
185.213	14.158	938.781	706.321
186.227	14.421	937.393	706.331
187.242	14.238	937.205	705.349
188.256	14.321	936.451	705.073
189.271	14.160	935.823	703.854
190.286	14.247	934.679	703.302
191.300	14.027	934.218	701.962
192.315	13.915	933.868	701.164
193.329	14.012	933.148	700.972
194.344	14.078	932.145	700.435
195.359	14.123	931.963	700.423
196.373	14.185	931.572	700.328
197.388	14.284	931.251	700.442
198.402	14.282	930.452	699.769
199.417	14.421	929.560	699.623
200.432	14.485	929.207	699.564
201.446	14.437	928.975	699.123
202.461	14.442	928.494	698.724
203.475	14.644	927.254	698.570
204.490	14.358	926.471	696.726
205.504	14.383	925.768	696.237
206.519	14.309	925.434	695.618
207.534	14.416	924.481	695.288
208.548	14.397	923.959	694.753
209.563	14.350	923.376	694.057
210.577	14.459	922.643	693.898
211.592	14.549	921.926	693.671
212.607	14.577	921.372	693.311
213.621	14.564	920.240	692.341
214.636	14.508	919.546	691.529
215.650	14.629	919.240	691.738
216.665	14.664	918.345	691.149
217.680	14.608	917.488	690.209
218.694	14.623	916.813	689.705
219.709	14.652	916.624	689.620
220.723	14.598	915.956	688.834
221.738	14.630	914.987	688.177
222.753	14.652	914.716	688.000
223.767	14.631	913.822	687.181
224.782	14.692	913.538	687.158
225.796	14.837	912.764	687.111
226.811	14.692	911.869	685.783
227.826	14.799	911.198	685.654
228.840	14.781	910.223	684.788
229.855	14.849	909.367	684.359
230.869	14.838	908.803	683.830
231.884	14.779	908.233	683.101
232.899	14.662	907.881	682.298
233.913	14.633	906.917	681.393
234.928	14.623	906.220	680.768
235.942	14.798	905.634	680.983
236.957	14.731	905.078	680.232
237.972	14.765	904.337	679.751
238.986	14.605	903.739	678.592
240.001	14.757	902.797	678.441
241.015	14.852	902.147	678.281
242.030	14.745	901.939	677.626
243.045	14.892	901.092	677.530
244.059	14.818	900.937	677.053
245.074	14.827	900.283	676.538
246.088	14.984	899.282	676.358
247.103	14.872	898.827	675.507
248.117	14.893	898.580	675.345
249.132	15.133	897.471	675.418
250.147	15.190	896.868	675.135
251.161	15.275	896.206	674.920
252.176	15.156	895.873	674.129
253.190	15.311	894.859	673.931
254.205	15.335	894.445	673.654
255.220	15.336	893.641	672.993
256.234	15.236	893.320	672.293
257.249	15.285	892.509	671.818
258.263	15.384	891.605	671.474
259.278	15.236	891.044	670.401
260.293	15.310	890.610	670.311
261.307	15.444	889.695	670.099
262.322	15.531	888.842	669.742
263.336	15.436	888.331	668.921
264.351	15.469	887.725	668.534
265.366	15.351	887.453	667.802
266.380	15.334	886.821	667.200
267.395	15.429	885.949	666.864
268.409	15.368	884.815	665.708
269.424	15.546	884.084	665.805
270.439	15.447	883.571	664.969
271.453	15.493	882.612	664.368
272.468	15.365	882.212	663.503
273.482	15.457	881.482	663.259
274.497	15.330	881.431	662.657
275.512	15.530	880.450	662.652
276.526	15.607	880.143	662.667
277.541	15.516	879.447	661.724
278.555	15.580	879.033	661.605
279.570	15.579	878.436	661.097
280.585	15.636	877.387	660.471
281.599	15.611	876.654	659.761
282.614	15.549	875.993	658.966
283.628	15.708	875.218	658.944
284.643	15.542	875.381	658.361
285.657	15.550	874.598	657.744
286.672	15.696	873.735	657.606
287.687	15.591	873.071	656.641
288.701	15.685	872.559	656.562
289.716	15.762	871.801	656.235
290.730	15.856	871.261	656.136
291.745	15.768	870.951	655.502
292.760	15.769	870.279	654.942
293.774	15.773	869.824	654.559
294.789	15.776	868.927	653.838
295.803	15.735	867.986	652.910
296.818	15.796	867.353	652.614
297.833	15.754	866.659	651.873
298.847	15.799	866.414	651.804
299.862	15.836	865.995	651.573
300.876	15.879	865.245	651.119
301.891	15.874	864.414	650.416
302.906	16.009	864.190	650.712
303.920	16.176	863.468	650.755
304.935	16.035	862.622	649.517
305.949	16.124	862.377	649.616
306.964	15.930	861.825	648.398
307.979	16.097	861.117	648.451
308.993	16.117	860.674	648.133
310.008	16.182	859.689	647.586
311.022	16.263	859.077	647.379
312.037	15.923	859.018	645.971
313.052	15.960	858.442	645.623
314.066	16.203	857.674	645.919
315.081	16.104	857.010	644.982
316.095	16.069	856.398	644.334
317.110	16.079	855.813	643.872
318.125	16.118	855.468	643.706
319.139	16.150	854.862	643.315
320.154	16.139	854.449	642.907
321.168	16.113	854.150	642.523
322.183	16.160	853.562	642.202
323.197	16.161	853.332	641.978
324.212	16.128	852.516	641.180
325.227	16.287	851.755	641.157
326.241	16.182	851.249	640.318
327.256	16.166	850.644	639.750
328.270	16.192	850.078	639.365
329.285	16.183	849.466	638.813
330.300	16.211	848.940	638.465
331.314	16.185	848.568	638.031
332.329	16.232	848.272	637.930
333.343	16.214	847.738	637.405
334.358	16.197	847.474	637.086
335.373	16.239	846.897	636.754
336.387	16.341	846.848	637.045
337.402	16.325	846.365	636.566
338.416	16.547	845.864	636.967
339.431	16.375	845.731	636.166
340.446	16.562	844.917	636.199
341.460	16.558	844.673	635.945
342.475	16.536	844.088	635.364
343.489	16.586	843.926	635.375
344.504	16.715	843.373	635.385
345.519	16.686	842.629	634.662
346.533	16.733	842.086	634.371
347.548	16.530	842.112	633.573
348.562	16.646	841.030	633.138
349.577	16.626	840.443	632.564
350.592	16.626	839.747	631.985
351.606	16.386	839.326	630.716
352.621	16.573	838.513	630.749
353.635	16.550	838.167	630.345
354.650	16.699	837.015	629.979
355.665	16.617	836.903	629.533
356.679	16.827	836.054	629.620
357.694	16.804	835.335	628.937
358.708	16.836	834.649	628.485
359.723	16.782	834.152	627.852
360.738	16.677	833.465	626.891
361.752	16.795	833.048	626.960
362.767	16.809	832.397	626.465
363.781	16.866	832.098	626.395
364.796	16.810	831.680	625.820
365.810	16.988	831.151	626.021
366.825	16.998	830.930	625.839
367.840	17.042	830.385	625.533
368.854	17.069	829.928	625.235
369.869	16.997	829.624	624.684
370.883	17.035	828.743	624.106
371.898	16.888	828.904	623.629
372.913	16.932	828.502	623.434
373.927	16.993	827.644	622.959
374.942	16.989	827.294	622.626
375.956	17.212	826.974	623.148
376.971	17.207	826.137	622.443
377.986	17.221	826.180	622.471
379.000	17.325	825.410	622.215
380.015	17.178	824.879	621.223
381.029	17.400	824.164	621.440
382.044	17.224	823.772	620.449
383.059	17.303	822.937	620.051
384.073	17.351	822.545	619.878
385.088	17.299	821.825	619.092
386.102	17.000	821.747	617.887
387.117	17.249	820.900	618.104
388.132	17.255	820.240	617.572
389.146	17.377	819.710	617.561
390.161	17.381	819.263	617.185
391.175	17.263	818.908	616.436
392.190	17.207	818.309	615.728
393.205	17.284	817.428	615.287
394.219	17.240	817.309	614.985
395.234	17.222	816.920	614.572
396.248	17.258	816.288	614.172
397.263	17.313	815.873	614.004
398.278	17.333	815.797	613.967
399.292	17.326	815.238	613.465
400.307	17.309	814.894	613.091
401.321	17.326	814.531	612.824
402.336	17.348	813.910	612.382
403.350	17.417	813.452	612.232
404.365	17.407	812.850	611.690
405.380	17.401	812.584	611.414
406.394	17.370	812.024	610.826
407.409	17.699	811.522	611.574
408.423	17.634	811.435	611.221
409.438	17.467	811.275	610.450
410.453	17.560	810.561	610.190
411.467	17.827	809.782	610.504
412.482	17.681	809.541	609.749
413.496	17.678	809.520	609.668
414.511	17.695	809.129	609.380
415.526	17.708	808.369	608.800
416.540	17.865	807.773	608.856
417.555	17.818	807.267	608.256
418.569	17.732	806.901	607.618
419.584	17.820	806.763	607.772
420.599	17.834	806.097	607.269
421.613	111.262	1294.902	1476.352
422.628	95.998	1366.092	1476.436
