DTS Sentinel unit serial number:	SN413079Multiplexer serial number:	ORYXHardware model number:	OX4-SRSoftware version number:	ORYX F/W v4.00 Oryx Data Collector v3.7.2.0data status	okinstallation	princeton_trtdifferential loss correction	single-endedforward channel	channel 1reverse channel	N/Adate	2019/09/13time	12:06:35forward acquisition time	60.00reverse acquisition time	0.00gamma	496.2192k internal	0.2310k external	0.2310temperature offset calibration	1.0165default loss term (dB/km)	0.3790temperature slope calibration	1.0000multiplexer offset coefficient	1.0000multiplexer slope coefficient	1.0000fibre end	0.00T internal ref (°C)	33.75T ext. ref 1 (°C)	4.60T ext. ref 2 (°C)	31.30length (m)	temperature (°C)	Stokes	anti-Stokes-747.200	-180.588	0.327	-0.007
-746.185	5.662	-0.271	-0.204
-745.171	63.534	-0.171	0.175
-744.156	-200.000	-0.010	-0.070
-743.142	800.000	0.076	0.301
-742.127	94.271	-0.129	0.149
-741.112	-16.570	0.153	0.098
-740.098	58.140	-0.215	-0.214
-739.083	-200.000	-0.056	0.255
-738.069	39.568	-0.179	0.163
-737.054	-200.000	0.023	0.219
-736.039	-200.000	0.009	-0.298
-735.025	57.437	-0.068	0.067
-734.010	-200.000	0.009	-0.128
-732.996	-9.704	-0.182	0.123
-731.981	-65.044	-0.135	-0.056
-730.966	-200.000	-0.012	-0.265
-729.952	-171.108	0.159	-0.005
-728.937	-110.533	0.126	0.026
-727.923	-143.638	-0.158	-0.015
-726.908	30.552	-0.168	-0.146
-725.894	65.023	0.051	0.052
-724.879	-63.682	-0.171	-0.071
-723.864	120.411	-0.052	0.066
-722.850	-83.202	-0.254	0.083
-721.835	-200.000	-0.014	-0.061
-720.821	-97.113	-0.402	-0.107
-719.806	-82.145	-0.181	0.060
-718.791	603.171	0.065	-0.165
-717.777	55.238	-0.041	0.041
-716.762	83.676	-0.217	-0.240
-715.748	174.372	-0.293	-0.430
-714.733	800.000	-0.025	-0.075
-713.718	170.287	0.101	0.147
-712.704	-46.458	0.393	0.196
-711.689	-82.986	-0.146	-0.048
-710.675	90.542	-0.104	0.118
-709.660	-118.616	-0.131	-0.023
-708.645	800.000	0.026	0.086
-707.631	-33.325	-0.061	-0.034
-706.616	-62.357	-0.058	0.024
-705.602	-32.623	-0.298	0.168
-704.587	26.425	-0.100	0.085
-703.572	-52.952	0.148	-0.069
-702.558	-72.298	-0.281	0.106
-701.543	-103.292	-0.120	-0.029
-700.529	328.172	-0.123	0.240
-699.514	37.023	0.057	0.051
-698.499	-50.491	-0.392	0.188
-697.485	-200.000	0.032	-0.161
-696.470	-200.000	0.015	-0.432
-695.456	251.065	-0.199	-0.342
-694.441	30.348	0.053	-0.046
-693.426	21.533	0.048	-0.039
-692.412	13.031	0.072	-0.056
-691.397	-44.743	-0.148	-0.075
-690.383	7.492	-0.134	-0.102
-689.368	36.651	0.063	-0.056
-688.354	-16.193	-0.019	0.012
-687.339	110.004	-0.153	-0.186
-686.324	189.060	-0.109	0.165
-685.310	-83.293	0.103	-0.034
-684.295	12.972	-0.206	0.161
-683.281	393.289	-0.065	-0.136
-682.266	-192.307	-0.404	-0.004
-681.251	50.489	-0.167	0.160
-680.237	-104.662	0.045	-0.010
-679.222	119.144	-0.153	0.191
-678.208	-46.302	-0.252	0.125
-677.193	106.533	0.090	-0.108
-676.178	-200.000	-0.017	0.320
-675.164	160.128	-0.257	-0.363
-674.149	-26.438	-0.156	0.093
-673.135	-200.000	-0.015	-0.388
-672.120	800.000	-0.065	0.254
-671.105	141.017	-0.134	-0.179
-670.091	800.000	0.025	0.095
-669.076	25.526	-0.220	-0.185
-668.062	-99.013	0.471	-0.121
-667.047	121.122	-0.104	-0.131
-666.032	653.894	-0.060	-0.157
-665.018	132.290	-0.144	-0.188
-664.003	70.394	0.176	-0.184
-662.989	-200.000	-0.009	0.080
-661.974	470.394	0.103	-0.235
-660.959	-44.946	-0.222	-0.112
-659.945	28.690	0.298	0.255
-658.930	-153.546	0.184	-0.013
-657.916	524.319	0.238	-0.567
-656.901	-143.851	-0.071	-0.007
-655.886	-130.928	-0.041	0.005
-654.872	-71.442	-0.412	-0.156
-653.857	455.091	0.046	0.104
-652.843	-7.444	-0.313	-0.214
-651.828	539.347	0.056	-0.136
-650.814	-77.844	0.067	0.023
-649.799	-83.298	-0.266	0.086
-648.784	-34.882	0.333	0.184
-647.770	-200.000	0.077	0.344
-646.755	376.713	-0.050	-0.103
-645.741	62.253	0.435	0.439
-644.726	480.990	0.123	-0.281
-643.711	25.294	0.101	0.085
-642.697	-52.730	-0.111	0.052
-641.682	-172.033	-0.299	0.010
-640.668	283.957	0.102	0.186
-639.653	-200.000	-0.034	0.330
-638.638	59.991	0.109	-0.109
-637.624	36.909	-0.129	0.115
-636.609	-106.595	-0.139	-0.031
-635.595	-77.738	0.196	0.069
-634.580	800.000	0.016	-0.069
-633.565	46.530	0.279	-0.262
-632.551	-200.000	0.039	0.387
-631.536	-3.710	-0.181	-0.127
-630.522	800.000	0.030	0.093
-629.507	17.195	-0.204	-0.163
-628.492	-49.380	-0.124	-0.060
-627.478	-42.773	-0.155	0.080
-626.463	106.130	0.137	0.164
-625.449	503.669	-0.076	-0.177
-624.434	-110.276	-0.074	0.016
-623.419	-86.729	-0.287	0.089
-622.405	800.000	0.100	0.402
-621.390	293.937	0.239	-0.441
-620.376	15.401	0.357	0.283
-619.361	724.482	0.073	-0.196
-618.346	298.683	-0.136	-0.253
-617.332	31.406	0.036	0.031
-616.317	-120.162	-0.292	0.050
-615.303	496.544	-0.138	-0.320
-614.288	487.413	-0.101	0.232
-613.273	-200.000	-0.049	-0.272
-612.259	2.551	-0.171	0.125
-611.244	800.000	0.129	-0.462
-610.230	800.000	0.077	0.242
-609.215	-108.267	0.241	0.053
-608.201	-64.229	-0.209	-0.086
-607.186	1.429	0.229	-0.166
-606.171	-90.170	-0.427	0.125
-605.157	724.912	0.026	-0.069
-604.142	800.000	0.052	-0.206
-603.128	-200.000	0.037	-0.273
-602.113	1.309	0.148	-0.107
-601.098	166.577	0.168	-0.241
-600.084	97.063	0.301	-0.348
-599.069	-200.000	-0.021	-0.169
-598.055	-2.926	0.301	0.212
-597.040	-80.308	0.119	-0.040
-596.025	213.300	0.059	-0.094
-595.011	800.000	-0.010	-0.031
-593.996	-148.906	0.199	0.016
-592.982	119.878	0.154	0.193
-591.967	241.174	0.050	-0.084
-590.952	90.068	-0.269	0.303
-589.938	114.128	0.119	0.146
-588.923	-200.000	0.001	0.124
-587.909	120.409	-0.193	-0.242
-586.894	347.706	0.121	0.240
-585.879	-200.000	0.026	-0.156
-584.865	56.144	0.127	0.124
-583.850	-200.000	-0.022	-0.155
-582.836	-162.620	-0.278	-0.014
-581.821	267.310	0.080	0.141
-580.806	-200.000	0.031	0.143
-579.792	-34.855	0.400	0.220
-578.777	32.240	0.028	-0.024
-577.763	287.237	-0.132	0.241
-576.748	267.559	0.071	0.125
-575.733	336.821	-0.212	0.415
-574.719	-91.107	0.233	0.067
-573.704	382.310	0.140	-0.290
-572.690	-200.000	-0.227	0.000
-571.675	-156.249	-0.105	-0.007
-570.661	-89.918	0.445	0.131
-569.646	-39.197	0.043	-0.023
-568.631	736.863	-0.035	0.094
-567.617	7.159	-0.181	0.136
-566.602	91.900	0.127	-0.144
-565.588	-200.000	0.032	-0.245
-564.573	-82.254	-0.046	-0.015
-563.558	109.652	-0.183	0.222
-562.544	-65.701	0.379	-0.153
-561.529	1.031	-0.058	-0.042
-560.515	-97.037	0.100	0.026
-559.500	173.181	-0.241	0.351
-558.485	800.000	0.132	-0.441
-557.471	65.814	-0.201	-0.205
-556.456	176.789	0.162	-0.238
-555.442	82.836	-0.288	-0.315
-554.427	-200.000	0.008	0.180
-553.412	-1.312	0.191	-0.136
-552.398	-200.000	0.028	-0.222
-551.383	-200.000	-0.007	0.153
-550.369	800.000	0.055	-0.194
-549.354	260.488	0.089	-0.155
-548.339	-128.793	-0.102	-0.014
-547.325	38.994	0.165	-0.149
-546.310	42.330	-0.303	-0.278
-545.296	43.953	0.136	0.126
-544.281	-101.413	-0.318	-0.078
-543.266	-200.000	0.037	0.174
-542.252	53.463	0.102	0.098
-541.237	-185.657	-0.177	0.003
-540.223	744.069	-0.053	-0.144
-539.208	336.672	-0.054	0.105
-538.193	-200.000	0.042	-0.225
-537.179	-132.609	-0.339	0.044
-536.164	6.809	0.061	-0.045
-535.150	-0.452	-0.181	0.129
-534.135	-104.738	0.209	0.048
-533.121	800.000	-0.085	-0.311
-532.106	-200.000	-0.027	0.186
-531.091	779.730	-0.030	0.082
-530.077	-64.357	0.312	0.128
-529.062	51.140	0.085	-0.081
-528.048	231.736	0.040	-0.066
-527.033	-200.000	0.006	0.184
-526.018	-88.666	0.247	-0.074
-525.004	182.387	0.077	0.114
-523.989	-200.000	-0.021	-0.339
-522.975	130.439	0.097	-0.126
-521.960	36.943	-0.122	0.108
-520.945	-130.350	0.163	-0.022
-519.931	301.050	0.114	0.211
-518.916	-73.947	-0.065	-0.024
-517.902	800.000	0.030	0.094
-516.887	141.133	-0.152	0.203
-515.872	-57.912	-0.105	0.046
-514.858	-7.158	0.121	0.083
-513.843	-44.141	0.142	0.072
-512.829	-74.285	-0.245	0.089
-511.814	-93.867	0.213	0.059
-510.799	-101.643	-0.269	-0.066
-509.785	-92.693	-0.396	0.111
-508.770	188.608	0.180	0.271
-507.756	104.581	-0.279	-0.330
-506.741	-128.615	0.166	-0.024
-505.726	-200.000	-0.016	-0.090
-504.712	440.773	0.045	0.100
-503.697	-110.536	0.180	-0.038
-502.683	-4.996	-0.169	-0.117
-501.668	347.371	-0.099	-0.195
-500.653	-200.000	-0.026	0.207
-499.639	-200.000	-0.030	0.239
-498.624	-21.982	0.045	0.028
-497.610	489.249	0.038	-0.088
-496.595	-200.000	0.006	-0.038
-495.581	185.268	-0.078	0.116
-494.566	-129.282	0.128	-0.018
-493.551	-200.000	-0.006	-0.070
-492.537	-200.000	-0.018	-0.161
-491.522	4.819	0.170	0.125
-490.508	-162.100	0.241	0.012
-489.493	59.288	-0.089	0.088
-488.478	-51.068	0.291	0.137
-487.464	-89.657	0.113	-0.033
-486.449	-200.000	0.002	-0.417
-485.435	1.589	-0.112	0.081
-484.420	800.000	0.058	-0.239
-483.405	11.518	0.295	-0.227
-482.391	644.070	-0.060	0.155
-481.376	70.610	-0.124	-0.129
-480.362	-41.033	0.099	0.051
-479.347	-110.811	0.259	0.054
-478.332	197.366	0.178	-0.274
-477.318	-71.753	-0.139	0.052
-476.303	10.602	0.240	-0.184
-475.289	-25.182	-0.153	0.091
-474.274	522.075	-0.074	0.174
-473.259	27.947	-0.124	0.105
-472.245	800.000	0.044	-0.175
-471.230	768.460	-0.073	-0.200
-470.216	81.344	-0.136	0.148
-469.201	88.605	-0.078	0.087
-468.186	435.539	-0.027	0.060
-467.172	-94.463	0.121	-0.033
-466.157	-71.702	-0.048	0.018
-465.143	652.078	0.067	-0.174
-464.128	732.819	0.039	-0.106
-463.113	-50.741	0.183	0.086
-462.099	43.435	0.334	-0.306
-461.084	-60.166	0.290	-0.124
-460.070	18.317	0.069	-0.056
-459.055	11.617	0.285	-0.219
-458.040	34.087	-0.269	-0.235
-457.026	-154.538	-0.151	-0.010
-456.011	800.000	-0.023	0.075
-454.997	65.401	-0.160	0.163
-453.982	162.155	0.062	-0.087
-452.968	193.153	0.128	-0.195
-451.953	123.619	-0.063	0.080
-450.938	267.733	-0.066	-0.117
-449.924	-200.000	0.004	-0.112
-448.909	-121.666	-0.294	-0.049
-447.895	225.816	0.086	0.140
-446.880	135.786	-0.140	0.183
-445.865	-16.144	0.313	-0.200
-444.851	200.980	0.040	-0.061
-443.836	-83.771	0.096	-0.031
-442.822	226.529	-0.165	-0.269
-441.807	153.099	0.089	0.123
-440.792	131.442	0.144	0.186
-439.778	83.061	-0.041	0.045
-438.763	-146.564	-0.538	0.047
-437.749	-200.000	-0.004	-0.030
-436.734	494.332	0.075	0.173
-435.719	-200.000	0.019	0.107
-434.705	-152.636	-0.016	0.001
-433.690	326.014	0.143	0.275
-432.676	-129.870	-0.137	0.019
-431.661	224.203	0.275	-0.446
-430.646	-26.827	-0.195	-0.114
-429.632	249.990	0.203	0.345
-428.617	-8.043	-0.149	-0.101
-427.603	-200.000	0.012	-0.144
-426.588	21.216	-0.106	0.087
-425.573	-18.145	0.172	-0.108
-424.559	312.876	0.099	0.187
-423.544	-172.284	0.134	-0.004
-422.530	800.000	-0.071	-0.204
-421.515	-25.501	-0.117	-0.069
-420.500	142.292	-0.139	0.185
-419.486	7.208	-0.220	-0.164
-418.471	-93.107	0.254	-0.071
-417.457	-52.450	-0.168	0.078
-416.442	641.603	-0.072	-0.184
-415.428	3.952	0.143	0.105
-414.413	800.000	0.068	-0.300
-413.398	-45.592	0.092	-0.046
-412.384	71.601	-0.144	0.150
-411.369	-200.000	-0.313	0.001
-410.355	145.376	-0.109	-0.146
-409.340	-107.996	-0.428	-0.093
-408.325	16.192	0.238	0.188
-407.311	-90.608	-0.120	0.035
-406.296	-200.000	0.023	0.166
-405.282	-73.196	0.145	0.053
-404.267	-146.697	0.185	0.016
-403.252	-33.323	-0.450	-0.249
-402.238	420.360	0.013	0.027
-401.223	377.097	-0.127	-0.260
-400.209	-200.000	-0.007	0.163
-399.194	-105.980	0.315	-0.071
-398.179	-1.462	-0.155	0.109
-397.165	383.286	-0.132	0.271
-396.150	-30.615	0.124	0.071
-395.136	102.430	-0.178	0.208
-394.121	30.610	-0.366	0.314
-393.106	-122.347	-0.168	-0.027
-392.092	-156.265	0.283	-0.018
-391.077	124.842	-0.109	0.137
-390.063	-49.153	-0.337	0.161
-389.048	800.000	-0.039	0.128
-388.033	-200.000	0.017	0.101
-387.019	-79.531	-0.165	-0.056
-386.004	-156.370	0.261	0.016
-384.990	-67.058	0.120	0.048
-383.975	-69.545	-0.180	0.069
-382.960	-118.141	0.240	-0.043
-381.946	-200.000	-0.008	0.073
-380.931	-86.668	0.087	0.027
-379.917	-200.000	-0.020	0.098
-378.902	155.712	-0.195	0.269
-377.888	-20.995	0.127	0.078
-376.873	163.323	0.218	0.306
-375.858	800.000	-0.055	0.185
-374.844	-9.373	-0.329	0.220
-373.829	540.829	0.155	0.370
-372.815	43.773	-0.320	0.293
-371.800	-200.000	-0.035	-0.205
-370.785	-137.395	0.127	0.014
-369.771	93.751	-0.154	-0.175
-368.756	294.045	-0.155	-0.284
-367.742	-200.000	-0.022	-0.140
-366.727	800.000	0.042	0.185
-365.712	411.717	-0.091	-0.194
-364.698	76.694	-0.142	0.151
-363.683	70.008	-0.216	0.223
-362.669	-27.888	0.223	-0.129
-361.654	-200.000	0.027	-0.282
-360.639	800.000	0.048	-0.191
-359.625	-200.000	0.001	-0.205
-358.610	108.359	-0.337	-0.402
-357.596	-89.449	0.056	-0.016
-356.581	-200.000	0.031	0.218
-355.566	-200.000	0.011	0.433
-354.552	225.125	0.092	0.149
-353.537	-200.000	-0.054	0.275
-352.523	800.000	-0.043	0.174
-351.508	-200.000	0.035	0.223
-350.493	-200.000	-0.022	-0.204
-349.479	800.000	0.118	0.396
-348.464	547.788	-0.108	-0.258
-347.450	-8.091	0.324	0.218
-346.435	-200.000	-0.000	0.240
-345.420	-54.613	0.344	-0.155
-344.406	-19.406	0.397	0.246
-343.391	184.562	0.172	-0.255
-342.377	131.219	-0.126	-0.162
-341.362	27.842	-0.340	-0.286
-340.348	-106.691	-0.295	0.066
-339.333	-200.000	0.012	-0.083
-338.318	10.159	0.105	0.080
-337.304	-4.637	-0.176	-0.121
-336.289	-195.877	0.315	0.002
-335.275	-200.000	-0.032	-0.196
-334.260	237.576	0.084	-0.139
-333.245	87.667	0.125	0.138
-332.231	212.652	0.070	0.111
-331.216	143.733	0.038	-0.051
-330.202	-200.000	0.025	0.129
-329.187	143.581	0.074	0.099
-328.172	27.469	0.170	0.143
-327.158	-61.490	-0.225	0.094
-326.143	131.358	0.097	-0.125
-325.129	429.834	0.146	0.314
-324.114	321.435	0.027	-0.051
-323.099	19.766	-0.158	-0.127
-322.085	-87.475	-0.203	0.061
-321.070	297.541	0.118	0.216
-320.056	800.000	0.110	0.307
-319.041	406.820	-0.032	-0.067
-318.026	292.885	0.114	0.207
-317.012	530.888	-0.129	0.305
-315.997	-178.196	-0.182	-0.004
-314.983	-65.906	-0.106	0.042
-313.968	-16.717	-0.245	-0.155
-312.953	-74.767	-0.027	0.010
-311.939	-89.892	0.254	-0.074
-310.924	-145.450	-0.322	-0.029
-309.910	508.102	0.087	0.203
-308.895	-60.006	0.137	-0.059
-307.880	-134.244	-0.249	0.031
-306.866	-160.574	-0.234	-0.012
-305.851	500.493	0.047	-0.109
-304.837	-200.000	0.024	0.137
-303.822	261.189	0.118	0.204
-302.807	-159.986	-0.327	-0.018
-301.793	136.019	0.069	0.090
-300.778	14.117	-0.043	-0.034
-299.764	-29.099	-0.267	-0.153
-298.749	-63.966	0.268	-0.109
-297.735	-134.589	0.360	-0.044
-296.720	-95.338	-0.080	-0.021
-295.705	67.012	0.122	0.124
-294.691	-161.996	-0.165	-0.008
-293.676	-5.679	0.152	-0.104
-292.662	-107.881	-0.194	-0.042
-291.647	-73.385	-0.099	-0.036
-290.632	800.000	0.086	-0.306
-289.618	-118.229	0.178	-0.032
-288.603	-200.000	-0.019	0.159
-287.589	-124.002	0.431	0.068
-286.574	-200.000	0.054	-0.361
-285.559	596.252	0.026	0.063
-284.545	-200.000	0.038	0.172
-283.530	-20.242	-0.044	0.027
-282.516	800.000	-0.041	0.131
-281.501	315.451	0.056	-0.106
-280.486	6.604	0.385	0.285
-279.472	800.000	0.071	0.223
-278.457	-200.000	0.014	-0.112
-277.443	800.000	-0.015	0.058
-276.428	800.000	-0.062	0.197
-275.413	-125.252	-0.155	0.024
-274.399	-116.993	-0.083	0.015
-273.384	183.698	-0.070	0.103
-272.370	-165.065	-0.107	0.005
-271.355	-65.777	0.179	-0.071
-270.340	-19.805	-0.037	-0.023
-269.326	-130.441	0.132	-0.018
-268.311	-31.080	-0.194	0.109
-267.297	288.368	-0.141	-0.255
-266.282	328.833	-0.164	0.314
-265.267	-200.000	0.049	0.245
-264.253	-200.000	-0.052	0.291
-263.238	-200.000	-0.031	-0.247
-262.224	-109.794	0.364	0.076
-261.209	-200.000	0.036	0.251
-260.195	-141.903	0.197	0.020
-259.180	525.316	0.070	0.163
-258.165	-200.000	-0.009	-0.479
-257.151	-171.198	0.146	0.005
-256.136	-27.893	-0.215	0.124
-255.122	190.687	-0.154	0.231
-254.107	-110.629	0.168	-0.035
-253.092	-200.000	0.040	0.220
-252.078	21.782	-0.256	0.208
-251.063	-20.055	-0.318	-0.196
-250.049	-200.000	0.077	-0.380
-249.034	-25.354	0.194	0.114
-248.019	195.323	0.059	0.090
-247.005	-47.640	0.203	-0.098
-245.990	-200.000	-0.000	-0.076
-244.976	800.000	-0.101	-0.429
-243.961	-16.421	0.056	-0.036
-242.946	351.611	0.032	-0.064
-241.932	-88.896	-0.321	0.095
-240.917	-120.574	-0.258	-0.043
-239.903	-31.136	0.178	-0.100
-238.888	30.679	-0.149	-0.127
-237.873	459.949	-0.095	-0.212
-236.859	-113.387	-0.121	-0.024
-235.844	1.654	0.088	0.063
-234.830	43.849	0.125	-0.114
-233.815	-200.000	-0.027	0.179
-232.800	51.049	0.253	-0.238
-231.786	-126.565	-0.033	-0.005
-230.771	-200.000	-0.025	-0.114
-229.757	460.920	0.071	0.156
-228.742	-15.636	-0.262	-0.166
-227.727	-200.000	-0.026	-0.267
-226.713	-78.443	0.313	-0.107
-225.698	-112.735	0.102	-0.020
-224.684	-122.462	-0.115	-0.019
-223.669	-200.000	0.032	-0.272
-222.655	181.351	0.068	-0.100
-221.640	-200.000	0.003	0.016
-220.625	-114.140	-0.338	-0.065
-219.611	371.545	-0.042	-0.085
-218.596	800.000	-0.074	-0.274
-217.582	46.387	-0.151	0.139
-216.567	60.153	0.257	-0.253
-215.552	-200.000	0.017	0.310
-214.538	-77.322	-0.124	-0.043
-213.523	-26.667	0.233	-0.136
-212.509	81.425	-0.044	-0.048
-211.494	-145.674	-0.135	0.012
-210.479	-200.000	0.023	-0.195
-209.465	-59.644	0.198	-0.084
-208.450	-52.047	-0.138	-0.064
-207.436	249.462	-0.144	0.242
-206.421	-200.000	0.026	0.231
-205.406	36.349	-0.173	-0.152
-204.392	-13.967	0.220	0.141
-203.377	54.570	-0.370	0.355
-202.363	-130.520	-0.105	-0.014
-201.348	213.313	-0.097	0.152
-200.333	151.545	0.077	0.104
-199.319	800.000	-0.066	0.187
-198.304	283.834	0.105	0.188
-197.290	42.923	-0.148	-0.134
-196.275	135.621	0.210	-0.271
-195.260	-200.000	-0.037	-0.393
-194.246	45.883	-0.271	-0.250
-193.231	-22.204	0.237	0.143
-192.217	-200.000	-0.066	0.520
-191.202	-66.357	0.133	0.052
-190.187	-200.000	-0.022	-0.330
-189.173	24.162	-0.108	0.089
-188.158	-200.000	-0.010	-0.176
-187.144	-200.000	0.003	-0.321
-186.129	650.743	0.047	-0.120
-185.114	-50.599	-0.102	-0.048
-184.100	36.836	0.100	0.088
-183.085	800.000	0.042	-0.179
-182.071	800.000	-0.028	-0.080
-181.056	-200.000	0.009	0.135
-180.042	152.494	-0.050	0.068
-179.027	-117.790	0.353	-0.063
-178.012	22.204	0.201	0.163
-176.998	-200.000	-0.014	-0.153
-175.983	220.812	-0.254	-0.404
-174.969	800.000	0.053	-0.220
-173.954	564.079	-0.108	-0.260
-172.939	-26.148	0.202	0.118
-171.925	-34.494	-0.154	-0.084
-170.910	148.575	0.180	0.241
-169.896	146.059	-0.119	0.158
-168.881	306.670	-0.125	0.232
-167.866	20.396	-0.186	-0.149
-166.852	169.128	0.121	0.172
-165.837	519.078	-0.084	0.195
-164.823	30.950	0.176	0.150
-163.808	125.114	-0.067	0.083
-162.793	-35.968	0.159	-0.086
-161.779	-117.080	-0.122	0.022
-160.764	-200.000	0.018	0.255
-159.750	195.235	-0.235	0.355
-158.735	-67.781	-0.384	-0.149
-157.720	224.046	0.127	-0.204
-156.706	-200.000	-0.065	-0.367
-155.691	800.000	0.084	-0.305
-154.677	-200.000	-0.025	-0.133
-153.662	-105.913	-0.114	-0.026
-152.647	-56.489	-0.050	0.022
-151.633	109.261	-0.109	-0.129
-150.618	80.382	0.111	0.118
-149.604	-200.000	-0.011	0.303
-148.589	800.000	0.144	0.449
-147.574	800.000	-0.063	-0.206
-146.560	-128.863	0.306	0.043
-145.545	59.733	-0.208	-0.204
-144.531	36.372	-0.086	0.076
-143.516	56.740	0.063	-0.061
-142.502	241.904	-0.174	0.288
-141.487	177.994	0.215	0.311
-140.472	-172.654	0.224	0.007
-139.458	107.161	0.290	-0.341
-138.443	162.936	0.179	-0.250
-137.429	73.644	-0.204	-0.212
-136.414	-81.351	0.049	0.016
-135.399	-200.000	-0.033	0.190
-134.385	3.039	0.223	-0.161
-133.370	301.301	0.032	-0.058
-132.356	113.974	0.323	-0.390
-131.341	65.882	-0.163	0.163
-130.326	-200.000	-0.018	0.132
-129.312	41.395	-0.071	-0.064
-128.297	43.839	0.142	-0.129
-127.283	399.563	0.061	-0.127
-126.268	647.393	-0.073	-0.186
-125.253	-72.138	-0.349	-0.128
-124.239	515.876	0.067	0.155
-123.224	32.157	-0.234	-0.200
-122.210	335.004	-0.078	0.149
-121.195	-200.000	-0.006	-0.163
-120.180	-51.296	-0.154	0.071
-119.166	76.762	-0.181	0.190
-118.151	-200.000	-0.059	0.291
-117.137	-121.645	-0.216	-0.035
-116.122	800.000	-0.083	0.277
-115.107	49.841	-0.249	-0.233
-114.093	41.953	-0.116	0.104
-113.078	34.921	-0.117	-0.101
-112.064	82.903	0.128	0.138
-111.049	107.616	0.049	0.058
-110.034	128.606	0.217	0.274
-109.020	-200.000	0.032	0.266
-108.005	-109.827	-0.130	0.027
-106.991	-118.503	0.153	-0.027
-105.976	800.000	0.102	0.402
-104.962	800.000	0.135	0.451
-103.947	800.000	-0.023	-0.088
-102.932	-48.391	-0.083	-0.040
-101.918	-200.000	0.050	-0.310
-100.903	30.068	0.134	0.113
-99.889	-92.838	-0.046	0.013
-98.874	-200.000	0.008	-0.088
-97.859	50.633	-0.030	0.028
-96.845	-42.365	-0.209	0.105
-95.830	220.589	0.044	-0.069
-94.816	-92.137	-0.301	0.084
-93.801	-34.424	0.161	0.088
-92.786	-143.691	-0.188	-0.018
-91.772	800.000	0.043	0.132
-90.757	64.980	-0.149	0.149
-89.743	800.000	-0.023	0.090
-88.728	393.100	-0.050	-0.103
-87.713	344.464	0.093	0.180
-86.699	-33.069	0.086	0.047
-85.684	-93.101	0.191	0.053
-84.670	47.223	0.139	0.128
-83.655	-26.264	-0.038	-0.022
-82.640	-200.000	0.076	0.354
-81.626	427.454	0.165	0.353
-80.611	-13.602	-0.162	0.104
-79.597	3.548	-0.162	-0.117
-78.582	-200.000	-0.002	0.170
-77.567	800.000	0.069	-0.227
-76.553	374.310	0.147	0.295
-75.538	-200.000	-0.020	0.165
-74.524	-200.000	-0.021	0.100
-73.509	-200.000	-0.004	0.384
-72.494	101.429	0.303	0.349
-71.480	11.940	-0.240	0.183
-70.465	212.071	0.125	0.195
-69.451	-69.132	-0.056	-0.021
-68.436	11.162	-0.051	0.039
-67.422	-75.031	0.152	0.054
-66.407	-110.922	0.096	0.019
-65.392	157.618	-0.151	0.207
-64.378	-108.760	0.121	0.026
-63.363	190.916	-0.025	-0.038
-62.349	-200.000	-0.116	0.537
-61.334	51.505	-0.714	-0.670
-60.319	203.304	0.236	0.360
-59.305	800.000	-0.231	-0.806
-58.290	-16.275	0.605	0.380
-57.276	399.306	0.645	1.335
-56.261	-200.000	97.777	577.928
-55.246	610.260	1418.995	3504.465
-54.232	181.754	2636.902	3836.427
-53.217	119.702	2198.030	2691.665
-52.203	45.691	1640.989	1498.784
-51.188	37.225	1373.339	1202.150
-50.173	33.935	1330.422	1144.756
-49.159	56.116	1380.223	1324.135
-48.144	59.711	1397.286	1362.447
-47.130	37.614	1351.662	1185.359
-46.115	33.829	1333.940	1146.962
-45.100	33.688	1329.530	1142.279
-44.086	33.581	1326.914	1139.344
-43.071	33.699	1324.191	1137.668
-42.057	33.570	1322.353	1135.268
-41.042	33.659	1320.365	1134.047
-40.027	33.671	1318.995	1132.898
-39.013	33.661	1317.250	1131.297
-37.998	33.646	1315.578	1129.725
-36.984	33.751	1313.314	1128.359
-35.969	33.736	1311.709	1126.851
-34.954	33.793	1309.843	1125.542
-33.940	33.816	1308.570	1124.537
-32.925	33.884	1307.124	1123.649
-31.911	33.809	1306.115	1122.295
-30.896	33.876	1304.532	1121.286
-29.881	33.765	1303.155	1119.407
-28.867	33.908	1301.386	1118.685
-27.852	33.822	1300.143	1117.066
-26.838	33.818	1298.465	1115.552
-25.823	33.865	1297.514	1114.970
-24.809	33.853	1295.890	1113.459
-23.794	33.854	1293.979	1111.776
-22.779	33.828	1293.288	1110.989
-21.765	33.951	1291.682	1110.286
-20.750	33.860	1290.295	1108.515
-19.736	33.761	1289.182	1106.938
-18.721	33.659	1288.040	1105.318
-17.706	33.804	1286.950	1105.182
-16.692	33.695	1285.826	1103.540
-15.677	33.677	1285.014	1102.698
-14.663	33.694	1284.094	1101.962
-13.648	33.808	1282.361	1101.095
-12.633	33.678	1281.781	1099.795
-11.619	33.597	1281.212	1098.797
-10.604	33.668	1279.949	1098.081
-9.590	33.590	1279.032	1096.797
-8.575	33.672	1278.035	1096.373
-7.560	33.650	1276.654	1095.017
-6.546	33.674	1276.065	1094.607
-5.531	33.618	1275.282	1093.573
-4.517	33.636	1274.391	1092.868
-3.502	33.770	1272.945	1092.355
-2.487	33.705	1272.378	1091.451
-1.473	33.835	1268.166	1088.541
-0.458	32.717	1253.436	1069.518
0.556	31.349	1234.509	1030.245
1.571	27.213	1239.382	1011.269
2.586	25.817	1253.847	1015.122
3.600	23.988	1241.436	994.766
4.615	17.945	1167.697	903.717
5.629	9.154	1090.763	800.463
6.644	4.971	1069.812	764.535
7.659	4.660	1067.127	761.027
8.673	4.420	1065.989	758.974
9.688	4.361	1064.709	757.712
10.702	5.014	1063.389	759.888
11.717	10.880	1072.539	795.117
12.731	19.363	1084.424	845.633
13.746	22.645	1087.176	863.811
14.761	22.090	1086.110	860.172
15.775	21.224	1084.355	854.470
16.790	20.243	1082.230	847.930
17.804	19.573	1080.915	843.552
18.819	19.369	1079.612	841.465
19.834	19.195	1078.714	839.844
20.848	18.989	1078.537	838.627
21.863	18.959	1077.516	837.613
22.877	18.747	1076.662	835.842
23.892	18.690	1076.014	834.989
24.907	18.651	1075.168	834.066
25.921	18.666	1074.313	833.402
26.936	18.576	1073.152	831.990
27.950	18.612	1071.382	830.721
28.965	18.788	1070.043	830.460
29.980	19.016	1068.118	829.992
30.994	19.031	1067.487	829.504
32.009	19.126	1066.522	829.135
33.023	18.983	1065.647	827.694
34.038	18.823	1064.900	826.270
35.053	18.800	1063.744	825.192
36.067	18.853	1062.075	824.078
37.082	18.795	1061.632	823.383
38.096	18.954	1061.144	823.693
39.111	19.029	1060.121	823.184
40.126	18.850	1058.668	821.130
41.140	18.625	1057.464	819.049
42.155	18.448	1056.016	817.011
43.169	18.326	1055.148	815.685
44.184	18.382	1054.255	815.191
45.199	18.424	1053.289	814.568
46.213	18.525	1052.079	814.042
47.228	18.638	1051.853	814.332
48.242	18.903	1050.313	814.324
49.257	18.705	1049.468	812.659
50.271	18.833	1048.843	812.706
51.286	18.937	1047.619	812.177
52.301	18.811	1046.660	810.767
53.315	18.810	1045.622	809.888
54.330	18.634	1044.616	808.208
55.344	18.571	1043.740	807.161
56.359	18.466	1043.253	806.219
57.374	18.460	1041.798	804.997
58.388	18.272	1041.271	803.636
59.403	18.425	1040.148	803.414
60.417	18.263	1039.928	802.414
61.432	18.243	1038.741	801.335
62.447	18.161	1037.791	800.149
63.461	18.182	1036.730	799.355
64.476	18.123	1035.984	798.435
65.490	18.199	1034.923	797.903
66.505	18.196	1034.773	797.703
67.520	18.241	1033.872	797.145
68.534	18.184	1033.140	796.243
69.549	18.275	1032.438	796.055
70.563	18.075	1031.404	794.259
71.578	17.997	1030.531	793.154
72.593	18.001	1029.435	792.258
73.607	17.920	1029.179	791.616
74.622	17.986	1028.740	791.515
75.636	17.989	1027.907	790.820
76.651	18.037	1027.480	790.642
77.666	18.108	1026.957	790.496
78.680	18.100	1026.212	789.818
79.695	18.190	1025.444	789.573
80.709	18.298	1025.182	789.800
81.724	18.322	1024.469	789.289
82.739	18.514	1023.586	789.424
83.753	18.664	1023.404	789.906
84.768	19.113	1022.125	790.910
85.782	19.175	1021.461	790.612
86.797	19.067	1020.877	789.595
87.812	18.940	1019.482	787.863
88.826	18.899	1018.539	786.878
89.841	18.910	1017.800	786.288
90.855	18.979	1017.248	786.106
91.870	19.156	1016.269	786.090
92.884	19.134	1015.008	784.945
93.899	19.116	1014.087	784.081
94.914	19.141	1013.569	783.721
95.928	19.068	1012.555	782.540
96.943	18.952	1011.502	781.128
97.957	18.878	1010.467	779.923
98.972	18.882	1010.223	779.686
99.987	18.985	1009.366	779.423
101.001	19.136	1007.595	778.668
102.016	18.914	1007.382	777.430
103.030	19.041	1006.330	777.124
104.045	18.868	1005.712	775.799
105.060	18.872	1004.534	774.837
106.074	18.582	1003.134	772.382
107.089	18.321	1002.179	770.406
108.103	18.233	1001.366	769.314
109.118	18.337	1000.246	768.856
110.133	18.319	999.012	767.757
111.147	18.239	998.362	766.833
112.162	18.184	998.177	766.375
113.176	18.483	997.430	767.073
114.191	18.547	996.783	766.792
115.206	18.432	995.691	765.371
116.220	18.384	995.244	764.744
117.235	18.304	994.117	763.455
118.249	18.245	993.131	762.367
119.264	18.338	991.950	761.807
120.279	18.299	991.469	761.199
121.293	18.129	990.792	759.854
122.308	18.148	989.750	759.075
123.322	18.050	988.467	757.590
124.337	18.095	987.426	756.922
125.352	18.035	986.712	756.044
126.366	18.085	985.755	755.464
127.381	18.021	984.768	754.358
128.395	18.042	983.781	753.626
129.410	18.208	983.097	753.766
130.424	18.302	982.266	753.476
131.439	18.461	981.965	753.882
132.454	18.505	980.955	753.230
133.468	18.633	979.812	752.849
134.483	18.448	979.179	751.483
135.497	18.455	978.754	751.121
136.512	18.561	977.690	750.705
137.527	18.622	976.738	750.172
138.541	18.653	975.806	749.527
139.556	18.499	975.613	748.638
140.570	18.727	974.976	749.079
141.585	18.887	974.470	749.323
142.600	19.049	973.132	748.931
143.614	19.136	972.413	748.691
144.629	19.116	971.809	748.070
145.643	18.966	971.057	746.778
146.658	18.728	969.828	744.733
147.673	18.670	968.757	743.591
148.687	18.509	967.737	742.045
149.702	18.465	966.694	740.991
150.716	18.537	965.705	740.478
151.731	18.533	965.302	740.087
152.746	18.643	964.197	739.650
153.760	18.672	963.704	739.330
154.775	18.744	963.220	739.204
155.789	18.756	962.759	738.837
156.804	18.789	961.962	738.300
157.819	18.880	961.100	737.963
158.833	19.146	960.258	738.392
159.848	19.287	959.949	738.693
160.862	18.955	958.915	736.412
161.877	18.703	957.296	734.027
162.892	18.493	956.296	732.298
163.906	18.622	955.242	731.977
164.921	18.551	954.797	731.267
165.935	18.686	953.930	731.113
166.950	18.597	953.401	730.264
167.964	18.771	951.831	729.737
168.979	18.586	950.762	728.067
169.994	18.599	950.102	727.555
171.008	18.754	949.719	727.853
172.023	18.955	948.918	728.027
173.037	19.004	948.330	727.717
174.052	18.750	948.123	726.420
175.067	18.617	947.217	725.097
176.081	18.628	945.910	724.081
177.096	18.483	945.614	723.177
178.110	18.633	945.025	723.294
179.125	18.623	944.868	723.069
180.140	18.801	943.894	723.009
181.154	18.932	943.624	723.289
182.169	18.920	943.365	722.979
183.183	19.162	942.817	723.511
184.198	19.115	941.616	722.326
185.213	19.089	940.984	721.669
186.227	19.160	940.235	721.330
187.242	19.157	939.488	720.680
188.256	19.262	939.398	720.985
189.271	19.289	938.608	720.427
190.286	19.003	937.104	718.019
191.300	18.541	936.303	715.412
192.315	18.344	935.459	713.882
193.329	18.597	935.002	714.524
194.344	18.843	934.223	714.892
195.359	18.910	934.060	714.981
196.373	18.972	933.390	714.665
197.388	19.157	933.050	715.108
198.402	19.380	932.807	715.785
199.417	19.376	932.339	715.344
200.432	19.463	931.800	715.228
201.446	19.593	931.272	715.298
202.461	19.719	930.493	715.158
203.475	19.368	930.282	713.481
204.490	19.295	929.139	712.240
205.504	19.253	928.450	711.474
206.519	19.068	927.825	710.170
207.534	19.045	927.172	709.510
208.548	19.151	926.528	709.394
209.563	19.208	925.825	709.026
210.577	19.361	924.767	708.782
211.592	19.532	924.586	709.286
212.607	19.510	923.863	708.577
213.621	19.403	923.190	707.558
214.636	19.265	922.785	706.618
215.650	19.509	921.611	706.655
216.665	19.601	921.081	706.564
217.680	19.702	920.533	706.496
218.694	19.646	920.129	705.894
219.709	19.574	919.342	704.932
220.723	19.644	918.536	704.539
221.738	19.496	917.481	703.065
222.753	19.598	916.910	702.977
223.767	19.683	916.683	703.089
224.782	19.715	916.326	702.884
225.796	19.817	915.515	702.614
226.811	19.642	915.102	701.524
227.826	19.514	914.147	700.210
228.840	19.449	913.503	699.393
229.855	19.479	912.365	698.581
230.869	19.483	911.649	697.987
231.884	19.354	911.174	697.037
232.899	19.276	910.295	695.988
233.913	19.301	909.240	695.223
234.928	19.269	908.471	694.444
235.942	19.278	907.936	694.008
236.957	19.286	907.683	693.788
237.972	19.303	907.286	693.492
238.986	19.295	906.792	693.021
240.001	19.427	905.143	692.227
241.015	19.448	904.828	692.008
242.030	19.466	904.497	691.769
243.045	19.513	903.932	691.463
244.059	19.611	903.176	691.217
245.074	19.637	902.883	691.034
246.088	19.690	902.299	690.736
247.103	19.738	901.885	690.552
248.117	20.042	901.278	691.239
249.132	20.255	901.397	692.118
250.147	20.379	900.724	692.034
251.161	20.302	900.079	691.172
252.176	20.339	899.867	691.095
253.190	20.506	898.839	690.907
254.205	20.432	898.261	690.107
255.220	20.353	897.325	689.013
256.234	20.404	897.087	688.975
257.249	20.361	896.109	687.992
258.263	20.338	895.365	687.266
259.278	20.397	894.657	686.896
260.293	20.389	894.341	686.561
261.307	20.635	893.464	686.800
262.322	20.468	893.211	685.885
263.336	20.639	892.503	685.953
264.351	20.678	891.337	685.153
265.366	20.704	891.154	685.053
266.380	20.485	890.218	683.410
267.395	20.664	889.267	683.324
268.409	20.347	888.899	681.736
269.424	20.450	887.944	681.345
270.439	20.550	886.957	680.922
271.453	20.278	886.433	679.395
272.468	20.338	885.680	678.992
273.482	20.250	885.704	678.607
274.497	20.273	884.852	677.982
275.512	20.337	884.198	677.671
276.526	20.350	883.605	677.207
277.541	20.405	883.188	677.041
278.555	20.501	882.890	677.129
279.570	20.736	882.330	677.552
280.585	20.753	881.216	676.705
281.599	20.531	880.217	675.015
282.614	20.434	879.849	674.298
283.628	20.457	879.161	673.801
284.643	20.351	878.366	672.721
285.657	20.427	877.859	672.568
286.672	20.440	877.355	672.171
287.687	20.471	876.565	671.626
288.701	20.477	876.158	671.279
289.716	20.331	875.841	670.410
290.730	20.418	875.258	670.243
291.745	20.581	874.752	670.425
292.760	20.680	874.065	670.220
293.774	20.865	873.295	670.282
294.789	20.835	872.402	669.422
295.803	20.588	872.066	668.156
296.818	20.436	871.512	667.090
297.833	20.626	870.344	666.864
298.847	20.554	869.876	666.170
299.862	20.577	869.840	666.172
300.876	20.875	868.820	666.473
301.891	20.925	868.288	666.195
302.906	20.870	868.309	665.942
303.920	21.077	867.890	666.354
304.935	21.151	867.238	666.076
305.949	21.075	866.470	665.137
306.964	20.834	866.086	663.866
307.979	20.880	864.981	663.133
308.993	21.013	864.621	663.307
310.008	20.976	864.163	662.757
311.022	21.146	863.118	662.541
312.037	20.859	862.693	661.065
313.052	20.633	862.194	659.770
314.066	20.558	861.302	658.742
315.081	20.574	860.959	658.483
316.095	20.607	860.237	657.996
317.110	20.553	859.503	657.176
318.125	20.612	859.249	657.143
319.139	20.659	858.599	656.768
320.154	20.648	858.209	656.368
321.168	20.869	857.452	656.564
322.183	20.808	857.155	656.049
323.197	20.963	856.467	656.050
324.212	20.898	855.826	655.257
325.227	20.837	855.127	654.434
326.241	20.666	854.809	653.488
327.256	20.742	854.504	653.482
328.270	20.637	853.532	652.289
329.285	20.672	852.952	651.921
330.300	20.683	852.356	651.448
331.314	20.796	852.064	651.590
332.329	21.096	851.438	652.174
333.343	21.051	851.362	651.889
334.358	21.064	850.892	651.522
335.373	20.922	850.587	650.699
336.387	21.087	850.225	650.979
337.402	21.245	849.844	651.219
338.416	21.249	850.252	651.492
339.431	21.336	849.115	650.885
340.446	21.504	848.679	651.120
341.460	21.471	848.831	651.054
342.475	21.493	848.453	650.790
343.489	21.492	847.984	650.368
344.504	21.712	847.286	650.593
345.519	21.774	846.598	650.237
346.533	21.736	845.978	649.562
347.548	21.425	845.474	647.966
348.562	21.215	845.194	646.916
349.577	21.317	843.957	646.290
350.592	21.274	843.164	645.465
351.606	21.067	843.011	644.526
352.621	21.067	842.436	644.031
353.635	21.211	841.742	643.973
354.650	21.217	840.890	643.289
355.665	21.336	840.308	643.224
356.679	21.390	840.049	643.166
357.694	21.292	839.321	642.192
358.708	21.320	838.795	641.836
359.723	21.445	838.053	641.669
360.738	21.375	837.436	640.885
361.752	21.508	836.860	640.872
362.767	21.532	836.136	640.349
363.781	21.758	835.930	640.961
364.796	21.945	835.632	641.359
365.810	21.926	835.406	641.060
366.825	22.057	834.935	641.122
367.840	21.973	834.298	640.267
368.854	21.931	833.624	639.541
369.869	21.738	833.066	638.356
370.883	21.725	833.065	638.250
371.898	21.964	832.555	638.672
372.913	22.117	832.091	638.817
373.927	21.830	831.607	637.343
374.942	21.796	831.156	636.821
375.956	21.985	830.637	637.052
376.971	22.042	830.530	637.119
377.986	22.318	829.986	637.647
379.000	22.231	829.543	636.934
380.015	22.153	828.702	635.950
381.029	22.210	828.225	635.733
382.044	22.148	827.717	635.063
383.059	22.193	826.799	634.467
384.073	22.050	826.510	633.672
385.088	21.964	825.696	632.681
386.102	21.647	825.147	631.064
387.117	21.898	824.432	631.363
388.132	21.792	824.028	630.617
389.146	21.895	823.448	630.486
390.161	22.028	822.971	630.545
391.175	22.048	822.946	630.542
392.190	22.140	822.004	630.091
393.205	21.915	821.327	628.712
394.219	21.936	821.172	628.613
395.234	21.850	820.718	627.901
396.248	21.548	820.217	626.382
397.263	21.514	819.653	625.775
398.278	21.603	819.356	625.811
399.292	21.507	818.804	624.992
400.307	21.503	818.231	624.484
401.321	21.936	817.376	625.320
402.336	21.856	817.428	625.018
403.350	21.889	817.202	624.910
404.365	22.118	816.437	625.082
405.380	22.290	816.436	625.637
406.394	22.213	815.962	624.945
407.409	22.340	815.443	624.944
408.423	22.533	815.053	625.275
409.438	22.353	815.049	624.579
410.453	22.468	814.228	624.303
411.467	22.480	814.176	624.250
412.482	22.741	813.721	624.770
413.496	22.794	813.407	624.660
414.511	22.532	813.136	623.469
415.526	22.537	812.339	622.821
416.540	22.496	811.489	621.972
417.555	22.533	811.172	621.803
418.569	22.614	811.149	622.016
419.584	22.642	810.191	621.326
420.599	22.646	810.143	621.248
421.613	160.240	1369.757	1789.010
422.628	139.457	1451.280	1789.106
