DTS Sentinel unit serial number:	SN413079Multiplexer serial number:	ORYXHardware model number:	OX4-SRSoftware version number:	ORYX F/W v4.00 Oryx Data Collector v3.7.2.0data status	okinstallation	princeton_trtdifferential loss correction	single-endedforward channel	channel 1reverse channel	N/Adate	2019/09/16time	10:50:35forward acquisition time	60.00reverse acquisition time	0.00gamma	496.2192k internal	0.2301k external	0.2301temperature offset calibration	0.9962default loss term (dB/km)	0.3790temperature slope calibration	1.0000multiplexer offset coefficient	1.0000multiplexer slope coefficient	1.0000fibre end	0.00T internal ref (°C)	36.37T ext. ref 1 (°C)	12.69T ext. ref 2 (°C)	34.40length (m)	temperature (°C)	Stokes	anti-Stokes-747.200	98.350	-0.139	0.163
-746.185	69.058	-0.317	0.333
-745.171	338.747	0.128	-0.255
-744.156	98.714	0.141	-0.166
-743.142	-88.115	-0.185	-0.057
-742.127	-200.000	0.012	0.131
-741.112	-200.000	0.008	0.048
-740.098	-43.208	0.168	0.087
-739.083	800.000	0.055	0.158
-738.069	175.439	-0.185	0.274
-737.054	-42.394	0.180	0.094
-736.039	-161.457	-0.149	-0.008
-735.025	794.973	0.150	0.422
-734.010	-73.864	0.083	-0.031
-732.996	24.990	0.123	0.104
-731.981	-95.721	0.238	-0.065
-730.966	-129.489	-0.314	-0.044
-729.952	-200.000	0.034	0.175
-728.937	-200.000	0.032	0.148
-727.923	9.632	-0.104	-0.080
-726.908	-117.786	-0.245	-0.045
-725.894	198.769	0.095	0.148
-724.879	89.687	0.296	-0.337
-723.864	-13.670	0.139	-0.092
-722.850	299.307	-0.086	-0.162
-721.835	-122.900	-0.158	0.026
-720.821	-200.000	0.003	0.066
-719.806	-65.341	-0.136	0.056
-718.791	-68.965	-0.201	0.079
-717.777	-200.000	0.014	-0.459
-716.762	786.752	0.015	0.042
-715.748	261.253	0.115	-0.202
-714.733	182.578	-0.186	0.279
-713.718	372.837	0.133	-0.275
-712.704	106.050	0.107	0.129
-711.689	800.000	0.042	-0.128
-710.675	800.000	-0.023	-0.070
-709.660	-121.269	0.387	-0.066
-708.645	173.376	0.178	-0.262
-707.631	-139.420	0.440	0.048
-706.616	-74.708	-0.203	-0.074
-705.602	800.000	0.054	-0.172
-704.587	-99.767	-0.377	-0.096
-703.572	781.709	0.060	-0.168
-702.558	270.322	0.086	0.154
-701.543	-200.000	0.033	-0.187
-700.529	222.094	-0.184	0.301
-699.514	-107.957	-0.158	-0.035
-698.499	584.829	0.173	-0.434
-697.485	100.560	-0.249	-0.294
-696.470	-200.000	0.044	-0.369
-695.456	164.806	0.241	0.346
-694.441	-200.000	-0.027	-0.191
-693.426	-200.000	0.014	0.000
-692.412	-200.000	0.143	-0.649
-691.397	47.148	-0.076	-0.072
-690.383	-62.820	0.230	-0.097
-689.368	2.238	0.015	0.011
-688.354	-7.402	0.223	-0.154
-687.339	-200.000	-0.015	0.397
-686.324	-10.131	-0.213	-0.144
-685.310	162.597	-0.116	0.166
-684.295	88.770	0.166	0.188
-683.281	43.571	0.163	0.152
-682.266	-9.323	0.237	0.161
-681.251	-200.000	-0.017	-0.239
-680.237	14.921	0.212	0.169
-679.222	-61.128	0.092	-0.039
-678.208	-110.974	0.118	0.025
-677.193	84.169	-0.194	0.216
-676.178	-87.590	-0.396	-0.122
-675.164	198.962	-0.221	-0.344
-674.149	-8.579	0.013	0.009
-673.135	-68.048	0.283	0.112
-672.120	103.537	-0.163	-0.195
-671.105	3.007	-0.135	0.100
-670.091	-198.545	-0.250	0.001
-669.076	-26.923	-0.218	-0.130
-668.062	-50.493	0.314	-0.151
-667.047	508.285	-0.070	0.164
-666.032	-38.119	0.153	-0.082
-665.018	40.305	-0.090	0.082
-664.003	-49.460	0.327	-0.158
-662.989	-13.771	0.038	0.025
-661.974	119.616	-0.196	-0.246
-660.959	800.000	-0.081	-0.246
-659.945	-134.581	-0.271	-0.034
-658.930	716.973	-0.137	0.369
-657.916	664.091	-0.005	0.014
-656.901	174.725	-0.213	-0.314
-655.886	-200.000	0.007	-0.042
-654.872	-191.935	0.160	-0.002
-653.857	33.419	0.241	0.213
-652.843	333.980	0.024	-0.048
-651.828	-13.156	0.104	-0.069
-650.814	-46.497	0.117	0.058
-649.799	112.264	0.189	0.232
-648.784	363.076	-0.084	-0.172
-647.770	-46.541	0.095	-0.047
-646.755	69.977	-0.213	-0.223
-645.741	800.000	0.080	0.316
-644.726	190.043	0.129	0.197
-643.711	-137.677	-0.447	0.051
-642.697	511.006	0.126	0.299
-641.682	576.162	-0.020	0.049
-640.668	-200.000	-0.051	0.259
-639.653	-135.758	-0.079	0.009
-638.638	73.417	-0.182	-0.193
-637.624	725.880	-0.076	-0.205
-636.609	454.079	0.083	-0.187
-635.595	-106.531	-0.177	-0.040
-634.580	710.920	-0.057	0.153
-633.565	-200.000	0.003	0.087
-632.551	-97.670	-0.297	-0.078
-631.536	-72.410	0.344	0.129
-630.522	-106.886	-0.242	-0.054
-629.507	-195.453	0.204	-0.002
-628.492	-200.000	0.016	0.218
-627.478	-84.457	-0.230	-0.074
-626.463	800.000	0.048	-0.176
-625.449	466.528	0.137	0.312
-624.434	-185.529	-0.119	0.002
-623.419	-200.000	0.046	0.284
-622.405	91.546	-0.242	0.276
-621.390	9.991	-0.358	-0.276
-620.376	26.048	0.143	0.121
-619.361	-25.120	0.067	-0.040
-618.346	370.840	-0.168	0.345
-617.332	-200.000	0.003	0.017
-616.317	-97.127	0.155	-0.041
-615.303	800.000	0.076	0.312
-614.288	719.643	-0.117	0.314
-613.273	16.830	-0.236	0.190
-612.259	-23.386	0.065	-0.040
-611.244	-149.879	-0.319	-0.025
-610.230	-120.582	-0.286	0.049
-609.215	57.779	0.097	0.097
-608.201	110.991	0.049	-0.060
-607.186	-140.282	-0.165	0.017
-606.171	800.000	0.049	-0.179
-605.157	229.161	0.157	-0.259
-604.142	-7.665	-0.183	-0.125
-603.128	25.988	-0.201	0.170
-602.113	133.096	-0.232	-0.303
-601.098	196.910	-0.124	-0.191
-600.084	-54.752	-0.242	-0.111
-599.069	-200.000	-0.004	-0.162
-598.055	143.622	0.273	-0.368
-597.040	-39.498	0.376	0.199
-596.025	-159.503	-0.299	-0.017
-595.011	-109.349	-0.451	0.097
-593.996	-200.000	0.010	-0.058
-592.982	-18.122	0.325	-0.206
-591.967	-41.075	0.357	0.187
-590.952	-93.806	-0.346	-0.096
-589.938	800.000	0.061	0.187
-588.923	13.762	0.366	-0.288
-587.909	-29.923	-0.134	0.078
-586.894	3.570	0.126	-0.093
-585.879	-143.951	0.130	-0.012
-584.865	95.517	0.051	0.059
-583.850	-87.317	0.202	0.062
-582.836	47.313	-0.171	-0.161
-581.821	-194.336	0.211	-0.002
-580.806	634.433	0.032	0.082
-579.792	-74.744	-0.254	-0.092
-578.777	21.669	0.089	0.073
-577.763	207.508	0.089	-0.141
-576.748	-200.000	-0.008	0.106
-575.733	-142.223	0.189	0.019
-574.719	-102.023	-0.116	-0.028
-573.704	7.782	0.133	0.101
-572.690	800.000	0.028	-0.082
-571.675	472.289	-0.088	0.201
-570.661	-7.740	0.253	-0.173
-569.646	-200.000	-0.001	0.207
-568.631	178.600	-0.125	0.185
-567.617	217.682	-0.099	0.159
-566.602	-2.958	0.103	-0.073
-565.588	21.133	-0.088	0.072
-564.573	-13.742	0.093	-0.061
-563.558	-200.000	0.008	-0.076
-562.544	-95.951	-0.223	-0.060
-561.529	279.724	-0.251	-0.453
-560.515	756.698	0.085	0.233
-559.500	-200.000	0.002	0.098
-558.485	15.970	0.134	0.107
-557.471	-94.764	-0.114	0.031
-556.456	625.078	-0.123	-0.315
-555.442	1.521	0.219	-0.160
-554.427	30.674	-0.211	0.183
-553.412	287.739	0.199	0.364
-552.398	23.123	0.115	-0.096
-551.383	-72.361	-0.142	-0.053
-550.369	81.647	-0.079	-0.086
-549.354	-56.424	-0.238	0.107
-548.339	374.583	-0.045	0.093
-547.325	-124.637	0.357	0.056
-546.310	92.224	0.095	0.109
-545.296	242.264	-0.180	-0.305
-544.281	800.000	-0.079	-0.323
-543.266	-159.555	0.247	0.014
-542.252	256.867	-0.107	0.187
-541.237	-57.760	0.330	-0.146
-540.223	-27.734	-0.157	0.092
-539.208	-100.688	-0.227	-0.057
-538.193	800.000	-0.023	0.073
-537.179	-66.841	-0.200	-0.080
-536.164	549.630	-0.071	0.172
-535.150	-200.000	0.028	0.295
-534.135	-200.000	-0.033	-0.150
-533.121	-200.000	-0.015	0.166
-532.106	263.967	-0.080	0.140
-531.091	-72.842	0.096	0.036
-530.077	-200.000	-0.036	-0.354
-529.062	-200.000	-0.010	0.104
-528.048	103.793	-0.197	-0.233
-527.033	118.068	-0.111	0.138
-526.018	90.355	-0.090	0.102
-525.004	27.664	-0.320	-0.273
-523.989	-175.834	-0.304	-0.008
-522.975	-2.064	0.071	-0.051
-521.960	-17.217	0.399	-0.254
-520.945	-200.000	0.006	-0.039
-519.931	4.300	-0.289	-0.214
-518.916	-200.000	-0.010	0.052
-517.902	-200.000	0.042	-0.208
-516.887	162.765	-0.148	-0.210
-515.872	176.674	0.089	-0.131
-514.858	155.232	-0.154	0.214
-513.843	-76.063	0.184	-0.066
-512.829	68.630	0.063	-0.065
-511.814	2.238	-0.168	0.123
-510.799	262.536	-0.063	0.111
-509.785	-103.072	-0.116	0.028
-508.770	68.624	-0.167	-0.173
-507.756	-137.203	-0.268	-0.031
-506.741	-106.698	-0.021	-0.005
-505.726	-148.352	-0.463	0.038
-504.712	229.022	-0.139	-0.229
-503.697	214.491	0.053	-0.085
-502.683	140.137	0.094	-0.125
-501.668	-54.153	-0.341	0.156
-500.653	-29.258	0.093	0.054
-499.639	-80.833	0.053	-0.018
-498.624	140.318	-0.149	0.198
-497.610	162.180	0.092	0.131
-496.595	-89.265	-0.116	-0.034
-495.581	100.162	0.086	0.101
-494.566	-62.345	-0.327	0.137
-493.551	13.510	0.092	-0.072
-492.537	172.416	-0.087	0.127
-491.522	-200.000	0.030	-0.260
-490.508	-99.208	0.269	0.069
-489.493	126.780	-0.284	-0.363
-488.478	544.870	-0.076	0.183
-487.464	-168.594	0.107	0.004
-486.449	22.586	0.251	-0.208
-485.435	800.000	0.100	0.285
-484.420	-72.696	0.051	-0.019
-483.405	29.628	0.170	-0.146
-482.391	-155.838	0.371	-0.024
-481.376	-200.000	-0.026	-0.164
-480.362	115.672	-0.204	-0.252
-479.347	704.318	0.083	-0.222
-478.332	482.282	-0.117	-0.269
-477.318	36.407	-0.256	-0.228
-476.303	-156.919	0.158	-0.010
-475.289	83.890	-0.183	0.201
-474.274	130.507	-0.127	-0.164
-473.259	-122.645	0.236	-0.039
-472.245	-103.066	0.434	0.104
-471.230	-67.129	-0.383	0.152
-470.216	-67.124	0.243	-0.097
-469.201	-36.502	0.311	0.169
-468.186	800.000	0.032	-0.090
-467.172	-70.325	-0.204	-0.078
-466.157	-200.000	-0.016	0.226
-465.143	-81.873	0.122	-0.040
-464.128	-19.736	-0.109	-0.068
-463.113	33.967	0.242	-0.213
-462.099	-159.677	0.066	-0.004
-461.084	53.493	-0.133	0.129
-460.070	-200.000	0.023	-0.144
-459.055	81.258	0.275	-0.300
-458.040	108.490	0.034	0.041
-457.026	800.000	0.096	0.303
-456.011	76.249	-0.060	0.065
-454.997	57.478	-0.125	-0.123
-453.982	-97.590	0.322	-0.084
-452.968	-200.000	-0.009	-0.235
-451.953	-137.154	-0.231	0.026
-450.938	-97.376	0.167	0.044
-449.924	108.031	0.117	-0.140
-448.909	-200.000	-0.017	0.209
-447.895	-13.338	0.125	0.082
-446.880	118.656	0.091	0.113
-445.865	-105.259	-0.461	-0.106
-444.851	-32.003	0.122	0.069
-443.836	-119.785	-0.229	-0.040
-442.822	-60.431	0.173	-0.074
-441.807	-0.112	0.109	-0.079
-440.792	-187.730	0.456	0.006
-439.778	-54.367	-0.149	-0.068
-438.763	-22.959	0.079	0.048
-437.749	-200.000	-0.016	0.299
-436.734	800.000	0.032	-0.112
-435.719	46.509	0.237	-0.222
-434.705	-200.000	-0.024	0.282
-433.690	-129.261	-0.443	0.062
-432.676	-65.025	0.101	-0.041
-431.661	-118.363	-0.381	0.068
-430.646	-138.757	0.200	-0.022
-429.632	262.016	0.101	-0.177
-428.617	-200.000	0.007	-0.319
-427.603	-102.453	0.265	0.064
-426.588	201.639	0.134	-0.208
-425.573	-164.736	-0.168	0.008
-424.559	-27.021	0.115	0.068
-423.544	-200.000	0.002	-0.194
-422.530	-76.333	0.199	-0.070
-421.515	-129.517	-0.252	0.035
-420.500	-200.000	0.016	-0.241
-419.486	-61.487	-0.070	0.029
-418.471	170.899	-0.082	0.118
-417.457	800.000	-0.110	0.344
-416.442	-101.834	0.319	-0.078
-415.428	-200.000	0.037	-0.286
-414.413	252.474	-0.084	-0.144
-413.398	-147.239	0.186	0.016
-412.384	-200.000	0.010	0.206
-411.369	474.462	0.131	-0.297
-410.355	-75.711	0.293	-0.105
-409.340	33.113	-0.116	0.101
-408.325	121.323	-0.214	-0.268
-407.311	90.892	-0.125	0.141
-406.296	57.449	-0.102	-0.100
-405.282	364.717	0.091	-0.185
-404.267	-186.426	0.137	-0.002
-403.252	-111.970	-0.034	-0.007
-402.238	57.465	-0.324	-0.319
-401.223	263.665	-0.199	-0.349
-400.209	130.180	-0.285	0.367
-399.194	-200.000	0.033	-0.217
-398.179	-70.822	-0.214	0.081
-397.165	464.790	-0.070	0.157
-396.150	45.760	0.098	0.091
-395.136	-200.000	0.078	0.380
-394.121	-15.555	0.218	-0.140
-393.106	-59.880	0.193	0.083
-392.092	800.000	-0.051	0.147
-391.077	-100.644	0.055	0.014
-390.063	-8.145	0.102	-0.069
-389.048	323.087	0.114	-0.218
-388.033	350.323	0.199	-0.395
-387.019	-102.195	0.251	0.061
-386.004	-104.719	0.287	0.066
-384.990	-174.969	-0.098	-0.003
-383.975	63.104	-0.076	0.076
-382.960	431.180	0.091	-0.198
-381.946	-200.000	0.030	0.175
-380.931	800.000	0.062	0.177
-379.917	-83.421	0.137	-0.044
-378.902	220.160	0.075	0.122
-377.888	-27.346	0.314	0.183
-376.873	216.442	0.145	-0.232
-375.858	-69.298	0.222	0.086
-374.844	-3.567	0.269	0.188
-373.829	64.729	-0.099	-0.100
-372.815	800.000	-0.034	0.148
-371.800	-115.824	0.104	0.020
-370.785	-34.743	0.222	-0.122
-369.771	59.708	0.148	-0.147
-368.756	-200.000	-0.001	0.281
-367.742	392.144	0.101	0.211
-366.727	-19.871	-0.061	0.038
-365.712	147.365	0.148	-0.200
-364.698	-200.000	0.031	0.249
-363.683	-139.401	0.235	-0.025
-362.669	-139.916	0.301	0.032
-361.654	411.413	0.064	0.137
-360.639	-18.190	0.157	0.099
-359.625	-65.786	0.054	0.022
-358.610	15.894	0.215	0.170
-357.596	181.756	0.096	-0.142
-356.581	-105.415	-0.336	0.077
-355.566	58.942	-0.100	0.098
-354.552	-200.000	0.014	0.198
-353.537	800.000	-0.025	0.072
-352.523	194.811	-0.124	-0.190
-351.508	-200.000	-0.007	0.071
-350.493	800.000	-0.051	-0.181
-349.479	-135.290	-0.433	0.052
-348.464	236.658	0.078	0.129
-347.450	36.836	0.172	0.152
-346.435	93.708	0.206	0.234
-345.420	-200.000	0.015	-0.074
-344.406	15.981	0.215	0.170
-343.391	-125.193	0.319	-0.049
-342.377	314.445	0.181	0.342
-341.362	-200.000	0.006	0.100
-340.348	-200.000	-0.024	-0.115
-339.333	491.184	0.141	-0.323
-338.318	5.894	0.179	-0.133
-337.304	-25.935	-0.141	0.083
-336.289	-136.138	0.125	-0.015
-335.275	78.595	-0.120	0.129
-334.260	17.592	-0.208	0.166
-333.245	-26.863	0.134	0.079
-332.231	3.813	0.094	-0.069
-331.216	25.093	0.198	-0.164
-330.202	-200.000	0.005	-0.209
-329.187	87.474	0.133	-0.147
-328.172	102.780	-0.147	-0.173
-327.158	408.529	0.075	0.160
-326.143	78.786	0.302	-0.324
-325.129	-45.584	0.287	0.143
-324.114	-175.098	0.377	-0.010
-323.099	-99.812	-0.140	0.035
-322.085	-161.366	0.093	-0.005
-321.070	800.000	0.043	0.173
-320.056	101.267	-0.111	0.130
-319.041	-200.000	-0.029	-0.134
-318.026	322.051	-0.136	0.259
-317.012	-74.005	0.129	-0.047
-315.997	-27.753	-0.027	0.016
-314.983	372.796	-0.166	-0.338
-313.968	-200.000	-0.020	-0.109
-312.953	199.045	-0.156	0.239
-311.939	800.000	-0.049	-0.177
-310.924	275.221	-0.138	-0.245
-309.910	-200.000	0.220	0.000
-308.895	22.122	0.254	-0.208
-307.880	800.000	-0.170	-0.474
-306.866	-88.636	-0.195	-0.058
-305.851	800.000	0.040	0.136
-304.837	43.617	0.070	0.064
-303.822	56.423	-0.331	-0.322
-302.807	-200.000	0.039	-0.405
-301.793	485.911	-0.161	0.367
-300.778	800.000	-0.049	0.174
-299.764	-95.073	-0.156	-0.042
-298.749	94.620	0.045	0.051
-297.735	480.219	0.089	0.201
-296.720	681.736	0.047	0.123
-295.705	178.982	-0.110	0.161
-294.691	7.263	-0.175	0.131
-293.676	78.255	0.127	-0.136
-292.662	-73.486	-0.372	-0.136
-291.647	373.632	-0.081	0.165
-290.632	800.000	-0.045	0.134
-289.618	-200.000	-0.050	-0.249
-288.603	53.898	-0.237	-0.228
-287.589	-78.572	-0.425	0.145
-286.574	71.603	0.368	0.382
-285.559	-200.000	0.025	0.135
-284.545	-113.007	0.092	-0.018
-283.530	279.817	-0.171	-0.306
-282.516	43.129	0.175	-0.160
-281.501	-200.000	0.027	0.222
-280.486	-200.000	-0.042	0.323
-279.472	-82.179	0.135	0.044
-278.457	355.009	0.166	0.330
-277.443	-104.054	0.048	-0.011
-276.428	-91.107	-0.258	-0.074
-275.413	200.118	-0.038	0.058
-274.399	-200.000	0.014	0.167
-273.384	264.354	0.030	-0.052
-272.370	-15.211	0.157	0.100
-271.355	491.401	0.032	0.073
-270.340	-77.067	-0.082	0.028
-269.326	-54.138	-0.231	0.105
-268.311	800.000	0.021	0.087
-267.297	800.000	0.107	0.401
-266.282	-200.000	0.007	0.389
-265.267	35.598	0.262	-0.230
-264.253	-99.140	-0.195	0.049
-263.238	94.873	0.145	0.165
-262.224	-157.523	-0.395	0.024
-261.209	243.594	-0.098	0.165
-260.195	-200.000	-0.008	-0.111
-259.180	-108.548	0.077	-0.017
-258.165	-98.671	0.138	0.035
-257.151	-175.951	-0.449	0.012
-256.136	47.273	0.148	0.138
-255.122	60.745	0.066	0.065
-254.107	-200.000	0.017	-0.082
-253.092	800.000	-0.099	-0.283
-252.078	-200.000	-0.033	0.160
-251.063	800.000	-0.085	0.260
-250.049	-5.266	-0.289	-0.199
-249.034	-92.829	0.228	0.064
-248.019	-166.465	0.134	0.006
-247.005	521.698	-0.025	0.059
-245.990	204.776	-0.187	0.290
-244.976	-53.589	-0.389	-0.178
-243.961	-67.975	0.235	-0.092
-242.946	-96.693	0.244	-0.064
-241.932	649.237	-0.140	0.357
-240.917	-99.197	0.073	0.018
-239.903	657.175	-0.063	-0.162
-238.888	192.476	0.029	0.043
-237.873	591.858	0.076	-0.187
-236.859	-200.000	-0.002	-0.139
-235.844	236.441	-0.084	0.138
-234.830	64.520	0.086	0.087
-233.815	88.530	-0.156	-0.173
-232.800	800.000	0.025	0.073
-231.786	138.648	-0.123	0.161
-230.771	-5.930	0.153	-0.105
-229.757	800.000	0.076	0.241
-228.742	-164.902	0.147	0.007
-227.727	-78.461	0.151	0.052
-226.713	-200.000	-0.014	0.354
-225.698	-79.329	0.249	0.084
-224.684	-81.640	0.292	-0.096
-223.669	8.614	-0.271	0.204
-222.655	800.000	-0.088	-0.277
-221.640	-58.900	-0.064	-0.028
-220.625	-200.000	-0.004	0.081
-219.611	-75.633	0.271	-0.096
-218.596	-26.837	-0.112	-0.065
-217.582	26.216	-0.258	-0.215
-216.567	-13.079	-0.179	-0.116
-215.552	-74.886	-0.241	-0.086
-214.538	-104.201	-0.108	-0.025
-213.523	800.000	0.067	0.259
-212.509	-54.275	0.283	-0.128
-211.494	-41.182	0.101	-0.052
-210.479	200.165	0.166	-0.255
-209.465	-52.725	0.191	-0.088
-208.450	93.267	0.285	0.322
-207.436	-101.897	0.273	0.066
-206.421	-153.866	0.064	-0.004
-205.406	192.273	-0.339	0.511
-204.392	344.138	-0.149	0.292
-203.377	800.000	0.045	0.190
-202.363	-111.173	-0.054	0.011
-201.348	-200.000	0.044	-0.342
-200.333	-97.932	-0.013	-0.003
-199.319	800.000	-0.068	-0.201
-198.304	800.000	0.046	-0.198
-197.290	320.890	-0.119	-0.226
-196.275	423.853	-0.070	0.150
-195.260	-27.439	0.343	0.199
-194.246	-101.845	0.179	-0.043
-193.231	-145.821	0.396	0.035
-192.217	-57.179	-0.338	-0.148
-191.202	116.990	0.120	-0.147
-190.187	217.643	-0.041	-0.065
-189.173	-53.242	-0.181	0.083
-188.158	-200.000	-0.007	-0.049
-187.144	214.238	-0.132	-0.208
-186.129	257.222	-0.162	-0.277
-185.114	-92.906	-0.083	-0.023
-184.100	800.000	-0.052	-0.177
-183.085	-139.967	0.107	0.011
-182.071	142.688	0.027	-0.036
-181.056	-52.946	-0.315	0.144
-180.042	-161.453	-0.204	-0.010
-179.027	286.246	0.149	-0.268
-178.012	-200.000	0.008	-0.093
-176.998	33.968	-0.242	-0.211
-175.983	-75.020	0.136	0.048
-174.969	-200.000	0.027	0.162
-173.954	-150.795	0.184	-0.014
-172.939	-79.760	0.083	-0.028
-171.925	602.813	-0.076	-0.187
-170.910	106.454	-0.285	-0.337
-169.896	210.866	0.022	-0.035
-168.881	-138.454	-0.304	-0.033
-167.866	-200.000	-0.032	0.162
-166.852	338.600	0.119	-0.231
-165.837	-200.000	0.014	-0.107
-164.823	21.734	-0.097	0.078
-163.808	-140.602	-0.229	0.024
-162.793	-200.000	-0.071	0.363
-161.779	553.591	0.041	0.097
-160.764	-114.414	0.073	0.014
-159.750	24.332	0.171	-0.141
-158.735	179.244	-0.134	-0.195
-157.720	11.223	0.131	-0.100
-156.706	71.174	-0.150	0.155
-155.691	-200.000	-0.001	0.273
-154.677	-200.000	-0.022	0.287
-153.662	-48.022	0.161	-0.078
-152.647	-64.728	-0.294	0.119
-151.633	-120.478	0.283	0.048
-150.618	206.488	-0.048	-0.075
-149.604	90.428	0.134	0.149
-148.589	254.144	-0.112	-0.191
-147.574	-163.970	-0.287	-0.013
-146.560	146.491	-0.131	-0.175
-145.545	-11.740	-0.092	0.060
-144.531	-200.000	-0.057	0.326
-143.516	-200.000	0.021	-0.112
-142.502	13.613	-0.173	0.134
-141.487	-174.125	0.422	-0.012
-140.472	-0.960	0.061	0.043
-139.458	-200.000	-0.027	-0.241
-138.443	-12.224	0.223	0.145
-137.429	-164.038	0.387	0.018
-136.414	-120.023	0.056	0.010
-135.399	-23.310	-0.230	0.138
-134.385	-119.074	0.228	0.040
-133.370	-7.519	-0.074	0.050
-132.356	-200.000	0.002	0.135
-131.341	-200.000	-0.019	-0.248
-130.326	81.674	-0.141	-0.152
-129.312	199.000	-0.234	-0.356
-128.297	333.141	-0.223	0.429
-127.283	-90.825	0.180	-0.052
-126.268	264.913	0.156	0.270
-125.253	82.324	-0.193	0.208
-124.239	134.008	0.140	-0.181
-123.224	130.959	-0.036	0.046
-122.210	-68.683	0.398	-0.153
-121.195	62.074	0.066	-0.065
-120.180	35.829	0.172	0.151
-119.166	-200.000	-0.005	0.115
-118.151	-200.000	-0.006	-0.120
-117.137	258.850	-0.207	0.355
-116.122	-200.000	-0.003	0.390
-115.107	-136.812	-0.164	0.019
-114.093	90.127	0.114	0.127
-113.078	132.517	-0.140	-0.180
-112.064	61.041	0.065	-0.065
-111.049	-100.257	0.313	0.077
-110.034	80.937	0.345	0.370
-109.020	1.749	-0.152	-0.109
-108.005	-14.048	0.202	0.129
-106.991	-77.867	0.139	0.048
-105.976	-92.549	0.385	0.108
-104.962	-5.486	-0.374	-0.255
-103.947	-71.309	0.390	-0.145
-102.932	684.006	-0.074	-0.192
-101.918	144.313	-0.202	0.269
-100.903	-22.905	0.220	-0.132
-99.889	-125.522	-0.177	0.027
-98.874	-8.019	0.176	0.118
-97.859	800.000	-0.101	-0.379
-96.845	291.935	0.176	-0.318
-95.830	-94.214	0.290	-0.079
-94.816	250.561	0.098	-0.166
-93.801	-21.128	-0.161	-0.098
-92.786	67.307	-0.158	-0.160
-91.772	112.700	0.120	0.145
-90.757	26.420	0.190	0.158
-89.743	-200.000	-0.007	-0.046
-88.728	743.203	0.126	0.338
-87.713	-73.803	0.211	0.076
-86.699	800.000	-0.050	-0.185
-85.684	104.205	0.314	0.367
-84.670	459.906	-0.060	0.132
-83.655	485.597	-0.069	-0.156
-82.640	-0.609	0.269	-0.190
-81.626	-200.000	0.256	-0.001
-80.611	207.638	0.049	0.076
-79.597	-23.541	0.126	0.075
-78.582	-200.000	-0.010	0.089
-77.567	800.000	-0.046	0.184
-76.553	512.329	0.065	0.151
-75.538	-127.589	-0.231	0.033
-74.524	-73.527	-0.079	-0.028
-73.509	146.088	-0.027	-0.036
-72.494	-200.000	0.002	0.350
-71.480	-45.997	-0.176	-0.086
-70.465	-200.000	-0.142	-0.000
-69.451	-120.289	0.221	-0.037
-68.436	32.059	0.172	-0.147
-67.422	800.000	0.048	-0.200
-66.407	800.000	-0.061	0.169
-65.392	642.676	0.074	-0.186
-64.378	-200.000	0.043	-0.205
-63.363	-36.000	-0.183	0.098
-62.349	-143.721	0.179	-0.017
-61.334	258.552	-0.541	-0.925
-60.319	572.684	0.141	0.341
-59.305	-200.000	-0.074	-0.905
-58.290	112.524	0.641	0.770
-57.276	663.293	0.636	1.628
-56.261	-200.000	88.957	506.216
-55.246	436.404	1428.186	3086.102
-54.232	141.443	2643.476	3472.989
-53.217	109.080	2246.541	2666.944
-52.203	47.213	1680.330	1552.378
-51.188	39.588	1408.740	1253.182
-50.173	36.551	1364.554	1195.087
-49.159	55.926	1409.346	1356.373
-48.144	59.891	1428.295	1399.451
-47.130	40.337	1384.749	1236.320
-46.115	36.444	1367.684	1196.976
-45.100	36.433	1362.349	1192.188
-44.086	36.289	1360.239	1189.410
-43.071	36.219	1357.709	1186.721
-42.057	36.140	1355.629	1184.367
-41.042	36.315	1353.427	1183.474
-40.027	36.347	1351.929	1182.311
-39.013	36.338	1350.073	1180.586
-37.998	36.342	1348.235	1178.955
-36.984	36.284	1346.316	1176.877
-35.969	36.310	1344.916	1175.764
-34.954	36.460	1342.908	1174.874
-33.940	36.391	1341.186	1172.901
-32.925	36.486	1339.896	1172.303
-31.911	36.495	1338.101	1170.741
-30.896	36.481	1336.803	1169.477
-29.881	36.479	1335.186	1168.001
-28.867	36.501	1333.788	1166.866
-27.852	36.566	1332.186	1165.811
-26.838	36.611	1330.443	1164.512
-25.823	36.431	1329.546	1162.597
-24.809	36.449	1327.869	1161.193
-23.794	36.438	1326.655	1160.019
-22.779	36.481	1324.882	1158.677
-21.765	36.525	1323.953	1158.085
-20.750	36.453	1322.707	1156.514
-19.736	36.417	1320.934	1154.706
-18.721	36.183	1320.133	1152.560
-17.706	36.333	1318.445	1151.935
-16.692	36.333	1317.531	1151.094
-15.677	36.420	1316.157	1150.364
-14.663	36.248	1315.456	1148.682
-13.648	36.274	1313.806	1147.350
-12.633	36.223	1313.116	1146.401
-11.619	36.196	1312.179	1145.376
-10.604	36.409	1311.082	1145.637
-9.590	36.342	1309.896	1144.156
-8.575	36.309	1309.224	1143.333
-7.560	36.211	1309.064	1142.564
-6.546	36.251	1307.839	1141.689
-5.531	36.325	1306.641	1141.033
-4.517	36.229	1305.793	1139.677
-3.502	36.233	1304.845	1138.832
-2.487	36.223	1303.880	1137.882
-1.473	36.368	1299.989	1135.295
-0.458	35.527	1285.137	1117.389
0.556	30.914	1267.928	1081.575
1.571	27.220	1272.777	1064.042
2.586	26.024	1287.450	1069.130
3.600	24.929	1276.698	1053.669
4.615	21.473	1205.419	975.518
5.629	15.816	1130.679	885.276
6.644	12.806	1110.418	853.761
7.659	12.720	1107.641	851.103
8.673	12.649	1106.186	849.548
9.688	12.575	1104.817	848.040
10.702	12.940	1103.489	848.825
11.717	16.659	1108.866	872.080
12.731	20.614	1113.342	895.939
13.746	19.784	1110.817	889.560
14.761	17.813	1107.502	876.712
15.775	16.596	1105.585	868.867
16.790	15.536	1103.140	861.436
17.804	14.789	1101.487	856.243
18.819	14.239	1100.600	852.660
19.834	13.941	1099.574	850.265
20.848	13.809	1098.338	848.558
21.863	13.397	1097.729	845.906
22.877	13.277	1096.882	844.564
23.892	13.254	1095.918	843.634
24.907	13.398	1094.894	843.505
25.921	13.400	1094.171	842.883
26.936	13.433	1092.754	841.885
27.950	13.584	1091.232	841.404
28.965	13.434	1090.332	839.874
29.980	13.597	1088.260	839.027
30.994	13.546	1087.196	837.879
32.009	13.661	1086.262	837.664
33.023	13.659	1085.000	836.608
34.038	13.527	1084.196	835.247
35.053	13.468	1083.200	834.109
36.067	13.461	1082.605	833.540
37.082	13.506	1081.593	832.915
38.096	13.519	1080.648	832.180
39.111	13.486	1079.994	831.435
40.126	13.525	1078.814	830.647
41.140	13.378	1077.336	828.700
42.155	13.341	1076.304	827.647
43.169	13.269	1075.594	826.671
44.184	13.286	1074.131	825.559
45.199	13.341	1072.858	824.780
46.213	13.312	1071.774	823.730
47.228	13.505	1070.527	823.657
48.242	13.438	1069.730	822.638
49.257	13.445	1068.595	821.728
50.271	13.318	1068.024	820.587
51.286	13.580	1066.855	820.912
52.301	13.596	1065.918	820.198
53.315	13.558	1064.904	819.157
54.330	13.409	1064.016	817.668
55.344	13.513	1062.972	817.307
56.359	13.413	1062.210	816.154
57.374	13.348	1060.933	814.783
58.388	13.312	1060.737	814.383
59.403	13.256	1059.757	813.283
60.417	13.271	1058.624	812.414
61.432	13.343	1057.441	811.788
62.447	13.196	1057.316	810.900
63.461	13.252	1056.022	810.109
64.476	13.197	1054.930	808.929
65.490	13.186	1054.630	808.575
66.505	13.277	1053.304	807.931
67.520	13.169	1052.892	807.013
68.534	13.292	1052.450	807.205
69.549	13.251	1051.766	806.408
70.563	13.247	1050.593	805.419
71.578	13.223	1049.586	804.459
72.593	13.097	1049.390	803.627
73.607	13.180	1048.227	803.065
74.622	13.217	1047.329	802.488
75.636	13.196	1047.083	802.128
76.651	13.187	1046.095	801.256
77.666	13.240	1045.392	800.903
78.680	13.176	1044.752	800.030
79.695	13.283	1044.350	800.173
80.709	13.254	1043.608	799.393
81.724	13.260	1043.257	799.078
82.739	13.371	1042.346	798.850
83.753	13.600	1041.169	798.981
84.768	13.587	1039.963	797.919
85.782	13.517	1039.579	797.216
86.797	13.551	1038.030	796.121
87.812	13.488	1037.406	795.271
88.826	13.472	1036.411	794.363
89.841	13.525	1035.488	793.840
90.855	13.566	1034.096	792.897
91.870	13.657	1033.263	792.625
92.884	13.468	1032.605	791.147
93.899	13.644	1031.594	791.140
94.914	13.609	1031.299	790.676
95.928	13.595	1030.065	789.594
96.943	13.540	1029.320	788.693
97.957	13.715	1027.979	788.427
98.972	13.563	1027.539	787.299
99.987	13.668	1026.051	786.584
101.001	13.556	1025.081	785.241
102.016	13.594	1024.512	784.916
103.030	13.654	1023.884	784.650
104.045	13.538	1023.530	783.761
105.060	13.430	1022.076	782.067
106.074	13.557	1020.940	781.729
107.089	13.318	1020.533	780.220
108.103	13.337	1019.315	779.310
109.118	13.294	1018.242	778.218
110.133	13.270	1017.576	777.525
111.147	13.380	1016.095	776.844
112.162	13.434	1015.636	776.677
113.176	13.516	1014.828	776.373
114.191	13.424	1014.304	775.474
115.206	13.491	1013.509	775.113
116.220	13.559	1012.412	774.521
117.235	13.437	1011.406	773.115
118.249	13.311	1010.800	771.993
119.264	13.459	1009.778	771.837
120.279	13.395	1008.986	770.865
121.293	13.306	1008.263	769.828
122.308	13.431	1007.611	769.845
123.322	13.359	1006.718	768.760
124.337	13.332	1005.399	767.556
125.352	13.413	1004.271	767.005
126.366	13.381	1002.806	765.671
127.381	13.406	1002.025	765.120
128.395	13.373	1001.683	764.642
129.410	13.492	1000.335	764.095
130.424	13.545	999.031	763.274
131.439	13.615	998.602	763.203
132.454	13.583	998.082	762.590
133.468	13.603	997.230	761.961
134.483	13.583	996.195	761.011
135.497	13.571	995.791	760.581
136.512	13.622	994.680	759.899
137.527	13.565	993.646	758.783
138.541	13.630	992.938	758.468
139.556	13.572	992.506	757.805
140.570	13.772	991.484	757.873
141.585	13.771	990.763	757.252
142.600	13.772	989.600	756.298
143.614	13.660	989.572	755.701
144.629	13.841	988.257	755.452
145.643	13.665	987.251	753.816
146.658	13.705	986.364	753.255
147.673	13.673	985.234	752.179
148.687	13.567	984.269	750.899
149.702	13.517	983.337	749.893
150.716	13.521	982.549	749.242
151.731	13.718	981.906	749.580
152.746	13.618	981.634	748.851
153.760	13.679	980.502	748.198
154.775	13.737	980.038	748.041
155.789	13.720	979.296	747.329
156.804	13.679	978.667	746.598
157.819	13.783	978.114	746.578
158.833	13.717	977.425	745.691
159.848	13.829	975.999	745.041
160.862	13.840	975.432	744.592
161.877	13.643	974.553	742.970
162.892	13.661	973.205	741.959
163.906	13.730	972.449	741.624
164.921	13.727	971.358	740.714
165.935	13.693	970.795	740.067
166.950	13.714	969.620	739.197
167.964	13.835	968.639	738.923
168.979	13.717	967.940	737.801
169.994	13.689	966.757	736.710
171.008	13.850	966.292	737.002
172.023	13.888	965.437	736.457
173.037	13.952	964.581	736.022
174.052	13.843	964.081	735.093
175.067	13.844	963.124	734.301
176.081	13.711	962.719	733.339
177.096	13.812	962.307	733.409
178.110	13.777	961.666	732.698
179.125	13.766	961.363	732.356
180.140	13.876	960.524	732.138
181.154	13.940	959.573	731.628
182.169	13.896	959.119	731.025
183.183	13.994	958.470	730.896
184.198	14.041	957.671	730.430
185.213	14.133	956.909	730.185
186.227	14.002	956.308	729.089
187.242	14.099	955.800	729.063
188.256	14.253	954.996	729.060
189.271	14.131	954.065	727.750
190.286	13.912	953.249	726.106
191.300	13.900	952.399	725.341
192.315	13.760	952.055	724.404
193.329	13.956	951.291	724.612
194.344	13.811	950.871	723.597
195.359	13.897	950.299	723.473
196.373	13.977	949.816	723.389
197.388	14.135	949.035	723.416
198.402	14.167	948.464	723.057
199.417	14.253	948.014	723.025
200.432	14.211	947.263	722.204
201.446	14.304	946.990	722.336
202.461	14.372	946.164	721.937
203.475	14.348	945.721	721.431
204.490	14.299	944.872	720.510
205.504	14.214	944.099	719.487
206.519	14.232	943.252	718.854
207.534	14.252	942.471	718.284
208.548	14.257	942.159	718.005
209.563	14.201	941.745	717.382
210.577	14.292	940.502	716.765
211.592	14.403	940.203	716.949
212.607	14.519	938.843	716.348
213.621	14.274	938.460	714.940
214.636	14.403	937.822	714.946
215.650	14.441	937.122	714.512
216.665	14.518	936.321	714.166
217.680	14.519	935.903	713.790
218.694	14.596	934.839	713.244
219.709	14.525	934.550	712.658
220.723	14.438	934.159	711.925
221.738	14.556	932.934	711.432
222.753	14.490	932.176	710.509
223.767	14.542	931.539	710.180
224.782	14.752	930.695	710.369
225.796	14.682	930.493	709.854
226.811	14.639	930.028	709.254
227.826	14.529	929.151	708.057
228.840	14.424	928.464	707.022
229.855	14.450	927.533	706.362
230.869	14.459	926.778	705.762
231.884	14.520	926.221	705.535
232.899	14.558	925.500	705.083
233.913	14.598	924.564	704.475
234.928	14.508	923.936	703.557
235.942	14.562	923.218	703.175
236.957	14.525	922.588	702.475
237.972	14.552	921.994	702.076
238.986	14.593	921.371	701.713
240.001	14.588	920.929	701.291
241.015	14.573	920.032	700.484
242.030	14.617	919.544	700.236
243.045	14.718	919.108	700.266
244.059	14.717	918.352	699.622
245.074	14.762	917.748	699.288
246.088	14.809	916.964	698.825
247.103	14.929	916.342	698.794
248.117	14.863	916.273	698.403
249.132	14.863	915.544	697.785
250.147	14.962	914.504	697.343
251.161	15.053	913.927	697.219
252.176	15.109	913.378	696.974
253.190	15.106	912.636	696.333
254.205	15.235	912.068	696.372
255.220	15.080	911.485	695.222
256.234	15.118	910.972	694.926
257.249	15.209	910.072	694.559
258.263	15.190	909.182	693.738
259.278	15.103	908.502	692.798
260.293	15.247	907.619	692.658
261.307	15.138	907.257	691.868
262.322	15.287	906.771	692.054
263.336	15.280	905.980	691.359
264.351	15.258	905.564	690.889
265.366	15.375	904.634	690.603
266.380	15.331	904.071	689.930
267.395	15.261	903.225	688.936
268.409	15.236	902.558	688.261
269.424	15.331	901.537	687.812
270.439	15.309	900.927	687.197
271.453	15.281	900.422	686.635
272.468	15.305	899.658	686.091
273.482	15.182	899.516	685.419
274.497	15.287	898.605	685.092
275.512	15.316	898.042	684.721
276.526	15.325	897.569	684.337
277.541	15.405	897.161	684.291
278.555	15.506	896.283	683.973
279.570	15.580	895.736	683.796
280.585	15.443	895.358	682.889
281.599	15.425	894.348	681.985
282.614	15.449	893.691	681.522
283.628	15.552	893.002	681.354
284.643	15.464	892.464	680.527
285.657	15.441	891.778	679.849
286.672	15.573	891.103	679.808
287.687	15.542	890.377	679.068
288.701	15.592	889.981	678.909
289.716	15.620	889.165	678.342
290.730	15.528	889.018	677.795
291.745	15.835	887.738	678.000
292.760	15.667	887.610	677.165
293.774	15.730	886.725	676.682
294.789	15.595	886.337	675.783
295.803	15.643	885.485	675.267
296.818	15.702	884.798	674.920
297.833	15.769	884.016	674.531
298.847	15.785	883.076	673.818
299.862	15.771	882.887	673.560
300.876	15.718	882.603	673.071
301.891	15.865	881.310	672.614
302.906	15.928	880.978	672.553
303.920	15.737	880.985	671.734
304.935	15.804	880.498	671.571
305.949	15.818	879.657	670.926
306.964	15.900	878.932	670.642
307.979	16.077	877.864	670.470
308.993	16.037	878.059	670.400
310.008	15.990	877.211	669.509
311.022	15.929	876.770	668.868
312.037	15.919	875.820	668.047
313.052	15.870	875.108	667.248
314.066	15.887	874.630	666.894
315.081	15.830	874.265	666.329
316.095	15.952	873.441	666.127
317.110	15.940	872.590	665.369
318.125	15.923	872.438	665.129
319.139	15.971	871.782	664.761
320.154	16.017	871.664	664.791
321.168	15.975	870.766	663.883
322.183	16.007	870.013	663.376
323.197	16.055	869.754	663.309
324.212	16.095	869.118	662.921
325.227	16.036	868.379	662.068
326.241	15.854	868.358	661.276
327.256	15.963	867.700	661.148
328.270	16.059	866.871	660.831
329.285	16.076	866.140	660.284
330.300	16.075	865.709	659.894
331.314	16.040	865.236	659.335
332.329	16.251	864.623	659.638
333.343	15.964	864.509	658.370
334.358	16.153	863.851	658.547
335.373	16.194	863.573	658.438
336.387	16.294	863.053	658.374
337.402	16.260	863.192	658.286
338.416	16.280	862.696	657.928
339.431	16.371	862.435	658.025
340.446	16.339	861.814	657.370
341.460	16.336	861.355	656.948
342.475	16.458	860.871	656.999
343.489	16.368	860.891	656.606
344.504	16.469	859.925	656.200
345.519	16.591	859.375	656.197
346.533	16.437	859.045	655.290
347.548	16.522	857.993	654.759
348.562	16.459	857.909	654.391
349.577	16.428	857.165	653.646
350.592	16.417	856.540	653.072
351.606	16.307	856.071	652.229
352.621	16.514	855.147	652.267
353.635	16.598	854.154	651.776
354.650	16.519	853.928	651.242
355.665	16.622	852.927	650.817
356.679	16.532	852.825	650.335
357.694	16.630	851.816	649.883
358.708	16.519	851.282	648.993
359.723	16.617	850.627	648.814
360.738	16.640	850.035	648.390
361.752	16.655	849.645	648.095
362.767	16.733	848.917	647.778
363.781	16.653	848.736	647.278
364.796	16.766	848.362	647.366
365.810	16.944	847.621	647.424
366.825	16.887	847.054	646.718
367.840	16.824	846.466	645.969
368.854	16.815	846.144	645.634
369.869	16.863	845.783	645.482
370.883	16.857	845.271	645.015
371.898	16.902	844.866	644.816
372.913	16.838	844.701	644.392
373.927	16.888	843.902	643.916
374.942	16.797	843.548	643.243
375.956	17.066	842.789	643.627
376.971	16.954	842.670	643.055
377.986	17.062	842.381	643.185
379.000	17.049	841.980	642.775
380.015	17.040	841.323	642.180
381.029	17.134	840.486	641.842
382.044	17.177	839.726	641.365
383.059	17.142	839.206	640.782
384.073	17.050	838.509	639.842
385.088	17.180	837.945	639.848
386.102	17.017	837.794	639.060
387.117	17.191	836.666	638.799
388.132	17.103	836.245	638.089
389.146	17.212	835.969	638.233
390.161	17.165	835.379	637.547
391.175	17.222	834.923	637.358
392.190	17.197	834.519	636.899
393.205	17.140	833.811	636.091
394.219	17.196	833.206	635.780
395.234	17.074	833.316	635.352
396.248	17.090	832.699	634.885
397.263	16.990	832.273	634.131
398.278	16.879	831.860	633.347
399.292	17.091	831.136	633.528
400.307	17.065	830.878	633.181
401.321	17.228	830.291	633.284
402.336	17.244	829.688	632.826
403.350	17.174	829.520	632.381
404.365	17.283	829.205	632.494
405.380	17.361	828.248	631.996
406.394	17.508	827.465	631.888
407.409	17.499	827.086	631.510
408.423	17.409	827.149	631.167
409.438	17.639	826.756	631.664
410.453	17.455	826.663	630.855
411.467	17.404	825.968	630.082
412.482	17.560	825.271	630.072
413.496	17.493	825.116	629.649
414.511	17.487	824.940	629.436
415.526	17.521	824.263	628.990
416.540	17.798	823.655	629.492
417.555	17.542	823.440	628.330
418.569	17.595	823.036	628.159
419.584	17.611	822.494	627.749
420.599	17.641	821.965	627.400
421.613	99.719	1282.351	1424.936
422.628	86.005	1349.438	1425.064
