DTS Sentinel unit serial number:	SN413079Multiplexer serial number:	ORYXHardware model number:	OX4-SRSoftware version number:	ORYX F/W v4.00 Oryx Data Collector v3.7.2.0data status	okinstallation	princeton_trtdifferential loss correction	single-endedforward channel	channel 1reverse channel	N/Adate	2019/09/18time	23:02:35forward acquisition time	60.00reverse acquisition time	0.00gamma	496.2192k internal	0.2341k external	0.2341temperature offset calibration	1.0017default loss term (dB/km)	0.3790temperature slope calibration	1.0000multiplexer offset coefficient	1.0000multiplexer slope coefficient	1.0000fibre end	0.00T internal ref (°C)	24.00T ext. ref 1 (°C)	0.78T ext. ref 2 (°C)	17.95length (m)	temperature (°C)	Stokes	anti-Stokes-747.200	100.402	-0.063	-0.073
-746.185	329.857	-0.208	0.400
-745.171	-200.000	-0.003	0.294
-744.156	98.452	0.149	-0.172
-743.142	800.000	-0.041	0.119
-742.127	-160.546	0.332	-0.018
-741.112	-23.014	0.109	-0.066
-740.098	-105.921	-0.247	-0.056
-739.083	-154.617	0.043	-0.003
-738.069	-79.638	-0.283	-0.095
-737.054	800.000	0.078	-0.235
-736.039	-10.691	-0.347	0.230
-735.025	59.087	-0.167	0.164
-734.010	-176.466	0.208	0.005
-732.996	800.000	0.044	-0.125
-731.981	-200.000	-0.009	-0.111
-730.966	-200.000	-0.024	-0.232
-729.952	-166.207	-0.211	0.009
-728.937	139.866	-0.129	-0.170
-727.923	-200.000	0.066	0.368
-726.908	23.219	-0.352	0.290
-725.894	18.406	-0.353	0.283
-724.879	-57.017	-0.083	-0.037
-723.864	-114.544	-0.244	0.047
-722.850	-98.786	-0.067	-0.017
-721.835	-200.000	0.013	0.444
-720.821	639.543	-0.166	0.423
-719.806	586.557	-0.079	0.194
-718.791	583.304	-0.160	0.393
-717.777	166.199	0.079	-0.112
-716.762	127.173	-0.213	-0.271
-715.748	-144.470	0.386	0.036
-714.733	361.878	0.113	0.226
-713.718	-105.306	0.241	0.055
-712.704	371.269	0.198	-0.402
-711.689	-200.000	0.018	-0.260
-710.675	25.469	-0.252	-0.210
-709.660	182.060	-0.179	0.265
-708.645	800.000	-0.063	-0.192
-707.631	-200.000	0.033	-0.278
-706.616	-119.202	-0.253	0.044
-705.602	-123.308	0.297	-0.047
-704.587	800.000	0.099	-0.322
-703.572	-164.700	0.116	0.005
-702.558	343.727	-0.058	0.114
-701.543	303.946	0.163	0.302
-700.529	-12.540	-0.204	-0.133
-699.514	-200.000	0.181	0.001
-698.499	-200.000	0.009	-0.081
-697.485	-52.064	-0.083	0.039
-696.470	372.076	-0.014	-0.028
-695.456	-200.000	0.037	-0.306
-694.441	800.000	0.078	0.218
-693.426	79.744	-0.142	0.152
-692.412	-90.973	-0.225	-0.065
-691.397	24.098	0.100	0.082
-690.383	-76.500	0.259	-0.091
-689.368	12.483	0.169	0.130
-688.354	-200.000	-0.003	-0.113
-687.339	769.476	0.042	-0.113
-686.324	-193.965	0.295	-0.002
-685.310	77.883	-0.298	-0.317
-684.295	9.572	-0.064	0.049
-683.281	-48.458	-0.278	0.134
-682.266	-28.062	0.128	0.074
-681.251	420.058	0.067	-0.143
-680.237	800.000	-0.070	-0.221
-679.222	-80.483	-0.265	-0.089
-678.208	142.614	-0.088	-0.117
-677.193	99.302	0.210	0.243
-676.178	-181.677	-0.157	0.003
-675.164	14.050	-0.137	0.106
-674.149	800.000	0.017	-0.067
-673.135	79.941	0.102	-0.110
-672.120	45.758	-0.043	0.039
-671.105	557.092	-0.125	0.302
-670.091	800.000	-0.038	-0.138
-669.076	-84.111	0.446	0.142
-668.062	99.963	-0.185	-0.214
-667.047	-130.111	-0.173	0.024
-666.032	-106.263	-0.213	-0.048
-665.018	-112.633	-0.257	-0.051
-664.003	-200.000	-0.007	0.345
-662.989	-200.000	-0.033	0.379
-661.974	-133.633	-0.118	0.015
-660.959	207.848	-0.142	0.221
-659.945	-200.000	-0.006	-0.172
-658.930	-54.434	0.220	-0.100
-657.916	166.160	0.030	-0.043
-656.901	800.000	-0.031	-0.116
-655.886	34.208	0.123	0.107
-654.872	555.742	0.131	-0.316
-653.857	-44.559	0.078	0.039
-652.843	210.690	-0.084	-0.133
-651.828	190.591	-0.175	-0.262
-650.814	340.889	0.085	0.167
-649.799	243.776	0.079	0.132
-648.784	575.497	0.092	0.225
-647.770	800.000	0.074	0.239
-646.755	34.583	-0.126	-0.110
-645.741	800.000	0.045	-0.184
-644.726	601.540	-0.095	0.236
-643.711	-5.925	0.115	-0.079
-642.697	-162.452	-0.223	0.011
-641.682	-43.020	0.026	0.013
-640.668	414.506	-0.113	-0.240
-639.653	-200.000	-0.010	-0.100
-638.638	86.573	-0.242	0.267
-637.624	28.872	-0.362	-0.306
-636.609	539.859	-0.033	-0.079
-635.595	751.143	-0.123	-0.332
-634.580	-51.321	0.089	0.042
-633.565	800.000	-0.046	0.129
-632.551	-69.072	-0.089	-0.034
-631.536	-17.907	0.251	0.157
-630.522	-200.000	0.267	0.000
-629.507	-200.000	0.011	-0.236
-628.492	-115.146	0.252	-0.048
-627.478	11.218	-0.072	-0.055
-626.463	-200.000	-0.009	0.102
-625.449	193.247	-0.026	0.039
-624.434	578.234	0.128	0.313
-623.419	-69.846	0.204	0.078
-622.405	-47.646	0.099	-0.048
-621.390	-200.000	0.073	0.325
-620.376	-166.167	-0.094	-0.004
-619.361	-17.145	-0.353	-0.222
-618.346	-200.000	0.032	0.250
-617.332	-200.000	0.035	-0.207
-616.317	191.097	0.025	0.038
-615.303	78.653	-0.204	0.218
-614.288	-137.964	-0.313	0.035
-613.273	-200.000	-0.044	-0.322
-612.259	-114.001	0.390	0.075
-611.244	800.000	-0.079	-0.334
-610.230	439.444	0.211	-0.460
-609.215	73.326	-0.155	0.162
-608.201	-6.525	-0.231	0.157
-607.186	-67.181	-0.214	-0.084
-606.171	-78.987	0.209	0.071
-605.157	7.412	-0.391	-0.291
-604.142	44.995	0.030	-0.028
-603.128	-200.000	-0.013	-0.110
-602.113	13.804	-0.205	-0.159
-601.098	-48.143	0.082	-0.039
-600.084	-136.796	0.084	0.010
-599.069	800.000	-0.032	0.134
-598.055	501.649	0.071	0.162
-597.040	399.449	-0.135	-0.281
-596.025	-77.823	-0.576	-0.198
-595.011	-192.898	-0.106	0.001
-593.996	-151.246	0.052	0.004
-592.982	800.000	-0.050	0.161
-591.967	-115.005	-0.128	0.024
-590.952	132.163	-0.132	-0.170
-589.938	11.018	-0.205	-0.156
-588.923	-51.947	-0.216	0.100
-587.909	800.000	0.080	-0.342
-586.894	-181.851	-0.238	-0.005
-585.879	-31.603	0.142	0.080
-584.865	401.710	-0.095	-0.198
-583.850	-22.242	-0.346	0.209
-582.836	-118.819	-0.320	0.056
-581.821	-200.000	0.030	-0.333
-580.806	-103.548	-0.043	0.010
-579.792	436.436	0.109	-0.236
-578.777	-159.515	-0.267	-0.015
-577.763	-200.000	0.008	-0.062
-576.748	392.446	0.123	-0.255
-575.733	-200.000	0.002	-0.031
-574.719	-54.029	0.305	0.138
-573.704	800.000	-0.022	-0.066
-572.690	-147.373	0.113	-0.010
-571.675	-112.940	0.188	0.037
-570.661	-67.682	0.144	-0.056
-569.646	-2.951	0.260	-0.181
-568.631	27.985	0.281	-0.236
-567.617	800.000	0.051	-0.158
-566.602	800.000	-0.096	-0.386
-565.588	800.000	0.057	0.157
-564.573	-120.762	-0.208	0.035
-563.558	-200.000	0.015	0.095
-562.544	123.933	-0.215	-0.269
-561.529	-131.433	-0.218	0.029
-560.515	-127.483	-0.426	-0.062
-559.500	-158.540	-0.350	0.020
-558.485	800.000	0.124	0.355
-557.471	213.020	-0.216	-0.339
-556.456	-111.023	-0.295	-0.060
-555.442	-157.573	0.223	0.013
-554.427	521.287	0.089	0.208
-553.412	-17.522	-0.269	-0.168
-552.398	220.728	-0.141	0.225
-551.383	-137.366	-0.073	-0.008
-550.369	170.703	0.083	-0.118
-549.354	412.377	0.096	0.203
-548.339	23.467	0.087	0.071
-547.325	173.454	-0.085	0.122
-546.310	-16.765	0.176	-0.111
-545.296	-31.852	-0.141	0.079
-544.281	49.005	-0.103	0.096
-543.266	111.609	-0.117	-0.140
-542.252	-200.000	-0.053	0.261
-541.237	-81.409	-0.319	0.104
-540.223	-52.398	-0.016	0.007
-539.208	128.415	0.140	0.177
-538.193	-188.709	-0.213	-0.003
-537.179	-135.887	-0.345	-0.040
-536.164	78.947	0.150	-0.159
-535.150	-200.000	-0.056	0.396
-534.135	-178.260	-0.162	0.004
-533.121	-200.000	0.022	0.350
-532.106	-105.594	0.234	-0.053
-531.091	-26.435	0.169	0.098
-530.077	800.000	-0.047	-0.148
-529.062	-61.535	-0.118	-0.049
-528.048	-62.674	0.162	-0.067
-527.033	-84.977	0.366	-0.114
-526.018	-24.690	0.225	-0.133
-525.004	-200.000	-0.132	-0.000
-523.989	-108.514	0.229	-0.049
-522.975	10.357	-0.141	-0.106
-521.960	217.942	-0.100	-0.159
-520.945	130.582	0.127	0.161
-519.931	-154.249	0.244	0.016
-518.916	246.672	-0.083	-0.140
-517.902	-200.000	-0.006	-0.075
-516.887	-182.693	0.203	-0.004
-515.872	-143.775	-0.253	-0.024
-514.858	-200.000	0.028	0.172
-513.843	-200.000	-0.005	-0.329
-512.829	149.488	-0.120	-0.162
-511.814	-188.297	0.265	0.003
-510.799	-200.000	0.038	-0.196
-509.785	64.109	-0.147	-0.147
-508.770	-200.000	0.014	-0.102
-507.756	-28.636	0.167	-0.095
-506.741	7.691	0.074	0.055
-505.726	170.899	-0.072	-0.103
-504.712	-96.918	0.078	0.020
-503.697	-200.000	-0.007	-0.354
-502.683	336.238	-0.060	0.116
-501.668	50.120	0.114	-0.107
-500.653	270.031	-0.094	0.164
-499.639	400.307	-0.123	-0.256
-498.624	-132.400	-0.050	0.006
-497.610	565.067	0.140	-0.336
-496.595	-57.838	0.171	-0.074
-495.581	239.953	-0.041	-0.068
-494.566	-133.351	-0.270	-0.034
-493.551	166.753	-0.045	-0.063
-492.537	-105.849	0.316	-0.071
-491.522	48.743	0.181	0.168
-490.508	-97.059	0.344	-0.089
-489.493	119.926	0.126	0.155
-488.478	-142.507	0.289	-0.028
-487.464	-102.398	-0.487	0.116
-486.449	-1.064	0.058	0.041
-485.435	-67.083	0.136	0.053
-484.420	52.276	-0.113	-0.107
-483.405	-9.791	0.040	0.027
-482.391	-7.767	-0.058	0.039
-481.376	627.465	0.036	-0.091
-480.362	-200.000	-0.019	0.095
-479.347	-81.004	-0.277	0.091
-478.332	-51.568	0.334	0.155
-477.318	800.000	-0.051	0.165
-476.303	-84.517	0.233	0.073
-475.289	-167.670	-0.171	0.007
-474.274	-11.435	0.059	0.039
-473.259	-200.000	-0.012	0.113
-472.245	-58.312	-0.372	-0.161
-471.230	-89.882	0.277	-0.080
-470.216	-148.679	0.141	-0.011
-469.201	-66.417	0.143	-0.056
-468.186	-169.849	-0.124	-0.004
-467.172	116.919	-0.149	0.181
-466.157	-136.721	0.215	-0.025
-465.143	-200.000	-0.005	0.298
-464.128	800.000	0.061	-0.247
-463.113	44.702	-0.258	0.236
-462.099	27.659	0.184	0.153
-461.084	-99.110	0.165	0.041
-460.070	131.270	0.126	-0.160
-459.055	782.775	0.102	0.277
-458.040	-200.000	0.020	0.424
-457.026	-84.725	0.425	-0.133
-456.011	-49.197	-0.242	0.114
-454.997	800.000	0.046	0.161
-453.982	-200.000	0.008	0.188
-452.968	361.636	-0.103	-0.206
-451.953	-116.530	0.442	-0.081
-450.938	-200.000	0.024	0.160
-449.924	283.489	-0.054	0.096
-448.909	-200.000	-0.013	0.176
-447.895	164.328	0.063	0.088
-446.880	-25.823	-0.151	0.088
-445.865	800.000	0.081	0.308
-444.851	98.215	0.078	0.089
-443.836	-130.337	-0.189	0.025
-442.822	471.000	0.053	0.118
-441.807	215.623	0.080	0.126
-440.792	54.831	-0.208	0.199
-439.778	-200.000	0.047	-0.223
-438.763	-63.956	-0.172	-0.070
-437.749	-200.000	-0.030	0.273
-436.734	-200.000	-0.021	0.117
-435.719	-78.978	0.186	-0.063
-434.705	-137.493	0.223	0.025
-433.690	360.347	-0.098	0.194
-432.676	-200.000	0.089	0.000
-431.661	800.000	-0.136	-0.388
-430.646	800.000	-0.078	-0.281
-429.632	-200.000	0.066	0.471
-428.617	800.000	-0.126	0.367
-427.603	39.660	0.212	0.188
-426.588	61.062	-0.239	0.235
-425.573	-60.782	-0.143	0.060
-424.559	121.001	-0.045	-0.055
-423.544	-63.272	0.109	-0.044
-422.530	24.843	-0.058	-0.047
-421.515	-108.810	-0.182	0.039
-420.500	544.392	-0.002	0.005
-419.486	593.629	-0.182	0.444
-418.471	150.439	-0.119	0.160
-417.457	339.513	0.022	-0.042
-416.442	-114.926	-0.091	-0.017
-415.428	800.000	0.081	-0.263
-414.413	184.141	-0.082	0.120
-413.398	-200.000	-0.089	0.400
-412.384	-137.100	0.031	0.003
-411.369	-61.808	0.240	-0.099
-410.355	8.770	-0.154	0.115
-409.340	-152.000	0.374	-0.027
-408.325	-66.981	-0.372	-0.145
-407.311	-168.475	-0.362	0.014
-406.296	-200.000	0.001	0.104
-405.282	-200.000	-0.018	-0.278
-404.267	-200.000	-0.050	0.277
-403.252	-163.006	0.302	0.014
-402.238	-141.461	-0.244	0.024
-401.223	-9.630	-0.152	-0.100
-400.209	49.798	-0.070	0.065
-399.194	98.585	0.140	0.160
-398.179	-200.000	0.066	-0.377
-397.165	800.000	-0.028	0.098
-396.150	-200.000	0.007	0.140
-395.136	92.692	-0.024	0.027
-394.121	790.563	0.136	0.368
-393.106	-73.756	0.227	0.081
-392.092	-200.000	0.001	-0.017
-391.077	-163.375	-0.115	-0.005
-390.063	260.086	-0.223	-0.381
-389.048	200.777	-0.128	-0.195
-388.033	-27.580	0.255	0.147
-387.019	-200.000	0.013	0.215
-386.004	-123.317	0.321	-0.051
-384.990	734.908	-0.113	-0.299
-383.975	217.755	0.198	-0.311
-382.960	-131.327	-0.032	0.004
-381.946	-158.430	0.325	0.019
-380.931	-67.353	-0.159	0.062
-379.917	-47.443	-0.267	0.128
-378.902	-200.000	-0.007	0.101
-377.888	-134.329	0.276	-0.033
-376.873	-152.337	-0.116	-0.008
-375.858	-200.000	0.020	0.224
-374.844	-97.708	0.153	-0.039
-373.829	800.000	0.065	0.234
-372.815	223.504	0.111	-0.178
-371.800	-91.881	-0.275	-0.077
-370.785	-99.674	0.245	-0.061
-369.771	120.982	-0.157	0.193
-368.756	22.418	-0.196	-0.158
-367.742	6.616	-0.183	-0.134
-366.727	-9.234	0.068	0.045
-365.712	-200.000	0.000	0.168
-364.698	57.087	0.071	-0.069
-363.683	-52.727	-0.134	-0.061
-362.669	-70.686	-0.214	0.080
-361.654	766.732	-0.066	0.176
-360.639	-200.000	0.046	0.262
-359.625	-200.000	0.056	0.329
-358.610	-109.386	-0.369	-0.077
-357.596	123.116	0.222	-0.274
-356.581	637.930	0.076	0.190
-355.566	-200.000	0.012	0.067
-354.552	-30.006	-0.245	0.137
-353.537	-87.286	0.509	0.152
-352.523	327.451	-0.054	0.102
-351.508	-200.000	-0.041	0.313
-350.493	-101.818	0.229	-0.055
-349.479	-136.391	0.129	-0.015
-348.464	-21.075	-0.255	-0.154
-347.450	166.671	0.170	-0.238
-346.435	24.412	-0.196	-0.160
-345.420	-24.272	0.081	0.048
-344.406	191.661	0.067	-0.100
-343.391	96.202	0.170	0.192
-342.377	-200.000	-0.004	-0.450
-341.362	-92.381	-0.170	-0.047
-340.348	800.000	-0.026	0.074
-339.333	157.206	-0.241	0.329
-338.318	-80.338	-0.328	0.108
-337.304	162.203	0.185	0.256
-336.289	50.462	0.236	-0.220
-335.275	111.711	-0.225	-0.268
-334.260	-19.401	0.054	-0.033
-333.245	-200.000	0.065	-0.315
-332.231	-200.000	0.060	0.273
-331.216	13.638	0.338	0.259
-330.202	-104.492	0.210	0.048
-329.187	-139.662	0.249	0.026
-328.172	41.814	0.222	-0.199
-327.158	774.195	0.097	0.260
-326.143	-73.017	0.213	-0.077
-325.129	223.590	0.055	-0.088
-324.114	-54.933	-0.170	0.075
-323.099	-40.230	0.211	-0.108
-322.085	-23.601	0.194	-0.115
-321.070	232.552	0.086	0.140
-320.056	-200.000	-0.006	0.085
-319.041	-200.000	0.005	-0.089
-318.026	244.529	0.059	0.097
-317.012	800.000	-0.076	-0.265
-315.997	59.554	0.020	-0.020
-314.983	-87.783	-0.141	-0.042
-313.968	800.000	-0.141	-0.459
-312.953	-63.424	0.075	-0.030
-311.939	-200.000	0.010	0.351
-310.924	-103.071	-0.077	0.018
-309.910	-200.000	0.018	-0.114
-308.895	800.000	-0.045	0.133
-307.880	-57.126	-0.294	-0.128
-306.866	11.230	0.148	-0.111
-305.851	151.121	0.091	-0.122
-304.837	-57.220	0.275	-0.119
-303.822	-58.826	-0.109	0.047
-302.807	-200.000	0.061	0.350
-301.793	-51.668	-0.237	-0.109
-300.778	155.611	0.123	-0.166
-299.764	-200.000	0.080	-0.652
-298.749	-164.617	-0.188	-0.008
-297.735	399.509	-0.150	0.309
-296.720	336.296	0.117	0.225
-295.705	-141.019	-0.289	-0.029
-294.691	153.081	0.075	-0.101
-293.676	-93.876	-0.319	-0.086
-292.662	-145.314	0.171	-0.015
-291.647	-200.000	-0.024	-0.311
-290.632	-15.093	0.170	0.107
-289.618	115.782	0.127	-0.153
-288.603	211.423	0.066	-0.102
-287.589	-22.427	0.109	-0.065
-286.574	-169.446	-0.175	-0.006
-285.559	229.405	-0.202	0.324
-284.545	-138.859	0.199	0.021
-283.530	76.086	0.199	0.207
-282.516	-161.652	0.119	0.006
-281.501	800.000	-0.121	-0.485
-280.486	-36.939	0.282	0.149
-279.472	-140.223	0.028	0.003
-278.457	67.321	-0.079	0.079
-277.443	-32.457	0.088	-0.048
-276.428	-137.823	-0.239	0.026
-275.413	-149.137	-0.176	0.014
-274.399	-115.599	0.208	0.038
-273.384	-11.831	0.274	0.177
-272.370	-200.000	0.057	0.288
-271.355	123.644	0.203	-0.250
-270.340	-200.000	-0.004	0.055
-269.326	800.000	0.191	0.532
-268.311	800.000	0.148	-0.446
-267.297	-57.451	-0.233	-0.101
-266.282	-91.332	0.260	-0.073
-265.267	38.477	-0.056	-0.050
-264.253	800.000	-0.034	0.104
-263.238	-122.714	-0.283	0.045
-262.224	-144.778	0.234	0.021
-261.209	-200.000	0.025	-0.220
-260.195	145.401	-0.149	-0.196
-259.180	-149.249	-0.156	0.012
-258.165	-11.177	-0.099	-0.064
-257.151	0.508	-0.278	-0.195
-256.136	-107.425	0.314	0.068
-255.122	800.000	-0.092	-0.301
-254.107	-100.588	-0.215	-0.052
-253.092	-200.000	-0.024	-0.348
-252.078	-200.000	-0.053	-0.234
-251.063	56.571	0.004	0.004
-250.049	246.022	0.071	-0.117
-249.034	-200.000	0.004	-0.220
-248.019	168.880	0.152	-0.214
-247.005	-10.840	0.358	0.233
-245.990	-200.000	0.015	0.505
-244.976	167.922	-0.036	-0.050
-243.961	-76.486	0.184	-0.064
-242.946	11.433	0.158	-0.119
-241.932	-131.035	0.118	0.015
-240.917	-81.365	0.254	-0.082
-239.903	125.117	-0.126	-0.156
-238.888	70.781	-0.170	0.173
-237.873	-31.011	-0.050	-0.028
-236.859	386.451	0.053	0.107
-235.844	-18.206	-0.203	-0.125
-234.830	1.882	0.250	-0.177
-233.815	45.432	0.252	-0.228
-232.800	-186.312	-0.205	-0.003
-231.786	133.773	0.197	0.251
-230.771	-41.731	0.177	0.089
-229.757	-200.000	0.003	0.215
-228.742	141.258	0.041	-0.054
-227.727	127.551	-0.113	0.141
-226.713	800.000	-0.033	0.100
-225.698	11.804	-0.157	-0.119
-224.684	189.477	-0.126	-0.186
-223.669	-81.585	0.028	-0.009
-222.655	800.000	0.068	0.247
-221.640	-19.735	0.298	-0.181
-220.625	-15.727	0.266	0.167
-219.611	734.351	0.117	0.309
-218.596	-98.945	-0.190	-0.047
-217.582	800.000	0.043	-0.155
-216.567	292.099	-0.063	-0.113
-215.552	800.000	0.033	0.139
-214.538	-200.000	-0.075	0.403
-213.523	8.956	-0.133	0.099
-212.509	-76.768	0.383	0.132
-211.494	-152.054	-0.169	-0.012
-210.479	-86.855	0.126	0.038
-209.465	46.189	0.236	0.214
-208.450	-43.526	-0.150	-0.074
-207.436	-200.000	0.014	0.314
-206.421	-170.431	0.110	0.004
-205.406	-16.535	0.095	-0.059
-204.392	232.506	0.137	0.221
-203.377	-161.868	0.291	0.014
-202.363	-200.000	0.059	-0.276
-201.348	-200.000	-0.183	0.000
-200.333	299.295	-0.040	0.072
-199.319	167.826	-0.142	-0.199
-198.304	216.003	-0.035	-0.055
-197.290	800.000	-0.083	0.290
-196.275	-41.061	0.123	0.063
-195.260	-200.000	0.033	-0.213
-194.246	-15.663	0.380	0.238
-193.231	-17.138	-0.070	0.044
-192.217	220.030	-0.059	0.093
-191.202	-100.183	-0.144	0.035
-190.187	27.409	-0.257	-0.212
-189.173	57.479	-0.123	-0.118
-188.158	380.075	-0.095	-0.192
-187.144	752.227	-0.119	-0.316
-186.129	800.000	0.060	0.200
-185.114	312.878	-0.069	0.127
-184.100	-7.463	-0.168	0.111
-183.085	-126.569	0.052	0.008
-182.071	14.368	-0.245	0.188
-181.056	-74.563	-0.146	-0.052
-180.042	6.917	-0.279	0.203
-179.027	-105.584	-0.264	-0.059
-178.012	800.000	0.105	-0.378
-176.998	-171.696	-0.117	-0.004
-175.983	800.000	-0.069	-0.293
-174.969	800.000	-0.058	-0.196
-173.954	388.085	0.151	0.307
-172.939	31.348	0.377	0.317
-171.925	-88.279	0.094	0.028
-170.910	-200.000	-0.011	0.192
-169.896	438.170	0.067	-0.142
-168.881	35.609	0.232	-0.200
-167.866	-200.000	0.038	0.319
-166.852	-162.140	0.252	-0.012
-165.837	-118.277	-0.118	-0.021
-164.823	-86.396	-0.118	-0.036
-163.808	18.127	0.262	-0.205
-162.793	800.000	0.022	-0.073
-161.779	-114.523	0.203	-0.038
-160.764	-38.183	-0.319	0.166
-159.750	-163.095	0.484	0.023
-158.735	505.726	0.108	-0.246
-157.720	800.000	-0.051	-0.162
-156.706	76.020	-0.083	-0.086
-155.691	-7.056	-0.332	0.221
-154.677	-150.010	-0.190	-0.014
-153.662	6.167	-0.335	-0.243
-152.647	-65.315	-0.210	0.083
-151.633	-200.000	-0.015	0.131
-150.618	453.964	0.052	0.113
-149.604	-31.790	0.136	0.075
-148.589	-4.517	0.372	0.251
-147.574	58.846	-0.155	0.149
-146.560	118.001	-0.104	-0.126
-145.545	800.000	0.135	0.457
-144.531	17.730	-0.207	0.161
-143.516	-200.000	-0.023	-0.249
-142.502	-30.307	0.242	0.134
-141.487	356.326	0.242	0.472
-140.472	373.755	0.106	0.212
-139.458	-31.708	0.176	0.097
-138.443	-40.886	-0.078	-0.040
-137.429	-134.221	0.363	-0.044
-136.414	111.479	-0.230	-0.271
-135.399	-14.337	0.361	0.228
-134.385	-78.696	-0.289	0.097
-133.370	-200.000	-0.017	-0.252
-132.356	-127.194	0.240	-0.034
-131.341	800.000	0.043	0.131
-130.326	293.105	0.182	-0.325
-129.312	12.116	0.114	0.086
-128.297	-114.524	0.201	-0.038
-127.283	-173.855	-0.038	0.001
-126.268	800.000	0.077	-0.285
-125.253	-29.913	0.218	0.121
-124.239	-175.671	0.279	-0.007
-123.224	-200.000	-0.020	-0.143
-122.210	18.174	0.040	0.031
-121.195	-124.819	0.220	-0.033
-120.180	169.731	-0.191	-0.267
-119.166	-91.578	-0.168	0.047
-118.151	-200.000	0.031	0.300
-117.137	563.478	0.075	-0.177
-116.122	-138.846	0.224	0.024
-115.107	-200.000	-0.071	0.417
-114.093	172.625	0.119	0.167
-113.078	247.733	-0.139	0.230
-112.064	-132.466	0.135	-0.017
-111.049	-77.279	0.091	0.031
-110.034	-200.000	-0.012	0.066
-109.020	-56.438	0.460	-0.200
-108.005	-60.986	-0.362	-0.150
-106.991	-84.847	0.405	0.124
-105.976	800.000	0.128	0.414
-104.962	86.376	0.209	-0.226
-103.947	-40.637	0.069	-0.035
-102.932	-45.864	-0.111	-0.054
-101.918	-26.182	0.127	-0.073
-100.903	159.677	-0.054	-0.073
-99.889	161.503	-0.085	-0.116
-98.874	-200.000	0.009	-0.126
-97.859	-200.000	-0.042	0.211
-96.845	83.809	-0.166	-0.177
-95.830	800.000	0.058	0.160
-94.816	-88.893	0.098	-0.028
-93.801	-200.000	0.003	-0.029
-92.786	566.021	0.040	0.094
-91.772	-200.000	0.114	0.540
-90.757	89.373	-0.121	0.132
-89.743	86.612	0.280	-0.302
-88.728	47.617	0.042	0.038
-87.713	87.707	-0.206	0.223
-86.699	-200.000	0.000	-0.150
-85.684	-132.147	0.173	-0.022
-84.670	436.754	0.060	-0.128
-83.655	800.000	-0.070	0.224
-82.640	217.242	-0.085	-0.132
-81.626	-87.817	-0.138	-0.041
-80.611	-151.615	-0.250	-0.018
-79.597	-200.000	0.019	0.379
-78.582	800.000	0.087	-0.339
-77.567	-148.224	-0.242	-0.020
-76.553	-200.000	-0.036	0.238
-75.538	339.692	0.041	0.079
-74.524	800.000	0.137	-0.412
-73.509	383.881	0.147	0.296
-72.494	-200.000	0.002	-0.203
-71.480	244.431	0.154	0.252
-70.465	-53.507	-0.109	-0.049
-69.451	-133.665	-0.246	0.030
-68.436	118.042	-0.157	0.189
-67.422	-142.887	0.376	-0.036
-66.407	144.699	-0.223	0.291
-65.392	138.007	0.065	0.083
-64.378	581.769	0.108	0.258
-63.363	227.663	-0.191	-0.304
-62.349	234.792	0.108	0.174
-61.334	30.389	-0.983	-0.820
-60.319	195.342	0.633	0.938
-59.305	600.940	-0.491	-1.190
-58.290	800.000	0.447	1.528
-57.276	800.000	0.592	1.620
-56.261	-200.000	122.369	646.499
-55.246	430.184	1546.053	3263.930
-54.232	146.666	2697.563	3536.254
-53.217	97.828	2142.022	2403.260
-52.203	35.402	1582.952	1354.869
-51.188	27.415	1327.724	1088.831
-50.173	24.616	1290.954	1042.335
-49.159	51.754	1359.635	1261.689
-48.144	49.168	1370.848	1256.548
-47.130	27.359	1319.198	1081.333
-46.115	24.169	1300.191	1046.997
-45.100	23.996	1295.144	1041.879
-44.086	23.938	1292.829	1039.638
-43.071	23.939	1290.166	1037.457
-42.057	23.829	1288.518	1035.451
-41.042	23.916	1286.781	1034.522
-40.027	23.822	1285.590	1032.974
-39.013	23.871	1283.749	1031.739
-37.998	23.904	1281.726	1030.262
-36.984	23.964	1280.238	1029.375
-35.969	23.965	1278.314	1027.795
-34.954	23.935	1276.649	1026.237
-33.940	24.045	1275.159	1025.636
-32.925	24.196	1273.898	1025.449
-31.911	24.014	1273.268	1023.853
-30.896	24.000	1271.468	1022.288
-29.881	24.135	1270.070	1021.895
-28.867	24.136	1268.626	1020.701
-27.852	24.165	1267.457	1019.885
-26.838	24.144	1265.847	1018.431
-25.823	24.049	1264.784	1016.989
-24.809	24.031	1263.578	1015.880
-23.794	24.070	1262.372	1015.089
-22.779	24.054	1260.609	1013.544
-21.765	24.164	1259.031	1012.856
-20.750	24.069	1258.575	1011.909
-19.736	24.022	1257.366	1010.632
-18.721	24.031	1255.896	1009.463
-17.706	23.986	1255.150	1008.568
-16.692	23.995	1253.748	1007.450
-15.677	23.927	1252.788	1006.255
-14.663	23.922	1251.591	1005.222
-13.648	23.918	1250.422	1004.226
-12.633	23.984	1249.074	1003.473
-11.619	24.023	1248.992	1003.586
-10.604	23.956	1248.038	1002.404
-9.590	23.918	1247.148	1001.436
-8.575	23.872	1246.123	1000.316
-7.560	23.842	1245.479	999.589
-6.546	23.963	1244.315	999.294
-5.531	23.958	1243.394	998.488
-4.517	23.910	1243.088	997.934
-3.502	23.829	1242.532	996.990
-2.487	24.019	1241.040	996.817
-1.473	23.937	1236.767	992.889
-0.458	22.262	1222.083	971.814
0.556	17.948	1206.341	935.562
1.571	14.252	1213.836	920.881
2.586	13.554	1228.558	928.053
3.600	13.586	1216.340	918.922
4.615	10.028	1145.460	846.686
5.629	3.811	1074.430	763.483
6.644	0.945	1057.657	737.549
7.659	0.773	1055.760	735.326
8.673	0.684	1055.013	734.308
9.688	0.718	1053.459	733.328
10.702	0.924	1051.364	732.798
11.717	4.621	1055.626	753.649
12.731	11.600	1064.865	794.204
13.746	16.082	1070.462	820.157
14.761	17.425	1071.102	827.105
15.775	16.598	1069.661	821.905
16.790	15.670	1067.812	815.911
17.804	14.953	1066.119	811.070
18.819	14.590	1064.843	808.270
19.834	14.418	1064.145	806.833
20.848	14.130	1063.323	804.748
21.863	13.840	1062.574	802.704
22.877	13.839	1061.329	801.691
23.892	13.693	1060.800	800.512
24.907	13.677	1060.472	800.118
25.921	13.812	1059.536	799.993
26.936	13.694	1058.750	798.758
27.950	13.722	1058.104	798.337
28.965	13.725	1056.532	797.095
29.980	13.886	1054.997	796.640
30.994	13.883	1053.959	795.770
32.009	13.787	1053.354	794.783
33.023	13.917	1052.201	794.463
34.038	13.822	1051.387	793.323
35.053	13.769	1050.825	792.579
36.067	13.837	1049.352	791.720
37.082	13.749	1048.848	790.849
38.096	13.949	1047.852	790.982
39.111	13.943	1046.883	790.154
40.126	13.835	1045.550	788.565
41.140	13.688	1044.751	787.195
42.155	13.640	1044.055	786.373
43.169	13.630	1042.920	785.400
44.184	13.777	1041.420	784.895
45.199	13.558	1040.878	783.381
46.213	13.622	1039.784	782.794
47.228	13.805	1038.463	782.593
48.242	13.680	1037.338	781.086
49.257	13.748	1036.458	780.675
50.271	13.763	1035.938	780.286
51.286	13.800	1034.855	779.573
52.301	13.736	1034.030	778.580
53.315	13.727	1032.796	777.540
54.330	13.809	1031.789	777.098
55.344	13.687	1031.084	775.930
56.359	13.767	1030.059	775.465
57.374	13.703	1029.118	774.387
58.388	13.735	1028.420	773.943
59.403	13.760	1027.537	773.326
60.417	13.726	1026.809	772.549
61.432	13.644	1025.736	771.295
62.447	13.637	1025.111	770.722
63.461	13.697	1024.118	770.184
64.476	13.699	1023.230	769.461
65.490	13.711	1022.249	768.708
66.505	13.619	1022.018	768.040
67.520	13.677	1021.518	767.867
68.534	13.792	1020.536	767.592
69.549	13.547	1020.012	765.998
70.563	13.570	1019.609	765.733
71.578	13.565	1018.694	764.957
72.593	13.574	1017.887	764.324
73.607	13.575	1017.006	763.599
74.622	13.606	1016.467	763.268
75.636	13.622	1015.410	762.481
76.651	13.598	1015.200	762.144
77.666	13.504	1014.349	761.007
78.680	13.599	1013.885	761.030
79.695	13.679	1012.596	760.362
80.709	13.644	1012.941	760.392
81.724	13.684	1012.016	759.813
82.739	13.636	1011.347	759.026
83.753	13.931	1010.264	759.492
84.768	13.911	1009.070	758.436
85.782	13.829	1008.413	757.501
86.797	13.866	1007.006	756.545
87.812	13.815	1006.614	755.955
88.826	13.781	1005.527	754.914
89.841	13.770	1004.994	754.398
90.855	13.941	1003.013	753.619
91.870	13.806	1002.743	752.739
92.884	13.935	1002.193	752.844
93.899	13.830	1001.431	751.731
94.914	13.804	1000.893	751.141
95.928	13.922	999.868	750.837
96.943	13.895	998.831	749.873
97.957	13.882	997.996	749.120
98.972	13.963	996.835	748.548
99.987	13.900	996.156	747.690
101.001	13.815	995.211	746.529
102.016	13.830	994.458	745.965
103.030	13.873	993.767	745.575
104.045	13.813	993.107	744.745
105.060	13.891	991.735	744.001
106.074	13.814	991.423	743.356
107.089	13.666	990.076	741.616
108.103	13.730	989.569	741.457
109.118	13.728	988.761	740.779
110.133	13.817	987.116	739.877
111.147	13.799	986.769	739.473
112.162	13.728	986.313	738.746
113.176	13.776	984.946	737.873
114.191	13.990	984.275	738.257
115.206	13.779	984.069	737.099
116.220	13.974	982.555	736.764
117.235	13.807	981.948	735.501
118.249	13.750	981.290	734.693
119.264	13.859	980.160	734.264
120.279	13.890	979.739	734.020
121.293	13.786	978.911	732.877
122.308	13.738	978.074	731.973
123.322	13.852	977.107	731.687
124.337	13.846	975.434	730.342
125.352	13.857	974.850	729.890
126.366	13.918	973.481	729.069
127.381	13.883	972.925	728.435
128.395	13.862	971.740	727.389
129.410	13.761	971.226	726.497
130.424	13.807	970.413	726.026
131.439	13.852	969.120	725.191
132.454	13.896	968.788	725.072
133.468	13.779	967.985	723.897
134.483	13.940	967.091	723.866
135.497	13.891	966.405	723.073
136.512	13.881	965.051	721.954
137.527	13.978	964.201	721.676
138.541	13.894	963.410	720.656
139.556	13.968	962.854	720.498
140.570	13.948	962.695	720.227
141.585	13.923	961.722	719.326
142.600	13.874	960.862	718.408
143.614	13.852	960.222	717.770
144.629	14.024	959.188	717.677
145.643	14.107	958.110	717.167
146.658	13.844	957.701	715.660
147.673	13.956	956.265	715.007
148.687	14.015	955.386	714.541
149.702	14.015	954.490	713.808
150.716	14.074	953.668	713.383
151.731	14.031	953.151	712.749
152.746	13.911	952.733	711.857
153.760	14.039	951.954	711.761
154.775	14.013	951.343	711.131
155.789	14.159	950.229	710.859
156.804	14.174	949.916	710.624
157.819	14.005	949.867	709.803
158.833	14.085	948.852	709.325
159.848	14.109	947.873	708.631
160.862	14.197	946.891	708.212
161.877	14.160	946.320	707.562
162.892	14.024	945.080	705.993
163.906	14.034	944.742	705.721
164.921	14.154	943.608	705.323
165.935	14.186	942.713	704.725
166.950	14.200	942.122	704.282
167.964	14.152	941.195	703.322
168.979	14.143	940.383	702.616
169.994	14.108	939.109	701.454
171.008	14.105	939.149	701.410
172.023	14.267	938.048	701.207
173.037	14.380	937.025	700.854
174.052	14.351	936.635	700.381
175.067	14.213	936.134	699.364
176.081	14.149	935.485	698.547
177.096	14.367	934.830	698.912
178.110	14.251	934.156	697.858
179.125	14.351	933.518	697.743
180.140	14.234	933.322	697.042
181.154	14.431	932.852	697.456
182.169	14.403	931.941	696.594
183.183	14.482	931.297	696.381
184.198	14.455	930.524	695.629
185.213	14.296	930.056	694.554
186.227	14.441	929.363	694.579
187.242	14.564	928.395	694.308
188.256	14.487	927.814	693.493
189.271	14.517	927.124	693.039
190.286	14.385	926.362	691.858
191.300	14.179	926.157	690.790
192.315	14.310	925.140	690.514
193.329	14.299	924.731	690.103
194.344	14.285	924.256	689.628
195.359	14.296	923.249	688.862
196.373	14.408	922.650	688.816
197.388	14.545	922.144	688.943
198.402	14.523	921.667	688.434
199.417	14.619	920.935	688.225
200.432	14.660	919.937	687.587
201.446	14.603	920.213	687.497
202.461	14.646	919.717	687.243
203.475	14.736	919.053	687.054
204.490	14.682	917.728	685.782
205.504	14.648	916.957	685.008
206.519	14.512	916.573	684.100
207.534	14.777	915.783	684.538
208.548	14.630	915.127	683.381
209.563	14.805	914.362	683.469
210.577	14.798	913.588	682.798
211.592	14.608	913.258	681.717
212.607	14.916	912.012	681.984
213.621	14.622	911.921	680.656
214.636	14.778	911.041	680.573
215.650	14.838	910.230	680.150
216.665	14.793	909.505	679.369
217.680	14.960	908.529	679.255
218.694	14.865	908.550	678.826
219.709	14.902	907.713	678.290
220.723	14.938	906.205	677.250
221.738	14.955	905.948	677.067
222.753	14.935	905.723	676.757
223.767	14.932	905.369	676.421
224.782	14.981	904.461	675.882
225.796	14.931	903.980	675.259
226.811	15.042	903.442	675.247
227.826	15.007	902.406	674.268
228.840	14.993	901.725	673.646
229.855	14.941	900.708	672.617
230.869	15.088	900.166	672.743
231.884	15.120	899.275	672.147
232.899	15.031	898.753	671.341
233.913	14.943	898.251	670.554
234.928	15.061	897.664	670.530
235.942	15.034	897.082	669.928
236.957	15.130	896.090	669.508
237.972	15.060	895.605	668.807
238.986	14.997	895.064	668.094
240.001	15.212	893.976	668.081
241.015	15.113	893.422	667.213
242.030	15.284	892.585	667.208
243.045	15.027	892.703	666.217
244.059	15.191	892.245	666.467
245.074	15.212	891.190	665.703
246.088	15.223	890.466	665.148
247.103	15.311	889.787	664.931
248.117	15.380	889.429	664.879
249.132	15.256	888.746	663.817
250.147	15.328	888.333	663.735
251.161	15.445	887.446	663.474
252.176	15.481	887.138	663.327
253.190	15.497	886.126	662.577
254.205	15.401	885.773	661.873
255.220	15.423	885.001	661.325
256.234	15.694	884.079	661.644
257.249	15.590	883.566	660.795
258.263	15.570	882.875	660.141
259.278	15.445	882.263	659.133
260.293	15.661	881.480	659.337
261.307	15.590	881.378	658.923
262.322	15.725	880.554	658.780
263.336	15.720	879.383	657.826
264.351	15.796	878.917	657.717
265.366	15.780	878.208	657.062
266.380	15.703	877.881	656.461
267.395	15.707	877.156	655.877
268.409	15.728	876.428	655.356
269.424	15.821	875.285	654.804
270.439	15.826	874.646	654.288
271.453	15.736	874.020	653.414
272.468	15.812	873.680	653.397
273.482	15.697	873.302	652.608
274.497	15.638	872.616	651.809
275.512	15.830	871.950	652.000
276.526	15.774	871.627	651.482
277.541	15.801	871.126	651.154
278.555	15.799	870.300	650.473
279.570	15.838	869.806	650.196
280.585	15.935	868.842	649.793
281.599	16.028	867.862	649.360
282.614	16.005	867.639	649.046
283.628	15.842	867.279	648.092
284.643	16.026	866.581	648.223
285.657	15.910	866.179	647.418
286.672	15.980	865.230	646.918
287.687	15.925	864.957	646.448
288.701	16.086	864.087	646.358
289.716	16.092	863.350	645.772
290.730	16.096	862.546	645.129
291.745	16.012	862.370	644.617
292.760	16.132	861.616	644.455
293.774	16.358	860.872	644.707
294.789	16.168	860.404	643.575
295.803	16.036	859.767	642.538
296.818	16.160	858.942	642.335
297.833	16.068	858.412	641.533
298.847	16.292	857.959	641.990
299.862	16.150	857.686	641.188
300.876	16.197	856.865	640.695
301.891	16.316	856.075	640.500
302.906	16.252	855.980	640.130
303.920	16.400	854.985	639.888
304.935	16.481	854.340	639.657
305.949	16.256	853.961	638.464
306.964	16.379	852.928	638.100
307.979	16.430	852.562	637.963
308.993	16.453	852.087	637.637
310.008	16.560	851.158	637.288
311.022	16.393	851.143	636.592
312.037	16.397	850.755	636.261
313.052	16.138	850.301	634.890
314.066	16.412	849.126	634.988
315.081	16.404	848.905	634.734
316.095	16.487	848.125	634.409
317.110	16.490	847.600	633.968
318.125	16.472	847.187	633.538
319.139	16.416	846.800	632.983
320.154	16.559	846.133	632.961
321.168	16.463	845.811	632.308
322.183	16.449	845.110	631.676
323.197	16.543	844.497	631.511
324.212	16.458	843.938	630.719
325.227	16.542	843.487	630.642
326.241	16.572	842.725	630.128
327.256	16.522	842.121	629.432
328.270	16.628	841.679	629.443
329.285	16.414	841.567	628.507
330.300	16.623	840.352	628.320
331.314	16.635	840.166	628.169
332.329	16.616	839.568	627.597
333.343	16.600	839.184	627.194
334.358	16.732	838.821	627.355
335.373	16.593	838.589	626.613
336.387	16.684	838.060	626.499
337.402	16.674	837.829	626.233
338.416	16.719	837.711	626.255
339.431	16.693	837.236	625.749
340.446	16.883	836.343	625.727
341.460	16.859	836.377	625.608
342.475	16.880	835.891	625.269
343.489	16.784	835.509	624.575
344.504	16.929	834.875	624.580
345.519	16.880	834.325	623.931
346.533	16.796	833.941	623.279
347.548	16.924	833.370	623.268
348.562	16.960	832.455	622.659
349.577	16.954	832.083	622.307
350.592	16.841	831.676	621.532
351.606	17.016	830.796	621.459
352.621	16.954	829.916	620.518
353.635	16.942	829.667	620.236
354.650	17.013	828.971	619.921
355.665	16.960	828.401	619.244
356.679	17.108	827.875	619.337
357.694	17.093	826.932	618.522
358.708	17.053	826.332	617.871
359.723	17.013	826.258	617.618
360.738	17.031	825.584	617.124
361.752	17.186	824.729	616.995
362.767	17.140	824.096	616.298
363.781	17.155	823.771	616.054
364.796	17.278	823.436	616.197
365.810	17.312	823.031	615.961
366.825	17.516	822.073	615.929
367.840	17.235	821.939	614.756
368.854	17.129	821.886	614.278
369.869	17.235	821.412	614.256
370.883	17.439	820.332	614.129
371.898	17.363	820.350	613.813
372.913	17.331	819.815	613.243
373.927	17.458	819.147	613.147
374.942	17.464	818.891	612.922
375.956	17.398	818.750	612.525
376.971	17.550	817.935	612.407
377.986	17.404	817.716	611.665
379.000	17.714	816.847	612.072
380.015	17.642	816.666	611.625
381.029	17.524	815.934	610.600
382.044	17.687	815.053	610.470
383.059	17.582	814.890	609.917
384.073	17.618	813.913	609.262
385.088	17.588	813.611	608.876
386.102	17.655	812.876	608.512
387.117	17.654	812.280	608.007
388.132	17.623	811.820	607.500
389.146	17.682	811.263	607.237
390.161	17.542	811.243	606.668
391.175	17.658	810.553	606.514
392.190	17.600	809.994	605.834
393.205	17.599	810.081	605.841
394.219	17.546	809.346	605.053
395.234	17.613	808.785	604.816
396.248	17.734	808.289	604.822
397.263	17.611	808.293	604.334
398.278	17.672	807.802	604.130
399.292	17.482	807.662	603.297
400.307	17.707	806.813	603.409
401.321	17.672	806.481	602.982
402.336	17.691	805.759	602.456
403.350	17.819	805.546	602.694
404.365	17.791	804.848	602.021
405.380	17.729	804.408	601.420
406.394	17.805	803.913	601.264
407.409	17.870	803.560	601.177
408.423	17.950	803.185	601.124
409.438	18.012	802.894	601.070
410.453	18.035	802.157	600.549
411.467	18.082	801.846	600.425
412.482	18.018	801.591	599.958
413.496	17.952	801.473	599.585
414.511	18.172	801.107	600.029
415.526	18.186	800.117	599.283
416.540	17.960	800.145	598.458
417.555	18.022	799.451	598.105
418.569	18.066	799.090	597.937
419.584	18.175	798.821	598.063
420.599	18.101	798.228	597.308
421.613	115.706	1297.682	1489.111
422.628	99.811	1370.413	1489.197
