DTS Sentinel unit serial number:	SN413079Multiplexer serial number:	ORYXHardware model number:	OX4-SRSoftware version number:	ORYX F/W v4.00 Oryx Data Collector v3.7.2.0data status	okinstallation	princeton_trtdifferential loss correction	single-endedforward channel	channel 1reverse channel	N/Adate	2019/09/19time	10:22:35forward acquisition time	60.00reverse acquisition time	0.00gamma	496.2192k internal	0.2339k external	0.2339temperature offset calibration	1.0008default loss term (dB/km)	0.3790temperature slope calibration	1.0000multiplexer offset coefficient	1.0000multiplexer slope coefficient	1.0000fibre end	0.00T internal ref (°C)	24.22T ext. ref 1 (°C)	0.71T ext. ref 2 (°C)	19.84length (m)	temperature (°C)	Stokes	anti-Stokes-747.200	-200.000	0.025	0.356
-746.185	-23.449	-0.157	-0.095
-745.171	-200.000	0.018	0.250
-744.156	-142.232	-0.314	0.031
-743.142	-200.000	0.025	0.149
-742.127	-120.117	-0.233	-0.040
-741.112	-200.000	0.022	0.101
-740.098	-200.000	-0.023	0.254
-739.083	-51.195	0.172	-0.081
-738.069	-56.585	0.165	0.073
-737.054	296.341	-0.219	0.402
-736.039	-120.298	-0.529	-0.090
-735.025	-72.604	0.173	0.064
-734.010	294.976	0.144	-0.264
-732.996	3.521	-0.183	0.134
-731.981	96.379	0.185	0.212
-730.966	-73.008	-0.271	-0.100
-729.952	390.806	0.042	-0.088
-728.937	14.086	0.042	0.033
-727.923	-162.235	0.101	0.005
-726.908	121.110	-0.168	0.209
-725.894	800.000	-0.122	-0.354
-724.879	671.407	0.095	-0.247
-723.864	-200.000	0.024	-0.397
-722.850	800.000	-0.041	0.122
-721.835	800.000	0.063	-0.256
-720.821	9.214	0.166	-0.126
-719.806	-156.504	-0.081	-0.005
-718.791	16.826	-0.093	-0.074
-717.777	-200.000	0.018	0.208
-716.762	31.698	-0.103	-0.089
-715.748	-157.937	-0.155	-0.009
-714.733	73.589	0.098	0.103
-713.718	-200.000	-0.018	0.145
-712.704	-200.000	0.071	-0.378
-711.689	-200.000	0.015	0.118
-710.675	60.622	-0.095	0.094
-709.660	-8.729	0.307	0.206
-708.645	80.074	0.067	-0.072
-707.631	7.940	-0.264	0.198
-706.616	285.685	-0.116	0.209
-705.602	95.093	0.147	0.168
-704.587	-114.418	-0.173	-0.033
-703.572	-40.934	0.180	-0.093
-702.558	171.959	-0.163	-0.235
-701.543	800.000	-0.019	-0.061
-700.529	23.613	0.182	-0.150
-699.514	-98.100	-0.199	-0.051
-698.499	179.458	0.160	-0.234
-697.485	105.078	-0.179	-0.212
-696.470	256.551	-0.191	-0.328
-695.456	-200.000	0.019	0.098
-694.441	-122.206	-0.028	0.005
-693.426	206.067	-0.051	0.079
-692.412	-34.169	-0.038	-0.021
-691.397	-56.979	-0.302	0.134
-690.383	-69.243	0.298	0.115
-689.368	-200.000	-0.006	-0.109
-688.354	-28.453	-0.260	-0.150
-687.339	243.600	0.118	-0.198
-686.324	-82.122	0.090	0.030
-685.310	-111.793	-0.326	-0.066
-684.295	-200.000	0.047	0.425
-683.281	-200.000	-0.001	-0.219
-682.266	255.814	0.115	-0.198
-681.251	-200.000	-0.031	-0.493
-680.237	800.000	-0.069	-0.193
-679.222	543.122	-0.046	0.111
-678.208	-200.000	-0.018	-0.089
-677.193	94.681	0.087	-0.099
-676.178	181.096	-0.033	0.049
-675.164	-55.709	-0.070	-0.031
-674.149	-71.197	-0.216	-0.081
-673.135	-95.356	-0.228	-0.061
-672.120	800.000	0.028	-0.089
-671.105	255.014	-0.286	0.489
-670.091	-46.733	0.195	-0.095
-669.076	-200.000	-0.016	0.200
-668.062	-55.634	0.194	-0.087
-667.047	8.750	-0.167	0.126
-666.032	31.951	-0.211	-0.182
-665.018	-9.080	-0.333	-0.223
-664.003	113.307	-0.217	0.263
-662.989	800.000	-0.023	0.065
-661.974	-200.000	-0.000	-0.182
-660.959	165.883	-0.235	-0.332
-659.945	-200.000	0.016	-0.122
-658.930	94.280	-0.219	0.249
-657.916	71.121	-0.042	-0.044
-656.901	-123.282	-0.170	0.027
-655.886	-200.000	0.062	-0.312
-654.872	242.972	0.129	-0.215
-653.857	-12.492	-0.131	-0.085
-652.843	-19.087	0.134	0.084
-651.828	-172.175	-0.489	0.016
-650.814	215.877	-0.091	-0.144
-649.799	-200.000	0.006	-0.039
-648.784	83.521	0.126	0.137
-647.770	800.000	-0.028	-0.118
-646.755	-200.000	0.048	-0.319
-645.741	-78.222	0.331	-0.114
-644.726	655.786	-0.194	-0.498
-643.711	632.346	-0.028	-0.070
-642.697	130.800	-0.173	0.222
-641.682	-78.411	-0.212	0.073
-640.668	-200.000	0.002	0.129
-639.653	800.000	-0.031	-0.099
-638.638	-127.542	-0.079	0.011
-637.624	800.000	0.049	0.184
-636.609	190.561	-0.022	-0.034
-635.595	291.633	-0.165	0.300
-634.580	184.221	0.205	0.303
-633.565	102.281	0.110	-0.128
-632.551	-200.000	-0.047	0.227
-631.536	-131.654	0.180	-0.024
-630.522	-200.000	-0.039	-0.241
-629.507	-170.383	-0.309	0.011
-628.492	150.699	-0.083	-0.113
-627.478	-20.006	0.179	-0.111
-626.463	-156.078	-0.299	0.019
-625.449	800.000	0.030	-0.102
-624.434	-116.643	-0.212	-0.039
-623.419	-200.000	0.034	-0.188
-622.405	-116.064	-0.114	-0.021
-621.390	-95.774	0.130	0.035
-620.376	308.403	0.059	0.109
-619.361	-23.244	0.154	-0.093
-618.346	44.970	0.100	0.092
-617.332	-90.077	0.173	0.050
-616.317	-129.359	-0.040	-0.005
-615.303	-36.691	-0.037	0.020
-614.288	-200.000	0.043	-0.686
-613.273	-165.348	0.149	0.007
-612.259	-77.281	-0.055	-0.019
-611.244	100.661	-0.130	0.150
-610.230	800.000	-0.084	-0.262
-609.215	-139.511	-0.056	-0.006
-608.201	138.178	-0.090	-0.117
-607.186	-46.588	-0.095	0.046
-606.171	12.108	0.264	-0.203
-605.157	338.973	-0.153	-0.297
-604.142	-200.000	0.017	0.204
-603.128	129.731	-0.089	-0.113
-602.113	-172.779	0.300	0.009
-601.098	639.163	0.035	0.089
-600.084	-200.000	-0.035	0.215
-599.069	-7.524	-0.156	-0.105
-598.055	-200.000	-0.014	-0.196
-597.040	-200.000	-0.023	0.136
-596.025	800.000	-0.119	-0.365
-595.011	-14.849	0.232	-0.148
-593.996	38.859	-0.115	-0.102
-592.982	-161.813	0.234	-0.012
-591.967	-148.879	0.085	-0.007
-590.952	66.012	0.292	0.296
-589.938	532.625	-0.132	-0.312
-588.923	679.956	-0.044	0.115
-587.909	-121.102	0.365	-0.061
-586.894	159.727	0.031	0.043
-585.879	-74.413	-0.146	0.052
-584.865	115.158	-0.063	-0.077
-583.850	-54.053	0.092	-0.042
-582.836	-200.000	-0.024	0.422
-581.821	-158.101	-0.155	0.009
-580.806	-144.063	0.182	0.017
-579.792	184.644	0.125	0.184
-578.777	800.000	0.029	-0.125
-577.763	-84.032	0.043	0.014
-576.748	-3.718	0.150	-0.104
-575.733	-25.078	-0.161	0.095
-574.719	800.000	-0.097	0.278
-573.704	-162.333	0.302	0.015
-572.690	-74.920	-0.054	0.019
-571.675	-105.028	0.116	-0.027
-570.661	656.990	-0.123	-0.316
-569.646	-64.278	0.099	0.040
-568.631	405.593	0.080	-0.168
-567.617	800.000	0.052	0.199
-566.602	-121.877	0.078	-0.013
-565.588	247.187	0.221	-0.372
-564.573	-131.308	-0.168	0.022
-563.558	-200.000	0.037	-0.248
-562.544	28.511	-0.233	-0.196
-561.529	-200.000	0.001	-0.032
-560.515	-135.964	-0.056	0.007
-559.500	-12.141	0.207	0.135
-558.485	800.000	-0.016	-0.056
-557.471	800.000	-0.024	0.076
-556.456	-76.768	-0.436	0.152
-555.442	96.978	0.033	-0.038
-554.427	135.761	-0.104	-0.135
-553.412	273.734	0.097	0.171
-552.398	-35.711	-0.275	0.149
-551.383	-149.783	0.217	0.017
-550.369	-160.676	0.059	0.003
-549.354	800.000	0.100	0.326
-548.339	39.633	-0.199	0.177
-547.325	-53.333	0.186	0.085
-546.310	200.308	0.113	-0.173
-545.296	-37.549	-0.221	0.117
-544.281	-200.000	0.025	-0.270
-543.266	-200.000	-0.000	-0.045
-542.252	282.115	-0.020	0.036
-541.237	-200.000	-0.010	-0.443
-540.223	712.319	-0.059	-0.155
-539.208	257.844	0.178	-0.304
-538.193	23.338	-0.046	-0.038
-537.179	102.761	0.142	0.165
-536.164	360.348	-0.118	0.236
-535.150	-82.296	0.292	0.095
-534.135	-50.355	-0.203	0.095
-533.121	-102.976	0.366	-0.086
-532.106	-200.000	-0.012	0.173
-531.091	-39.916	-0.372	0.193
-530.077	800.000	0.070	-0.246
-529.062	44.390	-0.129	0.118
-528.048	-28.174	-0.363	0.208
-527.033	-118.422	-0.128	-0.023
-526.018	-200.000	-0.002	0.271
-525.004	-23.650	-0.201	-0.120
-523.989	-200.000	-0.003	0.124
-522.975	134.944	-0.054	-0.069
-521.960	800.000	-0.019	0.059
-520.945	800.000	-0.032	0.122
-519.931	47.418	-0.218	-0.202
-518.916	-200.000	-0.051	-0.290
-517.902	-30.375	0.270	0.152
-516.887	-25.897	0.146	-0.086
-515.872	-27.348	0.073	-0.042
-514.858	-200.000	-0.017	0.138
-513.843	112.300	0.051	-0.062
-512.829	-200.000	-0.007	-0.187
-511.814	-50.488	0.080	0.038
-510.799	-45.936	-0.127	0.062
-509.785	-78.313	-0.251	-0.086
-508.770	800.000	-0.049	-0.144
-507.756	176.249	-0.172	0.249
-506.741	-200.000	0.013	-0.080
-505.726	-200.000	0.014	-0.270
-504.712	-112.766	0.331	-0.065
-503.697	-7.248	0.133	-0.089
-502.683	800.000	0.016	0.053
-501.668	358.666	-0.053	-0.105
-500.653	-32.387	0.222	0.123
-499.639	-200.000	-0.011	0.058
-498.624	461.265	0.019	-0.043
-497.610	-92.495	-0.065	0.018
-496.595	-74.113	-0.120	-0.043
-495.581	-200.000	0.012	-0.121
-494.566	-144.087	-0.148	-0.014
-493.551	242.534	0.126	-0.210
-492.537	-91.560	0.090	-0.026
-491.522	-200.000	0.020	0.128
-490.508	-68.777	-0.158	0.061
-489.493	-29.485	-0.160	-0.091
-488.478	-200.000	-0.054	0.290
-487.464	-200.000	-0.002	0.020
-486.449	800.000	-0.053	-0.220
-485.435	-125.752	-0.165	0.025
-484.420	800.000	-0.078	0.222
-483.405	408.570	-0.027	-0.058
-482.391	438.301	-0.143	-0.310
-481.376	800.000	0.122	-0.379
-480.362	-52.923	0.018	-0.008
-479.347	-163.809	0.070	0.003
-478.332	-75.712	0.217	-0.077
-477.318	374.445	-0.081	-0.163
-476.303	21.750	0.209	0.169
-475.289	800.000	0.008	-0.034
-474.274	114.526	-0.232	0.281
-473.259	12.015	-0.220	0.168
-472.245	209.552	-0.109	-0.169
-471.230	800.000	0.012	-0.048
-470.216	263.258	0.023	0.040
-469.201	-24.286	0.363	-0.215
-468.186	-11.517	0.101	-0.066
-467.172	-168.451	-0.110	-0.004
-466.157	-200.000	-0.005	-0.145
-465.143	800.000	0.129	-0.368
-464.128	25.913	-0.171	0.142
-463.113	595.853	0.004	0.011
-462.099	-200.000	0.032	0.316
-461.084	112.369	0.055	0.066
-460.070	101.799	0.057	0.066
-459.055	-21.100	0.089	0.054
-458.040	160.480	-0.091	-0.125
-457.026	-135.196	-0.181	0.021
-456.011	-17.984	0.196	0.122
-454.997	94.082	-0.097	0.110
-453.982	614.571	-0.106	-0.262
-452.968	-69.480	0.386	0.147
-451.953	-80.874	-0.167	-0.055
-450.938	50.690	0.172	-0.162
-449.924	-62.169	-0.091	-0.038
-448.909	-127.707	0.302	-0.043
-447.895	175.953	-0.072	0.104
-446.880	-6.135	0.264	0.179
-445.865	451.176	0.057	0.125
-444.851	209.126	-0.066	-0.103
-443.836	-81.449	-0.302	-0.099
-442.822	-200.000	-0.063	0.342
-441.807	-41.824	0.322	0.164
-440.792	-67.351	0.083	-0.033
-439.778	225.261	0.131	-0.211
-438.763	-200.000	-0.011	0.264
-437.749	-200.000	0.022	0.134
-436.734	45.474	-0.113	-0.103
-435.719	-30.791	0.219	0.123
-434.705	-39.555	0.324	-0.168
-433.690	-200.000	0.024	-0.222
-432.676	58.172	0.139	-0.135
-431.661	94.624	0.122	0.137
-430.646	-133.507	-0.291	0.036
-429.632	-200.000	-0.005	0.111
-428.617	-56.035	-0.325	-0.143
-427.603	115.719	0.201	0.243
-426.588	-112.947	0.322	-0.063
-425.573	231.642	-0.154	0.251
-424.559	800.000	-0.061	0.200
-423.544	-200.000	0.038	0.215
-422.530	800.000	-0.031	-0.126
-421.515	-200.000	0.076	0.428
-420.500	11.052	0.129	0.097
-419.486	-137.440	-0.273	0.031
-418.471	-200.000	-0.035	-0.155
-417.457	359.913	0.112	0.221
-416.442	230.536	0.106	-0.172
-415.428	800.000	-0.100	0.305
-414.413	-88.129	0.453	0.134
-413.398	-84.250	-0.286	-0.090
-412.384	628.626	-0.133	0.332
-411.369	153.212	-0.034	0.047
-410.355	-182.308	0.146	-0.003
-409.340	-42.677	-0.247	0.124
-408.325	-84.590	-0.553	0.173
-407.311	-114.123	-0.194	-0.037
-406.296	10.813	0.302	0.228
-405.282	104.433	0.172	0.200
-404.267	175.132	0.031	0.045
-403.252	74.963	0.186	-0.194
-402.238	800.000	0.099	-0.307
-401.223	56.013	0.182	-0.174
-400.209	800.000	0.079	0.280
-399.194	327.023	0.073	0.139
-398.179	-53.550	0.149	0.068
-397.165	-200.000	0.010	0.167
-396.150	-200.000	0.012	0.123
-395.136	357.650	-0.052	-0.104
-394.121	347.883	0.173	-0.338
-393.106	-120.033	0.180	0.031
-392.092	-156.080	-0.135	-0.008
-391.077	-200.000	-0.056	-0.327
-390.063	-200.000	-0.005	-0.187
-389.048	-35.066	0.256	0.138
-388.033	-198.310	-0.236	-0.001
-387.019	171.821	0.120	-0.170
-386.004	14.620	-0.059	-0.046
-384.990	-119.055	-0.125	0.022
-383.975	-95.148	0.175	-0.047
-382.960	-83.582	0.395	-0.125
-381.946	13.190	-0.278	0.213
-380.931	-67.102	0.543	0.212
-379.917	-188.899	0.222	0.003
-378.902	246.328	0.315	-0.525
-377.888	-200.000	0.040	-0.175
-376.873	-200.000	-0.026	0.400
-375.858	-82.031	0.036	0.012
-374.844	-200.000	0.037	0.385
-373.829	-142.741	0.337	-0.033
-372.815	-200.000	0.068	0.420
-371.800	-200.000	0.024	0.181
-370.785	-28.785	-0.151	0.086
-369.771	-200.000	-0.008	-0.128
-368.756	-91.035	-0.136	-0.039
-367.742	3.595	-0.286	-0.206
-366.727	-200.000	0.034	-0.161
-365.712	13.121	-0.371	-0.284
-364.698	-64.947	0.146	0.058
-363.683	161.421	0.118	-0.163
-362.669	82.980	0.205	-0.220
-361.654	130.874	0.147	-0.187
-360.639	-131.468	-0.224	0.029
-359.625	800.000	-0.089	-0.285
-358.610	-104.753	0.202	-0.046
-357.596	-27.829	-0.290	0.166
-356.581	-10.234	-0.037	-0.024
-355.566	67.307	0.091	-0.092
-354.552	800.000	-0.098	0.289
-353.537	-69.070	-0.392	0.149
-352.523	-200.000	-0.002	0.186
-351.508	49.918	0.174	0.162
-350.493	21.067	-0.283	-0.227
-349.479	-113.453	-0.235	0.046
-348.464	1.838	0.197	0.140
-347.450	-38.586	0.363	0.189
-346.435	800.000	-0.074	0.213
-345.420	-200.000	-0.025	0.320
-344.406	800.000	0.054	-0.165
-343.391	-157.062	-0.611	0.037
-342.377	800.000	-0.080	0.240
-341.362	-200.000	0.010	0.316
-340.348	-51.062	-0.120	0.055
-339.333	-86.688	-0.401	0.121
-338.318	-65.968	-0.326	0.129
-337.304	101.983	-0.194	-0.224
-336.289	-10.494	-0.293	-0.191
-335.275	-200.000	-0.030	0.158
-334.260	100.985	0.141	-0.162
-333.245	-92.905	-0.082	-0.023
-332.231	130.654	-0.185	0.234
-331.216	650.283	0.013	-0.033
-330.202	-200.000	-0.002	0.191
-329.187	107.799	0.133	-0.157
-328.172	800.000	0.032	-0.114
-327.158	437.453	-0.076	-0.164
-326.143	-66.984	0.213	-0.083
-325.129	-110.601	0.306	0.062
-324.114	183.924	-0.070	-0.102
-323.099	800.000	0.073	0.297
-322.085	173.147	-0.198	-0.281
-321.070	-200.000	0.026	-0.123
-320.056	281.542	-0.046	-0.081
-319.041	-200.000	-0.017	-0.115
-318.026	419.423	0.060	-0.127
-317.012	-141.236	-0.194	-0.019
-315.997	85.279	0.150	0.163
-314.983	401.677	0.034	-0.071
-313.968	45.077	0.124	-0.113
-312.953	-16.441	-0.037	0.023
-311.939	790.857	-0.115	-0.312
-310.924	175.699	0.051	0.073
-309.910	-158.577	-0.167	0.009
-308.895	557.724	-0.137	0.326
-307.880	-200.000	-0.016	0.169
-306.866	-42.959	-0.079	-0.039
-305.851	206.062	-0.145	-0.222
-304.837	316.435	0.073	0.135
-303.822	-48.905	-0.094	-0.044
-302.807	-3.414	0.170	-0.117
-301.793	-200.000	-0.021	0.143
-300.778	-79.799	-0.190	0.063
-299.764	13.576	0.256	-0.196
-298.749	-85.613	-0.365	0.112
-297.735	590.887	-0.068	0.166
-296.720	-54.643	0.296	-0.132
-295.705	109.413	0.187	0.221
-294.691	-200.000	0.012	0.067
-293.676	-31.965	-0.154	-0.085
-292.662	-200.000	0.003	-0.048
-291.647	-200.000	0.028	0.395
-290.632	8.382	0.223	-0.166
-289.618	-200.000	-0.004	0.178
-288.603	61.663	0.103	0.101
-287.589	-4.338	-0.093	0.063
-286.574	-116.079	-0.486	-0.089
-285.559	49.343	0.288	0.267
-284.545	-62.130	-0.314	0.129
-283.530	-200.000	0.042	-0.185
-282.516	259.877	0.106	0.180
-281.501	-92.937	-0.206	-0.057
-280.486	-38.814	0.257	-0.133
-279.472	341.322	-0.079	0.152
-278.457	800.000	-0.050	0.183
-277.443	-38.274	0.199	0.104
-276.428	-99.146	0.316	-0.079
-275.413	759.192	0.177	-0.473
-274.399	94.354	0.036	-0.040
-273.384	314.187	0.173	0.321
-272.370	-114.965	0.371	0.070
-271.355	-57.201	-0.181	-0.079
-270.340	-155.125	-0.138	-0.009
-269.326	-14.936	-0.131	-0.082
-268.311	-52.181	0.079	-0.036
-267.297	55.407	0.193	0.184
-266.282	199.109	-0.059	0.089
-265.267	-113.218	-0.169	0.033
-264.253	216.966	0.073	0.114
-263.238	213.082	-0.179	-0.278
-262.224	63.855	0.113	-0.112
-261.209	-147.028	-0.148	-0.012
-260.195	-5.262	-0.024	-0.016
-259.180	239.809	0.074	0.121
-258.165	23.154	0.083	-0.067
-257.151	-200.000	0.013	-0.076
-256.136	-20.965	-0.124	0.075
-255.122	-200.000	0.065	-0.316
-254.107	0.201	0.094	-0.066
-253.092	-200.000	0.006	-0.086
-252.078	-200.000	-0.008	-0.247
-251.063	174.620	-0.144	-0.205
-250.049	-92.129	0.072	0.020
-249.034	76.408	-0.306	-0.319
-248.019	407.600	-0.055	0.114
-247.005	-200.000	0.018	-0.227
-245.990	186.277	0.107	-0.157
-244.976	-105.029	0.111	0.025
-243.961	600.062	0.133	0.324
-242.946	-39.976	-0.105	0.054
-241.932	-200.000	-0.004	-0.316
-240.917	-200.000	0.042	0.228
-239.903	-155.189	0.090	0.006
-238.888	-162.523	-0.336	0.016
-237.873	800.000	0.032	0.129
-236.859	-200.000	0.067	0.334
-235.844	800.000	-0.056	0.222
-234.830	-176.399	0.023	-0.001
-233.815	800.000	-0.052	-0.189
-232.800	800.000	0.028	0.091
-231.786	32.759	-0.108	-0.092
-230.771	90.965	-0.258	-0.285
-229.757	36.531	0.155	0.135
-228.742	5.918	-0.146	0.106
-227.727	26.155	-0.121	-0.100
-226.713	-46.295	-0.246	0.119
-225.698	-36.742	0.153	0.081
-224.684	-51.403	-0.100	0.046
-223.669	-5.587	0.216	0.146
-222.655	43.775	-0.087	0.078
-221.640	145.754	-0.083	0.109
-220.625	-173.494	0.160	0.005
-219.611	-69.825	-0.091	-0.034
-218.596	432.902	0.142	0.302
-217.582	52.982	0.211	-0.199
-216.567	800.000	-0.149	-0.432
-215.552	29.791	0.237	-0.199
-214.538	-178.854	0.366	0.008
-213.523	25.778	-0.274	0.224
-212.509	484.028	0.108	0.241
-211.494	577.011	0.147	-0.354
-210.479	800.000	-0.046	-0.190
-209.465	-200.000	0.003	-0.190
-208.450	-165.507	0.239	0.010
-207.436	12.112	0.048	-0.036
-206.421	44.912	0.188	-0.170
-205.406	-87.270	0.230	0.069
-204.392	-100.811	-0.150	0.036
-203.377	49.023	0.123	0.113
-202.363	-64.626	-0.168	-0.067
-201.348	614.647	-0.078	-0.191
-200.333	523.861	0.198	0.456
-199.319	-200.000	0.017	-0.090
-198.304	-200.000	0.000	-0.188
-197.290	-112.791	-0.083	-0.016
-196.275	800.000	0.074	0.262
-195.260	-200.000	-0.014	0.241
-194.246	-1.179	0.200	-0.139
-193.231	-64.969	-0.249	-0.099
-192.217	315.990	0.124	-0.229
-191.202	-87.911	0.133	0.039
-190.187	-170.297	-0.240	-0.008
-189.173	-32.586	-0.188	-0.103
-188.158	-44.141	-0.305	0.150
-187.144	800.000	0.025	-0.072
-186.129	-109.598	-0.121	-0.025
-185.114	-161.358	0.240	-0.012
-184.100	-72.341	-0.060	-0.022
-183.085	227.567	0.132	0.211
-182.071	-200.000	-0.004	0.059
-181.056	-13.723	-0.256	0.163
-180.042	-200.000	-0.015	-0.178
-179.027	-99.527	0.074	0.018
-178.012	183.501	-0.127	0.185
-176.998	325.152	0.066	0.124
-175.983	-138.518	0.061	0.007
-174.969	-59.561	-0.106	-0.045
-173.954	4.123	-0.541	0.388
-172.939	89.511	0.011	-0.012
-171.925	-119.687	-0.051	0.009
-170.910	800.000	0.053	-0.175
-169.896	-200.000	0.006	-0.216
-168.881	-139.490	-0.088	-0.009
-167.866	149.930	0.170	-0.226
-166.852	197.480	0.043	-0.065
-165.837	-25.236	-0.055	-0.032
-164.823	157.066	0.076	0.103
-163.808	241.862	-0.155	0.254
-162.793	502.256	0.118	0.266
-161.779	800.000	-0.059	0.216
-160.764	231.555	-0.095	0.152
-159.750	-21.692	0.016	-0.009
-158.735	-102.520	-0.137	-0.032
-157.720	-200.000	0.056	-0.316
-156.706	800.000	0.026	0.090
-155.691	367.217	-0.078	-0.155
-154.677	491.344	-0.113	0.254
-153.662	-200.000	-0.022	-0.287
-152.647	-38.470	-0.170	0.088
-151.633	800.000	0.120	-0.348
-150.618	-33.939	-0.222	-0.120
-149.604	-160.626	-0.125	0.007
-148.589	26.172	-0.228	0.186
-147.574	-26.330	0.213	0.123
-146.560	800.000	-0.031	0.115
-145.545	800.000	-0.071	0.245
-144.531	103.903	-0.153	0.176
-143.516	121.894	0.238	-0.291
-142.502	-35.178	-0.056	0.030
-141.487	-7.613	0.152	-0.101
-140.472	82.113	0.136	0.144
-139.458	800.000	0.040	0.159
-138.443	-200.000	0.023	-0.147
-137.429	-91.696	-0.346	0.096
-136.414	36.853	0.270	0.234
-135.399	143.049	0.227	-0.296
-134.385	-169.166	0.184	-0.007
-133.370	-200.000	0.002	0.357
-132.356	800.000	0.012	0.034
-131.341	-86.068	0.109	0.033
-130.326	161.425	-0.041	0.056
-129.312	38.343	0.062	0.054
-128.297	-200.000	0.021	-0.194
-127.283	413.852	0.071	-0.148
-126.268	139.523	-0.123	0.158
-125.253	-200.000	0.021	0.188
-124.239	-11.990	0.194	-0.124
-123.224	-65.954	0.244	-0.096
-122.210	-48.597	0.221	0.104
-121.195	-63.465	-0.314	0.126
-120.180	-49.647	0.223	-0.104
-119.166	-130.717	0.141	-0.019
-118.151	431.662	0.068	-0.144
-117.137	-41.567	0.220	-0.111
-116.122	-173.446	-0.387	-0.011
-115.107	-33.028	-0.113	-0.061
-114.093	-39.979	0.267	-0.136
-113.078	-66.477	-0.183	-0.071
-112.064	800.000	-0.073	-0.211
-111.049	-29.982	0.242	-0.135
-110.034	72.431	0.183	0.187
-109.020	-141.093	0.209	0.021
-108.005	-27.233	0.292	-0.166
-106.991	26.198	-0.232	-0.189
-105.976	20.521	-0.116	0.092
-104.962	-53.092	-0.282	-0.127
-103.947	-200.000	-0.041	0.226
-102.932	105.859	-0.050	-0.058
-101.918	164.321	0.063	0.087
-100.903	208.083	-0.069	-0.105
-99.889	-77.004	-0.073	0.025
-98.874	-89.684	0.007	0.002
-97.859	97.246	-0.080	0.090
-96.845	800.000	-0.016	0.057
-95.830	-200.000	0.052	-0.453
-94.816	-94.969	-0.321	0.085
-93.801	-48.803	0.159	-0.075
-92.786	-39.239	0.189	-0.097
-91.772	-200.000	0.045	-0.282
-90.757	-44.728	-0.262	0.128
-89.743	442.722	-0.077	0.165
-88.728	-147.437	-0.436	-0.036
-87.713	18.393	-0.178	0.139
-86.699	800.000	-0.077	0.322
-85.684	-103.396	-0.260	-0.060
-84.670	373.902	-0.085	-0.169
-83.655	-95.558	-0.126	-0.033
-82.640	172.955	-0.186	-0.262
-81.626	-142.215	0.238	-0.023
-80.611	184.668	-0.083	0.120
-79.597	282.039	0.052	0.092
-78.582	-121.276	0.315	0.051
-77.567	-98.741	-0.147	-0.037
-76.553	-142.464	0.159	0.015
-75.538	182.568	0.070	-0.101
-74.524	-200.000	-0.006	0.046
-73.509	-143.564	-0.110	-0.010
-72.494	-86.045	-0.144	0.043
-71.480	234.935	0.097	0.156
-70.465	-200.000	-0.058	-0.431
-69.451	164.032	-0.170	0.234
-68.436	-200.000	0.028	0.295
-67.422	168.615	0.210	-0.292
-66.407	-41.901	0.069	0.035
-65.392	800.000	0.043	-0.137
-64.378	7.774	0.188	0.138
-63.363	372.589	0.170	0.337
-62.349	37.675	0.139	-0.120
-61.334	160.435	-0.962	-1.311
-60.319	157.340	0.502	0.679
-59.305	793.392	-0.448	-1.205
-58.290	241.415	0.700	1.142
-57.276	295.390	0.605	1.081
-56.261	-200.000	121.778	614.370
-55.246	380.284	1573.915	3150.924
-54.232	139.606	2748.482	3533.653
-53.217	94.112	2185.560	2421.029
-52.203	35.854	1612.437	1384.437
-51.188	27.456	1354.458	1111.873
-50.173	24.739	1316.606	1064.607
-49.159	50.228	1383.309	1275.434
-48.144	48.220	1396.079	1274.871
-47.130	27.610	1344.205	1104.215
-46.115	24.402	1325.459	1069.574
-45.100	24.170	1320.450	1064.102
-44.086	24.014	1318.373	1061.459
-43.071	24.119	1315.831	1059.997
-42.057	23.977	1314.147	1057.751
-41.042	24.039	1312.744	1056.952
-40.027	24.199	1310.678	1056.193
-39.013	24.114	1308.798	1054.134
-37.998	24.067	1307.312	1052.613
-36.984	24.123	1304.923	1050.981
-35.969	24.153	1303.015	1049.577
-34.954	24.241	1301.666	1048.968
-33.940	24.270	1300.298	1047.997
-32.925	24.238	1299.219	1046.895
-31.911	24.289	1297.387	1045.680
-30.896	24.304	1296.198	1044.767
-29.881	24.339	1295.063	1044.016
-28.867	24.350	1293.710	1042.944
-27.852	24.403	1291.865	1041.725
-26.838	24.350	1290.920	1040.616
-25.823	24.378	1289.789	1039.827
-24.809	24.352	1288.274	1038.411
-23.794	24.352	1286.388	1036.851
-22.779	24.366	1285.247	1035.972
-21.765	24.323	1284.396	1034.993
-20.750	24.308	1282.865	1033.631
-19.736	24.238	1281.961	1032.456
-18.721	24.236	1280.715	1031.398
-17.706	24.167	1279.443	1029.939
-16.692	24.183	1278.512	1029.240
-15.677	24.164	1277.363	1028.160
-14.663	24.140	1276.107	1026.972
-13.648	24.189	1275.186	1026.474
-12.633	24.113	1273.975	1025.022
-11.619	24.038	1273.342	1024.039
-10.604	24.137	1272.441	1023.841
-9.590	24.101	1271.020	1022.453
-8.575	24.176	1270.190	1022.173
-7.560	24.177	1269.183	1021.328
-6.546	24.120	1268.729	1020.594
-5.531	24.158	1267.596	1019.863
-4.517	24.107	1267.374	1019.353
-3.502	24.023	1266.539	1018.158
-2.487	24.085	1265.642	1017.750
-1.473	24.188	1261.184	1014.714
-0.458	22.829	1246.078	994.866
0.556	18.589	1230.304	959.337
1.571	15.182	1237.485	945.655
2.586	14.406	1252.494	952.602
3.600	14.197	1240.804	942.445
4.615	10.681	1167.419	867.860
5.629	4.017	1095.411	780.743
6.644	0.909	1077.368	752.381
7.659	0.620	1075.883	749.843
8.673	0.568	1074.712	748.704
9.688	0.733	1073.337	748.498
10.702	0.885	1071.195	747.685
11.717	4.772	1075.943	770.194
12.731	11.735	1084.905	811.182
13.746	16.004	1090.516	836.539
14.761	17.114	1091.437	842.685
15.775	16.402	1089.844	837.853
16.790	15.529	1087.716	831.819
17.804	14.749	1086.469	826.931
18.819	14.385	1085.496	824.318
19.834	14.249	1084.108	822.521
20.848	13.906	1083.690	820.437
21.863	13.744	1082.645	818.771
22.877	13.601	1081.005	816.756
23.892	13.497	1081.066	816.215
24.907	13.522	1080.193	815.607
25.921	13.448	1079.691	814.792
26.936	13.568	1078.660	814.532
27.950	13.654	1077.495	814.002
28.965	13.688	1076.136	813.067
29.980	13.732	1074.871	812.258
30.994	13.696	1073.671	811.104
32.009	13.648	1073.174	810.421
33.023	13.812	1071.692	810.030
34.038	13.725	1070.807	808.865
35.053	13.659	1069.757	807.681
36.067	13.700	1068.915	807.172
37.082	13.703	1068.360	806.696
38.096	13.756	1067.418	806.169
39.111	13.771	1066.828	805.729
40.126	13.584	1065.590	803.812
41.140	13.554	1064.379	802.683
42.155	13.593	1063.470	802.118
43.169	13.624	1062.470	801.438
44.184	13.540	1061.285	800.069
45.199	13.485	1060.250	798.953
46.213	13.478	1058.902	797.833
47.228	13.546	1057.968	797.386
48.242	13.774	1056.205	797.081
49.257	13.562	1055.986	795.827
50.271	13.663	1055.321	795.741
51.286	13.638	1054.214	794.717
52.301	13.624	1053.125	793.760
53.315	13.615	1051.990	792.788
54.330	13.574	1051.196	791.923
55.344	13.558	1050.166	791.004
56.359	13.644	1049.368	790.743
57.374	13.553	1048.309	789.442
58.388	13.573	1047.672	788.984
59.403	13.544	1046.660	788.017
60.417	13.531	1046.091	787.455
61.432	13.544	1044.755	786.444
62.447	13.527	1044.474	786.080
63.461	13.447	1043.502	784.901
64.476	13.447	1042.491	784.071
65.490	13.535	1041.523	783.691
66.505	13.502	1041.188	783.211
67.520	13.496	1040.568	782.649
68.534	13.623	1039.501	782.378
69.549	13.651	1038.673	781.817
70.563	13.446	1038.194	780.418
71.578	13.513	1037.103	779.848
72.593	13.569	1036.266	779.411
73.607	13.452	1035.904	778.520
74.622	13.535	1035.026	778.182
75.636	13.486	1034.339	777.366
76.651	13.361	1034.021	776.470
77.666	13.465	1032.696	775.894
78.680	13.522	1032.204	775.724
79.695	13.461	1031.639	774.944
80.709	13.501	1031.117	774.673
81.724	13.517	1030.492	774.206
82.739	13.660	1029.283	773.899
83.753	13.552	1028.794	772.959
84.768	13.742	1027.775	773.011
85.782	13.710	1026.706	771.990
86.797	13.762	1025.516	771.266
87.812	13.689	1024.658	770.216
88.826	13.559	1023.923	768.993
89.841	13.638	1022.957	768.561
90.855	13.784	1021.919	768.394
91.870	13.724	1021.299	767.581
92.884	13.744	1020.322	766.872
93.899	13.695	1019.560	766.004
94.914	13.791	1018.834	765.833
95.928	13.890	1017.642	765.324
96.943	13.777	1016.831	764.127
97.957	13.802	1015.972	763.531
98.972	13.742	1014.999	762.456
99.987	13.696	1014.167	761.553
101.001	13.657	1013.383	760.716
102.016	13.744	1012.496	760.383
103.030	13.799	1011.564	759.865
104.045	13.618	1011.177	758.680
105.060	13.533	1010.631	757.815
106.074	13.697	1008.864	757.170
107.089	13.782	1007.662	756.592
108.103	13.611	1007.162	755.368
109.118	13.572	1006.141	754.358
110.133	13.535	1005.754	753.835
111.147	13.582	1004.690	753.185
112.162	13.620	1003.717	752.558
113.176	13.547	1003.705	752.150
114.191	13.692	1002.159	751.583
115.206	13.641	1001.357	750.685
116.220	13.802	1000.437	750.656
117.235	13.690	999.311	749.239
118.249	13.680	998.926	748.840
119.264	13.689	998.081	748.180
120.279	13.577	997.624	747.266
121.293	13.682	996.429	746.779
122.308	13.741	995.349	746.170
123.322	13.659	994.697	745.247
124.337	13.625	993.447	744.091
125.352	13.713	992.437	743.663
126.366	13.826	990.851	742.916
127.381	13.700	989.768	741.475
128.395	13.737	988.956	740.965
129.410	13.608	988.795	740.202
130.424	13.887	987.233	740.211
131.439	13.806	986.461	739.206
132.454	13.774	985.796	738.500
133.468	13.709	984.641	737.280
134.483	13.808	984.093	737.247
135.497	13.720	983.383	736.257
136.512	13.742	982.248	735.439
137.527	13.689	981.516	734.593
138.541	13.640	980.724	733.718
139.556	13.636	980.427	733.412
140.570	13.824	979.302	733.338
141.585	13.766	978.816	732.653
142.600	13.867	977.593	732.118
143.614	13.784	977.142	731.349
144.629	13.992	975.826	731.213
145.643	13.951	974.838	730.230
146.658	13.859	973.879	729.041
147.673	13.824	973.169	728.293
148.687	13.801	972.513	727.636
149.702	13.899	971.326	727.113
150.716	13.919	970.059	726.189
151.731	13.776	969.706	725.236
152.746	13.948	969.086	725.460
153.760	13.803	968.672	724.451
154.775	13.863	968.164	724.269
155.789	13.899	967.603	723.942
156.804	13.792	966.893	722.882
157.819	13.865	965.738	722.271
158.833	14.011	965.427	722.608
159.848	14.048	964.488	722.003
160.862	14.041	963.615	721.254
161.877	13.921	962.612	719.919
162.892	14.026	961.283	719.318
163.906	13.870	960.694	718.137
164.921	13.925	960.127	717.891
165.935	14.008	959.063	717.386
166.950	14.048	957.967	716.675
167.964	14.065	957.236	716.140
168.979	14.028	956.360	715.262
169.994	14.069	955.879	715.017
171.008	14.070	954.816	714.159
172.023	14.104	954.007	713.640
173.037	14.256	953.175	713.605
174.052	14.243	952.709	713.136
175.067	14.151	951.887	712.063
176.081	14.096	951.573	711.532
177.096	14.078	950.975	710.943
178.110	14.067	950.548	710.516
179.125	14.180	949.704	710.306
180.140	14.148	949.173	709.706
181.154	14.070	948.854	709.073
182.169	14.307	948.217	709.545
183.183	14.306	947.603	709.017
184.198	14.267	946.553	708.003
185.213	14.216	945.720	707.101
186.227	14.285	945.398	707.093
187.242	14.290	944.866	706.654
188.256	14.359	943.899	706.157
189.271	14.401	942.998	705.599
190.286	14.185	942.353	704.140
191.300	14.215	941.593	703.639
192.315	14.241	941.450	703.579
193.329	14.238	940.676	702.926
194.344	14.162	940.483	702.398
195.359	14.376	939.001	702.130
196.373	14.212	938.708	701.158
197.388	14.305	938.662	701.453
198.402	14.486	937.464	701.257
199.417	14.517	937.053	701.021
200.432	14.484	936.418	700.344
201.446	14.429	936.325	699.980
202.461	14.561	935.513	699.866
203.475	14.518	934.803	699.092
204.490	14.514	934.195	698.557
205.504	14.519	933.176	697.757
206.519	14.392	932.647	696.768
207.534	14.476	931.795	696.421
208.548	14.561	931.351	696.383
209.563	14.369	930.810	695.115
210.577	14.473	930.191	695.024
211.592	14.769	928.570	694.985
212.607	14.692	928.069	694.226
213.621	14.795	927.405	694.096
214.636	14.606	927.074	693.001
215.650	14.765	925.679	692.559
216.665	14.648	925.667	692.003
217.680	14.770	924.790	691.790
218.694	14.891	923.754	691.457
219.709	14.885	923.340	691.061
220.723	14.848	922.861	690.486
221.738	14.809	922.142	689.727
222.753	14.814	921.294	689.053
223.767	14.917	920.679	688.957
224.782	15.000	920.124	688.821
225.796	14.909	919.665	688.041
226.811	14.944	918.820	687.494
227.826	14.785	918.431	686.487
228.840	14.872	917.382	686.000
229.855	14.816	916.370	684.954
230.869	14.956	915.911	685.124
231.884	14.801	915.552	684.160
232.899	14.829	914.970	683.778
233.913	14.902	913.909	683.222
234.928	14.927	913.244	682.769
235.942	14.899	912.579	682.096
236.957	14.895	912.429	681.909
237.972	14.935	911.712	681.475
238.986	14.940	910.710	680.684
240.001	14.927	910.273	680.247
241.015	14.856	909.936	679.644
242.030	15.116	908.782	679.779
243.045	14.963	908.083	678.574
244.059	15.125	907.479	678.722
245.074	15.081	906.896	678.046
246.088	15.028	906.260	677.296
247.103	15.088	905.772	677.115
248.117	15.144	905.326	676.946
249.132	15.164	904.440	676.303
250.147	15.238	904.048	676.252
251.161	15.357	903.164	676.010
252.176	15.244	902.632	675.096
253.190	15.373	901.812	674.940
254.205	15.365	901.033	674.267
255.220	15.479	900.298	674.114
256.234	15.377	899.724	673.217
257.249	15.418	898.968	672.754
258.263	15.399	898.615	672.354
259.278	15.463	897.215	671.506
260.293	15.444	896.960	671.180
261.307	15.458	896.376	670.736
262.322	15.477	895.931	670.423
263.336	15.662	894.831	670.276
264.351	15.527	894.632	669.532
265.366	15.565	893.825	669.019
266.380	15.564	893.222	668.504
267.395	15.451	893.024	667.848
268.409	15.604	892.030	667.652
269.424	15.532	891.158	666.653
270.439	15.533	890.352	665.997
271.453	15.465	889.981	665.391
272.468	15.609	889.069	665.221
273.482	15.636	888.594	664.913
274.497	15.742	887.938	664.781
275.512	15.608	887.508	663.870
276.526	15.726	886.872	663.804
277.541	15.736	885.987	663.121
278.555	15.719	885.890	662.924
279.570	15.815	884.845	662.460
280.585	15.771	884.267	661.795
281.599	15.848	883.389	661.382
282.614	15.760	882.667	660.439
283.628	15.779	882.499	660.327
284.643	15.845	881.765	659.979
285.657	15.883	880.811	659.357
286.672	15.892	879.973	658.708
287.687	15.909	879.826	658.605
288.701	15.973	879.072	658.234
289.716	16.040	878.394	657.926
290.730	15.862	878.381	657.164
291.745	15.903	877.449	656.568
292.760	15.985	876.775	656.325
293.774	15.952	875.973	655.538
294.789	15.980	875.517	655.249
295.803	16.248	874.116	655.185
296.818	15.962	874.036	653.955
297.833	15.937	873.193	653.170
298.847	16.025	872.592	653.002
299.862	16.059	872.072	652.686
300.876	16.140	871.328	652.388
301.891	16.229	870.753	652.244
302.906	16.135	870.123	651.350
303.920	16.059	870.066	650.957
304.935	16.190	869.431	650.929
305.949	16.225	868.610	650.390
306.964	16.244	868.159	650.068
307.979	16.205	867.267	649.195
308.993	16.192	867.076	648.944
310.008	16.269	866.283	648.589
311.022	16.325	865.628	648.256
312.037	16.276	865.045	647.572
313.052	16.331	864.243	647.124
314.066	16.351	863.956	646.932
315.081	16.387	863.486	646.659
316.095	16.272	862.643	645.530
317.110	16.320	862.034	645.203
318.125	16.229	861.965	644.746
319.139	16.245	861.386	644.316
320.154	16.272	860.613	643.785
321.168	16.348	860.382	643.844
322.183	16.409	859.612	643.444
323.197	16.348	859.159	642.815
324.212	16.451	858.645	642.765
325.227	16.411	857.656	641.817
326.241	16.365	857.672	641.595
327.256	16.463	856.857	641.302
328.270	16.426	856.657	640.954
329.285	16.480	855.585	640.300
330.300	16.315	855.261	639.377
331.314	16.340	854.871	639.123
332.329	16.482	854.276	639.158
333.343	16.535	853.967	639.072
334.358	16.592	853.841	639.138
335.373	16.413	853.452	638.113
336.387	16.464	853.054	637.950
337.402	16.726	852.376	638.375
338.416	16.581	851.901	637.416
339.431	16.688	851.515	637.476
340.446	16.711	850.776	636.953
341.460	16.670	850.714	636.694
342.475	16.797	850.257	636.773
343.489	16.776	849.663	636.194
344.504	16.888	849.300	636.285
345.519	16.817	848.716	635.524
346.533	16.888	848.002	635.199
347.548	16.770	847.651	634.439
348.562	16.739	847.449	634.116
349.577	16.796	846.484	633.551
350.592	16.792	846.337	633.369
351.606	16.877	845.293	632.851
352.621	16.713	844.521	631.605
353.635	16.890	843.948	631.779
354.650	16.820	843.570	631.181
355.665	16.847	842.862	630.696
356.679	16.961	842.074	630.472
357.694	17.060	841.453	630.319
358.708	17.069	840.689	629.726
359.723	16.959	840.111	628.828
360.738	16.944	839.860	628.529
361.752	17.057	839.308	628.480
362.767	17.085	838.315	627.785
363.781	17.071	837.872	627.346
364.796	17.074	837.972	627.375
365.810	17.286	837.103	627.453
366.825	17.187	836.948	626.913
367.840	17.083	836.598	626.215
368.854	17.192	835.695	625.884
369.869	17.262	835.095	625.638
370.883	17.216	834.928	625.288
371.898	17.188	834.711	624.968
372.913	17.163	834.442	624.617
373.927	17.319	833.518	624.444
374.942	17.312	833.008	623.980
375.956	17.482	832.435	624.120
376.971	17.485	832.185	623.890
377.986	17.346	831.892	623.105
379.000	17.473	831.122	622.936
380.015	17.324	830.711	622.027
381.029	17.416	830.387	622.069
382.044	17.448	830.012	621.849
383.059	17.530	828.846	621.218
384.073	17.532	828.271	620.739
385.088	17.544	828.054	620.566
386.102	17.343	827.669	619.491
387.117	17.436	827.100	619.349
388.132	17.512	826.334	618.997
389.146	17.422	825.874	618.270
390.161	17.591	825.337	618.426
391.175	17.629	824.596	617.954
392.190	17.544	824.291	617.362
393.205	17.548	823.785	616.943
394.219	17.549	823.619	616.770
395.234	17.570	823.130	616.424
396.248	17.460	822.689	615.642
397.263	17.462	822.183	615.218
398.278	17.522	821.776	615.072
399.292	17.512	821.339	614.655
400.307	17.686	820.953	614.940
401.321	17.598	820.752	614.417
402.336	17.575	820.296	613.939
403.350	17.576	819.457	613.262
404.365	17.796	818.994	613.652
405.380	17.750	818.276	612.896
406.394	17.685	818.498	612.774
407.409	17.765	817.435	612.210
408.423	17.840	817.346	612.357
409.438	17.946	817.009	612.431
410.453	17.906	816.597	611.926
411.467	18.087	815.808	611.928
412.482	17.973	815.405	611.162
413.496	17.895	815.064	610.577
414.511	17.948	814.746	610.472
415.526	17.833	814.754	610.012
416.540	18.014	814.077	610.098
417.555	17.953	813.703	609.548
418.569	17.870	813.084	608.734
419.584	18.071	812.515	608.967
420.599	18.032	812.075	608.446
421.613	114.376	1299.096	1486.716
422.628	98.977	1369.983	1486.798
