DTS Sentinel unit serial number:	SN413079Multiplexer serial number:	ORYXHardware model number:	OX4-SRSoftware version number:	ORYX F/W v4.00 Oryx Data Collector v3.7.2.0data status	okinstallation	princeton_trtdifferential loss correction	single-endedforward channel	channel 1reverse channel	N/Adate	2019/09/16time	06:02:35forward acquisition time	60.00reverse acquisition time	0.00gamma	496.2192k internal	0.2331k external	0.2331temperature offset calibration	0.9981default loss term (dB/km)	0.3790temperature slope calibration	1.0000multiplexer offset coefficient	1.0000multiplexer slope coefficient	1.0000fibre end	0.00T internal ref (°C)	27.44T ext. ref 1 (°C)	11.27T ext. ref 2 (°C)	22.08length (m)	temperature (°C)	Stokes	anti-Stokes-747.200	8.201	-0.259	0.196
-746.185	-18.821	-0.242	0.152
-745.171	-200.000	0.001	0.086
-744.156	170.374	-0.125	0.181
-743.142	-181.655	-0.252	-0.005
-742.127	-200.000	0.080	0.491
-741.112	110.819	-0.028	0.034
-740.098	75.664	0.247	0.262
-739.083	259.063	0.165	0.286
-738.069	-54.419	-0.171	-0.078
-737.054	800.000	-0.031	0.093
-736.039	-145.003	-0.101	0.009
-735.025	542.754	-0.053	0.127
-734.010	500.465	-0.058	0.136
-732.996	77.367	0.273	-0.293
-731.981	-33.607	-0.255	-0.142
-730.966	-78.797	-0.266	0.091
-729.952	-49.844	-0.275	0.131
-728.937	-105.990	-0.257	-0.058
-727.923	50.919	-0.108	-0.103
-726.908	-71.098	-0.432	0.164
-725.894	800.000	-0.029	0.097
-724.879	-170.205	-0.205	-0.007
-723.864	328.763	-0.029	0.057
-722.850	-74.971	-0.118	0.043
-721.835	386.135	0.114	-0.237
-720.821	-100.832	-0.309	-0.076
-719.806	-98.254	0.173	-0.045
-718.791	-24.341	-0.309	0.185
-717.777	-114.242	-0.198	0.038
-716.762	15.917	-0.104	-0.083
-715.748	800.000	-0.035	0.144
-714.733	11.702	-0.178	-0.137
-713.718	-22.405	-0.280	-0.170
-712.704	-200.000	0.041	-0.297
-711.689	-48.608	0.292	0.141
-710.675	217.408	0.071	-0.114
-709.660	760.152	0.133	0.364
-708.645	637.055	0.069	0.177
-707.631	-7.571	0.143	0.097
-706.616	-86.694	-0.284	0.087
-705.602	138.915	-0.086	0.113
-704.587	-162.938	-0.204	-0.010
-703.572	33.030	0.102	0.089
-702.558	475.742	-0.112	-0.255
-701.543	-200.000	0.037	-0.204
-700.529	-7.368	0.191	-0.130
-699.514	-131.848	-0.141	-0.019
-698.499	643.075	-0.072	0.185
-697.485	-133.849	-0.320	0.040
-696.470	-200.000	-0.056	0.263
-695.456	-68.978	-0.162	-0.063
-694.441	-159.294	0.187	0.011
-693.426	102.863	0.125	-0.147
-692.412	103.166	-0.172	0.202
-691.397	376.548	0.069	-0.141
-690.383	204.548	0.155	-0.241
-689.368	-51.204	-0.393	-0.185
-688.354	-32.437	0.177	0.099
-687.339	253.135	-0.188	0.322
-686.324	112.082	-0.257	0.312
-685.310	-48.134	-0.116	0.056
-684.295	-82.221	0.260	-0.085
-683.281	-153.413	-0.071	0.005
-682.266	682.938	0.102	-0.268
-681.251	257.404	0.204	0.352
-680.237	-66.233	-0.138	-0.055
-679.222	287.544	-0.104	-0.188
-678.208	-200.000	-0.023	-0.325
-677.193	132.722	-0.056	-0.072
-676.178	800.000	-0.036	0.124
-675.164	-43.230	-0.143	-0.073
-674.149	6.119	0.067	-0.050
-673.135	-0.611	-0.366	-0.261
-672.120	800.000	-0.040	-0.168
-671.105	-144.764	-0.127	-0.012
-670.091	-96.938	0.195	0.051
-669.076	158.116	-0.013	0.018
-668.062	-12.322	-0.289	-0.189
-667.047	42.395	-0.051	-0.046
-666.032	-145.554	-0.134	-0.012
-665.018	-133.616	-0.313	-0.039
-664.003	314.465	-0.154	-0.292
-662.989	-60.492	-0.242	-0.103
-661.974	-200.000	0.021	-0.112
-660.959	105.538	0.173	0.206
-659.945	56.011	-0.109	0.106
-658.930	-200.000	0.006	-0.405
-657.916	-43.878	-0.291	-0.147
-656.901	-5.543	-0.229	-0.158
-655.886	72.991	-0.128	-0.135
-654.872	-130.771	0.127	0.017
-653.857	222.775	-0.299	-0.483
-652.843	383.612	-0.095	-0.196
-651.828	-125.825	-0.244	0.037
-650.814	115.455	0.164	0.202
-649.799	-47.986	0.390	-0.189
-648.784	202.478	-0.116	-0.180
-647.770	180.162	-0.048	-0.071
-646.755	280.673	0.128	-0.229
-645.741	-49.514	-0.311	-0.149
-644.726	480.467	-0.173	0.394
-643.711	800.000	-0.087	0.266
-642.697	-200.000	-0.026	-0.224
-641.682	-1.201	0.070	0.049
-640.668	-30.377	0.094	-0.054
-639.653	331.101	-0.133	0.258
-638.638	5.653	0.352	0.261
-637.624	-200.000	0.016	0.182
-636.609	800.000	-0.049	0.158
-635.595	338.308	0.187	0.366
-634.580	-200.000	0.052	-0.230
-633.565	-200.000	-0.006	0.047
-632.551	800.000	0.061	-0.204
-631.536	-200.000	0.049	-0.271
-630.522	-200.000	0.012	0.059
-629.507	67.120	-0.198	-0.202
-628.492	-67.476	0.254	-0.100
-627.478	-116.791	0.456	0.084
-626.463	138.463	-0.151	-0.198
-625.449	-23.998	-0.242	-0.145
-624.434	-58.750	-0.024	0.010
-623.419	-200.000	0.029	0.210
-622.405	145.756	-0.255	-0.342
-621.390	79.787	-0.280	-0.302
-620.376	-53.030	-0.193	0.089
-619.361	157.263	0.048	-0.066
-618.346	-25.514	0.188	-0.111
-617.332	183.439	0.153	-0.227
-616.317	800.000	-0.052	0.210
-615.303	-200.000	-0.007	0.385
-614.288	-200.000	-0.013	0.063
-613.273	278.287	-0.130	0.232
-612.259	-106.317	-0.217	0.049
-611.244	-42.300	-0.108	0.055
-610.230	-176.835	-0.141	0.004
-609.215	-200.000	-0.001	0.035
-608.201	-5.227	-0.086	0.060
-607.186	-200.000	0.042	0.217
-606.171	-78.844	-0.423	-0.144
-605.157	110.382	0.084	0.101
-604.142	52.587	0.248	-0.237
-603.128	800.000	0.072	-0.276
-602.113	-200.000	0.008	0.100
-601.098	106.090	-0.116	0.137
-600.084	533.289	-0.036	-0.085
-599.069	-200.000	-0.011	-0.065
-598.055	52.859	-0.210	0.201
-597.040	-200.000	0.008	-0.490
-596.025	-49.743	0.133	-0.063
-595.011	-200.000	0.028	0.147
-593.996	-200.000	-0.025	0.388
-592.982	-30.404	-0.398	-0.226
-591.967	409.235	0.035	-0.075
-590.952	-200.000	0.024	0.120
-589.938	800.000	-0.070	-0.273
-588.923	-93.793	-0.243	-0.067
-587.909	-168.577	-0.225	-0.009
-586.894	253.210	0.166	-0.283
-585.879	-63.173	-0.230	0.095
-584.865	21.044	-0.271	-0.220
-583.850	800.000	-0.035	0.102
-582.836	800.000	0.036	-0.130
-581.821	102.251	0.113	0.132
-580.806	-200.000	0.012	0.178
-579.792	800.000	0.037	-0.106
-578.777	134.653	-0.146	-0.189
-577.763	33.789	0.161	-0.140
-576.748	-13.615	0.182	-0.118
-575.733	-122.066	-0.589	-0.097
-574.719	-122.027	0.205	0.034
-573.704	-105.117	0.085	-0.019
-572.690	-49.617	-0.099	-0.047
-571.675	-15.128	-0.124	0.079
-570.661	251.310	-0.077	0.131
-569.646	-79.778	0.355	-0.120
-568.631	-123.111	0.180	0.029
-567.617	-111.492	-0.357	-0.073
-566.602	-93.298	0.098	-0.027
-565.588	57.850	-0.404	0.395
-564.573	15.680	-0.144	0.113
-563.558	-105.139	0.239	-0.055
-562.544	-200.000	0.002	0.150
-561.529	-200.000	0.004	-0.216
-560.515	196.571	0.112	0.171
-559.500	-133.057	-0.154	0.019
-558.485	800.000	0.030	-0.105
-557.471	-76.028	0.105	-0.037
-556.456	-200.000	0.024	-0.186
-555.442	105.538	0.194	-0.229
-554.427	191.658	-0.038	0.057
-553.412	-200.000	0.028	-0.196
-552.398	-111.365	0.307	0.063
-551.383	-99.148	-0.275	-0.070
-550.369	237.725	-0.093	-0.155
-549.354	375.751	0.134	0.273
-548.339	-200.000	-0.013	-0.119
-547.325	-84.918	-0.477	0.150
-546.310	10.032	-0.249	-0.189
-545.296	-37.866	0.108	-0.058
-544.281	271.287	-0.096	-0.169
-543.266	800.000	-0.072	0.282
-542.252	-165.133	0.050	-0.002
-541.237	112.072	0.176	-0.212
-540.223	800.000	0.031	0.095
-539.208	50.118	0.251	0.237
-538.193	126.972	0.087	-0.110
-537.179	800.000	0.091	-0.289
-536.164	108.290	0.156	-0.186
-535.150	-38.629	0.317	-0.167
-534.135	-200.000	-0.003	0.118
-533.121	-200.000	-0.018	0.153
-532.106	-30.121	0.061	0.034
-531.091	-83.070	-0.047	0.015
-530.077	123.711	0.125	0.156
-529.062	413.490	0.088	0.186
-528.048	800.000	-0.015	-0.052
-527.033	155.012	-0.031	0.042
-526.018	-177.821	0.346	0.008
-525.004	180.089	0.175	-0.256
-523.989	-4.514	-0.074	-0.051
-522.975	545.422	0.024	-0.057
-521.960	-10.451	-0.026	0.018
-520.945	37.164	-0.082	0.073
-519.931	-7.734	-0.333	0.224
-518.916	286.759	-0.039	0.069
-517.902	96.722	0.048	0.055
-516.887	194.071	-0.235	-0.356
-515.872	30.225	-0.106	0.091
-514.858	15.918	-0.163	0.128
-513.843	-42.329	0.284	-0.145
-512.829	-58.444	-0.169	-0.073
-511.814	-200.000	-0.009	0.307
-510.799	111.474	0.152	0.183
-509.785	-152.959	-0.059	0.004
-508.770	17.607	-0.159	-0.126
-507.756	-200.000	-0.014	0.234
-506.741	800.000	-0.017	0.062
-505.726	-182.686	-0.180	0.003
-504.712	-200.000	0.194	0.001
-503.697	-24.226	0.179	0.106
-502.683	-22.758	-0.295	-0.178
-501.668	317.768	0.053	0.099
-500.653	-72.642	-0.199	0.073
-499.639	-200.000	0.012	0.124
-498.624	291.444	0.054	-0.098
-497.610	-86.249	0.169	-0.052
-496.595	-128.542	-0.162	-0.023
-495.581	489.454	0.049	-0.111
-494.566	-18.968	0.169	0.105
-493.551	430.982	0.141	0.304
-492.537	800.000	-0.033	-0.122
-491.522	-200.000	0.018	-0.238
-490.508	-155.685	-0.139	-0.009
-489.493	15.475	0.090	-0.071
-488.478	-1.295	0.144	0.102
-487.464	2.755	-0.241	-0.174
-486.449	190.254	0.192	0.288
-485.435	-42.620	0.044	0.022
-484.420	800.000	0.007	0.031
-483.405	15.994	0.334	0.262
-482.391	-126.612	-0.286	0.042
-481.376	-105.749	-0.196	0.044
-480.362	-200.000	0.044	0.221
-479.347	-200.000	-0.046	-0.239
-478.332	800.000	0.119	0.328
-477.318	-200.000	-0.070	0.317
-476.303	10.303	0.189	-0.143
-475.289	-108.405	-0.195	0.042
-474.274	-48.597	0.147	0.070
-473.259	800.000	-0.087	0.277
-472.245	-91.405	-0.093	0.027
-471.230	-119.066	-0.321	-0.056
-470.216	304.463	-0.068	-0.126
-469.201	337.931	0.123	-0.238
-468.186	-169.623	0.208	-0.008
-467.172	478.315	-0.019	0.044
-466.157	-111.484	-0.136	0.028
-465.143	-61.127	0.282	0.118
-464.128	309.690	-0.212	0.395
-463.113	-184.434	0.429	0.007
-462.099	-142.787	0.088	-0.009
-461.084	-9.569	-0.157	0.104
-460.070	177.246	-0.309	-0.448
-459.055	43.338	0.192	-0.175
-458.040	-170.852	-0.284	0.010
-457.026	-77.311	0.440	-0.152
-456.011	-184.517	-0.127	-0.002
-454.997	800.000	0.076	0.256
-453.982	-27.596	0.190	-0.110
-452.968	-82.390	0.099	0.032
-451.953	-71.276	0.245	0.091
-450.938	800.000	0.047	0.191
-449.924	-169.595	0.210	0.008
-448.909	-16.255	-0.247	0.156
-447.895	-200.000	-0.007	0.293
-446.880	-101.321	0.204	-0.049
-445.865	-128.452	-0.234	0.033
-444.851	-8.463	0.264	0.176
-443.836	-157.648	-0.295	0.018
-442.822	112.587	-0.155	-0.186
-441.807	88.707	0.116	0.128
-440.792	110.377	0.109	0.130
-439.778	15.087	0.091	-0.071
-438.763	233.847	-0.241	0.395
-437.749	88.542	0.164	0.181
-436.734	800.000	0.047	-0.144
-435.719	-148.661	0.049	-0.004
-434.705	-114.943	-0.170	0.032
-433.690	285.092	0.263	0.470
-432.676	106.613	0.201	-0.237
-431.661	800.000	-0.032	0.119
-430.646	30.807	-0.185	0.158
-429.632	104.314	-0.163	0.190
-428.617	489.229	0.071	-0.162
-427.603	67.210	0.097	0.098
-426.588	-200.000	-0.010	-0.137
-425.573	81.814	0.168	-0.181
-424.559	239.628	-0.173	-0.287
-423.544	357.657	-0.129	0.256
-422.530	-79.193	-0.047	-0.016
-421.515	316.490	-0.175	-0.329
-420.500	-167.645	-0.293	-0.012
-419.486	-4.746	0.126	0.086
-418.471	-67.401	-0.046	0.018
-417.457	713.571	0.021	0.055
-416.442	-43.130	0.070	0.035
-415.428	-200.000	0.012	-0.158
-414.413	-200.000	0.023	-0.555
-413.398	-86.196	0.307	-0.094
-412.384	-200.000	-0.002	0.292
-411.369	-200.000	-0.004	0.320
-410.355	208.540	0.141	-0.219
-409.340	-116.055	-0.224	0.041
-408.325	256.050	0.021	-0.036
-407.311	-78.413	0.236	-0.080
-406.296	213.768	0.102	-0.160
-405.282	125.550	-0.081	-0.101
-404.267	-147.523	-0.181	-0.015
-403.252	71.701	0.030	-0.031
-402.238	-104.317	0.118	0.027
-401.223	-101.334	-0.169	0.041
-400.209	519.922	0.035	-0.082
-399.194	800.000	-0.054	-0.233
-398.179	643.147	0.138	0.349
-397.165	-200.000	0.043	0.349
-396.150	-1.222	0.115	-0.080
-395.136	-200.000	0.020	0.182
-394.121	-62.989	0.365	-0.150
-393.106	91.372	0.198	-0.221
-392.092	-150.028	0.274	0.021
-391.077	800.000	0.019	-0.066
-390.063	468.924	-0.048	-0.107
-389.048	800.000	0.031	0.129
-388.033	-89.281	0.286	-0.084
-387.019	603.990	-0.129	0.318
-386.004	21.634	-0.160	-0.129
-384.990	156.351	0.206	-0.282
-383.975	-183.484	0.207	0.004
-382.960	800.000	-0.031	0.112
-381.946	152.590	-0.123	-0.167
-380.931	251.008	-0.102	-0.172
-379.917	57.682	-0.122	-0.118
-378.902	207.106	0.212	0.328
-377.888	295.411	0.068	-0.124
-376.873	800.000	-0.065	-0.195
-375.858	-145.665	0.132	0.012
-374.844	-7.345	-0.172	0.115
-373.829	800.000	0.090	-0.368
-372.815	800.000	-0.148	0.422
-371.800	-200.000	-0.005	-0.073
-370.785	577.169	0.105	0.256
-369.771	-73.262	-0.322	-0.117
-368.756	-16.413	0.401	-0.253
-367.742	192.434	0.194	0.291
-366.727	-71.436	0.275	-0.102
-365.712	19.696	-0.269	-0.215
-364.698	401.434	0.218	-0.455
-363.683	214.092	-0.153	0.239
-362.669	-107.101	-0.213	-0.047
-361.654	130.132	-0.103	0.130
-360.639	-21.558	-0.168	-0.102
-359.625	624.690	0.037	0.092
-358.610	84.477	-0.189	-0.205
-357.596	216.293	-0.145	-0.228
-356.581	-78.943	0.160	0.054
-355.566	-88.741	-0.129	-0.038
-354.552	-67.021	0.284	0.111
-353.537	327.217	-0.153	-0.292
-352.523	-16.706	-0.077	0.048
-351.508	-144.216	-0.361	-0.033
-350.493	74.481	-0.164	0.171
-349.479	-74.586	-0.090	-0.032
-348.464	-153.718	0.209	-0.014
-347.450	15.697	0.405	0.316
-346.435	137.587	0.098	0.127
-345.420	129.644	0.018	-0.023
-344.406	-53.459	-0.191	-0.087
-343.391	107.114	-0.055	0.065
-342.377	99.644	0.086	-0.099
-341.362	-200.000	0.017	-0.268
-340.348	-70.853	-0.266	-0.100
-339.333	-148.763	0.139	-0.011
-338.318	-72.287	0.303	-0.111
-337.304	44.185	0.076	-0.069
-336.289	-46.114	0.195	0.095
-335.275	-200.000	-0.023	-0.321
-334.260	-121.918	-0.154	-0.025
-333.245	-56.288	0.070	0.031
-332.231	-157.811	0.065	-0.004
-331.216	37.153	-0.247	0.216
-330.202	341.454	-0.172	-0.334
-329.187	800.000	-0.113	-0.315
-328.172	748.928	0.092	-0.245
-327.158	50.792	-0.228	-0.214
-326.143	131.978	0.211	0.268
-325.129	19.459	-0.166	0.132
-324.114	-22.569	-0.300	0.180
-323.099	783.332	0.073	0.197
-322.085	-200.000	-0.071	-0.453
-321.070	104.621	0.111	0.129
-320.056	101.108	-0.067	0.077
-319.041	161.190	-0.105	0.145
-318.026	133.390	-0.256	0.327
-317.012	-200.000	-0.008	-0.168
-315.997	234.249	0.118	-0.192
-314.983	-67.845	-0.329	0.127
-313.968	278.526	-0.100	0.176
-312.953	800.000	0.080	0.248
-311.939	-200.000	0.012	0.280
-310.924	-200.000	0.021	0.116
-309.910	-200.000	-0.007	0.037
-308.895	800.000	0.087	0.243
-307.880	400.444	-0.098	-0.204
-306.866	11.212	-0.154	-0.117
-305.851	84.792	0.205	0.222
-304.837	-200.000	0.029	0.347
-303.822	-61.799	0.210	0.087
-302.807	800.000	-0.021	0.080
-301.793	511.169	-0.037	0.085
-300.778	151.785	-0.238	-0.321
-299.764	62.901	0.060	0.059
-298.749	-128.891	-0.343	-0.048
-297.735	-44.375	-0.147	-0.073
-296.720	-133.289	0.469	-0.058
-295.705	111.275	0.134	-0.160
-294.691	-200.000	-0.052	0.260
-293.676	-73.471	0.275	0.099
-292.662	-20.732	-0.178	-0.108
-291.647	96.106	-0.138	0.156
-290.632	300.030	-0.134	0.244
-289.618	-200.000	-0.001	-0.026
-288.603	24.872	-0.156	0.128
-287.589	375.322	-0.101	0.203
-286.574	109.913	0.147	0.174
-285.559	-98.482	0.492	-0.124
-284.545	482.297	0.030	-0.068
-283.530	439.530	0.028	-0.061
-282.516	-200.000	-0.060	-0.279
-281.501	185.500	-0.097	-0.143
-280.486	69.505	0.294	0.299
-279.472	116.339	0.020	0.025
-278.457	333.037	0.142	0.272
-277.443	-200.000	0.023	0.152
-276.428	222.811	-0.059	0.094
-275.413	95.124	0.140	0.157
-274.399	-64.085	-0.282	0.114
-273.384	254.304	-0.157	0.266
-272.370	262.940	-0.202	0.347
-271.355	135.531	0.108	-0.139
-270.340	800.000	-0.077	-0.216
-269.326	363.937	-0.122	-0.242
-268.311	153.310	-0.306	-0.414
-267.297	-200.000	0.008	-0.279
-266.282	-123.475	0.287	-0.045
-265.267	27.897	0.398	0.332
-264.253	-141.262	0.102	-0.010
-263.238	151.408	-0.243	-0.326
-262.224	-89.431	-0.061	0.018
-261.209	331.532	-0.082	-0.157
-260.195	-32.483	-0.065	-0.036
-259.180	-13.123	0.133	0.086
-258.165	-169.948	-0.084	0.003
-257.151	-183.640	0.081	0.001
-256.136	800.000	-0.078	-0.251
-255.122	125.450	-0.073	-0.091
-254.107	-154.226	0.423	-0.028
-253.092	-191.760	0.149	-0.001
-252.078	-145.573	-0.267	0.024
-251.063	-200.000	-0.006	-0.235
-250.049	296.825	0.094	-0.170
-249.034	236.422	-0.107	0.175
-248.019	-74.313	0.134	0.048
-247.005	800.000	-0.047	-0.201
-245.990	0.458	-0.099	-0.070
-244.976	-127.460	0.117	-0.017
-243.961	-64.408	0.083	-0.033
-242.946	13.391	0.117	-0.090
-241.932	-23.903	-0.070	-0.041
-240.917	-7.990	-0.055	-0.037
-239.903	800.000	-0.038	-0.134
-238.888	1.481	0.190	-0.135
-237.873	538.938	0.083	-0.195
-236.859	-43.193	-0.107	0.053
-235.844	-200.000	-0.025	-0.161
-234.830	-88.219	-0.345	0.102
-233.815	-200.000	-0.031	-0.187
-232.800	-200.000	0.005	-0.035
-231.786	210.138	0.215	-0.333
-230.771	-82.727	-0.225	0.072
-229.757	394.203	-0.259	0.533
-228.742	800.000	0.062	-0.186
-227.727	-200.000	0.001	-0.156
-226.713	-200.000	0.071	-0.436
-225.698	-162.776	-0.083	0.004
-224.684	-8.945	0.413	-0.273
-223.669	800.000	0.021	-0.080
-222.655	479.258	-0.033	0.073
-221.640	-93.874	-0.122	0.033
-220.625	169.465	-0.104	0.147
-219.611	-200.000	0.011	-0.142
-218.596	105.952	-0.274	0.320
-217.582	-22.666	0.109	0.065
-216.567	-106.304	0.330	0.073
-215.552	114.318	-0.032	0.039
-214.538	14.892	0.110	-0.085
-213.523	-70.550	-0.067	-0.025
-212.509	800.000	0.018	-0.059
-211.494	365.758	-0.165	-0.328
-210.479	-200.000	0.006	-0.541
-209.465	800.000	0.053	-0.168
-208.450	-100.371	0.234	0.057
-207.436	-200.000	0.028	0.175
-206.421	-68.180	0.066	-0.025
-205.406	315.167	0.029	0.055
-204.392	86.215	-0.169	0.183
-203.377	800.000	-0.048	-0.184
-202.363	153.307	-0.183	-0.247
-201.348	9.015	-0.092	-0.068
-200.333	64.119	-0.098	0.097
-199.319	-200.000	0.048	0.248
-198.304	-64.242	0.197	-0.079
-197.290	-98.145	0.203	-0.051
-196.275	30.594	-0.187	0.158
-195.260	166.939	0.043	-0.060
-194.246	-2.324	0.196	-0.135
-193.231	-169.455	0.354	-0.013
-192.217	296.224	0.092	-0.166
-191.202	-200.000	0.004	0.453
-190.187	-166.885	-0.026	0.001
-189.173	-156.591	-0.046	0.003
-188.158	788.979	-0.058	0.158
-187.144	-27.976	-0.084	0.048
-186.129	36.534	-0.154	-0.134
-185.114	-27.871	0.392	-0.224
-184.100	-18.699	-0.094	0.057
-183.085	416.991	-0.092	0.193
-182.071	208.957	0.102	0.157
-181.056	193.192	-0.172	0.257
-180.042	207.904	-0.166	0.256
-179.027	-184.713	0.094	-0.001
-178.012	-181.138	-0.051	-0.001
-176.998	800.000	-0.107	0.304
-175.983	666.699	0.083	0.211
-174.969	-200.000	0.083	0.380
-173.954	-200.000	-0.028	-0.213
-172.939	-200.000	-0.027	0.138
-171.925	68.466	-0.055	0.056
-170.910	-14.430	0.223	0.141
-169.896	800.000	-0.059	0.243
-168.881	-103.996	-0.181	-0.042
-167.866	800.000	-0.027	-0.083
-166.852	-29.447	0.224	0.126
-165.837	733.931	-0.064	-0.170
-164.823	57.917	0.152	0.146
-163.808	770.492	0.108	0.289
-162.793	738.037	-0.053	-0.139
-161.779	-12.225	-0.161	0.104
-160.764	43.861	-0.230	0.207
-159.750	246.703	-0.047	-0.077
-158.735	173.309	-0.294	0.418
-157.720	262.702	0.158	0.270
-156.706	-200.000	-0.003	-0.104
-155.691	7.681	0.103	0.076
-154.677	5.133	0.170	-0.123
-153.662	11.803	0.328	-0.248
-152.647	-200.000	-0.019	-0.444
-151.633	-200.000	-0.079	-0.387
-150.618	477.439	-0.091	-0.202
-149.604	79.649	0.048	0.051
-148.589	-57.788	0.293	0.126
-147.574	8.497	-0.167	-0.123
-146.560	-200.000	0.062	0.375
-145.545	-200.000	-0.011	0.118
-144.531	66.873	-0.079	-0.079
-143.516	256.233	-0.200	-0.337
-142.502	-13.849	-0.122	0.078
-141.487	-52.412	-0.198	-0.090
-140.472	179.752	0.063	-0.091
-139.458	91.925	-0.188	-0.208
-138.443	407.980	0.245	-0.508
-137.429	-113.219	-0.209	-0.040
-136.414	190.661	-0.093	-0.137
-135.399	453.655	-0.138	-0.300
-134.385	119.876	0.366	0.446
-133.370	-113.162	-0.042	0.008
-132.356	-114.337	0.279	0.053
-131.341	113.532	0.170	0.202
-130.326	-0.284	-0.186	-0.130
-129.312	456.678	-0.164	-0.357
-128.297	51.145	-0.237	0.221
-127.283	-87.011	-0.305	0.091
-126.268	-200.000	0.032	0.190
-125.253	-52.834	-0.038	-0.017
-124.239	-3.250	-0.247	0.169
-123.224	-63.862	0.172	0.069
-122.210	681.260	0.049	0.125
-121.195	138.500	0.268	0.346
-120.180	49.364	0.075	-0.070
-119.166	-200.000	0.022	0.195
-118.151	800.000	-0.042	-0.134
-117.137	229.076	0.059	-0.094
-116.122	366.747	-0.153	0.303
-115.107	-61.649	0.225	-0.093
-114.093	146.472	-0.332	0.437
-113.078	66.389	0.138	0.138
-112.064	-161.827	-0.229	-0.011
-111.049	80.229	0.164	-0.174
-110.034	161.927	-0.121	-0.166
-109.020	-91.982	-0.566	-0.157
-108.005	-29.802	-0.170	0.095
-106.991	47.307	0.048	-0.043
-105.976	698.027	0.080	0.206
-104.962	-25.150	0.176	0.102
-103.947	409.783	-0.051	-0.105
-102.932	42.137	0.172	0.153
-101.918	69.800	0.165	0.167
-100.903	-38.731	-0.098	0.051
-99.889	-87.276	0.065	0.019
-98.874	-131.716	0.085	0.011
-97.859	-11.403	-0.221	-0.143
-96.845	-6.786	-0.050	-0.033
-95.830	-113.512	0.258	0.050
-94.816	800.000	-0.038	-0.112
-93.801	208.600	0.155	-0.239
-92.786	219.342	0.293	0.460
-91.772	-29.815	-0.022	-0.012
-90.757	-22.448	-0.318	-0.189
-89.743	-148.190	0.124	0.010
-88.728	240.423	-0.132	0.216
-87.713	41.738	0.121	-0.108
-86.699	772.486	-0.033	0.088
-85.684	-61.866	-0.141	0.058
-84.670	93.231	0.160	-0.177
-83.655	-99.889	0.119	-0.029
-82.640	800.000	0.094	-0.365
-81.626	-200.000	-0.041	-0.179
-80.611	89.461	0.090	-0.098
-79.597	103.120	-0.139	0.159
-78.582	285.365	-0.092	0.163
-77.567	800.000	0.058	0.201
-76.553	-200.000	0.006	-0.241
-75.538	-200.000	-0.011	-0.056
-74.524	63.916	-0.225	0.221
-73.509	208.244	-0.143	0.219
-72.494	-40.459	0.148	-0.075
-71.480	800.000	-0.034	-0.127
-70.465	-200.000	0.024	-0.400
-69.451	4.459	0.242	0.174
-68.436	-200.000	0.048	-0.304
-67.422	-60.406	0.040	0.017
-66.407	800.000	0.060	0.249
-65.392	216.782	0.265	0.414
-64.378	-4.934	-0.328	0.222
-63.363	234.190	-0.028	-0.045
-62.349	-200.000	-0.003	0.255
-61.334	97.675	-1.050	-1.183
-60.319	-35.543	0.963	0.513
-59.305	-200.000	-0.133	-0.998
-58.290	178.986	0.673	0.964
-57.276	407.527	0.696	1.441
-56.261	-200.000	113.182	642.289
-55.246	466.583	1508.985	3312.377
-54.232	146.654	2676.767	3523.951
-53.217	103.704	2157.398	2482.140
-52.203	38.784	1604.347	1403.335
-51.188	30.580	1350.539	1131.601
-50.173	27.739	1312.567	1082.905
-49.159	55.936	1367.911	1299.801
-48.144	54.459	1382.117	1304.351
-47.130	31.051	1338.335	1124.034
-46.115	27.560	1320.551	1088.248
-45.100	27.255	1315.918	1082.576
-44.086	27.253	1313.253	1080.326
-43.071	27.251	1310.758	1078.221
-42.057	27.260	1308.881	1076.683
-41.042	27.274	1307.477	1075.570
-40.027	27.261	1305.763	1074.044
-39.013	27.315	1303.497	1072.455
-37.998	27.232	1302.103	1070.772
-36.984	27.389	1299.688	1069.671
-35.969	27.559	1297.659	1068.952
-34.954	27.407	1296.620	1067.163
-33.940	27.526	1295.082	1066.554
-32.925	27.470	1293.929	1065.236
-31.911	27.497	1292.319	1064.023
-30.896	27.424	1291.040	1062.500
-29.881	27.631	1289.373	1062.293
-28.867	27.462	1288.804	1060.802
-27.852	27.605	1286.373	1059.588
-26.838	27.565	1284.913	1058.111
-25.823	27.501	1284.153	1057.074
-24.809	27.471	1282.913	1055.837
-23.794	27.502	1281.243	1054.600
-22.779	27.538	1279.839	1053.611
-21.765	27.530	1278.449	1052.380
-20.750	27.576	1277.296	1051.650
-19.736	27.374	1276.045	1049.414
-18.721	27.450	1274.832	1048.813
-17.706	27.536	1273.657	1048.298
-16.692	27.381	1272.620	1046.516
-15.677	27.373	1271.800	1045.752
-14.663	27.508	1270.272	1045.231
-13.648	27.447	1269.256	1044.001
-12.633	27.344	1268.200	1042.502
-11.619	27.436	1267.626	1042.513
-10.604	27.345	1266.758	1041.242
-9.590	27.382	1265.709	1040.548
-8.575	27.395	1264.354	1039.466
-7.560	27.235	1264.087	1038.291
-6.546	27.292	1262.875	1037.579
-5.531	27.396	1262.165	1037.547
-4.517	27.409	1260.819	1036.474
-3.502	27.439	1260.428	1036.283
-2.487	27.362	1259.393	1034.954
-1.473	27.383	1255.177	1031.567
-0.458	25.996	1240.221	1011.464
0.556	21.133	1224.402	974.824
1.571	17.673	1230.861	960.417
2.586	16.937	1245.391	967.469
3.600	17.065	1234.962	960.006
4.615	15.740	1168.544	901.203
5.629	12.911	1102.141	835.599
6.644	11.305	1085.795	815.110
7.659	11.373	1082.996	813.277
8.673	11.175	1082.021	811.490
9.688	11.217	1080.657	810.604
10.702	11.372	1078.679	809.815
11.717	12.991	1080.091	818.847
12.731	15.892	1083.826	836.030
13.746	17.528	1086.195	845.918
14.761	17.648	1085.020	845.519
15.775	16.594	1083.487	839.028
16.790	15.737	1080.842	832.665
17.804	14.808	1079.318	826.824
18.819	14.499	1077.813	824.070
19.834	14.129	1077.012	821.558
20.848	13.985	1076.155	820.118
21.863	13.724	1075.600	818.335
22.877	13.700	1074.824	817.557
23.892	13.545	1074.218	816.257
24.907	13.506	1073.377	815.357
25.921	13.533	1072.398	814.671
26.936	13.660	1070.946	814.123
27.950	13.584	1069.418	812.513
28.965	13.721	1068.163	812.161
29.980	13.780	1066.494	811.111
30.994	13.940	1065.010	810.688
32.009	13.911	1064.269	809.912
33.023	13.815	1063.428	808.730
34.038	13.824	1062.019	807.635
35.053	13.695	1061.241	806.342
36.067	13.852	1059.941	806.045
37.082	13.753	1059.920	805.478
38.096	13.796	1058.989	804.907
39.111	13.674	1058.106	803.574
40.126	13.679	1056.763	802.508
41.140	13.501	1055.535	800.645
42.155	13.482	1054.534	799.723
43.169	13.552	1053.474	799.186
44.184	13.349	1053.012	797.783
45.199	13.441	1051.723	797.180
46.213	13.639	1050.169	796.883
47.228	13.675	1049.360	796.373
48.242	13.665	1048.582	795.662
49.257	13.623	1047.323	794.437
50.271	13.675	1046.389	793.905
51.286	13.672	1045.836	793.401
52.301	13.777	1044.482	792.807
53.315	13.645	1043.558	791.406
54.330	13.594	1042.228	790.082
55.344	13.600	1041.768	789.695
56.359	13.673	1040.542	789.039
57.374	13.509	1040.191	787.924
58.388	13.523	1039.051	787.057
59.403	13.319	1038.651	785.719
60.417	13.508	1037.456	785.639
61.432	13.578	1036.299	785.026
62.447	13.401	1035.627	783.608
63.461	13.324	1035.288	782.921
64.476	13.416	1033.639	782.036
65.490	13.436	1033.089	781.647
66.505	13.341	1032.770	780.888
67.520	13.514	1031.703	780.827
68.534	13.540	1031.169	780.474
69.549	13.448	1029.895	779.009
70.563	13.369	1029.498	778.271
71.578	13.499	1028.440	778.014
72.593	13.392	1027.979	777.092
73.607	13.316	1027.472	776.281
74.622	13.440	1026.397	775.985
75.636	13.326	1026.110	775.163
76.651	13.427	1025.177	774.862
77.666	13.546	1024.380	774.749
78.680	13.442	1023.849	773.793
79.695	13.476	1023.173	773.370
80.709	13.458	1022.286	772.547
81.724	13.478	1022.109	772.442
82.739	13.567	1021.559	772.370
83.753	13.703	1020.138	771.861
84.768	13.771	1019.784	771.841
85.782	13.724	1018.831	770.833
86.797	13.848	1017.106	770.034
87.812	13.647	1017.013	768.966
88.826	13.585	1015.776	767.677
89.841	13.777	1014.456	767.498
90.855	13.744	1014.381	767.219
91.870	13.717	1013.365	766.260
92.884	13.753	1012.132	765.424
93.899	13.798	1011.702	765.239
94.914	13.992	1010.655	765.272
95.928	13.956	1009.770	764.369
96.943	13.785	1008.916	762.872
97.957	13.680	1008.453	761.970
98.972	13.625	1007.644	761.036
99.987	13.854	1006.126	760.876
101.001	13.843	1005.365	760.179
102.016	13.776	1004.762	759.353
103.030	13.843	1003.536	758.662
104.045	13.708	1003.072	757.629
105.060	13.717	1001.777	756.626
106.074	13.572	1001.267	755.510
107.089	13.507	1000.317	754.434
108.103	13.632	999.294	754.163
109.118	13.505	998.325	752.787
110.133	13.516	997.427	752.094
111.147	13.517	996.515	751.343
112.162	13.512	995.946	750.824
113.176	13.597	995.054	750.472
114.191	13.717	994.156	750.273
115.206	13.648	993.062	749.066
116.220	13.646	992.750	748.757
117.235	13.590	991.632	747.593
118.249	13.606	990.567	746.799
119.264	13.537	989.946	745.954
120.279	13.645	988.644	745.391
121.293	13.620	988.109	744.807
122.308	13.540	987.180	743.686
123.322	13.475	986.382	742.727
124.337	13.538	985.045	741.934
125.352	13.624	983.737	741.270
126.366	13.583	982.968	740.439
127.381	13.693	981.510	739.767
128.395	13.652	981.043	739.167
129.410	13.576	980.129	738.077
130.424	13.683	979.266	737.838
131.439	13.710	978.589	737.380
132.454	13.704	978.348	737.108
133.468	13.632	977.167	735.833
134.483	13.698	976.249	735.370
135.497	13.757	975.256	734.819
136.512	13.668	974.269	733.617
137.527	13.624	973.825	733.023
138.541	13.668	973.098	732.605
139.556	13.790	972.557	732.671
140.570	13.776	971.721	731.913
141.585	13.917	970.444	731.510
142.600	14.125	969.737	731.827
143.614	14.022	968.908	730.684
144.629	13.922	968.443	729.829
145.643	13.865	967.646	728.913
146.658	13.867	966.051	727.653
147.673	13.770	965.260	726.570
148.687	13.865	964.569	726.403
149.702	13.766	963.651	725.215
150.716	13.714	963.076	724.489
151.731	13.797	962.192	724.125
152.746	13.769	961.623	723.507
153.760	13.860	960.832	723.245
154.775	13.907	960.492	723.131
155.789	13.818	959.793	722.154
156.804	13.885	958.936	721.734
157.819	13.961	958.539	721.703
158.833	14.069	957.666	721.452
159.848	14.107	956.828	720.918
160.862	14.027	955.869	719.787
161.877	13.766	955.129	718.037
162.892	13.960	953.924	717.908
163.906	13.845	952.827	716.522
164.921	13.977	952.301	716.629
165.935	13.799	951.542	715.231
166.950	13.881	950.433	714.687
167.964	13.939	949.506	714.175
168.979	13.871	948.811	713.295
169.994	14.018	947.573	712.932
171.008	14.011	946.997	712.407
172.023	14.018	946.244	711.807
173.037	14.128	945.652	711.771
174.052	13.967	944.882	710.438
175.067	14.084	943.812	710.070
176.081	13.923	943.364	708.982
177.096	13.846	943.256	708.511
178.110	13.927	942.649	708.338
179.125	13.915	942.105	707.814
180.140	14.057	941.316	707.764
181.154	14.142	940.813	707.684
182.169	14.170	940.147	707.241
183.183	14.237	939.833	707.227
184.198	14.278	938.571	706.388
185.213	14.210	938.201	705.758
186.227	14.251	937.470	705.323
187.242	14.290	936.789	704.913
188.256	14.457	935.973	704.940
189.271	14.228	935.326	703.425
190.286	14.117	934.785	702.488
191.300	13.994	934.232	701.490
192.315	13.965	933.359	700.650
193.329	13.906	933.194	700.212
194.344	14.093	932.306	700.273
195.359	14.135	931.697	699.931
196.373	14.252	930.708	699.619
197.388	14.323	930.647	699.808
198.402	14.352	930.193	699.528
199.417	14.361	929.282	698.818
200.432	14.494	929.044	699.134
201.446	14.520	928.602	698.847
202.461	14.547	928.136	698.549
203.475	14.606	927.247	698.067
204.490	14.403	926.482	696.578
205.504	14.458	925.451	695.971
206.519	14.465	924.834	695.475
207.534	14.376	924.320	694.654
208.548	14.507	923.283	694.363
209.563	14.578	922.453	693.971
210.577	14.569	922.029	693.551
211.592	14.641	921.263	693.216
212.607	14.716	920.914	693.202
213.621	14.667	920.162	692.371
214.636	14.552	919.444	691.293
215.650	14.459	919.085	690.579
216.665	14.535	918.262	690.214
217.680	14.834	917.365	690.711
218.694	14.752	916.463	689.633
219.709	14.792	915.718	689.176
220.723	14.710	915.201	688.390
221.738	14.653	914.685	687.704
222.753	14.740	913.923	687.428
223.767	14.752	913.425	687.044
224.782	14.801	913.031	686.888
225.796	14.759	912.492	686.250
226.811	14.980	911.430	686.294
227.826	14.898	910.637	685.303
228.840	14.764	910.248	684.402
229.855	14.779	909.219	683.628
230.869	14.838	908.242	683.072
231.884	14.980	907.559	683.078
232.899	14.728	907.360	681.841
233.913	14.675	906.605	680.996
234.928	14.755	906.282	681.019
235.942	14.776	905.286	680.296
236.957	14.915	904.184	679.974
237.972	14.760	904.064	679.191
238.986	14.897	903.097	678.963
240.001	14.794	902.890	678.327
241.015	14.887	902.114	678.062
242.030	14.887	901.636	677.645
243.045	14.892	901.294	677.347
244.059	14.998	900.342	677.003
245.074	14.962	899.817	676.399
246.088	14.974	898.654	675.516
247.103	15.009	898.418	675.419
248.117	14.989	897.689	674.731
249.132	15.221	897.285	675.303
250.147	15.207	896.915	674.908
251.161	15.172	896.024	674.037
252.176	15.315	895.666	674.284
253.190	15.487	894.924	674.356
254.205	15.462	893.934	673.449
255.220	15.284	893.636	672.450
256.234	15.305	892.868	671.900
257.249	15.465	891.655	671.566
258.263	15.363	891.150	670.717
259.278	15.405	890.695	670.483
260.293	15.394	890.125	669.950
261.307	15.610	889.114	669.992
262.322	15.503	889.115	669.508
263.336	15.524	888.209	668.848
264.351	15.552	887.455	668.333
265.366	15.540	886.842	667.767
266.380	15.570	886.442	667.524
267.395	15.476	885.662	666.504
268.409	15.613	884.492	666.110
269.424	15.534	883.944	665.325
270.439	15.611	883.086	664.926
271.453	15.514	882.517	664.052
272.468	15.578	882.266	664.058
273.482	15.538	881.615	663.354
274.497	15.630	880.603	662.895
275.512	15.616	880.408	662.635
276.526	15.695	879.775	662.411
277.541	15.568	879.471	661.622
278.555	15.713	878.733	661.581
279.570	15.825	878.197	661.556
280.585	15.829	877.221	660.779
281.599	15.718	876.930	660.065
282.614	15.889	875.801	659.827
283.628	15.706	875.664	658.951
284.643	15.703	874.896	658.301
285.657	15.804	874.098	658.037
286.672	15.723	873.710	657.372
287.687	15.899	873.026	657.487
288.701	15.802	872.563	656.702
289.716	15.786	871.822	656.021
290.730	15.944	871.076	656.019
291.745	15.832	870.622	655.183
292.760	15.978	870.107	655.303
293.774	16.020	868.965	654.549
294.789	15.947	868.929	654.181
295.803	15.913	867.776	653.124
296.818	15.793	867.451	652.356
297.833	15.916	866.736	652.235
298.847	16.029	865.752	651.875
299.862	15.934	865.420	651.200
300.876	16.043	864.810	651.104
301.891	16.122	864.343	651.001
302.906	16.010	864.202	650.405
303.920	15.981	863.600	649.784
304.935	16.036	863.192	649.628
305.949	16.106	862.356	649.212
306.964	16.192	861.141	648.570
307.979	16.274	860.910	648.654
308.993	16.207	860.746	648.216
310.008	16.148	860.254	647.562
311.022	16.243	859.076	646.984
312.037	16.054	858.971	646.121
313.052	16.206	858.137	646.018
314.066	16.038	857.856	645.108
315.081	16.129	857.007	644.759
316.095	16.021	856.412	643.842
317.110	16.065	856.338	643.898
318.125	16.200	855.097	643.421
319.139	16.055	854.856	642.631
320.154	16.257	854.109	642.783
321.168	16.238	853.869	642.471
322.183	16.278	853.298	642.137
323.197	16.248	852.269	641.194
324.212	16.259	852.127	641.070
325.227	16.245	851.490	640.481
326.241	16.311	851.013	640.317
327.256	16.340	850.465	639.958
328.270	16.284	849.789	639.181
329.285	16.260	849.224	638.610
330.300	16.304	848.791	638.394
331.314	16.357	848.369	638.218
332.329	16.314	847.829	637.593
333.343	16.285	847.810	637.413
334.358	16.428	847.060	637.331
335.373	16.386	846.733	636.874
336.387	16.342	846.551	636.512
337.402	16.493	846.077	636.671
338.416	16.513	845.764	636.451
339.431	16.688	844.912	636.413
340.446	16.664	844.697	636.104
341.460	16.636	844.515	635.806
342.475	16.693	844.017	635.589
343.489	16.582	843.570	634.778
344.504	16.712	842.924	634.726
345.519	16.788	842.735	634.812
346.533	16.806	841.931	634.215
347.548	16.774	841.145	633.448
348.562	16.690	840.580	632.654
349.577	16.750	840.217	632.546
350.592	16.527	839.792	631.341
351.606	16.622	839.044	631.075
352.621	16.582	838.250	630.274
353.635	16.647	837.872	630.175
354.650	16.860	837.130	630.354
355.665	16.766	836.487	629.465
356.679	16.832	835.903	629.215
357.694	16.782	835.222	628.461
358.708	16.780	834.700	628.005
359.723	16.907	833.803	627.746
360.738	16.812	833.111	626.816
361.752	16.763	833.059	626.543
362.767	16.791	832.652	626.284
363.781	16.965	831.384	625.917
364.796	16.941	831.351	625.748
365.810	17.042	830.860	625.694
366.825	17.214	830.388	625.917
367.840	17.197	829.743	625.313
368.854	17.151	829.270	624.733
369.869	17.151	828.853	624.364
370.883	17.171	828.905	624.421
371.898	17.071	828.492	623.687
372.913	17.219	827.519	623.443
373.927	17.130	827.116	622.758
374.942	17.199	826.693	622.637
375.956	17.282	826.625	622.835
376.971	17.290	825.977	622.321
377.986	17.186	825.689	621.670
379.000	17.239	825.094	621.358
380.015	17.184	824.612	620.738
381.029	17.411	823.957	621.022
382.044	17.410	823.039	620.270
383.059	17.484	822.454	620.041
384.073	17.297	822.401	619.267
385.088	17.226	821.495	618.272
386.102	17.315	820.930	618.114
387.117	17.357	820.379	617.798
388.132	17.399	819.386	617.148
389.146	17.451	819.328	617.239
390.161	17.478	818.830	616.908
391.175	17.319	818.819	616.267
392.190	17.440	818.028	616.058
393.205	17.467	817.257	615.520
394.219	17.304	817.130	614.778
395.234	17.286	816.887	614.477
396.248	17.254	816.131	613.738
397.263	17.344	815.844	613.793
398.278	17.529	815.102	613.848
399.292	17.375	815.033	613.186
400.307	17.398	814.391	612.732
401.321	17.230	814.134	611.880
402.336	17.371	813.483	611.845
403.350	17.487	813.064	611.891
404.365	17.306	812.699	610.912
405.380	17.666	811.904	611.553
406.394	17.737	811.809	611.681
407.409	17.448	811.528	610.379
408.423	17.583	811.190	610.556
409.438	17.747	810.440	610.522
410.453	17.793	809.706	610.081
411.467	17.788	809.380	609.761
412.482	17.770	809.616	609.824
413.496	17.834	809.073	609.589
414.511	17.861	808.370	609.100
415.526	17.882	808.087	608.909
416.540	17.782	807.874	608.338
417.555	17.808	807.133	607.818
418.569	18.015	806.259	607.842
419.584	18.009	806.089	607.641
420.599	17.800	806.020	606.791
421.613	111.437	1294.653	1476.212
422.628	96.166	1365.804	1476.301
