DTS Sentinel unit serial number:	SN413079Multiplexer serial number:	ORYXHardware model number:	OX4-SRSoftware version number:	ORYX F/W v4.00 Oryx Data Collector v3.7.2.0data status	okinstallation	princeton_trtdifferential loss correction	single-endedforward channel	channel 1reverse channel	N/Adate	2019/09/18time	06:02:35forward acquisition time	60.00reverse acquisition time	0.00gamma	496.2192k internal	0.2339k external	0.2339temperature offset calibration	0.9972default loss term (dB/km)	0.3790temperature slope calibration	1.0000multiplexer offset coefficient	1.0000multiplexer slope coefficient	1.0000fibre end	0.00T internal ref (°C)	23.19T ext. ref 1 (°C)	0.18T ext. ref 2 (°C)	17.66length (m)	temperature (°C)	Stokes	anti-Stokes-747.200	103.052	-0.121	0.142
-746.185	-157.173	-0.373	-0.023
-745.171	17.948	0.270	-0.215
-744.156	106.847	-0.138	-0.164
-743.142	-19.279	0.173	0.108
-742.127	-200.000	0.007	-0.078
-741.112	527.901	-0.111	0.261
-740.098	75.497	-0.326	0.345
-739.083	-200.000	0.018	0.339
-738.069	123.617	-0.107	0.135
-737.054	18.020	0.132	-0.105
-736.039	-9.272	-0.337	0.226
-735.025	-120.627	0.371	-0.063
-734.010	-29.517	-0.351	-0.201
-732.996	126.106	0.097	0.123
-731.981	-152.319	-0.223	0.016
-730.966	800.000	-0.087	-0.346
-729.952	-2.154	0.236	0.166
-728.937	-151.254	0.285	-0.021
-727.923	-103.107	0.161	0.038
-726.908	2.522	0.237	-0.172
-725.894	-59.286	-0.111	0.048
-724.879	800.000	-0.081	-0.299
-723.864	-147.910	-0.049	0.004
-722.850	-200.000	0.007	-0.204
-721.835	254.603	-0.117	0.200
-720.821	372.590	-0.090	0.182
-719.806	-115.171	0.210	-0.040
-718.791	-200.000	0.006	-0.106
-717.777	113.162	-0.111	0.134
-716.762	-91.889	-0.277	-0.079
-715.748	-122.655	0.211	-0.034
-714.733	-7.903	-0.234	-0.158
-713.718	163.003	-0.207	-0.291
-712.704	-51.078	0.148	-0.069
-711.689	-156.399	0.101	0.006
-710.675	158.472	-0.183	0.254
-709.660	-147.646	0.190	0.016
-708.645	800.000	0.126	0.419
-707.631	800.000	0.045	-0.140
-706.616	-115.987	0.241	0.045
-705.602	-126.605	0.087	0.013
-704.587	-172.248	0.328	0.011
-703.572	800.000	-0.102	-0.334
-702.558	78.443	0.091	-0.097
-701.543	768.538	0.046	-0.126
-700.529	-200.000	0.003	0.033
-699.514	-200.000	-0.020	0.396
-698.499	-107.070	-0.178	0.039
-697.485	-32.738	-0.420	-0.234
-696.470	-60.337	-0.465	-0.198
-695.456	-200.000	0.014	-0.308
-694.441	-19.496	-0.202	-0.125
-693.426	-200.000	0.043	0.326
-692.412	129.036	0.165	0.211
-691.397	800.000	0.070	-0.284
-690.383	-121.872	-0.346	0.057
-689.368	170.345	0.235	-0.337
-688.354	-9.466	-0.305	-0.204
-687.339	0.170	-0.172	-0.122
-686.324	-85.672	-0.406	-0.126
-685.310	184.014	0.279	0.414
-684.295	-200.000	-0.012	0.080
-683.281	-200.000	-0.011	0.344
-682.266	15.108	0.336	-0.264
-681.251	704.965	-0.064	-0.169
-680.237	58.209	0.040	0.040
-679.222	-200.000	0.020	0.353
-678.208	-85.513	-0.361	-0.112
-677.193	-200.000	-0.087	0.510
-676.178	36.860	0.052	0.046
-675.164	-104.046	-0.434	0.101
-674.149	70.960	-0.158	-0.163
-673.135	96.302	0.162	-0.185
-672.120	58.188	0.114	0.111
-671.105	-137.801	0.185	0.021
-670.091	7.060	0.099	-0.074
-669.076	110.962	0.072	0.087
-668.062	256.583	-0.171	-0.294
-667.047	439.189	0.019	0.042
-666.032	-101.520	0.333	0.081
-665.018	-108.873	-0.142	0.030
-664.003	-53.665	0.114	0.052
-662.989	800.000	-0.109	-0.321
-661.974	-94.736	0.083	0.022
-660.959	-48.994	0.108	0.051
-659.945	-33.374	-0.131	-0.072
-658.930	24.431	-0.119	0.098
-657.916	134.156	0.100	0.129
-656.901	718.451	-0.075	0.200
-655.886	224.669	-0.086	0.138
-654.872	-87.631	0.127	0.038
-653.857	-30.898	-0.273	0.154
-652.843	-26.358	0.426	0.250
-651.828	-51.964	-0.331	-0.154
-650.814	-200.000	0.002	-0.157
-649.799	-200.000	-0.005	-0.273
-648.784	-73.307	-0.179	-0.065
-647.770	-52.043	-0.542	0.252
-646.755	-163.405	-0.299	0.014
-645.741	-93.621	-0.044	-0.012
-644.726	-17.298	-0.100	-0.063
-643.711	-57.943	-0.252	0.110
-642.697	-109.218	0.272	-0.058
-641.682	-77.023	-0.147	-0.051
-640.668	-45.129	0.085	0.042
-639.653	-200.000	0.027	0.117
-638.638	-200.000	0.061	0.268
-637.624	-47.792	-0.233	-0.113
-636.609	800.000	-0.167	-0.466
-635.595	-200.000	0.050	0.319
-634.580	-200.000	0.006	0.143
-633.565	-200.000	-0.009	-0.072
-632.551	108.686	-0.111	-0.133
-631.536	409.075	0.041	-0.087
-630.522	-92.093	-0.201	0.057
-629.507	-86.203	0.209	0.064
-628.492	-150.904	-0.069	-0.005
-627.478	-64.451	-0.082	-0.033
-626.463	-156.681	0.062	0.004
-625.449	-111.238	0.180	-0.037
-624.434	-117.014	0.226	-0.041
-623.419	-79.656	-0.219	0.074
-622.405	-53.697	0.357	0.163
-621.390	-131.490	-0.309	0.041
-620.376	-200.000	0.012	-0.175
-619.361	-51.191	-0.088	-0.041
-618.346	239.404	-0.052	0.086
-617.332	800.000	0.143	-0.411
-616.317	89.946	-0.104	0.116
-615.303	336.668	-0.079	-0.154
-614.288	112.079	-0.273	-0.329
-613.273	522.611	0.040	-0.094
-612.259	-200.000	-0.051	-0.221
-611.244	-45.790	-0.164	0.081
-610.230	636.279	-0.140	-0.353
-609.215	-103.815	0.256	-0.060
-608.201	409.403	-0.158	0.333
-607.186	-81.716	0.267	-0.087
-606.171	-113.961	0.153	-0.030
-605.157	-52.097	-0.174	0.081
-604.142	12.740	-0.165	0.127
-603.128	-57.984	0.161	0.070
-602.113	466.074	0.110	-0.246
-601.098	-71.121	-0.054	-0.020
-600.084	-35.338	-0.142	-0.077
-599.069	-200.000	-0.039	0.358
-598.055	-93.774	0.080	0.022
-597.040	800.000	-0.106	0.349
-596.025	-156.108	-0.197	0.012
-595.011	241.082	-0.050	-0.083
-593.996	13.860	-0.298	0.231
-592.982	-46.288	0.048	0.024
-591.967	493.368	-0.035	0.080
-590.952	-74.497	0.175	0.063
-589.938	-33.416	-0.236	-0.130
-588.923	-131.575	0.122	-0.016
-587.909	-69.611	-0.270	0.103
-586.894	-54.391	0.159	-0.072
-585.879	-99.569	-0.035	-0.009
-584.865	-109.900	-0.234	-0.049
-583.850	-1.564	0.172	0.121
-582.836	228.034	0.052	-0.084
-581.821	-18.409	0.099	-0.061
-580.806	-55.078	-0.425	0.191
-579.792	-68.008	0.107	0.042
-578.777	-170.281	-0.182	-0.006
-577.763	-200.000	0.021	-0.122
-576.748	-200.000	-0.001	-0.221
-575.733	464.870	-0.036	0.079
-574.719	144.596	-0.070	-0.093
-573.704	-21.029	0.101	0.062
-572.690	800.000	-0.076	0.221
-571.675	-55.316	-0.120	0.054
-570.661	800.000	-0.064	-0.241
-569.646	447.380	-0.130	0.284
-568.631	-71.654	0.173	-0.064
-567.617	15.751	0.135	0.105
-566.602	-200.000	-0.033	0.154
-565.588	-200.000	0.009	0.199
-564.573	274.775	0.122	-0.216
-563.558	-200.000	-0.033	-0.347
-562.544	800.000	-0.044	-0.157
-561.529	15.877	0.154	-0.121
-560.515	-23.176	-0.117	-0.070
-559.500	-200.000	0.013	-0.210
-558.485	43.466	-0.154	-0.141
-557.471	417.381	-0.060	-0.128
-556.456	138.644	-0.049	0.064
-555.442	32.397	-0.077	0.066
-554.427	800.000	0.075	-0.279
-553.412	-107.932	0.085	-0.018
-552.398	800.000	-0.103	-0.370
-551.383	137.027	0.047	-0.061
-550.369	564.307	-0.141	-0.339
-549.354	60.052	-0.043	0.042
-548.339	-200.000	-0.048	0.241
-547.325	800.000	0.080	0.315
-546.310	-200.000	-0.027	0.177
-545.296	-13.817	0.314	0.202
-544.281	-200.000	-0.023	0.159
-543.266	-69.034	0.207	0.080
-542.252	54.854	-0.134	0.128
-541.237	-200.000	0.009	-0.076
-540.223	-29.335	-0.176	0.100
-539.208	-69.298	0.157	-0.060
-538.193	-200.000	-0.025	-0.225
-537.179	800.000	0.079	-0.226
-536.164	492.246	-0.162	-0.369
-535.150	26.680	-0.142	0.118
-534.135	-20.623	0.345	-0.211
-533.121	426.705	-0.095	-0.203
-532.106	800.000	-0.121	-0.351
-531.091	303.288	0.067	-0.123
-530.077	49.747	-0.278	0.260
-529.062	-57.161	-0.295	0.129
-528.048	341.712	0.105	0.204
-527.033	-170.281	0.137	-0.005
-526.018	800.000	0.149	0.465
-525.004	-60.849	0.160	0.067
-523.989	-66.131	-0.169	0.067
-522.975	156.110	0.103	0.141
-521.960	-200.000	0.021	0.188
-520.945	5.203	-0.121	-0.088
-519.931	-178.240	-0.127	0.003
-518.916	-123.985	0.111	-0.017
-517.902	-164.407	-0.271	0.012
-516.887	-112.919	0.237	0.047
-515.872	239.182	0.123	-0.203
-514.858	-163.129	0.382	-0.018
-513.843	-106.779	-0.184	-0.041
-512.829	-200.000	-0.047	-0.264
-511.814	71.620	-0.272	-0.281
-510.799	-200.000	0.052	0.250
-509.785	800.000	0.055	0.216
-508.770	43.875	-0.139	-0.127
-507.756	394.399	-0.221	-0.458
-506.741	239.157	-0.219	0.362
-505.726	-141.415	0.074	0.007
-504.712	557.031	0.009	0.021
-503.697	-200.000	-0.013	0.155
-502.683	-200.000	0.048	0.262
-501.668	-200.000	-0.053	0.322
-500.653	144.440	0.093	-0.123
-499.639	8.943	0.389	-0.292
-498.624	-30.684	-0.290	-0.163
-497.610	-98.073	-0.170	0.043
-496.595	-61.375	0.093	0.039
-495.581	-122.917	-0.134	0.021
-494.566	-62.679	0.383	-0.158
-493.551	-184.003	-0.143	-0.002
-492.537	38.256	0.059	0.052
-491.522	-155.927	0.125	-0.008
-490.508	513.028	-0.090	0.207
-489.493	-5.364	0.231	0.157
-488.478	-88.474	-0.124	0.037
-487.464	-69.535	0.100	-0.038
-486.449	59.744	0.141	-0.138
-485.435	228.409	-0.145	0.234
-484.420	-113.097	-0.082	-0.016
-483.405	-190.861	0.256	-0.003
-482.391	800.000	0.086	0.250
-481.376	83.831	0.115	-0.125
-480.362	-200.000	0.023	-0.236
-479.347	-133.389	0.250	-0.031
-478.332	-147.645	0.126	0.011
-477.318	800.000	0.168	0.526
-476.303	-4.403	0.222	0.152
-475.289	-7.451	0.230	-0.154
-474.274	-149.017	0.128	0.010
-473.259	800.000	0.049	-0.162
-472.245	-69.074	-0.261	0.100
-471.230	-4.951	-0.052	-0.036
-470.216	254.542	0.086	-0.145
-469.201	-200.000	0.022	0.228
-468.186	-200.000	-0.003	-0.025
-467.172	-138.540	-0.162	-0.018
-466.157	800.000	0.070	-0.217
-465.143	-76.895	0.250	-0.087
-464.128	-200.000	-0.009	-0.061
-463.113	800.000	0.052	-0.178
-462.099	-200.000	0.040	0.296
-461.084	-107.602	-0.168	-0.036
-460.070	21.655	0.103	-0.083
-459.055	187.948	-0.194	-0.287
-458.040	-134.222	0.384	-0.047
-457.026	103.438	-0.120	0.140
-456.011	98.152	0.060	0.069
-454.997	800.000	0.010	-0.040
-453.982	794.470	0.183	0.501
-452.968	34.412	-0.300	0.259
-451.953	-72.268	-0.150	-0.055
-450.938	304.478	0.079	-0.146
-449.924	800.000	-0.045	-0.128
-448.909	-92.201	0.163	-0.046
-447.895	-10.950	0.249	-0.163
-446.880	-52.406	-0.256	-0.118
-445.865	-166.631	0.163	-0.007
-444.851	-62.667	0.145	0.060
-443.836	-109.070	-0.300	-0.063
-442.822	654.474	0.059	-0.150
-441.807	800.000	0.031	0.123
-440.792	-58.097	0.089	0.038
-439.778	381.056	0.057	0.115
-438.763	-200.000	0.022	-0.312
-437.749	-200.000	0.021	-0.151
-436.734	-141.098	0.227	-0.023
-435.719	800.000	-0.084	0.280
-434.705	-200.000	0.015	0.112
-433.690	39.901	0.056	0.050
-432.676	-14.009	0.186	-0.119
-431.661	-200.000	0.077	-0.427
-430.646	-149.959	0.129	0.010
-429.632	-200.000	-0.019	0.153
-428.617	-200.000	-0.005	-0.449
-427.603	-10.204	-0.274	0.180
-426.588	3.748	0.285	-0.206
-425.573	29.177	0.118	-0.100
-424.559	-164.595	-0.211	0.009
-423.544	-28.421	0.156	0.089
-422.530	50.746	0.060	0.057
-421.515	800.000	-0.060	0.179
-420.500	427.498	0.042	0.089
-419.486	800.000	-0.099	-0.423
-418.471	-9.496	0.208	-0.137
-417.457	-200.000	-0.014	0.086
-416.442	-200.000	-0.019	-0.275
-415.428	800.000	0.051	-0.161
-414.413	-8.275	-0.269	-0.179
-413.398	464.551	-0.068	-0.151
-412.384	800.000	0.155	0.578
-411.369	31.549	-0.123	0.105
-410.355	137.981	0.102	0.132
-409.340	-106.662	0.135	-0.030
-408.325	190.559	0.175	0.261
-407.311	-93.318	0.305	-0.084
-406.296	-23.022	-0.043	0.026
-405.282	-200.000	0.007	0.227
-404.267	30.213	0.283	-0.239
-403.252	453.209	-0.128	-0.280
-402.238	800.000	-0.022	0.083
-401.223	449.976	-0.067	0.147
-400.209	443.241	-0.111	0.240
-399.194	27.629	-0.082	0.069
-398.179	800.000	0.033	0.120
-397.165	-200.000	-0.012	0.320
-396.150	13.996	-0.305	0.235
-395.136	-92.413	-0.142	-0.040
-394.121	72.675	-0.246	-0.254
-393.106	-200.000	-0.038	0.213
-392.092	-19.211	0.164	0.101
-391.077	-140.979	-0.234	0.024
-390.063	-47.791	0.147	-0.071
-389.048	-200.000	-0.038	0.393
-388.033	-200.000	0.063	0.286
-387.019	-200.000	-0.022	-0.181
-386.004	119.630	0.181	0.222
-384.990	-46.940	0.189	0.091
-383.975	398.136	0.079	-0.163
-382.960	-0.138	0.220	-0.155
-381.946	-6.599	-0.191	0.128
-380.931	151.795	-0.109	0.146
-379.917	-133.605	-0.217	-0.027
-378.902	123.376	-0.161	0.199
-377.888	-3.827	0.021	0.014
-376.873	76.452	0.219	0.230
-375.858	800.000	-0.111	0.304
-374.844	800.000	0.086	0.358
-373.829	3.270	-0.050	-0.036
-372.815	1.891	-0.137	0.098
-371.800	127.433	-0.116	-0.145
-370.785	31.972	0.304	-0.259
-369.771	45.095	-0.051	0.046
-368.756	120.507	-0.156	0.192
-367.742	-25.919	-0.213	-0.124
-366.727	-200.000	0.073	0.529
-365.712	349.931	0.070	-0.137
-364.698	28.058	0.121	-0.100
-363.683	289.080	0.162	-0.291
-362.669	50.259	-0.164	0.153
-361.654	44.783	-0.097	0.088
-360.639	7.949	0.199	-0.147
-359.625	-125.085	0.177	0.027
-358.610	250.497	-0.091	0.153
-357.596	-90.832	-0.194	-0.055
-356.581	-42.896	0.099	0.050
-355.566	-7.204	0.233	-0.156
-354.552	-0.721	0.055	0.039
-353.537	123.375	0.154	0.190
-352.523	-123.397	0.140	-0.022
-351.508	-84.392	-0.271	-0.085
-350.493	-200.000	0.006	-0.262
-349.479	77.919	0.174	-0.183
-348.464	-116.519	-0.235	0.043
-347.450	800.000	0.092	0.367
-346.435	152.346	-0.165	0.223
-345.420	-90.805	-0.247	-0.070
-344.406	-199.838	-0.365	-0.002
-343.391	82.004	0.138	-0.148
-342.377	185.627	-0.135	0.198
-341.362	79.515	0.142	-0.151
-340.348	-116.500	-0.373	-0.068
-339.333	-104.479	0.188	0.043
-338.318	-51.224	-0.503	-0.233
-337.304	-17.620	0.110	-0.068
-336.289	198.328	-0.296	-0.446
-335.275	800.000	0.145	0.417
-334.260	-200.000	-0.035	-0.229
-333.245	-54.411	0.349	0.156
-332.231	104.129	-0.205	0.237
-331.216	-200.000	0.043	-0.186
-330.202	198.140	0.254	0.384
-329.187	-106.491	0.262	0.058
-328.172	-134.595	0.146	-0.018
-327.158	34.955	0.095	0.082
-326.143	-200.000	0.013	-0.190
-325.129	-0.516	-0.252	0.177
-324.114	91.286	-0.198	0.219
-323.099	90.569	0.052	-0.058
-322.085	-200.000	0.017	-0.287
-321.070	-82.648	0.255	0.081
-320.056	-83.100	0.409	0.130
-319.041	-200.000	-0.083	-0.481
-318.026	800.000	-0.071	-0.252
-317.012	99.315	-0.075	-0.086
-315.997	7.147	0.108	-0.079
-314.983	-50.690	0.294	-0.136
-313.968	-6.124	0.167	-0.112
-312.953	800.000	0.047	-0.139
-311.939	-200.000	-0.005	0.066
-310.924	70.910	-0.051	-0.052
-309.910	-200.000	0.011	-0.178
-308.895	34.343	-0.111	-0.096
-307.880	-145.068	-0.363	-0.033
-306.866	94.571	-0.122	0.137
-305.851	30.792	-0.075	-0.064
-304.837	-130.921	0.246	0.032
-303.822	-101.962	0.152	0.036
-302.807	215.517	-0.164	-0.256
-301.793	-91.146	0.093	-0.026
-300.778	133.868	-0.202	-0.258
-299.764	-118.279	0.144	0.025
-298.749	-135.448	0.129	0.015
-297.735	-46.545	0.151	0.073
-296.720	800.000	-0.117	0.411
-295.705	-200.000	-0.010	0.073
-294.691	219.880	-0.310	0.489
-293.676	-50.370	0.268	0.125
-292.662	35.995	-0.055	-0.048
-291.647	-71.557	0.043	-0.016
-290.632	489.635	-0.076	0.170
-289.618	-66.169	0.316	-0.124
-288.603	-200.000	0.019	0.143
-287.589	800.000	-0.118	0.324
-286.574	312.343	0.056	-0.103
-285.559	-200.000	0.030	0.150
-284.545	25.048	-0.152	0.124
-283.530	648.771	-0.019	0.047
-282.516	473.143	0.075	-0.166
-281.501	28.820	0.136	0.113
-280.486	800.000	-0.055	-0.168
-279.472	-200.000	0.001	0.046
-278.457	7.928	0.132	-0.098
-277.443	-117.670	-0.241	0.043
-276.428	78.319	0.118	-0.124
-275.413	-8.485	0.101	-0.067
-274.399	-73.476	0.343	0.123
-273.384	800.000	0.040	0.149
-272.370	-139.365	-0.204	0.022
-271.355	-200.000	-0.005	-0.106
-270.340	-64.743	0.327	-0.130
-269.326	19.528	0.174	-0.138
-268.311	59.054	0.161	0.156
-267.297	497.220	0.129	0.292
-266.282	-25.259	-0.126	-0.073
-265.267	-200.000	0.073	-0.445
-264.253	3.271	-0.105	-0.076
-263.238	167.244	0.186	-0.260
-262.224	-113.425	-0.336	0.065
-261.209	175.623	0.179	-0.255
-260.195	800.000	0.043	0.125
-259.180	290.380	-0.081	-0.144
-258.165	476.490	0.042	-0.093
-257.151	411.822	-0.050	-0.105
-256.136	118.415	-0.178	0.217
-255.122	-200.000	-0.050	0.327
-254.107	-45.097	0.182	0.089
-253.092	-200.000	0.098	0.422
-252.078	-87.725	-0.230	-0.068
-251.063	506.401	-0.145	-0.331
-250.049	-200.000	0.027	0.179
-249.034	-200.000	-0.043	0.267
-248.019	124.455	0.077	0.095
-247.005	-85.850	-0.294	0.089
-245.990	-200.000	0.008	0.187
-244.976	17.786	-0.143	-0.112
-243.961	434.370	0.008	-0.017
-242.946	524.077	-0.030	-0.071
-241.932	-84.897	0.206	0.064
-240.917	393.648	0.083	-0.170
-239.903	130.400	-0.086	0.108
-238.888	-64.115	-0.098	0.039
-237.873	196.074	-0.098	0.147
-236.859	-200.000	-0.068	-0.331
-235.844	186.125	0.172	-0.252
-234.830	140.043	0.137	0.178
-233.815	191.259	0.210	-0.311
-232.800	454.925	-0.059	-0.129
-231.786	268.142	-0.032	0.055
-230.771	40.873	0.200	-0.177
-229.757	-200.000	0.009	0.078
-228.742	17.611	0.253	0.198
-227.727	-177.761	-0.144	0.003
-226.713	42.448	0.236	0.211
-225.698	-200.000	-0.043	-0.264
-224.684	800.000	-0.024	0.075
-223.669	-200.000	0.001	0.010
-222.655	-138.275	0.241	0.026
-221.640	104.931	0.132	0.152
-220.625	800.000	-0.067	-0.277
-219.611	-161.072	-0.167	-0.009
-218.596	262.964	-0.111	0.189
-217.582	-118.502	0.231	-0.040
-216.567	-104.757	0.092	0.021
-215.552	-76.725	-0.340	0.117
-214.538	-200.000	0.056	0.344
-213.523	101.165	0.212	-0.243
-212.509	123.321	-0.179	0.220
-211.494	160.743	-0.262	0.360
-210.479	86.413	-0.114	0.123
-209.465	-86.769	-0.202	0.061
-208.450	800.000	0.049	-0.173
-207.436	12.806	0.131	0.100
-206.421	-200.000	-0.016	0.244
-205.406	154.309	0.225	0.304
-204.392	-102.603	0.216	0.051
-203.377	-188.447	-0.205	0.003
-202.363	180.864	0.123	-0.177
-201.348	800.000	0.029	0.122
-200.333	-61.005	-0.083	-0.034
-199.319	-200.000	0.013	0.305
-198.304	10.762	0.288	0.216
-197.290	137.300	0.259	0.333
-196.275	-200.000	0.022	-0.390
-195.260	-200.000	-0.006	0.097
-194.246	61.400	-0.317	0.309
-193.231	-92.529	0.248	0.068
-192.217	-16.330	-0.121	0.076
-191.202	147.922	-0.285	0.377
-190.187	22.045	-0.160	-0.128
-189.173	214.630	0.215	-0.334
-188.158	-121.152	0.291	-0.048
-187.144	33.135	0.038	-0.032
-186.129	-91.539	-0.204	0.057
-185.114	-200.000	0.190	0.001
-184.100	22.609	-0.220	0.176
-183.085	-107.370	-0.176	-0.038
-182.071	800.000	0.110	-0.468
-181.056	157.197	-0.049	-0.067
-180.042	-142.985	-0.063	-0.006
-179.027	-56.044	0.142	-0.062
-178.012	800.000	0.064	-0.177
-176.998	-200.000	-0.007	0.264
-175.983	127.204	-0.088	0.109
-174.969	-84.029	-0.423	-0.132
-173.954	-200.000	0.014	-0.519
-172.939	205.986	-0.172	0.263
-171.925	-127.021	-0.109	0.016
-170.910	-29.769	-0.208	0.116
-169.896	-141.213	-0.269	-0.027
-168.881	47.785	0.148	-0.135
-167.866	800.000	-0.102	-0.343
-166.852	800.000	0.045	0.122
-165.837	134.635	-0.168	-0.213
-164.823	393.205	0.016	0.033
-163.808	24.692	-0.257	-0.209
-162.793	214.865	0.170	-0.264
-161.779	-72.072	0.050	0.018
-160.764	800.000	0.064	-0.204
-159.750	800.000	0.097	-0.351
-158.735	171.514	-0.217	-0.306
-157.720	-200.000	-0.002	-0.199
-156.706	287.772	0.192	-0.340
-155.691	-87.390	-0.242	-0.072
-154.677	-154.043	0.274	-0.018
-153.662	-111.418	-0.129	-0.026
-152.647	-159.200	0.280	-0.015
-151.633	136.970	0.037	-0.048
-150.618	800.000	-0.059	-0.205
-149.604	800.000	0.081	-0.250
-148.589	46.528	-0.265	-0.241
-147.574	308.379	0.166	0.303
-146.560	348.453	0.038	-0.074
-145.545	72.162	0.117	-0.119
-144.531	800.000	0.068	0.255
-143.516	107.017	-0.105	-0.122
-142.502	-116.563	0.128	0.023
-141.487	800.000	0.058	0.234
-140.472	-116.082	0.358	0.065
-139.458	-49.351	-0.336	0.157
-138.443	-114.338	-0.161	0.030
-137.429	-8.376	0.335	0.220
-136.414	132.415	-0.096	-0.121
-135.399	-141.356	-0.177	-0.018
-134.385	800.000	-0.062	0.243
-133.370	-75.127	0.336	0.118
-132.356	-5.390	0.204	-0.137
-131.341	-16.900	-0.203	0.125
-130.326	-165.416	-0.163	0.007
-129.312	370.124	0.046	0.091
-128.297	43.326	-0.102	-0.091
-127.283	14.276	-0.077	-0.059
-126.268	-200.000	0.054	0.343
-125.253	-200.000	0.011	0.084
-124.239	144.568	-0.342	-0.448
-123.224	800.000	0.057	-0.165
-122.210	113.609	-0.048	0.057
-121.195	-200.000	-0.034	0.266
-120.180	-124.083	-0.173	0.027
-119.166	-125.480	-0.134	-0.020
-118.151	800.000	0.099	0.289
-117.137	34.861	0.045	-0.038
-116.122	800.000	0.041	0.150
-115.107	-70.548	-0.244	-0.090
-114.093	-136.965	0.245	-0.027
-113.078	-147.182	-0.220	0.018
-112.064	-170.135	-0.286	0.010
-111.049	-200.000	-0.012	0.190
-110.034	800.000	0.115	0.334
-109.020	209.326	0.057	0.088
-108.005	225.553	-0.043	-0.068
-106.991	222.506	-0.147	0.231
-105.976	-200.000	0.028	0.146
-104.962	-200.000	-0.035	0.000
-103.947	-41.844	-0.314	-0.157
-102.932	383.058	-0.015	-0.030
-101.918	105.482	-0.140	0.161
-100.903	-59.821	0.046	0.019
-99.889	177.312	-0.108	-0.154
-98.874	-72.693	0.212	0.076
-97.859	-129.297	0.086	0.012
-96.845	-39.206	0.202	0.104
-95.830	-123.231	-0.155	0.024
-94.816	800.000	-0.146	0.474
-93.801	156.080	0.183	0.247
-92.786	-200.000	-0.003	0.220
-91.772	-200.000	0.033	0.187
-90.757	-200.000	-0.001	-0.179
-89.743	215.911	-0.086	0.133
-88.728	-157.903	-0.206	-0.012
-87.713	-200.000	0.003	0.534
-86.699	-114.870	0.338	0.063
-85.684	-137.544	0.117	-0.013
-84.670	-200.000	-0.032	0.232
-83.655	800.000	-0.086	-0.295
-82.640	-44.619	0.157	0.077
-81.626	-136.392	0.153	-0.017
-80.611	123.918	0.076	0.093
-79.597	100.652	-0.150	0.170
-78.582	-200.000	0.014	0.151
-77.567	-164.669	0.427	-0.019
-76.553	-200.000	0.074	0.361
-75.538	800.000	-0.041	-0.121
-74.524	-177.094	0.433	-0.011
-73.509	132.531	0.252	0.318
-72.494	800.000	-0.109	-0.318
-71.480	-200.000	0.011	-0.181
-70.465	17.979	0.203	0.158
-69.451	-200.000	-0.012	0.110
-68.436	-39.987	0.158	0.080
-67.422	-157.405	-0.046	-0.003
-66.407	-83.582	0.251	-0.078
-65.392	-56.994	0.203	0.088
-64.378	489.086	-0.167	0.372
-63.363	-36.405	0.393	-0.207
-62.349	95.628	0.133	0.148
-61.334	128.882	-0.752	-0.936
-60.319	138.628	0.642	0.823
-59.305	289.330	-0.765	-1.355
-58.290	134.213	1.035	1.310
-57.276	800.000	0.528	1.480
-56.261	-200.000	126.003	651.865
-55.246	402.694	1583.576	3250.205
-54.232	140.710	2741.595	3535.136
-53.217	94.520	2165.585	2401.840
-52.203	34.716	1596.037	1361.865
-51.188	26.341	1339.318	1092.404
-50.173	23.963	1302.161	1048.066
-49.159	52.245	1371.406	1276.190
-48.144	48.535	1382.950	1264.447
-47.130	26.520	1330.922	1086.461
-46.115	23.339	1312.131	1052.218
-45.100	23.055	1306.761	1046.188
-44.086	23.150	1304.423	1044.833
-43.071	23.110	1301.613	1042.309
-42.057	23.043	1299.672	1040.315
-41.042	23.105	1297.693	1039.055
-40.027	23.106	1296.629	1038.172
-39.013	23.136	1295.092	1037.072
-37.998	23.195	1292.584	1035.370
-36.984	23.146	1291.304	1034.016
-35.969	23.165	1289.464	1032.610
-34.954	23.177	1288.387	1031.779
-33.940	23.203	1286.490	1030.370
-32.925	23.269	1285.502	1029.921
-31.911	23.263	1283.884	1028.550
-30.896	23.311	1282.060	1027.327
-29.881	23.347	1281.123	1026.742
-28.867	23.280	1280.058	1025.461
-27.852	23.374	1278.572	1024.771
-26.838	23.337	1276.924	1023.201
-25.823	23.386	1275.744	1022.494
-24.809	23.375	1274.556	1021.441
-23.794	23.264	1272.970	1019.490
-22.779	23.265	1271.776	1018.500
-21.765	23.276	1270.416	1017.431
-20.750	23.355	1268.719	1016.483
-19.736	23.166	1267.889	1014.694
-18.721	23.104	1266.981	1013.575
-17.706	23.024	1266.013	1012.299
-16.692	23.017	1265.177	1011.553
-15.677	23.042	1263.899	1010.634
-14.663	23.096	1262.154	1009.505
-13.648	23.144	1261.222	1008.995
-12.633	23.154	1260.050	1008.076
-11.619	23.123	1259.547	1007.456
-10.604	23.058	1258.544	1006.243
-9.590	23.091	1257.793	1005.791
-8.575	23.018	1256.973	1004.678
-7.560	23.175	1255.896	1004.670
-6.546	23.131	1254.965	1003.636
-5.531	23.114	1254.079	1002.792
-4.517	23.166	1253.445	1002.540
-3.502	23.077	1252.855	1001.526
-2.487	23.182	1251.530	1001.020
-1.473	23.155	1247.429	997.545
-0.458	21.555	1232.633	976.752
0.556	16.685	1217.339	941.799
1.571	13.348	1225.420	929.249
2.586	12.875	1240.963	938.265
3.600	12.955	1228.851	929.475
4.615	9.441	1157.209	856.536
5.629	3.059	1086.381	772.070
6.644	0.405	1068.711	746.324
7.659	0.194	1067.125	744.104
8.673	-0.003	1066.516	742.641
9.688	0.135	1064.881	742.119
10.702	0.207	1063.008	741.103
11.717	3.934	1067.293	762.414
12.731	10.993	1076.386	803.821
13.746	15.561	1081.765	830.397
14.761	16.598	1082.703	836.172
15.775	15.936	1081.310	831.752
16.790	14.977	1079.480	825.539
17.804	14.200	1078.122	820.598
18.819	14.007	1076.366	818.240
19.834	13.705	1075.746	816.210
20.848	13.412	1075.445	814.468
21.863	13.232	1074.071	812.468
22.877	13.045	1073.091	810.739
23.892	12.996	1072.617	810.066
24.907	13.091	1071.663	809.742
25.921	13.078	1071.112	809.190
26.936	13.049	1070.600	808.590
27.950	13.209	1069.165	808.217
28.965	13.137	1068.715	807.455
29.980	13.239	1066.894	806.505
30.994	13.327	1065.335	805.684
32.009	13.222	1064.891	804.765
33.023	13.386	1063.429	804.384
34.038	13.281	1062.855	803.371
35.053	13.166	1061.810	801.950
36.067	13.220	1060.526	801.172
37.082	13.210	1059.970	800.633
38.096	13.222	1059.453	800.230
39.111	13.152	1058.879	799.384
40.126	13.203	1057.055	798.183
41.140	13.194	1056.135	797.378
42.155	13.134	1054.514	795.793
43.169	13.050	1054.015	794.942
44.184	12.929	1053.268	793.728
45.199	13.062	1052.149	793.453
46.213	13.052	1050.529	792.111
47.228	13.070	1049.896	791.650
48.242	13.170	1048.280	790.838
49.257	13.205	1047.666	790.473
50.271	13.195	1047.020	789.871
51.286	13.160	1045.763	788.686
52.301	13.097	1045.150	787.849
53.315	13.201	1043.819	787.276
54.330	13.039	1042.935	785.767
55.344	13.099	1042.086	785.345
56.359	13.092	1041.221	784.588
57.374	13.203	1040.425	784.448
58.388	13.048	1039.587	783.007
59.403	13.030	1038.822	782.281
60.417	13.092	1037.797	781.730
61.432	12.989	1037.503	780.955
62.447	13.002	1036.438	780.146
63.461	13.055	1035.335	779.495
64.476	13.077	1034.673	779.033
65.490	12.956	1034.069	777.937
66.505	13.025	1032.965	777.363
67.520	12.894	1032.909	776.633
68.534	13.073	1031.805	776.577
69.549	13.061	1031.121	775.939
70.563	13.046	1030.086	775.019
71.578	12.975	1029.349	774.062
72.593	13.032	1028.516	773.635
73.607	12.864	1028.447	772.726
74.622	12.888	1027.701	772.214
75.636	12.978	1026.887	771.954
76.651	12.882	1026.259	770.965
77.666	13.008	1025.472	770.896
78.680	12.912	1024.999	770.023
79.695	12.965	1024.492	769.822
80.709	13.094	1023.457	769.574
81.724	13.018	1023.239	768.989
82.739	13.097	1022.092	768.428
83.753	13.167	1021.089	767.928
84.768	13.222	1020.245	767.481
85.782	13.189	1019.718	766.864
86.797	13.092	1018.685	765.568
87.812	13.131	1017.685	764.934
88.826	13.171	1016.554	764.201
89.841	13.194	1015.707	763.603
90.855	13.273	1014.387	762.907
91.870	13.285	1014.012	762.610
92.884	13.230	1013.063	761.577
93.899	13.255	1012.377	761.108
94.914	13.364	1011.536	760.913
95.928	13.371	1010.919	760.412
96.943	13.365	1010.207	759.781
97.957	13.207	1009.337	758.337
98.972	13.250	1008.312	757.693
99.987	13.182	1007.424	756.651
101.001	13.320	1006.632	756.618
102.016	13.156	1005.913	755.261
103.030	13.464	1004.905	755.847
104.045	13.177	1004.441	754.121
105.060	13.149	1003.557	753.261
106.074	13.219	1002.740	752.898
107.089	13.169	1001.377	751.582
108.103	13.129	1000.196	750.448
109.118	13.201	999.591	750.252
110.133	13.027	998.847	748.840
111.147	13.142	997.571	748.338
112.162	13.104	997.108	747.752
113.176	13.176	996.212	747.338
114.191	13.127	995.854	746.784
115.206	13.275	994.546	746.404
116.220	13.209	993.926	745.577
117.235	13.063	993.312	744.390
118.249	13.096	992.317	743.728
119.264	13.091	991.907	743.333
120.279	13.157	990.744	742.691
121.293	13.250	989.530	742.133
122.308	13.161	989.012	741.279
123.322	13.103	987.703	739.973
124.337	13.158	986.863	739.524
125.352	13.114	985.711	738.399
126.366	13.163	984.470	737.624
127.381	13.103	983.816	736.800
128.395	13.059	982.790	735.769
129.410	13.197	982.062	735.774
130.424	13.264	980.690	734.979
131.439	13.135	980.262	734.023
132.454	13.303	979.452	734.097
133.468	13.273	978.645	733.291
134.483	13.195	977.743	732.208
135.497	13.237	977.089	731.839
136.512	13.154	976.085	730.652
137.527	13.165	975.332	730.076
138.541	13.232	974.600	729.758
139.556	13.231	973.809	729.096
140.570	13.244	973.272	728.685
141.585	13.236	972.363	727.907
142.600	13.334	971.227	727.421
143.614	13.403	970.399	727.042
144.629	13.368	969.934	726.475
145.643	13.277	969.336	725.565
146.658	13.293	967.860	724.464
147.673	13.283	967.116	723.800
148.687	13.400	966.015	723.425
149.702	13.311	965.271	722.414
150.716	13.321	964.335	721.693
151.731	13.304	963.698	721.080
152.746	13.368	963.124	720.863
153.760	13.416	962.479	720.527
154.775	13.437	962.343	720.451
155.789	13.431	961.318	719.594
156.804	13.444	960.626	719.072
157.819	13.533	959.891	718.844
158.833	13.581	958.909	718.253
159.848	13.490	958.806	717.718
160.862	13.530	957.553	716.888
161.877	13.472	956.545	715.817
162.892	13.558	955.955	715.685
163.906	13.439	954.487	714.011
164.921	13.424	954.170	713.646
165.935	13.509	953.184	713.212
166.950	13.603	951.934	712.617
167.964	13.504	950.735	711.232
168.979	13.541	950.340	711.030
169.994	13.330	950.009	709.816
171.008	13.564	948.840	709.882
172.023	13.719	948.226	710.026
173.037	13.636	947.489	709.054
174.052	13.581	946.661	708.137
175.067	13.708	945.753	707.937
176.081	13.511	945.687	706.982
177.096	13.580	945.178	706.835
178.110	13.588	944.598	706.373
179.125	13.562	944.016	705.765
180.140	13.579	943.200	705.164
181.154	13.794	942.293	705.338
182.169	13.762	941.942	704.875
183.183	13.813	941.109	704.406
184.198	13.776	940.737	703.910
185.213	13.837	939.443	703.137
186.227	13.714	939.102	702.299
187.242	13.947	938.262	702.594
188.256	13.819	938.207	701.951
189.271	13.867	937.229	701.359
190.286	13.724	936.573	700.202
191.300	13.640	935.539	699.015
192.315	13.683	934.622	698.447
193.329	13.741	934.340	698.418
194.344	13.651	934.254	697.914
195.359	13.791	933.289	697.722
196.373	13.800	932.837	697.357
197.388	13.904	932.340	697.363
198.402	14.163	931.380	697.669
199.417	14.034	930.969	696.756
200.432	13.993	930.279	696.009
201.446	13.956	930.240	695.764
202.461	14.057	929.746	695.754
203.475	14.124	929.021	695.430
204.490	14.104	928.037	694.549
205.504	14.024	927.405	693.681
206.519	13.948	926.603	692.704
207.534	13.875	926.403	692.186
208.548	14.096	924.836	691.874
209.563	14.104	924.355	691.488
210.577	14.077	923.605	690.754
211.592	14.216	922.813	690.673
212.607	14.108	922.326	689.803
213.621	14.124	921.648	689.300
214.636	14.231	920.893	689.117
215.650	14.151	920.292	688.278
216.665	14.105	919.410	687.367
217.680	14.283	918.739	687.539
218.694	14.282	917.966	686.896
219.709	14.241	917.305	686.170
220.723	14.242	917.009	685.890
221.738	14.195	916.276	685.089
222.753	14.284	915.130	684.537
223.767	14.364	914.950	684.674
224.782	14.375	914.427	684.266
225.796	14.401	914.168	684.116
226.811	14.482	912.985	683.503
227.826	14.431	912.280	682.707
228.840	14.381	911.771	682.061
229.855	14.346	910.595	680.977
230.869	14.354	909.893	680.423
231.884	14.375	909.521	680.174
232.899	14.462	908.357	679.595
233.913	14.363	908.094	678.937
234.928	14.406	907.611	678.691
235.942	14.367	906.481	677.627
236.957	14.405	905.935	677.312
237.972	14.353	905.757	676.906
238.986	14.383	905.250	676.591
240.001	14.437	904.626	676.286
241.015	14.382	903.974	675.512
242.030	14.497	903.043	675.223
243.045	14.602	902.396	675.106
244.059	14.493	902.210	674.468
245.074	14.593	901.355	674.171
246.088	14.623	900.583	673.655
247.103	14.684	899.988	673.395
248.117	14.567	899.577	672.559
249.132	14.611	899.108	672.326
250.147	14.611	898.204	671.587
251.161	14.782	897.510	671.699
252.176	14.900	896.727	671.528
253.190	14.787	896.135	670.572
254.205	14.947	895.091	670.371
255.220	14.862	894.625	669.622
256.234	14.854	894.245	669.245
257.249	14.995	893.287	669.036
258.263	14.910	892.763	668.245
259.278	14.806	892.403	667.501
260.293	14.932	891.763	667.465
261.307	14.887	891.048	666.691
262.322	14.983	890.135	666.329
263.336	15.119	889.372	666.242
264.351	15.099	888.448	665.410
265.366	15.044	887.867	664.699
266.380	15.108	887.324	664.487
267.395	15.172	886.542	664.097
268.409	15.141	886.106	663.590
269.424	15.166	884.896	662.723
270.439	15.178	884.387	662.331
271.453	15.250	883.302	661.743
272.468	14.967	883.552	660.757
273.482	15.085	883.134	660.850
274.497	15.165	882.645	660.741
275.512	15.098	881.735	659.736
276.526	15.209	881.143	659.673
277.541	15.069	880.666	658.707
278.555	15.263	879.944	658.872
279.570	15.309	879.054	658.326
280.585	15.267	878.424	657.630
281.599	15.220	877.712	656.855
282.614	15.291	876.926	656.488
283.628	15.167	876.839	655.880
284.643	15.261	876.034	655.586
285.657	15.346	875.264	655.283
286.672	15.206	875.290	654.697
287.687	15.292	874.046	654.045
288.701	15.352	873.620	653.903
289.716	15.419	872.883	653.555
290.730	15.413	872.220	652.976
291.745	15.347	871.675	652.255
292.760	15.407	871.294	652.145
293.774	15.513	870.649	652.015
294.789	15.536	870.048	651.598
295.803	15.499	869.235	650.789
296.818	15.548	868.492	650.366
297.833	15.493	867.626	649.446
298.847	15.437	867.665	649.200
299.862	15.598	866.765	649.090
300.876	15.638	866.098	648.689
301.891	15.551	865.799	648.072
302.906	15.624	865.250	647.884
303.920	15.750	864.453	647.716
304.935	15.727	863.858	647.125
305.949	15.798	863.081	646.758
306.964	15.727	862.543	646.023
307.979	15.724	862.439	645.877
308.993	15.709	861.662	645.181
310.008	15.811	861.058	645.063
311.022	15.714	860.428	644.163
312.037	15.595	859.884	643.242
313.052	15.787	859.199	643.409
314.066	15.745	858.701	642.816
315.081	15.785	857.757	642.206
316.095	15.692	857.749	641.790
317.110	15.607	857.255	641.037
318.125	15.821	856.239	641.038
319.139	15.829	855.827	640.701
320.154	15.798	855.460	640.254
321.168	15.764	854.803	639.577
322.183	15.819	854.393	639.421
323.197	15.843	853.921	639.101
324.212	15.835	853.624	638.793
325.227	15.798	853.013	638.139
326.241	15.978	852.158	638.124
327.256	15.910	851.584	637.383
328.270	15.869	851.101	636.809
329.285	15.995	850.308	636.636
330.300	15.784	849.961	635.521
331.314	15.847	849.574	635.413
332.329	15.927	848.769	635.057
333.343	16.041	848.766	635.429
334.358	15.969	847.815	634.389
335.373	15.825	847.972	633.908
336.387	16.126	847.618	634.719
337.402	16.068	846.865	633.882
338.416	16.203	846.136	633.786
339.431	16.147	846.163	633.540
340.446	16.323	845.285	633.489
341.460	16.385	845.052	633.489
342.475	16.155	844.971	632.511
343.489	16.297	844.435	632.585
344.504	16.381	843.845	632.401
345.519	16.212	843.546	631.490
346.533	16.207	843.072	631.062
347.548	16.316	842.156	630.727
348.562	16.345	841.662	630.409
349.577	16.267	841.250	629.753
350.592	16.217	840.517	628.964
351.606	16.246	840.259	628.823
352.621	16.366	839.114	628.358
353.635	16.292	838.591	627.634
354.650	16.238	838.298	627.157
355.665	16.302	837.372	626.649
356.679	16.311	836.657	626.091
357.694	16.427	836.301	626.199
358.708	16.466	835.106	625.392
359.723	16.520	834.867	625.359
360.738	16.363	834.579	624.506
361.752	16.430	833.450	623.855
362.767	16.469	832.958	623.573
363.781	16.417	832.821	623.225
364.796	16.592	832.509	623.580
365.810	16.521	831.880	622.793
366.825	16.587	831.443	622.654
367.840	16.782	831.044	623.016
368.854	16.674	830.340	622.038
369.869	16.617	830.214	621.678
370.883	16.643	829.907	621.488
371.898	16.748	829.218	621.303
372.913	16.610	829.223	620.744
373.927	16.657	828.738	620.500
374.942	16.681	827.957	619.949
375.956	16.835	827.806	620.346
376.971	16.825	827.188	619.791
377.986	16.824	826.812	619.447
379.000	16.827	826.165	618.920
380.015	17.039	825.395	619.064
381.029	17.032	825.115	618.773
382.044	16.952	824.356	617.856
383.059	16.923	824.008	617.436
384.073	17.012	823.246	617.133
385.088	16.976	822.779	616.597
386.102	16.896	822.083	615.731
387.117	16.848	821.667	615.193
388.132	16.903	821.092	614.905
389.146	16.999	820.688	614.898
390.161	17.005	820.330	614.594
391.175	16.930	819.600	613.722
392.190	17.030	819.044	613.614
393.205	16.900	818.926	613.001
394.219	16.926	818.481	612.709
395.234	17.021	818.124	612.731
396.248	16.939	817.640	612.019
397.263	16.996	817.109	611.772
398.278	17.012	816.774	611.525
399.292	17.103	815.923	611.161
400.307	17.109	815.596	610.882
401.321	17.144	814.930	610.455
402.336	17.144	814.548	610.115
403.350	17.035	814.702	609.786
404.365	17.214	814.138	609.952
405.380	17.133	813.521	609.145
406.394	17.300	812.568	608.974
407.409	17.133	812.754	608.464
408.423	17.320	812.479	608.873
409.438	17.353	811.929	608.524
410.453	17.197	811.648	607.702
411.467	17.289	810.663	607.241
412.482	17.410	810.394	607.415
413.496	17.409	810.092	607.133
414.511	17.625	809.538	607.435
415.526	17.440	809.137	606.422
416.540	17.497	808.832	606.340
417.555	17.502	808.152	605.797
418.569	17.491	807.548	605.251
419.584	17.604	807.532	605.585
420.599	17.681	806.816	605.268
421.613	113.451	1299.992	1488.122
422.628	97.946	1371.823	1488.220
