DTS Sentinel unit serial number:	SN413079Multiplexer serial number:	ORYXHardware model number:	OX4-SRSoftware version number:	ORYX F/W v4.00 Oryx Data Collector v3.7.2.0data status	okinstallation	princeton_trtdifferential loss correction	single-endedforward channel	channel 1reverse channel	N/Adate	2019/09/16time	14:26:35forward acquisition time	60.00reverse acquisition time	0.00gamma	496.2192k internal	0.2293k external	0.2293temperature offset calibration	0.9955default loss term (dB/km)	0.3790temperature slope calibration	1.0000multiplexer offset coefficient	1.0000multiplexer slope coefficient	1.0000fibre end	0.00T internal ref (°C)	42.00T ext. ref 1 (°C)	14.21T ext. ref 2 (°C)	36.26length (m)	temperature (°C)	Stokes	anti-Stokes-747.200	340.450	0.127	0.254
-746.185	-111.719	-0.025	0.005
-745.171	90.095	-0.200	-0.228
-744.156	156.231	-0.019	0.027
-743.142	-69.231	-0.102	-0.040
-742.127	-200.000	-0.030	0.375
-741.112	532.819	0.078	0.189
-740.098	-136.436	-0.260	-0.031
-739.083	-100.686	-0.066	-0.017
-738.069	795.311	-0.116	0.326
-737.054	-37.584	-0.205	-0.112
-736.039	125.229	-0.129	-0.167
-735.025	36.070	0.091	-0.082
-734.010	-0.030	-0.126	-0.092
-732.996	-71.161	-0.339	-0.130
-731.981	124.452	0.104	0.134
-730.966	-96.065	0.166	-0.045
-729.952	192.572	-0.137	-0.212
-728.937	131.548	0.104	-0.137
-727.923	26.631	-0.241	0.206
-726.908	-135.030	-0.142	-0.017
-725.894	-21.321	-0.142	0.089
-724.879	-130.385	-0.089	0.012
-723.864	-42.955	-0.268	0.139
-722.850	-73.883	0.080	-0.030
-721.835	790.757	0.096	-0.268
-720.821	596.266	-0.126	0.319
-719.806	113.617	-0.138	0.171
-718.791	800.000	0.022	0.091
-717.777	49.096	0.111	-0.107
-716.762	210.395	-0.177	0.285
-715.748	108.653	-0.195	0.237
-714.733	-200.000	-0.022	0.144
-713.718	180.617	-0.260	-0.389
-712.704	233.144	-0.094	0.157
-711.689	-200.000	-0.027	0.135
-710.675	7.308	-0.115	-0.088
-709.660	106.476	-0.086	0.105
-708.645	556.188	-0.194	0.477
-707.631	-139.435	0.222	-0.024
-706.616	156.518	-0.151	0.212
-705.602	800.000	-0.011	-0.037
-704.587	-200.000	0.016	0.152
-703.572	-200.000	-0.018	-0.325
-702.558	705.507	-0.064	-0.172
-701.543	-153.898	0.573	-0.040
-700.529	-200.000	0.007	-0.079
-699.514	-66.379	-0.313	0.127
-698.499	-180.665	-0.250	0.005
-697.485	800.000	-0.012	-0.054
-696.470	-120.289	0.051	-0.009
-695.456	-109.239	0.063	0.014
-694.441	-200.000	-0.027	0.365
-693.426	209.574	-0.139	-0.223
-692.412	187.064	-0.053	-0.081
-691.397	-122.882	-0.178	-0.029
-690.383	6.980	-0.093	-0.071
-689.368	-26.246	-0.214	-0.128
-688.354	-34.793	-0.151	0.084
-687.339	-46.232	-0.083	-0.042
-686.324	663.997	0.148	-0.390
-685.310	-54.643	-0.032	0.015
-684.295	-129.815	-0.164	0.023
-683.281	-200.000	0.012	0.127
-682.266	-200.000	-0.019	0.175
-681.251	40.188	-0.063	-0.058
-680.237	-63.043	-0.168	0.071
-679.222	174.455	-0.062	-0.092
-678.208	99.917	-0.224	0.265
-677.193	-133.970	-0.177	0.022
-676.178	52.091	0.041	0.040
-675.164	-20.356	-0.140	-0.088
-674.149	3.899	-0.106	-0.079
-673.135	-12.305	-0.052	-0.035
-672.120	800.000	-0.138	0.474
-671.105	533.840	0.095	-0.229
-670.091	-143.689	-0.188	0.018
-669.076	69.450	-0.339	0.356
-668.062	-42.657	-0.306	-0.159
-667.047	-32.649	-0.052	0.030
-666.032	-200.000	-0.006	0.187
-665.018	-200.000	-0.027	0.296
-664.003	-148.942	-0.212	0.017
-662.989	-63.403	-0.261	0.109
-661.974	37.430	0.127	-0.115
-660.959	-159.041	-0.379	0.022
-659.945	-29.486	0.213	0.124
-658.930	-200.000	-0.034	-0.172
-657.916	-126.070	-0.244	-0.037
-656.901	758.216	0.051	0.142
-655.886	375.010	0.077	0.160
-654.872	-17.462	-0.111	-0.071
-653.857	800.000	-0.103	0.399
-652.843	-38.163	0.241	0.130
-651.828	349.101	-0.118	0.238
-650.814	382.387	-0.079	-0.165
-649.799	-40.413	-0.237	-0.126
-648.784	351.698	-0.248	-0.501
-647.770	-200.000	0.040	-0.422
-646.755	155.468	0.040	-0.056
-645.741	51.296	0.108	0.105
-644.726	-200.000	-0.191	-0.001
-643.711	-200.000	-0.028	0.202
-642.697	73.421	-0.047	0.050
-641.682	-97.183	-0.136	-0.036
-640.668	-78.209	-0.418	-0.146
-639.653	800.000	-0.130	-0.460
-638.638	20.392	-0.153	0.126
-637.624	800.000	0.021	-0.085
-636.609	63.620	0.170	-0.174
-635.595	-200.000	0.002	0.214
-634.580	800.000	0.020	0.065
-633.565	-4.646	0.114	0.080
-632.551	179.932	-0.067	-0.100
-631.536	-164.061	-0.180	0.009
-630.522	800.000	0.067	0.244
-629.507	-116.364	0.295	-0.055
-628.492	-200.000	0.012	0.107
-627.478	66.189	-0.076	0.079
-626.463	228.241	0.152	0.252
-625.449	-200.000	0.012	-0.126
-624.434	280.782	0.041	0.075
-623.419	-200.000	-0.034	0.258
-622.405	55.600	0.105	0.104
-621.390	642.820	0.052	-0.134
-620.376	16.818	0.161	0.130
-619.361	111.126	-0.180	0.221
-618.346	-200.000	0.033	-0.167
-617.332	-99.689	-0.178	0.045
-616.317	332.133	0.073	-0.144
-615.303	-200.000	-0.045	-0.287
-614.288	243.176	0.038	-0.065
-613.273	-123.401	0.043	-0.007
-612.259	-200.000	-0.004	-0.277
-611.244	-108.700	-0.302	0.066
-610.230	-102.459	-0.230	-0.056
-609.215	-1.422	-0.175	0.125
-608.201	-41.241	-0.152	0.080
-607.186	-151.783	-0.133	-0.010
-606.171	53.715	-0.218	0.213
-605.157	356.294	0.054	-0.110
-604.142	-16.327	0.186	0.120
-603.128	800.000	0.074	0.229
-602.113	7.778	0.204	0.155
-601.098	106.766	0.177	-0.214
-600.084	-151.426	-0.064	0.005
-599.069	-82.943	0.018	-0.006
-598.055	-160.962	0.085	0.005
-597.040	124.922	-0.171	0.219
-596.025	-168.780	-0.211	-0.008
-595.011	-9.481	0.422	0.286
-593.996	800.000	-0.084	0.243
-592.982	-84.470	0.081	-0.026
-591.967	552.522	0.073	0.178
-590.952	514.296	-0.065	0.154
-589.938	20.945	0.150	-0.123
-588.923	-200.000	0.039	-0.253
-587.909	-200.000	0.022	0.180
-586.894	800.000	0.110	0.364
-585.879	188.321	0.178	-0.270
-584.865	128.875	0.131	-0.170
-583.850	-88.305	0.171	-0.052
-582.836	266.709	-0.168	0.298
-581.821	-58.781	-0.103	-0.045
-580.806	-200.000	-0.000	-0.100
-579.792	166.588	0.105	-0.151
-578.777	168.649	-0.018	-0.026
-577.763	-33.247	0.188	-0.106
-576.748	-118.875	-0.218	-0.039
-575.733	-200.000	0.052	-0.369
-574.719	-114.367	0.218	-0.043
-573.704	369.591	-0.012	0.024
-572.690	800.000	0.075	-0.285
-571.675	607.935	0.135	-0.343
-570.661	93.826	-0.158	-0.181
-569.646	-145.723	0.119	0.011
-568.631	-200.000	0.020	-0.344
-567.617	-200.000	0.007	0.214
-566.602	455.393	-0.068	0.154
-565.588	-100.402	-0.092	-0.023
-564.573	52.315	-0.228	0.220
-563.558	20.567	-0.102	0.084
-562.544	95.684	-0.055	0.064
-561.529	-12.584	-0.166	0.110
-560.515	-200.000	-0.082	0.371
-559.500	-126.996	-0.148	0.022
-558.485	-81.990	-0.329	-0.109
-557.471	-156.179	-0.131	-0.008
-556.456	100.059	0.104	0.123
-555.442	558.306	-0.132	0.322
-554.427	52.935	0.204	-0.198
-553.412	237.738	0.231	-0.388
-552.398	-72.117	-0.091	0.034
-551.383	392.629	-0.062	-0.131
-550.369	800.000	0.042	0.165
-549.354	-200.000	0.078	0.411
-548.339	153.107	0.010	0.014
-547.325	-100.072	-0.206	-0.052
-546.310	-38.319	-0.126	0.068
-545.296	-60.608	0.178	-0.077
-544.281	-26.718	0.186	-0.111
-543.266	-200.000	0.010	0.173
-542.252	314.773	-0.023	0.044
-541.237	-200.000	0.010	0.052
-540.223	245.900	-0.279	0.476
-539.208	-52.186	0.262	-0.123
-538.193	-51.063	0.311	-0.148
-537.179	-90.759	0.140	0.041
-536.164	800.000	-0.122	0.465
-535.150	-84.753	-0.238	-0.076
-534.135	-16.821	-0.234	0.150
-533.121	563.974	-0.073	-0.178
-532.106	-121.372	-0.340	0.057
-531.091	700.345	-0.022	0.060
-530.077	71.892	-0.157	0.166
-529.062	-50.628	-0.103	-0.049
-528.048	720.264	0.111	-0.299
-527.033	-43.533	-0.183	0.094
-526.018	60.218	0.206	0.207
-525.004	800.000	0.105	-0.338
-523.989	100.234	-0.091	0.107
-522.975	-59.511	0.155	0.067
-521.960	45.671	-0.090	-0.084
-520.945	-95.773	-0.392	-0.106
-519.931	315.154	0.035	0.067
-518.916	285.233	-0.090	0.164
-517.902	27.679	-0.022	-0.018
-516.887	682.631	-0.060	0.160
-515.872	800.000	0.055	0.168
-514.858	22.184	-0.142	0.118
-513.843	-33.406	0.141	-0.079
-512.829	-200.000	0.032	0.236
-511.814	-200.000	-0.009	0.235
-510.799	81.408	0.068	-0.075
-509.785	224.150	0.097	0.159
-508.770	453.119	-0.162	0.364
-507.756	800.000	-0.070	-0.233
-506.741	-56.429	-0.211	-0.095
-505.726	276.848	-0.129	0.232
-504.712	-164.786	0.194	-0.009
-503.697	-200.000	0.027	-0.194
-502.683	11.761	-0.256	-0.199
-501.668	-108.779	0.132	0.029
-500.653	-200.000	0.029	0.195
-499.639	-43.038	0.239	-0.123
-498.624	50.594	0.230	-0.220
-497.610	196.096	0.081	0.124
-496.595	800.000	0.081	0.247
-495.581	168.402	-0.104	-0.150
-494.566	-111.604	-0.218	-0.045
-493.551	-131.581	-0.156	-0.021
-492.537	-200.000	0.058	0.264
-491.522	-200.000	-0.017	0.159
-490.508	-165.625	0.113	0.005
-489.493	-200.000	0.017	-0.088
-488.478	-46.931	-0.093	0.046
-487.464	-50.832	0.232	0.110
-486.449	261.839	0.093	-0.163
-485.435	-148.736	-0.107	0.009
-484.420	-98.386	-0.416	-0.108
-483.405	47.206	-0.195	-0.183
-482.391	800.000	-0.068	0.210
-481.376	429.734	-0.108	0.237
-480.362	-52.217	-0.207	0.097
-479.347	76.302	0.068	0.073
-478.332	-141.017	-0.024	-0.002
-477.318	154.555	-0.158	0.220
-476.303	800.000	-0.120	-0.407
-475.289	-200.000	-0.007	-0.058
-474.274	-59.193	0.107	0.047
-473.259	15.145	-0.152	-0.121
-472.245	800.000	0.091	0.254
-471.230	91.455	0.231	0.263
-470.216	-60.817	-0.105	0.045
-469.201	48.297	0.148	0.140
-468.186	800.000	-0.047	0.192
-467.172	-83.289	-0.267	-0.087
-466.157	-10.986	-0.221	0.148
-465.143	215.467	-0.155	-0.249
-464.128	-27.695	-0.155	-0.091
-463.113	800.000	0.064	-0.244
-462.099	-200.000	0.003	0.113
-461.084	-6.952	-0.173	0.119
-460.070	206.352	0.024	0.037
-459.055	4.234	0.138	-0.102
-458.040	-25.065	-0.285	0.171
-457.026	0.318	-0.266	0.192
-456.011	52.226	0.146	0.140
-454.997	-71.955	-0.403	0.151
-453.982	98.582	-0.204	-0.238
-452.968	157.907	0.088	-0.123
-451.953	-83.378	-0.061	-0.020
-450.938	800.000	-0.069	0.221
-449.924	374.665	0.088	-0.182
-448.909	-72.541	-0.232	0.087
-447.895	184.993	0.165	0.247
-446.880	-115.829	-0.368	0.070
-445.865	226.653	0.068	0.112
-444.851	-200.000	-0.033	-0.190
-443.836	44.495	0.369	-0.343
-442.822	64.878	-0.198	0.202
-441.807	-200.000	0.004	-0.137
-440.792	-159.080	0.407	-0.023
-439.778	800.000	0.037	-0.147
-438.763	-184.984	0.100	-0.002
-437.749	-27.451	0.103	0.061
-436.734	-129.843	-0.063	0.009
-435.719	-200.000	-0.028	-0.218
-434.705	104.833	0.062	0.074
-433.690	37.784	0.106	0.095
-432.676	351.130	-0.100	-0.199
-431.661	288.906	-0.041	0.075
-430.646	446.591	-0.084	0.186
-429.632	129.635	0.186	0.240
-428.617	41.142	0.197	-0.179
-427.603	748.182	0.101	0.276
-426.588	-81.688	0.213	-0.071
-425.573	-200.000	-0.052	0.290
-424.559	-133.799	-0.144	-0.018
-423.544	-25.357	0.185	0.110
-422.530	255.441	-0.164	0.283
-421.515	14.900	0.192	0.152
-420.500	-80.443	0.243	-0.082
-419.486	-72.990	-0.302	0.112
-418.471	-200.000	-0.003	-0.107
-417.457	245.343	0.082	-0.139
-416.442	92.867	0.141	-0.161
-415.428	-200.000	0.019	-0.214
-414.413	-200.000	-0.002	-0.079
-413.398	383.323	-0.045	0.093
-412.384	-200.000	0.113	0.000
-411.369	203.487	-0.063	0.098
-410.355	-200.000	0.046	0.308
-409.340	-18.547	-0.173	0.109
-408.325	234.673	0.069	0.116
-407.311	-200.000	0.036	0.280
-406.296	-200.000	0.005	-0.060
-405.282	520.492	-0.092	-0.219
-404.267	-129.682	-0.120	-0.017
-403.252	496.237	-0.198	-0.459
-402.238	-118.828	0.063	0.011
-401.223	-200.000	0.023	0.296
-400.209	-57.983	-0.312	0.137
-399.194	-188.003	0.291	0.004
-398.179	78.413	0.175	-0.188
-397.165	-41.751	-0.288	0.149
-396.150	-45.399	0.269	0.135
-395.136	-106.282	0.180	-0.041
-394.121	-181.806	0.228	-0.004
-393.106	90.470	0.209	-0.236
-392.092	-19.474	0.297	0.186
-391.077	-172.211	0.259	-0.008
-390.063	-200.000	-0.040	0.200
-389.048	5.855	-0.280	0.209
-388.033	-200.000	-0.003	0.161
-387.019	-200.000	0.005	0.114
-386.004	66.450	0.137	0.140
-384.990	-108.941	0.154	0.033
-383.975	-200.000	0.076	-0.354
-382.960	-52.220	-0.058	0.027
-381.946	624.912	-0.043	0.109
-380.931	390.668	-0.111	-0.233
-379.917	-200.000	-0.005	0.175
-378.902	-200.000	-0.043	-0.194
-377.888	35.313	-0.188	-0.166
-376.873	-115.241	0.235	-0.045
-375.858	3.504	0.207	-0.152
-374.844	17.919	-0.156	0.125
-373.829	-118.778	0.200	-0.035
-372.815	463.270	0.104	0.234
-371.800	161.760	-0.068	-0.096
-370.785	21.100	0.208	0.170
-369.771	599.250	-0.158	0.394
-368.756	192.349	0.218	0.331
-367.742	-200.000	0.001	-0.137
-366.727	-130.293	-0.027	-0.004
-365.712	-200.000	0.010	-0.049
-364.698	-109.605	0.171	-0.036
-363.683	-5.210	0.143	0.099
-362.669	78.292	-0.100	-0.107
-361.654	-176.188	0.271	0.007
-360.639	231.367	-0.138	0.227
-359.625	-200.000	0.017	-0.117
-358.610	302.162	0.140	-0.260
-357.596	-200.000	-0.036	-0.227
-356.581	-200.000	-0.008	-0.177
-355.566	14.815	0.516	-0.407
-354.552	-37.256	-0.218	-0.117
-353.537	-94.992	0.255	0.070
-352.523	-107.179	0.298	-0.066
-351.508	142.092	-0.136	-0.182
-350.493	6.997	0.017	-0.013
-349.479	-200.000	-0.019	0.205
-348.464	-66.864	-0.263	0.105
-347.450	-200.000	-0.038	-0.309
-346.435	-163.427	-0.228	0.011
-345.420	-26.923	-0.074	0.043
-344.406	-90.898	-0.126	0.037
-343.391	178.449	0.140	-0.206
-342.377	175.604	-0.128	0.187
-341.362	265.889	0.146	-0.257
-340.348	-200.000	-0.010	0.134
-339.333	-88.855	-0.235	-0.070
-338.318	80.158	-0.140	0.151
-337.304	-99.721	-0.194	0.049
-336.289	-131.393	-0.189	0.025
-335.275	-200.000	0.003	-0.043
-334.260	-116.564	0.401	0.074
-333.245	176.178	-0.076	0.112
-332.231	259.558	0.070	-0.121
-331.216	40.101	-0.218	-0.198
-330.202	-200.000	-0.024	-0.124
-329.187	-200.000	0.004	-0.078
-328.172	-200.000	0.002	0.116
-327.158	-89.318	0.436	0.129
-326.143	383.293	0.022	0.046
-325.129	25.671	0.165	-0.138
-324.114	-200.000	0.017	-0.288
-323.099	412.953	-0.117	-0.251
-322.085	-176.372	-0.179	0.005
-321.070	-72.366	-0.300	0.112
-320.056	-200.000	-0.006	0.126
-319.041	50.671	-0.207	0.197
-318.026	184.014	-0.117	-0.175
-317.012	27.141	-0.184	-0.156
-315.997	800.000	0.029	0.083
-314.983	124.904	0.172	0.218
-313.968	-22.732	-0.124	-0.076
-312.953	20.058	-0.104	0.085
-311.939	151.672	-0.146	-0.200
-310.924	-200.000	-0.032	0.276
-309.910	-200.000	-0.022	-0.237
-308.895	-126.067	0.050	-0.008
-307.880	-107.102	-0.226	-0.050
-306.866	-86.998	0.172	0.053
-305.851	94.270	-0.082	-0.093
-304.837	171.937	-0.050	-0.073
-303.822	-49.563	-0.061	0.029
-302.807	-200.000	0.046	0.325
-301.793	-125.783	0.278	-0.042
-300.778	-57.295	0.320	0.142
-299.764	-46.577	0.079	-0.039
-298.749	-63.553	-0.223	-0.092
-297.735	-106.002	-0.233	0.053
-296.720	800.000	-0.085	-0.296
-295.705	201.425	0.120	0.186
-294.691	-200.000	0.026	0.210
-293.676	-121.710	0.408	-0.068
-292.662	151.506	-0.134	0.184
-291.647	159.530	-0.109	0.153
-290.632	14.902	0.310	-0.244
-289.618	32.274	0.026	-0.022
-288.603	-10.254	0.265	0.177
-287.589	-95.672	-0.233	-0.063
-286.574	800.000	-0.084	-0.292
-285.559	25.185	0.076	0.063
-284.545	215.457	0.153	-0.244
-283.530	-107.953	0.275	-0.060
-282.516	-55.260	0.143	-0.065
-281.501	-49.902	0.034	-0.016
-280.486	129.328	0.261	-0.335
-279.472	-7.583	-0.321	-0.218
-278.457	206.732	0.111	-0.174
-277.443	-156.729	0.214	-0.013
-276.428	-200.000	0.029	-0.137
-275.413	800.000	0.073	-0.267
-274.399	269.083	-0.141	0.249
-273.384	-200.000	0.053	-0.321
-272.370	15.666	-0.118	-0.093
-271.355	-200.000	-0.002	-0.442
-270.340	44.587	-0.232	-0.214
-269.326	91.383	0.056	-0.063
-268.311	-32.965	-0.153	-0.085
-267.297	464.775	-0.072	0.161
-266.282	-148.714	-0.201	0.016
-265.267	66.915	0.126	-0.129
-264.253	-2.740	0.170	0.120
-263.238	49.709	0.233	0.220
-262.224	-200.000	0.017	-0.134
-261.209	24.495	0.185	-0.153
-260.195	-200.000	0.032	-0.250
-259.180	129.630	-0.074	0.095
-258.165	-50.957	-0.226	-0.107
-257.151	-116.462	0.168	-0.031
-256.136	-128.484	-0.235	0.033
-255.122	224.420	0.134	0.217
-254.107	-152.831	-0.428	0.030
-253.092	89.980	-0.088	0.099
-252.078	50.653	0.092	-0.088
-251.063	-200.000	0.031	0.496
-250.049	-105.768	-0.104	0.023
-249.034	-35.362	0.270	0.148
-248.019	800.000	0.111	0.377
-247.005	433.523	-0.078	-0.170
-245.990	47.879	-0.076	-0.071
-244.976	158.478	0.147	0.205
-243.961	656.734	0.072	0.186
-242.946	53.243	0.060	0.058
-241.932	200.241	0.249	0.384
-240.917	8.092	-0.291	0.219
-239.903	-200.000	0.013	0.165
-238.888	-200.000	0.003	-0.112
-237.873	-46.237	0.362	0.179
-236.859	189.176	0.161	0.241
-235.844	-110.388	0.169	-0.035
-234.830	-138.899	-0.235	-0.026
-233.815	-103.428	0.184	0.043
-232.800	20.211	0.181	-0.146
-231.786	800.000	-0.052	-0.180
-230.771	441.270	-0.111	0.243
-229.757	800.000	-0.020	0.085
-228.742	737.934	-0.021	0.056
-227.727	-85.166	0.081	0.025
-226.713	-134.281	-0.213	-0.026
-225.698	800.000	-0.121	-0.407
-224.684	-200.000	-0.003	-0.220
-223.669	-12.767	0.260	0.170
-222.655	137.461	-0.167	-0.219
-221.640	55.303	0.168	0.163
-220.625	-90.057	0.173	-0.051
-219.611	365.359	-0.134	-0.271
-218.596	-64.655	-0.099	-0.040
-217.582	-59.800	0.269	-0.115
-216.567	115.837	0.122	-0.149
-215.552	-139.145	-0.260	0.028
-214.538	-2.370	0.056	0.040
-213.523	31.400	-0.105	-0.090
-212.509	-99.646	-0.166	-0.042
-211.494	651.266	0.121	-0.311
-210.479	246.170	0.054	0.090
-209.465	794.309	-0.062	-0.172
-208.450	-82.629	-0.173	0.056
-207.436	-81.952	-0.151	-0.049
-206.421	800.000	0.075	0.285
-205.406	800.000	-0.091	0.360
-204.392	-200.000	0.016	-0.155
-203.377	32.407	-0.112	-0.097
-202.363	-55.055	0.231	0.104
-201.348	-121.210	0.365	0.061
-200.333	-25.629	-0.111	0.066
-199.319	-200.000	-0.019	0.096
-198.304	800.000	-0.095	-0.282
-197.290	-83.772	0.261	-0.083
-196.275	800.000	-0.057	-0.162
-195.260	703.287	0.039	0.102
-194.246	20.887	0.002	0.002
-193.231	-11.066	0.066	0.044
-192.217	-13.258	-0.301	-0.196
-191.202	-36.812	-0.130	-0.070
-190.187	-183.556	0.315	0.005
-189.173	-24.418	-0.183	0.109
-188.158	-200.000	0.031	-0.157
-187.144	76.950	-0.200	-0.213
-186.129	-98.310	-0.085	-0.022
-185.114	135.849	-0.054	0.071
-184.100	-200.000	-0.014	0.219
-183.085	-27.622	0.017	0.010
-182.071	34.400	0.387	-0.338
-181.056	-49.621	0.304	-0.145
-180.042	-33.822	0.213	-0.117
-179.027	-99.844	0.300	0.075
-178.012	251.456	0.127	-0.217
-176.998	291.031	0.045	-0.083
-175.983	184.140	0.131	-0.194
-174.969	19.414	-0.226	0.182
-173.954	-91.940	0.390	0.111
-172.939	-23.616	-0.250	-0.150
-171.925	579.601	-0.077	-0.189
-170.910	-70.693	0.367	-0.139
-169.896	239.063	-0.168	-0.279
-168.881	-23.003	-0.188	-0.113
-167.866	-2.729	0.076	-0.053
-166.852	-186.001	0.178	-0.003
-165.837	-80.674	-0.137	0.046
-164.823	-144.201	-0.006	-0.001
-163.808	74.963	-0.047	0.050
-162.793	417.316	0.098	-0.210
-161.779	376.630	-0.070	0.143
-160.764	-200.000	0.024	-0.166
-159.750	4.680	-0.061	-0.045
-158.735	725.000	-0.102	-0.271
-157.720	43.837	-0.151	-0.138
-156.706	-8.302	-0.255	0.172
-155.691	-27.599	0.331	0.192
-154.677	-18.779	-0.078	-0.049
-153.662	70.387	0.054	0.056
-152.647	-136.127	0.177	0.021
-151.633	-69.136	-0.042	-0.016
-150.618	635.978	-0.152	0.385
-149.604	82.912	-0.198	-0.216
-148.589	-200.000	-0.057	-0.285
-147.574	148.240	0.195	-0.262
-146.560	-57.251	0.204	0.090
-145.545	136.312	-0.217	0.283
-144.531	237.754	-0.032	0.054
-143.516	133.514	-0.050	-0.065
-142.502	-169.602	0.120	0.004
-141.487	-45.800	0.073	0.036
-140.472	299.144	-0.092	0.169
-139.458	800.000	0.061	0.182
-138.443	-86.363	-0.219	-0.067
-137.429	550.392	0.099	-0.237
-136.414	800.000	0.075	0.267
-135.399	9.559	-0.207	0.157
-134.385	-76.019	-0.359	-0.127
-133.370	145.570	0.070	-0.094
-132.356	-112.596	-0.213	-0.042
-131.341	80.705	0.200	0.215
-130.326	-60.637	-0.093	-0.039
-129.312	-61.508	-0.220	0.092
-128.297	-200.000	-0.061	0.268
-127.283	-200.000	0.009	0.210
-126.268	246.680	0.151	0.254
-125.253	534.410	0.192	0.454
-124.239	-167.527	-0.297	-0.012
-123.224	-16.018	0.177	0.113
-122.210	-200.000	-0.020	0.223
-121.195	800.000	0.070	0.298
-120.180	-91.609	-0.271	0.077
-119.166	-200.000	-0.008	0.083
-118.151	-29.375	0.132	0.075
-117.137	-104.513	-0.210	-0.048
-116.122	246.836	0.121	0.204
-115.107	-1.847	0.151	-0.106
-114.093	-76.654	-0.200	-0.070
-113.078	-104.768	-0.220	0.051
-112.064	-123.992	-0.255	-0.040
-111.049	-200.000	-0.014	0.062
-110.034	204.980	-0.202	0.313
-109.020	-150.413	-0.198	-0.015
-108.005	11.450	-0.178	-0.136
-106.991	-200.000	0.009	0.052
-105.976	91.515	0.166	-0.186
-104.962	273.334	-0.075	0.133
-103.947	-114.943	-0.207	0.039
-102.932	77.389	0.037	0.039
-101.918	237.027	-0.038	0.063
-100.903	800.000	0.068	0.217
-99.889	800.000	-0.104	0.292
-98.874	-106.549	0.199	-0.044
-97.859	-94.451	-0.265	0.072
-96.845	-81.268	0.201	-0.066
-95.830	-101.628	-0.198	-0.048
-94.816	-58.356	-0.273	0.119
-93.801	-200.000	0.037	0.166
-92.786	-142.745	0.140	-0.014
-91.772	-0.480	0.173	-0.122
-90.757	-88.207	-0.087	-0.026
-89.743	-11.638	0.223	0.146
-88.728	676.155	0.069	-0.178
-87.713	-13.814	-0.287	-0.185
-86.699	-200.000	0.062	-0.338
-85.684	-200.000	-0.001	-0.216
-84.670	-148.106	-0.193	0.016
-83.655	190.095	0.178	-0.266
-82.640	88.337	-0.150	-0.166
-81.626	-52.319	-0.334	0.154
-80.611	-200.000	-0.026	0.301
-79.597	198.864	0.179	-0.274
-78.582	-130.230	-0.203	-0.028
-77.567	800.000	-0.114	0.491
-76.553	-136.044	0.107	0.013
-75.538	72.241	-0.207	-0.214
-74.524	-92.239	-0.162	0.046
-73.509	-2.178	-0.140	0.098
-72.494	-200.000	0.029	-0.191
-71.480	-59.547	0.201	0.086
-70.465	49.647	0.157	0.147
-69.451	-42.499	-0.368	0.187
-68.436	-135.410	0.276	-0.033
-67.422	-37.412	0.218	-0.116
-66.407	800.000	-0.103	-0.333
-65.392	98.494	-0.113	0.130
-64.378	-200.000	0.016	0.185
-63.363	294.632	0.095	0.174
-62.349	62.127	-0.179	0.178
-61.334	-1.151	-0.720	-0.507
-60.319	800.000	-0.059	0.233
-59.305	-200.000	-0.155	-0.797
-58.290	195.074	0.529	0.801
-57.276	800.000	0.545	1.563
-56.261	-200.000	76.501	529.295
-55.246	527.562	1333.336	3130.128
-54.232	143.943	2561.811	3401.026
-53.217	119.707	2238.583	2761.496
-52.203	54.436	1676.958	1608.335
-51.188	45.876	1397.376	1286.762
-50.173	42.265	1351.293	1222.316
-49.159	60.988	1386.047	1369.243
-48.144	68.180	1404.265	1431.274
-47.130	46.454	1367.298	1262.413
-46.115	42.304	1350.854	1221.967
-45.100	42.043	1345.881	1215.835
-44.086	41.846	1343.955	1212.849
-43.071	41.799	1341.599	1210.393
-42.057	41.718	1339.853	1208.276
-41.042	41.810	1337.731	1206.873
-40.027	41.944	1336.527	1206.545
-39.013	41.965	1334.022	1204.360
-37.998	41.926	1332.392	1202.609
-36.984	41.911	1330.577	1200.836
-35.969	41.968	1328.937	1199.647
-34.954	42.062	1327.260	1198.652
-33.940	42.039	1326.149	1197.462
-32.925	42.184	1324.021	1196.357
-31.911	42.138	1322.575	1194.732
-30.896	42.175	1320.996	1193.475
-29.881	42.115	1319.873	1192.057
-28.867	42.130	1318.421	1190.787
-27.852	42.123	1316.679	1189.123
-26.838	42.190	1314.987	1187.944
-25.823	42.036	1314.063	1186.150
-24.809	42.067	1312.151	1184.562
-23.794	41.974	1311.494	1183.375
-22.779	42.160	1309.544	1182.663
-21.765	42.076	1308.545	1181.220
-20.750	42.053	1307.024	1179.666
-19.736	42.000	1305.730	1178.135
-18.721	41.880	1304.950	1176.681
-17.706	42.024	1303.324	1176.015
-16.692	42.056	1302.019	1174.977
-15.677	41.858	1301.277	1173.099
-14.663	41.781	1300.294	1171.715
-13.648	41.865	1298.787	1170.804
-12.633	41.867	1298.359	1170.385
-11.619	41.918	1297.191	1169.583
-10.604	41.954	1295.750	1168.449
-9.590	41.975	1295.152	1167.983
-8.575	41.943	1293.757	1166.495
-7.560	41.954	1293.103	1165.920
-6.546	41.898	1292.444	1164.951
-5.531	41.989	1291.052	1164.182
-4.517	41.972	1290.260	1163.323
-3.502	41.900	1289.592	1162.257
-2.487	41.893	1288.703	1161.370
-1.473	41.884	1284.694	1157.656
-0.458	40.423	1269.081	1135.179
0.556	34.169	1248.496	1087.851
1.571	29.381	1250.879	1062.331
2.586	27.677	1265.539	1064.750
3.600	26.363	1254.966	1048.146
4.615	22.943	1185.434	971.225
5.629	17.576	1111.343	882.704
6.644	14.418	1089.973	849.576
7.659	14.220	1087.197	846.331
8.673	14.086	1086.095	844.722
9.688	14.127	1084.476	843.592
10.702	14.455	1083.389	844.334
11.717	17.821	1087.532	864.572
12.731	21.512	1092.144	886.906
13.746	20.120	1089.320	877.496
14.761	17.755	1085.368	862.289
15.775	16.537	1082.593	853.862
16.790	15.449	1081.019	847.060
17.804	14.683	1078.854	841.431
18.819	14.267	1077.445	838.162
19.834	13.897	1076.525	835.512
20.848	13.572	1075.735	833.189
21.863	13.467	1074.639	831.740
22.877	13.276	1074.305	830.446
23.892	13.211	1073.369	829.324
24.907	13.275	1072.945	829.242
25.921	13.315	1071.722	828.426
26.936	13.257	1070.235	826.913
27.950	13.309	1068.956	826.113
28.965	13.324	1067.569	825.043
29.980	13.471	1065.583	824.166
30.994	13.436	1064.168	822.826
32.009	13.563	1063.037	822.506
33.023	13.591	1062.012	821.782
34.038	13.494	1061.170	820.575
35.053	13.510	1060.021	819.692
36.067	13.427	1059.581	818.869
37.082	13.321	1058.746	817.628
38.096	13.522	1057.813	817.827
39.111	13.567	1056.924	817.290
40.126	13.452	1055.790	815.773
41.140	13.120	1055.290	813.681
42.155	13.223	1053.131	812.451
43.169	13.151	1052.458	811.505
44.184	13.191	1051.045	810.542
45.199	13.076	1050.539	809.514
46.213	13.195	1049.089	808.907
47.228	13.234	1048.074	808.245
48.242	13.228	1046.899	807.239
49.257	13.210	1046.396	806.691
50.271	13.380	1045.037	806.402
51.286	13.313	1044.432	805.534
52.301	13.318	1043.382	804.677
53.315	13.283	1042.622	803.852
54.330	13.269	1041.112	802.549
55.344	13.248	1040.420	801.841
56.359	13.285	1039.702	801.399
57.374	13.264	1038.492	800.291
58.388	13.140	1037.797	799.088
59.403	13.087	1037.008	798.154
60.417	13.057	1036.232	797.341
61.432	13.186	1035.314	797.182
62.447	13.238	1034.562	796.785
63.461	13.228	1033.638	795.955
64.476	13.111	1032.561	794.495
65.490	13.115	1032.124	794.104
66.505	13.172	1031.538	793.861
67.520	13.093	1030.601	792.686
68.534	13.169	1030.116	792.607
69.549	13.248	1028.919	791.997
70.563	13.074	1028.671	790.904
71.578	13.081	1027.821	790.212
72.593	13.067	1027.097	789.518
73.607	13.104	1026.344	789.046
74.622	13.084	1025.696	788.383
75.636	13.176	1024.936	788.166
76.651	13.105	1024.157	787.161
77.666	13.092	1023.676	786.659
78.680	13.119	1022.875	786.103
79.695	13.051	1022.628	785.521
80.709	13.101	1021.587	784.888
81.724	13.184	1020.988	784.752
82.739	13.276	1020.065	784.412
83.753	13.405	1018.981	784.120
84.768	13.425	1017.851	783.274
85.782	13.472	1017.106	782.855
86.797	13.397	1016.212	781.743
87.812	13.297	1015.513	780.664
88.826	13.377	1014.393	780.110
89.841	13.417	1013.478	779.525
90.855	13.490	1012.881	779.342
91.870	13.494	1011.796	778.458
92.884	13.456	1010.930	777.543
93.899	13.487	1010.107	776.989
94.914	13.597	1009.393	776.883
95.928	13.586	1008.751	776.271
96.943	13.547	1007.446	775.014
97.957	13.377	1007.141	773.915
98.972	13.357	1006.255	773.074
99.987	13.463	1004.858	772.426
101.001	13.455	1004.355	771.935
102.016	13.403	1003.274	770.794
103.030	13.489	1002.423	770.474
104.045	13.450	1001.875	769.803
105.060	13.379	1000.999	768.729
106.074	13.191	1000.458	767.373
107.089	13.306	999.117	766.812
108.103	13.204	998.117	765.505
109.118	13.187	997.014	764.509
110.133	13.291	995.775	763.974
111.147	13.385	994.770	763.570
112.162	13.327	994.213	762.808
113.176	13.360	993.842	762.606
114.191	13.247	993.330	761.626
115.206	13.310	992.517	761.222
116.220	13.350	991.100	760.253
117.235	13.320	990.192	759.350
118.249	13.340	989.183	758.602
119.264	13.347	988.480	758.028
120.279	13.307	987.769	757.235
121.293	13.284	987.180	756.609
122.308	13.241	986.044	755.477
123.322	13.252	985.342	754.922
124.337	13.191	984.384	753.840
125.352	13.198	983.430	753.077
126.366	13.278	982.145	752.391
127.381	13.278	981.404	751.755
128.395	13.344	980.346	751.179
129.410	13.317	979.651	750.456
130.424	13.323	978.975	749.900
131.439	13.482	978.172	749.938
132.454	13.416	977.362	748.951
133.468	13.528	976.431	748.678
134.483	13.504	975.320	747.653
135.497	13.548	974.371	747.058
136.512	13.451	973.952	746.233
137.527	13.531	972.664	745.541
138.541	13.555	972.306	745.308
139.556	13.491	971.627	744.433
140.570	13.638	970.952	744.509
141.585	13.823	969.706	744.321
142.600	13.706	969.021	743.203
143.614	13.676	968.300	742.450
144.629	13.825	967.581	742.500
145.643	13.643	966.813	741.031
146.658	13.554	965.485	739.553
147.673	13.539	964.817	738.906
148.687	13.389	963.972	737.525
149.702	13.688	962.546	737.700
150.716	13.532	961.813	736.380
151.731	13.535	961.164	735.833
152.746	13.530	960.474	735.214
153.760	13.612	959.971	735.131
154.775	13.556	959.652	734.571
155.789	13.685	958.754	734.389
156.804	13.717	957.892	733.808
157.819	13.615	957.694	733.138
158.833	13.677	957.044	732.850
159.848	13.645	955.804	731.694
160.862	13.899	954.532	731.778
161.877	13.649	953.763	730.019
162.892	13.630	952.941	729.245
163.906	13.612	951.931	728.327
164.921	13.557	951.340	727.570
165.935	13.762	950.249	727.569
166.950	13.707	949.278	726.519
167.964	13.747	948.613	726.124
168.979	13.615	947.976	724.992
169.994	13.629	947.051	724.283
171.008	13.604	946.424	723.629
172.023	13.747	945.500	723.484
173.037	13.741	945.071	723.067
174.052	13.793	944.514	722.801
175.067	13.699	943.539	721.582
176.081	13.509	943.429	720.609
177.096	13.778	942.460	720.973
178.110	13.802	941.347	720.162
179.125	13.745	941.421	719.909
180.140	13.730	940.579	719.135
181.154	13.923	940.127	719.560
182.169	13.877	939.838	719.078
183.183	13.808	939.172	718.206
184.198	14.008	938.056	718.151
185.213	13.936	937.931	717.683
186.227	13.921	936.918	716.781
187.242	13.968	936.087	716.285
188.256	14.107	935.657	716.489
189.271	14.125	934.631	715.720
190.286	13.918	934.242	714.467
191.300	13.746	933.343	712.976
192.315	13.775	932.801	712.624
193.329	13.727	932.172	711.873
194.344	13.867	931.754	712.092
195.359	13.842	931.168	711.475
196.373	13.985	930.025	711.151
197.388	14.093	929.869	711.432
198.402	14.158	929.213	711.144
199.417	14.090	928.813	710.483
200.432	14.234	928.095	710.486
201.446	14.252	927.657	710.163
202.461	14.268	927.390	709.966
203.475	14.279	926.602	709.346
204.490	14.179	925.751	708.206
205.504	14.175	924.836	707.428
206.519	14.175	924.059	706.772
207.534	14.223	923.396	706.405
208.548	14.100	922.991	705.508
209.563	14.297	922.339	705.786
210.577	14.304	921.353	704.995
211.592	14.314	920.974	704.689
212.607	14.253	920.400	703.927
213.621	14.239	919.502	703.119
214.636	14.325	918.543	702.688
215.650	14.299	918.176	702.233
216.665	14.463	917.364	702.241
217.680	14.556	916.252	701.720
218.694	14.440	915.626	700.690
219.709	14.502	915.036	700.437
220.723	14.426	914.675	699.781
221.738	14.442	913.901	699.194
222.753	14.382	913.073	698.246
223.767	14.439	913.124	698.463
224.782	14.507	912.674	698.340
225.796	14.535	911.707	697.656
226.811	14.514	911.046	697.000
227.826	14.514	910.446	696.482
228.840	14.495	909.332	695.487
229.855	14.519	908.695	695.041
230.869	14.497	907.984	694.343
231.884	14.530	907.093	693.739
232.899	14.391	906.558	692.689
233.913	14.342	905.763	691.815
234.928	14.434	905.234	691.731
235.942	14.415	904.965	691.387
236.957	14.401	904.108	690.613
237.972	14.429	903.838	690.461
238.986	14.412	903.187	689.833
240.001	14.605	901.979	689.646
241.015	14.497	901.623	688.868
242.030	14.514	901.328	688.653
243.045	14.592	900.421	688.219
244.059	14.654	899.612	687.796
245.074	14.632	898.998	687.175
246.088	14.614	898.598	686.732
247.103	14.694	897.755	686.358
248.117	14.797	897.183	686.284
249.132	14.840	896.909	686.188
250.147	14.874	896.256	685.767
251.161	14.831	895.985	685.322
252.176	14.979	894.793	684.957
253.190	15.083	893.968	684.691
254.205	15.088	893.372	684.196
255.220	15.081	892.748	683.626
256.234	15.033	892.388	683.096
257.249	15.204	891.554	683.095
258.263	15.096	890.565	681.834
259.278	15.041	890.317	681.363
260.293	15.031	889.573	680.691
261.307	15.095	889.186	680.596
262.322	15.189	888.392	680.307
263.336	15.156	887.742	679.616
264.351	15.303	886.817	679.447
265.366	15.238	886.557	678.920
266.380	15.392	885.786	678.895
267.395	15.331	885.194	678.134
268.409	15.221	884.311	676.955
269.424	15.207	883.395	676.136
270.439	15.158	882.613	675.279
271.453	15.248	882.057	675.159
272.468	15.235	881.839	674.877
273.482	15.229	880.973	674.134
274.497	15.247	880.161	673.523
275.512	15.418	880.046	674.061
276.526	15.274	879.544	673.038
277.541	15.203	878.888	672.194
278.555	15.480	877.994	672.562
279.570	15.422	877.671	672.020
280.585	15.536	877.109	671.987
281.599	15.593	875.829	671.175
282.614	15.371	875.420	669.918
283.628	15.454	874.634	669.586
284.643	15.393	874.526	669.200
285.657	15.448	873.747	668.763
286.672	15.386	872.899	667.811
287.687	15.674	871.862	668.101
288.701	15.542	871.593	667.311
289.716	15.548	871.136	666.927
290.730	15.481	870.731	666.293
291.745	15.668	869.490	666.024
292.760	15.654	868.984	665.522
293.774	15.588	868.912	665.149
294.789	15.706	867.900	664.779
295.803	15.670	867.073	663.947
296.818	15.594	866.998	663.531
297.833	15.685	865.980	663.051
298.847	15.840	864.784	662.688
299.862	15.774	864.877	662.439
300.876	15.681	864.639	661.832
301.891	15.802	864.022	661.778
302.906	15.659	863.553	660.797
303.920	15.783	863.133	660.906
304.935	15.881	862.545	660.781
305.949	15.939	861.590	660.219
306.964	15.757	861.248	659.186
307.979	16.039	860.280	659.487
308.993	15.872	859.717	658.346
310.008	15.955	858.928	658.009
311.022	15.914	858.343	657.340
312.037	15.902	857.950	656.936
313.052	15.868	857.373	656.304
314.066	15.911	856.673	655.876
315.081	15.785	856.393	655.114
316.095	15.837	855.370	654.475
317.110	15.912	854.986	654.415
318.125	15.975	854.660	654.351
319.139	15.858	854.329	653.588
320.154	15.892	853.820	653.271
321.168	15.806	853.356	652.524
322.183	15.958	852.495	652.398
323.197	15.930	852.357	652.126
324.212	16.017	851.310	651.605
325.227	15.966	850.836	650.985
326.241	16.026	850.427	650.849
327.256	15.854	850.185	649.939
328.270	15.979	848.998	649.458
329.285	15.980	848.843	649.285
330.300	15.894	848.084	648.318
331.314	16.084	847.109	648.242
332.329	15.948	847.102	647.659
333.343	16.099	846.686	647.862
334.358	16.137	845.995	647.422
335.373	16.199	845.778	647.436
336.387	16.204	845.637	647.291
337.402	16.245	845.203	647.061
338.416	16.240	844.624	646.541
339.431	16.228	844.448	646.300
340.446	16.302	843.939	646.137
341.460	16.403	843.667	646.258
342.475	16.283	843.404	645.542
343.489	16.329	842.968	645.326
344.504	16.409	842.181	644.972
345.519	16.427	841.783	644.678
346.533	16.525	840.918	644.332
347.548	16.514	840.519	643.928
348.562	16.427	839.791	642.982
349.577	16.254	839.866	642.327
350.592	16.474	838.711	642.221
351.606	16.343	838.397	641.426
352.621	16.374	837.585	640.865
353.635	16.364	836.888	640.237
354.650	16.499	836.074	640.068
355.665	16.451	835.673	639.523
356.679	16.501	835.074	639.199
357.694	16.418	834.807	638.623
358.708	16.361	834.456	638.083
359.723	16.686	833.075	638.195
360.738	16.638	832.856	637.791
361.752	16.588	832.128	636.988
362.767	16.597	831.628	636.583
363.781	16.593	831.268	636.237
364.796	16.787	830.815	636.564
365.810	16.683	830.517	635.888
366.825	16.764	829.378	635.262
367.840	16.711	829.683	635.241
368.854	16.693	828.788	634.433
369.869	16.797	828.638	634.653
370.883	16.748	828.224	634.094
371.898	16.715	828.136	633.849
372.913	16.917	827.487	634.052
373.927	16.843	827.012	633.354
374.942	17.019	826.105	633.258
375.956	16.970	825.822	632.804
376.971	17.000	825.165	632.358
377.986	17.074	824.834	632.321
379.000	16.948	824.552	631.579
380.015	17.019	823.939	631.319
381.029	17.015	823.355	630.802
382.044	17.105	822.708	630.586
383.059	16.996	822.034	629.607
384.073	17.056	821.429	629.312
385.088	17.121	820.892	629.083
386.102	17.051	820.510	628.478
387.117	16.958	819.732	627.480
388.132	17.064	818.972	627.236
389.146	16.968	818.864	626.742
390.161	17.176	818.276	627.006
391.175	17.152	817.856	626.540
392.190	16.991	817.776	625.830
393.205	17.021	816.808	625.142
394.219	17.060	816.502	624.999
395.234	16.962	816.385	624.492
396.248	17.079	815.875	624.475
397.263	17.015	814.931	623.463
398.278	17.009	814.771	623.264
399.292	16.972	814.371	622.767
400.307	17.147	813.700	622.841
401.321	17.151	813.534	622.674
402.336	17.064	813.349	622.157
403.350	17.156	812.629	621.888
404.365	17.248	812.255	621.885
405.380	17.439	811.370	621.851
406.394	17.286	811.376	621.241
407.409	17.453	810.665	621.251
408.423	17.346	810.684	620.818
409.438	17.499	809.964	620.773
410.453	17.483	809.465	620.277
411.467	17.482	809.140	619.967
412.482	17.443	808.971	619.641
413.496	17.530	808.420	619.481
414.511	17.694	807.847	619.582
415.526	17.785	807.413	619.528
416.540	17.587	806.985	618.424
417.555	17.621	806.599	618.198
418.569	17.662	805.897	617.754
419.584	17.652	805.771	617.567
420.599	17.649	805.020	616.925
421.613	89.408	1259.559	1352.954
422.628	76.358	1325.832	1353.071
