DTS Sentinel unit serial number:	SN413079Multiplexer serial number:	ORYXHardware model number:	OX4-SRSoftware version number:	ORYX F/W v4.00 Oryx Data Collector v3.7.2.0data status	okinstallation	princeton_trtdifferential loss correction	single-endedforward channel	channel 1reverse channel	N/Adate	2019/09/16time	18:58:35forward acquisition time	60.00reverse acquisition time	0.00gamma	496.2192k internal	0.2310k external	0.2310temperature offset calibration	0.9948default loss term (dB/km)	0.3790temperature slope calibration	1.0000multiplexer offset coefficient	1.0000multiplexer slope coefficient	1.0000fibre end	0.00T internal ref (°C)	35.64T ext. ref 1 (°C)	0.07T ext. ref 2 (°C)	28.89length (m)	temperature (°C)	Stokes	anti-Stokes-747.200	110.804	0.197	0.240
-746.185	-200.000	-0.043	0.477
-745.171	7.167	0.211	-0.160
-744.156	-200.000	-0.147	0.001
-743.142	87.877	0.116	-0.131
-742.127	143.698	-0.047	0.063
-741.112	800.000	0.091	0.311
-740.098	555.473	-0.049	-0.120
-739.083	-73.687	0.278	0.103
-738.069	-38.756	0.111	0.059
-737.054	27.871	0.119	-0.102
-736.039	-179.675	-0.094	-0.002
-735.025	-3.499	0.167	0.118
-734.010	-200.000	0.053	0.542
-732.996	-157.480	-0.336	-0.020
-731.981	-127.491	-0.039	-0.006
-730.966	-186.552	0.102	0.001
-729.952	-94.055	-0.165	-0.046
-728.937	800.000	0.029	0.102
-727.923	-200.000	-0.012	-0.281
-726.908	-200.000	0.016	0.260
-725.894	-95.759	0.252	0.068
-724.879	2.166	-0.137	-0.100
-723.864	27.987	0.146	0.125
-722.850	379.347	0.127	-0.264
-721.835	7.586	-0.178	0.135
-720.821	-200.000	0.005	-0.081
-719.806	686.895	0.026	0.070
-718.791	560.905	0.097	0.239
-717.777	-200.000	0.004	-0.098
-716.762	337.095	-0.081	0.160
-715.748	-200.000	-0.027	0.197
-714.733	-98.135	0.250	-0.065
-713.718	457.233	0.099	0.223
-712.704	-164.443	0.138	0.006
-711.689	-200.000	-0.023	-0.115
-710.675	-146.796	-0.200	-0.018
-709.660	166.196	0.094	0.135
-708.645	-71.704	0.376	-0.142
-707.631	-14.457	-0.034	0.022
-706.616	-125.015	0.183	-0.028
-705.602	-131.906	0.019	0.003
-704.587	-200.000	-0.038	0.217
-703.572	-200.000	0.012	0.098
-702.558	20.831	-0.052	0.043
-701.543	348.710	-0.185	-0.371
-700.529	800.000	0.012	-0.047
-699.514	-100.478	-0.112	-0.028
-698.499	24.423	-0.153	0.129
-697.485	13.615	-0.207	-0.163
-696.470	-35.497	0.255	0.140
-695.456	-200.000	-0.029	0.151
-694.441	-200.000	-0.024	-0.199
-693.426	-200.000	-0.017	-0.281
-692.412	-200.000	0.014	0.185
-691.397	-95.293	-0.350	-0.096
-690.383	-6.305	-0.096	0.066
-689.368	-138.340	-0.407	-0.046
-688.354	-151.051	-0.035	-0.003
-687.339	-20.799	0.039	0.024
-686.324	36.218	0.257	-0.229
-685.310	188.423	0.133	0.202
-684.295	-200.000	-0.008	-0.055
-683.281	-200.000	0.081	0.463
-682.266	-102.091	-0.225	-0.055
-681.251	-75.353	0.248	-0.090
-680.237	-157.628	-0.110	0.007
-679.222	-138.375	-0.049	0.006
-678.208	800.000	-0.102	0.406
-677.193	672.218	-0.099	-0.261
-676.178	-62.604	-0.281	-0.118
-675.164	800.000	0.069	0.207
-674.149	25.737	-0.041	0.035
-673.135	17.965	-0.214	-0.172
-672.120	-15.691	0.575	0.371
-671.105	-82.043	0.323	-0.107
-670.091	-76.028	-0.078	0.028
-669.076	20.304	0.255	-0.209
-668.062	-200.000	-0.030	-0.159
-667.047	386.115	0.123	-0.258
-666.032	-200.000	-0.060	0.344
-665.018	-24.331	0.184	0.111
-664.003	-9.748	0.432	-0.291
-662.989	38.198	0.222	0.200
-661.974	-3.570	-0.092	0.065
-660.959	2.813	-0.220	-0.162
-659.945	443.045	-0.061	-0.135
-658.930	10.837	-0.147	-0.114
-657.916	-149.920	0.340	0.027
-656.901	40.917	0.161	0.147
-655.886	-99.439	-0.044	-0.011
-654.872	-75.279	-0.414	-0.150
-653.857	-200.000	0.003	-0.024
-652.843	800.000	0.020	0.069
-651.828	-28.398	-0.258	0.151
-650.814	800.000	-0.038	0.167
-649.799	-200.000	0.010	-0.115
-648.784	349.253	-0.273	-0.545
-647.770	-80.690	-0.151	0.051
-646.755	515.856	0.125	0.295
-645.741	186.486	-0.061	0.092
-644.726	29.565	-0.205	-0.177
-643.711	-138.516	0.232	-0.026
-642.697	582.619	-0.006	0.015
-641.682	800.000	0.119	-0.377
-640.668	-200.000	-0.022	0.150
-639.653	-19.819	-0.277	-0.173
-638.638	-118.121	-0.300	-0.054
-637.624	335.228	-0.177	-0.348
-636.609	-116.356	0.082	-0.015
-635.595	-81.027	-0.229	-0.077
-634.580	-79.621	0.179	0.061
-633.565	-200.000	-0.013	-0.138
-632.551	-123.803	-0.116	-0.019
-631.536	-200.000	-0.009	-0.095
-630.522	17.934	-0.217	0.175
-629.507	-200.000	0.013	0.126
-628.492	800.000	0.059	-0.189
-627.478	-13.392	0.262	-0.172
-626.463	-10.056	0.148	0.099
-625.449	-123.151	0.377	0.061
-624.434	78.880	0.105	-0.114
-623.419	9.133	0.168	-0.128
-622.405	44.097	-0.059	-0.054
-621.390	-200.000	-0.004	-0.066
-620.376	49.225	0.279	0.265
-619.361	800.000	0.070	0.275
-618.346	800.000	-0.054	0.214
-617.332	-58.173	-0.202	-0.089
-616.317	79.168	-0.198	0.214
-615.303	800.000	-0.009	-0.034
-614.288	153.960	-0.105	-0.145
-613.273	790.377	0.127	0.353
-612.259	-46.986	-0.334	0.165
-611.244	-200.000	0.022	-0.111
-610.230	-106.993	0.115	-0.026
-609.215	63.003	-0.152	-0.153
-608.201	-93.872	-0.110	0.030
-607.186	432.455	-0.112	0.244
-606.171	-98.696	0.153	-0.039
-605.157	115.470	-0.165	0.204
-604.142	140.052	0.191	-0.254
-603.128	-200.000	-0.012	0.149
-602.113	-11.637	0.091	0.061
-601.098	-200.000	0.039	0.212
-600.084	-73.718	0.187	0.069
-599.069	80.701	-0.239	-0.260
-598.055	800.000	0.077	0.273
-597.040	-93.655	-0.152	0.042
-596.025	-191.450	-0.232	-0.002
-595.011	110.398	0.220	0.266
-593.996	484.472	0.113	0.260
-592.982	800.000	0.111	-0.375
-591.967	800.000	0.085	-0.328
-590.952	-60.598	-0.136	0.058
-589.938	45.148	-0.354	-0.329
-588.923	-124.462	0.180	-0.028
-587.909	800.000	0.071	0.282
-586.894	800.000	0.009	0.029
-585.879	356.653	-0.056	0.113
-584.865	126.151	-0.091	-0.116
-583.850	-200.000	-0.036	-0.322
-582.836	800.000	-0.082	0.275
-581.821	-82.823	0.260	-0.085
-580.806	-76.623	0.142	0.050
-579.792	800.000	0.023	-0.095
-578.777	-107.953	-0.499	-0.109
-577.763	-200.000	-0.031	0.173
-576.748	-31.067	-0.164	-0.093
-575.733	-119.627	-0.224	-0.039
-574.719	-77.554	0.104	-0.037
-573.704	-13.564	-0.190	0.124
-572.690	-43.769	0.170	-0.087
-571.675	800.000	-0.068	-0.192
-570.661	-123.713	0.108	-0.017
-569.646	-4.589	0.140	-0.098
-568.631	800.000	0.024	-0.083
-567.617	44.922	0.087	0.081
-566.602	800.000	0.092	0.313
-565.588	100.432	-0.288	0.337
-564.573	-200.000	0.044	0.420
-563.558	-3.317	-0.089	0.063
-562.544	61.170	0.140	0.140
-561.529	-200.000	0.011	0.262
-560.515	5.935	-0.370	0.276
-559.500	-124.341	0.154	-0.024
-558.485	-135.007	-0.187	0.023
-557.471	800.000	0.068	-0.255
-556.456	-79.978	-0.237	0.080
-555.442	-30.743	0.182	-0.104
-554.427	-147.424	0.261	-0.022
-553.412	78.312	0.101	-0.109
-552.398	-137.955	0.020	-0.002
-551.383	338.966	0.053	0.103
-550.369	464.955	-0.046	0.103
-549.354	99.911	0.212	-0.248
-548.339	96.045	-0.235	0.270
-547.325	26.285	-0.236	0.199
-546.310	800.000	-0.047	-0.161
-545.296	-120.908	-0.149	-0.025
-544.281	-28.376	0.084	-0.049
-543.266	-200.000	-0.043	-0.353
-542.252	-200.000	-0.013	-0.179
-541.237	39.516	-0.065	0.059
-540.223	-64.507	-0.206	0.084
-539.208	230.731	-0.078	0.129
-538.193	130.572	-0.082	0.106
-537.179	45.472	-0.042	0.039
-536.164	-105.844	0.325	-0.074
-535.150	36.948	-0.020	0.018
-534.135	-135.458	0.237	-0.028
-533.121	130.840	0.009	-0.012
-532.106	718.702	0.093	0.248
-531.091	-96.016	0.255	-0.068
-530.077	-43.129	0.350	0.179
-529.062	97.717	-0.063	-0.073
-528.048	165.539	-0.111	0.158
-527.033	2.744	-0.012	-0.008
-526.018	-83.330	0.056	-0.018
-525.004	-46.431	0.025	0.012
-523.989	-76.242	-0.178	-0.063
-522.975	-200.000	0.016	0.101
-521.960	255.313	-0.108	-0.187
-520.945	28.591	-0.209	-0.178
-519.931	-125.409	0.100	-0.015
-518.916	-33.410	0.388	0.216
-517.902	30.835	-0.050	0.043
-516.887	-50.750	0.071	-0.034
-515.872	-186.195	-0.112	-0.002
-514.858	-93.942	0.149	-0.041
-513.843	800.000	-0.023	-0.071
-512.829	-172.361	-0.203	-0.007
-511.814	8.633	-0.360	-0.273
-510.799	-45.816	-0.102	-0.051
-509.785	388.680	-0.052	-0.109
-508.770	24.947	0.050	0.042
-507.756	800.000	0.063	0.180
-506.741	-160.611	0.360	0.019
-505.726	-172.104	-0.279	-0.009
-504.712	-17.508	-0.167	0.106
-503.697	88.750	-0.258	0.289
-502.683	224.065	0.159	0.259
-501.668	-40.247	0.378	-0.198
-500.653	33.555	-0.034	0.030
-499.639	159.229	-0.059	-0.082
-498.624	234.305	0.215	-0.356
-497.610	-200.000	-0.016	-0.108
-496.595	-14.257	-0.135	0.088
-495.581	220.395	-0.167	-0.269
-494.566	-58.702	0.105	-0.046
-493.551	-16.097	0.255	-0.163
-492.537	526.183	-0.169	-0.400
-491.522	-155.429	0.242	0.016
-490.508	60.488	0.173	-0.173
-489.493	-6.980	-0.141	0.096
-488.478	-31.979	0.052	-0.029
-487.464	385.419	0.052	0.108
-486.449	56.652	0.022	-0.021
-485.435	-200.000	0.051	0.407
-484.420	-78.117	0.135	0.047
-483.405	501.497	0.102	0.238
-482.391	-115.884	0.134	-0.025
-481.376	-200.000	-0.001	0.181
-480.362	-7.732	0.273	0.185
-479.347	-99.966	0.355	0.089
-478.332	-134.512	-0.199	0.024
-477.318	-200.000	-0.042	-0.256
-476.303	131.707	0.046	0.060
-475.289	-148.680	-0.198	0.016
-474.274	800.000	-0.129	0.372
-473.259	296.889	0.089	0.165
-472.245	-67.120	-0.137	0.054
-471.230	640.910	-0.031	-0.079
-470.216	-112.527	0.101	-0.020
-469.201	697.355	-0.122	0.322
-468.186	-200.000	0.012	-0.172
-467.172	135.384	-0.120	-0.157
-466.157	-171.969	-0.181	-0.006
-465.143	9.996	0.190	0.145
-464.128	-200.000	0.031	-0.285
-463.113	-72.699	-0.210	0.078
-462.099	-157.487	0.192	-0.012
-461.084	-200.000	-0.012	0.130
-460.070	-95.311	-0.170	0.046
-459.055	-200.000	0.012	-0.056
-458.040	13.542	0.263	-0.205
-457.026	-72.620	0.027	-0.010
-456.011	-36.397	-0.095	0.051
-454.997	-55.185	-0.181	-0.082
-453.982	244.634	-0.054	0.092
-452.968	147.663	-0.186	0.252
-451.953	-95.205	0.082	-0.022
-450.938	569.537	0.120	0.293
-449.924	-109.394	0.149	-0.032
-448.909	152.178	-0.036	0.049
-447.895	-4.245	0.190	0.132
-446.880	-64.944	-0.115	0.047
-445.865	174.645	-0.129	0.188
-444.851	-177.859	-0.167	-0.004
-443.836	-200.000	-0.036	-0.344
-442.822	5.666	0.337	-0.250
-441.807	-70.756	-0.203	-0.077
-440.792	-200.000	-0.055	-0.279
-439.778	-119.908	-0.349	0.060
-438.763	105.943	0.166	0.198
-437.749	800.000	0.030	0.093
-436.734	-200.000	-0.023	-0.118
-435.719	-200.000	0.004	-0.224
-434.705	374.924	0.120	-0.246
-433.690	-125.940	0.033	0.005
-432.676	124.201	0.310	0.391
-431.661	-50.274	-0.164	0.078
-430.646	-160.237	-0.378	-0.020
-429.632	-25.888	0.166	0.098
-428.617	-200.000	-0.011	-0.259
-427.603	57.606	-0.181	-0.178
-426.588	570.801	-0.021	0.052
-425.573	476.488	-0.051	0.115
-424.559	-40.629	-0.247	-0.128
-423.544	-136.759	0.036	0.004
-422.530	73.380	-0.248	-0.260
-421.515	-200.000	0.010	-0.176
-420.500	735.096	-0.137	-0.369
-419.486	-145.447	-0.576	0.052
-418.471	800.000	0.101	0.316
-417.457	296.172	0.152	-0.279
-416.442	408.008	0.165	-0.350
-415.428	39.441	0.258	-0.232
-414.413	800.000	-0.094	0.297
-413.398	110.586	0.415	0.500
-412.384	329.534	0.161	0.311
-411.369	-98.857	0.242	0.062
-410.355	-185.884	0.140	-0.002
-409.340	-36.765	0.075	-0.040
-408.325	786.188	-0.044	0.122
-407.311	78.472	-0.132	-0.141
-406.296	-26.470	-0.238	-0.140
-405.282	-49.680	0.127	0.060
-404.267	25.547	-0.053	0.044
-403.252	100.682	-0.061	-0.072
-402.238	-200.000	0.079	-0.377
-401.223	-200.000	0.066	-0.366
-400.209	-45.123	0.271	0.135
-399.194	200.727	0.100	-0.154
-398.179	286.508	0.158	0.285
-397.165	800.000	-0.081	0.298
-396.150	-57.350	0.251	0.110
-395.136	-17.867	-0.322	0.202
-394.121	23.558	0.136	-0.112
-393.106	-134.772	-0.160	0.019
-392.092	-200.000	-0.050	0.314
-391.077	-115.256	0.319	0.060
-390.063	-200.000	0.006	-0.116
-389.048	-121.276	-0.248	0.041
-388.033	366.115	-0.103	0.208
-387.019	277.437	-0.189	0.338
-386.004	-200.000	-0.028	0.257
-384.990	-6.736	-0.242	0.165
-383.975	-200.000	0.043	-0.260
-382.960	-31.168	-0.103	0.058
-381.946	306.585	-0.050	0.093
-380.931	-200.000	-0.002	-0.428
-379.917	-200.000	0.056	0.353
-378.902	12.339	0.122	0.094
-377.888	800.000	-0.070	0.258
-376.873	-180.698	0.167	0.003
-375.858	-127.557	0.079	-0.011
-374.844	42.400	-0.252	0.230
-373.829	-106.951	-0.045	0.010
-372.815	-118.739	0.372	0.066
-371.800	377.215	-0.028	-0.056
-370.785	-138.462	0.089	0.010
-369.771	-118.946	0.052	-0.009
-368.756	-143.484	0.365	0.035
-367.742	-130.550	-0.323	-0.044
-366.727	98.236	0.125	-0.145
-365.712	-200.000	0.013	0.126
-364.698	605.362	-0.116	0.290
-363.683	94.021	0.218	0.248
-362.669	95.923	0.242	-0.277
-361.654	-28.351	-0.169	-0.098
-360.639	-146.617	0.354	-0.031
-359.625	129.481	0.111	-0.142
-358.610	800.000	0.044	-0.123
-357.596	-200.000	0.008	-0.238
-356.581	-200.000	-0.033	-0.161
-355.566	-117.113	0.138	-0.025
-354.552	800.000	-0.051	0.155
-353.537	479.421	0.074	-0.168
-352.523	800.000	-0.098	0.317
-351.508	-105.744	0.028	0.006
-350.493	-0.300	-0.050	0.035
-349.479	-200.000	0.009	-0.083
-348.464	-84.660	-0.131	0.041
-347.450	43.023	0.220	0.201
-346.435	25.686	0.057	0.047
-345.420	-91.357	-0.209	0.060
-344.406	-74.190	0.247	-0.089
-343.391	-15.223	-0.319	-0.204
-342.377	800.000	-0.050	0.141
-341.362	-92.496	0.112	0.031
-340.348	-45.919	-0.155	-0.076
-339.333	114.894	0.093	0.113
-338.318	-43.323	-0.138	0.070
-337.304	231.076	0.133	0.218
-336.289	-64.934	-0.294	0.119
-335.275	-17.317	-0.132	0.083
-334.260	21.604	0.111	-0.090
-333.245	42.617	-0.134	0.122
-332.231	800.000	0.082	0.256
-331.216	-74.183	0.362	0.131
-330.202	-37.477	-0.112	0.060
-329.187	-200.000	-0.024	-0.269
-328.172	54.453	0.277	0.267
-327.158	22.348	0.034	-0.027
-326.143	-144.486	-0.143	-0.013
-325.129	800.000	-0.112	0.324
-324.114	201.423	0.119	-0.183
-323.099	-93.966	0.234	0.064
-322.085	-109.260	-0.419	-0.089
-321.070	800.000	0.032	-0.131
-320.056	-25.438	-0.087	-0.051
-319.041	-123.230	0.104	0.017
-318.026	42.380	-0.137	0.124
-317.012	376.594	-0.116	-0.236
-315.997	-200.000	-0.007	-0.244
-314.983	-200.000	0.019	0.084
-313.968	8.148	-0.178	0.133
-312.953	-115.750	0.209	-0.039
-311.939	-0.873	-0.177	0.125
-310.924	800.000	0.067	0.232
-309.910	147.339	-0.219	0.295
-308.895	-96.410	-0.147	0.039
-307.880	-44.938	0.240	0.119
-306.866	-200.000	0.017	0.181
-305.851	27.683	-0.114	-0.096
-304.837	-14.144	0.217	-0.140
-303.822	37.316	0.153	0.135
-302.807	-15.314	-0.241	-0.154
-301.793	800.000	-0.028	0.095
-300.778	232.725	-0.152	0.250
-299.764	91.641	0.064	-0.072
-298.749	800.000	-0.085	-0.295
-297.735	-34.445	-0.329	-0.180
-296.720	-152.377	0.362	-0.026
-295.705	-131.047	0.277	0.037
-294.691	-200.000	-0.003	-0.196
-293.676	5.383	-0.198	-0.146
-292.662	487.948	-0.055	-0.125
-291.647	-117.705	-0.216	-0.039
-290.632	9.444	0.314	-0.237
-289.618	494.470	0.099	-0.227
-288.603	230.439	-0.087	-0.142
-287.589	-182.844	0.107	-0.002
-286.574	295.280	-0.070	-0.129
-285.559	-172.204	0.246	0.008
-284.545	-200.000	0.012	-0.308
-283.530	348.565	-0.108	0.212
-282.516	-25.138	-0.174	0.103
-281.501	-96.375	-0.211	-0.056
-280.486	-90.053	0.254	0.074
-279.472	-33.449	-0.068	0.038
-278.457	8.397	0.168	-0.126
-277.443	-200.000	0.009	-0.077
-276.428	-200.000	-0.032	-0.220
-275.413	-55.777	0.214	-0.096
-274.399	380.781	-0.112	-0.229
-273.384	-111.187	0.260	-0.053
-272.370	-74.038	0.138	-0.050
-271.355	-34.964	-0.201	-0.109
-270.340	-200.000	-0.003	-0.209
-269.326	55.201	0.119	-0.115
-268.311	-103.496	-0.234	0.055
-267.297	-200.000	0.030	0.135
-266.282	800.000	0.092	-0.259
-265.267	102.101	-0.180	0.210
-264.253	398.303	0.128	0.267
-263.238	-76.113	-0.325	-0.114
-262.224	-24.123	-0.423	-0.252
-261.209	87.195	-0.239	-0.264
-260.195	-173.618	0.174	-0.005
-259.180	-43.027	0.260	-0.131
-258.165	-200.000	0.014	-0.227
-257.151	39.374	-0.162	-0.145
-256.136	-116.622	0.308	0.056
-255.122	29.574	0.091	0.077
-254.107	-13.088	0.089	-0.057
-253.092	800.000	0.049	-0.173
-252.078	152.737	0.111	0.151
-251.063	116.364	-0.222	0.271
-250.049	68.506	-0.144	-0.147
-249.034	-134.589	0.089	-0.011
-248.019	167.308	-0.126	-0.178
-247.005	-46.068	0.178	-0.087
-245.990	342.273	0.073	0.142
-244.976	-31.264	-0.254	-0.143
-243.961	324.929	0.132	-0.252
-242.946	-200.000	0.015	-0.282
-241.932	-18.722	-0.239	-0.148
-240.917	-5.972	-0.186	-0.126
-239.903	24.062	-0.156	0.128
-238.888	74.559	0.174	0.182
-237.873	607.107	-0.020	-0.051
-236.859	-143.906	-0.247	-0.023
-235.844	18.629	-0.091	-0.073
-234.830	-200.000	-0.020	0.266
-233.815	-24.148	-0.260	-0.154
-232.800	28.054	-0.193	-0.162
-231.786	-103.382	0.399	-0.094
-230.771	113.417	0.235	0.283
-229.757	57.775	-0.019	-0.018
-228.742	-2.535	-0.235	-0.164
-227.727	64.862	0.111	-0.112
-226.713	800.000	-0.059	0.220
-225.698	800.000	-0.075	-0.240
-224.684	-200.000	0.031	-0.424
-223.669	-18.143	0.487	-0.303
-222.655	-200.000	0.034	-0.522
-221.640	-70.636	-0.088	-0.033
-220.625	206.940	0.164	0.254
-219.611	800.000	-0.110	0.396
-218.596	461.955	-0.070	-0.155
-217.582	-131.540	0.064	0.008
-216.567	91.346	-0.137	-0.153
-215.552	-200.000	0.013	0.155
-214.538	22.882	0.064	-0.053
-213.523	-119.480	-0.166	0.029
-212.509	-200.000	0.001	0.201
-211.494	-80.705	0.107	0.035
-210.479	800.000	-0.029	0.100
-209.465	-200.000	0.019	-0.232
-208.450	161.275	-0.096	0.133
-207.436	692.592	-0.135	0.351
-206.421	-38.183	-0.111	-0.059
-205.406	94.506	-0.300	0.339
-204.392	197.404	0.354	0.537
-203.377	180.418	0.034	0.050
-202.363	-31.647	0.269	0.150
-201.348	-156.662	-0.275	0.017
-200.333	-33.786	0.181	0.099
-199.319	-89.814	0.288	-0.084
-198.304	37.950	-0.100	-0.088
-197.290	-6.131	0.221	0.150
-196.275	109.539	0.179	0.213
-195.260	-200.000	-0.001	0.063
-194.246	679.918	-0.125	-0.324
-193.231	-126.285	-0.151	-0.022
-192.217	-200.000	0.062	-0.335
-191.202	-200.000	-0.003	-0.066
-190.187	-188.653	0.217	-0.003
-189.173	-13.871	-0.312	0.200
-188.158	24.535	0.125	-0.103
-187.144	5.649	0.016	-0.012
-186.129	-200.000	-0.055	0.357
-185.114	240.770	0.105	0.173
-184.100	-83.593	-0.137	0.044
-183.085	-101.344	-0.104	0.025
-182.071	-200.000	-0.003	0.032
-181.056	99.576	0.113	-0.130
-180.042	140.830	-0.164	0.215
-179.027	85.700	0.098	-0.107
-178.012	-47.838	0.129	0.062
-176.998	261.521	0.069	-0.119
-175.983	800.000	-0.137	-0.496
-174.969	-115.195	-0.073	0.014
-173.954	-80.720	0.478	0.158
-172.939	448.789	-0.056	0.123
-171.925	521.746	0.161	-0.375
-170.910	-64.773	0.487	-0.196
-169.896	205.997	-0.093	-0.144
-168.881	-96.010	-0.145	-0.038
-167.866	269.340	-0.119	-0.207
-166.852	198.274	0.150	0.228
-165.837	800.000	0.055	-0.229
-164.823	-104.802	-0.084	-0.019
-163.808	114.825	-0.092	0.112
-162.793	-9.055	-0.058	-0.038
-161.779	-200.000	0.020	0.253
-160.764	-200.000	-0.006	-0.190
-159.750	539.859	-0.101	0.238
-158.735	-100.067	-0.284	0.070
-157.720	13.480	0.077	-0.059
-156.706	-91.515	-0.100	-0.028
-155.691	44.833	0.183	0.167
-154.677	-121.461	0.225	0.037
-153.662	-18.335	0.181	0.112
-152.647	97.757	-0.158	-0.180
-151.633	-200.000	0.014	0.214
-150.618	237.602	-0.207	-0.341
-149.604	153.702	-0.170	0.231
-148.589	800.000	-0.035	-0.125
-147.574	-28.824	0.290	-0.165
-146.560	-200.000	-0.018	0.229
-145.545	-30.449	-0.231	-0.130
-144.531	51.000	0.079	0.074
-143.516	-37.569	-0.286	0.151
-142.502	58.798	-0.155	-0.151
-141.487	229.813	-0.120	0.194
-140.472	-200.000	-0.011	0.125
-139.458	230.582	-0.053	-0.085
-138.443	109.985	-0.279	-0.332
-137.429	-200.000	-0.043	-0.348
-136.414	-199.304	0.452	0.002
-135.399	247.146	-0.138	0.232
-134.385	-200.000	-0.029	0.353
-133.370	-73.515	0.118	-0.043
-132.356	92.199	0.354	0.396
-131.341	-13.212	-0.319	0.205
-130.326	-55.902	-0.078	-0.034
-129.312	-27.584	0.150	-0.087
-128.297	24.711	-0.082	-0.067
-127.283	2.946	0.260	-0.187
-126.268	-200.000	0.072	0.455
-125.253	800.000	-0.075	0.265
-124.239	204.746	-0.098	0.151
-123.224	800.000	-0.130	0.403
-122.210	-22.975	-0.250	0.149
-121.195	439.987	0.104	-0.225
-120.180	49.848	-0.071	-0.066
-119.166	-7.547	0.021	-0.014
-118.151	379.895	-0.069	-0.140
-117.137	800.000	0.053	-0.191
-116.122	83.368	-0.151	-0.163
-115.107	-200.000	-0.001	0.168
-114.093	-200.000	-0.020	0.113
-113.078	-141.934	0.246	0.024
-112.064	300.300	0.078	-0.143
-111.049	-200.000	0.014	0.148
-110.034	800.000	-0.025	0.105
-109.020	-80.643	-0.284	-0.094
-108.005	-132.704	0.303	0.038
-106.991	8.461	0.270	-0.201
-105.976	85.455	-0.089	-0.097
-104.962	556.764	0.098	0.234
-103.947	123.703	-0.072	0.089
-102.932	-41.582	-0.105	-0.054
-101.918	692.958	-0.060	-0.155
-100.903	-84.151	0.051	0.016
-99.889	-40.403	0.343	0.176
-98.874	-66.471	-0.352	0.138
-97.859	12.210	-0.359	-0.274
-96.845	-115.642	0.087	0.016
-95.830	433.630	0.061	-0.132
-94.816	-13.772	-0.174	0.111
-93.801	-83.334	0.402	0.128
-92.786	-200.000	0.000	0.081
-91.772	-65.168	-0.252	0.100
-90.757	98.917	0.106	0.121
-89.743	83.982	0.298	0.322
-88.728	242.795	-0.068	0.112
-87.713	36.564	0.240	0.210
-86.699	-200.000	0.009	0.302
-85.684	800.000	0.035	0.136
-84.670	-45.333	0.049	0.024
-83.655	-86.480	-0.076	0.023
-82.640	-200.000	-0.008	-0.192
-81.626	35.709	0.233	-0.202
-80.611	-200.000	0.031	0.161
-79.597	615.685	0.093	0.230
-78.582	800.000	-0.117	0.352
-77.567	800.000	-0.051	0.144
-76.553	-200.000	0.007	-0.343
-75.538	-200.000	0.000	0.082
-74.524	-124.018	0.266	-0.041
-73.509	-42.812	0.119	0.060
-72.494	-200.000	-0.006	-0.172
-71.480	-39.408	0.272	-0.141
-70.465	762.707	0.050	0.134
-69.451	-17.388	-0.060	-0.038
-68.436	-76.904	-0.143	-0.050
-67.422	-25.679	-0.303	0.177
-66.407	307.220	0.110	0.202
-65.392	-111.537	0.071	-0.014
-64.378	148.285	0.226	-0.302
-63.363	-200.000	-0.010	-0.227
-62.349	800.000	0.059	0.242
-61.334	129.790	-0.636	-0.804
-60.319	460.343	0.161	0.355
-59.305	-200.000	-0.042	-0.705
-58.290	194.678	0.745	1.117
-57.276	652.301	0.722	1.829
-56.261	-200.000	94.834	564.001
-55.246	549.937	1377.335	3264.496
-54.232	153.938	2571.213	3484.419
-53.217	115.743	2170.753	2624.386
-52.203	47.318	1628.045	1498.812
-51.188	39.099	1364.621	1206.073
-50.173	35.934	1321.784	1149.311
-49.159	56.940	1369.682	1319.019
-48.144	61.342	1388.759	1364.053
-47.130	39.427	1343.245	1188.975
-46.115	35.905	1325.237	1151.956
-45.100	35.621	1320.641	1146.223
-44.086	35.487	1317.876	1142.983
-43.071	35.553	1315.288	1141.084
-42.057	35.589	1313.266	1139.495
-41.042	35.499	1311.961	1137.786
-40.027	35.518	1310.854	1136.895
-39.013	35.534	1308.561	1134.955
-37.998	35.593	1306.628	1133.581
-36.984	35.655	1305.090	1132.568
-35.969	35.732	1302.972	1131.135
-34.954	35.707	1301.394	1129.573
-33.940	35.670	1300.154	1128.239
-32.925	35.677	1299.218	1127.421
-31.911	35.726	1297.567	1126.228
-30.896	35.765	1296.017	1125.069
-29.881	35.771	1294.971	1124.151
-28.867	35.700	1293.167	1122.124
-27.852	35.870	1291.659	1121.765
-26.838	35.858	1290.033	1120.238
-25.823	35.805	1288.677	1118.706
-24.809	35.715	1287.726	1117.316
-23.794	35.664	1286.354	1115.786
-22.779	35.712	1284.795	1114.667
-21.765	35.750	1283.807	1113.985
-20.750	35.575	1282.984	1112.210
-19.736	35.711	1281.404	1111.586
-18.721	35.646	1280.459	1110.348
-17.706	35.580	1278.912	1108.582
-16.692	35.591	1277.498	1107.372
-15.677	35.582	1276.699	1106.582
-14.663	35.601	1275.184	1105.336
-13.648	35.478	1274.337	1103.849
-12.633	35.529	1273.545	1103.416
-11.619	35.619	1272.506	1102.990
-10.604	35.616	1271.594	1102.135
-9.590	35.485	1270.823	1100.674
-8.575	35.536	1269.662	1099.918
-7.560	35.560	1268.977	1099.415
-6.546	35.483	1268.308	1098.351
-5.531	35.522	1267.266	1097.630
-4.517	35.573	1266.194	1096.947
-3.502	35.709	1265.567	1097.138
-2.487	35.644	1264.213	1095.550
-1.473	35.529	1260.169	1091.351
-0.458	33.804	1244.435	1067.991
0.556	27.663	1225.686	1024.625
1.571	23.247	1230.835	1003.862
2.586	22.146	1245.121	1009.100
3.600	21.495	1234.357	996.583
4.615	15.894	1160.629	906.891
5.629	5.641	1080.575	792.608
6.644	0.531	1058.041	750.645
7.659	-0.063	1055.762	746.015
8.673	-0.032	1053.963	744.830
9.688	-0.164	1053.263	743.613
10.702	0.268	1051.490	744.432
11.717	6.092	1059.075	778.658
12.731	15.104	1071.326	832.592
13.746	18.233	1074.257	850.368
14.761	17.150	1072.337	843.402
15.775	15.968	1070.086	835.696
16.790	14.908	1067.873	828.645
17.804	14.250	1066.264	824.063
18.819	13.943	1065.394	821.800
19.834	13.614	1064.198	819.179
20.848	13.381	1063.432	817.365
21.863	13.106	1062.734	815.400
22.877	12.995	1061.780	814.046
23.892	12.977	1061.119	813.379
24.907	13.007	1060.705	813.139
25.921	12.975	1059.707	812.145
26.936	13.061	1058.643	811.680
27.950	13.172	1057.910	811.593
28.965	13.119	1056.644	810.287
29.980	13.173	1055.681	809.744
30.994	13.193	1054.273	808.689
32.009	13.222	1053.747	808.354
33.023	13.230	1052.676	807.500
34.038	13.225	1051.373	806.409
35.053	13.276	1050.509	805.921
36.067	13.152	1050.107	804.938
37.082	13.178	1049.114	804.233
38.096	13.225	1048.310	803.773
39.111	13.182	1047.819	803.118
40.126	13.159	1046.374	801.826
41.140	13.010	1045.161	800.105
42.155	13.096	1044.527	799.966
43.169	12.872	1043.348	797.905
44.184	12.979	1041.928	797.269
45.199	12.972	1041.185	796.592
46.213	13.049	1039.681	795.747
47.228	13.050	1038.858	795.047
48.242	12.997	1038.031	794.091
49.257	13.031	1036.944	793.352
50.271	13.056	1036.022	792.694
51.286	13.147	1035.235	792.460
52.301	13.088	1034.113	791.249
53.315	13.027	1033.184	790.178
54.330	12.946	1032.664	789.322
55.344	13.004	1031.650	788.752
56.359	13.087	1030.617	788.292
57.374	12.964	1029.595	786.850
58.388	12.982	1028.660	786.153
59.403	12.942	1027.525	785.028
60.417	12.927	1026.864	784.379
61.432	12.858	1026.490	783.700
62.447	12.881	1025.644	783.092
63.461	12.734	1025.093	781.902
64.476	12.931	1023.738	781.736
65.490	12.837	1023.222	780.825
66.505	12.895	1022.558	780.526
67.520	12.984	1021.655	780.187
68.534	13.047	1020.994	779.911
69.549	12.965	1020.281	778.913
70.563	12.802	1019.626	777.573
71.578	12.918	1018.962	777.545
72.593	12.745	1018.266	776.130
73.607	12.767	1017.532	775.606
74.622	12.838	1016.793	775.309
75.636	12.850	1016.219	774.859
76.651	12.888	1015.002	774.037
77.666	12.832	1014.748	773.512
78.680	12.816	1014.336	773.057
79.695	12.875	1013.253	772.439
80.709	12.947	1012.627	772.229
81.724	13.002	1011.892	771.860
82.739	13.037	1011.039	771.306
83.753	13.153	1010.076	771.041
84.768	13.095	1009.429	770.208
85.782	13.225	1008.298	769.882
86.797	13.116	1007.365	768.597
87.812	13.092	1006.777	767.968
88.826	13.103	1005.696	767.126
89.841	13.032	1005.026	766.216
90.855	13.162	1004.104	766.048
91.870	13.209	1003.223	765.528
92.884	13.177	1002.532	764.787
93.899	13.210	1001.730	764.257
94.914	13.123	1000.907	763.162
95.928	13.298	999.955	763.173
96.943	13.104	999.216	761.650
97.957	13.103	998.768	761.235
98.972	13.123	997.553	760.334
99.987	13.189	996.392	759.687
101.001	13.112	995.888	758.881
102.016	13.172	994.779	758.245
103.030	13.154	993.964	757.473
104.045	13.181	993.134	756.898
105.060	13.164	992.272	756.097
106.074	13.051	991.159	754.665
107.089	13.074	989.912	753.751
108.103	13.088	989.159	753.177
109.118	12.952	988.533	752.011
110.133	13.001	987.362	751.280
111.147	13.037	986.820	750.961
112.162	12.906	986.111	749.760
113.176	13.149	985.324	750.200
114.191	13.068	984.894	749.438
115.206	13.111	983.816	748.747
116.220	13.178	982.847	748.247
117.235	13.036	982.176	747.028
118.249	13.062	981.352	746.454
119.264	13.103	980.616	746.013
120.279	13.057	979.589	744.957
121.293	13.003	978.919	744.136
122.308	13.039	977.629	743.255
123.322	13.040	976.865	742.611
124.337	13.087	976.154	742.217
125.352	13.026	974.907	740.928
126.366	13.007	973.914	740.024
127.381	12.978	973.165	739.257
128.395	13.038	972.096	738.648
129.410	12.993	971.020	737.565
130.424	13.053	970.398	737.298
131.439	13.177	969.912	737.413
132.454	13.160	969.005	736.587
133.468	13.214	968.121	736.086
134.483	13.245	966.634	735.030
135.497	13.142	966.328	734.277
136.512	13.161	965.993	734.039
137.527	13.216	964.697	733.236
138.541	13.123	963.969	732.204
139.556	13.201	963.342	732.010
140.570	13.274	962.726	731.798
141.585	13.296	961.864	731.174
142.600	13.322	960.933	730.520
143.614	13.316	960.414	730.031
144.629	13.318	959.196	729.053
145.643	13.357	958.050	728.288
146.658	13.262	956.941	726.963
147.673	13.259	956.291	726.393
148.687	13.114	955.476	725.071
149.702	13.193	954.247	724.422
150.716	13.080	953.923	723.615
151.731	13.148	953.049	723.184
152.746	13.187	952.534	722.903
153.760	13.273	951.705	722.586
154.775	13.279	951.271	722.215
155.789	13.349	950.877	722.159
156.804	13.365	950.107	721.582
157.819	13.374	949.443	721.053
158.833	13.468	948.639	720.785
159.848	13.415	947.684	719.767
160.862	13.405	946.577	718.818
161.877	13.360	945.634	717.845
162.892	13.323	944.978	717.123
163.906	13.323	943.951	716.278
164.921	13.382	943.294	715.974
165.935	13.321	942.831	715.292
166.950	13.270	941.477	713.983
167.964	13.306	940.813	713.570
168.979	13.302	939.881	712.785
169.994	13.332	939.151	712.299
171.008	13.356	938.540	711.872
172.023	13.382	938.073	711.571
173.037	13.629	936.863	711.647
174.052	13.519	936.483	710.824
175.067	13.313	936.002	709.515
176.081	13.478	935.150	709.513
177.096	13.384	934.691	708.700
178.110	13.465	933.796	708.303
179.125	13.534	933.368	708.210
180.140	13.474	932.506	707.240
181.154	13.569	932.277	707.409
182.169	13.520	932.281	707.138
183.183	13.596	931.104	706.508
184.198	13.654	930.482	706.220
185.213	13.627	930.026	705.696
186.227	13.645	929.062	704.977
187.242	13.752	928.357	704.836
188.256	13.636	927.873	703.914
189.271	13.700	927.157	703.579
190.286	13.616	926.291	702.505
191.300	13.523	925.462	701.420
192.315	13.469	925.087	700.846
193.329	13.427	924.703	700.315
194.344	13.629	923.658	700.313
195.359	13.627	923.361	700.018
196.373	13.650	922.606	699.484
197.388	13.686	922.323	699.358
198.402	13.847	921.419	699.289
199.417	13.902	921.049	699.177
200.432	13.879	920.607	698.681
201.446	14.004	920.176	698.820
202.461	13.954	919.453	697.999
203.475	14.060	918.906	697.966
204.490	13.984	917.983	696.884
205.504	13.866	917.546	695.997
206.519	13.751	916.884	694.952
207.534	13.812	915.695	694.244
208.548	13.824	915.457	694.054
209.563	13.922	914.786	693.894
210.577	13.924	914.156	693.359
211.592	13.975	913.323	692.882
212.607	14.051	912.395	692.432
213.621	14.091	911.571	691.910
214.636	14.036	911.000	691.188
215.650	14.117	910.302	690.934
216.665	14.097	909.798	690.409
217.680	14.096	909.476	690.097
218.694	14.108	908.567	689.398
219.709	14.175	907.617	688.893
220.723	14.182	907.397	688.694
221.738	14.090	906.604	687.651
222.753	14.154	906.453	687.741
223.767	14.150	905.712	687.100
224.782	14.370	904.682	687.167
225.796	14.176	904.535	686.193
226.811	14.246	903.868	685.913
227.826	14.168	903.163	684.997
228.840	14.197	902.090	684.242
229.855	14.181	901.221	683.457
230.869	14.206	900.645	683.062
231.884	14.264	900.113	682.837
232.899	14.192	899.369	681.916
233.913	14.260	898.457	681.443
234.928	14.264	897.956	681.019
235.942	14.194	897.519	680.340
236.957	14.116	897.240	679.752
237.972	14.281	896.298	679.651
238.986	14.212	895.740	678.885
240.001	14.191	895.290	678.398
241.015	14.223	894.489	677.864
242.030	14.281	893.933	677.616
243.045	14.424	893.189	677.574
244.059	14.368	892.662	676.886
245.074	14.364	891.897	676.229
246.088	14.368	891.431	675.835
247.103	14.498	890.677	675.731
248.117	14.388	890.397	675.011
249.132	14.530	889.667	674.972
250.147	14.652	888.674	674.652
251.161	14.743	887.915	674.385
252.176	14.769	887.402	674.041
253.190	14.666	886.997	673.259
254.205	14.662	886.341	672.686
255.220	14.699	885.756	672.329
256.234	14.841	884.880	672.178
257.249	14.725	884.422	671.304
258.263	14.783	883.438	670.729
259.278	14.762	882.711	670.034
260.293	14.803	882.301	669.826
261.307	14.878	881.902	669.765
262.322	14.821	881.204	668.948
263.336	14.961	880.211	668.697
264.351	15.087	879.447	668.557
265.366	14.992	879.272	667.988
266.380	14.878	878.548	666.922
267.395	14.815	877.918	666.137
268.409	14.921	877.060	665.848
269.424	14.944	876.207	665.234
270.439	14.945	875.557	664.682
271.453	15.014	874.917	664.413
272.468	14.979	874.671	664.030
273.482	14.850	874.014	662.960
274.497	14.958	873.272	662.768
275.512	14.991	872.932	662.580
276.526	15.025	872.323	662.193
277.541	15.082	871.553	661.777
278.555	14.997	871.324	661.209
279.570	15.162	870.457	661.143
280.585	15.057	869.807	660.175
281.599	15.149	868.723	659.659
282.614	15.121	868.142	659.049
283.628	15.086	867.943	658.700
284.643	15.104	867.180	658.132
285.657	15.165	866.396	657.721
286.672	15.146	865.921	657.227
287.687	15.238	864.960	656.799
288.701	15.268	864.595	656.583
289.716	15.190	864.240	655.948
290.730	15.247	863.602	655.631
291.745	15.256	862.927	655.095
292.760	15.245	862.478	654.652
293.774	15.234	861.982	654.176
294.789	15.249	861.183	653.569
295.803	15.286	860.461	653.109
296.818	15.363	859.701	652.773
297.833	15.469	858.792	652.436
298.847	15.410	858.384	651.841
299.862	15.291	858.044	651.061
300.876	15.399	857.415	650.947
301.891	15.576	856.888	651.174
302.906	15.505	856.270	650.373
303.920	15.711	855.627	650.622
304.935	15.619	855.479	650.097
305.949	15.509	854.678	649.005
306.964	15.562	854.037	648.667
307.979	15.649	853.399	648.461
308.993	15.531	853.180	647.781
310.008	15.570	852.429	647.305
311.022	15.569	851.715	646.700
312.037	15.549	851.561	646.451
313.052	15.600	850.640	645.890
314.066	15.439	850.022	644.745
315.081	15.432	849.591	644.335
316.095	15.488	848.987	644.033
317.110	15.557	848.453	643.838
318.125	15.577	848.064	643.561
319.139	15.549	847.907	643.276
320.154	15.556	847.058	642.603
321.168	15.694	846.357	642.543
322.183	15.686	845.955	642.148
323.197	15.713	845.495	641.848
324.212	15.782	844.795	641.523
325.227	15.715	844.153	640.723
326.241	15.690	843.508	640.082
327.256	15.677	843.029	639.609
328.270	15.817	842.137	639.409
329.285	15.761	841.839	638.912
330.300	15.689	841.616	638.414
331.314	15.743	840.840	637.976
332.329	15.710	840.333	637.407
333.343	15.714	840.243	637.296
334.358	15.908	839.495	637.411
335.373	15.887	839.345	637.158
336.387	15.889	839.105	636.928
337.402	15.900	838.814	636.694
338.416	15.894	838.758	636.572
339.431	15.878	837.828	635.749
340.446	16.007	837.384	635.842
341.460	16.032	837.186	635.729
342.475	16.002	836.626	635.136
343.489	15.964	836.448	634.799
344.504	16.217	835.244	634.784
345.519	16.255	834.967	634.659
346.533	16.256	834.701	634.406
347.548	16.177	834.079	633.580
348.562	15.906	833.585	632.132
349.577	15.950	833.026	631.816
350.592	16.146	832.605	632.174
351.606	16.074	831.869	631.291
352.621	16.151	830.933	630.814
353.635	16.120	830.420	630.253
354.650	16.207	829.538	629.852
355.665	16.253	828.971	629.537
356.679	16.256	828.658	629.252
357.694	16.252	827.788	628.522
358.708	16.349	827.020	628.244
359.723	16.208	826.628	627.368
360.738	16.287	826.345	627.392
361.752	16.313	825.521	626.807
362.767	16.399	824.846	626.559
363.781	16.325	824.717	626.130
364.796	16.380	824.470	626.090
365.810	16.442	823.931	625.853
366.825	16.452	823.479	625.495
367.840	16.424	823.034	624.995
368.854	16.433	822.653	624.684
369.869	16.534	822.095	624.578
370.883	16.422	821.830	623.908
371.898	16.559	821.299	623.958
372.913	16.673	820.646	623.826
373.927	16.594	820.559	623.414
374.942	16.534	820.109	622.794
375.956	16.508	819.749	622.370
376.971	16.579	819.238	622.190
377.986	16.632	818.401	621.693
379.000	16.892	817.863	622.182
380.015	16.794	817.351	621.380
381.029	16.817	816.546	620.798
382.044	16.704	816.412	620.227
383.059	16.833	815.717	620.115
384.073	16.657	815.176	619.004
385.088	16.803	814.612	619.054
386.102	16.734	813.911	618.217
387.117	16.828	813.582	618.255
388.132	16.831	813.191	617.915
389.146	16.767	812.297	616.945
390.161	16.893	812.005	617.129
391.175	16.805	811.563	616.420
392.190	16.936	810.924	616.355
393.205	16.760	810.672	615.470
394.219	16.735	810.220	614.980
395.234	16.963	809.425	615.148
396.248	16.810	809.383	614.511
397.263	16.698	809.170	613.888
398.278	16.782	808.693	613.774
399.292	16.713	808.156	613.062
400.307	16.689	807.825	612.671
401.321	16.725	807.085	612.185
402.336	16.748	806.933	612.100
403.350	16.984	806.069	612.241
404.365	16.952	805.530	611.661
405.380	17.057	805.166	611.710
406.394	16.961	804.994	611.179
407.409	17.120	804.378	611.229
408.423	17.193	804.133	611.252
409.438	17.200	803.617	610.831
410.453	17.229	803.506	610.798
411.467	17.205	802.730	610.066
412.482	17.235	802.557	609.990
413.496	17.274	802.023	609.670
414.511	17.282	801.510	609.256
415.526	17.206	801.169	608.669
416.540	17.148	800.598	607.972
417.555	17.255	799.967	607.822
418.569	17.338	799.933	608.041
419.584	17.386	799.091	607.519
420.599	17.260	799.053	606.986
421.613	102.656	1282.573	1436.384
422.628	88.075	1353.009	1436.494
