DTS Sentinel unit serial number:	SN413079Multiplexer serial number:	ORYXHardware model number:	OX4-SRSoftware version number:	ORYX F/W v4.00 Oryx Data Collector v3.7.2.0data status	okinstallation	princeton_trtdifferential loss correction	single-endedforward channel	channel 1reverse channel	N/Adate	2019/09/13time	07:14:35forward acquisition time	60.00reverse acquisition time	0.00gamma	496.2192k internal	0.2335k external	0.2335temperature offset calibration	1.0157default loss term (dB/km)	0.3790temperature slope calibration	1.0000multiplexer offset coefficient	1.0000multiplexer slope coefficient	1.0000fibre end	0.00T internal ref (°C)	26.06T ext. ref 1 (°C)	4.14T ext. ref 2 (°C)	21.42length (m)	temperature (°C)	Stokes	anti-Stokes-747.200	800.000	0.048	-0.192
-746.185	-76.329	-0.179	-0.063
-745.171	-95.848	0.026	0.007
-744.156	-200.000	-0.049	0.559
-743.142	-121.465	-0.073	0.012
-742.127	-200.000	-0.038	0.364
-741.112	-200.000	0.025	0.188
-740.098	400.557	0.225	0.475
-739.083	671.205	0.106	0.275
-738.069	800.000	-0.073	0.251
-737.054	800.000	0.074	-0.209
-736.039	41.769	-0.111	-0.101
-735.025	-155.694	0.327	-0.021
-734.010	-100.006	-0.482	-0.121
-732.996	9.314	-0.307	-0.233
-731.981	-200.000	-0.006	-0.156
-730.966	103.818	-0.106	-0.125
-729.952	-200.000	-0.046	-0.429
-728.937	15.181	-0.075	-0.059
-727.923	-200.000	-0.007	-0.057
-726.908	-83.916	0.324	-0.103
-725.894	574.889	0.082	0.200
-724.879	-109.654	-0.369	-0.078
-723.864	46.231	-0.236	0.219
-722.850	-140.964	-0.370	0.038
-721.835	-144.860	-0.169	-0.016
-720.821	173.276	-0.167	-0.242
-719.806	-200.000	0.055	0.375
-718.791	26.799	-0.263	0.221
-717.777	405.419	-0.080	0.169
-716.762	-200.000	-0.021	-0.193
-715.748	193.305	0.077	-0.117
-714.733	249.494	0.061	0.104
-713.718	50.160	-0.138	0.131
-712.704	-77.400	0.279	0.097
-711.689	9.455	0.228	-0.173
-710.675	-57.607	0.096	0.042
-709.660	46.852	0.134	0.125
-708.645	-200.000	-0.008	-0.062
-707.631	-200.000	0.033	-0.304
-706.616	800.000	0.091	-0.334
-705.602	-200.000	-0.021	-0.216
-704.587	-76.515	-0.175	0.062
-703.572	3.182	-0.517	-0.377
-702.558	-112.242	0.298	0.060
-701.543	183.984	-0.010	0.016
-700.529	-116.670	0.124	0.023
-699.514	-86.793	0.120	0.037
-698.499	319.561	0.059	-0.113
-697.485	6.262	-0.064	-0.048
-696.470	800.000	-0.147	-0.409
-695.456	479.203	-0.041	0.094
-694.441	-200.000	-0.037	0.236
-693.426	213.886	0.122	0.194
-692.412	-64.541	0.191	0.078
-691.397	-200.000	0.004	0.020
-690.383	-200.000	0.014	-0.134
-689.368	2.684	0.103	0.075
-688.354	698.234	-0.034	-0.089
-687.339	124.216	-0.111	-0.140
-686.324	25.062	-0.220	0.183
-685.310	-102.298	-0.281	0.068
-684.295	-101.666	-0.133	0.032
-683.281	-31.664	-0.059	-0.033
-682.266	-0.540	-0.084	-0.060
-681.251	49.094	0.066	0.062
-680.237	-121.472	0.094	-0.016
-679.222	166.627	0.071	-0.101
-678.208	800.000	0.070	0.207
-677.193	134.096	-0.184	0.239
-676.178	800.000	-0.038	0.152
-675.164	-171.788	-0.115	-0.004
-674.149	-31.971	0.171	0.096
-673.135	-200.000	-0.028	0.153
-672.120	275.037	0.159	-0.283
-671.105	450.571	0.121	0.268
-670.091	19.532	-0.201	0.162
-669.076	487.921	0.075	-0.171
-668.062	57.458	0.087	-0.085
-667.047	-31.122	-0.311	0.176
-666.032	800.000	-0.017	-0.068
-665.018	108.984	-0.131	-0.157
-664.003	319.369	0.110	0.209
-662.989	80.434	0.096	-0.104
-661.974	-131.423	-0.203	-0.027
-660.959	-200.000	0.008	-0.122
-659.945	-200.000	0.024	-0.243
-658.930	-92.023	0.159	0.045
-657.916	182.660	-0.352	-0.520
-656.901	-1.893	0.044	0.031
-655.886	-190.986	-0.175	0.002
-654.872	-108.411	0.252	-0.054
-653.857	-198.204	-0.323	-0.002
-652.843	159.644	0.063	-0.088
-651.828	-169.409	-0.228	0.008
-650.814	800.000	0.050	0.164
-649.799	-200.000	0.008	0.098
-648.784	334.400	0.114	0.220
-647.770	800.000	0.072	-0.235
-646.755	-83.100	-0.053	-0.017
-645.741	-47.191	-0.031	-0.015
-644.726	21.093	0.237	0.192
-643.711	94.569	-0.219	-0.249
-642.697	712.439	-0.060	-0.158
-641.682	-200.000	-0.004	0.146
-640.668	-102.912	-0.468	-0.111
-639.653	568.310	-0.214	-0.520
-638.638	-50.932	0.157	-0.074
-637.624	-54.851	0.188	0.085
-636.609	-40.635	-0.224	-0.116
-635.595	800.000	0.029	0.088
-634.580	-132.855	-0.257	-0.033
-633.565	-200.000	0.023	-0.260
-632.551	-30.275	-0.271	-0.154
-631.536	-35.989	0.335	-0.181
-630.522	-54.787	0.162	0.073
-629.507	-108.466	-0.167	-0.036
-628.492	-23.582	-0.384	-0.230
-627.478	43.054	0.054	-0.049
-626.463	-200.000	0.008	-0.142
-625.449	370.331	-0.136	0.276
-624.434	535.598	-0.057	0.135
-623.419	-114.050	0.136	0.026
-622.405	125.525	0.094	-0.119
-621.390	52.872	0.162	-0.155
-620.376	-200.000	0.008	0.049
-619.361	800.000	-0.042	0.156
-618.346	58.375	0.130	0.127
-617.332	692.555	-0.059	0.155
-616.317	-37.908	0.293	0.156
-615.303	-200.000	-0.021	0.182
-614.288	-53.974	-0.189	0.086
-613.273	-200.000	0.003	0.362
-612.259	-137.328	-0.331	0.038
-611.244	-191.434	-0.305	-0.003
-610.230	-91.374	0.092	0.026
-609.215	-48.755	-0.143	0.068
-608.201	627.716	0.121	0.306
-607.186	53.534	0.126	0.121
-606.171	-3.877	0.214	0.148
-605.157	-200.000	0.001	0.339
-604.142	116.408	0.135	0.165
-603.128	-11.949	0.201	-0.132
-602.113	-200.000	-0.012	-0.105
-601.098	324.871	-0.078	0.149
-600.084	800.000	0.117	0.428
-599.069	278.417	0.026	0.046
-598.055	-31.717	0.243	0.136
-597.040	187.348	0.159	0.237
-596.025	800.000	0.021	-0.065
-595.011	-19.313	-0.320	-0.198
-593.996	132.776	0.405	0.522
-592.982	-73.605	-0.140	-0.051
-591.967	464.744	-0.180	-0.403
-590.952	-153.381	0.019	-0.001
-589.938	-200.000	0.005	-0.052
-588.923	800.000	0.038	0.164
-587.909	59.580	-0.106	0.104
-586.894	-200.000	0.016	-0.155
-585.879	-36.909	0.284	0.152
-584.865	-9.699	-0.041	0.028
-583.850	82.733	0.119	-0.129
-582.836	-200.000	0.007	-0.144
-581.821	-200.000	-0.051	-0.316
-580.806	-127.906	0.105	0.015
-579.792	398.297	-0.080	-0.166
-578.777	-200.000	-0.012	0.146
-577.763	612.819	0.065	-0.161
-576.748	157.343	-0.169	-0.234
-575.733	83.661	-0.217	-0.236
-574.719	37.600	0.122	-0.108
-573.704	-109.283	0.097	0.021
-572.690	-200.000	0.038	0.174
-571.675	173.314	0.235	-0.338
-570.661	800.000	-0.087	0.264
-569.646	800.000	-0.084	0.326
-568.631	286.178	-0.028	0.051
-567.617	99.863	-0.398	-0.460
-566.602	65.823	0.374	-0.378
-565.588	123.351	0.178	0.222
-564.573	253.381	0.052	0.089
-563.558	42.593	-0.127	0.115
-562.544	-200.000	0.011	-0.069
-561.529	-44.532	0.097	-0.048
-560.515	-131.062	-0.242	-0.032
-559.500	-200.000	0.022	0.132
-558.485	25.286	-0.103	-0.085
-557.471	-1.591	-0.215	-0.151
-556.456	-36.177	-0.017	0.009
-555.442	-9.283	-0.199	0.133
-554.427	-41.130	-0.241	-0.124
-553.412	-200.000	0.026	-0.187
-552.398	-76.888	-0.218	0.076
-551.383	-57.810	0.236	-0.103
-550.369	40.449	0.355	-0.319
-549.354	191.339	-0.223	0.335
-548.339	800.000	-0.072	-0.314
-547.325	-150.625	-0.370	0.028
-546.310	-200.000	-0.016	0.188
-545.296	47.919	-0.125	0.116
-544.281	15.800	-0.373	0.293
-543.266	-41.219	0.192	-0.099
-542.252	-49.244	-0.181	-0.086
-541.237	-63.546	-0.113	-0.046
-540.223	-41.884	0.151	0.077
-539.208	25.780	0.349	-0.290
-538.193	-77.635	0.210	-0.072
-537.179	800.000	0.041	0.178
-536.164	411.316	-0.063	-0.133
-535.150	-200.000	-0.011	0.268
-534.135	-54.984	0.223	-0.100
-533.121	-56.906	0.136	0.060
-532.106	-54.703	-0.206	-0.093
-531.091	-200.000	-0.026	-0.121
-530.077	90.304	-0.162	-0.181
-529.062	-162.771	-0.136	0.007
-528.048	214.639	-0.078	0.123
-527.033	-59.396	0.190	-0.081
-526.018	163.308	-0.120	0.168
-525.004	-200.000	0.010	0.194
-523.989	-170.009	0.118	0.004
-522.975	-152.484	-0.151	0.011
-521.960	425.658	-0.023	0.049
-520.945	800.000	0.100	-0.309
-519.931	-200.000	-0.001	0.302
-518.916	-114.621	0.129	-0.025
-517.902	-161.669	0.090	-0.005
-516.887	56.873	0.025	0.024
-515.872	624.447	0.107	-0.268
-514.858	-200.000	0.027	-0.155
-513.843	-200.000	0.003	0.123
-512.829	-111.850	0.215	-0.043
-511.814	800.000	0.028	-0.109
-510.799	-33.130	0.021	-0.011
-509.785	-96.378	-0.230	0.061
-508.770	-178.776	-0.154	-0.003
-507.756	-44.675	0.150	-0.075
-506.741	94.785	0.140	-0.159
-505.726	-15.495	0.100	0.064
-504.712	-200.000	-0.003	0.205
-503.697	-54.611	-0.055	0.025
-502.683	-38.348	-0.076	-0.040
-501.668	-117.955	-0.326	-0.058
-500.653	-46.638	-0.135	-0.066
-499.639	-200.000	-0.021	-0.396
-498.624	-75.584	0.301	0.107
-497.610	-78.801	0.354	-0.120
-496.595	279.783	-0.121	0.216
-495.581	19.647	-0.181	-0.145
-494.566	-54.380	0.269	-0.121
-493.551	800.000	0.055	-0.223
-492.537	43.918	0.280	0.255
-491.522	-60.781	0.245	-0.103
-490.508	102.371	-0.249	0.290
-489.493	-200.000	0.045	-0.229
-488.478	183.704	0.025	-0.037
-487.464	35.195	-0.071	0.062
-486.449	-93.781	-0.123	-0.034
-485.435	311.562	0.077	-0.144
-484.420	-31.024	0.153	0.086
-483.405	-200.000	-0.014	-0.331
-482.391	178.142	-0.138	-0.201
-481.376	353.314	0.114	0.225
-480.362	58.102	-0.280	0.272
-479.347	98.425	0.046	0.052
-478.332	469.976	-0.042	0.093
-477.318	-78.120	-0.444	0.152
-476.303	800.000	0.121	0.477
-475.289	-200.000	0.029	0.194
-474.274	217.589	0.102	-0.162
-473.259	-145.960	0.200	-0.018
-472.245	-122.837	-0.255	0.041
-471.230	33.968	-0.060	-0.052
-470.216	39.159	0.150	-0.133
-469.201	-146.663	0.088	0.008
-468.186	800.000	0.168	0.539
-467.172	52.924	-0.350	0.333
-466.157	-200.000	-0.004	-0.177
-465.143	50.453	0.175	0.164
-464.128	58.243	0.097	0.095
-463.113	-200.000	-0.020	-0.531
-462.099	23.652	0.082	0.067
-461.084	-116.249	-0.023	0.004
-460.070	6.389	0.129	-0.095
-459.055	401.954	-0.058	0.121
-458.040	-12.176	-0.067	0.043
-457.026	50.100	-0.184	0.173
-456.011	-86.800	-0.125	0.038
-454.997	-200.000	-0.007	0.078
-453.982	-104.309	-0.283	0.065
-452.968	-1.906	0.238	-0.166
-451.953	-200.000	0.030	-0.369
-450.938	-85.258	0.203	0.063
-449.924	-200.000	0.045	-0.245
-448.909	211.258	-0.101	0.158
-447.895	-14.432	-0.076	0.049
-446.880	-96.369	-0.062	-0.016
-445.865	-87.360	-0.133	-0.040
-444.851	-107.295	-0.315	-0.069
-443.836	-124.165	0.012	0.002
-442.822	-200.000	-0.002	0.077
-441.807	34.408	0.203	-0.176
-440.792	240.609	-0.173	0.286
-439.778	41.015	0.410	0.368
-438.763	27.346	0.229	-0.191
-437.749	-125.254	-0.111	-0.017
-436.734	-200.000	0.016	-0.249
-435.719	800.000	-0.066	0.198
-434.705	89.427	0.135	0.149
-433.690	-200.000	-0.008	-0.116
-432.676	333.861	-0.148	0.285
-431.661	800.000	-0.063	-0.262
-430.646	367.561	-0.055	-0.111
-429.632	40.075	-0.453	-0.404
-428.617	-200.000	0.055	-0.349
-427.603	-200.000	0.039	-0.421
-426.588	800.000	0.054	-0.220
-425.573	-64.921	-0.234	0.094
-424.559	-109.772	0.195	0.041
-423.544	190.194	-0.073	0.109
-422.530	-10.065	0.151	-0.099
-421.515	-131.337	0.379	-0.050
-420.500	-24.562	-0.098	0.058
-419.486	-200.000	0.037	-0.258
-418.471	-200.000	0.009	0.207
-417.457	647.077	-0.073	0.185
-416.442	800.000	-0.058	0.175
-415.428	-91.554	0.241	0.068
-414.413	347.180	0.035	-0.068
-413.398	-131.727	-0.294	-0.038
-412.384	467.258	0.087	-0.192
-411.369	-200.000	0.021	-0.295
-410.355	-21.442	0.261	-0.158
-409.340	79.561	-0.037	-0.040
-408.325	114.182	0.286	-0.346
-407.311	-90.526	-0.283	0.081
-406.296	345.357	0.238	-0.463
-405.282	40.871	-0.121	0.108
-404.267	-200.000	0.041	0.215
-403.252	-200.000	0.022	-0.180
-402.238	114.246	0.086	0.104
-401.223	2.388	0.171	0.122
-400.209	800.000	-0.048	-0.146
-399.194	35.762	0.174	-0.152
-398.179	800.000	0.044	-0.154
-397.165	-28.650	0.026	-0.015
-396.150	-9.197	-0.382	0.253
-395.136	-32.841	-0.197	-0.109
-394.121	13.777	-0.131	0.101
-393.106	186.598	-0.192	-0.283
-392.092	-70.650	-0.402	0.151
-391.077	-67.800	0.340	-0.132
-390.063	-101.816	-0.405	0.097
-389.048	-81.826	0.241	0.078
-388.033	-127.631	0.170	0.024
-387.019	-200.000	-0.047	0.211
-386.004	-30.857	-0.365	0.204
-384.990	-10.662	0.289	-0.190
-383.975	-200.000	-0.041	-0.336
-382.960	44.110	0.092	-0.084
-381.946	-128.812	0.283	-0.039
-380.931	627.642	0.051	-0.128
-379.917	124.230	-0.195	-0.243
-378.902	-149.257	0.131	-0.010
-377.888	-5.790	-0.351	0.238
-376.873	-79.231	0.238	-0.080
-375.858	-28.585	-0.194	0.111
-374.844	-145.624	0.237	-0.021
-373.829	-9.804	-0.048	0.032
-372.815	-200.000	0.001	-0.169
-371.800	104.494	-0.160	0.187
-370.785	6.832	-0.166	0.122
-369.771	74.477	-0.218	0.227
-368.756	30.948	0.300	-0.254
-367.742	-200.000	-0.023	-0.281
-366.727	466.942	-0.042	0.093
-365.712	-97.041	0.144	-0.037
-364.698	-120.631	-0.118	-0.020
-363.683	187.250	-0.121	0.179
-362.669	485.518	0.148	-0.334
-361.654	3.843	0.176	0.127
-360.639	-13.275	0.095	0.061
-359.625	72.100	-0.211	0.217
-358.610	-90.329	-0.182	-0.052
-357.596	139.064	0.130	0.169
-356.581	3.397	-0.160	0.115
-355.566	-58.109	0.156	-0.067
-354.552	-112.988	-0.073	0.014
-353.537	800.000	0.057	-0.239
-352.523	226.642	0.156	0.250
-351.508	-59.401	0.153	0.065
-350.493	-73.413	-0.113	-0.041
-349.479	-50.401	0.156	0.073
-348.464	-200.000	-0.004	-0.027
-347.450	-200.000	-0.019	-0.153
-346.435	-115.411	-0.128	-0.024
-345.420	37.095	0.354	0.310
-344.406	-200.000	-0.017	-0.150
-343.391	-62.286	-0.110	0.045
-342.377	-21.862	-0.103	-0.062
-341.362	-98.664	-0.147	0.037
-340.348	248.607	0.197	0.330
-339.333	-101.324	-0.211	0.051
-338.318	9.482	0.126	-0.095
-337.304	800.000	0.021	-0.085
-336.289	-114.596	0.274	-0.052
-335.275	-24.926	0.227	-0.133
-334.260	-136.953	-0.221	-0.025
-333.245	125.712	-0.130	0.163
-332.231	163.161	0.164	-0.227
-331.216	-200.000	0.012	0.119
-330.202	146.142	-0.128	-0.170
-329.187	-118.550	-0.255	0.045
-328.172	-126.436	-0.141	0.021
-327.158	-36.344	0.427	-0.227
-326.143	-27.425	-0.114	0.065
-325.129	177.198	0.043	0.062
-324.114	800.000	0.025	-0.101
-323.099	-168.806	-0.236	0.009
-322.085	-200.000	0.028	0.316
-321.070	800.000	0.105	-0.334
-320.056	618.691	-0.157	-0.389
-319.041	296.622	0.152	-0.275
-318.026	12.238	0.105	0.080
-317.012	-86.912	0.182	-0.055
-315.997	-163.637	-0.317	0.015
-314.983	-54.878	-0.123	-0.055
-313.968	585.499	0.224	0.544
-312.953	800.000	0.069	0.251
-311.939	86.048	0.216	0.235
-310.924	-110.322	0.119	0.025
-309.910	-54.350	0.224	0.100
-308.895	345.746	0.144	-0.279
-307.880	-33.963	0.158	0.086
-306.866	-200.000	0.008	0.113
-305.851	-70.978	-0.356	-0.132
-304.837	-120.466	0.131	-0.022
-303.822	-124.133	-0.136	-0.021
-302.807	-98.929	0.196	0.049
-301.793	-200.000	0.023	0.130
-300.778	800.000	0.151	0.423
-299.764	800.000	0.042	-0.155
-298.749	348.384	-0.051	-0.100
-297.735	-102.437	0.076	-0.018
-296.720	137.721	0.049	0.063
-295.705	385.138	-0.053	-0.108
-294.691	-172.469	-0.262	0.008
-293.676	39.522	-0.156	0.138
-292.662	-88.639	0.148	0.044
-291.647	-154.439	-0.203	-0.013
-290.632	528.945	-0.136	-0.318
-289.618	-76.952	-0.231	0.080
-288.603	515.507	0.056	0.129
-287.589	-200.000	0.035	0.322
-286.574	-113.177	0.047	-0.009
-285.559	224.446	-0.089	-0.142
-284.545	0.194	-0.135	0.095
-283.530	-200.000	0.009	0.219
-282.516	81.083	-0.031	0.033
-281.501	141.295	-0.070	-0.091
-280.486	8.094	0.199	0.147
-279.472	-200.000	-0.079	-0.437
-278.457	-82.075	-0.212	-0.068
-277.443	202.270	0.085	-0.130
-276.428	800.000	-0.080	0.226
-275.413	-79.652	-0.056	0.019
-274.399	-129.002	0.218	-0.030
-273.384	-157.456	-0.472	0.028
-272.370	-76.165	-0.109	0.038
-271.355	200.295	-0.138	0.208
-270.340	-35.383	0.120	0.064
-269.326	-88.451	0.068	0.020
-268.311	800.000	-0.040	-0.169
-267.297	800.000	-0.076	-0.300
-266.282	-65.589	0.137	0.054
-265.267	75.649	-0.111	-0.116
-264.253	58.298	0.112	0.108
-263.238	22.068	-0.220	-0.177
-262.224	372.348	0.109	-0.217
-261.209	-77.141	0.296	-0.102
-260.195	-93.701	-0.284	0.077
-259.180	-200.000	-0.003	-0.027
-258.165	320.711	0.172	-0.322
-257.151	148.127	0.023	0.031
-256.136	-200.000	-0.037	-0.168
-255.122	15.474	0.209	-0.162
-254.107	-188.154	-0.121	0.002
-253.092	-200.000	0.035	-0.181
-252.078	50.090	-0.190	0.177
-251.063	543.698	-0.028	0.066
-250.049	307.766	0.087	0.159
-249.034	800.000	-0.013	0.036
-248.019	573.085	-0.112	-0.270
-247.005	320.075	0.130	0.243
-245.990	263.598	0.218	0.374
-244.976	194.983	-0.170	0.254
-243.961	180.547	-0.035	-0.050
-242.946	-200.000	-0.024	0.211
-241.932	450.360	0.160	-0.349
-240.917	104.430	0.098	0.113
-239.903	147.658	-0.235	-0.312
-238.888	766.282	0.096	-0.258
-237.873	-200.000	-0.014	0.088
-236.859	800.000	-0.108	-0.356
-235.844	32.126	-0.025	-0.022
-234.830	-200.000	0.032	-0.304
-233.815	6.833	0.370	0.272
-232.800	167.999	0.236	0.331
-231.786	-103.140	-0.243	0.057
-230.771	-116.884	0.322	-0.058
-229.757	32.089	0.254	-0.216
-228.742	-105.412	0.026	0.006
-227.727	347.325	0.081	0.158
-226.713	287.929	0.154	-0.274
-225.698	400.854	0.152	0.315
-224.684	-200.000	-0.016	0.240
-223.669	392.199	0.060	0.122
-222.655	-113.441	-0.117	0.023
-221.640	-200.000	0.003	-0.110
-220.625	-87.055	-0.234	-0.070
-219.611	24.239	-0.171	-0.139
-218.596	-113.381	0.133	0.026
-217.582	121.632	-0.033	0.041
-216.567	110.020	0.196	0.232
-215.552	-200.000	-0.080	-0.446
-214.538	-36.989	0.194	0.102
-213.523	-138.474	-0.168	-0.018
-212.509	-40.777	-0.301	0.153
-211.494	221.045	0.152	0.240
-210.479	-129.261	-0.196	0.027
-209.465	-200.000	-0.065	0.379
-208.450	-140.643	-0.197	-0.020
-207.436	149.541	-0.143	0.190
-206.421	-200.000	0.032	0.184
-205.406	-104.655	0.238	0.054
-204.392	-140.011	-0.221	-0.023
-203.377	-51.484	-0.290	-0.133
-202.363	15.435	-0.043	-0.033
-201.348	-32.574	-0.158	-0.087
-200.333	-133.802	-0.275	0.034
-199.319	-136.269	0.245	-0.028
-198.304	441.115	0.174	-0.375
-197.290	-125.323	0.176	0.026
-196.275	-91.749	0.234	-0.065
-195.260	119.919	0.249	0.303
-194.246	-200.000	0.026	0.256
-193.231	-97.248	-0.343	-0.088
-192.217	392.014	0.116	0.236
-191.202	-4.911	-0.087	0.059
-190.187	-108.864	0.524	0.110
-189.173	341.891	-0.135	-0.259
-188.158	-127.756	-0.137	-0.019
-187.144	110.585	0.218	0.258
-186.129	-200.000	-0.048	0.421
-185.114	-97.033	-0.184	-0.047
-184.100	-92.265	-0.143	-0.040
-183.085	222.588	0.169	0.268
-182.071	-200.000	0.001	-0.187
-181.056	-61.241	0.166	-0.069
-180.042	-200.000	-0.046	0.490
-179.027	-144.733	-0.410	0.037
-178.012	-33.252	0.115	0.063
-176.998	-126.548	-0.277	0.040
-175.983	1.030	0.132	0.093
-174.969	39.157	0.153	-0.134
-173.954	-172.628	-0.248	0.008
-172.939	-65.630	0.326	0.129
-171.925	84.956	0.122	0.131
-170.910	131.935	-0.243	0.307
-169.896	-50.228	0.218	-0.101
-168.881	800.000	0.145	-0.422
-167.866	-136.410	-0.440	0.050
-166.852	-141.986	-0.281	0.028
-165.837	-53.478	0.158	-0.071
-164.823	-96.024	0.564	-0.147
-163.808	-95.274	-0.081	-0.021
-162.793	-95.533	-0.155	0.041
-161.779	289.255	-0.031	-0.056
-160.764	67.489	0.294	0.295
-159.750	-73.494	0.172	-0.062
-158.735	372.250	-0.022	0.043
-157.720	409.175	0.040	-0.084
-156.706	-109.990	0.049	0.010
-155.691	-162.611	-0.315	0.015
-154.677	-149.581	0.096	0.007
-153.662	119.006	-0.070	-0.084
-152.647	-167.976	0.126	-0.005
-151.633	132.862	-0.055	0.069
-150.618	297.025	-0.057	-0.103
-149.604	800.000	-0.017	0.046
-148.589	279.689	0.129	0.226
-147.574	380.045	0.068	-0.136
-146.560	-178.817	0.195	0.004
-145.545	420.301	-0.127	0.268
-144.531	-200.000	-0.014	-0.265
-143.516	-200.000	0.044	-0.279
-142.502	-112.879	0.278	0.054
-141.487	438.898	0.044	0.095
-140.472	-62.201	-0.109	0.045
-139.458	800.000	-0.056	-0.207
-138.443	236.203	0.080	-0.130
-137.429	340.959	0.102	0.195
-136.414	670.267	0.026	-0.067
-135.399	-24.361	-0.308	0.180
-134.385	800.000	0.080	0.285
-133.370	306.051	0.178	-0.324
-132.356	8.175	-0.088	-0.065
-131.341	13.462	0.046	0.035
-130.326	1.034	0.301	-0.212
-129.312	-64.739	-0.224	0.089
-128.297	46.467	-0.186	0.170
-127.283	-54.113	0.199	-0.089
-126.268	-113.582	0.332	0.064
-125.253	-161.972	0.059	0.003
-124.239	161.358	-0.173	0.237
-123.224	-70.069	-0.178	-0.066
-122.210	64.514	-0.129	0.128
-121.195	-200.000	0.021	-0.223
-120.180	-96.701	-0.232	-0.060
-119.166	649.264	0.091	-0.227
-118.151	-69.657	0.184	-0.069
-117.137	-72.439	0.221	-0.080
-116.122	-105.923	-0.316	-0.070
-115.107	-18.267	0.139	-0.085
-114.093	-200.000	0.043	0.252
-113.078	194.722	0.044	-0.066
-112.064	112.709	0.117	-0.139
-111.049	-200.000	-0.001	-0.605
-110.034	205.528	-0.127	0.193
-109.020	74.588	-0.098	0.100
-108.005	-200.000	-0.035	0.251
-106.991	2.263	0.197	0.140
-105.976	800.000	-0.058	-0.161
-104.962	-130.330	-0.053	0.007
-103.947	-200.000	-0.012	-0.287
-102.932	-155.167	-0.124	-0.008
-101.918	-185.781	-0.418	0.006
-100.903	687.206	0.118	-0.303
-99.889	82.398	-0.095	-0.101
-98.874	429.525	-0.128	-0.270
-97.859	-191.166	-0.387	0.004
-96.845	-200.000	0.208	-0.001
-95.830	116.073	0.262	0.314
-94.816	-200.000	-0.028	-0.162
-93.801	-200.000	-0.024	0.268
-92.786	302.207	0.263	-0.476
-91.772	-81.993	-0.106	-0.034
-90.757	-200.000	-0.008	0.159
-89.743	800.000	0.079	-0.255
-88.728	154.503	-0.199	0.267
-87.713	800.000	0.033	-0.140
-86.699	206.153	0.048	-0.073
-85.684	-200.000	0.048	0.283
-84.670	-95.600	0.107	-0.028
-83.655	74.359	-0.167	-0.172
-82.640	-198.127	0.167	-0.001
-81.626	-4.259	0.229	0.155
-80.611	38.413	0.152	-0.133
-79.597	-44.379	0.112	0.055
-78.582	13.597	-0.130	0.099
-77.567	-193.185	0.297	0.003
-76.553	800.000	0.054	0.170
-75.538	177.563	-0.163	0.232
-74.524	356.140	0.147	-0.287
-73.509	-200.000	-0.009	0.336
-72.494	471.302	-0.131	0.288
-71.480	39.208	0.260	0.228
-70.465	-76.493	-0.377	-0.130
-69.451	-18.971	0.233	0.142
-68.436	-1.213	0.395	0.273
-67.422	800.000	0.044	-0.188
-66.407	-200.000	0.033	-0.310
-65.392	412.333	0.175	0.364
-64.378	800.000	0.122	-0.368
-63.363	287.087	0.051	0.090
-62.349	236.425	0.216	0.350
-61.334	57.109	-1.104	-1.053
-60.319	219.711	0.413	0.647
-59.305	-200.000	-0.242	-1.044
-58.290	513.127	0.753	1.716
-57.276	800.000	0.557	1.536
-56.261	-200.000	118.417	650.989
-55.246	484.364	1557.669	3466.610
-54.232	173.563	2723.000	3841.725
-53.217	105.285	2154.838	2487.918
-52.203	37.745	1587.290	1378.311
-51.188	29.448	1330.054	1105.444
-50.173	26.603	1291.439	1056.733
-49.159	52.650	1350.722	1261.591
-48.144	50.767	1363.802	1262.524
-47.130	29.544	1317.523	1095.424
-46.115	26.151	1299.661	1060.635
-45.100	26.019	1294.394	1055.524
-44.086	25.891	1292.139	1052.895
-43.071	25.852	1289.695	1050.633
-42.057	25.950	1287.373	1049.272
-41.042	25.928	1286.199	1048.143
-40.027	25.858	1284.668	1046.451
-39.013	25.980	1282.451	1045.307
-37.998	25.945	1280.568	1043.530
-36.984	25.991	1278.671	1042.210
-35.969	26.093	1277.285	1041.626
-34.954	26.120	1275.423	1040.223
-33.940	26.074	1274.282	1038.988
-32.925	26.078	1272.924	1037.858
-31.911	26.070	1271.125	1036.306
-30.896	26.078	1269.885	1035.302
-29.881	26.164	1268.652	1034.747
-28.867	26.160	1267.363	1033.631
-27.852	26.250	1265.651	1032.707
-26.838	26.188	1264.234	1031.159
-25.823	26.151	1262.700	1029.655
-24.809	26.128	1261.835	1028.777
-23.794	26.143	1260.213	1027.497
-22.779	26.124	1259.428	1026.712
-21.765	26.217	1257.626	1025.730
-20.750	26.128	1256.565	1024.319
-19.736	26.045	1255.408	1022.863
-18.721	26.053	1254.300	1021.964
-17.706	26.004	1253.067	1020.644
-16.692	26.103	1251.586	1019.954
-15.677	25.998	1250.852	1018.722
-14.663	26.117	1249.468	1018.226
-13.648	25.893	1248.837	1016.411
-12.633	25.963	1247.612	1015.764
-11.619	26.016	1246.618	1015.215
-10.604	26.066	1245.651	1014.669
-9.590	25.988	1245.060	1013.709
-8.575	25.965	1244.195	1012.837
-7.560	25.938	1243.353	1011.958
-6.546	26.062	1242.011	1011.521
-5.531	26.046	1241.249	1010.769
-4.517	25.959	1240.569	1009.689
-3.502	26.034	1239.755	1009.404
-2.487	26.077	1238.334	1008.450
-1.473	26.044	1234.611	1005.193
-0.458	24.630	1219.602	985.147
0.556	22.882	1203.789	949.363
1.571	19.280	1210.180	934.816
2.586	18.601	1224.789	942.290
3.600	18.395	1213.030	932.040
4.615	14.048	1142.064	855.119
5.629	7.227	1071.039	768.864
6.644	4.434	1053.201	742.647
7.659	4.179	1050.378	739.376
8.673	4.095	1049.336	738.175
9.688	3.833	1048.326	736.152
10.702	4.245	1046.600	736.832
11.717	8.759	1052.130	762.181
12.731	16.456	1062.669	806.615
13.746	21.115	1068.880	833.567
14.761	22.148	1069.411	838.840
15.775	21.374	1067.878	833.873
16.790	20.440	1065.924	827.825
17.804	19.665	1065.193	823.493
18.819	19.504	1064.003	821.733
19.834	19.561	1062.874	821.058
20.848	19.410	1062.700	820.132
21.863	19.158	1061.777	818.151
22.877	19.117	1061.030	817.306
23.892	19.034	1060.204	816.205
24.907	19.026	1059.205	815.327
25.921	18.985	1058.477	814.502
26.936	19.047	1056.903	813.509
27.950	19.011	1056.017	812.588
28.965	19.187	1053.977	811.775
29.980	19.288	1052.995	811.421
30.994	19.447	1052.220	811.502
32.009	19.496	1051.291	810.943
33.023	19.273	1050.367	809.111
34.038	19.256	1049.035	807.935
35.053	19.194	1048.221	806.946
36.067	19.050	1047.697	805.799
37.082	19.180	1047.001	805.797
38.096	19.334	1046.200	805.831
39.111	19.435	1045.040	805.339
40.126	19.075	1044.274	802.995
41.140	18.736	1042.718	800.148
42.155	18.567	1041.566	798.409
43.169	18.502	1040.303	797.067
44.184	18.524	1039.765	796.684
45.199	18.709	1038.123	796.217
46.213	18.905	1037.127	796.289
47.228	19.016	1036.879	796.540
48.242	19.118	1035.813	796.123
49.257	19.187	1034.141	795.090
50.271	19.267	1034.210	795.439
51.286	19.256	1033.214	794.555
52.301	19.334	1032.085	793.972
53.315	18.958	1031.187	791.481
54.330	18.785	1030.174	789.839
55.344	18.860	1029.492	789.590
56.359	18.935	1028.258	788.919
57.374	18.836	1027.609	787.899
58.388	18.695	1026.359	786.223
59.403	18.637	1025.665	785.355
60.417	18.526	1024.655	784.007
61.432	18.555	1023.764	783.388
62.447	18.365	1023.620	782.340
63.461	18.418	1022.587	781.724
64.476	18.450	1021.394	780.889
65.490	18.360	1020.853	779.993
66.505	18.490	1020.082	779.929
67.520	18.522	1019.507	779.567
68.534	18.433	1018.503	778.327
69.549	18.376	1018.037	777.639
70.563	18.418	1016.789	776.808
71.578	18.183	1016.247	775.260
72.593	18.073	1015.371	774.028
73.607	18.158	1014.474	773.659
74.622	18.291	1014.010	773.836
75.636	18.206	1013.654	773.113
76.651	18.231	1012.849	772.546
77.666	18.312	1012.599	772.652
78.680	18.373	1011.614	772.104
79.695	18.494	1010.670	771.862
80.709	18.529	1010.481	771.805
81.724	18.752	1009.898	772.296
82.739	18.781	1009.127	771.769
83.753	19.111	1008.769	772.907
84.768	19.443	1007.762	773.558
85.782	19.443	1007.778	773.501
86.797	19.328	1006.692	772.083
87.812	19.208	1005.520	770.581
88.826	19.282	1004.479	770.044
89.841	19.417	1003.448	769.790
90.855	19.457	1002.974	769.534
91.870	19.382	1002.371	768.671
92.884	19.409	1000.981	767.659
93.899	19.361	1000.054	766.665
94.914	19.542	999.395	766.895
95.928	19.484	998.599	765.958
96.943	19.341	997.591	764.485
97.957	19.333	996.294	763.386
98.972	19.363	995.663	762.972
99.987	19.290	995.500	762.454
101.001	19.287	994.032	761.251
102.016	19.231	993.417	760.465
103.030	19.409	992.545	760.512
104.045	19.329	992.123	759.773
105.060	19.180	990.648	757.917
106.074	18.918	989.422	755.761
107.089	18.707	988.119	753.773
108.103	18.605	987.115	752.491
109.118	18.551	986.323	751.587
110.133	18.510	985.411	750.644
111.147	18.508	984.624	749.969
112.162	18.630	983.742	749.763
113.176	18.734	983.504	749.974
114.191	18.771	982.427	749.245
115.206	18.628	982.110	748.312
116.220	18.675	981.583	748.049
117.235	18.701	980.331	747.144
118.249	18.604	979.385	745.935
119.264	18.532	978.591	744.953
120.279	18.461	978.070	744.179
121.293	18.466	976.514	742.953
122.308	18.266	976.352	741.895
123.322	18.305	974.730	740.769
124.337	18.193	973.997	739.660
125.352	18.297	972.655	739.025
126.366	18.321	971.847	738.447
127.381	18.358	970.731	737.696
128.395	18.320	970.278	737.121
129.410	18.489	969.399	737.116
130.424	18.591	968.435	736.754
131.439	18.665	968.131	736.776
132.454	18.694	967.503	736.359
133.468	18.665	966.808	735.639
134.483	18.863	965.696	735.576
135.497	18.668	965.171	734.278
136.512	18.722	964.457	733.898
137.527	18.753	963.748	733.426
138.541	18.739	962.840	732.611
139.556	18.786	962.124	732.203
140.570	19.118	960.992	732.688
141.585	19.219	960.714	732.844
142.600	19.262	960.160	732.537
143.614	19.240	959.592	731.947
144.629	19.554	958.630	732.482
145.643	19.214	957.712	730.272
146.658	19.274	955.793	728.997
147.673	18.915	954.851	726.700
148.687	18.894	953.994	725.893
149.702	18.773	953.327	724.810
150.716	18.805	952.538	724.284
151.731	18.963	951.995	724.472
152.746	18.827	951.108	723.161
153.760	18.889	950.768	723.099
154.775	18.999	950.269	723.119
155.789	19.128	949.493	723.003
156.804	19.099	948.890	722.358
157.819	19.180	948.399	722.263
158.833	19.275	947.879	722.200
159.848	19.576	946.728	722.520
160.862	19.342	945.542	720.570
161.877	18.947	944.184	717.823
162.892	18.784	943.138	716.288
163.906	18.669	942.263	715.081
164.921	18.812	941.193	714.798
165.935	18.997	940.330	714.848
166.950	18.943	940.493	714.683
167.964	19.043	939.313	714.138
168.979	18.874	938.055	712.421
169.994	18.843	937.132	711.529
171.008	19.079	936.363	711.859
172.023	19.176	936.363	712.195
173.037	19.333	935.486	712.114
174.052	19.257	934.694	711.133
175.067	18.882	933.880	708.906
176.081	18.824	932.949	707.897
177.096	18.770	932.698	707.423
178.110	18.804	932.416	707.285
179.125	18.972	931.556	707.259
180.140	19.019	931.269	707.175
181.154	19.193	930.919	707.559
182.169	19.282	930.762	707.746
183.183	19.357	929.826	707.278
184.198	19.314	929.102	706.486
185.213	19.425	928.205	706.198
186.227	19.497	927.325	705.758
187.242	19.501	927.029	705.487
188.256	19.680	926.574	705.813
189.271	19.559	926.107	704.898
190.286	19.265	924.701	702.567
191.300	18.753	923.344	699.390
192.315	18.702	922.434	698.432
193.329	18.704	922.719	698.593
194.344	18.954	922.306	699.234
195.359	18.909	921.639	698.486
196.373	19.109	921.271	698.956
197.388	19.439	920.517	699.663
198.402	19.607	920.371	700.168
199.417	19.703	919.861	700.107
200.432	19.780	919.640	700.191
201.446	19.992	918.740	700.301
202.461	19.969	918.698	700.115
203.475	19.736	917.839	698.455
204.490	19.579	916.768	696.944
205.504	19.470	915.834	695.733
206.519	19.458	914.772	694.819
207.534	19.473	914.271	694.436
208.548	19.393	914.207	694.003
209.563	19.429	913.168	693.297
210.577	19.463	912.965	693.218
211.592	19.773	912.229	693.845
212.607	19.824	911.333	693.305
213.621	19.824	910.346	692.492
214.636	19.663	909.673	691.276
215.650	19.765	909.249	691.299
216.665	19.751	909.342	691.252
217.680	19.917	908.174	690.969
218.694	20.003	907.309	690.591
219.709	19.824	906.814	689.440
220.723	19.846	906.259	689.043
221.738	19.916	905.194	688.452
222.753	19.843	905.074	688.008
223.767	19.852	904.195	687.314
224.782	20.075	904.078	688.054
225.796	20.163	903.571	687.956
226.811	20.032	902.697	686.708
227.826	19.819	901.518	684.908
228.840	19.670	901.199	684.015
229.855	19.659	900.108	683.083
230.869	19.626	899.775	682.638
231.884	19.639	899.087	682.107
232.899	19.566	897.972	680.914
233.913	19.466	897.361	679.999
234.928	19.415	896.652	679.200
235.942	19.371	896.094	678.544
236.957	19.447	895.378	678.240
237.972	19.474	894.987	677.989
238.986	19.435	894.497	677.404
240.001	19.569	893.338	676.993
241.015	19.485	893.105	676.426
242.030	19.859	892.599	677.447
243.045	19.666	892.319	676.421
244.059	19.712	891.531	675.945
245.074	19.817	891.113	675.977
246.088	19.975	890.167	675.815
247.103	20.206	889.576	676.210
248.117	20.349	889.639	676.753
249.132	20.510	889.547	677.250
250.147	20.764	889.211	677.926
251.161	20.773	888.389	677.276
252.176	20.845	887.764	677.016
253.190	20.810	887.582	676.683
254.205	20.834	886.740	676.075
255.220	20.806	885.841	675.221
256.234	20.807	885.153	674.640
257.249	20.725	884.570	673.818
258.263	20.754	883.931	673.384
259.278	20.749	883.191	672.742
260.293	20.735	882.922	672.425
261.307	20.883	882.235	672.412
262.322	20.901	881.626	671.958
263.336	20.988	880.900	671.681
264.351	21.009	879.774	670.844
265.366	20.889	879.626	670.209
266.380	20.778	878.961	669.214
267.395	20.708	878.237	668.338
268.409	20.598	877.257	667.111
269.424	20.701	876.299	666.718
270.439	20.652	875.726	666.034
271.453	20.528	874.998	664.948
272.468	20.526	874.210	664.282
273.482	20.461	874.101	663.892
274.497	20.451	873.491	663.330
275.512	20.533	872.293	662.675
276.526	20.603	872.168	662.789
277.541	20.704	872.014	662.998
278.555	20.795	871.388	662.811
279.570	20.968	871.005	663.118
280.585	21.008	870.292	662.668
281.599	20.779	869.158	660.879
282.614	20.564	868.564	659.554
283.628	20.719	867.826	659.519
284.643	20.630	867.366	658.776
285.657	20.759	866.751	658.737
286.672	20.748	865.986	658.058
287.687	20.842	865.564	658.033
288.701	20.673	864.939	656.863
289.716	20.778	864.209	656.646
290.730	20.783	863.952	656.410
291.745	20.840	863.055	655.888
292.760	20.899	862.818	655.870
293.774	20.979	862.713	656.033
294.789	20.953	862.046	655.372
295.803	20.957	860.389	654.066
296.818	20.805	860.141	653.251
297.833	20.656	859.824	652.394
298.847	20.817	858.750	652.125
299.862	20.811	858.304	651.705
300.876	21.087	857.981	652.435
301.891	21.133	857.626	652.277
302.906	21.309	857.261	652.603
303.920	21.515	856.569	652.783
304.935	21.437	856.296	652.229
305.949	21.214	855.392	650.651
306.964	21.152	854.829	649.933
307.979	21.147	853.710	649.009
308.993	21.347	853.611	649.619
310.008	21.256	853.045	648.794
311.022	21.062	852.590	647.669
312.037	21.136	851.657	647.178
313.052	20.820	850.715	645.235
314.066	20.834	850.031	644.709
315.081	20.765	849.943	644.332
316.095	20.895	849.244	644.222
317.110	20.828	848.726	643.526
318.125	20.730	848.282	642.771
319.139	20.705	847.736	642.208
320.154	20.859	847.248	642.348
321.168	20.932	846.838	642.249
322.183	20.996	845.904	641.721
323.197	21.006	845.351	641.280
324.212	21.052	845.033	641.152
325.227	21.099	843.943	640.442
326.241	20.996	843.622	639.763
327.256	20.917	843.053	638.984
328.270	20.710	842.865	638.028
329.285	20.888	841.630	637.690
330.300	20.869	840.964	637.057
331.314	20.936	840.801	637.122
332.329	21.323	840.582	638.313
333.343	21.104	840.757	637.589
334.358	21.438	839.568	637.851
335.373	21.268	839.902	637.427
336.387	21.193	839.495	636.787
337.402	21.420	839.367	637.462
338.416	21.497	839.172	637.538
339.431	21.701	839.180	638.232
340.446	21.761	838.310	637.733
341.460	21.764	838.017	637.463
342.475	21.860	837.771	637.567
343.489	21.960	836.963	637.261
344.504	21.980	836.906	637.234
345.519	21.936	836.235	636.505
346.533	21.900	835.564	635.809
347.548	21.539	835.150	634.128
348.562	21.474	834.017	632.979
349.577	21.489	833.108	632.286
350.592	21.131	832.868	630.757
351.606	21.209	832.042	630.356
352.621	21.334	831.137	630.063
353.635	21.418	830.825	630.076
354.650	21.394	830.218	629.474
355.665	21.557	829.707	629.617
356.679	21.633	829.245	629.482
357.694	21.597	828.505	628.734
358.708	21.696	827.622	628.366
359.723	21.643	827.191	627.793
360.738	21.598	826.769	627.256
361.752	21.703	826.473	627.351
362.767	21.883	825.797	627.426
363.781	22.089	825.467	627.856
364.796	21.982	825.438	627.396
365.810	22.313	824.921	628.130
366.825	22.342	824.449	627.820
367.840	22.149	823.856	626.624
368.854	22.009	823.247	625.604
369.869	21.931	822.866	624.982
370.883	22.061	822.270	624.939
371.898	22.295	822.381	625.800
372.913	22.244	821.650	625.006
373.927	22.102	821.176	624.085
374.942	22.109	820.745	623.728
375.956	22.196	820.305	623.648
376.971	22.348	819.901	623.824
377.986	22.518	819.497	624.065
379.000	22.529	818.781	623.501
380.015	22.550	817.892	622.846
381.029	22.472	817.589	622.284
382.044	22.551	817.166	622.185
383.059	22.523	816.103	621.220
384.073	22.142	815.858	619.638
385.088	22.094	815.270	618.965
386.102	21.949	814.538	617.844
387.117	22.024	813.859	617.541
388.132	21.889	813.303	616.588
389.146	21.992	813.156	616.784
390.161	22.179	812.631	616.988
391.175	22.439	812.146	617.478
392.190	22.331	811.342	616.433
393.205	22.074	810.492	614.834
394.219	21.968	810.576	614.471
395.234	21.834	810.175	613.646
396.248	21.813	809.636	613.109
397.263	21.818	808.715	612.373
398.278	21.767	808.368	611.880
399.292	21.709	807.926	611.286
400.307	21.837	807.647	611.470
401.321	21.855	807.235	611.167
402.336	22.009	806.893	611.389
403.350	22.224	806.471	611.765
404.365	22.102	806.680	611.442
405.380	22.366	806.002	611.792
406.394	22.551	805.392	611.920
407.409	22.608	805.242	611.950
408.423	22.519	805.013	611.411
409.438	22.721	804.558	611.713
410.453	22.768	803.990	611.388
411.467	22.954	803.313	611.463
412.482	22.941	803.583	611.570
413.496	22.786	803.199	610.688
414.511	22.801	802.438	610.107
415.526	22.788	801.868	609.574
416.540	22.735	801.425	609.002
417.555	22.798	800.896	608.763
418.569	22.739	800.318	608.066
419.584	22.933	800.081	608.501
420.599	22.779	799.450	607.436
421.613	165.224	1371.264	1796.488
422.628	143.562	1454.568	1796.568
