DTS Sentinel unit serial number:	SN413079Multiplexer serial number:	ORYXHardware model number:	OX4-SRSoftware version number:	ORYX F/W v4.00 Oryx Data Collector v3.7.2.0data status	okinstallation	princeton_trtdifferential loss correction	single-endedforward channel	channel 1reverse channel	N/Adate	2019/09/17time	10:54:35forward acquisition time	60.00reverse acquisition time	0.00gamma	496.2192k internal	0.2323k external	0.2323temperature offset calibration	0.9959default loss term (dB/km)	0.3790temperature slope calibration	1.0000multiplexer offset coefficient	1.0000multiplexer slope coefficient	1.0000fibre end	0.00T internal ref (°C)	30.25T ext. ref 1 (°C)	0.18T ext. ref 2 (°C)	25.81length (m)	temperature (°C)	Stokes	anti-Stokes-747.200	800.000	0.105	0.436
-746.185	-121.664	-0.239	-0.040
-745.171	-200.000	-0.009	0.245
-744.156	137.529	0.253	0.335
-743.142	-200.000	0.017	0.092
-742.127	187.327	-0.227	-0.342
-741.112	-80.453	0.334	-0.113
-740.098	572.690	-0.121	0.299
-739.083	-136.796	0.181	-0.021
-738.069	559.140	0.070	0.172
-737.054	-123.908	0.242	0.039
-736.039	-70.337	-0.358	-0.137
-735.025	-106.045	0.318	-0.072
-734.010	-143.508	-0.151	0.015
-732.996	530.905	0.105	-0.250
-731.981	221.723	0.163	0.265
-730.966	10.124	-0.013	0.010
-729.952	-66.926	-0.266	-0.106
-728.937	178.029	-0.209	0.308
-727.923	-160.784	0.342	0.018
-726.908	-112.386	-0.200	0.040
-725.894	-200.000	0.054	-0.348
-724.879	172.884	-0.084	0.122
-723.864	-61.741	-0.191	-0.081
-722.850	83.669	0.189	-0.208
-721.835	-65.834	-0.152	-0.061
-720.821	800.000	0.057	0.198
-719.806	-181.665	-0.046	0.001
-718.791	459.249	-0.081	0.183
-717.777	800.000	-0.071	0.221
-716.762	25.389	0.262	0.219
-715.748	-2.437	0.166	0.118
-714.733	212.293	0.124	-0.197
-713.718	800.000	-0.060	-0.263
-712.704	-90.381	0.318	0.093
-711.689	-45.249	-0.108	0.054
-710.675	-200.000	-0.039	0.248
-709.660	783.234	0.107	-0.294
-708.645	24.955	0.053	0.044
-707.631	499.167	0.074	-0.172
-706.616	-185.386	-0.224	-0.003
-705.602	-166.020	-0.270	0.012
-704.587	136.573	-0.169	-0.222
-703.572	-200.000	-0.024	0.211
-702.558	133.198	-0.031	0.040
-701.543	-103.068	-0.301	-0.072
-700.529	342.832	0.272	0.537
-699.514	-97.594	-0.102	-0.027
-698.499	40.110	0.186	-0.168
-697.485	-200.000	-0.005	0.235
-696.470	-172.883	-0.087	-0.003
-695.456	-178.159	0.118	-0.003
-694.441	-70.744	-0.120	-0.046
-693.426	284.713	0.058	0.105
-692.412	-83.898	-0.186	-0.060
-691.397	-103.105	-0.229	-0.055
-690.383	800.000	0.026	-0.087
-689.368	-52.727	-0.063	-0.029
-688.354	-200.000	-0.045	-0.214
-687.339	368.340	0.101	0.207
-686.324	53.528	0.357	0.345
-685.310	579.470	-0.163	0.401
-684.295	54.432	-0.098	-0.095
-683.281	-200.000	0.049	-0.267
-682.266	44.096	0.178	-0.165
-681.251	800.000	0.106	-0.411
-680.237	664.906	-0.073	-0.189
-679.222	-200.000	-0.035	-0.193
-678.208	250.258	-0.051	-0.088
-677.193	11.360	0.132	0.101
-676.178	-122.069	-0.516	0.085
-675.164	800.000	0.048	-0.175
-674.149	-77.699	-0.397	-0.138
-673.135	519.892	0.050	-0.119
-672.120	159.188	0.116	-0.162
-671.105	-15.785	0.224	0.144
-670.091	113.014	0.122	0.149
-669.076	-100.322	0.385	0.096
-668.062	-95.395	0.132	0.036
-667.047	-200.000	0.016	-0.511
-666.032	319.807	0.064	-0.123
-665.018	800.000	-0.064	0.267
-664.003	-181.454	0.284	0.006
-662.989	116.605	-0.196	-0.242
-661.974	-200.000	-0.006	-0.199
-660.959	-41.606	0.190	-0.098
-659.945	-117.471	-0.121	-0.022
-658.930	-135.691	-0.331	0.040
-657.916	95.113	-0.101	0.115
-656.901	-1.434	-0.219	-0.155
-655.886	111.321	-0.175	-0.213
-654.872	22.097	-0.162	-0.133
-653.857	106.233	0.255	-0.304
-652.843	-39.169	-0.294	0.155
-651.828	27.633	-0.387	-0.328
-650.814	-200.000	0.010	0.305
-649.799	213.440	-0.110	0.175
-648.784	-200.000	0.023	-0.169
-647.770	464.724	-0.040	-0.090
-646.755	-90.823	-0.279	0.081
-645.741	123.594	-0.112	-0.141
-644.726	61.368	-0.176	-0.176
-643.711	-172.114	0.310	0.010
-642.697	-200.000	-0.031	-0.166
-641.682	-142.272	-0.368	-0.037
-640.668	131.130	0.131	0.169
-639.653	50.311	0.085	-0.080
-638.638	-200.000	-0.012	-0.097
-637.624	-28.984	-0.178	-0.103
-636.609	98.554	-0.154	0.178
-635.595	-200.000	-0.002	0.188
-634.580	98.506	0.206	-0.238
-633.565	-131.024	0.183	0.025
-632.551	150.634	-0.081	-0.110
-631.536	-79.302	-0.212	-0.072
-630.522	-187.050	0.117	-0.002
-629.507	-36.512	0.162	0.088
-628.492	82.682	0.098	-0.107
-627.478	19.509	-0.270	-0.218
-626.463	800.000	-0.075	-0.209
-625.449	-91.807	0.105	0.030
-624.434	139.948	-0.144	0.190
-623.419	88.938	-0.229	0.256
-622.405	-111.015	-0.338	-0.070
-621.390	800.000	-0.017	0.061
-620.376	-200.000	0.003	0.117
-619.361	562.374	0.120	0.292
-618.346	-200.000	0.006	0.060
-617.332	-174.024	0.306	0.009
-616.317	-162.610	-0.141	-0.007
-615.303	-89.112	-0.269	0.080
-614.288	800.000	-0.084	0.271
-613.273	199.109	-0.062	-0.095
-612.259	-40.716	-0.030	0.016
-611.244	177.816	0.106	0.156
-610.230	-46.366	0.084	0.041
-609.215	162.900	-0.151	-0.213
-608.201	-91.252	0.236	-0.068
-607.186	119.122	-0.238	-0.296
-606.171	-200.000	0.035	-0.196
-605.157	-27.481	-0.069	0.040
-604.142	-18.988	0.056	0.035
-603.128	267.518	0.027	-0.048
-602.113	-144.439	-0.306	0.029
-601.098	-200.000	0.025	0.158
-600.084	-90.364	-0.130	-0.038
-599.069	-11.801	-0.117	0.077
-598.055	738.713	-0.145	0.391
-597.040	-200.000	-0.055	0.325
-596.025	39.641	0.359	-0.323
-595.011	29.702	-0.390	-0.333
-593.996	800.000	-0.036	-0.136
-592.982	-184.311	0.123	0.002
-591.967	-70.371	0.279	-0.106
-590.952	116.671	-0.072	-0.089
-589.938	-195.279	0.259	0.002
-588.923	-69.212	0.286	-0.110
-587.909	-200.000	0.138	-0.000
-586.894	41.991	0.100	-0.091
-585.879	567.786	-0.039	0.095
-584.865	800.000	0.073	0.238
-583.850	169.466	-0.141	-0.202
-582.836	247.800	-0.085	-0.144
-581.821	-103.421	-0.250	-0.059
-580.806	-34.647	0.277	-0.152
-579.792	-42.196	-0.306	0.157
-578.777	-68.485	0.076	-0.029
-577.763	778.655	0.068	-0.187
-576.748	-133.124	-0.169	0.021
-575.733	800.000	-0.084	-0.280
-574.719	333.574	0.151	-0.294
-573.704	620.624	-0.058	-0.146
-572.690	-200.000	-0.038	0.220
-571.675	-53.620	0.163	0.075
-570.661	-200.000	-0.036	0.185
-569.646	136.455	0.101	0.132
-568.631	-36.018	-0.302	0.164
-567.617	625.412	-0.102	0.259
-566.602	-200.000	-0.005	0.220
-565.588	-18.231	-0.181	-0.114
-564.573	-200.000	-0.051	-0.372
-563.558	-107.406	0.062	0.014
-562.544	24.266	-0.188	0.156
-561.529	800.000	0.063	-0.215
-560.515	-60.015	-0.134	0.057
-559.500	800.000	-0.012	0.033
-558.485	-150.019	-0.063	-0.005
-557.471	-41.084	-0.096	-0.050
-556.456	-98.513	-0.339	-0.087
-555.442	-47.994	-0.211	-0.102
-554.427	48.538	0.083	0.078
-553.412	-67.444	0.202	0.079
-552.398	800.000	-0.031	0.101
-551.383	69.233	0.190	0.196
-550.369	-42.577	-0.154	0.079
-549.354	82.794	0.101	0.110
-548.339	-29.265	-0.172	-0.099
-547.325	800.000	0.003	-0.010
-546.310	100.672	0.207	0.241
-545.296	18.923	0.092	-0.074
-544.281	-152.426	0.092	0.007
-543.266	-200.000	0.000	0.140
-542.252	-172.681	0.395	0.012
-541.237	8.136	-0.218	-0.164
-540.223	-145.833	0.321	-0.029
-539.208	-29.631	-0.071	-0.041
-538.193	-92.980	-0.120	0.034
-537.179	0.452	0.057	0.041
-536.164	166.916	-0.162	-0.230
-535.150	7.527	-0.224	-0.168
-534.135	-123.805	0.137	0.022
-533.121	-92.853	-0.299	0.084
-532.106	132.616	-0.289	0.373
-531.091	7.413	0.189	-0.142
-530.077	-39.658	-0.444	0.233
-529.062	-120.829	-0.382	-0.064
-528.048	-162.331	0.162	-0.008
-527.033	-200.000	-0.034	0.319
-526.018	-25.812	0.148	0.087
-525.004	-63.764	-0.400	0.164
-523.989	36.866	0.304	0.269
-522.975	85.213	0.149	0.163
-521.960	509.365	0.083	-0.193
-520.945	-8.769	-0.411	-0.276
-519.931	-80.568	0.107	-0.036
-518.916	560.955	0.135	0.326
-517.902	-79.568	-0.324	-0.110
-516.887	100.811	-0.131	0.152
-515.872	-200.000	-0.010	0.295
-514.858	-49.163	-0.377	0.180
-513.843	-20.630	-0.314	-0.193
-512.829	-103.168	0.114	-0.027
-511.814	800.000	0.071	0.251
-510.799	-27.321	-0.172	0.100
-509.785	53.790	0.218	0.209
-508.770	227.768	-0.027	-0.044
-507.756	-142.618	0.054	-0.005
-506.741	-107.218	0.183	-0.040
-505.726	-77.225	0.117	-0.041
-504.712	21.357	-0.155	0.126
-503.697	-200.000	0.020	0.264
-502.683	-1.712	0.048	0.034
-501.668	262.723	0.120	-0.208
-500.653	1.490	-0.280	-0.202
-499.639	-32.778	-0.074	-0.041
-498.624	-77.074	0.181	0.063
-497.610	83.537	-0.269	-0.293
-496.595	800.000	-0.042	-0.143
-495.581	-23.848	-0.131	-0.078
-494.566	132.902	-0.161	0.208
-493.551	23.789	0.062	0.051
-492.537	499.633	-0.043	0.099
-491.522	492.315	-0.148	-0.340
-490.508	-200.000	0.045	-0.259
-489.493	-162.127	-0.052	0.003
-488.478	-114.303	-0.447	0.086
-487.464	-200.000	-0.003	0.031
-486.449	-106.397	-0.317	0.071
-485.435	294.980	0.051	-0.093
-484.420	-114.626	0.341	-0.065
-483.405	14.148	-0.119	0.093
-482.391	133.083	-0.147	0.190
-481.376	-200.000	-0.029	-0.266
-480.362	-200.000	-0.017	-0.198
-479.347	-1.444	-0.274	0.193
-478.332	77.303	0.155	0.165
-477.318	409.860	0.148	0.314
-476.303	-71.146	-0.387	-0.145
-475.289	-160.944	0.233	-0.012
-474.274	-104.447	0.220	-0.051
-473.259	581.080	-0.031	0.077
-472.245	-200.000	-0.022	-0.144
-471.230	8.231	0.095	-0.071
-470.216	800.000	-0.057	0.175
-469.201	-200.000	0.035	0.249
-468.186	-170.934	-0.371	0.013
-467.172	-20.981	-0.210	-0.128
-466.157	652.400	-0.065	-0.166
-465.143	533.033	-0.120	-0.285
-464.128	32.489	0.187	-0.162
-463.113	30.815	0.053	0.046
-462.099	-37.933	0.154	0.082
-461.084	188.862	0.061	-0.091
-460.070	-167.157	0.323	0.013
-459.055	-200.000	0.014	-0.260
-458.040	-194.587	0.243	-0.002
-457.026	97.283	-0.052	0.060
-456.011	-200.000	0.233	0.000
-454.997	71.845	0.105	0.109
-453.982	-46.830	0.155	0.076
-452.968	-29.183	-0.242	-0.139
-451.953	-80.637	0.126	-0.042
-450.938	-200.000	-0.039	0.288
-449.924	31.374	0.328	-0.281
-448.909	-78.502	-0.189	-0.065
-447.895	800.000	-0.040	-0.113
-446.880	-200.000	-0.011	0.134
-445.865	3.335	-0.318	0.231
-444.851	-200.000	0.021	0.260
-443.836	32.398	0.178	0.153
-442.822	520.901	-0.095	-0.221
-441.807	121.599	0.124	0.154
-440.792	259.368	-0.179	0.308
-439.778	-31.931	-0.401	-0.224
-438.763	-74.574	-0.218	-0.078
-437.749	131.097	0.186	0.238
-436.734	-182.817	-0.278	0.005
-435.719	800.000	0.081	-0.285
-434.705	-146.950	0.245	-0.021
-433.690	131.405	-0.057	0.073
-432.676	-3.066	-0.301	0.210
-431.661	18.372	0.083	-0.066
-430.646	-200.000	-0.048	-0.298
-429.632	-114.845	0.145	-0.028
-428.617	-58.150	0.080	0.035
-427.603	-9.751	0.095	0.063
-426.588	-112.730	-0.135	-0.027
-425.573	159.243	-0.306	0.424
-424.559	800.000	0.056	-0.159
-423.544	39.720	0.075	-0.067
-422.530	-132.332	-0.307	0.040
-421.515	-200.000	-0.009	-0.181
-420.500	61.748	0.176	-0.175
-419.486	-200.000	0.044	0.412
-418.471	34.397	-0.057	0.050
-417.457	800.000	-0.069	-0.224
-416.442	800.000	0.079	0.262
-415.428	-158.399	0.344	0.020
-414.413	400.622	-0.064	-0.133
-413.398	-34.630	0.130	0.071
-412.384	261.334	-0.162	0.280
-411.369	-109.816	-0.355	-0.074
-410.355	-114.589	-0.209	-0.040
-409.340	26.139	-0.093	0.077
-408.325	-200.000	-0.014	0.087
-407.311	-200.000	-0.066	0.351
-406.296	138.302	-0.239	-0.312
-405.282	-6.391	-0.345	-0.235
-404.267	-200.000	-0.007	-0.330
-403.252	-200.000	-0.256	0.001
-402.238	-200.000	0.010	0.142
-401.223	175.349	0.141	-0.204
-400.209	-200.000	-0.050	0.262
-399.194	800.000	0.044	-0.182
-398.179	-95.404	-0.326	-0.087
-397.165	-174.982	0.086	0.002
-396.150	800.000	-0.027	0.080
-395.136	-196.408	-0.111	0.001
-394.121	-117.410	0.206	0.037
-393.106	-81.209	0.162	0.053
-392.092	-45.588	-0.238	-0.117
-391.077	-151.035	0.152	-0.011
-390.063	-156.734	0.088	-0.005
-389.048	-200.000	0.045	0.265
-388.033	53.365	0.142	-0.136
-387.019	148.591	-0.158	0.213
-386.004	196.625	0.051	-0.078
-384.990	-171.997	-0.243	-0.008
-383.975	-25.998	0.255	-0.149
-382.960	385.978	0.141	0.290
-381.946	115.933	0.192	0.234
-380.931	-200.000	-0.009	-0.110
-379.917	4.988	-0.167	-0.122
-378.902	85.612	-0.089	-0.097
-377.888	-65.389	-0.266	-0.107
-376.873	800.000	0.094	0.331
-375.858	60.925	-0.240	0.238
-374.844	-69.392	-0.147	-0.056
-373.829	-200.000	0.019	-0.202
-372.815	542.350	0.159	0.377
-371.800	800.000	0.045	0.189
-370.785	-168.812	-0.282	0.011
-369.771	-187.752	0.333	-0.004
-368.756	114.606	-0.313	0.379
-367.742	-200.000	0.031	-0.323
-366.727	556.329	0.177	-0.425
-365.712	-120.291	-0.240	0.041
-364.698	-103.414	-0.359	-0.084
-363.683	-200.000	-0.025	-0.262
-362.669	182.310	-0.056	0.082
-361.654	-200.000	-0.080	-0.362
-360.639	3.478	0.333	0.241
-359.625	-200.000	0.016	-0.085
-358.610	42.207	-0.140	-0.127
-357.596	72.146	-0.322	-0.334
-356.581	170.128	0.149	-0.212
-355.566	14.729	0.154	0.119
-354.552	458.573	0.095	-0.211
-353.537	133.636	0.264	-0.340
-352.523	-8.836	-0.121	-0.081
-351.508	206.594	0.228	-0.354
-350.493	-151.989	-0.572	0.041
-349.479	-200.000	0.028	-0.124
-348.464	157.999	0.164	-0.226
-347.450	-20.120	0.095	-0.058
-346.435	-15.654	-0.363	0.230
-345.420	-11.658	0.125	0.082
-344.406	-35.012	-0.212	0.115
-343.391	9.557	0.198	-0.149
-342.377	-44.578	0.304	-0.151
-341.362	117.628	-0.189	0.231
-340.348	384.168	0.207	0.424
-339.333	51.077	0.122	0.115
-338.318	-200.000	-0.015	-0.124
-337.304	-143.596	-0.301	0.028
-336.289	110.102	0.054	0.065
-335.275	800.000	0.062	-0.206
-334.260	774.392	-0.097	0.262
-333.245	800.000	0.069	0.191
-332.231	267.428	0.193	0.336
-331.216	-65.533	0.224	0.089
-330.202	8.454	-0.200	0.149
-329.187	136.448	0.049	-0.063
-328.172	-128.592	0.065	-0.009
-327.158	-34.926	-0.110	0.060
-326.143	-76.072	0.299	0.105
-325.129	-19.533	-0.133	-0.082
-324.114	64.149	0.343	-0.342
-323.099	-182.769	-0.168	-0.003
-322.085	-106.427	-0.382	0.085
-321.070	-200.000	-0.033	-0.258
-320.056	800.000	-0.098	0.294
-319.041	328.141	0.162	-0.310
-318.026	-130.488	0.397	0.053
-317.012	800.000	0.174	-0.494
-315.997	90.613	-0.050	-0.056
-314.983	200.150	-0.120	0.183
-313.968	190.088	-0.109	-0.163
-312.953	-200.000	0.010	0.270
-311.939	-125.533	0.287	-0.043
-310.924	-66.895	0.179	0.070
-309.910	800.000	-0.096	0.280
-308.895	35.573	-0.039	-0.034
-307.880	800.000	0.066	-0.268
-306.866	-95.858	-0.222	-0.059
-305.851	-200.000	-0.056	-0.279
-304.837	-200.000	0.081	-0.439
-303.822	-200.000	0.065	0.493
-302.807	461.895	-0.073	-0.161
-301.793	47.849	0.222	0.206
-300.778	302.689	-0.033	0.061
-299.764	5.876	0.148	-0.109
-298.749	-120.403	0.262	-0.044
-297.735	65.228	0.154	-0.155
-296.720	65.497	0.167	0.167
-295.705	42.377	0.177	-0.160
-294.691	-21.287	-0.136	-0.083
-293.676	61.000	0.120	0.118
-292.662	57.743	-0.206	0.200
-291.647	39.057	-0.332	-0.294
-290.632	19.751	-0.187	0.149
-289.618	-64.465	-0.011	-0.004
-288.603	-48.003	0.220	-0.106
-287.589	-101.130	0.171	-0.041
-286.574	-125.182	-0.416	-0.063
-285.559	-10.657	0.207	-0.136
-284.545	-200.000	-0.008	-0.046
-283.530	-181.927	-0.275	-0.005
-282.516	-95.408	-0.249	-0.066
-281.501	-63.964	0.170	-0.069
-280.486	190.456	0.023	0.035
-279.472	-157.515	-0.197	-0.012
-278.457	-26.729	0.247	-0.143
-277.443	-200.000	0.020	-0.218
-276.428	-48.539	0.240	0.115
-275.413	800.000	0.005	-0.022
-274.399	-200.000	0.003	-0.061
-273.384	-200.000	0.034	-0.235
-272.370	115.119	-0.061	-0.074
-271.355	-200.000	0.024	0.451
-270.340	-40.836	0.164	-0.084
-269.326	49.663	-0.058	-0.054
-268.311	-200.000	0.072	0.393
-267.297	-161.393	0.200	-0.010
-266.282	296.243	-0.073	0.132
-265.267	-48.036	0.298	-0.143
-264.253	50.050	-0.119	0.112
-263.238	-38.754	0.089	-0.047
-262.224	-200.000	0.019	0.086
-261.209	270.242	0.143	0.249
-260.195	800.000	-0.094	0.274
-259.180	-119.337	-0.179	-0.031
-258.165	74.308	0.216	-0.225
-257.151	-200.000	0.010	-0.332
-256.136	-200.000	0.009	0.045
-255.122	-35.686	0.128	0.069
-254.107	-41.452	-0.118	0.060
-253.092	189.734	0.183	-0.271
-252.078	6.397	-0.148	0.109
-251.063	-161.202	0.501	0.026
-250.049	-200.000	-0.010	0.067
-249.034	-111.754	-0.145	-0.029
-248.019	313.568	0.098	-0.183
-247.005	560.058	-0.066	-0.157
-245.990	-69.836	0.177	0.067
-244.976	39.805	0.217	-0.193
-243.961	-200.000	-0.043	0.278
-242.946	-70.935	-0.260	0.097
-241.932	800.000	0.089	0.352
-240.917	-119.583	-0.222	0.038
-239.903	-109.688	0.277	-0.058
-238.888	-58.989	0.150	0.064
-237.873	156.677	0.110	0.150
-236.859	-151.729	0.212	-0.015
-235.844	800.000	0.065	0.198
-234.830	-43.192	-0.060	-0.030
-233.815	-175.227	0.067	-0.002
-232.800	-110.838	-0.154	0.032
-231.786	245.488	0.049	0.081
-230.771	-200.000	0.078	-0.473
-229.757	-200.000	0.038	-0.209
-228.742	116.229	0.018	0.022
-227.727	-9.043	-0.157	0.104
-226.713	-200.000	0.036	-0.209
-225.698	-84.930	-0.125	0.039
-224.684	54.550	-0.247	0.236
-223.669	800.000	-0.043	-0.177
-222.655	-108.373	-0.090	-0.019
-221.640	-200.000	-0.016	-0.177
-220.625	800.000	-0.051	-0.191
-219.611	-200.000	-0.030	-0.173
-218.596	-200.000	-0.067	0.368
-217.582	202.338	0.124	0.190
-216.567	-200.000	0.005	-0.089
-215.552	45.486	0.171	0.156
-214.538	-200.000	-0.009	-0.093
-213.523	-200.000	0.024	-0.216
-212.509	-11.827	0.025	-0.016
-211.494	272.330	0.130	0.227
-210.479	150.239	0.136	0.182
-209.465	-51.913	0.307	0.141
-208.450	-200.000	0.002	0.195
-207.436	-200.000	0.014	0.220
-206.421	185.594	0.188	-0.276
-205.406	-6.719	-0.078	-0.053
-204.392	23.130	0.180	-0.146
-203.377	-138.183	0.179	-0.020
-202.363	-29.044	-0.302	0.171
-201.348	282.721	0.063	0.111
-200.333	330.692	0.183	0.349
-199.319	-200.000	-0.011	-0.355
-198.304	-22.379	0.038	0.023
-197.290	132.203	0.057	0.073
-196.275	292.996	-0.113	0.205
-195.260	19.427	0.115	-0.091
-194.246	391.368	-0.078	0.160
-193.231	-42.129	0.212	0.107
-192.217	-2.937	0.190	0.131
-191.202	84.826	0.216	0.233
-190.187	421.158	-0.210	-0.445
-189.173	459.681	0.013	0.029
-188.158	16.159	0.208	0.162
-187.144	-114.005	0.194	-0.037
-186.129	255.969	-0.192	0.326
-185.114	39.335	-0.178	-0.158
-184.100	152.522	0.158	-0.213
-183.085	-29.748	0.065	-0.037
-182.071	32.933	0.143	-0.122
-181.056	-85.939	0.142	0.043
-180.042	1.665	0.359	-0.255
-179.027	800.000	0.073	-0.250
-178.012	-144.832	0.346	-0.031
-176.998	275.223	0.011	0.019
-175.983	88.734	-0.100	-0.110
-174.969	-200.000	-0.017	0.139
-173.954	611.905	0.067	-0.166
-172.939	-184.996	-0.022	-0.000
-171.925	99.089	-0.051	0.058
-170.910	-96.050	0.192	0.050
-169.896	-93.425	0.395	0.108
-168.881	691.036	0.111	-0.287
-167.866	273.136	0.015	-0.027
-166.852	-110.274	-0.180	0.037
-165.837	-200.000	-0.010	0.129
-164.823	59.239	0.240	0.233
-163.808	-36.245	0.183	-0.098
-162.793	31.111	0.059	-0.050
-161.779	97.683	0.135	-0.153
-160.764	-66.905	-0.122	0.047
-159.750	800.000	0.067	-0.206
-158.735	-166.878	0.354	0.014
-157.720	-29.056	-0.328	0.186
-156.706	-123.366	0.390	-0.061
-155.691	65.152	-0.175	-0.175
-154.677	119.837	0.145	0.178
-153.662	-3.045	0.077	-0.053
-152.647	-78.627	0.452	0.153
-151.633	-24.059	0.309	0.182
-150.618	-96.878	0.220	0.057
-149.604	-82.876	-0.362	0.115
-148.589	800.000	0.015	0.042
-147.574	-30.678	-0.411	-0.230
-146.560	800.000	-0.021	-0.077
-145.545	195.872	0.089	-0.134
-144.531	64.216	0.493	0.490
-143.516	-200.000	0.037	0.446
-142.502	-200.000	-0.004	-0.347
-141.487	-200.000	-0.029	-0.159
-140.472	-200.000	0.001	0.310
-139.458	331.276	-0.058	0.110
-138.443	800.000	0.044	-0.165
-137.429	-200.000	-0.009	-0.047
-136.414	-144.744	0.259	-0.024
-135.399	-200.000	0.020	0.353
-134.385	165.913	0.061	-0.085
-133.370	160.392	0.114	-0.157
-132.356	-99.429	0.399	0.099
-131.341	98.137	-0.072	0.081
-130.326	800.000	0.030	0.120
-129.312	800.000	0.044	-0.166
-128.297	-62.810	0.203	0.083
-127.283	-95.169	0.534	0.142
-126.268	-200.000	0.020	0.313
-125.253	-156.406	0.311	-0.019
-124.239	-86.724	-0.234	-0.070
-123.224	45.745	-0.122	0.111
-122.210	800.000	0.089	0.245
-121.195	113.013	-0.070	0.083
-120.180	201.905	0.261	0.396
-119.166	-200.000	-0.052	0.284
-118.151	225.765	0.150	0.240
-117.137	-86.552	0.338	0.102
-116.122	-163.864	-0.324	-0.015
-115.107	-172.999	0.263	-0.008
-114.093	-79.890	0.321	0.106
-113.078	-194.515	-0.039	0.000
-112.064	653.701	0.094	0.237
-111.049	340.120	0.043	-0.083
-110.034	-200.000	-0.020	0.131
-109.020	-4.288	0.171	-0.117
-108.005	-170.042	0.141	-0.005
-106.991	51.957	-0.372	-0.349
-105.976	-56.852	0.244	0.106
-104.962	-102.076	0.163	-0.039
-103.947	-200.000	-0.073	-0.343
-102.932	-180.068	0.200	0.004
-101.918	17.929	0.384	0.301
-100.903	-3.626	-0.469	-0.321
-99.889	263.560	0.084	0.143
-98.874	800.000	-0.035	-0.146
-97.859	-103.406	-0.254	-0.059
-96.845	-34.097	0.138	0.075
-95.830	-50.765	-0.164	-0.076
-94.816	85.861	0.318	-0.344
-93.801	-1.350	-0.393	-0.273
-92.786	-96.083	0.206	0.054
-91.772	-200.000	0.060	0.455
-90.757	9.739	0.114	0.085
-89.743	107.396	-0.060	0.070
-88.728	-31.911	-0.256	-0.141
-87.713	24.545	0.103	0.084
-86.699	-111.776	-0.169	0.034
-85.684	-38.281	-0.235	0.122
-84.670	-200.000	-0.001	0.112
-83.655	-62.827	-0.169	-0.069
-82.640	-200.000	0.031	0.231
-81.626	57.075	0.126	-0.121
-80.611	-119.128	-0.264	0.045
-79.597	-139.675	0.402	0.042
-78.582	253.039	0.188	0.316
-77.567	287.810	-0.185	0.330
-76.553	-19.416	-0.299	0.182
-75.538	-134.807	-0.366	0.044
-74.524	305.773	-0.089	0.163
-73.509	-153.496	0.145	0.010
-72.494	38.268	0.129	0.113
-71.480	-144.708	0.106	-0.010
-70.465	74.522	-0.053	-0.055
-69.451	-200.000	0.002	0.214
-68.436	-122.594	0.035	0.006
-67.422	800.000	-0.127	-0.387
-66.407	52.269	0.111	-0.104
-65.392	800.000	-0.029	0.116
-64.378	113.312	-0.253	0.302
-63.363	299.447	0.060	-0.108
-62.349	-141.292	-0.165	0.017
-61.334	149.346	-0.716	-0.954
-60.319	51.574	0.518	0.484
-59.305	244.535	-0.601	-0.993
-58.290	483.114	0.530	1.184
-57.276	587.060	0.766	1.855
-56.261	-200.000	102.826	572.428
-55.246	464.581	1451.592	3191.563
-54.232	149.599	2638.255	3514.039
-53.217	109.122	2164.953	2546.498
-52.203	42.192	1606.231	1434.272
-51.188	33.741	1340.373	1146.074
-50.173	30.585	1298.240	1091.511
-49.159	54.336	1349.050	1276.861
-48.144	55.093	1365.754	1297.143
-47.130	33.877	1322.533	1131.451
-46.115	30.413	1304.745	1095.795
-45.100	30.212	1299.742	1090.369
-44.086	30.140	1297.302	1087.856
-43.071	30.164	1294.682	1085.756
-42.057	30.134	1292.700	1083.872
-41.042	30.176	1291.089	1082.723
-40.027	30.162	1289.825	1081.539
-39.013	30.167	1287.884	1079.899
-37.998	30.194	1285.967	1078.407
-36.984	30.217	1284.470	1077.240
-35.969	30.397	1282.250	1076.379
-34.954	30.352	1281.006	1075.032
-33.940	30.219	1279.834	1073.235
-32.925	30.358	1277.983	1072.447
-31.911	30.286	1277.025	1071.186
-30.896	30.282	1275.539	1069.870
-29.881	30.320	1274.145	1068.878
-28.867	30.427	1272.448	1068.030
-27.852	30.462	1270.593	1066.630
-26.838	30.357	1269.365	1064.954
-25.823	30.390	1268.006	1063.961
-24.809	30.261	1266.961	1062.302
-23.794	30.324	1265.421	1061.329
-22.779	30.315	1264.423	1060.402
-21.765	30.317	1263.150	1059.299
-20.750	30.323	1261.726	1058.099
-19.736	30.109	1261.052	1056.276
-18.721	30.108	1259.557	1054.974
-17.706	30.218	1258.308	1054.512
-16.692	30.297	1257.174	1053.964
-15.677	30.113	1256.387	1052.220
-14.663	30.174	1254.776	1051.179
-13.648	30.220	1253.626	1050.433
-12.633	30.226	1252.436	1049.429
-11.619	30.255	1251.650	1048.891
-10.604	30.192	1251.098	1048.027
-9.590	30.203	1249.558	1046.761
-8.575	30.161	1248.822	1045.865
-7.560	30.173	1247.663	1044.922
-6.546	30.126	1247.062	1044.112
-5.531	30.191	1246.146	1043.670
-4.517	30.187	1245.406	1042.985
-3.502	30.158	1244.946	1042.397
-2.487	30.222	1243.975	1041.901
-1.473	30.174	1239.608	1037.931
-0.458	28.853	1225.229	1018.535
0.556	23.717	1208.436	981.903
1.571	20.038	1213.883	965.770
2.586	19.050	1229.101	972.209
3.600	19.042	1218.408	963.623
4.615	14.229	1145.344	880.360
5.629	5.009	1069.167	776.022
6.644	0.449	1049.100	739.085
7.659	0.168	1046.498	735.812
8.673	0.084	1045.829	734.869
9.688	0.020	1044.632	733.648
10.702	0.245	1042.535	733.208
11.717	5.854	1049.727	765.631
12.731	14.334	1061.343	815.731
13.746	17.625	1064.092	833.904
14.761	16.982	1062.874	829.731
15.775	15.973	1061.251	823.459
16.790	14.994	1058.551	816.517
17.804	14.232	1057.627	812.017
18.819	14.020	1056.263	809.864
19.834	13.645	1055.444	807.338
20.848	13.272	1054.564	804.777
21.863	13.164	1053.723	803.538
22.877	13.005	1052.946	802.101
23.892	12.999	1051.910	801.212
24.907	12.994	1051.217	800.589
25.921	13.005	1050.827	800.275
26.936	13.034	1049.753	799.530
27.950	13.264	1048.476	799.598
28.965	13.168	1047.714	798.480
29.980	13.210	1046.076	797.363
30.994	13.190	1045.682	796.897
32.009	13.247	1044.641	796.308
33.023	13.227	1043.886	795.566
34.038	13.299	1042.407	794.714
35.053	13.053	1041.715	792.933
36.067	13.078	1041.068	792.493
37.082	13.163	1040.106	792.099
38.096	13.207	1039.365	791.674
39.111	13.142	1038.528	790.654
40.126	13.190	1037.258	789.848
41.140	13.110	1035.969	788.415
42.155	13.100	1034.940	787.515
43.169	12.977	1033.985	786.132
44.184	12.946	1033.152	785.281
45.199	12.989	1032.466	784.894
46.213	13.069	1031.374	784.377
47.228	13.052	1030.377	783.466
48.242	13.117	1028.954	782.626
49.257	12.965	1028.237	781.287
50.271	12.983	1027.590	780.816
51.286	13.133	1026.395	780.546
52.301	13.167	1025.299	779.804
53.315	13.011	1024.618	778.480
54.330	13.139	1023.802	778.396
55.344	13.095	1022.779	777.343
56.359	13.046	1022.131	776.548
57.374	13.114	1020.915	775.875
58.388	12.949	1020.303	774.567
59.403	13.108	1019.216	774.420
60.417	12.865	1018.886	772.964
61.432	13.016	1017.844	772.812
62.447	12.974	1017.291	772.124
63.461	12.940	1016.707	771.454
64.476	12.957	1015.546	770.585
65.490	12.866	1015.011	769.686
66.505	13.059	1013.727	769.545
67.520	12.989	1013.337	768.853
68.534	12.931	1012.496	767.879
69.549	13.042	1011.424	767.515
70.563	12.898	1011.262	766.650
71.578	12.925	1010.143	765.862
72.593	12.845	1009.404	764.863
73.607	12.822	1009.036	764.408
74.622	12.790	1008.571	763.841
75.636	12.841	1007.343	763.081
76.651	12.886	1006.949	762.924
77.666	12.898	1006.429	762.516
78.680	12.874	1005.597	761.707
79.695	13.016	1004.737	761.645
80.709	12.941	1004.454	761.015
81.724	12.881	1003.834	760.201
82.739	13.040	1003.492	760.611
83.753	13.186	1002.363	760.356
84.768	13.225	1000.947	759.395
85.782	13.121	1000.583	758.573
86.797	13.185	999.611	758.062
87.812	13.105	998.797	757.013
88.826	13.172	997.469	756.244
89.841	13.141	996.706	755.461
90.855	13.207	995.671	754.907
91.870	13.203	995.320	754.560
92.884	13.055	994.697	753.341
93.899	13.286	993.338	753.302
94.914	13.265	992.809	752.735
95.928	13.294	991.640	751.915
96.943	13.092	991.020	750.461
97.957	13.159	990.223	750.098
98.972	13.168	988.990	749.136
99.987	13.294	988.447	749.231
101.001	13.194	987.339	747.869
102.016	13.354	986.098	747.587
103.030	13.246	985.573	746.633
104.045	13.261	985.118	746.294
105.060	13.213	984.242	745.348
106.074	13.170	983.207	744.304
107.089	13.026	982.642	743.162
108.103	13.130	981.327	742.566
109.118	13.083	980.419	741.604
110.133	13.074	979.493	740.796
111.147	13.119	978.520	740.196
112.162	13.008	978.094	739.314
113.176	13.036	977.318	738.788
114.191	13.107	976.797	738.645
115.206	13.087	975.987	737.876
116.220	13.064	974.876	736.872
117.235	13.206	973.323	736.262
118.249	13.138	973.336	735.906
119.264	13.130	972.559	735.218
120.279	13.074	971.607	734.185
121.293	13.002	971.153	733.453
122.308	13.118	969.926	732.978
123.322	13.110	968.923	732.120
124.337	13.139	968.148	731.600
125.352	13.133	966.953	730.603
126.366	13.126	965.892	729.706
127.381	13.069	965.299	728.944
128.395	13.073	964.671	728.419
129.410	13.181	963.382	727.859
130.424	13.241	962.420	727.331
131.439	13.201	961.560	726.443
132.454	13.302	960.596	726.096
133.468	13.117	960.369	725.045
134.483	13.158	959.322	724.370
135.497	13.192	958.905	724.139
136.512	13.224	957.571	723.211
137.527	13.157	957.092	722.492
138.541	13.074	956.658	721.737
139.556	13.213	955.096	721.100
140.570	13.364	954.596	721.316
141.585	13.306	953.986	720.541
142.600	13.338	953.235	720.049
143.614	13.415	952.359	719.660
144.629	13.341	951.870	718.901
145.643	13.367	950.371	717.820
146.658	13.338	949.476	716.953
147.673	13.303	948.468	715.981
148.687	13.196	947.800	714.950
149.702	13.153	947.029	714.120
150.716	13.221	946.396	713.869
151.731	13.365	945.167	713.502
152.746	13.165	944.988	712.442
153.760	13.275	944.336	712.359
154.775	13.439	943.407	712.301
155.789	13.429	942.738	711.691
156.804	13.275	942.479	710.769
157.819	13.314	941.619	710.228
158.833	13.501	940.654	710.237
159.848	13.514	939.884	709.651
160.862	13.394	939.138	708.510
161.877	13.477	938.017	707.958
162.892	13.489	937.311	707.412
163.906	13.415	936.102	706.120
164.921	13.383	935.832	705.718
165.935	13.476	934.495	705.045
166.950	13.408	933.813	704.178
167.964	13.415	932.929	703.477
168.979	13.327	932.428	702.666
169.994	13.430	931.544	702.373
171.008	13.563	930.604	702.167
172.023	13.468	930.202	701.401
173.037	13.583	929.207	701.074
174.052	13.732	928.401	701.032
175.067	13.506	928.505	700.093
176.081	13.606	927.134	699.420
177.096	13.441	926.812	698.418
178.110	13.505	925.976	697.996
179.125	13.517	925.573	697.683
180.140	13.563	925.179	697.518
181.154	13.649	924.635	697.407
182.169	13.662	923.904	696.849
183.183	13.839	923.234	697.027
184.198	13.712	922.606	695.958
185.213	13.634	922.153	695.229
186.227	13.683	921.241	694.683
187.242	13.807	920.752	694.771
188.256	13.935	919.856	694.570
189.271	13.783	919.369	693.502
190.286	13.741	918.330	692.486
191.300	13.612	917.983	691.623
192.315	13.508	917.188	690.530
193.329	13.597	916.961	690.668
194.344	13.649	916.165	690.225
195.359	13.691	915.591	689.905
196.373	13.774	914.962	689.716
197.388	13.788	914.486	689.354
198.402	13.988	913.676	689.513
199.417	13.959	913.283	689.035
200.432	14.093	912.292	688.780
201.446	14.130	912.153	688.770
202.461	14.019	912.009	688.140
203.475	14.043	911.321	687.657
204.490	13.964	910.500	686.651
205.504	14.045	909.412	686.105
206.519	13.879	909.015	685.060
207.534	13.980	908.315	684.887
208.548	14.104	907.595	684.795
209.563	13.885	907.189	683.526
210.577	13.992	906.420	683.325
211.592	14.028	905.710	682.879
212.607	14.064	904.918	682.369
213.621	14.129	904.123	681.975
214.636	14.180	903.355	681.545
215.650	14.121	902.577	680.654
216.665	14.076	902.525	680.373
217.680	14.204	901.354	679.951
218.694	14.199	901.095	679.676
219.709	14.214	900.142	678.958
220.723	14.134	899.532	678.111
221.738	14.232	899.065	678.098
222.753	14.213	898.341	677.418
223.767	14.317	897.875	677.428
224.782	14.295	897.157	676.738
225.796	14.305	896.684	676.360
226.811	14.448	896.183	676.504
227.826	14.353	895.040	675.197
228.840	14.218	894.871	674.461
229.855	14.238	893.734	673.624
230.869	14.399	893.114	673.750
231.884	14.224	892.522	672.537
232.899	14.229	891.698	671.876
233.913	14.253	890.970	671.365
234.928	14.161	890.433	670.532
235.942	14.358	889.846	670.823
236.957	14.291	889.290	670.073
237.972	14.197	889.236	669.595
238.986	14.235	888.233	668.933
240.001	14.369	887.511	668.871
241.015	14.354	886.881	668.277
242.030	14.453	886.323	668.193
243.045	14.442	885.512	667.477
244.059	14.459	885.063	667.147
245.074	14.481	884.465	666.726
246.088	14.502	883.660	666.145
247.103	14.450	883.339	665.638
248.117	14.573	882.465	665.412
249.132	14.632	881.846	665.118
250.147	14.669	881.159	664.691
251.161	14.681	880.897	664.482
252.176	14.785	880.028	664.178
253.190	14.753	879.320	663.459
254.205	14.823	878.581	663.123
255.220	14.776	877.887	662.353
256.234	14.769	877.554	662.012
257.249	14.806	877.005	661.690
258.263	14.801	876.331	661.101
259.278	14.742	875.508	660.188
260.293	14.986	874.607	660.415
261.307	14.849	874.663	659.857
262.322	14.989	874.052	659.892
263.336	15.005	873.144	659.210
264.351	15.060	872.313	658.739
265.366	15.106	871.319	658.113
266.380	14.922	871.165	657.215
267.395	14.984	870.386	656.813
268.409	14.963	869.774	656.210
269.424	15.058	869.237	656.118
270.439	14.989	868.141	654.965
271.453	15.007	867.555	654.536
272.468	14.930	867.246	653.943
273.482	15.065	866.513	653.859
274.497	15.064	865.876	653.315
275.512	15.009	865.647	652.870
276.526	15.094	864.875	652.562
277.541	15.066	864.470	652.089
278.555	15.143	863.961	651.947
279.570	15.240	863.018	651.555
280.585	15.161	862.393	650.720
281.599	15.198	861.963	650.480
282.614	15.196	860.915	649.624
283.628	15.308	860.392	649.607
284.643	15.193	860.034	648.833
285.657	15.324	859.228	648.675
286.672	15.219	858.489	647.653
287.687	15.407	857.984	647.942
288.701	15.338	857.303	647.104
289.716	15.293	857.091	646.713
290.730	15.315	855.949	645.880
291.745	15.415	855.292	645.709
292.760	15.407	854.749	645.212
293.774	15.387	854.546	644.926
294.789	15.445	853.982	644.666
295.803	15.484	852.904	643.946
296.818	15.415	852.524	643.335
297.833	15.314	851.635	642.221
298.847	15.403	850.918	641.964
299.862	15.529	850.363	641.973
300.876	15.467	850.107	641.484
301.891	15.630	849.466	641.565
302.906	15.574	848.685	640.703
303.920	15.517	848.557	640.334
304.935	15.587	847.898	640.047
305.949	15.714	847.427	640.118
306.964	15.568	846.820	639.048
307.979	15.547	846.537	638.697
308.993	15.682	845.412	638.307
310.008	15.840	844.950	638.498
311.022	15.776	844.571	637.913
312.037	15.636	843.779	636.728
313.052	15.533	843.241	635.877
314.066	15.632	842.452	635.602
315.081	15.641	842.205	635.392
316.095	15.658	841.456	634.835
317.110	15.617	841.139	634.383
318.125	15.662	840.495	634.014
319.139	15.766	839.827	633.844
320.154	15.619	839.599	633.063
321.168	15.652	839.026	632.697
322.183	15.715	838.322	632.347
323.197	15.651	838.298	632.034
324.212	15.834	837.220	631.851
325.227	15.731	836.912	631.178
326.241	15.823	836.525	631.176
327.256	15.813	835.649	630.421
328.270	15.729	835.288	629.779
329.285	15.809	834.871	629.707
330.300	15.698	834.271	628.784
331.314	15.779	833.839	628.704
332.329	15.854	833.548	628.709
333.343	15.886	832.953	628.327
334.358	15.878	832.335	627.773
335.373	15.817	832.159	627.357
336.387	15.914	831.501	627.169
337.402	15.977	831.373	627.250
338.416	16.054	831.219	627.364
339.431	16.123	830.628	627.121
340.446	16.078	829.789	626.263
341.460	16.044	829.749	626.051
342.475	16.011	829.347	625.571
343.489	16.172	828.527	625.492
344.504	16.264	827.943	625.338
345.519	16.162	827.557	624.615
346.533	16.165	827.638	624.631
347.548	16.123	826.901	623.863
348.562	16.206	825.959	623.404
349.577	16.090	825.656	622.691
350.592	16.064	825.262	622.244
351.606	16.130	824.409	621.789
352.621	16.246	823.588	621.543
353.635	16.084	823.178	620.582
354.650	16.026	823.068	620.229
355.665	16.072	822.173	619.671
356.679	16.343	821.011	619.733
357.694	16.409	820.260	619.354
358.708	16.218	820.265	618.603
359.723	16.182	819.590	617.907
360.738	16.262	819.271	617.905
361.752	16.454	818.316	617.831
362.767	16.480	817.810	617.490
363.781	16.462	817.181	616.897
364.796	16.613	816.735	617.054
365.810	16.460	816.611	616.350
366.825	16.526	816.341	616.330
367.840	16.504	815.551	615.601
368.854	16.480	815.154	615.157
369.869	16.556	814.739	615.066
370.883	16.354	814.585	614.162
371.898	16.620	813.831	614.506
372.913	16.746	813.546	614.694
373.927	16.585	812.955	613.608
374.942	16.484	812.555	612.886
375.956	16.686	812.052	613.184
376.971	16.699	811.827	613.007
377.986	16.896	811.362	613.315
379.000	16.708	811.153	612.423
380.015	16.854	810.010	612.031
381.029	16.923	809.160	611.586
382.044	16.864	809.020	611.213
383.059	16.726	808.959	610.615
384.073	16.787	807.954	610.020
385.088	16.803	807.303	609.532
386.102	16.756	806.790	608.924
387.117	16.854	806.424	608.947
388.132	16.809	805.745	608.215
389.146	17.000	805.069	608.339
390.161	16.815	805.033	607.592
391.175	16.929	804.235	607.346
392.190	16.900	803.929	606.958
393.205	17.001	803.364	606.837
394.219	16.841	803.210	606.097
395.234	16.792	802.974	605.690
396.248	16.844	802.238	605.265
397.263	16.932	801.751	605.158
398.278	16.823	801.892	604.822
399.292	16.819	801.061	604.128
400.307	16.989	800.526	604.276
401.321	16.958	799.677	603.472
402.336	16.934	799.651	603.315
403.350	16.776	799.335	602.459
404.365	16.912	798.833	602.513
405.380	17.037	798.558	602.696
406.394	17.026	797.608	601.884
407.409	17.186	797.349	602.204
408.423	17.198	796.956	601.898
409.438	17.194	796.542	601.517
410.453	17.177	796.659	601.491
411.467	17.205	795.775	600.871
412.482	17.422	795.008	601.005
413.496	17.228	794.911	600.193
414.511	17.205	794.779	599.959
415.526	17.310	794.024	599.704
416.540	17.467	793.440	599.766
417.555	17.467	792.697	599.150
418.569	17.384	792.614	598.743
419.584	17.321	792.604	598.461
420.599	17.480	791.740	598.314
421.613	108.826	1289.823	1466.100
422.628	93.427	1362.370	1466.190
