DTS Sentinel unit serial number:	SN413079Multiplexer serial number:	ORYXHardware model number:	OX4-SRSoftware version number:	ORYX F/W v4.00 Oryx Data Collector v3.7.2.0data status	okinstallation	princeton_trtdifferential loss correction	single-endedforward channel	channel 1reverse channel	N/Adate	2019/09/14time	20:46:35forward acquisition time	60.00reverse acquisition time	0.00gamma	496.2192k internal	0.2317k external	0.2317temperature offset calibration	1.0016default loss term (dB/km)	0.3790temperature slope calibration	1.0000multiplexer offset coefficient	1.0000multiplexer slope coefficient	1.0000fibre end	0.00T internal ref (°C)	33.31T ext. ref 1 (°C)	4.80T ext. ref 2 (°C)	27.95length (m)	temperature (°C)	Stokes	anti-Stokes-747.200	14.241	-0.149	-0.117
-746.185	71.776	0.136	0.143
-745.171	30.962	0.205	0.178
-744.156	-144.374	0.409	0.038
-743.142	7.658	0.133	0.101
-742.127	-112.644	-0.439	0.088
-741.112	534.877	0.158	-0.380
-740.098	-195.481	0.201	-0.001
-739.083	-111.463	0.189	-0.039
-738.069	-200.000	-0.014	-0.255
-737.054	263.965	0.241	0.423
-736.039	-78.124	-0.175	0.061
-735.025	-161.449	-0.388	0.020
-734.010	414.706	-0.217	-0.467
-732.996	552.470	-0.048	0.116
-731.981	800.000	0.002	-0.006
-730.966	-44.786	-0.227	0.114
-729.952	-145.418	0.269	0.024
-728.937	800.000	0.120	-0.363
-727.923	800.000	0.077	-0.324
-726.908	186.573	-0.112	0.168
-725.894	39.555	-0.411	-0.373
-724.879	-64.192	-0.119	-0.049
-723.864	-200.000	-0.010	-0.099
-722.850	-200.000	0.068	0.501
-721.835	-199.020	-0.273	-0.001
-720.821	-106.830	-0.147	-0.033
-719.806	-64.142	-0.338	-0.139
-718.791	-38.465	-0.356	-0.190
-717.777	-200.000	-0.017	-0.115
-716.762	52.056	0.235	0.227
-715.748	617.886	0.059	-0.149
-714.733	32.920	0.179	0.157
-713.718	-105.661	-0.234	0.054
-712.704	352.346	-0.065	-0.131
-711.689	27.106	-0.030	-0.026
-710.675	-200.000	0.014	0.133
-709.660	273.558	0.185	0.331
-708.645	92.358	-0.188	0.215
-707.631	-200.000	0.011	0.159
-706.616	115.947	0.198	-0.245
-705.602	457.534	0.076	0.170
-704.587	-64.427	-0.187	0.077
-703.572	800.000	-0.094	-0.279
-702.558	800.000	-0.064	0.242
-701.543	800.000	0.027	-0.113
-700.529	800.000	0.041	0.166
-699.514	-29.485	0.077	-0.044
-698.499	-200.000	-0.043	0.251
-697.485	-76.566	-0.121	0.043
-696.470	-200.000	0.060	0.296
-695.456	-66.004	-0.206	-0.083
-694.441	407.667	-0.060	-0.128
-693.426	-160.093	-0.283	0.016
-692.412	-200.000	0.042	-0.230
-691.397	3.136	0.219	-0.161
-690.383	-200.000	-0.027	0.359
-689.368	68.736	-0.015	0.016
-688.354	259.181	-0.054	-0.095
-687.339	-107.124	-0.259	0.058
-686.324	-110.530	0.117	-0.024
-685.310	134.759	-0.185	-0.242
-684.295	207.963	-0.142	-0.224
-683.281	-38.793	-0.273	-0.146
-682.266	-169.992	-0.256	0.009
-681.251	-200.000	-0.049	0.366
-680.237	-191.253	-0.075	0.001
-679.222	-3.311	0.149	0.105
-678.208	800.000	0.045	-0.183
-677.193	-109.083	-0.195	0.042
-676.178	800.000	0.028	0.105
-675.164	800.000	-0.038	0.111
-674.149	277.468	-0.092	-0.165
-673.135	-108.910	-0.155	0.033
-672.120	800.000	0.067	0.230
-671.105	225.866	0.080	0.130
-670.091	-78.197	-0.115	0.040
-669.076	-117.746	-0.415	0.075
-668.062	-73.189	0.076	0.028
-667.047	-150.681	0.042	0.003
-666.032	800.000	0.087	-0.256
-665.018	69.884	-0.185	-0.192
-664.003	800.000	-0.058	0.179
-662.989	-194.856	-0.268	-0.002
-661.974	-159.214	-0.261	-0.015
-660.959	744.027	-0.079	0.214
-659.945	-200.000	-0.018	0.103
-658.930	-71.085	0.256	-0.097
-657.916	23.809	0.220	-0.183
-656.901	-27.800	0.361	-0.211
-655.886	-169.816	-0.189	0.007
-654.872	-128.664	0.307	0.044
-653.857	-111.402	0.219	-0.045
-652.843	157.743	-0.244	0.341
-651.828	-82.404	-0.083	0.027
-650.814	-21.396	0.288	-0.177
-649.799	-60.832	0.461	-0.197
-648.784	148.959	-0.115	-0.157
-647.770	-200.000	-0.007	-0.180
-646.755	-200.000	-0.001	-0.132
-645.741	-87.979	0.167	0.051
-644.726	261.443	0.139	-0.242
-643.711	62.865	0.052	0.053
-642.697	800.000	0.063	0.196
-641.682	409.018	-0.005	-0.011
-640.668	-57.152	0.181	0.080
-639.653	800.000	0.025	0.106
-638.638	-52.682	0.319	0.148
-637.624	-117.360	-0.298	0.054
-636.609	56.436	-0.068	-0.067
-635.595	-139.407	-0.195	0.021
-634.580	800.000	0.052	-0.184
-633.565	-26.316	0.205	0.121
-632.551	72.319	-0.268	0.281
-631.536	-123.530	0.237	0.038
-630.522	800.000	0.087	0.243
-629.507	493.807	-0.039	-0.090
-628.492	134.233	0.077	-0.101
-627.478	-89.276	-0.096	0.029
-626.463	-200.000	-0.048	-0.418
-625.449	-200.000	0.007	-0.261
-624.434	-47.675	0.118	-0.058
-623.419	-109.026	-0.184	0.040
-622.405	800.000	0.036	0.132
-621.390	-200.000	-0.043	0.335
-620.376	-200.000	0.049	0.307
-619.361	-12.268	-0.176	-0.116
-618.346	0.109	-0.064	0.046
-617.332	54.704	0.162	0.157
-616.317	-200.000	-0.001	-0.029
-615.303	234.975	-0.028	-0.047
-614.288	-5.946	0.215	-0.148
-613.273	120.231	-0.069	-0.086
-612.259	17.051	-0.071	-0.057
-611.244	-200.000	-0.040	-0.331
-610.230	800.000	-0.091	-0.275
-609.215	-4.923	0.164	-0.114
-608.201	-123.162	-0.242	-0.039
-607.186	-200.000	0.007	-0.340
-606.171	83.091	0.069	-0.075
-605.157	-77.104	-0.093	-0.033
-604.142	-200.000	0.001	0.202
-603.128	-200.000	0.001	-0.141
-602.113	-145.098	0.214	-0.020
-601.098	-200.000	0.016	-0.072
-600.084	-200.000	-0.019	0.161
-599.069	-35.938	0.152	-0.083
-598.055	-160.209	-0.215	-0.012
-597.040	-128.606	0.111	0.016
-596.025	62.488	-0.132	-0.133
-595.011	360.223	-0.069	-0.139
-593.996	-200.000	-0.019	-0.247
-592.982	-48.870	0.339	0.164
-591.967	-172.566	-0.407	-0.013
-590.952	-77.212	0.249	0.087
-589.938	-41.580	0.113	-0.058
-588.923	-115.891	-0.179	0.034
-587.909	238.273	-0.075	-0.126
-586.894	-20.251	-0.252	0.156
-585.879	-200.000	0.040	-0.453
-584.865	-200.000	0.003	-0.074
-583.850	-71.516	0.158	0.059
-582.836	578.772	-0.102	0.252
-581.821	-42.875	-0.309	0.158
-580.806	54.301	0.159	0.154
-579.792	800.000	-0.056	0.197
-578.777	-48.877	0.115	-0.056
-577.763	-200.000	-0.021	0.221
-576.748	-19.500	-0.065	-0.041
-575.733	800.000	-0.052	0.205
-574.719	-5.879	0.233	-0.160
-573.704	570.549	-0.024	0.058
-572.690	-200.000	-0.009	-0.140
-571.675	-97.791	-0.175	0.045
-570.661	800.000	0.113	0.357
-569.646	-200.000	-0.021	0.236
-568.631	800.000	-0.089	0.335
-567.617	-88.526	-0.132	0.039
-566.602	-41.066	0.213	-0.111
-565.588	-200.000	-0.022	-0.395
-564.573	-104.507	0.193	0.045
-563.558	-64.291	-0.257	-0.105
-562.544	-72.019	0.152	0.057
-561.529	-72.783	0.026	-0.010
-560.515	282.839	0.031	-0.055
-559.500	205.734	-0.067	-0.105
-558.485	211.960	-0.079	-0.125
-557.471	-200.000	-0.000	0.054
-556.456	96.796	-0.372	-0.428
-555.442	-200.000	-0.012	0.093
-554.427	-146.625	0.045	0.004
-553.412	670.879	0.140	0.365
-552.398	-139.993	-0.246	-0.026
-551.383	92.279	0.200	0.226
-550.369	127.351	0.073	0.093
-549.354	-103.917	-0.242	0.057
-548.339	-135.927	-0.422	0.050
-547.325	-103.258	0.158	0.037
-546.310	-200.000	-0.008	0.135
-545.296	-15.698	-0.074	-0.047
-544.281	-82.932	0.277	-0.090
-543.266	-200.000	0.001	0.072
-542.252	-200.000	-0.007	0.039
-541.237	607.343	0.202	0.506
-540.223	164.296	0.101	-0.142
-539.208	106.043	-0.071	0.085
-538.193	72.392	0.193	-0.202
-537.179	57.607	-0.073	-0.072
-536.164	-80.998	-0.117	-0.039
-535.150	800.000	-0.104	0.325
-534.135	-78.162	-0.218	0.075
-533.121	-95.857	-0.040	-0.011
-532.106	800.000	0.046	0.181
-531.091	158.565	-0.117	0.163
-530.077	-200.000	0.035	-0.272
-529.062	-76.115	-0.172	0.061
-528.048	247.540	-0.185	0.314
-527.033	-52.773	-0.114	0.053
-526.018	175.621	-0.084	0.123
-525.004	-98.058	0.172	-0.045
-523.989	159.326	-0.062	-0.087
-522.975	79.099	-0.083	0.089
-521.960	800.000	0.076	-0.229
-520.945	-18.345	0.045	-0.028
-519.931	199.563	0.137	0.211
-518.916	268.012	0.035	-0.062
-517.902	-82.828	0.208	0.067
-516.887	-114.942	0.176	-0.034
-515.872	-169.546	0.038	0.001
-514.858	-5.001	-0.111	0.077
-513.843	-110.701	0.195	-0.040
-512.829	-2.230	-0.146	0.103
-511.814	-88.462	0.363	0.109
-510.799	-200.000	0.011	0.069
-509.785	-97.321	-0.182	0.048
-508.770	84.370	-0.058	0.063
-507.756	306.456	0.030	0.056
-506.741	-200.000	-0.068	-0.460
-505.726	175.678	-0.106	-0.154
-504.712	130.579	-0.104	0.133
-503.697	-200.000	0.001	-0.102
-502.683	800.000	-0.158	-0.557
-501.668	175.518	-0.147	-0.214
-500.653	340.519	-0.025	-0.049
-499.639	-75.581	0.245	0.087
-498.624	-20.797	0.073	-0.045
-497.610	-200.000	-0.027	0.171
-496.595	-200.000	0.020	-0.308
-495.581	410.388	0.109	-0.233
-494.566	422.289	0.034	-0.072
-493.551	-99.587	-0.225	0.057
-492.537	-135.484	0.165	-0.020
-491.522	-32.705	-0.226	-0.126
-490.508	-32.757	-0.116	0.065
-489.493	-56.491	-0.212	0.094
-488.478	-47.739	0.291	0.141
-487.464	290.725	0.095	-0.173
-486.449	36.106	-0.238	-0.210
-485.435	-19.139	-0.352	-0.219
-484.420	-200.000	-0.009	0.246
-483.405	39.665	0.182	0.163
-482.391	-81.935	-0.172	0.056
-481.376	-173.030	0.205	-0.006
-480.362	21.061	0.099	-0.080
-479.347	77.379	0.044	-0.047
-478.332	145.497	0.086	-0.115
-477.318	60.880	0.187	0.186
-476.303	-200.000	-0.050	0.372
-475.289	-49.983	-0.180	0.086
-474.274	-19.275	0.053	-0.033
-473.259	800.000	0.075	0.248
-472.245	-129.279	-0.160	-0.022
-471.230	121.233	0.333	-0.416
-470.216	-40.811	0.045	-0.023
-469.201	-134.567	-0.257	0.031
-468.186	504.536	-0.059	-0.137
-467.172	-200.000	-0.041	-0.318
-466.157	677.020	0.142	0.371
-465.143	-28.348	0.187	-0.108
-464.128	-200.000	-0.020	0.150
-463.113	-200.000	0.002	-0.171
-462.099	800.000	-0.046	-0.187
-461.084	-162.194	-0.205	0.010
-460.070	84.756	0.011	-0.012
-459.055	-69.622	0.162	-0.062
-458.040	800.000	0.131	-0.363
-457.026	458.973	-0.058	-0.129
-456.011	-19.023	0.033	-0.021
-454.997	19.847	-0.253	-0.204
-453.982	-140.896	-0.079	-0.008
-452.968	55.521	-0.152	0.148
-451.953	-109.841	0.223	0.047
-450.938	-59.141	-0.241	0.104
-449.924	-200.000	-0.043	0.228
-448.909	83.663	0.122	0.133
-447.895	390.756	0.187	-0.388
-446.880	-66.705	0.258	0.102
-445.865	208.288	-0.142	-0.222
-444.851	250.757	-0.039	-0.066
-443.836	543.329	-0.086	0.206
-442.822	28.136	-0.250	0.211
-441.807	-200.000	-0.037	0.256
-440.792	-3.091	-0.150	0.105
-439.778	523.169	-0.045	0.105
-438.763	-68.764	-0.307	-0.119
-437.749	-200.000	-0.010	-0.107
-436.734	77.442	-0.103	-0.110
-435.719	800.000	0.032	-0.126
-434.705	93.964	-0.069	0.078
-433.690	-35.745	0.055	0.030
-432.676	411.319	-0.108	0.230
-431.661	-75.182	0.046	-0.016
-430.646	-72.319	-0.335	-0.124
-429.632	-60.702	0.054	-0.023
-428.617	-45.438	0.079	-0.039
-427.603	61.577	-0.124	0.124
-426.588	366.809	-0.108	-0.217
-425.573	133.167	-0.132	0.171
-424.559	-184.308	0.291	0.005
-423.544	121.386	-0.036	-0.044
-422.530	-46.681	0.163	0.080
-421.515	-43.703	-0.214	-0.108
-420.500	128.018	0.114	-0.144
-419.486	-134.283	0.192	0.024
-418.471	120.335	-0.024	-0.030
-417.457	-82.002	-0.592	0.193
-416.442	-149.651	-0.226	-0.018
-415.428	-56.641	-0.318	-0.141
-414.413	-66.105	0.124	0.049
-413.398	404.709	-0.133	-0.280
-412.384	169.146	0.230	0.329
-411.369	189.394	-0.074	-0.111
-410.355	-29.372	0.259	0.148
-409.340	-99.198	-0.160	-0.040
-408.325	800.000	-0.057	-0.188
-407.311	-9.223	-0.076	-0.051
-406.296	234.336	0.120	0.198
-405.282	-72.013	-0.226	0.084
-404.267	161.632	0.116	0.163
-403.252	-5.923	-0.169	0.115
-402.238	-69.925	0.136	-0.052
-401.223	800.000	-0.064	-0.221
-400.209	-200.000	0.034	0.261
-399.194	17.378	0.313	0.248
-398.179	64.560	0.047	0.048
-397.165	-145.531	-0.033	0.003
-396.150	484.574	0.039	-0.088
-395.136	519.499	-0.108	-0.252
-394.121	-115.809	-0.197	0.037
-393.106	-80.686	-0.078	-0.026
-392.092	800.000	-0.037	-0.132
-391.077	-140.496	-0.100	0.010
-390.063	188.092	-0.133	-0.198
-389.048	-109.894	0.306	0.064
-388.033	-75.815	0.159	-0.056
-387.019	95.530	-0.155	-0.177
-386.004	-49.027	0.126	-0.060
-384.990	-200.000	-0.008	0.194
-383.975	-200.000	-0.065	0.285
-382.960	-95.135	0.299	0.081
-381.946	-108.327	-0.142	-0.031
-380.931	-127.356	-0.363	0.053
-379.917	-30.032	-0.158	0.090
-378.902	530.067	-0.125	0.295
-377.888	-165.308	0.172	-0.008
-376.873	-107.219	-0.413	0.091
-375.858	-200.000	-0.026	0.212
-374.844	-21.081	-0.087	-0.053
-373.829	121.441	0.189	0.235
-372.815	-86.575	0.073	-0.022
-371.800	800.000	0.097	0.269
-370.785	84.360	-0.160	-0.174
-369.771	162.400	-0.098	-0.137
-368.756	-74.964	-0.196	0.070
-367.742	340.053	0.103	-0.200
-366.727	66.323	-0.144	-0.146
-365.712	-200.000	-0.229	-0.000
-364.698	19.705	-0.181	-0.145
-363.683	118.070	-0.147	0.181
-362.669	245.433	0.174	-0.291
-361.654	758.058	0.109	0.294
-360.639	-159.969	0.348	0.019
-359.625	-200.000	-0.024	-0.138
-358.610	19.198	-0.219	-0.176
-357.596	142.807	0.149	-0.198
-356.581	316.605	0.040	-0.076
-355.566	-200.000	0.041	-0.266
-354.552	-200.000	-0.032	0.163
-353.537	-200.000	-0.022	-0.228
-352.523	-200.000	-0.064	-0.296
-351.508	100.746	-0.310	-0.359
-350.493	-20.743	0.017	-0.011
-349.479	161.156	0.098	-0.137
-348.464	-200.000	-0.013	-0.068
-347.450	79.824	-0.013	0.014
-346.435	423.171	0.135	0.290
-345.420	-19.993	-0.313	0.193
-344.406	-136.629	-0.255	0.029
-343.391	92.627	0.079	0.089
-342.377	308.866	-0.027	-0.050
-341.362	40.071	0.200	0.179
-340.348	-200.000	0.009	-0.168
-339.333	-77.235	0.142	0.049
-338.318	-148.196	0.240	0.020
-337.304	-90.838	-0.321	0.092
-336.289	148.668	-0.148	0.200
-335.275	-200.000	-0.004	-0.325
-334.260	212.755	-0.052	-0.082
-333.245	800.000	0.037	0.151
-332.231	-151.926	0.220	0.016
-331.216	238.331	-0.196	-0.325
-330.202	357.299	0.097	-0.192
-329.187	-200.000	-0.026	-0.237
-328.172	-105.597	0.476	0.107
-327.158	-130.199	-0.262	0.036
-326.143	800.000	-0.022	0.083
-325.129	155.606	-0.182	0.249
-324.114	30.403	-0.235	-0.200
-323.099	77.357	0.150	-0.158
-322.085	138.329	0.287	0.375
-321.070	-56.146	-0.149	-0.066
-320.056	-72.916	0.228	-0.083
-319.041	-200.000	-0.035	-0.243
-318.026	485.779	0.092	-0.208
-317.012	17.832	0.374	-0.297
-315.997	-35.944	0.176	-0.095
-314.983	339.409	0.058	-0.113
-313.968	800.000	-0.065	0.207
-312.953	-200.000	0.001	-0.223
-311.939	2.594	-0.245	-0.176
-310.924	-176.182	-0.141	-0.004
-309.910	800.000	0.120	0.362
-308.895	17.007	-0.144	-0.114
-307.880	132.070	0.221	0.283
-306.866	20.524	0.112	-0.090
-305.851	330.796	0.129	-0.247
-304.837	284.976	-0.086	0.155
-303.822	-69.343	0.149	0.057
-302.807	-200.000	-0.038	-0.407
-301.793	42.430	-0.059	-0.054
-300.778	-15.180	-0.234	-0.149
-299.764	233.929	0.102	-0.167
-298.749	186.362	-0.281	0.416
-297.735	405.735	0.101	0.212
-296.720	-200.000	0.068	-0.421
-295.705	66.289	0.143	0.145
-294.691	-88.939	0.269	0.079
-293.676	-49.582	0.002	-0.001
-292.662	-162.283	0.300	0.015
-291.647	800.000	-0.055	0.234
-290.632	507.206	-0.041	-0.095
-289.618	257.776	-0.069	-0.118
-288.603	38.663	0.186	-0.165
-287.589	-68.047	0.110	-0.042
-286.574	800.000	-0.091	0.253
-285.559	-143.004	-0.339	0.033
-284.545	382.940	0.125	0.257
-283.530	-200.000	0.013	0.386
-282.516	38.792	-0.140	0.124
-281.501	83.263	-0.127	0.138
-280.486	800.000	0.015	-0.063
-279.472	-200.000	-0.016	0.099
-278.457	800.000	0.109	0.310
-277.443	-152.320	0.190	0.014
-276.428	40.218	-0.033	-0.029
-275.413	57.658	-0.132	-0.128
-274.399	458.156	-0.065	-0.144
-273.384	-65.536	-0.147	-0.059
-272.370	-200.000	0.002	-0.136
-271.355	-14.433	0.217	0.139
-270.340	800.000	-0.038	0.125
-269.326	343.617	-0.092	0.179
-268.311	800.000	-0.081	0.347
-267.297	-102.298	0.046	0.011
-266.282	-200.000	-0.028	-0.239
-265.267	-200.000	0.014	0.080
-264.253	194.043	-0.067	-0.101
-263.238	-200.000	-0.006	-0.140
-262.224	-200.000	0.015	-0.073
-261.209	-85.102	-0.214	0.067
-260.195	787.932	-0.125	0.340
-259.180	-80.441	0.123	-0.041
-258.165	153.057	-0.136	-0.184
-257.151	135.535	-0.045	-0.058
-256.136	-147.063	0.124	0.011
-255.122	-73.158	-0.471	-0.171
-254.107	158.475	-0.073	-0.100
-253.092	-18.542	0.153	0.095
-252.078	63.983	0.143	-0.143
-251.063	-124.373	0.214	0.033
-250.049	-154.389	0.131	-0.009
-249.034	552.307	0.047	0.113
-248.019	-89.254	0.187	-0.055
-247.005	5.588	0.121	0.089
-245.990	-200.000	0.029	0.249
-244.976	169.484	0.103	-0.147
-243.961	-32.747	-0.063	-0.035
-242.946	-200.000	-0.033	0.253
-241.932	176.206	0.057	0.082
-240.917	87.289	0.046	-0.050
-239.903	65.218	-0.284	-0.285
-238.888	-200.000	0.017	0.117
-237.873	-200.000	0.016	-0.149
-236.859	-118.476	0.110	-0.019
-235.844	-113.145	0.081	0.016
-234.830	-94.831	0.273	0.073
-233.815	89.167	-0.169	0.187
-232.800	-200.000	-0.047	-0.271
-231.786	17.141	-0.232	0.183
-230.771	49.138	0.404	-0.376
-229.757	5.535	0.278	0.204
-228.742	-200.000	-0.007	-0.047
-227.727	-178.454	0.237	-0.005
-226.713	-200.000	-0.032	0.227
-225.698	-200.000	-0.050	0.268
-224.684	74.446	0.178	-0.185
-223.669	800.000	-0.046	0.180
-222.655	50.716	0.078	0.073
-221.640	443.327	0.057	0.124
-220.625	-200.000	-0.036	0.216
-219.611	117.764	-0.156	0.190
-218.596	256.856	-0.117	-0.200
-217.582	516.705	0.096	0.222
-216.567	-200.000	0.042	0.240
-215.552	-18.423	0.111	-0.069
-214.538	93.642	0.192	0.215
-213.523	-98.640	-0.038	-0.010
-212.509	37.905	0.160	-0.141
-211.494	-168.655	-0.210	0.008
-210.479	-200.000	0.022	0.254
-209.465	-200.000	-0.010	0.197
-208.450	-147.122	0.128	-0.011
-207.436	-6.404	0.101	-0.068
-206.421	556.843	-0.082	0.195
-205.406	70.382	0.159	0.162
-204.392	-43.706	-0.493	-0.246
-203.377	800.000	-0.092	-0.306
-202.363	-75.364	0.434	-0.153
-201.348	-19.809	0.105	0.064
-200.333	-136.045	-0.124	-0.014
-199.319	126.232	-0.148	-0.186
-198.304	-200.000	-0.015	-0.212
-197.290	-147.041	0.303	0.026
-196.275	-200.000	0.017	0.189
-195.260	-81.553	0.110	-0.036
-194.246	-78.646	-0.099	0.034
-193.231	-70.427	0.262	-0.098
-192.217	-118.314	0.272	-0.048
-191.202	24.371	-0.147	-0.120
-190.187	-31.970	0.406	-0.225
-189.173	61.794	0.176	0.173
-188.158	-152.486	0.017	-0.001
-187.144	-11.665	-0.145	-0.094
-186.129	-169.189	0.052	0.002
-185.114	-200.000	-0.067	0.385
-184.100	185.632	0.148	0.217
-183.085	-27.755	0.227	0.130
-182.071	763.719	0.118	-0.317
-181.056	748.979	-0.034	-0.090
-180.042	148.212	0.270	0.362
-179.027	-200.000	-0.052	0.335
-178.012	-200.000	0.021	-0.217
-176.998	-200.000	0.030	-0.330
-175.983	-200.000	0.003	0.046
-174.969	-58.912	-0.216	0.092
-173.954	118.539	0.120	-0.146
-172.939	191.348	0.060	0.089
-171.925	-200.000	0.003	-0.282
-170.910	440.768	-0.175	0.379
-169.896	800.000	-0.080	0.272
-168.881	-30.204	-0.176	-0.099
-167.866	69.543	-0.183	-0.187
-166.852	-200.000	0.020	0.144
-165.837	698.785	0.107	-0.280
-164.823	162.083	0.175	0.243
-163.808	-116.735	0.205	-0.037
-162.793	800.000	-0.058	-0.167
-161.779	42.613	0.233	-0.210
-160.764	430.978	-0.173	0.370
-159.750	-92.323	0.123	-0.034
-158.735	-200.000	-0.021	0.312
-157.720	-30.739	0.124	0.069
-156.706	-200.000	0.020	-0.291
-155.691	800.000	-0.008	-0.032
-154.677	800.000	0.040	0.158
-153.662	-131.944	-0.110	0.014
-152.647	-200.000	0.009	-0.223
-151.633	-64.827	-0.095	-0.038
-150.618	218.929	-0.237	0.374
-149.604	-52.854	0.129	0.059
-148.589	-200.000	0.015	-0.178
-147.574	-200.000	-0.013	0.094
-146.560	-140.046	0.233	0.024
-145.545	-111.894	0.254	-0.051
-144.531	-200.000	0.004	0.028
-143.516	198.213	0.130	0.196
-142.502	-200.000	-0.045	0.234
-141.487	-23.948	0.106	-0.063
-140.472	-48.028	0.080	0.038
-139.458	-35.840	0.287	-0.153
-138.443	-200.000	0.001	-0.274
-137.429	-18.099	-0.241	-0.149
-136.414	193.884	0.093	-0.138
-135.399	-47.522	-0.294	-0.141
-134.385	-62.864	0.028	-0.012
-133.370	9.418	0.077	0.057
-132.356	-100.654	-0.251	-0.061
-131.341	-200.000	0.005	-0.328
-130.326	-86.845	-0.391	-0.118
-129.312	-34.902	0.180	0.097
-128.297	-200.000	-0.033	0.189
-127.283	-96.387	-0.479	0.125
-126.268	-96.816	0.335	-0.087
-125.253	-194.713	0.209	0.002
-124.239	-200.000	-0.020	-0.094
-123.224	-114.546	0.132	-0.025
-122.210	-138.091	-0.173	-0.019
-121.195	800.000	-0.015	-0.053
-120.180	-200.000	-0.037	-0.000
-119.166	-200.000	-0.020	-0.178
-118.151	3.939	0.196	0.142
-117.137	800.000	0.124	-0.407
-116.122	-84.661	0.212	-0.066
-115.107	-200.000	0.046	-0.382
-114.093	411.488	-0.095	-0.199
-113.078	141.899	0.168	0.221
-112.064	174.588	-0.040	0.057
-111.049	-79.764	0.165	-0.055
-110.034	-200.000	-0.006	-0.044
-109.020	110.576	-0.109	0.130
-108.005	67.038	0.338	0.340
-106.991	300.460	-0.104	-0.190
-105.976	-26.053	-0.206	0.120
-104.962	-170.472	0.314	0.011
-103.947	165.147	0.044	0.062
-102.932	340.979	0.111	-0.214
-101.918	-54.154	0.124	-0.056
-100.903	-94.626	0.186	0.050
-99.889	-200.000	0.059	-0.490
-98.874	800.000	-0.113	-0.391
-97.859	-16.129	-0.164	0.103
-96.845	800.000	0.074	0.269
-95.830	800.000	0.010	-0.028
-94.816	272.193	0.051	0.089
-93.801	-99.237	-0.336	0.084
-92.786	-22.543	0.071	-0.043
-91.772	115.103	-0.218	-0.263
-90.757	-26.152	0.114	0.066
-89.743	111.036	-0.197	0.234
-88.728	279.266	0.080	0.141
-87.713	-0.082	-0.088	0.062
-86.699	4.210	0.099	-0.071
-85.684	56.142	0.241	-0.231
-84.670	-200.000	0.021	-0.216
-83.655	-200.000	0.012	0.109
-82.640	24.207	-0.048	0.039
-81.626	544.530	-0.068	0.159
-80.611	-200.000	-0.087	-0.425
-79.597	90.472	0.233	-0.258
-78.582	151.470	-0.262	-0.352
-77.567	57.966	0.174	-0.168
-76.553	-64.150	0.152	-0.061
-75.538	-18.450	-0.120	0.074
-74.524	-14.135	-0.272	0.173
-73.509	-81.788	-0.223	-0.072
-72.494	-51.547	-0.348	-0.160
-71.480	-173.084	-0.197	0.006
-70.465	273.815	-0.077	0.134
-69.451	58.315	-0.171	-0.166
-68.436	61.895	0.167	-0.164
-67.422	17.360	-0.078	-0.061
-66.407	-200.000	0.009	-0.063
-65.392	-200.000	0.038	0.312
-64.378	800.000	0.035	0.097
-63.363	-200.000	-0.004	-0.159
-62.349	-117.542	0.106	0.019
-61.334	11.838	-1.197	-0.907
-60.319	-39.829	0.577	0.297
-59.305	451.559	-0.431	-0.939
-58.290	730.442	0.517	1.361
-57.276	-200.000	0.325	1.426
-56.261	-200.000	95.554	564.207
-55.246	624.962	1383.090	3437.110
-54.232	195.959	2561.479	3840.403
-53.217	118.474	2148.033	2612.262
-52.203	44.855	1610.084	1460.207
-51.188	36.877	1347.979	1174.336
-50.173	33.662	1305.980	1118.781
-49.159	56.112	1352.361	1293.524
-48.144	58.035	1369.753	1321.625
-47.130	37.009	1328.009	1157.541
-46.115	33.500	1310.589	1121.595
-45.100	33.385	1306.139	1117.063
-44.086	33.234	1303.507	1113.875
-43.071	33.122	1301.410	1111.380
-42.057	33.207	1299.038	1109.813
-41.042	33.341	1297.417	1109.166
-40.027	33.221	1296.357	1107.517
-39.013	33.204	1294.477	1105.765
-37.998	33.269	1292.836	1104.696
-36.984	33.267	1291.222	1103.262
-35.969	33.324	1289.417	1102.010
-34.954	33.312	1287.833	1100.542
-33.940	33.381	1286.099	1099.420
-32.925	33.436	1284.875	1098.646
-31.911	33.368	1283.359	1096.916
-30.896	33.424	1281.937	1095.978
-29.881	33.362	1280.943	1094.725
-28.867	33.498	1279.030	1093.835
-27.852	33.318	1278.048	1091.911
-26.838	33.456	1276.341	1091.203
-25.823	33.507	1275.186	1090.465
-24.809	33.325	1274.219	1088.551
-23.794	33.314	1272.664	1087.118
-22.779	33.407	1271.300	1086.443
-21.765	33.422	1270.100	1085.457
-20.750	33.455	1268.563	1084.294
-19.736	33.358	1267.781	1083.024
-18.721	33.185	1266.773	1081.135
-17.706	33.363	1265.251	1080.805
-16.692	33.285	1264.292	1079.500
-15.677	33.165	1263.449	1078.051
-14.663	33.295	1261.982	1077.496
-13.648	33.318	1260.845	1076.616
-12.633	33.278	1259.948	1075.578
-11.619	33.160	1259.382	1074.380
-10.604	33.287	1258.357	1074.186
-9.590	33.235	1257.220	1072.878
-8.575	33.239	1256.505	1072.250
-7.560	33.213	1255.693	1071.367
-6.546	33.255	1254.541	1070.578
-5.531	33.168	1254.008	1069.589
-4.517	33.293	1252.713	1069.150
-3.502	33.310	1252.174	1068.743
-2.487	33.281	1251.050	1067.578
-1.473	33.149	1247.441	1063.711
-0.458	31.795	1232.208	1043.147
0.556	27.388	1214.685	1003.934
1.571	23.417	1220.457	986.560
2.586	22.579	1235.808	994.156
3.600	21.770	1224.838	980.719
4.615	16.503	1153.668	895.819
5.629	8.579	1078.875	798.261
6.644	4.872	1059.526	765.684
7.659	4.726	1056.784	762.918
8.673	4.810	1055.647	762.441
9.688	4.772	1054.594	761.426
10.702	4.955	1052.662	760.858
11.717	9.278	1058.687	786.330
12.731	16.714	1068.640	830.241
13.746	19.481	1071.719	846.146
14.761	18.665	1070.012	840.729
15.775	17.601	1068.101	833.947
16.790	16.622	1066.033	827.477
17.804	15.773	1064.506	822.069
18.819	15.354	1063.561	819.222
19.834	15.238	1062.769	817.971
20.848	15.043	1061.520	815.986
21.863	14.832	1061.217	814.654
22.877	14.661	1060.211	812.976
23.892	14.532	1059.594	811.806
24.907	14.574	1058.766	811.303
25.921	14.738	1057.520	811.072
26.936	14.789	1056.401	810.390
27.950	14.665	1055.052	808.680
28.965	14.782	1053.749	808.176
29.980	14.845	1052.024	807.086
30.994	14.940	1050.926	806.632
32.009	14.986	1050.125	806.166
33.023	14.921	1048.824	804.785
34.038	14.920	1047.686	803.838
35.053	14.780	1047.101	802.644
36.067	14.767	1046.136	801.769
37.082	14.830	1045.672	801.645
38.096	14.849	1044.993	801.147
39.111	14.874	1044.123	800.528
40.126	14.788	1042.755	798.995
41.140	14.678	1041.283	797.273
42.155	14.582	1040.277	795.974
43.169	14.474	1039.117	794.499
44.184	14.589	1037.994	794.121
45.199	14.628	1036.891	793.390
46.213	14.654	1036.220	792.931
47.228	14.717	1035.151	792.341
48.242	14.843	1034.132	792.088
49.257	14.838	1033.127	791.225
50.271	14.877	1032.221	790.647
51.286	14.810	1031.369	789.605
52.301	14.785	1030.425	788.696
53.315	14.793	1029.119	787.666
54.330	14.733	1028.055	786.497
55.344	14.703	1027.439	785.814
56.359	14.591	1026.764	784.703
57.374	14.708	1025.524	784.238
58.388	14.628	1025.076	783.448
59.403	14.447	1024.305	781.941
60.417	14.555	1023.091	781.451
61.432	14.482	1022.443	780.544
62.447	14.444	1021.709	779.738
63.461	14.467	1020.625	778.947
64.476	14.524	1019.537	778.317
65.490	14.353	1019.476	777.403
66.505	14.537	1018.542	777.481
67.520	14.418	1018.074	776.497
68.534	14.606	1016.912	776.417
69.549	14.546	1016.021	775.393
70.563	14.436	1015.494	774.408
71.578	14.367	1015.054	773.683
72.593	14.390	1013.748	772.728
73.607	14.348	1013.094	771.966
74.622	14.338	1012.807	771.631
75.636	14.357	1011.905	770.963
76.651	14.282	1011.711	770.403
77.666	14.434	1010.883	770.404
78.680	14.369	1009.873	769.269
79.695	14.355	1009.501	768.852
80.709	14.536	1008.960	769.205
81.724	14.704	1007.664	768.924
82.739	14.705	1007.563	768.781
83.753	14.787	1007.038	768.691
84.768	14.955	1005.546	768.257
85.782	14.965	1005.233	767.997
86.797	14.957	1004.099	767.023
87.812	14.881	1003.146	765.880
88.826	14.787	1002.380	764.797
89.841	14.921	1001.400	764.594
90.855	14.925	1000.536	763.888
91.870	15.049	999.595	763.664
92.884	14.883	998.984	762.376
93.899	14.907	998.145	761.777
94.914	14.961	997.593	761.534
95.928	15.055	996.589	761.127
96.943	14.975	995.299	759.714
97.957	14.908	994.881	759.019
98.972	14.898	994.027	758.255
99.987	14.921	992.868	757.408
101.001	14.877	992.303	756.711
102.016	14.916	991.387	756.125
103.030	14.991	990.546	755.756
104.045	14.910	989.957	754.872
105.060	14.841	988.988	753.756
106.074	14.675	988.138	752.291
107.089	14.592	986.972	750.964
108.103	14.543	986.112	750.023
109.118	14.710	984.670	749.609
110.133	14.579	984.428	748.771
111.147	14.644	983.429	748.236
112.162	14.548	982.827	747.282
113.176	14.672	981.821	747.006
114.191	14.635	981.515	746.545
115.206	14.751	979.978	745.825
116.220	14.633	979.845	745.133
117.235	14.625	978.447	743.965
118.249	14.528	977.664	742.875
119.264	14.607	976.626	742.370
120.279	14.465	976.114	741.282
121.293	14.446	975.685	740.809
122.308	14.470	974.802	740.178
123.322	14.531	973.409	739.325
124.337	14.356	972.688	737.939
125.352	14.556	971.784	738.074
126.366	14.601	970.386	737.144
127.381	14.623	969.217	736.288
128.395	14.632	968.602	735.795
129.410	14.678	967.370	734.994
130.424	14.737	966.968	734.886
131.439	14.688	966.382	734.158
132.454	14.706	965.751	733.693
133.468	14.770	964.871	733.243
134.483	14.785	963.819	732.441
135.497	14.776	963.123	731.809
136.512	14.852	962.057	731.269
137.527	14.898	961.592	731.053
138.541	14.749	960.774	729.712
139.556	14.937	960.000	729.883
140.570	14.964	959.537	729.585
141.585	14.998	958.697	729.028
142.600	14.944	958.033	728.222
143.614	15.112	956.594	727.797
144.629	15.179	956.186	727.713
145.643	15.105	955.485	726.791
146.658	14.949	954.454	725.268
147.673	14.828	953.562	724.000
148.687	14.761	952.458	722.810
149.702	14.731	951.461	721.858
150.716	14.815	950.397	721.351
151.731	14.928	950.078	721.531
152.746	14.838	949.449	720.603
153.760	14.794	949.224	720.180
154.775	14.990	948.454	720.375
155.789	15.118	947.358	720.029
156.804	15.079	946.496	719.143
157.819	15.017	946.408	718.743
158.833	15.104	945.938	718.698
159.848	15.152	945.409	718.440
160.862	15.070	943.670	716.703
161.877	14.977	942.978	715.717
162.892	14.956	941.706	714.596
163.906	14.817	940.879	713.315
164.921	14.849	940.242	712.905
165.935	14.915	939.382	712.471
166.950	14.882	938.723	711.765
167.964	15.014	937.834	711.589
168.979	14.923	936.660	710.253
169.994	14.900	935.709	709.370
171.008	14.867	935.616	709.098
172.023	15.191	934.439	709.513
173.037	15.184	933.935	709.037
174.052	15.089	933.185	708.007
175.067	14.961	932.617	706.969
176.081	14.916	932.038	706.279
177.096	15.050	931.741	706.555
178.110	15.131	930.908	706.204
179.125	14.919	930.748	705.126
180.140	15.044	929.931	704.970
181.154	15.289	929.456	705.582
182.169	15.214	928.880	704.765
183.183	15.301	928.140	704.508
184.198	15.152	927.558	703.377
185.213	15.276	926.880	703.319
186.227	15.299	926.069	702.740
187.242	15.235	925.900	702.283
188.256	15.359	925.336	702.311
189.271	15.236	924.414	701.036
190.286	15.203	923.406	700.069
191.300	15.029	922.986	698.963
192.315	14.969	921.872	697.806
193.329	14.973	921.468	697.454
194.344	15.065	920.729	697.219
195.359	15.149	920.532	697.356
196.373	15.251	920.054	697.360
197.388	15.321	919.324	697.035
198.402	15.566	918.555	697.407
199.417	15.588	917.913	696.948
200.432	15.548	917.942	696.742
201.446	15.578	917.591	696.538
202.461	15.615	917.129	696.282
203.475	15.695	915.974	695.671
204.490	15.590	915.438	694.771
205.504	15.435	914.593	693.426
206.519	15.436	913.973	692.898
207.534	15.404	912.898	691.893
208.548	15.564	912.243	691.995
209.563	15.605	911.533	691.562
210.577	15.685	910.846	691.310
211.592	15.581	910.452	690.521
212.607	15.634	909.560	690.001
213.621	15.659	909.239	689.800
214.636	15.679	908.119	688.969
215.650	15.680	907.528	688.466
216.665	15.637	906.780	687.662
217.680	15.888	906.326	688.280
218.694	15.775	905.429	687.077
219.709	15.872	904.922	687.027
220.723	15.823	904.163	686.193
221.738	15.840	903.786	685.916
222.753	15.806	903.198	685.269
223.767	15.889	902.335	684.892
224.782	15.898	901.979	684.596
225.796	15.833	901.414	683.843
226.811	15.910	900.701	683.553
227.826	15.754	900.248	682.516
228.840	15.823	899.380	682.078
229.855	15.831	898.340	681.261
230.869	15.723	897.618	680.218
231.884	15.910	896.727	680.236
232.899	15.787	896.232	679.304
233.913	15.799	895.422	678.679
234.928	15.781	894.605	677.928
235.942	15.799	894.305	677.713
236.957	15.739	893.798	677.026
237.972	15.731	893.134	676.433
238.986	15.792	892.707	676.293
240.001	15.878	891.678	675.799
241.015	15.845	891.460	675.440
242.030	15.847	890.932	674.990
243.045	15.862	890.353	674.551
244.059	15.900	889.746	674.184
245.074	15.993	889.349	674.198
246.088	16.161	888.429	674.110
247.103	15.998	887.918	673.012
248.117	16.015	887.751	672.894
249.132	16.212	887.026	673.069
250.147	16.234	886.258	672.516
251.161	16.446	885.863	673.002
252.176	16.323	885.423	672.116
253.190	16.479	884.857	672.251
254.205	16.599	883.564	671.684
255.220	16.586	883.198	671.295
256.234	16.513	882.509	670.422
257.249	16.543	881.773	669.922
258.263	16.348	881.294	668.726
259.278	16.452	880.489	668.469
260.293	16.543	879.987	668.388
261.307	16.671	879.583	668.529
262.322	16.634	878.770	667.705
263.336	16.631	877.793	666.890
264.351	16.614	877.253	666.354
265.366	16.620	876.733	665.926
266.380	16.696	876.182	665.745
267.395	16.510	875.440	664.394
268.409	16.640	874.444	664.088
269.424	16.661	873.831	663.647
270.439	16.631	872.960	662.810
271.453	16.730	872.299	662.637
272.468	16.513	872.152	661.617
273.482	16.435	871.916	661.072
274.497	16.501	871.285	660.795
275.512	16.587	870.274	660.304
276.526	16.616	870.018	660.165
277.541	16.529	869.597	659.446
278.555	16.652	869.072	659.471
279.570	16.816	868.167	659.365
280.585	16.970	867.027	659.038
281.599	16.884	866.103	657.943
282.614	16.581	865.704	656.406
283.628	16.719	865.117	656.440
284.643	16.720	864.854	656.186
285.657	16.777	864.154	655.818
286.672	16.718	863.643	655.142
287.687	16.760	862.934	654.711
288.701	16.741	862.462	654.222
289.716	16.845	861.693	653.980
290.730	16.870	861.021	653.509
291.745	16.948	860.819	653.597
292.760	16.975	859.939	652.977
293.774	16.977	859.591	652.662
294.789	16.959	858.975	652.066
295.803	16.906	857.962	651.037
296.818	16.849	857.742	650.593
297.833	16.825	856.864	649.779
298.847	16.865	856.232	649.395
299.862	16.890	855.919	649.196
300.876	17.020	855.028	648.961
301.891	17.085	854.314	648.607
302.906	17.232	853.976	648.855
303.920	17.312	853.734	648.920
304.935	17.288	852.890	648.129
305.949	17.182	852.558	647.415
306.964	17.245	851.869	647.073
307.979	17.070	851.391	645.991
308.993	17.276	850.638	646.143
310.008	17.353	849.909	645.824
311.022	17.167	849.975	645.112
312.037	17.214	849.092	644.563
313.052	17.045	848.626	643.513
314.066	17.126	847.864	643.184
315.081	17.073	847.157	642.388
316.095	17.196	846.432	642.246
317.110	17.035	846.133	641.355
318.125	17.152	845.582	641.321
319.139	17.051	845.349	640.709
320.154	17.014	845.058	640.290
321.168	17.046	844.375	639.837
322.183	17.154	843.457	639.492
323.197	17.146	843.427	639.385
324.212	17.268	842.323	638.949
325.227	17.112	842.162	638.183
326.241	17.157	841.450	637.758
327.256	17.101	841.105	637.229
328.270	17.273	840.282	637.194
329.285	17.176	839.866	636.459
330.300	17.269	838.822	635.957
331.314	17.315	838.484	635.819
332.329	17.331	838.148	635.567
333.343	17.414	837.621	635.421
334.358	17.316	837.625	635.003
335.373	17.189	837.578	634.435
336.387	17.416	837.408	635.098
337.402	17.454	836.761	634.693
338.416	17.548	836.367	634.688
339.431	17.470	835.727	633.855
340.446	17.714	835.382	634.445
341.460	17.585	835.100	633.696
342.475	17.667	835.124	633.962
343.489	17.559	834.505	633.036
344.504	17.831	833.845	633.488
345.519	17.775	833.224	632.752
346.533	17.685	832.520	631.828
347.548	17.558	832.211	631.069
348.562	17.589	831.324	630.454
349.577	17.698	830.911	630.490
350.592	17.530	830.473	629.480
351.606	17.632	829.652	629.178
352.621	17.623	828.870	628.498
353.635	17.604	828.441	628.044
354.650	17.603	827.693	627.419
355.665	17.678	827.243	627.300
356.679	17.716	826.449	626.781
357.694	17.694	825.893	626.225
358.708	17.721	825.141	625.698
359.723	17.745	824.765	625.445
360.738	17.918	823.870	625.343
361.752	17.866	823.555	624.857
362.767	17.806	823.334	624.417
363.781	17.901	822.714	624.237
364.796	18.078	822.191	624.432
365.810	17.871	822.719	624.022
366.825	18.141	821.660	624.150
367.840	17.999	821.076	623.133
368.854	17.998	820.631	622.736
369.869	17.991	820.024	622.195
370.883	18.138	819.442	622.233
371.898	18.047	819.625	621.986
372.913	18.219	818.926	622.027
373.927	18.190	818.265	621.363
374.942	18.119	818.040	620.878
375.956	18.212	817.744	620.936
376.971	18.292	817.241	620.791
377.986	18.298	816.454	620.159
379.000	18.320	816.176	619.972
380.015	18.297	815.588	619.388
381.029	18.405	814.923	619.219
382.044	18.228	814.658	618.323
383.059	18.435	813.995	618.514
384.073	18.246	813.543	617.432
385.088	18.286	812.557	616.773
386.102	18.253	812.147	616.288
387.117	18.296	811.725	616.068
388.132	18.216	810.927	615.122
389.146	18.322	810.206	614.900
390.161	18.245	810.422	614.732
391.175	18.520	809.609	615.049
392.190	18.455	809.153	614.414
393.205	18.234	808.673	613.203
394.219	18.188	808.439	612.808
395.234	18.301	807.722	612.615
396.248	18.252	807.328	612.086
397.263	18.151	807.125	611.516
398.278	18.253	806.221	611.142
399.292	18.165	806.036	610.633
400.307	18.194	805.733	610.455
401.321	18.359	804.833	610.305
402.336	18.371	804.383	609.954
403.350	18.465	804.264	610.144
404.365	18.423	804.030	609.763
405.380	18.504	803.397	609.518
406.394	18.511	802.801	609.035
407.409	18.755	802.332	609.491
408.423	18.699	802.205	609.144
409.438	18.800	801.754	609.104
410.453	18.720	801.542	608.606
411.467	18.774	800.801	608.181
412.482	18.857	800.859	608.463
413.496	18.803	800.530	607.969
414.511	18.819	799.683	607.331
415.526	18.855	799.107	606.965
416.540	18.797	798.709	606.405
417.555	18.787	798.450	606.120
418.569	18.808	798.135	605.901
419.584	18.884	797.631	605.731
420.599	18.883	797.155	605.314
421.613	156.366	1371.400	1793.791
422.628	135.460	1455.081	1793.847
