DTS Sentinel unit serial number:	SN413079Multiplexer serial number:	ORYXHardware model number:	OX4-SRSoftware version number:	ORYX F/W v4.00 Oryx Data Collector v3.7.2.0data status	okinstallation	princeton_trtdifferential loss correction	single-endedforward channel	channel 1reverse channel	N/Adate	2019/09/17time	12:14:35forward acquisition time	60.00reverse acquisition time	0.00gamma	496.2192k internal	0.2321k external	0.2321temperature offset calibration	0.9973default loss term (dB/km)	0.3790temperature slope calibration	1.0000multiplexer offset coefficient	1.0000multiplexer slope coefficient	1.0000fibre end	0.00T internal ref (°C)	31.42T ext. ref 1 (°C)	0.43T ext. ref 2 (°C)	28.10length (m)	temperature (°C)	Stokes	anti-Stokes-747.200	-200.000	-0.037	-0.320
-746.185	570.330	-0.116	0.284
-745.171	-66.244	0.201	0.081
-744.156	178.267	0.124	0.183
-743.142	489.742	-0.046	0.106
-742.127	800.000	-0.056	-0.162
-741.112	-75.390	-0.325	0.117
-740.098	-19.833	-0.223	0.139
-739.083	800.000	-0.019	-0.054
-738.069	-185.691	-0.345	0.005
-737.054	309.119	0.071	0.134
-736.039	18.119	-0.285	0.229
-735.025	-200.000	-0.038	0.287
-734.010	800.000	-0.068	0.266
-732.996	-20.689	-0.374	-0.232
-731.981	-51.292	0.292	-0.138
-730.966	103.669	-0.252	0.299
-729.952	-200.000	0.021	0.207
-728.937	30.977	0.017	0.015
-727.923	-148.041	-0.152	-0.013
-726.908	39.949	-0.054	-0.049
-725.894	109.652	-0.037	0.044
-724.879	-67.896	-0.250	0.099
-723.864	239.449	0.201	-0.338
-722.850	-56.963	-0.263	-0.117
-721.835	182.711	-0.109	-0.163
-720.821	165.518	0.155	-0.221
-719.806	-123.190	-0.192	0.031
-718.791	-200.000	-0.040	0.237
-717.777	201.321	0.121	-0.189
-716.762	800.000	-0.106	-0.307
-715.748	199.067	-0.106	0.163
-714.733	135.175	0.029	0.038
-713.718	234.249	-0.146	0.243
-712.704	-40.229	-0.057	-0.030
-711.689	800.000	-0.042	-0.154
-710.675	-93.505	0.170	0.048
-709.660	132.541	0.211	0.275
-708.645	262.828	0.117	-0.205
-707.631	-136.504	0.275	0.032
-706.616	800.000	-0.064	0.257
-705.602	-173.081	-0.256	-0.008
-704.587	-4.924	-0.222	-0.155
-703.572	-200.000	-0.002	-0.207
-702.558	41.844	-0.263	-0.241
-701.543	-41.250	-0.073	-0.038
-700.529	-19.496	-0.121	-0.076
-699.514	609.882	0.104	-0.262
-698.499	-125.656	0.210	0.032
-697.485	304.502	-0.119	0.223
-696.470	-200.000	0.046	-0.206
-695.456	315.020	-0.139	0.265
-694.441	-45.808	0.130	0.065
-693.426	-83.719	-0.299	-0.096
-692.412	-17.647	-0.052	0.033
-691.397	-54.061	0.355	0.163
-690.383	6.280	-0.313	-0.234
-689.368	-200.000	0.021	-0.287
-688.354	8.929	-0.173	0.132
-687.339	-11.073	0.310	-0.206
-686.324	-105.202	-0.399	0.092
-685.310	451.293	-0.186	-0.414
-684.295	63.582	0.116	-0.117
-683.281	-200.000	-0.025	0.189
-682.266	-9.197	-0.197	0.133
-681.251	-7.684	0.068	-0.046
-680.237	-123.196	-0.257	-0.041
-679.222	-33.276	0.240	-0.134
-678.208	-142.510	-0.208	0.021
-677.193	-127.372	0.184	-0.027
-676.178	375.916	-0.081	-0.167
-675.164	8.072	-0.262	-0.198
-674.149	-200.000	0.016	0.100
-673.135	-94.857	0.283	0.077
-672.120	800.000	0.025	-0.110
-671.105	14.362	0.302	0.237
-670.091	447.819	-0.062	0.138
-669.076	-200.000	-0.007	-0.032
-668.062	172.416	0.240	-0.348
-667.047	800.000	0.051	-0.157
-666.032	-200.000	0.085	-0.472
-665.018	-97.818	0.186	-0.048
-664.003	265.271	0.150	0.264
-662.989	-21.757	0.150	-0.092
-661.974	-200.000	-0.002	-0.189
-660.959	800.000	-0.028	-0.103
-659.945	-21.997	0.102	0.062
-658.930	-101.718	0.215	0.053
-657.916	355.389	0.030	0.059
-656.901	-182.742	-0.475	0.009
-655.886	-37.064	0.191	-0.103
-654.872	-86.547	0.590	-0.182
-653.857	-117.344	-0.087	-0.016
-652.843	-107.144	-0.054	0.012
-651.828	178.784	-0.198	-0.292
-650.814	-45.855	0.406	-0.202
-649.799	-24.260	-0.088	-0.053
-648.784	427.033	-0.009	0.020
-647.770	800.000	0.039	0.143
-646.755	199.566	0.123	-0.190
-645.741	16.934	0.277	-0.221
-644.726	-200.000	-0.001	-0.135
-643.711	-42.639	0.188	-0.096
-642.697	-0.870	0.154	0.110
-641.682	-200.000	-0.029	-0.148
-640.668	-200.000	0.008	-0.038
-639.653	77.415	0.081	-0.086
-638.638	-42.404	-0.142	-0.073
-637.624	-128.947	0.399	0.056
-636.609	57.325	0.245	0.240
-635.595	-200.000	0.002	0.073
-634.580	-200.000	-0.030	0.244
-633.565	401.550	-0.049	0.104
-632.551	-200.000	-0.066	-0.388
-631.536	168.044	-0.254	-0.364
-630.522	5.597	0.149	-0.111
-629.507	-13.834	-0.181	0.118
-628.492	-127.519	-0.324	0.047
-627.478	21.838	-0.136	-0.111
-626.463	38.207	-0.102	-0.091
-625.449	14.548	0.183	0.144
-624.434	-177.835	-0.200	-0.005
-623.419	-86.897	-0.100	-0.031
-622.405	-110.493	0.296	0.062
-621.390	-142.479	0.395	-0.039
-620.376	-81.738	0.287	-0.095
-619.361	800.000	0.061	0.265
-618.346	-99.330	0.224	0.057
-617.332	-63.845	0.329	-0.135
-616.317	-200.000	0.001	-0.018
-615.303	-92.253	-0.149	-0.042
-614.288	-100.391	-0.304	-0.076
-613.273	-22.811	-0.307	-0.187
-612.259	-200.000	0.002	-0.098
-611.244	1.281	-0.047	-0.034
-610.230	-145.147	0.349	-0.032
-609.215	-71.267	-0.259	0.098
-608.201	800.000	0.052	-0.153
-607.186	39.936	-0.181	-0.164
-606.171	-200.000	-0.014	-0.426
-605.157	-200.000	0.009	-0.103
-604.142	143.649	0.262	-0.351
-603.128	-62.228	-0.402	-0.168
-602.113	450.306	-0.113	-0.250
-601.098	318.392	-0.116	0.221
-600.084	1.673	0.173	0.125
-599.069	800.000	0.082	0.238
-598.055	731.889	-0.063	0.168
-597.040	-93.690	0.185	-0.051
-596.025	-200.000	0.072	0.435
-595.011	-85.832	-0.082	-0.025
-593.996	396.648	0.108	-0.226
-592.982	200.897	0.047	-0.072
-591.967	-86.296	0.107	0.033
-590.952	133.634	-0.134	-0.174
-589.938	297.076	-0.202	-0.372
-588.923	800.000	-0.081	-0.238
-587.909	674.135	-0.155	-0.405
-586.894	194.817	-0.029	-0.044
-585.879	577.473	-0.072	-0.176
-584.865	-21.524	0.142	-0.087
-583.850	-154.706	-0.097	-0.006
-582.836	223.852	-0.167	-0.271
-581.821	-88.431	-0.032	-0.009
-580.806	800.000	-0.082	-0.347
-579.792	-200.000	0.003	-0.038
-578.777	800.000	-0.058	0.179
-577.763	-48.085	-0.089	0.043
-576.748	-139.067	0.283	-0.031
-575.733	-70.982	-0.113	-0.043
-574.719	-45.630	-0.628	0.312
-573.704	-53.462	-0.179	-0.082
-572.690	800.000	0.043	0.150
-571.675	14.828	-0.092	0.072
-570.661	-200.000	-0.032	0.368
-569.646	83.113	-0.181	0.198
-568.631	115.959	-0.166	-0.204
-567.617	-27.341	0.152	-0.089
-566.602	-138.475	0.119	0.013
-565.588	233.500	0.174	-0.288
-564.573	430.895	-0.045	0.098
-563.558	50.405	0.315	0.299
-562.544	87.251	-0.087	0.096
-561.529	-27.348	0.139	-0.081
-560.515	-43.221	0.162	-0.083
-559.500	118.251	0.125	-0.155
-558.485	800.000	0.062	0.258
-557.471	461.341	0.119	0.267
-556.456	-119.170	0.183	-0.032
-555.442	-200.000	-0.022	0.157
-554.427	-143.575	0.247	0.024
-553.412	800.000	-0.011	0.045
-552.398	-200.000	-0.004	-0.315
-551.383	185.029	0.094	0.140
-550.369	97.017	-0.283	0.326
-549.354	800.000	0.061	0.223
-548.339	-200.000	0.035	0.189
-547.325	-111.831	-0.079	0.016
-546.310	23.817	0.176	-0.145
-545.296	800.000	-0.056	0.181
-544.281	-200.000	0.030	0.164
-543.266	173.743	0.082	0.119
-542.252	800.000	0.024	0.070
-541.237	-200.000	0.015	0.130
-540.223	3.074	-0.150	-0.110
-539.208	63.238	0.131	0.132
-538.193	-200.000	-0.043	-0.209
-537.179	6.252	0.158	-0.118
-536.164	-19.892	-0.156	0.097
-535.150	680.042	-0.064	0.168
-534.135	234.836	-0.056	0.092
-533.121	-155.832	-0.090	-0.006
-532.106	-18.537	-0.213	0.133
-531.091	785.040	-0.099	-0.273
-530.077	800.000	-0.100	-0.317
-529.062	117.515	-0.133	0.164
-528.048	800.000	0.027	0.112
-527.033	16.681	-0.207	-0.164
-526.018	-55.978	-0.245	0.110
-525.004	-45.031	0.130	0.065
-523.989	-10.801	-0.137	0.091
-522.975	-70.431	0.126	0.048
-521.960	-71.934	-0.245	0.091
-520.945	-173.375	0.076	-0.002
-519.931	181.524	0.061	-0.090
-518.916	-200.000	0.086	0.553
-517.902	88.625	-0.209	0.233
-516.887	1.685	0.206	0.149
-515.872	-10.189	-0.120	0.080
-514.858	-39.841	-0.321	-0.168
-513.843	341.571	-0.033	0.064
-512.829	-127.482	0.139	-0.020
-511.814	-109.595	0.312	-0.066
-510.799	-80.608	-0.168	-0.056
-509.785	-118.544	0.543	-0.096
-508.770	334.160	0.078	0.151
-507.756	9.457	0.122	0.092
-506.741	185.684	-0.082	0.121
-505.726	150.649	-0.403	-0.548
-504.712	43.544	0.064	0.059
-503.697	4.543	0.143	0.105
-502.683	-102.441	-0.229	0.055
-501.668	-200.000	-0.012	0.208
-500.653	-200.000	0.038	-0.278
-499.639	800.000	0.053	-0.181
-498.624	-200.000	-0.023	-0.249
-497.610	244.696	-0.091	-0.154
-496.595	800.000	0.052	-0.210
-495.581	484.910	-0.093	0.213
-494.566	-18.456	-0.288	0.180
-493.551	-7.872	0.036	0.025
-492.537	-183.777	0.596	0.010
-491.522	277.834	-0.092	-0.164
-490.508	-52.332	0.084	0.039
-489.493	800.000	0.068	-0.196
-488.478	-30.623	-0.122	0.069
-487.464	37.778	-0.298	0.265
-486.449	-96.735	-0.135	-0.036
-485.435	-85.034	-0.336	0.105
-484.420	-16.762	-0.127	-0.081
-483.405	-112.632	-0.168	0.033
-482.391	380.540	-0.190	-0.391
-481.376	-132.407	-0.226	0.029
-480.362	87.222	0.171	0.189
-479.347	-200.000	0.001	0.083
-478.332	-99.831	-0.273	0.068
-477.318	800.000	-0.083	0.299
-476.303	-64.690	0.315	-0.128
-475.289	800.000	0.010	0.034
-474.274	-200.000	0.012	0.076
-473.259	800.000	0.056	0.177
-472.245	-110.234	0.100	-0.021
-471.230	425.268	-0.065	0.139
-470.216	-19.472	-0.193	-0.120
-469.201	-200.000	0.073	-0.335
-468.186	248.024	-0.026	-0.044
-467.172	162.459	0.079	0.111
-466.157	800.000	-0.129	0.360
-465.143	-45.602	-0.033	-0.016
-464.128	-55.918	0.190	-0.085
-463.113	-72.676	0.284	-0.105
-462.099	800.000	-0.094	0.398
-461.084	441.372	0.041	-0.090
-460.070	-200.000	-0.001	0.033
-459.055	800.000	-0.054	-0.232
-458.040	315.749	-0.060	-0.113
-457.026	800.000	0.056	-0.213
-456.011	-200.000	-0.033	-0.167
-454.997	-51.384	0.201	-0.094
-453.982	-3.724	-0.121	0.084
-452.968	21.440	0.190	-0.155
-451.953	-40.426	-0.287	0.149
-450.938	156.296	0.093	-0.128
-449.924	-200.000	-0.018	-0.102
-448.909	762.851	0.084	0.229
-447.895	-12.075	-0.123	0.081
-446.880	559.773	0.059	-0.142
-445.865	140.082	0.158	0.208
-444.851	227.447	0.268	0.435
-443.836	4.143	0.117	-0.085
-442.822	272.089	-0.064	0.112
-441.807	-78.555	0.234	-0.080
-440.792	43.111	0.198	0.180
-439.778	-200.000	0.029	0.290
-438.763	134.460	0.192	0.249
-437.749	-120.018	-0.040	-0.007
-436.734	-200.000	0.028	-0.148
-435.719	582.599	0.125	0.307
-434.705	434.777	-0.158	0.344
-433.690	800.000	-0.024	0.094
-432.676	280.163	-0.190	-0.340
-431.661	800.000	-0.084	0.250
-430.646	-200.000	-0.014	-0.296
-429.632	-86.955	-0.177	0.054
-428.617	121.670	-0.040	0.049
-427.603	-138.878	-0.227	0.025
-426.588	-200.000	0.058	0.340
-425.573	120.085	0.060	0.074
-424.559	50.678	0.323	0.305
-423.544	119.508	0.149	-0.184
-422.530	-0.939	-0.141	-0.100
-421.515	-103.625	-0.315	-0.074
-420.500	201.379	0.064	0.099
-419.486	-139.428	-0.237	-0.025
-418.471	800.000	-0.069	0.231
-417.457	-200.000	-0.005	-0.037
-416.442	331.739	0.131	-0.252
-415.428	3.069	-0.210	-0.152
-414.413	-36.891	0.190	0.102
-413.398	-29.893	-0.270	0.153
-412.384	-119.198	-0.061	-0.011
-411.369	91.373	-0.044	-0.049
-410.355	-115.238	0.352	-0.066
-409.340	129.661	0.049	0.062
-408.325	376.028	-0.150	-0.306
-407.311	264.675	0.132	0.229
-406.296	141.586	0.179	-0.237
-405.282	-120.869	0.150	0.025
-404.267	429.035	0.078	0.168
-403.252	-147.723	0.304	0.025
-402.238	-200.000	0.039	-0.181
-401.223	800.000	-0.065	-0.188
-400.209	245.684	-0.177	0.298
-399.194	362.207	0.195	0.391
-398.179	-12.536	-0.096	0.063
-397.165	-112.341	-0.136	0.027
-396.150	-200.000	0.012	0.230
-395.136	-58.444	0.265	0.115
-394.121	-200.000	0.018	-0.136
-393.106	-200.000	-0.014	0.090
-392.092	-200.000	0.043	0.266
-391.077	553.611	-0.086	0.205
-390.063	-2.017	0.264	0.185
-389.048	-8.880	-0.217	-0.145
-388.033	-200.000	-0.011	0.505
-387.019	-166.085	-0.320	0.014
-386.004	58.124	-0.085	-0.083
-384.990	46.957	-0.032	-0.029
-383.975	-138.471	0.347	-0.038
-382.960	800.000	0.077	-0.278
-381.946	717.648	-0.054	-0.144
-380.931	201.784	0.117	-0.179
-379.917	-171.801	-0.260	-0.008
-378.902	132.078	0.077	0.099
-377.888	66.458	0.200	0.202
-376.873	180.263	0.180	-0.263
-375.858	-15.641	-0.218	-0.139
-374.844	191.557	0.077	-0.116
-373.829	621.721	-0.020	0.049
-372.815	5.910	-0.263	-0.194
-371.800	-7.707	-0.169	0.114
-370.785	-200.000	-0.013	-0.317
-369.771	124.252	-0.215	0.270
-368.756	-7.783	0.181	0.122
-367.742	-200.000	0.002	0.018
-366.727	-83.487	-0.262	-0.084
-365.712	-155.111	0.334	0.022
-364.698	-1.833	-0.289	-0.202
-363.683	-156.445	0.256	-0.016
-362.669	69.944	-0.168	0.173
-361.654	136.926	0.261	-0.340
-360.639	-0.415	-0.225	0.159
-359.625	-57.786	0.183	0.080
-358.610	62.595	-0.122	0.121
-357.596	-131.836	0.144	-0.019
-356.581	341.597	-0.028	0.054
-355.566	-200.000	-0.036	0.227
-354.552	21.475	-0.144	0.117
-353.537	800.000	0.013	-0.049
-352.523	-200.000	-0.074	0.336
-351.508	644.229	-0.047	0.119
-350.493	-119.731	0.209	0.036
-349.479	-200.000	0.026	-0.165
-348.464	-75.135	0.408	-0.145
-347.450	-122.058	0.521	0.085
-346.435	-200.000	-0.003	-0.230
-345.420	-1.109	-0.086	0.061
-344.406	-55.034	0.159	0.071
-343.391	-90.546	0.279	0.080
-342.377	-67.828	-0.277	0.108
-341.362	-124.520	-0.335	0.052
-340.348	-64.748	-0.203	0.082
-339.333	-200.000	-0.016	0.097
-338.318	-26.667	-0.229	-0.133
-337.304	-156.522	0.094	-0.006
-336.289	363.712	0.097	-0.194
-335.275	679.502	-0.033	0.086
-334.260	-52.403	0.296	0.136
-333.245	17.339	0.067	-0.053
-332.231	62.432	0.095	-0.095
-331.216	800.000	-0.144	-0.456
-330.202	-200.000	0.245	0.001
-329.187	-200.000	0.024	-0.190
-328.172	-91.685	-0.246	-0.070
-327.158	87.113	0.071	0.078
-326.143	18.754	0.254	-0.202
-325.129	800.000	-0.072	0.275
-324.114	-144.402	-0.205	0.019
-323.099	-159.053	0.451	-0.025
-322.085	21.657	-0.169	0.137
-321.070	318.336	-0.146	0.275
-320.056	111.642	-0.020	-0.024
-319.041	-200.000	-0.076	-0.334
-318.026	-38.016	-0.139	0.074
-317.012	-1.949	0.161	-0.113
-315.997	-166.038	0.085	0.004
-314.983	-153.658	-0.373	0.026
-313.968	800.000	0.034	0.139
-312.953	120.998	0.153	-0.190
-311.939	-144.084	0.120	0.011
-310.924	224.279	-0.126	0.202
-309.910	31.015	-0.192	-0.164
-308.895	-200.000	-0.042	-0.198
-307.880	-4.176	0.340	-0.234
-306.866	-147.449	-0.195	-0.016
-305.851	800.000	-0.065	-0.252
-304.837	-60.782	0.037	-0.015
-303.822	105.457	-0.215	-0.253
-302.807	-200.000	-0.035	0.182
-301.793	-200.000	-0.020	0.168
-300.778	182.248	-0.221	-0.323
-299.764	-74.331	0.107	-0.038
-298.749	134.133	0.145	0.187
-297.735	-79.539	0.231	-0.077
-296.720	-189.404	0.075	0.001
-295.705	-55.266	-0.150	0.067
-294.691	-110.377	0.181	-0.037
-293.676	252.153	-0.108	0.183
-292.662	-144.119	-0.102	0.009
-291.647	-200.000	0.064	-0.363
-290.632	-99.286	0.217	-0.055
-289.618	-200.000	0.019	0.150
-288.603	800.000	-0.025	-0.105
-287.589	-200.000	-0.025	-0.362
-286.574	-172.378	-0.145	0.005
-285.559	34.684	0.182	0.158
-284.545	-121.159	0.129	0.022
-283.530	171.952	0.225	0.321
-282.516	-123.067	-0.279	0.045
-281.501	-200.000	0.016	0.371
-280.486	-10.796	-0.069	0.045
-279.472	-129.225	0.211	0.029
-278.457	800.000	-0.072	-0.250
-277.443	122.327	0.124	0.154
-276.428	169.052	-0.070	-0.099
-275.413	-200.000	0.001	-0.181
-274.399	-136.795	0.231	0.026
-273.384	-48.021	-0.216	0.104
-272.370	-29.382	0.139	-0.079
-271.355	-97.902	-0.150	0.039
-270.340	800.000	0.066	0.209
-269.326	-99.499	0.327	0.082
-268.311	293.104	-0.121	0.220
-267.297	-51.308	0.084	-0.039
-266.282	-100.947	-0.130	0.032
-265.267	393.439	0.155	-0.321
-264.253	58.933	-0.181	0.176
-263.238	-181.099	0.125	-0.002
-262.224	-200.000	-0.011	0.138
-261.209	800.000	0.037	0.117
-260.195	800.000	0.064	0.269
-259.180	151.466	0.107	0.145
-258.165	-51.394	0.267	-0.124
-257.151	-154.717	-0.296	0.020
-256.136	-143.547	0.319	-0.030
-255.122	-200.000	-0.070	-0.355
-254.107	309.544	0.155	-0.287
-253.092	-34.751	-0.205	0.111
-252.078	348.401	-0.164	-0.320
-251.063	-86.851	-0.286	0.087
-250.049	-78.740	0.195	0.066
-249.034	-16.204	-0.225	-0.142
-248.019	91.098	-0.217	0.241
-247.005	800.000	0.091	0.371
-245.990	-99.194	-0.290	-0.073
-244.976	800.000	0.075	0.225
-243.961	-164.294	0.196	-0.009
-242.946	190.222	0.104	-0.156
-241.932	-200.000	0.066	-0.300
-240.917	159.056	0.140	-0.193
-239.903	194.389	-0.085	0.127
-238.888	800.000	0.136	0.556
-237.873	224.695	-0.082	0.132
-236.859	179.255	0.245	0.355
-235.844	75.126	-0.075	-0.079
-234.830	-109.479	0.158	0.033
-233.815	-183.529	-0.112	0.002
-232.800	-124.292	-0.099	-0.015
-231.786	-137.894	0.497	0.055
-230.771	156.488	0.090	-0.123
-229.757	-200.000	-0.004	0.131
-228.742	800.000	-0.058	0.217
-227.727	800.000	-0.101	-0.378
-226.713	25.929	-0.325	-0.268
-225.698	-163.135	-0.249	-0.012
-224.684	-98.617	-0.161	0.041
-223.669	336.814	0.041	0.079
-222.655	-50.357	0.211	0.099
-221.640	13.602	-0.162	-0.124
-220.625	41.555	0.108	0.097
-219.611	219.420	-0.206	0.326
-218.596	177.287	-0.130	-0.188
-217.582	-167.702	-0.296	-0.012
-216.567	-79.531	0.228	0.076
-215.552	-182.411	0.107	-0.002
-214.538	479.541	-0.093	-0.208
-213.523	-54.199	0.188	0.084
-212.509	537.464	0.093	-0.218
-211.494	51.848	-0.238	-0.224
-210.479	160.473	0.283	-0.391
-209.465	-138.986	0.263	-0.028
-208.450	66.779	0.128	0.129
-207.436	53.577	-0.200	-0.190
-206.421	62.925	-0.127	0.126
-205.406	800.000	-0.027	0.079
-204.392	82.538	0.200	-0.215
-203.377	25.229	0.142	0.116
-202.363	493.541	0.063	-0.143
-201.348	-150.681	-0.315	0.024
-200.333	625.765	-0.104	0.260
-199.319	-75.361	-0.323	0.114
-198.304	-139.403	-0.394	0.042
-197.290	-106.853	0.210	0.046
-196.275	385.873	0.078	-0.159
-195.260	58.045	0.214	0.208
-194.246	-102.781	-0.433	-0.102
-193.231	12.424	0.193	-0.147
-192.217	-94.080	0.151	0.041
-191.202	-16.426	-0.182	-0.114
-190.187	-127.251	-0.300	-0.043
-189.173	-129.464	0.016	-0.002
-188.158	-118.722	0.216	-0.038
-187.144	-183.880	-0.277	-0.005
-186.129	181.820	0.110	0.159
-185.114	-46.020	0.222	-0.108
-184.100	19.177	-0.132	0.105
-183.085	-200.000	-0.036	-0.208
-182.071	-49.365	0.352	-0.166
-181.056	800.000	-0.049	-0.177
-180.042	-28.958	0.123	0.070
-179.027	174.570	0.138	0.198
-178.012	236.854	0.134	0.219
-176.998	76.181	-0.202	-0.212
-175.983	271.182	0.108	0.188
-174.969	121.491	0.151	0.186
-173.954	229.960	-0.190	0.307
-172.939	14.234	-0.146	-0.113
-171.925	-200.000	0.004	-0.025
-170.910	-11.176	0.252	-0.164
-169.896	-200.000	0.021	-0.201
-168.881	-200.000	-0.030	-0.285
-167.866	-200.000	0.005	-0.032
-166.852	-72.012	0.118	-0.043
-165.837	-73.460	-0.185	-0.067
-164.823	-48.454	-0.062	-0.030
-163.808	698.921	0.059	-0.155
-162.793	-200.000	0.029	0.217
-161.779	33.550	0.054	-0.046
-160.764	-126.664	-0.316	-0.046
-159.750	752.976	-0.143	-0.383
-158.735	-75.584	-0.237	-0.083
-157.720	692.020	0.082	0.211
-156.706	-200.000	0.021	-0.258
-155.691	-146.610	-0.229	0.020
-154.677	16.594	0.096	-0.075
-153.662	800.000	0.069	-0.205
-152.647	2.988	0.125	0.090
-151.633	-94.473	-0.307	-0.083
-150.618	80.051	0.245	0.260
-149.604	10.247	-0.187	0.141
-148.589	800.000	-0.040	0.149
-147.574	-200.000	0.000	-0.120
-146.560	-146.191	0.080	0.007
-145.545	4.381	-0.104	0.075
-144.531	-200.000	-0.097	0.000
-143.516	-200.000	0.062	-0.292
-142.502	23.668	-0.516	0.419
-141.487	-101.435	0.181	0.044
-140.472	-8.503	0.282	0.187
-139.458	-200.000	-0.000	-0.254
-138.443	800.000	-0.055	0.165
-137.429	-200.000	-0.022	0.209
-136.414	800.000	0.053	-0.188
-135.399	-142.598	0.153	0.015
-134.385	83.998	-0.319	-0.344
-133.370	-200.000	0.022	-0.209
-132.356	-200.000	0.008	0.150
-131.341	-21.222	0.197	-0.119
-130.326	67.955	-0.205	0.207
-129.312	1.777	0.303	-0.215
-128.297	-200.000	0.051	-0.271
-127.283	-104.582	-0.058	-0.013
-126.268	63.878	-0.195	0.193
-125.253	-58.741	-0.104	-0.044
-124.239	-200.000	-0.012	-0.237
-123.224	-135.615	0.318	0.037
-122.210	580.145	-0.140	-0.337
-121.195	-200.000	-0.011	-0.298
-120.180	800.000	-0.052	-0.196
-119.166	14.073	0.192	0.148
-118.151	-149.571	-0.127	0.010
-117.137	403.844	-0.211	0.437
-116.122	367.977	0.024	0.047
-115.107	449.858	0.127	-0.276
-114.093	-105.516	-0.161	0.036
-113.078	-82.492	0.359	-0.115
-112.064	545.908	0.071	-0.167
-111.049	-81.949	-0.055	0.018
-110.034	-5.912	-0.361	0.244
-109.020	-26.257	0.263	0.152
-108.005	784.780	-0.057	0.155
-106.991	-135.672	-0.168	-0.020
-105.976	125.445	-0.160	0.199
-104.962	512.592	-0.079	-0.183
-103.947	62.152	0.293	0.289
-102.932	-88.648	-0.335	0.098
-101.918	-69.637	0.218	0.082
-100.903	-200.000	-0.019	0.121
-99.889	-15.692	-0.248	0.156
-98.874	73.471	0.105	0.108
-97.859	-142.179	0.363	0.035
-96.845	94.882	0.070	0.079
-95.830	-132.245	0.130	0.017
-94.816	564.188	-0.168	0.401
-93.801	40.663	-0.189	-0.168
-92.786	58.989	-0.086	0.084
-91.772	168.246	0.150	0.210
-90.757	-200.000	-0.021	-0.243
-89.743	-110.293	-0.336	0.069
-88.728	268.925	-0.082	0.141
-87.713	-200.000	-0.037	0.364
-86.699	-63.671	-0.343	-0.138
-85.684	-10.203	-0.057	0.037
-84.670	50.442	0.028	-0.027
-83.655	89.859	0.151	-0.166
-82.640	-200.000	0.007	-0.170
-81.626	-65.333	0.141	-0.056
-80.611	-200.000	-0.007	0.307
-79.597	-200.000	0.011	0.055
-78.582	-14.267	0.243	0.154
-77.567	-200.000	-0.055	0.412
-76.553	-200.000	-0.028	-0.224
-75.538	67.967	-0.131	-0.132
-74.524	-19.041	0.140	0.085
-73.509	17.056	-0.192	0.150
-72.494	-127.610	0.221	-0.032
-71.480	-35.698	-0.293	0.156
-70.465	-200.000	0.114	0.537
-69.451	23.616	-0.270	0.219
-68.436	237.460	0.110	-0.179
-67.422	800.000	0.113	-0.308
-66.407	-135.533	-0.219	-0.026
-65.392	83.998	-0.035	-0.037
-64.378	800.000	0.048	0.164
-63.363	-200.000	0.017	0.251
-62.349	161.502	0.213	-0.294
-61.334	59.904	-1.082	-1.052
-60.319	-143.114	0.244	0.023
-59.305	546.241	-0.417	-0.981
-58.290	221.735	0.689	1.090
-57.276	800.000	0.402	1.606
-56.261	-200.000	95.761	593.553
-55.246	545.703	1399.408	3291.797
-54.232	157.148	2578.577	3509.158
-53.217	113.093	2164.640	2582.656
-52.203	43.776	1615.524	1455.274
-51.188	35.057	1349.517	1162.932
-50.173	31.806	1307.481	1107.490
-49.159	54.827	1354.382	1285.973
-48.144	56.690	1370.471	1312.364
-47.130	35.290	1330.225	1147.524
-46.115	31.761	1312.702	1111.472
-45.100	31.445	1307.781	1105.395
-44.086	31.376	1305.331	1102.870
-43.071	31.275	1303.658	1100.818
-42.057	31.333	1301.086	1098.946
-41.042	31.318	1299.589	1097.548
-40.027	31.283	1297.944	1095.907
-39.013	31.346	1296.025	1094.614
-37.998	31.424	1294.285	1093.560
-36.984	31.321	1292.362	1091.288
-35.969	31.450	1291.047	1090.885
-34.954	31.437	1289.191	1089.197
-33.940	31.421	1288.020	1088.073
-32.925	31.438	1286.941	1087.220
-31.911	31.471	1285.065	1085.784
-30.896	31.553	1283.466	1084.865
-29.881	31.508	1282.460	1083.708
-28.867	31.642	1280.710	1082.961
-27.852	31.647	1279.032	1081.529
-26.838	31.618	1277.584	1080.093
-25.823	31.582	1276.600	1079.016
-24.809	31.584	1275.040	1077.665
-23.794	31.534	1273.954	1076.414
-22.779	31.516	1272.720	1075.228
-21.765	31.495	1271.351	1073.904
-20.750	31.412	1270.698	1072.836
-19.736	31.447	1268.735	1071.339
-18.721	31.337	1267.885	1069.948
-17.706	31.357	1266.653	1068.980
-16.692	31.417	1265.015	1067.893
-15.677	31.384	1264.079	1066.876
-14.663	31.363	1262.977	1065.786
-13.648	31.256	1261.996	1064.305
-12.633	31.346	1260.654	1063.641
-11.619	31.325	1260.172	1063.073
-10.604	31.487	1258.644	1062.662
-9.590	31.323	1258.293	1061.394
-8.575	31.229	1257.346	1060.020
-7.560	31.288	1256.478	1059.577
-6.546	31.316	1255.709	1059.047
-5.531	31.290	1254.914	1058.188
-4.517	31.350	1253.431	1057.233
-3.502	31.383	1252.676	1056.740
-2.487	31.244	1252.307	1055.604
-1.473	31.446	1247.693	1052.812
-0.458	30.394	1233.731	1035.129
0.556	25.868	1216.972	1000.314
1.571	21.960	1222.986	983.322
2.586	20.772	1236.829	987.629
3.600	20.420	1225.582	976.583
4.615	15.052	1151.775	889.246
5.629	5.377	1073.783	780.836
6.644	0.741	1053.093	742.977
7.659	0.356	1051.041	739.572
8.673	0.285	1049.774	738.267
9.688	0.349	1048.350	737.511
10.702	0.641	1046.583	737.631
11.717	6.054	1053.979	769.343
12.731	14.519	1065.793	819.664
13.746	17.810	1067.978	837.448
14.761	17.274	1066.789	833.813
15.775	16.183	1065.276	827.213
16.790	15.288	1063.104	821.072
17.804	14.586	1061.218	816.110
18.819	14.167	1060.427	813.381
19.834	14.075	1059.062	811.811
20.848	13.677	1058.805	809.602
21.863	13.429	1057.517	807.332
22.877	13.281	1056.859	806.038
23.892	13.257	1056.367	805.475
24.907	13.257	1055.554	804.783
25.921	13.271	1054.767	804.182
26.936	13.306	1054.174	803.828
27.950	13.343	1052.941	802.997
28.965	13.423	1051.603	802.291
29.980	13.445	1049.954	801.071
30.994	13.508	1049.141	800.684
32.009	13.466	1048.348	799.805
33.023	13.600	1047.257	799.547
34.038	13.512	1046.217	798.261
35.053	13.344	1045.724	797.002
36.067	13.422	1044.753	796.570
37.082	13.496	1043.657	796.017
38.096	13.545	1043.021	795.698
39.111	13.528	1042.384	795.060
40.126	13.492	1041.085	793.824
41.140	13.278	1040.221	792.070
42.155	13.146	1039.117	790.527
43.169	13.239	1037.846	789.935
44.184	13.274	1036.684	789.151
45.199	13.276	1035.718	788.353
46.213	13.215	1035.289	787.668
47.228	13.365	1033.932	787.279
48.242	13.409	1032.197	786.096
49.257	13.362	1031.970	785.632
50.271	13.359	1031.061	784.856
51.286	13.357	1030.528	784.371
52.301	13.232	1029.519	782.943
53.315	13.350	1028.371	782.560
54.330	13.283	1027.253	781.321
55.344	13.352	1026.337	780.883
56.359	13.185	1025.695	779.535
57.374	13.303	1024.211	778.896
58.388	13.312	1023.760	778.524
59.403	13.237	1023.003	777.526
60.417	13.301	1022.080	777.061
61.432	13.251	1021.242	776.118
62.447	13.200	1020.370	775.150
63.461	13.226	1019.765	774.742
64.476	13.297	1018.279	773.877
65.490	13.170	1018.047	773.036
66.505	13.219	1017.349	772.666
67.520	13.411	1016.371	772.753
68.534	13.244	1016.145	771.735
69.549	13.168	1015.304	770.671
70.563	13.211	1014.521	770.211
71.578	13.186	1013.467	769.225
72.593	13.133	1012.865	768.454
73.607	13.075	1012.315	767.701
74.622	13.186	1011.695	767.675
75.636	13.090	1011.107	766.718
76.651	13.136	1010.020	766.039
77.666	13.043	1009.693	765.290
78.680	13.111	1009.445	765.350
79.695	13.270	1008.218	765.087
80.709	13.245	1007.609	764.444
81.724	13.287	1006.879	764.015
82.739	13.381	1006.127	763.813
83.753	13.406	1005.325	763.250
84.768	13.566	1004.428	763.237
85.782	13.451	1003.816	762.175
86.797	13.351	1003.042	761.061
87.812	13.311	1001.709	759.800
88.826	13.393	1000.893	759.488
89.841	13.375	1000.141	758.768
90.855	13.513	999.141	758.577
91.870	13.398	998.035	757.143
92.884	13.558	996.959	756.992
93.899	13.445	996.511	756.068
94.914	13.514	995.664	755.670
95.928	13.391	995.339	754.800
96.943	13.410	994.033	753.829
97.957	13.499	993.029	753.402
98.972	13.436	992.313	752.507
99.987	13.501	991.201	751.893
101.001	13.412	990.288	750.732
102.016	13.390	989.863	750.239
103.030	13.515	988.773	749.916
104.045	13.496	987.940	749.131
105.060	13.369	987.286	747.993
106.074	13.445	986.270	747.502
107.089	13.352	985.269	746.256
108.103	13.361	984.576	745.706
109.118	13.279	983.466	744.431
110.133	13.407	982.300	744.057
111.147	13.293	981.628	742.973
112.162	13.341	980.848	742.529
113.176	13.320	980.491	742.101
114.191	13.318	979.723	741.443
115.206	13.338	979.077	740.980
116.220	13.383	978.236	740.480
117.235	13.400	976.946	739.514
118.249	13.383	976.252	738.849
119.264	13.377	975.323	738.053
120.279	13.479	974.646	737.929
121.293	13.440	973.505	736.826
122.308	13.247	973.104	735.600
123.322	13.458	971.779	735.471
124.337	13.393	970.893	734.446
125.352	13.380	969.593	733.338
126.366	13.372	968.867	732.691
127.381	13.327	967.644	731.500
128.395	13.403	966.905	731.212
129.410	13.441	966.100	730.709
130.424	13.415	965.342	729.956
131.439	13.436	964.544	729.382
132.454	13.548	963.579	729.078
133.468	13.529	962.767	728.316
134.483	13.543	962.120	727.824
135.497	13.553	961.175	727.089
136.512	13.416	960.475	725.893
137.527	13.450	959.326	725.110
138.541	13.517	958.687	724.856
139.556	13.528	958.142	724.427
140.570	13.489	957.566	723.760
141.585	13.605	956.412	723.329
142.600	13.648	955.607	722.841
143.614	13.592	955.066	722.125
144.629	13.647	954.289	721.714
145.643	13.676	952.995	720.799
146.658	13.602	952.203	719.813
147.673	13.483	951.535	718.728
148.687	13.395	950.825	717.745
149.702	13.438	949.877	717.155
150.716	13.504	949.217	716.879
151.731	13.592	947.987	716.266
152.746	13.473	947.968	715.675
153.760	13.559	947.194	715.399
154.775	13.676	946.453	715.279
155.789	13.615	945.903	714.537
156.804	13.614	945.146	713.896
157.819	13.676	944.344	713.497
158.833	13.748	943.765	713.306
159.848	13.843	942.792	712.912
160.862	13.657	942.134	711.556
161.877	13.718	940.900	710.824
162.892	13.767	939.971	710.265
163.906	13.713	939.002	709.241
164.921	13.686	938.661	708.806
165.935	13.680	937.283	707.677
166.950	13.726	936.721	707.387
167.964	13.771	935.712	706.754
168.979	13.787	934.706	705.999
169.994	13.759	934.018	705.296
171.008	13.769	934.021	705.278
172.023	13.822	932.446	704.252
173.037	13.886	931.960	704.096
174.052	13.814	931.629	703.476
175.067	13.682	931.040	702.412
176.081	13.719	930.014	701.734
177.096	13.733	929.944	701.675
178.110	13.767	928.676	700.801
179.125	13.834	927.863	700.408
180.140	13.860	927.820	700.422
181.154	13.945	927.302	700.330
182.169	13.918	926.784	699.764
183.183	13.889	926.296	699.209
184.198	14.049	925.217	699.007
185.213	13.927	924.693	698.034
186.227	13.875	924.596	697.683
187.242	14.043	923.806	697.728
188.256	13.947	922.889	696.573
189.271	14.098	922.115	696.559
190.286	13.810	921.599	694.901
191.300	13.773	920.578	693.916
192.315	13.812	920.155	693.697
193.329	13.634	920.012	692.787
194.344	13.846	919.062	692.894
195.359	13.997	918.290	692.879
196.373	13.981	917.450	692.119
197.388	14.070	917.258	692.284
198.402	14.082	916.994	692.072
199.417	14.245	915.954	691.905
200.432	14.123	915.542	691.024
201.446	14.269	914.602	690.861
202.461	14.215	914.452	690.462
203.475	14.278	914.058	690.365
204.490	14.130	913.409	689.198
205.504	14.232	912.614	688.961
206.519	14.162	911.456	687.736
207.534	14.236	910.891	687.554
208.548	14.214	909.992	686.723
209.563	14.263	909.769	686.699
210.577	14.305	908.844	686.112
211.592	14.314	908.225	685.622
212.607	14.321	907.422	684.983
213.621	14.379	906.772	684.668
214.636	14.374	906.182	684.143
215.650	14.340	905.259	683.249
216.665	14.505	904.221	683.078
217.680	14.525	904.011	682.941
218.694	14.384	903.805	682.150
219.709	14.450	902.694	681.520
220.723	14.463	902.110	681.069
221.738	14.549	901.532	680.926
222.753	14.537	900.668	680.165
223.767	14.587	900.222	679.970
224.782	14.609	899.684	679.593
225.796	14.618	898.944	679.010
226.811	14.529	898.554	678.296
227.826	14.567	897.506	677.598
228.840	14.565	896.678	676.907
229.855	14.491	896.102	676.112
230.869	14.535	895.333	675.648
231.884	14.594	894.949	675.539
232.899	14.583	894.057	674.758
233.913	14.466	893.387	673.723
234.928	14.462	892.582	673.038
235.942	14.382	892.569	672.645
236.957	14.496	891.874	672.524
237.972	14.543	891.386	672.286
238.986	14.553	890.385	671.511
240.001	14.640	889.986	671.502
241.015	14.732	888.839	670.945
242.030	14.618	888.843	670.432
243.045	14.586	888.034	669.632
244.059	14.754	887.135	669.569
245.074	14.672	886.772	668.907
246.088	14.783	886.024	668.728
247.103	14.838	885.265	668.317
248.117	14.854	884.863	668.019
249.132	14.772	884.731	667.532
250.147	14.879	883.634	667.071
251.161	15.067	882.646	667.015
252.176	15.126	882.187	666.844
253.190	14.917	882.030	665.835
254.205	15.051	881.162	665.655
255.220	15.072	880.382	665.087
256.234	15.047	879.904	664.571
257.249	15.090	878.861	663.893
258.263	15.062	878.443	663.408
259.278	15.185	877.799	663.351
260.293	15.175	877.419	662.963
261.307	15.204	876.999	662.704
262.322	15.187	875.931	661.772
263.336	15.218	875.421	661.449
264.351	15.159	874.668	660.589
265.366	15.309	874.144	660.727
266.380	15.250	873.805	660.180
267.395	15.208	872.758	659.164
268.409	15.203	872.233	658.688
269.424	15.309	871.271	658.320
270.439	15.322	870.424	657.673
271.453	15.225	869.866	656.814
272.468	15.221	869.180	656.224
273.482	15.199	868.776	655.773
274.497	15.306	868.095	655.620
275.512	15.212	867.463	654.716
276.526	15.300	867.376	654.936
277.541	15.226	866.862	654.201
278.555	15.439	866.274	654.530
279.570	15.648	865.217	654.489
280.585	15.632	864.459	653.796
281.599	15.368	864.079	652.425
282.614	15.426	863.391	652.072
283.628	15.395	862.656	651.338
284.643	15.450	862.032	651.023
285.657	15.336	861.759	650.318
286.672	15.434	861.224	650.237
287.687	15.545	860.317	649.923
288.701	15.522	859.784	649.373
289.716	15.669	858.927	649.238
290.730	15.515	858.788	648.481
291.745	15.569	857.751	647.848
292.760	15.656	857.348	647.822
293.774	15.674	856.900	647.493
294.789	15.786	855.813	647.048
295.803	15.670	855.330	646.179
296.818	15.640	854.793	645.602
297.833	15.682	854.133	645.208
298.847	15.632	853.494	644.474
299.862	15.746	852.880	644.390
300.876	15.634	852.656	643.737
301.891	15.856	851.923	643.973
302.906	15.821	851.130	643.183
303.920	15.837	851.011	643.098
304.935	15.843	850.444	642.637
305.949	15.974	849.622	642.457
306.964	15.815	848.787	641.164
307.979	15.864	848.553	641.117
308.993	15.978	847.745	640.883
310.008	15.827	847.692	640.214
311.022	15.992	846.668	640.009
312.037	15.919	846.129	639.268
313.052	15.919	845.765	638.937
314.066	15.946	844.519	638.041
315.081	15.997	844.453	638.129
316.095	15.858	843.675	636.958
317.110	15.887	843.365	636.776
318.125	15.992	842.681	636.601
319.139	16.033	842.290	636.402
320.154	15.886	842.234	635.751
321.168	15.868	841.353	634.962
322.183	15.973	840.839	634.914
323.197	15.843	840.300	633.961
324.212	15.882	839.960	633.793
325.227	16.096	838.957	633.786
326.241	15.944	838.566	632.862
327.256	15.946	838.007	632.391
328.270	16.005	837.321	632.039
329.285	16.136	836.758	632.049
330.300	15.941	836.156	630.810
331.314	16.171	835.706	631.275
332.329	16.232	835.147	631.025
333.343	16.055	834.827	630.068
334.358	16.192	834.312	630.133
335.373	16.087	833.800	629.300
336.387	16.154	833.615	629.354
337.402	16.192	833.587	629.418
338.416	16.153	833.297	628.999
339.431	16.353	832.732	629.262
340.446	16.323	832.056	628.582
341.460	16.295	831.606	628.083
342.475	16.555	831.243	628.720
343.489	16.496	830.900	628.187
344.504	16.415	830.549	627.566
345.519	16.570	830.029	627.692
346.533	16.488	829.556	626.975
347.548	16.595	828.700	626.668
348.562	16.413	828.534	625.811
349.577	16.534	827.473	625.404
350.592	16.403	826.789	624.345
351.606	16.393	826.502	624.037
352.621	16.434	825.703	623.531
353.635	16.479	825.041	623.140
354.650	16.406	824.443	622.367
355.665	16.364	824.254	622.012
356.679	16.526	823.257	621.803
357.694	16.604	822.628	621.560
358.708	16.639	822.105	621.236
359.723	16.553	821.711	620.567
360.738	16.556	820.875	619.893
361.752	16.722	820.248	619.974
362.767	16.666	819.932	619.472
363.781	16.777	819.299	619.347
364.796	16.618	818.889	618.400
365.810	16.738	818.593	618.561
366.825	16.983	818.117	619.041
367.840	16.803	817.878	618.148
368.854	16.751	817.453	617.584
369.869	16.800	817.104	617.443
370.883	16.783	816.251	616.682
371.898	16.986	815.821	617.041
372.913	16.918	815.630	616.595
373.927	16.854	815.257	616.025
374.942	16.891	814.879	615.818
375.956	16.974	814.378	615.690
376.971	16.960	813.774	615.125
377.986	16.957	813.338	614.733
379.000	17.156	812.959	615.110
380.015	17.052	812.401	614.259
381.029	16.914	811.688	613.164
382.044	17.034	811.124	613.118
383.059	17.145	810.386	612.909
384.073	17.184	810.082	612.766
385.088	17.024	809.486	611.681
386.102	17.040	808.940	611.273
387.117	17.177	808.298	611.227
388.132	16.928	808.142	610.160
389.146	17.126	807.153	610.070
390.161	17.223	806.714	610.031
391.175	17.112	806.606	609.497
392.190	17.138	806.032	609.104
393.205	17.323	805.108	609.014
394.219	17.361	804.644	608.746
395.234	17.160	804.649	607.977
396.248	17.058	804.270	607.271
397.263	17.127	803.693	607.028
398.278	17.145	803.412	606.827
399.292	17.132	802.942	606.371
400.307	17.320	802.124	606.370
401.321	17.191	801.931	605.711
402.336	17.281	801.398	605.576
403.350	17.205	801.168	605.078
404.365	17.348	800.623	605.121
405.380	17.513	800.074	605.238
406.394	17.485	799.400	604.577
407.409	17.446	799.101	604.159
408.423	17.393	799.056	603.883
409.438	17.416	798.689	603.633
410.453	17.587	798.073	603.721
411.467	17.407	797.865	602.871
412.482	17.542	797.341	602.900
413.496	17.643	796.845	602.828
414.511	17.706	796.650	602.851
415.526	17.603	796.024	601.961
416.540	17.675	795.647	601.875
417.555	17.667	795.077	601.366
418.569	17.734	794.536	601.137
419.584	17.718	794.265	600.821
420.599	17.585	793.913	600.036
421.613	108.344	1288.210	1461.154
422.628	93.069	1360.256	1461.270
