DTS Sentinel unit serial number:	SN413079Multiplexer serial number:	ORYXHardware model number:	OX4-SRSoftware version number:	ORYX F/W v4.00 Oryx Data Collector v3.7.2.0data status	okinstallation	princeton_trtdifferential loss correction	single-endedforward channel	channel 1reverse channel	N/Adate	2019/09/14time	18:18:35forward acquisition time	60.00reverse acquisition time	0.00gamma	496.2192k internal	0.2301k external	0.2301temperature offset calibration	1.0039default loss term (dB/km)	0.3790temperature slope calibration	1.0000multiplexer offset coefficient	1.0000multiplexer slope coefficient	1.0000fibre end	0.00T internal ref (°C)	36.94T ext. ref 1 (°C)	4.97T ext. ref 2 (°C)	30.99length (m)	temperature (°C)	Stokes	anti-Stokes-747.200	800.000	-0.088	0.274
-746.185	800.000	0.080	0.252
-745.171	-200.000	0.026	-0.120
-744.156	800.000	0.026	0.102
-743.142	-174.052	0.305	0.009
-742.127	110.226	-0.374	0.458
-741.112	188.822	0.241	0.368
-740.098	-133.368	0.194	-0.025
-739.083	-23.345	-0.293	0.179
-738.069	800.000	0.093	0.282
-737.054	-15.065	0.398	-0.260
-736.039	800.000	-0.065	-0.208
-735.025	633.564	-0.063	0.163
-734.010	800.000	0.067	-0.255
-732.996	569.660	0.124	-0.307
-731.981	65.379	-0.112	0.115
-730.966	-84.311	0.153	-0.049
-729.952	-200.000	-0.050	-0.321
-728.937	-70.295	0.233	-0.090
-727.923	25.461	0.163	0.139
-726.908	-87.460	0.313	-0.096
-725.894	800.000	0.014	-0.042
-724.879	335.658	-0.207	-0.409
-723.864	800.000	-0.078	-0.328
-722.850	-1.747	-0.126	0.090
-721.835	-200.000	0.004	-0.369
-720.821	-45.342	-0.171	-0.086
-719.806	57.708	0.116	0.115
-718.791	415.057	-0.037	-0.080
-717.777	11.205	-0.103	-0.081
-716.762	62.767	0.187	-0.191
-715.748	21.989	-0.305	-0.253
-714.733	-200.000	-0.054	0.366
-713.718	-38.331	-0.112	0.061
-712.704	-138.805	-0.562	-0.062
-711.689	-112.593	-0.280	-0.057
-710.675	-26.135	-0.062	0.037
-709.660	120.536	-0.162	0.204
-708.645	81.679	-0.096	-0.106
-707.631	-63.113	0.270	-0.113
-706.616	-200.000	-0.041	0.198
-705.602	187.640	-0.033	-0.050
-704.587	494.308	-0.033	-0.076
-703.572	94.750	-0.191	-0.222
-702.558	-200.000	0.009	-0.371
-701.543	-200.000	0.026	-0.264
-700.529	-66.835	-0.160	-0.065
-699.514	-200.000	-0.023	0.332
-698.499	-200.000	-0.008	0.142
-697.485	800.000	-0.117	-0.356
-696.470	463.424	-0.133	0.301
-695.456	155.230	0.198	-0.277
-694.441	156.604	-0.079	0.111
-693.426	39.438	0.101	0.092
-692.412	-86.735	-0.111	0.035
-691.397	-40.166	-0.232	0.123
-690.383	-162.447	-0.258	0.013
-689.368	78.794	0.122	-0.133
-688.354	178.451	-0.069	0.103
-687.339	22.157	-0.114	0.094
-686.324	28.071	-0.167	-0.143
-685.310	-33.265	0.181	0.102
-684.295	464.953	-0.015	-0.033
-683.281	159.070	-0.183	-0.258
-682.266	-200.000	0.021	0.213
-681.251	-48.244	-0.329	0.162
-680.237	-9.790	-0.172	-0.116
-679.222	-68.734	0.168	0.066
-678.208	800.000	0.045	-0.182
-677.193	-62.119	0.212	-0.090
-676.178	800.000	-0.045	-0.195
-675.164	-200.000	0.042	-0.240
-674.149	-98.694	0.151	-0.039
-673.135	-97.182	-0.204	0.054
-672.120	734.702	0.065	-0.177
-671.105	-109.571	-0.415	-0.089
-670.091	-200.000	0.083	0.376
-669.076	800.000	0.029	0.100
-668.062	-36.614	-0.042	-0.023
-667.047	130.788	0.148	-0.194
-666.032	362.931	-0.173	-0.353
-665.018	209.010	0.135	0.215
-664.003	-129.653	-0.144	-0.020
-662.989	-11.820	-0.309	0.206
-661.974	800.000	0.059	0.211
-660.959	75.151	-0.157	-0.168
-659.945	-104.433	-0.264	0.062
-658.930	-94.812	-0.292	0.080
-657.916	89.658	-0.177	0.201
-656.901	800.000	-0.016	0.051
-655.886	2.911	0.162	0.119
-654.872	356.316	0.243	-0.492
-653.857	-200.000	0.009	-0.149
-652.843	-200.000	0.015	0.238
-651.828	-200.000	0.026	-0.193
-650.814	-112.042	-0.203	-0.042
-649.799	408.149	-0.042	-0.090
-648.784	236.806	-0.161	0.270
-647.770	-4.050	0.323	0.227
-646.755	13.453	0.211	0.166
-645.741	90.973	-0.072	-0.082
-644.726	486.138	-0.054	-0.126
-643.711	9.080	0.063	-0.049
-642.697	-136.193	0.154	-0.018
-641.682	181.303	0.112	0.167
-640.668	-200.000	-0.020	0.307
-639.653	-65.075	0.386	-0.158
-638.638	800.000	0.039	0.115
-637.624	378.461	0.064	0.132
-636.609	800.000	0.060	0.214
-635.595	761.581	-0.049	0.136
-634.580	-88.530	-0.196	0.059
-633.565	553.940	-0.165	-0.402
-632.551	-89.245	0.537	0.161
-631.536	-122.417	-0.321	0.053
-630.522	-200.000	-0.028	0.186
-629.507	66.791	-0.142	0.147
-628.492	800.000	0.087	0.370
-627.478	145.941	-0.228	-0.310
-626.463	800.000	-0.066	-0.223
-625.449	-76.654	-0.146	0.052
-624.434	800.000	-0.031	0.104
-623.419	-39.683	0.338	-0.179
-622.405	-1.459	0.169	0.121
-621.390	-75.256	-0.107	0.039
-620.376	-34.287	-0.114	0.064
-619.361	61.747	-0.214	0.216
-618.346	800.000	-0.055	-0.200
-617.332	-200.000	0.023	-0.198
-616.317	-95.947	0.246	0.067
-615.303	22.718	-0.247	-0.205
-614.288	284.981	-0.119	-0.217
-613.273	103.850	-0.237	0.282
-612.259	800.000	-0.026	0.082
-611.244	-137.136	-0.346	0.040
-610.230	-200.000	-0.058	0.264
-609.215	40.338	-0.138	0.126
-608.201	-160.705	0.303	-0.016
-607.186	-137.467	0.051	-0.006
-606.171	225.273	0.030	0.049
-605.157	-128.458	0.190	-0.027
-604.142	-200.000	-0.024	-0.216
-603.128	566.983	0.129	0.317
-602.113	131.568	0.063	0.082
-601.098	79.409	-0.100	-0.109
-600.084	-8.520	-0.088	0.060
-599.069	-41.520	0.274	-0.143
-598.055	250.854	0.090	-0.155
-597.040	23.182	-0.127	0.106
-596.025	100.244	0.012	-0.014
-595.011	429.289	0.013	-0.029
-593.996	800.000	-0.072	0.279
-592.982	85.524	-0.199	0.221
-591.967	-200.000	0.066	-0.338
-590.952	22.621	-0.086	-0.072
-589.938	108.266	-0.108	-0.131
-588.923	-32.283	0.190	0.108
-587.909	-170.289	-0.287	0.010
-586.894	-131.393	-0.222	0.030
-585.879	800.000	-0.026	0.108
-584.865	-84.469	-0.254	0.081
-583.850	-56.072	0.332	-0.150
-582.836	-99.987	-0.261	-0.066
-581.821	48.462	-0.141	-0.134
-580.806	190.133	-0.177	0.269
-579.792	-200.000	0.028	-0.273
-578.777	-80.682	-0.360	-0.121
-577.763	525.598	0.115	-0.274
-576.748	275.255	0.103	-0.185
-575.733	-200.000	0.008	-0.530
-574.719	38.196	0.094	-0.085
-573.704	-38.217	0.264	-0.142
-572.690	-200.000	0.000	-0.068
-571.675	106.820	0.128	-0.153
-570.661	-200.000	0.048	0.251
-569.646	-147.660	-0.185	-0.016
-568.631	56.443	0.025	-0.024
-567.617	172.527	0.061	0.089
-566.602	525.648	0.025	0.059
-565.588	-200.000	0.054	-0.255
-564.573	248.938	0.129	-0.221
-563.558	-44.675	-0.194	0.098
-562.544	-11.811	0.172	-0.114
-561.529	-200.000	0.000	-0.128
-560.515	145.715	0.178	-0.242
-559.500	146.239	-0.368	-0.500
-558.485	-65.232	0.122	0.050
-557.471	25.790	-0.074	0.062
-556.456	171.908	0.114	0.166
-555.442	140.528	0.108	-0.144
-554.427	-164.509	-0.321	-0.015
-553.412	-42.978	-0.443	-0.228
-552.398	-200.000	0.086	0.535
-551.383	800.000	0.011	-0.032
-550.369	800.000	-0.118	-0.387
-549.354	-116.538	0.148	-0.028
-548.339	-16.719	0.130	-0.083
-547.325	-122.067	0.080	0.013
-546.310	-200.000	0.004	-0.069
-545.296	258.116	-0.042	0.073
-544.281	-200.000	-0.011	0.219
-543.266	-13.784	0.097	-0.064
-542.252	-200.000	0.014	-0.217
-541.237	26.416	0.255	0.216
-540.223	53.641	-0.128	-0.124
-539.208	372.239	0.048	0.099
-538.193	553.238	-0.135	0.328
-537.179	800.000	0.067	0.189
-536.164	-200.000	0.032	0.255
-535.150	103.046	-0.092	0.109
-534.135	-134.948	-0.195	0.024
-533.121	122.550	0.134	0.170
-532.106	172.112	-0.144	-0.209
-531.091	-118.354	-0.131	-0.023
-530.077	-200.000	0.121	0.000
-529.062	7.514	0.082	-0.062
-528.048	133.111	-0.121	-0.158
-527.033	-200.000	0.032	-0.257
-526.018	800.000	-0.035	0.138
-525.004	228.929	0.265	-0.437
-523.989	-88.064	-0.106	0.032
-522.975	-135.981	-0.055	-0.007
-521.960	592.849	0.083	-0.208
-520.945	-200.000	-0.001	0.020
-519.931	127.051	-0.293	-0.376
-518.916	-200.000	0.022	0.232
-517.902	535.330	0.054	-0.128
-516.887	-95.854	-0.139	0.038
-515.872	-200.000	-0.015	0.115
-514.858	-102.986	0.328	0.079
-513.843	339.704	0.054	0.106
-512.829	130.192	-0.243	0.315
-511.814	239.925	0.140	0.235
-510.799	240.585	-0.022	0.038
-509.785	-200.000	0.022	-0.148
-508.770	-51.165	0.293	-0.139
-507.756	-101.471	0.169	-0.042
-506.741	-41.221	-0.186	0.097
-505.726	149.761	0.029	0.039
-504.712	414.033	0.086	-0.185
-503.697	-200.000	0.018	-0.218
-502.683	-111.226	-0.264	-0.054
-501.668	-71.950	-0.381	-0.143
-500.653	-28.708	-0.164	-0.095
-499.639	-14.638	0.095	0.062
-498.624	133.150	-0.166	0.216
-497.610	344.240	-0.046	-0.091
-496.595	250.859	-0.194	0.332
-495.581	-114.031	0.280	-0.055
-494.566	-97.486	-0.094	0.025
-493.551	-200.000	-0.004	0.086
-492.537	-200.000	0.025	0.307
-491.522	-59.614	0.435	0.188
-490.508	183.181	-0.221	0.329
-489.493	27.596	0.226	0.192
-488.478	-200.000	-0.039	-0.221
-487.464	800.000	0.006	-0.021
-486.449	-55.672	-0.346	-0.156
-485.435	800.000	0.118	-0.381
-484.420	-110.036	-0.203	0.043
-483.405	201.197	-0.084	0.131
-482.391	-0.181	-0.152	-0.109
-481.376	521.768	-0.017	-0.040
-480.362	323.412	0.030	-0.058
-479.347	-200.000	-0.023	0.168
-478.332	-107.736	0.202	-0.044
-477.318	455.146	0.068	0.152
-476.303	-200.000	-0.005	0.311
-475.289	-200.000	0.025	-0.280
-474.274	-200.000	-0.003	0.130
-473.259	-85.900	-0.229	0.071
-472.245	-117.512	-0.055	0.010
-471.230	370.758	0.136	0.278
-470.216	-80.896	0.114	-0.038
-469.201	102.234	0.328	0.387
-468.186	-144.751	-0.359	0.033
-467.172	211.949	0.083	-0.131
-466.157	-55.111	0.234	-0.106
-465.143	2.817	0.240	-0.176
-464.128	-200.000	-0.002	-0.166
-463.113	-66.758	0.306	-0.122
-462.099	800.000	0.090	-0.261
-461.084	-200.000	-0.057	-0.278
-460.070	293.294	0.079	0.145
-459.055	800.000	0.059	0.193
-458.040	-30.826	-0.207	0.118
-457.026	800.000	-0.132	-0.386
-456.011	64.959	0.263	-0.268
-454.997	-59.209	-0.154	-0.067
-453.982	-200.000	0.073	0.326
-452.968	180.994	0.056	-0.082
-451.953	-63.437	-0.100	0.042
-450.938	-200.000	0.000	-0.108
-449.924	-200.000	0.007	0.219
-448.909	182.712	-0.175	-0.261
-447.895	-85.105	-0.367	0.116
-446.880	5.935	-0.110	0.082
-445.865	114.257	-0.219	-0.269
-444.851	-200.000	-0.002	-0.144
-443.836	169.015	-0.148	-0.213
-442.822	-61.600	0.139	0.059
-441.807	736.097	0.011	-0.029
-440.792	743.446	-0.066	-0.180
-439.778	178.687	-0.048	0.071
-438.763	605.402	0.049	0.124
-437.749	39.954	0.214	0.193
-436.734	160.612	0.166	-0.233
-435.719	-126.325	-0.265	-0.040
-434.705	-150.836	0.275	-0.021
-433.690	-105.129	0.384	0.088
-432.676	-200.000	0.016	0.226
-431.661	-160.340	-0.361	-0.020
-430.646	161.292	0.044	0.062
-429.632	-188.339	-0.211	0.003
-428.617	-85.411	-0.367	0.115
-427.603	71.827	0.164	0.172
-426.588	245.197	-0.092	0.155
-425.573	55.763	-0.152	0.148
-424.559	-10.902	-0.056	-0.037
-423.544	69.953	0.114	-0.119
-422.530	-158.553	0.145	-0.008
-421.515	79.669	-0.302	-0.326
-420.500	-114.467	0.359	0.069
-419.486	800.000	0.049	-0.143
-418.471	-13.334	0.064	-0.042
-417.457	-200.000	-0.070	0.325
-416.442	-170.198	-0.227	0.008
-415.428	72.697	-0.092	-0.097
-414.413	800.000	0.091	0.356
-413.398	-102.731	0.324	-0.078
-412.384	-145.815	0.251	-0.023
-411.369	-150.491	0.063	-0.005
-410.355	800.000	0.038	-0.115
-409.340	-97.258	-0.030	-0.008
-408.325	-186.418	-0.056	0.001
-407.311	132.209	-0.130	-0.169
-406.296	-127.460	-0.183	-0.027
-405.282	305.186	-0.217	0.406
-404.267	180.548	0.264	0.389
-403.252	110.346	-0.040	0.048
-402.238	2.477	-0.233	-0.170
-401.223	320.897	-0.125	0.239
-400.209	77.098	-0.153	-0.163
-399.194	-159.346	-0.485	-0.027
-398.179	-101.024	0.443	-0.109
-397.165	800.000	-0.108	-0.359
-396.150	-200.000	0.012	-0.064
-395.136	-200.000	0.018	-0.089
-394.121	-200.000	0.037	0.188
-393.106	-200.000	-0.039	-0.188
-392.092	-200.000	0.025	-0.312
-391.077	-21.749	-0.296	0.181
-390.063	800.000	0.009	-0.033
-389.048	-130.806	0.077	0.010
-388.033	-23.416	-0.108	-0.065
-387.019	-200.000	-0.010	-0.319
-386.004	-200.000	-0.058	-0.266
-384.990	769.115	-0.078	0.214
-383.975	-61.109	-0.426	0.181
-382.960	478.834	0.053	0.122
-381.946	43.390	0.089	0.081
-380.931	-27.161	0.266	0.156
-379.917	-164.118	0.292	-0.014
-378.902	-200.000	0.003	-0.056
-377.888	-200.000	-0.028	0.483
-376.873	39.212	0.114	0.102
-375.858	22.921	0.105	0.087
-374.844	191.095	0.083	-0.126
-373.829	-51.776	0.093	0.044
-372.815	11.891	-0.129	0.100
-371.800	-200.000	-0.059	-0.268
-370.785	-31.252	-0.153	0.087
-369.771	-109.033	-0.157	0.034
-368.756	-88.175	0.209	-0.063
-367.742	-112.667	-0.155	0.031
-366.727	101.324	-0.139	-0.163
-365.712	-141.753	-0.361	0.036
-364.698	116.620	0.209	0.258
-363.683	-182.093	0.248	-0.005
-362.669	17.956	0.127	-0.102
-361.654	-118.776	0.215	-0.038
-360.639	345.325	0.089	0.175
-359.625	94.692	0.108	-0.124
-358.610	800.000	0.149	0.453
-357.596	-125.031	-0.346	0.053
-356.581	-200.000	0.020	-0.335
-355.566	800.000	0.123	-0.443
-354.552	-200.000	0.026	-0.393
-353.537	443.165	0.019	0.043
-352.523	97.259	-0.170	0.196
-351.508	133.990	-0.079	-0.102
-350.493	-131.756	-0.130	-0.017
-349.479	-15.012	0.165	-0.106
-348.464	333.612	-0.166	-0.322
-347.450	401.784	-0.030	0.063
-346.435	-200.000	-0.014	0.143
-345.420	-200.000	-0.020	-0.164
-344.406	-71.046	-0.130	-0.049
-343.391	-200.000	-0.032	-0.223
-342.377	-87.728	0.286	0.086
-341.362	167.434	-0.154	-0.220
-340.348	109.933	-0.165	0.199
-339.333	-159.033	0.202	0.011
-338.318	52.585	0.118	-0.113
-337.304	-143.450	-0.159	0.015
-336.289	-30.310	0.098	-0.056
-335.275	406.442	-0.122	0.258
-334.260	-167.881	0.346	-0.014
-333.245	155.856	0.063	-0.088
-332.231	-166.875	0.202	0.008
-331.216	800.000	0.010	0.039
-330.202	60.545	-0.200	-0.198
-329.187	-125.814	0.061	-0.009
-328.172	800.000	-0.027	-0.077
-327.158	546.649	0.086	0.206
-326.143	-91.310	0.341	-0.098
-325.129	120.609	-0.293	0.365
-324.114	-182.867	-0.116	0.002
-323.099	-111.354	0.330	0.067
-322.085	351.976	0.027	-0.054
-321.070	-200.000	0.010	-0.104
-320.056	24.206	0.149	0.123
-319.041	176.741	-0.013	0.020
-318.026	581.297	0.049	0.121
-317.012	-200.000	0.005	-0.091
-315.997	93.207	0.316	0.359
-314.983	-200.000	-0.009	0.061
-313.968	355.267	-0.039	0.077
-312.953	-23.539	-0.087	0.052
-311.939	800.000	0.060	-0.198
-310.924	-200.000	-0.012	0.340
-309.910	214.431	0.085	-0.136
-308.895	-121.976	-0.248	-0.041
-307.880	-147.486	0.105	0.009
-306.866	-92.857	-0.479	0.134
-305.851	800.000	-0.088	-0.260
-304.837	221.200	0.135	-0.217
-303.822	43.363	0.162	0.148
-302.807	241.080	-0.186	-0.312
-301.793	-92.410	-0.119	0.034
-300.778	97.191	0.099	0.114
-299.764	10.946	0.206	0.158
-298.749	-120.622	0.052	-0.009
-297.735	-26.583	-0.238	0.140
-296.720	-89.886	0.132	-0.039
-295.705	21.898	0.075	-0.062
-294.691	-200.000	-0.007	-0.293
-293.676	-85.466	-0.440	-0.137
-292.662	21.071	0.089	0.072
-291.647	800.000	0.068	-0.287
-290.632	91.291	-0.254	0.285
-289.618	-10.979	-0.350	0.232
-288.603	-106.893	0.234	0.052
-287.589	-47.063	-0.150	-0.073
-286.574	-74.303	0.305	0.110
-285.559	29.314	0.076	-0.064
-284.545	12.913	-0.096	0.074
-283.530	778.383	-0.061	-0.166
-282.516	283.178	-0.048	0.086
-281.501	-24.538	0.188	-0.112
-280.486	-113.267	0.318	-0.063
-279.472	240.706	0.193	-0.322
-278.457	-12.332	0.159	-0.104
-277.443	9.288	-0.126	-0.096
-276.428	-130.571	0.131	0.018
-275.413	-1.999	0.119	0.084
-274.399	143.629	-0.125	0.167
-273.384	-200.000	0.046	0.248
-272.370	-58.481	-0.284	0.123
-271.355	-69.231	-0.184	-0.071
-270.340	-74.701	0.278	-0.100
-269.326	-136.291	-0.078	0.009
-268.311	13.460	0.321	-0.249
-267.297	800.000	-0.069	0.224
-266.282	19.539	-0.075	-0.060
-265.267	76.070	0.166	-0.176
-264.253	-42.644	0.249	-0.127
-263.238	130.075	0.184	0.236
-262.224	-10.491	0.113	0.075
-261.209	221.970	0.144	-0.232
-260.195	800.000	0.058	0.174
-259.180	800.000	-0.035	0.118
-258.165	-61.958	-0.228	0.096
-257.151	103.027	0.223	0.261
-256.136	-102.165	-0.129	-0.031
-255.122	-200.000	-0.011	-0.057
-254.107	251.916	0.096	-0.164
-253.092	-200.000	0.028	0.145
-252.078	-122.514	0.070	0.011
-251.063	-1.253	-0.153	-0.108
-250.049	93.382	0.017	-0.020
-249.034	486.420	0.162	-0.369
-248.019	-200.000	-0.020	-0.124
-247.005	-154.390	0.157	0.011
-245.990	-127.007	-0.191	0.028
-244.976	384.724	0.006	0.013
-243.961	-22.153	-0.173	-0.105
-242.946	314.952	-0.160	-0.302
-241.932	152.950	-0.060	-0.082
-240.917	800.000	-0.091	0.384
-239.903	-66.778	0.202	-0.080
-238.888	74.798	-0.157	-0.166
-237.873	-175.816	0.159	-0.004
-236.859	41.454	0.126	0.114
-235.844	95.724	0.218	-0.249
-234.830	20.295	-0.075	0.061
-233.815	-67.733	0.055	-0.021
-232.800	-39.378	0.184	0.096
-231.786	-37.304	-0.467	0.250
-230.771	-93.759	0.238	-0.065
-229.757	-110.177	-0.093	0.019
-228.742	342.173	-0.051	-0.099
-227.727	-40.632	-0.037	0.019
-226.713	9.597	0.147	-0.111
-225.698	-89.424	0.087	-0.026
-224.684	5.388	0.036	0.026
-223.669	509.676	0.039	0.090
-222.655	800.000	-0.160	0.472
-221.640	-76.169	-0.106	-0.037
-220.625	-200.000	-0.040	0.189
-219.611	-200.000	-0.007	0.166
-218.596	-7.783	-0.135	-0.091
-217.582	74.238	-0.206	0.216
-216.567	-62.382	-0.151	0.063
-215.552	-88.484	0.296	-0.088
-214.538	57.088	0.277	0.270
-213.523	78.950	-0.100	0.107
-212.509	-200.000	-0.013	-0.241
-211.494	261.508	0.137	0.237
-210.479	-42.715	0.187	-0.095
-209.465	-3.640	0.145	0.101
-208.450	-101.462	-0.110	0.027
-207.436	800.000	-0.084	-0.292
-206.421	-200.000	0.023	0.178
-205.406	800.000	-0.050	-0.182
-204.392	-105.215	0.104	-0.024
-203.377	-69.979	0.253	0.096
-202.363	-57.145	0.139	0.061
-201.348	-121.922	-0.089	-0.015
-200.333	800.000	-0.065	-0.255
-199.319	-30.458	-0.355	-0.201
-198.304	-200.000	-0.029	-0.139
-197.290	-112.416	-0.176	-0.035
-196.275	315.418	0.085	0.159
-195.260	-200.000	0.021	0.499
-194.246	101.393	-0.042	-0.049
-193.231	327.041	0.183	0.350
-192.217	-13.673	-0.271	-0.175
-191.202	178.242	0.136	0.198
-190.187	448.650	-0.012	-0.025
-189.173	-111.904	-0.128	-0.026
-188.158	-87.190	-0.122	0.037
-187.144	230.684	-0.229	0.373
-186.129	522.147	-0.122	0.285
-185.114	-200.000	0.019	-0.118
-184.100	-22.793	0.120	0.072
-183.085	346.017	0.101	-0.198
-182.071	-200.000	-0.004	0.117
-181.056	-200.000	-0.018	0.217
-180.042	254.651	0.108	-0.184
-179.027	800.000	-0.040	-0.137
-178.012	-23.322	-0.029	-0.018
-176.998	110.447	-0.151	0.181
-175.983	527.454	0.111	-0.260
-174.969	-200.000	0.056	-0.283
-173.954	161.084	-0.132	0.184
-172.939	160.642	0.141	-0.196
-171.925	252.229	-0.088	-0.150
-170.910	208.359	-0.049	-0.077
-169.896	251.830	-0.047	0.080
-168.881	30.790	0.247	-0.211
-167.866	-110.876	0.278	-0.057
-166.852	-67.921	-0.081	-0.032
-165.837	83.133	0.231	0.251
-164.823	18.506	-0.299	0.238
-163.808	-200.000	-0.016	-0.254
-162.793	336.291	0.167	0.323
-161.779	-200.000	0.020	0.120
-160.764	-55.947	0.249	0.111
-159.750	97.224	-0.077	0.088
-158.735	332.632	-0.042	0.080
-157.720	15.259	0.145	0.114
-156.706	320.883	-0.092	0.174
-155.691	265.858	0.115	-0.200
-154.677	-200.000	0.024	-0.513
-153.662	-64.289	-0.133	-0.054
-152.647	5.196	-0.106	0.078
-151.633	-36.680	0.172	-0.092
-150.618	93.538	-0.075	0.085
-149.604	-200.000	0.004	-0.206
-148.589	-53.582	0.170	-0.077
-147.574	135.094	0.209	-0.271
-146.560	-200.000	0.052	-0.371
-145.545	209.249	0.132	0.206
-144.531	-148.804	0.294	-0.024
-143.516	759.898	0.114	-0.308
-142.502	-153.785	0.345	-0.024
-141.487	48.127	0.067	-0.063
-140.472	230.912	0.126	0.206
-139.458	602.367	-0.103	0.256
-138.443	-31.477	-0.028	-0.016
-137.429	704.071	0.170	-0.447
-136.414	83.586	-0.114	0.124
-135.399	-12.339	-0.079	-0.052
-134.385	-200.000	0.016	-0.184
-133.370	-79.918	-0.190	0.064
-132.356	-200.000	-0.049	0.354
-131.341	-200.000	0.018	0.355
-130.326	-63.474	-0.208	-0.085
-129.312	60.212	0.153	-0.150
-128.297	257.414	0.066	0.113
-127.283	56.391	-0.221	0.214
-126.268	-39.066	-0.336	0.176
-125.253	-200.000	0.069	0.333
-124.239	-47.859	0.165	0.079
-123.224	-200.000	-0.006	0.132
-122.210	-200.000	0.021	0.226
-121.195	-200.000	-0.032	-0.194
-120.180	-152.684	0.079	-0.006
-119.166	-48.589	0.089	0.043
-118.151	595.975	0.044	0.108
-117.137	100.122	0.188	0.216
-116.122	-99.628	0.100	-0.025
-115.107	-200.000	0.038	0.222
-114.093	122.643	0.174	-0.217
-113.078	567.714	-0.094	-0.227
-112.064	17.961	-0.186	-0.147
-111.049	-7.519	0.221	0.148
-110.034	493.542	-0.064	-0.147
-109.020	30.874	-0.008	-0.007
-108.005	-25.231	-0.112	-0.066
-106.991	-24.430	-0.201	-0.119
-105.976	5.677	-0.194	0.143
-104.962	-137.166	0.335	0.038
-103.947	8.363	0.187	0.140
-102.932	325.189	0.128	0.243
-101.918	-55.996	-0.330	0.146
-100.903	-143.966	0.473	0.044
-99.889	-129.289	0.223	-0.031
-98.874	-86.498	-0.324	-0.099
-97.859	800.000	0.167	0.560
-96.845	800.000	0.063	0.194
-95.830	79.787	-0.206	-0.220
-94.816	-200.000	0.003	-0.255
-93.801	800.000	0.040	-0.167
-92.786	-97.111	-0.125	-0.032
-91.772	-120.072	0.126	-0.021
-90.757	17.008	0.117	-0.092
-89.743	-79.329	0.064	0.022
-88.728	-27.349	-0.153	0.088
-87.713	-78.520	-0.572	-0.194
-86.699	149.338	0.094	0.127
-85.684	87.641	0.054	-0.059
-84.670	38.431	0.261	0.231
-83.655	-200.000	0.012	0.330
-82.640	139.095	0.111	-0.145
-81.626	-62.584	-0.058	-0.024
-80.611	800.000	-0.038	0.128
-79.597	123.887	0.196	0.244
-78.582	13.801	-0.095	-0.073
-77.567	-200.000	-0.005	0.201
-76.553	-200.000	0.015	0.077
-75.538	203.069	-0.143	0.220
-74.524	800.000	0.088	-0.258
-73.509	-148.990	0.422	0.034
-72.494	116.043	-0.051	-0.062
-71.480	-200.000	-0.007	0.120
-70.465	129.083	-0.116	0.147
-69.451	-129.553	-0.505	-0.069
-68.436	-180.318	-0.286	-0.006
-67.422	215.882	0.120	0.189
-66.407	-83.845	0.192	-0.061
-65.392	-77.626	-0.075	-0.026
-64.378	194.908	0.137	-0.206
-63.363	-72.434	-0.096	0.035
-62.349	-200.000	-0.062	0.355
-61.334	265.543	-0.601	-1.041
-60.319	36.216	0.236	0.206
-59.305	310.300	-0.322	-0.597
-58.290	86.140	0.625	0.683
-57.276	800.000	0.502	1.408
-56.261	-200.000	90.132	513.478
-55.246	551.490	1387.517	3305.125
-54.232	186.777	2593.333	3833.184
-53.217	121.411	2196.195	2714.742
-52.203	48.215	1647.090	1528.816
-51.188	40.342	1380.472	1232.552
-50.173	37.072	1337.394	1174.289
-49.159	56.822	1383.039	1336.323
-48.144	61.195	1402.187	1381.683
-47.130	40.893	1357.989	1215.656
-46.115	37.015	1340.630	1176.599
-45.100	36.788	1335.919	1171.041
-44.086	36.772	1333.311	1168.612
-43.071	36.751	1331.292	1166.670
-42.057	36.753	1328.828	1164.476
-41.042	36.772	1327.127	1163.051
-40.027	36.817	1325.778	1162.098
-39.013	36.791	1323.724	1160.091
-37.998	36.912	1321.596	1158.908
-36.984	36.754	1320.191	1156.683
-35.969	37.015	1317.884	1156.172
-34.954	37.016	1316.143	1154.606
-33.940	37.056	1314.633	1153.476
-32.925	37.020	1313.479	1152.205
-31.911	36.999	1312.223	1150.926
-30.896	37.079	1310.898	1150.197
-29.881	37.045	1309.195	1148.456
-28.867	37.039	1307.875	1147.218
-27.852	37.112	1305.724	1145.716
-26.838	37.008	1304.428	1143.919
-25.823	37.129	1302.725	1143.092
-24.809	37.057	1301.636	1141.669
-23.794	37.093	1300.141	1140.522
-22.779	37.043	1298.997	1139.181
-21.765	37.071	1297.550	1138.030
-20.750	36.949	1296.498	1136.347
-19.736	36.856	1295.349	1134.750
-18.721	36.811	1294.086	1133.338
-17.706	36.975	1292.637	1132.980
-16.692	36.936	1291.685	1131.877
-15.677	36.873	1290.546	1130.461
-14.663	36.883	1289.200	1129.296
-13.648	36.786	1288.559	1128.124
-12.633	36.919	1287.476	1127.907
-11.619	36.814	1286.556	1126.444
-10.604	36.842	1285.208	1125.382
-9.590	36.840	1284.376	1124.596
-8.575	36.798	1283.879	1123.876
-7.560	36.962	1282.403	1123.488
-6.546	36.804	1282.196	1122.349
-5.531	36.817	1280.931	1121.272
-4.517	36.734	1280.057	1119.980
-3.502	36.912	1278.652	1119.739
-2.487	36.957	1277.773	1119.181
-1.473	36.892	1273.802	1115.284
-0.458	35.301	1258.336	1092.640
0.556	30.921	1238.849	1048.535
1.571	26.623	1242.682	1027.360
2.586	25.230	1257.590	1031.588
3.600	24.217	1245.716	1015.986
4.615	18.379	1172.353	924.649
5.629	9.365	1094.559	817.585
6.644	5.153	1073.288	780.599
7.659	4.763	1070.725	776.720
8.673	4.895	1069.797	776.635
9.688	5.069	1067.897	776.053
10.702	5.187	1066.791	775.768
11.717	9.952	1074.072	804.781
12.731	17.844	1084.679	852.225
13.746	20.361	1087.309	866.798
14.761	19.046	1084.938	858.277
15.775	18.140	1082.348	851.641
16.790	16.949	1080.565	844.237
17.804	16.224	1079.183	839.476
18.819	15.878	1077.814	836.617
19.834	15.545	1077.141	834.367
20.848	15.395	1076.378	832.958
21.863	15.225	1075.349	831.248
22.877	15.097	1074.672	830.014
23.892	14.955	1074.693	829.251
24.907	15.107	1073.096	828.698
25.921	15.147	1072.196	828.128
26.936	15.097	1070.963	826.859
27.950	15.060	1069.152	825.202
28.965	15.221	1067.947	824.993
29.980	15.385	1066.424	824.549
30.994	15.285	1065.637	823.376
32.009	15.300	1064.748	822.691
33.023	15.358	1063.271	821.760
34.038	15.160	1062.244	819.923
35.053	15.261	1061.085	819.454
36.067	15.181	1060.604	818.618
37.082	15.258	1059.462	818.038
38.096	15.318	1059.276	818.114
39.111	15.379	1057.756	817.169
40.126	15.098	1056.815	815.002
41.140	14.996	1055.539	813.450
42.155	14.880	1054.173	811.758
43.169	14.967	1052.880	811.113
44.184	14.934	1051.844	810.084
45.199	14.907	1051.085	809.299
46.213	15.007	1049.852	808.760
47.228	15.119	1049.014	808.584
48.242	15.066	1048.271	807.683
49.257	15.127	1047.404	807.238
50.271	15.161	1046.491	806.626
51.286	15.151	1045.577	805.806
52.301	15.234	1044.438	805.252
53.315	15.136	1043.456	803.953
54.330	14.976	1042.558	802.424
55.344	15.013	1041.220	801.503
56.359	15.188	1040.512	801.720
57.374	15.047	1040.123	800.675
58.388	14.958	1038.803	799.166
59.403	14.979	1037.809	798.431
60.417	14.997	1036.972	797.800
61.432	14.966	1036.557	797.264
62.447	14.719	1035.958	795.555
63.461	14.863	1034.821	795.295
64.476	14.870	1033.894	794.549
65.490	14.776	1033.277	793.556
66.505	14.898	1031.993	793.077
67.520	14.880	1031.441	792.501
68.534	14.859	1031.006	791.997
69.549	14.801	1030.347	791.145
70.563	14.910	1028.940	790.511
71.578	14.746	1028.363	789.219
72.593	14.739	1027.598	788.530
73.607	14.765	1026.785	787.961
74.622	14.570	1026.871	787.036
75.636	14.682	1026.168	786.955
76.651	14.709	1025.154	786.236
77.666	14.920	1023.810	786.128
78.680	14.867	1023.611	785.656
79.695	14.690	1023.066	784.335
80.709	14.803	1022.769	784.569
81.724	15.088	1021.626	784.958
82.739	14.975	1020.925	783.825
83.753	15.002	1020.727	783.731
84.768	15.292	1019.567	784.123
85.782	15.424	1018.514	783.861
86.797	15.254	1017.996	782.599
87.812	14.992	1017.253	780.737
88.826	15.213	1016.023	780.752
89.841	15.329	1014.679	780.191
90.855	15.195	1014.477	779.346
91.870	15.345	1013.401	779.145
92.884	15.301	1012.216	777.960
93.899	15.289	1011.482	777.275
94.914	15.507	1010.410	777.388
95.928	15.381	1009.696	776.189
96.943	15.239	1009.142	775.039
97.957	15.198	1008.512	774.297
98.972	15.400	1006.994	773.994
99.987	15.352	1006.759	773.525
101.001	15.342	1005.221	772.228
102.016	15.322	1004.582	771.574
103.030	15.387	1003.680	771.111
104.045	15.368	1002.901	770.361
105.060	15.144	1002.259	768.770
106.074	15.272	1001.231	768.501
107.089	15.075	1000.010	766.594
108.103	14.970	999.429	765.599
109.118	14.925	998.371	764.515
110.133	15.045	997.224	764.117
111.147	14.913	996.694	763.040
112.162	15.049	995.738	762.863
113.176	15.107	995.064	762.541
114.191	15.062	994.550	761.878
115.206	15.087	993.457	761.087
116.220	14.981	992.630	759.902
117.235	15.189	991.431	759.864
118.249	15.072	990.890	758.849
119.264	14.919	990.483	757.780
120.279	14.758	989.890	756.528
121.293	15.047	988.145	756.433
122.308	14.885	987.489	755.132
123.322	14.849	986.812	754.387
124.337	14.973	985.457	753.841
125.352	14.756	984.913	752.380
126.366	14.908	983.413	751.855
127.381	14.829	982.902	751.041
128.395	14.939	981.843	750.658
129.410	15.039	980.632	750.116
130.424	15.036	979.860	749.446
131.439	15.272	978.910	749.705
132.454	15.097	978.447	748.505
133.468	15.160	977.446	747.952
134.483	15.097	976.741	747.067
135.497	15.145	976.097	746.723
136.512	15.316	974.765	746.399
137.527	15.103	974.192	744.947
138.541	15.239	973.222	744.742
139.556	15.298	972.499	744.383
140.570	15.304	972.083	744.028
141.585	15.378	971.078	743.522
142.600	15.450	969.867	742.847
143.614	15.480	968.974	742.229
144.629	15.521	968.581	742.044
145.643	15.355	967.812	740.654
146.658	15.339	966.777	739.727
147.673	15.198	965.772	738.273
148.687	15.262	964.764	737.718
149.702	15.188	963.849	736.628
150.716	15.172	963.300	736.071
151.731	15.174	962.695	735.554
152.746	15.111	962.203	734.837
153.760	15.158	961.354	734.330
154.775	15.237	961.104	734.419
155.789	15.326	960.290	734.123
156.804	15.359	959.318	733.460
157.819	15.436	958.544	733.138
158.833	15.510	958.113	733.067
159.848	15.422	957.532	732.175
160.862	15.466	956.132	731.230
161.877	15.288	955.047	729.561
162.892	15.196	954.183	728.438
163.906	15.237	953.454	727.992
164.921	15.250	952.265	727.079
165.935	15.286	951.435	726.535
166.950	15.445	950.152	726.177
167.964	15.399	949.748	725.608
168.979	15.260	948.581	724.050
169.994	15.237	948.027	723.464
171.008	15.325	947.249	723.186
172.023	15.568	946.609	723.682
173.037	15.569	945.694	722.920
174.052	15.405	945.201	721.775
175.067	15.343	944.465	720.883
176.081	15.229	944.298	720.202
177.096	15.224	943.579	719.567
178.110	15.350	942.806	719.457
179.125	15.336	942.417	719.036
180.140	15.275	942.219	718.557
181.154	15.480	941.367	718.725
182.169	15.615	940.760	718.773
183.183	15.498	940.449	717.975
184.198	15.631	939.394	717.671
185.213	15.614	939.110	717.319
186.227	15.579	938.236	716.440
187.242	15.637	937.613	716.147
188.256	15.798	936.756	716.114
189.271	15.700	936.001	715.058
190.286	15.583	935.073	713.788
191.300	15.398	934.419	712.439
192.315	15.257	933.710	711.239
193.329	15.308	933.212	711.012
194.344	15.388	932.677	710.879
195.359	15.529	931.384	710.427
196.373	15.661	931.501	711.012
197.388	15.832	930.887	711.205
198.402	15.859	930.389	710.876
199.417	15.906	929.887	710.627
200.432	15.927	929.417	710.295
201.446	16.077	928.638	710.268
202.461	16.073	928.323	709.944
203.475	16.098	927.703	709.516
204.490	15.919	926.679	707.917
205.504	15.770	926.074	706.764
206.519	15.783	925.708	706.476
207.534	15.956	924.346	706.102
208.548	15.716	924.320	705.013
209.563	15.738	923.757	704.614
210.577	15.874	922.790	704.383
211.592	15.971	922.391	704.422
212.607	16.270	921.312	704.782
213.621	16.020	920.965	703.411
214.636	15.964	920.052	702.417
215.650	16.088	919.215	702.237
216.665	16.102	918.786	701.901
217.680	16.133	918.288	701.589
218.694	16.258	917.378	701.350
219.709	16.182	916.620	700.393
220.723	16.272	915.787	700.068
221.738	16.202	915.380	699.405
222.753	16.179	914.777	698.786
223.767	16.075	914.535	698.109
224.782	16.286	913.525	698.150
225.796	16.077	913.616	697.293
226.811	16.236	912.534	697.065
227.826	16.206	911.655	696.207
228.840	16.093	910.684	694.935
229.855	16.051	910.514	694.574
230.869	16.186	909.381	694.204
231.884	16.030	908.985	693.198
232.899	16.058	908.087	692.566
233.913	16.077	907.473	692.114
234.928	16.058	906.737	691.416
235.942	16.078	905.919	690.812
236.957	16.025	905.795	690.440
237.972	16.032	905.243	689.984
238.986	16.037	904.433	689.329
240.001	16.028	904.024	688.920
241.015	16.181	903.060	688.749
242.030	16.115	902.610	688.075
243.045	16.321	901.963	688.359
244.059	16.422	901.388	688.271
245.074	16.301	900.726	687.213
246.088	16.340	900.129	686.854
247.103	16.361	899.577	686.458
248.117	16.561	898.917	686.707
249.132	16.569	898.644	686.468
250.147	16.699	898.002	686.446
251.161	16.760	897.304	686.096
252.176	16.816	896.462	685.620
253.190	16.815	895.819	685.063
254.205	16.995	894.933	685.051
255.220	16.810	894.448	683.875
256.234	16.772	893.653	683.052
257.249	16.804	893.217	682.788
258.263	16.837	892.281	682.145
259.278	16.748	891.946	681.471
260.293	16.938	891.196	681.598
261.307	16.812	890.863	680.779
262.322	17.067	889.949	681.043
263.336	17.062	889.388	680.536
264.351	17.061	888.681	679.927
265.366	17.056	888.222	679.497
266.380	17.096	887.245	678.848
267.395	16.838	886.910	677.502
268.409	16.902	886.185	677.144
269.424	16.852	885.523	676.377
270.439	17.006	884.276	675.979
271.453	16.829	884.025	675.024
272.468	16.898	883.638	674.944
273.482	16.993	882.625	674.485
274.497	16.776	882.408	673.397
275.512	16.845	881.298	672.765
276.526	16.821	881.364	672.663
277.541	16.891	880.608	672.302
278.555	17.179	879.839	672.797
279.570	17.081	879.590	672.160
280.585	17.112	878.531	671.411
281.599	17.125	877.518	670.630
282.614	17.151	877.062	670.325
283.628	17.029	876.694	669.504
284.643	16.871	876.229	668.468
285.657	17.077	875.289	668.501
286.672	17.128	874.647	668.154
287.687	17.108	874.017	667.535
288.701	17.190	873.775	667.611
289.716	17.116	873.039	666.702
290.730	17.099	872.247	665.970
291.745	17.207	871.905	666.072
292.760	17.227	871.422	665.725
293.774	17.322	870.548	665.369
294.789	17.294	870.103	664.859
295.803	17.172	869.288	663.703
296.818	17.115	868.495	662.815
297.833	17.128	867.669	662.178
298.847	17.324	866.902	662.297
299.862	17.310	866.702	662.031
300.876	17.220	866.585	661.534
301.891	17.427	865.283	661.284
302.906	17.517	865.254	661.554
303.920	17.445	865.006	661.023
304.935	17.525	864.259	660.708
305.949	17.600	863.306	660.212
306.964	17.453	862.824	659.213
307.979	17.437	862.293	658.689
308.993	17.557	862.015	658.880
310.008	17.609	860.598	657.940
311.022	17.593	860.040	657.395
312.037	17.397	859.854	656.436
313.052	17.505	859.198	656.295
314.066	17.299	858.960	655.263
315.081	17.280	858.279	654.610
316.095	17.367	857.475	654.272
317.110	17.187	857.353	653.433
318.125	17.467	856.275	653.627
319.139	17.518	855.716	653.338
320.154	17.455	855.413	652.806
321.168	17.496	855.197	652.744
322.183	17.407	854.716	651.974
323.197	17.407	853.997	651.371
324.212	17.571	853.297	651.406
325.227	17.434	852.905	650.525
326.241	17.517	852.009	650.102
327.256	17.421	851.758	649.486
328.270	17.371	851.161	648.782
329.285	17.588	850.265	648.868
330.300	17.675	849.687	648.700
331.314	17.349	849.552	647.299
332.329	17.563	849.472	647.995
333.343	17.708	848.587	647.815
334.358	17.699	848.160	647.395
335.373	17.694	847.606	646.900
336.387	17.602	847.579	646.473
337.402	17.711	847.286	646.603
338.416	17.786	846.775	646.440
339.431	17.884	846.159	646.286
340.446	18.035	845.853	646.565
341.460	18.084	845.639	646.529
342.475	18.146	845.172	646.352
343.489	17.998	844.669	645.348
344.504	18.120	844.196	645.389
345.519	18.112	843.993	645.148
346.533	18.153	843.141	644.596
347.548	17.979	842.679	643.529
348.562	18.001	841.805	642.889
349.577	18.013	841.435	642.591
350.592	17.815	840.582	641.142
351.606	17.802	839.898	640.512
352.621	17.905	839.354	640.427
353.635	17.955	838.498	639.907
354.650	18.013	837.931	639.635
355.665	18.121	837.055	639.311
356.679	18.142	836.787	639.128
357.694	18.089	836.182	638.414
358.708	18.065	836.053	638.168
359.723	18.079	835.035	637.388
360.738	18.111	834.397	636.963
361.752	18.076	834.030	636.497
362.767	18.291	833.317	636.695
363.781	18.269	832.875	636.219
364.796	18.330	832.730	636.279
365.810	18.403	832.343	636.200
366.825	18.425	831.833	635.835
367.840	18.265	831.683	635.069
368.854	18.275	830.888	634.445
369.869	18.309	830.485	634.205
370.883	18.441	829.815	634.125
371.898	18.418	829.592	633.815
372.913	18.458	829.063	633.500
373.927	18.563	828.244	633.209
374.942	18.481	828.049	632.700
375.956	18.508	827.776	632.536
376.971	18.584	827.039	632.195
377.986	18.703	826.880	632.456
379.000	18.640	826.504	631.882
380.015	18.612	825.952	631.301
381.029	18.550	825.090	630.359
382.044	18.690	824.552	630.404
383.059	18.691	824.099	630.007
384.073	18.628	823.702	629.415
385.088	18.671	822.990	628.973
386.102	18.659	822.293	628.340
387.117	18.498	821.863	627.369
388.132	18.506	821.054	626.725
389.146	18.567	820.597	626.545
390.161	18.666	820.437	626.728
391.175	18.680	820.054	626.429
392.190	18.773	818.893	625.828
393.205	18.656	818.626	625.143
394.219	18.632	818.352	624.791
395.234	18.528	817.947	624.046
396.248	18.503	817.549	623.597
397.263	18.565	816.787	623.186
398.278	18.496	816.674	622.792
399.292	18.558	816.033	622.474
400.307	18.581	815.457	622.063
401.321	18.693	815.027	622.087
402.336	18.682	814.471	621.568
403.350	18.714	813.830	621.139
404.365	18.716	813.676	620.973
405.380	18.913	813.310	621.353
406.394	18.818	812.996	620.714
407.409	18.909	812.454	620.573
408.423	18.934	812.017	620.276
409.438	18.996	811.876	620.335
410.453	19.061	811.357	620.120
411.467	19.180	810.820	620.081
412.482	19.189	810.097	619.505
413.496	19.365	809.682	619.767
414.511	19.031	809.893	618.671
415.526	19.139	809.270	618.531
416.540	19.087	809.093	618.154
417.555	19.155	808.495	617.886
418.569	19.081	808.062	617.233
419.584	19.167	807.528	617.081
420.599	19.189	807.223	616.872
421.613	153.684	1368.914	1785.756
422.628	133.428	1450.749	1785.852
