DTS Sentinel unit serial number:	SN413079Multiplexer serial number:	ORYXHardware model number:	OX4-SRSoftware version number:	ORYX F/W v4.00 Oryx Data Collector v3.7.2.0data status	okinstallation	princeton_trtdifferential loss correction	single-endedforward channel	channel 1reverse channel	N/Adate	2019/09/12time	08:32:11forward acquisition time	60.00reverse acquisition time	0.00gamma	496.2192k internal	0.2312k external	0.2312temperature offset calibration	1.0039default loss term (dB/km)	0.3790temperature slope calibration	1.0000multiplexer offset coefficient	1.0000multiplexer slope coefficient	1.0000fibre end	0.00T internal ref (°C)	33.69T ext. ref 1 (°C)	1.70T ext. ref 2 (°C)	29.92length (m)	temperature (°C)	Stokes	anti-Stokes-747.200	-148.027	0.490	0.041
-746.185	-109.311	-0.066	0.014
-745.171	230.182	-0.207	-0.344
-744.156	677.745	-0.087	0.229
-743.142	113.574	0.206	-0.254
-742.127	-103.428	-0.242	-0.058
-741.112	-82.604	-0.053	0.018
-740.098	-0.189	-0.138	-0.100
-739.083	-169.068	0.195	-0.007
-738.069	109.047	-0.126	0.153
-737.054	-188.112	-0.232	0.003
-736.039	-42.238	-0.111	0.057
-735.025	-200.000	-0.005	0.343
-734.010	800.000	-0.008	-0.026
-732.996	800.000	-0.079	0.319
-731.981	14.166	-0.139	-0.110
-730.966	142.236	0.149	-0.201
-729.952	-167.502	-0.153	0.006
-728.937	277.340	0.085	0.153
-727.923	-172.917	-0.197	0.006
-726.908	-135.853	0.110	-0.013
-725.894	-41.022	-0.162	-0.085
-724.879	-81.579	0.046	0.015
-723.864	-64.419	0.183	0.075
-722.850	356.374	-0.199	-0.401
-721.835	800.000	-0.039	0.151
-720.821	800.000	-0.054	-0.195
-719.806	-93.264	-0.366	-0.103
-718.791	-200.000	-0.019	0.229
-717.777	-41.938	-0.188	-0.098
-716.762	-21.018	0.298	0.185
-715.748	-44.549	-0.236	0.120
-714.733	800.000	0.113	-0.392
-713.718	205.470	-0.129	-0.203
-712.704	401.263	-0.019	0.041
-711.689	75.521	-0.173	0.185
-710.675	-27.289	-0.266	-0.157
-709.660	97.873	-0.126	0.147
-708.645	-180.184	0.158	-0.003
-707.631	397.383	-0.071	-0.150
-706.616	66.647	0.358	-0.369
-705.602	110.291	0.178	0.217
-704.587	215.597	-0.160	-0.257
-703.572	206.470	0.082	-0.130
-702.558	35.460	-0.141	0.126
-701.543	-22.117	-0.261	-0.160
-700.529	-60.906	-0.141	0.060
-699.514	-200.000	0.044	0.476
-698.499	-52.134	0.350	-0.165
-697.485	-200.000	-0.012	-0.479
-696.470	-44.364	0.244	0.124
-695.456	-0.855	-0.445	-0.319
-694.441	13.121	-0.136	0.107
-693.426	142.523	0.050	-0.068
-692.412	18.350	0.124	-0.101
-691.397	204.297	-0.105	-0.165
-690.383	153.693	-0.013	-0.019
-689.368	115.855	-0.129	0.160
-688.354	76.284	-0.081	0.087
-687.339	140.707	-0.108	0.144
-686.324	2.727	-0.264	-0.194
-685.310	-200.000	-0.033	0.288
-684.295	-120.903	0.079	0.013
-683.281	-20.769	-0.106	-0.066
-682.266	-200.000	-0.015	-0.233
-681.251	800.000	-0.078	-0.264
-680.237	-40.109	-0.103	0.054
-679.222	-160.945	0.132	-0.007
-678.208	4.589	-0.154	-0.114
-677.193	448.371	0.060	-0.133
-676.178	-200.000	-0.008	-0.073
-675.164	-115.755	0.106	-0.020
-674.149	-200.000	0.002	0.009
-673.135	-98.546	0.178	0.046
-672.120	767.146	-0.107	0.294
-671.105	508.711	0.107	0.252
-670.091	-200.000	0.006	-0.041
-669.076	-29.125	0.093	-0.054
-668.062	-200.000	0.009	0.229
-667.047	333.884	-0.185	-0.363
-666.032	133.367	0.133	-0.174
-665.018	800.000	-0.076	-0.269
-664.003	-200.000	-0.011	0.107
-662.989	19.185	0.010	0.008
-661.974	22.118	0.029	-0.024
-660.959	-32.836	-0.165	-0.093
-659.945	-56.005	0.288	-0.130
-658.930	-200.000	-0.026	-0.421
-657.916	800.000	-0.018	0.056
-656.901	-200.000	-0.053	0.236
-655.886	800.000	0.101	0.290
-654.872	-200.000	-0.020	-0.157
-653.857	-200.000	0.012	-0.211
-652.843	213.227	-0.140	-0.224
-651.828	115.392	-0.071	-0.088
-650.814	67.140	0.128	0.132
-649.799	-200.000	0.002	0.181
-648.784	-31.567	-0.031	0.017
-647.770	618.981	-0.096	-0.245
-646.755	-200.000	-0.043	0.227
-645.741	53.305	0.096	-0.093
-644.726	14.831	0.147	-0.116
-643.711	-200.000	-0.014	0.421
-642.697	-170.987	0.152	-0.005
-641.682	800.000	-0.045	0.148
-640.668	-130.740	0.057	0.008
-639.653	-20.617	0.116	0.072
-638.638	57.503	-0.141	-0.139
-637.624	73.977	0.143	-0.151
-636.609	-38.609	0.291	-0.155
-635.595	800.000	-0.049	0.143
-634.580	800.000	0.117	-0.331
-633.565	1.586	0.032	-0.023
-632.551	310.134	-0.066	-0.125
-631.536	-200.000	0.051	0.257
-630.522	-120.794	-0.413	0.070
-629.507	4.977	-0.251	-0.187
-628.492	198.633	-0.251	-0.388
-627.478	-200.000	0.005	-0.323
-626.463	95.254	-0.147	0.169
-625.449	-14.034	0.222	-0.145
-624.434	-17.449	0.197	-0.125
-623.419	-162.373	-0.321	0.016
-622.405	-200.000	0.011	0.130
-621.390	800.000	0.008	0.022
-620.376	-117.175	0.070	0.013
-619.361	-200.000	0.004	0.160
-618.346	-88.448	-0.201	-0.060
-617.332	-200.000	0.043	-0.317
-616.317	294.016	-0.078	0.144
-615.303	-87.925	0.186	-0.057
-614.288	-200.000	0.020	-0.133
-613.273	-82.458	0.117	0.038
-612.259	62.681	-0.174	-0.176
-611.244	-200.000	0.037	0.218
-610.230	-79.440	-0.175	-0.060
-609.215	800.000	0.053	-0.193
-608.201	-200.000	0.026	0.277
-607.186	243.204	-0.262	0.444
-606.171	-129.008	-0.104	-0.015
-605.157	-76.648	-0.123	0.044
-604.142	108.329	0.149	-0.179
-603.128	281.558	0.126	0.228
-602.113	800.000	-0.049	-0.167
-601.098	35.205	0.027	-0.024
-600.084	800.000	-0.063	-0.213
-599.069	-156.137	-0.213	0.014
-598.055	800.000	-0.100	0.288
-597.040	-36.988	-0.261	-0.141
-596.025	-62.327	0.241	-0.101
-595.011	-0.354	-0.271	0.194
-593.996	-134.111	0.130	0.016
-592.982	-154.791	-0.276	0.018
-591.967	-73.802	0.205	-0.075
-590.952	130.591	0.231	0.299
-589.938	157.412	0.113	-0.158
-588.923	-200.000	-0.016	-0.314
-587.909	-92.174	0.031	0.009
-586.894	-120.392	-0.273	-0.047
-585.879	-200.000	-0.046	-0.243
-584.865	484.851	-0.072	-0.166
-583.850	-129.670	-0.044	0.006
-582.836	-96.680	0.327	0.087
-581.821	170.161	-0.108	0.155
-580.806	287.137	-0.059	-0.108
-579.792	-0.858	0.122	0.087
-578.777	800.000	0.033	-0.136
-577.763	76.402	0.025	-0.027
-576.748	-147.042	-0.278	-0.024
-575.733	-141.941	-0.260	-0.026
-574.719	-200.000	0.033	0.173
-573.704	-161.040	0.091	-0.005
-572.690	-116.663	0.215	-0.040
-571.675	-159.267	0.145	-0.008
-570.661	26.158	0.073	-0.062
-569.646	56.649	0.159	0.156
-568.631	-19.917	0.229	0.143
-567.617	234.817	-0.138	-0.229
-566.602	79.770	-0.377	0.408
-565.588	22.304	-0.103	0.085
-564.573	-78.142	0.255	-0.088
-563.558	593.656	0.143	0.355
-562.544	104.059	-0.036	0.042
-561.529	490.392	-0.102	-0.235
-560.515	-200.000	-0.013	-0.096
-559.500	-200.000	0.028	0.131
-558.485	-200.000	-0.019	0.108
-557.471	800.000	-0.033	0.123
-556.456	179.036	-0.150	0.221
-555.442	-46.371	-0.452	0.224
-554.427	-109.201	-0.147	0.031
-553.412	-3.431	0.087	0.061
-552.398	-34.993	-0.247	0.136
-551.383	-64.466	0.142	-0.058
-550.369	-75.091	0.070	-0.025
-549.354	-82.392	0.301	0.099
-548.339	-88.120	-0.025	-0.008
-547.325	-200.000	-0.007	-0.206
-546.310	271.420	-0.125	-0.221
-545.296	800.000	-0.071	-0.210
-544.281	44.280	-0.137	-0.126
-543.266	110.195	-0.014	0.017
-542.252	236.878	-0.072	0.120
-541.237	-7.175	-0.165	0.113
-540.223	-200.000	0.026	0.135
-539.208	88.111	-0.288	-0.321
-538.193	65.017	0.158	-0.160
-537.179	-171.178	-0.148	0.005
-536.164	260.296	-0.052	0.091
-535.150	-200.000	-0.044	0.000
-534.135	135.134	-0.073	0.095
-533.121	159.054	-0.178	-0.249
-532.106	-134.632	0.168	0.021
-531.091	-117.005	0.143	-0.026
-530.077	-200.000	0.006	0.185
-529.062	-0.125	-0.200	0.143
-528.048	20.566	-0.054	-0.044
-527.033	378.420	0.107	0.220
-526.018	800.000	-0.037	0.143
-525.004	32.490	-0.233	0.203
-523.989	-78.439	-0.220	-0.076
-522.975	19.998	-0.255	0.207
-521.960	198.588	-0.204	-0.314
-520.945	-64.958	0.314	0.128
-519.931	-70.897	0.142	-0.054
-518.916	-200.000	-0.017	0.116
-517.902	125.670	0.259	-0.328
-516.887	26.268	-0.083	0.070
-515.872	242.152	0.160	-0.270
-514.858	575.498	0.143	-0.350
-513.843	81.639	-0.129	0.141
-512.829	393.869	-0.124	-0.260
-511.814	800.000	-0.016	-0.066
-510.799	-200.000	0.025	-0.119
-509.785	560.972	0.024	0.059
-508.770	-166.587	-0.106	0.004
-507.756	13.536	0.342	0.267
-506.741	75.522	-0.064	0.068
-505.726	206.478	0.077	0.120
-504.712	-200.000	-0.001	-0.044
-503.697	-10.574	0.050	0.033
-502.683	-200.000	0.034	0.195
-501.668	-29.476	-0.197	0.113
-500.653	-1.807	-0.024	-0.017
-499.639	306.849	0.096	0.179
-498.624	150.144	-0.006	0.008
-497.610	-44.438	-0.245	-0.123
-496.595	-200.000	0.046	-0.244
-495.581	-57.335	-0.086	-0.038
-494.566	-77.834	0.218	-0.076
-493.551	-49.280	-0.228	0.109
-492.537	-91.114	-0.307	0.089
-491.522	-42.005	0.106	0.055
-490.508	40.967	0.092	0.083
-489.493	14.550	-0.181	-0.142
-488.478	-144.318	-0.207	-0.019
-487.464	85.827	-0.020	-0.022
-486.449	758.592	-0.012	-0.032
-485.435	39.387	0.240	-0.216
-484.420	152.981	-0.170	0.234
-483.405	25.366	-0.096	0.080
-482.391	800.000	-0.158	0.564
-481.376	800.000	-0.007	-0.021
-480.362	278.932	0.172	0.308
-479.347	-153.705	-0.305	-0.021
-478.332	-78.261	-0.392	-0.135
-477.318	502.105	-0.076	0.176
-476.303	800.000	0.093	-0.325
-475.289	180.560	0.210	-0.309
-474.274	-200.000	0.028	0.154
-473.259	358.531	0.072	-0.144
-472.245	146.848	-0.051	0.068
-471.230	288.039	0.073	0.132
-470.216	-24.311	-0.260	-0.156
-469.201	-52.779	-0.124	0.057
-468.186	-116.720	0.145	0.027
-467.172	284.004	-0.066	-0.119
-466.157	-148.170	0.074	-0.006
-465.143	240.218	0.189	0.316
-464.128	496.805	-0.162	0.375
-463.113	-72.461	0.159	-0.059
-462.099	-88.341	0.139	-0.042
-461.084	-86.508	0.322	0.099
-460.070	-200.000	0.069	0.309
-459.055	-152.489	-0.301	-0.022
-458.040	-200.000	-0.006	-0.281
-457.026	-52.073	-0.101	0.047
-456.011	-165.594	-0.248	0.011
-454.997	206.675	0.092	0.143
-453.982	800.000	-0.032	0.140
-452.968	-117.708	0.248	-0.045
-451.953	-184.977	0.265	-0.004
-450.938	40.529	0.285	-0.258
-449.924	-50.966	-0.301	0.142
-448.909	800.000	-0.092	0.290
-447.895	132.889	0.193	-0.250
-446.880	-71.853	0.266	-0.099
-445.865	-61.147	-0.173	0.073
-444.851	-92.121	0.309	0.088
-443.836	-129.285	-0.241	-0.034
-442.822	-52.933	0.258	-0.119
-441.807	217.584	-0.187	0.299
-440.792	-75.110	-0.075	0.027
-439.778	0.307	-0.033	-0.024
-438.763	-200.000	-0.079	-0.461
-437.749	-110.791	0.099	-0.021
-436.734	74.788	-0.230	0.243
-435.719	-33.532	-0.249	-0.138
-434.705	296.744	-0.061	0.112
-433.690	120.755	0.135	0.168
-432.676	43.904	0.137	-0.126
-431.661	186.785	-0.210	-0.313
-430.646	10.900	0.188	0.144
-429.632	12.837	-0.063	-0.049
-428.617	397.214	-0.057	0.120
-427.603	-145.061	0.371	0.034
-426.588	800.000	0.126	-0.504
-425.573	-93.359	0.337	0.094
-424.559	-1.963	0.086	0.061
-423.544	-14.081	-0.156	-0.101
-422.530	800.000	-0.115	-0.354
-421.515	-74.227	-0.128	-0.047
-420.500	-37.130	0.200	0.107
-419.486	107.474	0.286	0.341
-418.471	-114.927	-0.358	0.068
-417.457	9.559	-0.164	-0.124
-416.442	-117.068	0.117	0.021
-415.428	63.267	-0.162	0.163
-414.413	40.063	-0.083	0.074
-413.398	800.000	0.029	-0.093
-412.384	800.000	-0.060	0.251
-411.369	-33.586	0.182	-0.101
-410.355	-36.967	0.247	-0.133
-409.340	-50.082	0.261	-0.124
-408.325	75.109	-0.157	0.165
-407.311	-33.230	-0.165	0.091
-406.296	36.260	-0.282	0.249
-405.282	-102.762	-0.121	-0.029
-404.267	-109.483	-0.341	0.072
-403.252	-78.149	0.410	-0.141
-402.238	-91.440	0.473	-0.135
-401.223	168.009	0.127	-0.180
-400.209	-200.000	0.029	0.199
-399.194	-57.259	-0.266	0.117
-398.179	800.000	-0.054	0.204
-397.165	748.397	0.064	-0.172
-396.150	401.958	-0.075	0.157
-395.136	-28.184	-0.299	-0.173
-394.121	115.991	-0.125	-0.153
-393.106	-93.618	0.261	0.072
-392.092	800.000	0.093	0.339
-391.077	84.966	0.352	-0.386
-390.063	-67.454	-0.324	0.127
-389.048	-93.414	0.402	0.111
-388.033	-102.594	0.082	-0.020
-387.019	-55.251	0.345	-0.155
-386.004	-200.000	-0.014	-0.119
-384.990	-23.479	0.151	0.091
-383.975	800.000	0.067	-0.252
-382.960	-187.074	-0.387	0.005
-381.946	37.525	0.060	-0.053
-380.931	-200.000	0.018	0.169
-379.917	-200.000	0.028	0.241
-378.902	800.000	-0.023	-0.074
-377.888	239.284	0.134	-0.222
-376.873	3.719	0.099	0.072
-375.858	26.569	-0.146	0.122
-374.844	381.738	0.228	0.469
-373.829	58.936	-0.111	0.110
-372.815	30.757	-0.301	0.257
-371.800	-112.625	0.418	-0.083
-370.785	-200.000	0.014	-0.126
-369.771	800.000	-0.051	-0.220
-368.756	149.576	-0.091	-0.124
-367.742	-41.726	-0.173	0.089
-366.727	-200.000	-0.015	-0.092
-365.712	-85.675	0.061	-0.019
-364.698	-82.495	0.233	-0.076
-363.683	47.452	0.118	-0.110
-362.669	123.297	-0.027	0.033
-361.654	-40.156	-0.219	0.114
-360.639	-200.000	0.002	-0.069
-359.625	-200.000	0.014	0.159
-358.610	-41.012	-0.245	0.126
-357.596	800.000	0.031	-0.121
-356.581	800.000	0.079	0.227
-355.566	35.489	-0.169	-0.149
-354.552	84.183	0.047	0.052
-353.537	-11.502	0.172	0.113
-352.523	-78.503	0.153	0.052
-351.508	-200.000	0.005	-0.173
-350.493	103.080	0.279	-0.327
-349.479	-200.000	-0.057	-0.310
-348.464	-13.893	0.172	-0.111
-347.450	60.967	-0.223	-0.221
-346.435	-94.293	0.054	0.015
-345.420	-200.000	-0.027	0.186
-344.406	161.368	0.054	-0.076
-343.391	800.000	-0.016	-0.063
-342.377	98.474	0.068	-0.079
-341.362	-51.275	-0.122	-0.057
-340.348	167.815	-0.053	0.075
-339.333	594.181	-0.094	0.231
-338.318	-111.023	0.145	0.030
-337.304	-82.231	0.185	0.060
-336.289	-114.165	0.082	0.016
-335.275	-200.000	0.005	-0.041
-334.260	-118.693	0.249	-0.044
-333.245	26.153	-0.072	0.060
-332.231	-200.000	-0.001	-0.030
-331.216	-200.000	0.084	-0.373
-330.202	-152.741	0.261	0.019
-329.187	5.547	0.116	0.086
-328.172	-108.764	-0.192	0.041
-327.158	411.291	-0.048	-0.101
-326.143	-200.000	0.002	0.083
-325.129	378.548	-0.034	0.068
-324.114	25.311	0.158	0.131
-323.099	211.321	0.069	-0.108
-322.085	-21.327	0.167	-0.102
-321.070	-200.000	-0.022	0.194
-320.056	-62.443	-0.277	-0.115
-319.041	-8.899	-0.216	-0.144
-318.026	-12.730	0.204	-0.133
-317.012	800.000	-0.076	-0.291
-315.997	-59.653	0.221	-0.095
-314.983	-23.671	0.156	-0.093
-313.968	-34.345	0.099	-0.054
-312.953	89.197	-0.215	-0.238
-311.939	80.924	0.067	0.072
-310.924	800.000	-0.027	0.083
-309.910	-9.693	-0.055	-0.037
-308.895	256.148	-0.073	-0.124
-307.880	4.828	0.079	-0.058
-306.866	-18.436	-0.096	-0.060
-305.851	226.371	0.042	-0.068
-304.837	752.058	-0.034	0.090
-303.822	35.104	-0.101	-0.089
-302.807	156.367	-0.158	-0.217
-301.793	45.090	-0.048	-0.044
-300.778	164.230	-0.111	0.156
-299.764	180.182	-0.078	0.114
-298.749	-59.716	-0.430	-0.184
-297.735	128.661	-0.131	-0.166
-296.720	-125.619	0.256	-0.039
-295.705	323.054	-0.273	0.518
-294.691	-21.786	0.073	0.044
-293.676	-200.000	-0.025	0.218
-292.662	800.000	0.041	0.132
-291.647	157.531	0.194	0.268
-290.632	312.170	-0.147	-0.275
-289.618	800.000	0.051	-0.185
-288.603	442.949	0.040	-0.087
-287.589	754.189	0.059	0.158
-286.574	362.464	0.067	0.135
-285.559	800.000	0.043	-0.166
-284.545	322.418	-0.034	-0.064
-283.530	157.970	-0.044	0.061
-282.516	-44.993	0.332	-0.164
-281.501	-72.898	-0.085	0.031
-280.486	130.735	-0.172	0.220
-279.472	-147.811	0.285	0.024
-278.457	-67.145	0.178	-0.070
-277.443	800.000	0.148	0.566
-276.428	-200.000	-0.010	-0.225
-275.413	34.140	0.211	-0.183
-274.399	106.765	0.082	0.097
-273.384	-22.941	-0.221	0.133
-272.370	-16.187	-0.185	-0.117
-271.355	-33.522	0.374	-0.206
-270.340	-74.593	0.100	0.036
-269.326	421.147	-0.132	-0.282
-268.311	-195.462	0.277	-0.002
-267.297	-64.245	0.083	-0.034
-266.282	-22.699	0.208	0.125
-265.267	-200.000	0.006	-0.184
-264.253	161.180	-0.107	0.149
-263.238	118.257	-0.116	-0.143
-262.224	-125.794	0.140	-0.021
-261.209	-176.023	-0.219	0.006
-260.195	97.900	0.121	0.138
-259.180	-200.000	0.028	0.155
-258.165	-75.653	0.137	0.048
-257.151	168.961	-0.273	0.388
-256.136	-200.000	0.006	-0.451
-255.122	49.498	-0.197	0.184
-254.107	571.093	0.124	-0.301
-253.092	-46.594	-0.103	0.050
-252.078	-69.799	0.202	-0.077
-251.063	172.590	0.092	0.132
-250.049	87.755	0.094	0.104
-249.034	-142.308	-0.201	0.020
-248.019	39.853	-0.094	0.084
-247.005	-67.322	0.197	0.077
-245.990	5.705	0.100	0.074
-244.976	634.703	-0.126	0.318
-243.961	-3.390	0.030	-0.021
-242.946	-200.000	0.190	-0.000
-241.932	-200.000	0.055	0.390
-240.917	360.288	0.083	-0.165
-239.903	85.522	0.124	-0.136
-238.888	800.000	0.084	-0.267
-237.873	-71.810	0.114	-0.042
-236.859	-200.000	-0.004	0.209
-235.844	-61.647	0.121	0.051
-234.830	-93.978	0.248	-0.068
-233.815	-121.986	0.079	-0.013
-232.800	73.439	-0.144	-0.150
-231.786	-54.989	-0.042	0.019
-230.771	117.674	0.218	-0.267
-229.757	-111.530	0.142	0.029
-228.742	-121.322	0.318	-0.053
-227.727	-65.456	-0.317	-0.127
-226.713	-129.272	0.153	0.021
-225.698	800.000	0.057	-0.204
-224.684	-3.803	-0.069	-0.047
-223.669	26.919	0.146	-0.121
-222.655	354.498	-0.086	0.169
-221.640	-131.357	0.202	-0.027
-220.625	53.931	0.125	0.120
-219.611	446.008	0.053	-0.115
-218.596	-118.977	0.103	-0.018
-217.582	-200.000	0.003	-0.192
-216.567	-25.771	-0.118	-0.069
-215.552	62.059	0.137	-0.136
-214.538	-59.260	-0.384	-0.164
-213.523	-200.000	0.000	-0.111
-212.509	205.609	0.070	-0.108
-211.494	800.000	-0.057	0.199
-210.479	800.000	0.091	0.337
-209.465	-1.426	0.137	-0.096
-208.450	58.043	-0.161	-0.157
-207.436	-16.500	-0.192	-0.121
-206.421	-14.174	0.108	0.069
-205.406	-94.842	0.092	-0.025
-204.392	-129.215	-0.289	-0.040
-203.377	33.119	-0.250	0.215
-202.363	800.000	-0.119	-0.380
-201.348	28.376	-0.231	0.194
-200.333	-200.000	0.005	0.179
-199.319	-110.213	-0.150	-0.031
-198.304	127.482	0.051	-0.064
-197.290	-177.869	-0.239	0.006
-196.275	-1.907	-0.119	0.083
-195.260	800.000	-0.087	0.273
-194.246	-18.735	0.299	-0.185
-193.231	-9.280	0.344	-0.228
-192.217	-200.000	-0.025	0.133
-191.202	159.126	-0.140	0.193
-190.187	-42.671	0.058	0.030
-189.173	5.668	-0.261	0.192
-188.158	173.565	0.145	0.207
-187.144	800.000	-0.050	-0.209
-186.129	800.000	0.026	0.073
-185.114	-124.394	-0.202	0.031
-184.100	141.176	-0.229	0.301
-183.085	612.832	-0.115	-0.287
-182.071	-90.940	0.076	-0.022
-181.056	-122.165	0.223	-0.036
-180.042	-28.225	-0.206	0.118
-179.027	292.781	-0.111	0.201
-178.012	-38.713	-0.474	-0.248
-176.998	-91.316	0.239	0.068
-175.983	100.203	-0.229	-0.264
-174.969	289.882	0.057	0.103
-173.954	-117.263	0.269	0.049
-172.939	98.328	-0.008	0.009
-171.925	255.652	-0.042	0.072
-170.910	0.838	0.176	-0.125
-169.896	3.436	-0.184	0.133
-168.881	26.906	-0.079	0.066
-167.866	162.576	-0.072	-0.100
-166.852	19.447	-0.085	0.067
-165.837	800.000	0.046	0.169
-164.823	-200.000	0.017	0.351
-163.808	800.000	-0.058	-0.188
-162.793	54.433	0.058	-0.055
-161.779	-39.233	0.131	-0.068
-160.764	69.452	0.104	-0.106
-159.750	800.000	-0.071	-0.281
-158.735	-200.000	-0.010	0.254
-157.720	-200.000	0.002	-0.167
-156.706	-47.804	-0.240	-0.115
-155.691	0.289	-0.094	0.066
-154.677	-33.492	0.325	0.178
-153.662	451.098	-0.064	0.141
-152.647	103.848	0.074	0.086
-151.633	-76.246	0.298	-0.104
-150.618	-121.686	0.097	0.016
-149.604	157.848	0.049	-0.067
-148.589	31.366	-0.109	0.093
-147.574	-127.724	-0.191	-0.027
-146.560	-200.000	0.021	0.166
-145.545	-8.768	0.111	-0.074
-144.531	-81.671	-0.098	0.032
-143.516	-151.124	-0.282	-0.021
-142.502	81.966	-0.065	0.070
-141.487	-142.790	0.112	0.011
-140.472	24.427	0.296	0.242
-139.458	-159.447	-0.186	-0.010
-138.443	-200.000	-0.004	0.473
-137.429	-200.000	0.005	-0.027
-136.414	800.000	0.087	-0.245
-135.399	138.709	0.153	0.199
-134.385	-2.849	0.197	-0.136
-133.370	18.059	-0.098	0.077
-132.356	800.000	-0.049	-0.152
-131.341	152.468	0.099	0.133
-130.326	127.641	0.050	-0.063
-129.312	8.003	-0.190	0.141
-128.297	1.567	-0.281	-0.201
-127.283	-116.081	-0.223	0.041
-126.268	-200.000	0.062	-0.347
-125.253	-200.000	0.005	0.069
-124.239	33.245	0.114	-0.098
-123.224	234.918	0.076	0.123
-122.210	-200.000	0.022	-0.174
-121.195	-94.579	0.110	0.030
-120.180	800.000	0.099	0.401
-119.166	800.000	-0.063	-0.248
-118.151	135.778	0.136	0.175
-117.137	67.015	0.115	-0.116
-116.122	-200.000	-0.046	0.211
-115.107	-99.230	0.091	-0.023
-114.093	511.279	0.058	-0.134
-113.078	-50.151	-0.434	0.204
-112.064	37.669	-0.098	-0.086
-111.049	-200.000	0.023	-0.162
-110.034	15.246	-0.154	0.119
-109.020	-13.858	-0.282	0.180
-108.005	-200.000	0.067	-0.388
-106.991	-133.836	-0.328	0.040
-105.976	-154.781	-0.184	0.012
-104.962	-200.000	0.028	-0.132
-103.947	-200.000	0.013	0.398
-102.932	91.520	-0.024	-0.026
-101.918	-200.000	0.026	-0.119
-100.903	-21.365	-0.100	-0.060
-99.889	10.165	0.094	-0.071
-98.874	440.743	-0.137	0.297
-97.859	179.758	0.080	0.116
-96.845	274.393	0.068	-0.119
-95.830	-28.463	-0.213	-0.121
-94.816	-74.785	0.127	0.045
-93.801	92.977	0.199	0.222
-92.786	800.000	-0.024	-0.102
-91.772	800.000	0.123	0.418
-90.757	303.896	0.082	-0.150
-89.743	-165.520	-0.270	0.012
-88.728	513.849	0.065	0.149
-87.713	219.841	-0.132	-0.209
-86.699	-200.000	-0.003	-0.046
-85.684	-87.675	-0.119	-0.035
-84.670	504.007	-0.056	0.129
-83.655	-200.000	-0.007	-0.402
-82.640	-127.881	0.257	0.036
-81.626	800.000	-0.055	-0.229
-80.611	-200.000	0.017	-0.080
-79.597	-30.684	-0.043	0.024
-78.582	800.000	-0.043	0.149
-77.567	-120.096	0.048	-0.008
-76.553	232.552	-0.128	-0.207
-75.538	82.243	0.085	0.091
-74.524	213.242	-0.053	-0.083
-73.509	158.948	0.084	0.115
-72.494	-11.226	0.251	0.164
-71.480	25.440	0.139	-0.115
-70.465	88.551	0.242	-0.265
-69.451	407.598	0.071	-0.149
-68.436	121.804	-0.163	0.201
-67.422	276.845	-0.078	0.137
-66.407	-200.000	0.006	0.094
-65.392	447.187	0.111	0.242
-64.378	-122.057	0.092	0.015
-63.363	-200.000	0.015	-0.091
-62.349	121.900	0.071	0.088
-61.334	67.953	-0.936	-0.946
-60.319	95.350	0.733	0.826
-59.305	800.000	-0.270	-0.868
-58.290	547.937	0.359	0.849
-57.276	420.858	0.729	1.543
-56.261	-200.000	99.196	593.427
-55.246	528.270	1419.953	3307.978
-54.232	148.662	2620.759	3497.028
-53.217	112.522	2175.274	2599.520
-52.203	45.297	1623.738	1478.834
-51.188	37.070	1359.375	1187.895
-50.173	33.932	1316.732	1131.930
-49.159	56.780	1366.578	1313.827
-48.144	60.016	1384.326	1350.424
-47.130	37.480	1338.297	1171.763
-46.115	33.906	1320.506	1134.839
-45.100	33.679	1315.517	1129.154
-44.086	33.576	1313.227	1126.533
-43.071	33.544	1311.207	1124.569
-42.057	33.540	1309.052	1122.649
-41.042	33.645	1307.491	1121.891
-40.027	33.703	1305.947	1120.860
-39.013	33.496	1304.541	1118.390
-37.998	33.586	1302.594	1117.206
-36.984	33.742	1300.484	1116.272
-35.969	33.660	1298.851	1114.342
-34.954	33.699	1297.051	1112.979
-33.940	33.862	1295.743	1112.773
-32.925	33.823	1294.251	1111.214
-31.911	33.701	1293.115	1109.487
-30.896	33.782	1291.140	1108.221
-29.881	33.933	1289.637	1107.767
-28.867	33.815	1289.040	1106.518
-27.852	33.715	1287.363	1104.453
-26.838	33.978	1285.165	1104.051
-25.823	33.744	1284.530	1102.106
-24.809	33.950	1282.808	1101.779
-23.794	33.816	1281.823	1100.112
-22.779	33.711	1280.452	1098.283
-21.765	33.828	1279.018	1097.685
-20.750	33.785	1277.952	1096.482
-19.736	33.737	1276.568	1094.975
-18.721	33.724	1275.405	1093.855
-17.706	33.661	1274.417	1092.601
-16.692	33.600	1273.271	1091.226
-15.677	33.652	1272.256	1090.614
-14.663	33.509	1271.545	1089.135
-13.648	33.556	1270.457	1088.430
-12.633	33.486	1269.436	1087.113
-11.619	33.598	1268.689	1087.069
-10.604	33.565	1267.235	1085.592
-9.590	33.588	1266.399	1084.967
-8.575	33.497	1265.867	1083.945
-7.560	33.635	1264.719	1083.708
-6.546	33.515	1264.185	1082.524
-5.531	33.648	1262.448	1081.749
-4.517	33.640	1261.827	1081.133
-3.502	33.599	1261.206	1080.321
-2.487	33.705	1259.917	1079.779
-1.473	33.739	1255.807	1076.406
-0.458	32.542	1241.697	1057.554
0.556	29.005	1223.864	1020.250
1.571	25.482	1229.215	1004.961
2.586	24.540	1245.077	1012.501
3.600	23.809	1233.970	999.272
4.615	17.128	1159.317	903.315
5.629	6.536	1080.969	789.401
6.644	2.074	1059.912	752.006
7.659	1.683	1057.077	748.009
8.673	1.551	1055.832	746.415
9.688	1.484	1054.169	744.844
10.702	1.869	1052.883	745.754
11.717	8.153	1062.233	783.250
12.731	18.449	1078.111	845.975
13.746	23.915	1084.354	877.858
14.761	24.943	1085.137	883.490
15.775	24.939	1084.828	883.141
16.790	24.741	1083.791	881.240
17.804	24.682	1083.502	880.635
18.819	24.874	1082.727	880.875
19.834	25.025	1082.423	881.293
20.848	25.120	1082.075	881.397
21.863	24.900	1081.530	879.797
22.877	24.986	1080.280	879.120
23.892	24.933	1079.860	878.444
24.907	24.907	1079.678	878.092
25.921	24.892	1078.255	876.782
26.936	25.038	1076.360	875.879
27.950	24.847	1075.252	873.965
28.965	24.811	1073.592	872.360
29.980	24.856	1071.708	870.972
30.994	25.056	1070.755	871.096
32.009	24.942	1070.149	869.969
33.023	24.875	1068.602	868.309
34.038	24.830	1068.362	867.821
35.053	24.931	1067.851	867.819
36.067	24.772	1067.125	866.381
37.082	25.033	1066.383	866.965
38.096	25.074	1065.498	866.368
39.111	25.231	1064.747	866.436
40.126	25.033	1063.718	864.568
41.140	24.771	1061.278	861.247
42.155	24.659	1060.186	859.747
43.169	24.609	1059.451	858.834
44.184	24.671	1058.702	858.449
45.199	24.495	1057.757	856.763
46.213	24.686	1056.317	856.434
47.228	24.849	1055.807	856.729
48.242	24.941	1054.835	856.302
49.257	24.908	1054.074	855.452
50.271	25.057	1053.616	855.715
51.286	25.096	1052.699	855.080
52.301	24.986	1052.544	854.356
53.315	24.987	1051.005	853.037
54.330	24.927	1049.731	851.641
55.344	25.001	1049.222	851.504
56.359	24.859	1048.719	850.343
57.374	24.750	1047.393	848.678
58.388	24.798	1046.558	848.155
59.403	24.610	1045.416	846.260
60.417	24.462	1044.952	845.112
61.432	24.722	1044.006	845.500
62.447	24.740	1043.426	845.044
63.461	24.710	1043.110	844.568
64.476	24.684	1041.779	843.294
65.490	24.507	1041.320	842.011
66.505	24.564	1040.984	841.934
67.520	24.715	1039.391	841.285
68.534	24.508	1038.518	839.528
69.549	24.222	1036.997	836.882
70.563	24.234	1036.394	836.380
71.578	24.235	1035.497	835.584
72.593	24.015	1034.868	833.971
73.607	24.128	1034.414	834.060
74.622	24.408	1034.035	834.992
75.636	24.549	1033.217	834.917
76.651	24.475	1032.022	833.533
77.666	24.332	1031.812	832.623
78.680	24.471	1030.996	832.538
79.695	24.501	1030.325	832.061
80.709	24.494	1029.623	831.388
81.724	24.459	1028.967	830.622
82.739	24.665	1027.784	830.553
83.753	24.985	1027.473	831.715
84.768	25.163	1026.976	832.066
85.782	25.345	1025.883	831.949
86.797	25.325	1024.854	830.948
87.812	25.107	1023.698	828.930
88.826	25.138	1023.013	828.445
89.841	25.190	1022.333	828.061
90.855	25.139	1021.401	826.998
91.870	25.145	1020.735	826.413
92.884	25.027	1019.483	824.780
93.899	25.117	1017.980	823.905
94.914	25.231	1017.327	823.830
95.928	25.044	1016.194	821.980
96.943	24.846	1014.803	819.875
97.957	24.546	1013.842	817.655
98.972	24.519	1012.194	816.130
99.987	24.789	1012.062	817.186
101.001	24.892	1011.464	817.097
102.016	24.853	1010.742	816.266
103.030	24.906	1009.302	815.272
104.045	24.697	1008.454	813.566
105.060	24.601	1007.402	812.209
106.074	24.669	1006.997	812.117
107.089	25.044	1006.535	813.374
108.103	24.903	1005.568	811.881
109.118	24.657	1003.892	809.342
110.133	24.766	1003.302	809.289
111.147	24.475	1001.999	806.850
112.162	24.280	1001.007	805.100
113.176	24.749	1000.403	806.662
114.191	24.578	1000.069	805.549
115.206	24.339	998.704	803.300
116.220	24.366	997.694	802.539
117.235	24.378	997.054	802.009
118.249	24.446	995.846	801.272
119.264	24.316	995.311	800.186
120.279	24.320	994.997	799.881
121.293	24.380	994.411	799.606
122.308	24.416	993.666	799.099
123.322	24.307	992.236	797.390
124.337	24.190	991.195	795.963
125.352	23.612	989.646	792.070
126.366	23.620	988.247	790.911
127.381	24.354	988.673	794.456
128.395	24.964	988.374	796.859
129.410	24.969	987.263	795.914
130.424	25.014	986.203	795.192
131.439	24.996	985.258	794.280
132.454	24.991	984.411	793.503
133.468	24.748	984.140	792.137
134.483	24.979	982.806	792.014
135.497	25.247	982.171	792.618
136.512	25.113	981.334	791.283
137.527	25.202	980.404	790.854
138.541	25.137	979.970	790.150
139.556	25.250	978.668	789.526
140.570	25.203	978.146	788.829
141.585	25.312	977.362	788.605
142.600	25.204	975.939	786.914
143.614	25.421	975.576	787.501
144.629	25.538	974.257	786.879
145.643	25.326	973.024	784.885
146.658	25.184	971.630	783.071
147.673	25.123	970.466	781.799
148.687	24.820	970.295	780.270
149.702	24.945	968.710	779.474
150.716	24.833	968.005	778.350
151.731	24.929	967.438	778.242
152.746	25.208	966.637	778.739
153.760	25.372	965.870	778.765
154.775	25.369	965.694	778.541
155.789	25.398	964.564	777.685
156.804	25.208	964.054	776.384
157.819	25.328	963.012	775.996
158.833	25.555	962.137	776.199
159.848	25.443	961.238	774.923
160.862	25.259	959.961	773.034
161.877	25.262	959.098	772.281
162.892	25.443	957.562	771.754
163.906	25.227	956.558	769.952
164.921	25.354	955.759	769.785
165.935	25.129	955.480	768.528
166.950	25.269	954.622	768.370
167.964	25.356	953.509	767.777
168.979	25.094	952.487	765.768
169.994	25.077	951.794	765.071
171.008	25.317	951.088	765.457
172.023	25.528	950.270	765.629
173.037	25.089	949.368	762.969
174.052	25.001	948.503	761.830
175.067	25.092	947.592	761.418
176.081	25.093	947.219	761.055
177.096	24.998	946.633	760.113
178.110	24.834	945.502	758.442
179.125	24.619	944.580	756.727
180.140	24.739	943.997	756.701
181.154	24.800	944.698	757.454
182.169	25.090	944.215	758.228
183.183	25.298	943.641	758.579
184.198	25.231	942.289	757.141
185.213	25.189	942.157	756.790
186.227	25.294	941.091	756.311
187.242	25.312	940.617	755.938
188.256	25.323	939.975	755.400
189.271	25.359	939.196	754.858
190.286	25.186	937.623	752.801
191.300	24.527	936.392	748.985
192.315	23.583	934.912	743.782
193.329	23.640	934.542	743.658
194.344	24.525	934.861	747.552
195.359	25.116	934.769	749.886
196.373	25.093	934.563	749.558
197.388	25.070	933.899	748.862
198.402	25.032	933.267	748.132
199.417	25.362	932.025	748.447
200.432	24.934	931.712	746.345
201.446	24.750	930.920	744.876
202.461	24.952	929.841	744.787
203.475	23.950	928.175	739.228
204.490	23.346	926.957	735.683
205.504	24.124	927.396	739.198
206.519	24.822	927.025	741.730
207.534	25.009	926.253	741.821
208.548	25.291	926.668	743.258
209.563	24.957	925.655	740.997
210.577	25.035	924.899	740.648
211.592	25.543	924.818	742.618
212.607	25.423	923.889	741.311
213.621	25.440	923.160	740.728
214.636	25.375	922.630	739.973
215.650	25.123	922.128	738.466
216.665	25.442	921.454	739.172
217.680	25.354	920.624	738.081
218.694	25.127	919.142	735.897
219.709	24.753	918.994	734.175
220.723	25.062	918.878	735.288
221.738	25.254	917.571	734.963
222.753	25.212	917.112	734.359
223.767	25.296	916.633	734.252
224.782	25.485	916.832	735.121
225.796	25.649	915.458	734.623
226.811	24.879	914.250	730.449
227.826	24.203	912.955	726.594
228.840	24.304	912.655	726.704
229.855	24.505	912.077	726.994
230.869	24.130	910.803	724.390
231.884	24.584	910.943	726.287
232.899	25.205	911.246	728.985
233.913	25.032	910.614	727.714
234.928	25.079	909.990	727.342
235.942	25.043	909.220	726.515
236.957	24.912	907.669	724.681
237.972	24.768	907.807	724.144
238.986	24.792	907.363	723.822
240.001	24.972	906.477	723.779
241.015	25.098	905.823	723.704
242.030	25.096	905.551	723.412
243.045	25.295	905.084	723.780
244.059	25.292	904.735	723.425
245.074	25.250	903.441	722.154
246.088	24.979	902.642	720.362
247.103	25.057	902.465	720.470
248.117	25.686	902.813	723.214
249.132	25.948	902.083	723.616
250.147	25.972	902.000	723.584
251.161	26.179	901.016	723.560
252.176	26.095	900.389	722.657
253.190	26.194	900.300	722.918
254.205	26.288	899.598	722.664
255.220	26.418	898.814	722.491
256.234	26.045	898.033	720.310
257.249	25.991	897.655	719.726
258.263	26.010	896.704	718.979
259.278	26.136	896.231	719.037
260.293	26.114	895.578	718.362
261.307	25.982	895.038	717.339
262.322	25.820	893.992	715.792
263.336	25.092	892.280	711.472
264.351	24.141	890.252	706.025
265.366	24.247	889.710	705.951
266.380	25.292	890.843	710.928
267.395	25.805	890.356	712.507
268.409	25.628	889.651	711.179
269.424	25.924	889.229	711.949
270.439	25.939	888.861	711.650
271.453	25.933	888.311	711.127
272.468	26.127	887.904	711.499
273.482	26.177	887.439	711.260
274.497	25.695	886.364	708.442
275.512	25.385	885.288	706.298
276.526	25.948	885.326	708.481
277.541	25.959	884.571	707.858
278.555	25.844	883.878	706.788
279.570	25.772	883.013	705.754
280.585	25.889	882.671	705.874
281.599	25.864	881.549	704.817
282.614	25.179	880.255	701.045
283.628	25.150	879.972	700.645
284.643	25.518	879.562	701.691
285.657	24.921	878.742	698.647
286.672	24.782	877.914	697.386
287.687	25.392	878.038	699.800
288.701	25.526	877.489	699.821
289.716	25.116	876.649	697.494
290.730	25.117	876.053	696.961
291.745	24.825	875.455	695.291
292.760	25.163	874.719	695.957
293.774	26.197	875.388	700.442
294.789	26.444	875.381	701.330
295.803	26.389	874.548	700.389
296.818	26.502	873.720	700.098
297.833	26.004	872.730	697.319
298.847	25.962	871.788	696.344
299.862	26.211	871.956	697.375
300.876	26.550	871.462	698.230
301.891	26.375	870.787	696.951
302.906	25.856	870.138	694.372
303.920	26.066	869.439	694.560
304.935	26.439	869.199	695.740
305.949	26.317	868.680	694.797
306.964	26.015	867.942	692.984
307.979	26.345	867.408	693.764
308.993	26.497	867.254	694.162
310.008	26.527	866.508	693.616
311.022	26.236	866.011	692.045
312.037	26.085	865.252	690.797
313.052	26.061	864.164	689.778
314.066	25.046	862.579	684.576
315.081	24.594	862.012	682.338
316.095	25.612	862.266	686.367
317.110	25.912	862.250	687.437
318.125	25.315	860.800	683.947
319.139	24.162	859.045	678.103
320.154	24.246	858.551	677.976
321.168	25.244	858.835	681.936
322.183	25.851	858.986	684.300
323.197	25.830	859.067	684.223
324.212	26.066	858.574	684.667
325.227	26.252	857.931	684.797
326.241	25.957	857.472	683.253
327.256	25.905	857.085	682.687
328.270	25.943	855.835	681.774
329.285	25.595	855.287	679.965
330.300	25.290	854.379	678.029
331.314	25.643	854.123	679.098
332.329	26.289	854.077	681.440
333.343	26.384	853.517	681.291
334.358	26.304	853.466	680.887
335.373	26.416	852.859	680.765
336.387	26.587	852.998	681.459
337.402	26.774	852.976	682.087
338.416	26.543	852.419	680.711
339.431	26.667	852.298	681.020
340.446	26.959	851.651	681.539
341.460	26.666	851.300	680.098
342.475	26.549	850.579	679.024
343.489	26.606	850.067	678.768
344.504	26.927	850.053	679.899
345.519	27.086	849.498	679.990
346.533	27.166	849.031	679.857
347.548	27.115	848.899	679.498
348.562	27.097	848.133	678.760
349.577	26.968	847.403	677.633
350.592	27.011	846.563	677.060
351.606	27.128	845.853	676.871
352.621	27.024	844.999	675.740
353.635	26.780	844.565	674.426
354.650	26.236	842.922	671.032
355.665	25.304	841.006	665.994
356.679	25.764	840.858	667.523
357.694	26.249	840.528	668.999
358.708	26.114	840.156	668.142
359.723	26.493	840.265	669.575
360.738	26.659	839.860	669.804
361.752	26.760	839.728	670.014
362.767	27.183	839.147	671.052
363.781	27.432	838.930	671.739
364.796	27.482	838.497	671.518
365.810	27.557	837.790	671.168
366.825	27.507	837.345	670.568
367.840	27.144	837.205	669.060
368.854	26.615	836.066	666.147
369.869	26.754	835.358	666.033
370.883	26.829	834.918	665.897
371.898	26.777	834.356	665.202
372.913	27.055	833.897	665.794
373.927	26.938	833.767	665.204
374.942	27.126	833.230	665.405
375.956	27.114	832.966	665.091
376.971	27.298	832.397	665.252
377.986	27.408	832.179	665.419
379.000	27.371	831.602	664.764
380.015	27.289	830.917	663.859
381.029	27.321	830.292	663.417
382.044	27.420	829.897	663.404
383.059	27.532	829.480	663.422
384.073	27.449	828.924	662.616
385.088	27.396	828.116	661.718
386.102	27.167	827.213	660.104
387.117	27.167	826.849	659.758
388.132	26.669	825.831	657.082
389.146	26.241	824.756	654.618
390.161	26.764	824.240	656.042
391.175	27.185	824.646	657.830
392.190	26.809	823.412	655.429
393.205	25.453	821.455	648.921
394.219	23.924	819.754	642.006
395.234	23.886	819.447	641.572
396.248	25.487	820.921	648.448
397.263	26.892	821.759	654.123
398.278	26.707	821.468	653.168
399.292	26.678	820.786	652.461
400.307	26.706	820.011	651.891
401.321	26.785	819.682	651.855
402.336	27.185	819.608	653.174
403.350	27.558	819.774	654.590
404.365	27.882	819.725	655.655
405.380	28.052	819.273	655.849
406.394	28.208	818.484	655.718
407.409	28.054	818.022	654.738
408.423	28.116	817.603	654.564
409.438	28.063	817.669	654.371
410.453	28.167	816.994	654.145
411.467	28.134	816.295	653.410
412.482	28.073	815.749	652.698
413.496	28.259	815.577	653.166
414.511	28.142	815.352	652.508
415.526	28.329	814.683	652.582
416.540	28.172	813.543	651.052
417.555	27.805	813.323	649.514
418.569	27.903	812.939	649.498
419.584	27.842	811.978	648.457
420.599	27.528	811.584	646.970
421.613	107.678	1284.482	1449.053
422.628	93.043	1353.369	1449.170
