DTS Sentinel unit serial number:	SN413079Multiplexer serial number:	ORYXHardware model number:	OX4-SRSoftware version number:	ORYX F/W v4.00 Oryx Data Collector v3.7.2.0data status	okinstallation	princeton_trtdifferential loss correction	single-endedforward channel	channel 1reverse channel	N/Adate	2019/09/10time	15:40:11forward acquisition time	60.00reverse acquisition time	0.00gamma	496.2192k internal	0.2299k external	0.2299temperature offset calibration	0.9918default loss term (dB/km)	0.3790temperature slope calibration	1.0000multiplexer offset coefficient	1.0000multiplexer slope coefficient	1.0000fibre end	0.00T internal ref (°C)	38.05T ext. ref 1 (°C)	-0.28T ext. ref 2 (°C)	31.38length (m)	temperature (°C)	Stokes	anti-Stokes-747.200	-166.876	0.195	0.008
-746.185	-200.000	-0.010	-0.150
-745.171	186.843	0.180	-0.274
-744.156	-96.212	-0.325	0.088
-743.142	-91.626	0.178	-0.052
-742.127	532.169	0.149	0.358
-741.112	-200.000	0.020	0.116
-740.098	-88.417	-0.129	0.039
-739.083	459.371	0.145	-0.329
-738.069	100.845	0.279	0.331
-737.054	800.000	0.088	-0.349
-736.039	-100.641	0.273	-0.069
-735.025	-108.015	0.332	0.074
-734.010	800.000	0.052	-0.164
-732.996	61.506	-0.231	-0.234
-731.981	2.365	0.091	0.067
-730.966	-168.949	-0.400	-0.015
-729.952	-49.793	0.235	-0.114
-728.937	-27.528	0.108	-0.064
-727.923	-80.050	0.255	-0.087
-726.908	-200.000	0.033	-0.271
-725.894	-200.000	-0.007	-0.059
-724.879	364.608	-0.103	-0.212
-723.864	-200.000	-0.040	-0.194
-722.850	-69.687	0.333	-0.130
-721.835	-200.000	-0.042	-0.294
-720.821	-200.000	-0.020	-0.103
-719.806	28.703	-0.082	0.071
-718.791	123.119	0.047	-0.060
-717.777	325.320	0.135	0.264
-716.762	-200.000	-0.006	-0.154
-715.748	191.327	0.206	-0.316
-714.733	569.778	0.056	-0.138
-713.718	-35.999	-0.279	0.154
-712.704	2.727	0.170	-0.125
-711.689	800.000	-0.046	0.199
-710.675	0.942	-0.084	-0.062
-709.660	-72.766	0.067	0.025
-708.645	-48.181	-0.276	0.136
-707.631	-200.000	0.008	0.041
-706.616	7.169	-0.131	-0.100
-705.602	-200.000	0.071	-0.338
-704.587	-161.443	0.429	0.023
-703.572	-200.000	-0.018	0.308
-702.558	96.737	0.134	-0.156
-701.543	255.721	-0.057	-0.100
-700.529	-200.000	-0.057	-0.370
-699.514	22.406	0.025	-0.021
-698.499	70.958	0.353	-0.372
-697.485	-34.580	0.430	0.240
-696.470	-28.951	0.055	-0.032
-695.456	51.881	-0.241	-0.234
-694.441	-153.821	-0.263	-0.018
-693.426	575.103	-0.053	0.131
-692.412	-22.935	0.151	0.093
-691.397	198.950	-0.224	-0.349
-690.383	-88.380	-0.148	0.045
-689.368	800.000	-0.128	0.379
-688.354	800.000	0.049	-0.149
-687.339	24.886	-0.047	-0.040
-686.324	-200.000	-0.020	-0.111
-685.310	-15.459	0.157	-0.102
-684.295	-110.701	-0.090	0.019
-683.281	-68.969	-0.123	0.048
-682.266	-200.000	0.003	0.216
-681.251	-125.640	-0.283	-0.044
-680.237	325.687	-0.107	-0.208
-679.222	18.387	-0.051	-0.041
-678.208	39.259	-0.290	-0.264
-677.193	453.213	-0.089	0.201
-676.178	-19.604	0.231	0.146
-675.164	499.905	-0.025	-0.058
-674.149	-138.373	0.061	0.007
-673.135	296.820	0.050	-0.094
-672.120	89.905	-0.113	0.128
-671.105	156.554	-0.158	-0.222
-670.091	-200.000	0.013	-0.537
-669.076	-200.000	0.172	-0.000
-668.062	-200.000	0.008	0.159
-667.047	442.388	0.048	-0.107
-666.032	-88.144	0.278	-0.085
-665.018	-200.000	0.038	0.183
-664.003	28.043	-0.117	0.101
-662.989	-200.000	-0.017	-0.177
-661.974	361.254	0.038	-0.077
-660.959	-200.000	-0.009	0.226
-659.945	-171.328	0.100	0.003
-658.930	-200.000	-0.058	-0.377
-657.916	800.000	0.084	-0.253
-656.901	-52.055	-0.171	0.081
-655.886	-122.001	0.046	-0.008
-654.872	-132.583	-0.257	0.034
-653.857	-14.165	-0.147	0.097
-652.843	24.386	0.247	-0.207
-651.828	36.703	-0.082	-0.074
-650.814	178.779	0.186	0.276
-649.799	31.881	0.252	-0.221
-648.784	690.615	-0.124	0.330
-647.770	-32.781	-0.085	0.048
-646.755	800.000	-0.079	-0.314
-645.741	-152.565	0.139	0.010
-644.726	-95.512	-0.210	0.057
-643.711	7.521	-0.318	-0.242
-642.697	-18.919	0.074	-0.047
-641.682	-18.534	-0.095	-0.060
-640.668	-31.903	0.103	-0.058
-639.653	341.346	0.106	-0.210
-638.638	-114.390	-0.126	0.025
-637.624	44.297	0.309	0.288
-636.609	187.114	0.032	0.048
-635.595	228.899	0.189	0.314
-634.580	-72.428	-0.104	-0.039
-633.565	-200.000	0.057	0.449
-632.551	81.356	0.106	-0.116
-631.536	52.834	0.242	-0.235
-630.522	-10.769	-0.203	0.136
-629.507	-71.875	0.156	0.059
-628.492	-75.916	-0.078	-0.028
-627.478	800.000	-0.066	0.216
-626.463	-74.993	-0.142	-0.052
-625.449	-200.000	-0.044	0.258
-624.434	-20.727	0.115	0.072
-623.419	-10.026	-0.097	0.066
-622.405	-135.932	0.202	-0.024
-621.390	-98.825	0.147	0.038
-620.376	800.000	-0.058	0.177
-619.361	369.605	-0.165	-0.339
-618.346	92.007	-0.207	-0.236
-617.332	4.437	0.115	-0.086
-616.317	431.894	-0.045	0.100
-615.303	-194.525	-0.351	0.003
-614.288	-34.174	-0.337	-0.188
-613.273	-10.265	0.140	-0.094
-612.259	-200.000	-0.007	-0.161
-611.244	-98.065	0.212	-0.055
-610.230	-0.915	-0.194	0.140
-609.215	800.000	0.078	-0.234
-608.201	125.648	0.081	-0.103
-607.186	115.367	-0.206	-0.256
-606.171	70.940	0.060	0.063
-605.157	-200.000	0.003	-0.072
-604.142	58.348	-0.304	0.302
-603.128	-20.330	0.134	0.084
-602.113	-119.598	0.115	0.020
-601.098	-175.448	0.188	0.005
-600.084	143.474	-0.249	-0.336
-599.069	-39.310	-0.120	0.064
-598.055	-112.073	0.210	0.043
-597.040	668.088	-0.137	0.360
-596.025	30.252	0.252	0.218
-595.011	-70.389	0.269	0.103
-593.996	-25.930	-0.092	0.055
-592.982	178.948	-0.094	-0.139
-591.967	621.912	0.080	0.204
-590.952	-13.214	-0.256	-0.169
-589.938	-200.000	0.027	-0.162
-588.923	-34.434	-0.160	-0.089
-587.909	556.117	-0.160	-0.391
-586.894	-65.024	-0.102	-0.042
-585.879	97.510	-0.169	-0.197
-584.865	800.000	0.018	0.078
-583.850	135.555	0.211	-0.279
-582.836	-200.000	-0.261	0.000
-581.821	375.676	0.087	-0.180
-580.806	121.498	-0.048	0.060
-579.792	596.142	0.104	-0.262
-578.777	-200.000	0.005	-0.203
-577.763	-157.346	0.233	0.014
-576.748	137.357	0.085	-0.113
-575.733	-200.000	-0.054	0.419
-574.719	-87.394	-0.285	0.088
-573.704	-48.586	0.211	-0.103
-572.690	-32.567	-0.026	-0.015
-571.675	-200.000	-0.030	-0.232
-570.661	-78.824	-0.109	0.038
-569.646	155.407	0.022	0.030
-568.631	-71.241	0.255	0.097
-567.617	140.427	0.051	-0.069
-566.602	-96.089	-0.025	0.007
-565.588	278.425	-0.160	0.289
-564.573	-7.698	-0.263	-0.180
-563.558	-140.615	-0.380	0.040
-562.544	-62.194	-0.301	0.127
-561.529	773.499	0.073	0.202
-560.515	-175.168	-0.307	0.009
-559.500	-200.000	0.018	-0.452
-558.485	10.642	0.119	-0.092
-557.471	99.240	0.161	0.189
-556.456	-200.000	-0.056	-0.271
-555.442	-171.685	-0.351	-0.012
-554.427	-200.000	-0.088	0.423
-553.412	800.000	0.078	-0.336
-552.398	800.000	-0.049	0.191
-551.383	233.094	0.152	0.253
-550.369	-200.000	0.018	0.117
-549.354	-99.173	-0.283	-0.073
-548.339	48.961	-0.265	0.252
-547.325	-200.000	-0.024	-0.159
-546.310	23.091	0.279	-0.232
-545.296	800.000	-0.031	-0.091
-544.281	-147.897	-0.144	0.012
-543.266	800.000	0.043	-0.135
-542.252	136.264	-0.109	0.144
-541.237	658.691	0.062	-0.162
-540.223	-181.110	-0.432	-0.009
-539.208	44.760	0.293	-0.273
-538.193	-138.523	0.112	-0.012
-537.179	-111.414	-0.377	-0.078
-536.164	-54.301	0.043	0.020
-535.150	310.117	0.182	0.345
-534.135	-119.075	-0.093	0.016
-533.121	-43.166	-0.195	0.100
-532.106	-200.000	-0.033	-0.233
-531.091	800.000	0.037	-0.124
-530.077	-97.951	-0.104	0.027
-529.062	20.715	0.174	-0.143
-528.048	800.000	-0.023	-0.084
-527.033	-81.784	-0.415	0.138
-526.018	-200.000	0.034	0.160
-525.004	45.797	0.234	-0.219
-523.989	800.000	-0.061	-0.249
-522.975	-153.019	-0.252	0.018
-521.960	242.803	0.064	0.108
-520.945	-61.856	0.206	-0.087
-519.931	-138.174	0.202	0.023
-518.916	800.000	-0.089	-0.302
-517.902	36.681	-0.301	-0.269
-516.887	-35.869	-0.265	-0.145
-515.872	84.417	-0.433	-0.478
-514.858	-12.426	-0.160	0.106
-513.843	-12.590	0.028	0.018
-512.829	121.390	0.043	-0.055
-511.814	-69.609	0.147	-0.057
-510.799	26.880	-0.064	0.054
-509.785	4.632	0.304	-0.226
-508.770	-143.154	0.295	-0.029
-507.756	-200.000	0.051	0.399
-506.741	-200.000	0.005	-0.051
-505.726	-200.000	0.003	-0.046
-504.712	800.000	-0.026	-0.075
-503.697	-34.009	0.139	-0.077
-502.683	-200.000	-0.073	-0.339
-501.668	45.067	-0.176	-0.164
-500.653	264.686	-0.169	0.297
-499.639	427.383	0.079	-0.173
-498.624	-135.982	0.259	0.031
-497.610	-200.000	0.029	-0.212
-496.595	-73.144	-0.085	-0.031
-495.581	-42.638	0.127	0.065
-494.566	-148.756	-0.120	-0.010
-493.551	800.000	0.039	-0.115
-492.537	218.951	-0.105	0.170
-491.522	-64.143	-0.279	0.115
-490.508	-112.758	0.094	-0.019
-489.493	-114.832	0.166	-0.032
-488.478	-74.830	-0.010	0.004
-487.464	1.720	0.257	0.187
-486.449	67.416	0.182	-0.187
-485.435	139.101	0.142	0.188
-484.420	800.000	-0.104	0.337
-483.405	35.766	-0.035	-0.031
-482.391	-200.000	0.026	0.251
-481.376	83.208	-0.101	0.111
-480.362	800.000	-0.046	-0.150
-479.347	-74.097	0.224	-0.082
-478.332	399.458	-0.044	-0.093
-477.318	779.979	-0.053	-0.145
-476.303	-148.913	-0.204	-0.017
-475.289	-5.519	0.027	0.019
-474.274	-31.397	-0.030	-0.017
-473.259	-200.000	-0.002	-0.036
-472.245	-116.515	-0.220	-0.041
-471.230	800.000	0.172	-0.509
-470.216	-182.626	-0.201	0.004
-469.201	-200.000	-0.038	0.196
-468.186	62.963	0.310	-0.313
-467.172	189.615	-0.192	0.290
-466.157	14.431	0.089	-0.070
-465.143	-70.879	-0.153	0.058
-464.128	-107.682	0.180	-0.040
-463.113	-200.000	0.014	-0.204
-462.099	-85.839	0.294	-0.092
-461.084	-167.056	0.162	-0.007
-460.070	-200.000	-0.047	0.319
-459.055	800.000	0.009	-0.029
-458.040	339.752	-0.062	-0.121
-457.026	800.000	0.029	-0.116
-456.011	800.000	-0.068	0.269
-454.997	-53.412	0.118	0.055
-453.982	-200.000	-0.019	-0.227
-452.968	-77.348	0.148	0.052
-451.953	800.000	-0.129	0.544
-450.938	-4.705	-0.170	-0.118
-449.924	-13.461	-0.081	0.053
-448.909	-60.107	0.140	-0.060
-447.895	-124.421	-0.251	-0.039
-446.880	75.159	0.227	0.241
-445.865	800.000	0.039	0.163
-444.851	-165.423	0.249	0.011
-443.836	-177.675	0.327	0.008
-442.822	104.827	0.063	-0.075
-441.807	-200.000	0.022	-0.177
-440.792	47.339	-0.099	0.093
-439.778	-200.000	0.017	0.245
-438.763	182.381	0.041	0.061
-437.749	-200.000	0.001	0.083
-436.734	800.000	0.072	-0.211
-435.719	-74.292	-0.052	-0.019
-434.705	212.832	0.176	0.279
-433.690	479.736	-0.055	0.125
-432.676	356.890	0.109	-0.218
-431.661	131.199	0.106	0.137
-430.646	65.221	0.261	-0.266
-429.632	133.198	0.285	0.371
-428.617	-101.953	0.372	-0.091
-427.603	74.907	-0.211	-0.224
-426.588	70.267	0.160	-0.167
-425.573	415.376	0.016	0.034
-424.559	333.633	0.094	-0.182
-423.544	26.199	0.279	-0.235
-422.530	117.702	-0.060	-0.074
-421.515	-40.557	0.282	-0.148
-420.500	282.492	-0.071	0.129
-419.486	-42.309	0.251	0.129
-418.471	-90.098	-0.142	0.042
-417.457	-180.816	-0.124	-0.003
-416.442	159.710	0.029	-0.040
-415.428	-157.133	0.206	-0.013
-414.413	800.000	0.021	0.070
-413.398	-110.204	-0.092	0.019
-412.384	229.253	0.039	-0.064
-411.369	-200.000	-0.030	0.285
-410.355	-35.576	0.046	0.025
-409.340	-200.000	0.042	-0.235
-408.325	-72.568	-0.103	-0.038
-407.311	-22.029	0.077	0.047
-406.296	222.867	-0.151	0.245
-405.282	396.822	-0.115	0.242
-404.267	-10.426	0.198	-0.132
-403.252	215.299	-0.106	0.169
-402.238	-200.000	-0.014	0.086
-401.223	-132.386	0.361	-0.047
-400.209	-200.000	0.024	-0.282
-399.194	29.818	-0.188	-0.161
-398.179	-200.000	0.093	-0.554
-397.165	553.588	0.098	0.238
-396.150	800.000	-0.043	-0.125
-395.136	-200.000	0.260	-0.001
-394.121	-200.000	-0.037	0.218
-393.106	-75.338	-0.310	0.111
-392.092	-56.588	0.131	-0.059
-391.077	444.377	0.085	0.188
-390.063	-200.000	-0.039	-0.217
-389.048	-121.440	0.209	0.035
-388.033	-58.111	-0.066	0.029
-387.019	77.264	-0.143	0.153
-386.004	-171.145	-0.087	-0.003
-384.990	-30.891	-0.156	-0.089
-383.975	-140.486	-0.303	0.032
-382.960	800.000	0.090	-0.258
-381.946	-93.481	-0.364	-0.101
-380.931	-159.864	-0.223	-0.012
-379.917	-200.000	0.019	-0.168
-378.902	68.224	0.118	-0.121
-377.888	350.726	0.155	0.308
-376.873	-91.023	0.138	0.040
-375.858	63.084	-0.094	0.095
-374.844	-11.184	-0.164	-0.108
-373.829	-70.541	-0.263	-0.100
-372.815	10.322	-0.346	-0.265
-371.800	276.544	0.120	0.215
-370.785	435.517	-0.131	-0.286
-369.771	-142.333	0.090	0.009
-368.756	-49.588	-0.197	-0.094
-367.742	64.112	-0.239	0.242
-366.727	-200.000	0.016	0.197
-365.712	800.000	-0.076	-0.267
-364.698	800.000	-0.182	0.507
-363.683	-82.036	0.347	0.114
-362.669	-10.827	0.110	-0.073
-361.654	-200.000	-0.016	0.224
-360.639	-177.788	0.319	-0.008
-359.625	-200.000	0.030	-0.184
-358.610	8.659	0.146	-0.111
-357.596	-46.100	-0.079	0.039
-356.581	338.298	0.058	-0.114
-355.566	13.973	-0.241	0.189
-354.552	280.937	0.056	-0.101
-353.537	800.000	0.040	-0.135
-352.523	800.000	0.040	0.148
-351.508	800.000	0.069	-0.223
-350.493	-200.000	0.001	0.165
-349.479	-71.269	-0.163	0.062
-348.464	800.000	-0.015	0.047
-347.450	-200.000	-0.027	-0.186
-346.435	-84.516	-0.255	0.081
-345.420	711.490	0.110	-0.292
-344.406	-2.797	0.129	-0.091
-343.391	-114.148	0.127	-0.025
-342.377	11.442	-0.224	-0.172
-341.362	-98.892	0.228	0.058
-340.348	-200.000	0.004	0.132
-339.333	800.000	0.067	-0.254
-338.318	-127.232	-0.498	-0.073
-337.304	130.307	-0.197	0.253
-336.289	2.154	-0.168	-0.122
-335.275	-200.000	0.362	0.000
-334.260	-154.127	-0.244	-0.017
-333.245	-200.000	0.006	-0.072
-332.231	800.000	0.029	-0.111
-331.216	140.208	0.039	0.051
-330.202	23.890	0.337	-0.279
-329.187	-57.519	0.242	0.107
-328.172	-72.219	-0.383	0.143
-327.158	-200.000	-0.070	0.331
-326.143	140.316	0.101	0.134
-325.129	-111.438	0.126	0.026
-324.114	667.356	-0.089	0.231
-323.099	-198.834	0.163	0.001
-322.085	58.022	-0.197	0.194
-321.070	44.798	-0.036	0.033
-320.056	195.053	0.132	0.202
-319.041	-78.077	-0.248	0.086
-318.026	-24.130	0.116	-0.070
-317.012	58.090	-0.083	-0.081
-315.997	-61.107	0.170	-0.072
-314.983	64.967	-0.209	0.212
-313.968	-42.382	-0.276	-0.141
-312.953	800.000	0.035	-0.117
-311.939	-108.622	-0.378	0.081
-310.924	-156.132	-0.302	0.019
-309.910	340.365	-0.082	-0.161
-308.895	-200.000	0.048	-0.250
-307.880	63.533	-0.140	-0.140
-306.866	407.221	-0.077	0.164
-305.851	-53.343	-0.243	0.112
-304.837	-118.467	-0.164	0.029
-303.822	-200.000	-0.001	-0.099
-302.807	-55.794	0.289	0.130
-301.793	-6.165	0.115	-0.079
-300.778	-62.432	0.156	-0.065
-299.764	-200.000	0.044	0.196
-298.749	594.709	-0.120	0.297
-297.735	800.000	0.082	0.248
-296.720	-200.000	0.010	0.308
-295.705	43.244	0.341	0.312
-294.691	-86.310	-0.180	0.055
-293.676	-200.000	0.078	0.472
-292.662	-125.486	0.206	-0.031
-291.647	85.778	-0.198	-0.218
-290.632	130.302	-0.094	0.121
-289.618	11.082	0.276	0.212
-288.603	-39.044	-0.140	0.074
-287.589	-200.000	0.024	0.235
-286.574	325.701	-0.149	0.285
-285.559	414.153	0.106	0.227
-284.545	800.000	0.024	-0.083
-283.530	-77.242	-0.218	0.076
-282.516	-200.000	0.062	0.352
-281.501	-200.000	0.037	-0.165
-280.486	21.096	-0.282	0.229
-279.472	800.000	0.048	-0.156
-278.457	-200.000	0.014	-0.066
-277.443	-50.573	-0.181	-0.086
-276.428	-200.000	-0.032	-0.298
-275.413	-19.472	0.219	-0.136
-274.399	-5.723	0.054	-0.037
-273.384	308.860	-0.131	0.245
-272.370	10.082	-0.170	-0.130
-271.355	-128.412	-0.181	0.026
-270.340	198.767	-0.131	0.200
-269.326	28.614	0.240	0.203
-268.311	-96.417	-0.053	-0.014
-267.297	800.000	0.081	0.292
-266.282	587.953	0.079	-0.194
-265.267	-200.000	0.006	-0.187
-264.253	78.731	0.164	-0.175
-263.238	-25.082	0.283	-0.168
-262.224	-122.644	-0.090	-0.015
-261.209	-200.000	0.012	0.059
-260.195	-200.000	-0.046	0.241
-259.180	-28.260	-0.147	0.085
-258.165	-200.000	-0.013	0.208
-257.151	800.000	-0.049	-0.150
-256.136	800.000	0.037	-0.127
-255.122	-71.493	-0.299	0.112
-254.107	16.680	-0.374	-0.296
-253.092	163.937	-0.118	-0.166
-252.078	-0.411	-0.158	0.112
-251.063	54.242	-0.156	-0.151
-250.049	-120.910	0.237	-0.040
-249.034	5.104	0.058	-0.043
-248.019	-39.325	-0.122	-0.064
-247.005	-200.000	-0.010	-0.200
-245.990	-200.000	-0.003	-0.132
-244.976	-200.000	0.011	-0.150
-243.961	313.338	0.079	0.148
-242.946	-200.000	-0.052	0.240
-241.932	-200.000	0.023	-0.186
-240.917	-159.409	0.183	-0.010
-239.903	310.630	0.109	0.204
-238.888	-30.926	0.247	0.140
-237.873	-95.219	0.374	0.101
-236.859	-154.049	-0.046	-0.003
-235.844	61.175	0.237	0.235
-234.830	-100.483	-0.195	0.048
-233.815	-24.424	0.047	0.028
-232.800	-67.823	0.146	0.057
-231.786	618.181	-0.050	-0.127
-230.771	-200.000	0.001	0.220
-229.757	572.654	0.156	-0.381
-228.742	-109.812	-0.212	-0.045
-227.727	-26.461	0.026	-0.015
-226.713	-86.264	-0.174	-0.054
-225.698	-200.000	-0.006	0.080
-224.684	-39.578	0.363	-0.190
-223.669	-13.265	0.010	-0.006
-222.655	293.942	-0.136	-0.248
-221.640	-145.037	0.298	-0.027
-220.625	-5.621	-0.122	0.084
-219.611	597.618	-0.044	-0.108
-218.596	-83.343	0.302	0.097
-217.582	151.974	-0.077	0.106
-216.567	296.177	0.031	-0.057
-215.552	16.419	-0.069	0.055
-214.538	-80.480	0.098	-0.033
-213.523	361.242	-0.114	0.229
-212.509	-86.544	0.172	0.053
-211.494	-200.000	-0.045	0.222
-210.479	81.348	0.152	-0.164
-209.465	-64.469	-0.140	0.057
-208.450	26.617	-0.203	-0.170
-207.436	66.856	-0.073	-0.074
-206.421	259.904	0.186	-0.321
-205.406	-147.632	-0.104	0.009
-204.392	-117.540	-0.193	-0.035
-203.377	-33.785	0.191	0.105
-202.363	13.318	0.243	0.188
-201.348	-200.000	-0.027	0.165
-200.333	-200.000	-0.030	-0.214
-199.319	224.738	-0.094	0.152
-198.304	-24.272	0.017	-0.010
-197.290	5.276	0.117	-0.086
-196.275	-141.521	0.206	-0.021
-195.260	154.925	-0.241	0.331
-194.246	-20.979	0.257	0.157
-193.231	113.672	-0.081	0.098
-192.217	-90.710	0.144	0.042
-191.202	136.660	-0.153	0.200
-190.187	117.831	0.090	0.110
-189.173	16.453	0.144	0.114
-188.158	41.191	0.075	0.067
-187.144	56.635	-0.346	-0.336
-186.129	414.615	0.058	-0.124
-185.114	-200.000	0.003	-0.054
-184.100	-200.000	0.015	0.193
-183.085	697.420	0.106	0.277
-182.071	673.305	-0.046	-0.119
-181.056	-48.253	-0.101	0.049
-180.042	679.459	-0.013	-0.034
-179.027	-137.961	0.254	-0.028
-178.012	-42.988	0.125	0.063
-176.998	278.162	0.110	-0.195
-175.983	-96.367	0.238	-0.063
-174.969	4.277	-0.282	-0.206
-173.954	44.532	-0.103	-0.094
-172.939	-96.112	-0.207	-0.055
-171.925	-200.000	0.013	0.125
-170.910	12.389	0.529	0.407
-169.896	-200.000	-0.037	0.310
-168.881	73.643	0.198	-0.207
-167.866	260.372	0.190	0.327
-166.852	-41.777	-0.186	0.095
-165.837	800.000	-0.028	0.103
-164.823	153.911	0.072	0.099
-163.808	271.590	0.102	-0.180
-162.793	-40.346	0.390	0.202
-161.779	800.000	0.068	-0.203
-160.764	-200.000	0.047	0.303
-159.750	17.826	0.195	-0.155
-158.735	-200.000	-0.032	-0.350
-157.720	-6.993	0.157	0.106
-156.706	800.000	0.102	-0.313
-155.691	-122.267	0.386	-0.063
-154.677	24.544	0.075	-0.062
-153.662	-45.423	-0.218	-0.108
-152.647	-136.778	-0.277	0.032
-151.633	139.175	0.165	0.216
-150.618	-200.000	-0.001	-0.066
-149.604	-79.775	0.144	0.048
-148.589	-83.576	0.047	-0.015
-147.574	-96.731	0.185	-0.049
-146.560	260.921	-0.141	-0.243
-145.545	684.393	-0.056	-0.145
-144.531	246.351	-0.037	0.062
-143.516	-81.257	-0.169	0.055
-142.502	-200.000	0.034	0.151
-141.487	89.153	-0.153	0.169
-140.472	155.975	0.270	0.371
-139.458	800.000	-0.049	-0.157
-138.443	-128.377	-0.053	0.008
-137.429	800.000	0.149	-0.462
-136.414	-137.491	-0.266	-0.030
-135.399	-96.296	-0.052	-0.014
-134.385	0.460	-0.119	-0.085
-133.370	-86.611	0.252	-0.077
-132.356	55.437	-0.155	-0.149
-131.341	22.901	0.118	0.096
-130.326	-90.773	0.193	-0.055
-129.312	-116.225	0.389	-0.072
-128.297	-171.774	0.254	-0.008
-127.283	206.202	0.069	0.106
-126.268	2.797	-0.083	0.060
-125.253	-124.263	0.158	-0.025
-124.239	-36.194	-0.245	0.132
-123.224	-109.045	0.233	0.050
-122.210	-103.120	-0.254	-0.060
-121.195	71.222	0.103	0.106
-120.180	304.846	-0.191	0.354
-119.166	-119.143	-0.019	-0.003
-118.151	122.021	0.150	-0.186
-117.137	164.937	-0.119	-0.168
-116.122	334.245	0.065	0.126
-115.107	-83.874	0.198	0.063
-114.093	-200.000	-0.007	0.315
-113.078	-200.000	0.008	-0.210
-112.064	800.000	0.023	0.073
-111.049	79.500	-0.158	-0.169
-110.034	142.468	0.107	-0.142
-109.020	-187.047	-0.216	0.003
-108.005	167.992	-0.057	0.080
-106.991	-113.020	-0.290	-0.057
-105.976	-20.424	0.265	-0.162
-104.962	800.000	0.087	0.255
-103.947	212.044	-0.100	-0.157
-102.932	-200.000	-0.064	-0.374
-101.918	716.785	-0.092	-0.243
-100.903	26.291	-0.198	0.164
-99.889	-110.630	0.302	0.062
-98.874	-172.838	-0.153	-0.005
-97.859	-11.385	0.116	0.076
-96.845	-1.248	0.093	-0.065
-95.830	136.158	0.147	0.191
-94.816	455.143	0.139	-0.306
-93.801	-200.000	0.011	-0.456
-92.786	-137.019	0.081	-0.009
-91.772	-200.000	0.011	0.272
-90.757	118.417	0.157	-0.193
-89.743	72.790	-0.157	-0.163
-88.728	136.290	0.204	-0.265
-87.713	-32.606	-0.054	-0.030
-86.699	32.620	-0.092	-0.079
-85.684	-103.281	0.220	-0.052
-84.670	469.678	0.096	-0.213
-83.655	-142.164	-0.110	-0.011
-82.640	-78.941	0.403	0.136
-81.626	167.014	-0.031	-0.044
-80.611	-200.000	-0.087	0.449
-79.597	-82.752	-0.087	-0.028
-78.582	537.734	-0.091	0.216
-77.567	-120.985	-0.139	-0.023
-76.553	42.839	0.194	-0.176
-75.538	-148.251	-0.130	-0.011
-74.524	11.008	-0.231	-0.175
-73.509	221.120	-0.041	-0.066
-72.494	-200.000	0.004	0.511
-71.480	-200.000	-0.020	0.097
-70.465	343.579	-0.053	0.103
-69.451	-74.617	0.198	-0.071
-68.436	131.969	0.141	-0.181
-67.422	-35.333	0.174	0.094
-66.407	389.377	-0.095	-0.195
-65.392	13.951	0.167	-0.129
-64.378	-68.603	-0.214	-0.082
-63.363	-124.400	0.273	0.042
-62.349	-37.065	-0.214	-0.114
-61.334	95.343	-0.712	-0.806
-60.319	9.908	0.521	0.393
-59.305	-200.000	0.130	-0.603
-58.290	128.140	0.645	0.815
-57.276	800.000	0.605	2.094
-56.261	-200.000	82.385	500.595
-55.246	550.297	1386.657	3303.145
-54.232	175.804	2653.019	3822.751
-53.217	119.975	2290.092	2820.346
-52.203	49.340	1729.947	1615.835
-51.188	41.387	1456.619	1308.569
-50.173	38.166	1411.988	1247.886
-49.159	56.341	1451.251	1400.404
-48.144	61.207	1469.796	1449.671
-47.130	41.758	1430.578	1287.359
-46.115	38.162	1413.552	1249.045
-45.100	37.968	1408.863	1243.615
-44.086	37.874	1406.632	1241.000
-43.071	37.802	1403.950	1238.125
-42.057	37.875	1401.846	1236.680
-41.042	37.915	1399.854	1235.131
-40.027	37.949	1398.455	1234.060
-39.013	37.934	1396.721	1232.388
-37.998	37.919	1395.021	1230.744
-36.984	37.979	1393.338	1229.592
-35.969	38.053	1390.976	1227.921
-34.954	38.094	1389.047	1226.430
-33.940	38.149	1387.605	1225.447
-32.925	38.042	1386.462	1223.719
-31.911	38.190	1384.608	1222.961
-30.896	38.321	1383.153	1222.450
-29.881	38.148	1381.953	1220.260
-28.867	38.255	1379.755	1218.936
-27.852	38.070	1379.043	1217.108
-26.838	38.068	1377.303	1215.512
-25.823	38.134	1375.847	1214.587
-24.809	38.144	1374.652	1213.546
-23.794	38.195	1373.056	1212.406
-22.779	38.214	1371.321	1210.941
-21.765	38.084	1370.296	1209.188
-20.750	38.243	1368.507	1208.544
-19.736	38.002	1367.598	1206.202
-18.721	38.079	1365.709	1204.966
-17.706	37.928	1365.181	1203.519
-16.692	38.000	1363.653	1202.567
-15.677	37.979	1362.620	1201.480
-14.663	38.035	1361.074	1200.415
-13.648	37.852	1360.606	1198.825
-12.633	37.970	1359.081	1198.162
-11.619	38.033	1358.325	1197.834
-10.604	38.022	1357.134	1196.668
-9.590	37.929	1356.443	1195.439
-8.575	37.946	1355.482	1194.650
-7.560	37.909	1354.529	1193.536
-6.546	37.941	1353.915	1193.143
-5.531	37.966	1352.535	1192.031
-4.517	38.001	1351.393	1191.195
-3.502	37.990	1350.471	1190.264
-2.487	37.959	1349.425	1189.107
-1.473	37.954	1345.636	1185.689
-0.458	36.857	1329.230	1164.599
0.556	30.632	1308.825	1120.548
1.571	26.510	1313.545	1099.509
2.586	25.443	1329.764	1106.421
3.600	24.833	1319.018	1093.651
4.615	18.767	1240.318	993.331
5.629	6.761	1153.981	859.128
6.644	0.282	1127.396	804.737
7.659	-0.348	1124.069	798.935
8.673	-0.560	1122.881	796.889
9.688	-0.510	1121.068	795.798
10.702	0.181	1121.011	799.361
11.717	8.094	1133.313	850.409
12.731	17.479	1146.715	910.829
13.746	17.557	1145.127	909.904
14.761	14.521	1140.429	889.914
15.775	13.512	1137.943	882.522
16.790	12.774	1136.782	877.613
17.804	12.633	1135.563	875.844
18.819	12.524	1134.556	874.413
19.834	12.297	1133.697	872.465
20.848	12.142	1132.924	870.969
21.863	11.908	1132.441	869.280
22.877	11.863	1131.139	867.965
23.892	11.844	1130.553	867.342
24.907	11.797	1130.324	866.837
25.921	11.921	1128.903	866.329
26.936	11.991	1127.466	865.518
27.950	11.907	1126.125	863.969
28.965	11.954	1124.141	862.618
29.980	12.033	1121.908	861.245
30.994	12.045	1120.710	860.311
32.009	11.998	1119.502	859.061
33.023	11.980	1118.291	857.962
34.038	12.042	1116.864	857.113
35.053	11.922	1116.281	855.964
36.067	11.961	1115.289	855.330
37.082	12.038	1113.918	854.605
38.096	11.981	1113.309	853.767
39.111	11.974	1112.700	853.185
40.126	12.076	1111.170	852.470
41.140	11.961	1109.706	850.672
42.155	11.935	1108.468	849.511
43.169	11.974	1107.241	848.699
44.184	11.922	1106.576	847.848
45.199	12.026	1104.626	846.813
46.213	11.935	1103.568	845.457
47.228	11.916	1102.776	844.678
48.242	11.856	1101.068	842.985
49.257	11.946	1099.925	842.501
50.271	12.001	1099.333	842.255
51.286	11.947	1098.247	841.074
52.301	11.985	1097.107	840.320
53.315	12.031	1096.076	839.688
54.330	12.029	1095.266	838.986
55.344	12.022	1094.508	838.297
56.359	11.982	1093.173	836.995
57.374	11.961	1092.158	836.035
58.388	12.016	1091.483	835.726
59.403	12.005	1090.699	834.995
60.417	12.006	1089.805	834.239
61.432	12.102	1088.810	833.896
62.447	12.040	1088.124	832.980
63.461	12.019	1086.983	831.926
64.476	12.072	1085.886	831.285
65.490	12.064	1084.749	830.296
66.505	12.063	1083.905	829.575
67.520	12.048	1083.695	829.265
68.534	12.027	1082.935	828.504
69.549	12.079	1081.792	827.819
70.563	12.038	1081.090	827.002
71.578	12.038	1080.082	826.154
72.593	12.089	1079.052	825.551
73.607	12.047	1079.111	825.310
74.622	12.091	1078.215	824.774
75.636	12.081	1077.088	823.791
76.651	11.998	1076.288	822.690
77.666	12.052	1075.365	822.180
78.680	12.036	1074.905	821.679
79.695	11.969	1074.314	820.817
80.709	12.010	1073.957	820.674
81.724	12.088	1073.100	820.337
82.739	12.042	1072.334	819.450
83.753	12.025	1071.536	818.684
84.768	12.230	1069.886	818.373
85.782	12.170	1068.866	817.221
86.797	12.137	1067.915	816.256
87.812	12.060	1066.884	815.014
88.826	12.173	1065.455	814.412
89.841	12.073	1065.240	813.678
90.855	12.128	1063.765	812.753
91.870	12.120	1063.081	812.121
92.884	12.163	1061.922	811.373
93.899	12.140	1060.828	810.351
94.914	12.163	1060.293	809.988
95.928	12.325	1059.175	809.861
96.943	12.096	1058.357	808.035
97.957	12.068	1057.092	806.858
98.972	12.051	1056.178	806.006
99.987	12.088	1055.075	805.275
101.001	12.153	1054.085	804.765
102.016	12.122	1053.370	803.997
103.030	12.178	1051.924	803.099
104.045	12.059	1051.792	802.343
105.060	12.056	1050.695	801.420
106.074	12.144	1049.782	801.083
107.089	12.345	1048.638	801.121
108.103	12.200	1047.761	799.673
109.118	12.284	1046.335	798.922
110.133	12.317	1045.618	798.465
111.147	12.327	1044.330	797.460
112.162	12.297	1043.208	796.386
113.176	12.311	1042.606	795.922
114.191	12.315	1041.707	795.186
115.206	12.168	1040.861	793.757
116.220	12.165	1040.273	793.227
117.235	12.325	1039.002	792.962
118.249	12.371	1038.148	792.458
119.264	12.398	1037.112	791.727
120.279	12.331	1036.690	791.013
121.293	12.399	1035.582	790.424
122.308	12.348	1034.414	789.219
123.322	12.405	1032.825	788.212
124.337	12.376	1031.759	787.188
125.352	12.210	1030.206	785.141
126.366	12.166	1028.994	783.938
127.381	12.355	1027.794	783.854
128.395	12.322	1027.472	783.384
129.410	12.580	1025.628	783.137
130.424	12.508	1024.594	781.935
131.439	12.375	1024.349	781.045
132.454	12.307	1023.448	779.967
133.468	12.572	1022.210	780.212
134.483	12.357	1021.557	778.625
135.497	12.570	1020.176	778.508
136.512	12.583	1019.640	778.092
137.527	12.621	1018.211	777.116
138.541	12.634	1017.741	776.748
139.556	12.581	1016.721	775.651
140.570	12.492	1016.321	774.856
141.585	12.548	1015.069	774.097
142.600	12.600	1013.641	773.185
143.614	12.617	1013.022	772.726
144.629	12.595	1012.199	771.923
145.643	12.679	1010.967	771.309
146.658	12.680	1009.605	770.208
147.673	12.669	1008.660	769.367
148.687	12.612	1008.067	768.582
149.702	12.588	1007.057	767.630
150.716	12.554	1006.325	766.847
151.731	12.543	1005.861	766.375
152.746	12.686	1004.591	766.006
153.760	12.670	1003.774	765.241
154.775	12.642	1003.613	764.916
155.789	12.675	1002.487	764.147
156.804	12.602	1001.835	763.245
157.819	12.646	1000.903	762.670
158.833	12.678	1000.321	762.304
159.848	12.644	999.260	761.271
160.862	12.595	998.041	760.050
161.877	12.813	997.057	760.241
162.892	12.671	996.550	759.133
163.906	12.706	995.181	758.182
164.921	12.888	994.248	758.240
165.935	12.754	993.832	757.243
166.950	12.648	992.555	755.713
167.964	12.710	991.513	755.137
168.979	12.732	990.873	754.686
169.994	12.868	989.246	754.001
171.008	12.851	989.439	754.003
172.023	12.818	987.552	752.348
173.037	12.640	987.353	751.317
174.052	12.775	985.867	750.736
175.067	12.751	986.153	750.780
176.081	12.735	985.538	750.169
177.096	12.872	984.456	749.905
178.110	12.830	983.890	749.216
179.125	12.814	982.977	748.380
180.140	12.940	982.499	748.523
181.154	12.984	981.754	748.089
182.169	12.879	981.426	747.295
183.183	13.140	980.351	747.592
184.198	13.038	979.534	746.445
185.213	12.969	978.988	745.649
186.227	13.034	978.045	745.159
187.242	13.015	977.599	744.668
188.256	13.049	976.211	743.697
189.271	13.090	975.703	743.429
190.286	12.932	975.128	742.214
191.300	12.841	974.381	741.168
192.315	12.814	973.269	740.137
193.329	12.830	972.862	739.833
194.344	12.918	972.590	739.958
195.359	13.020	971.450	739.483
196.373	13.020	971.116	739.160
197.388	12.928	970.343	738.095
198.402	13.003	969.234	737.524
199.417	13.032	968.410	736.962
200.432	12.859	967.941	735.765
201.446	12.855	967.589	735.415
202.461	12.952	966.697	735.104
203.475	12.656	966.203	733.344
204.490	12.775	964.948	732.858
205.504	12.942	964.203	732.971
206.519	12.950	963.978	732.768
207.534	13.084	962.941	732.508
208.548	13.192	962.372	732.489
209.563	13.144	962.400	732.235
210.577	13.142	961.339	731.352
211.592	13.257	960.382	731.069
212.607	13.167	959.504	729.939
213.621	13.236	958.585	729.479
214.636	13.297	957.723	729.028
215.650	13.382	957.217	728.954
216.665	13.365	956.373	728.173
217.680	13.236	955.494	726.869
218.694	13.001	955.485	725.765
219.709	13.047	954.468	725.131
220.723	13.318	953.727	725.693
221.738	13.392	952.502	725.022
222.753	13.302	952.103	724.260
223.767	13.321	951.705	723.974
224.782	13.462	950.798	723.839
225.796	13.354	950.195	722.844
226.811	13.342	949.200	721.971
227.826	13.137	948.619	720.571
228.840	13.212	947.457	719.948
229.855	13.212	946.994	719.535
230.869	13.197	945.897	718.574
231.884	13.314	945.338	718.592
232.899	13.390	945.026	718.621
233.913	13.516	943.994	718.319
234.928	13.605	943.365	718.162
235.942	13.616	942.840	717.746
236.957	13.414	942.501	716.551
237.972	13.578	941.476	716.418
238.986	13.610	940.397	715.671
240.001	13.663	939.800	715.384
241.015	13.644	938.891	714.547
242.030	13.571	938.967	714.226
243.045	13.703	937.834	713.868
244.059	13.780	937.114	713.587
245.074	13.560	936.560	712.158
246.088	13.486	935.339	710.847
247.103	13.622	934.286	710.569
248.117	13.601	934.319	710.440
249.132	13.715	933.472	710.225
250.147	13.670	932.727	709.400
251.161	13.673	931.619	708.510
252.176	13.838	930.288	708.135
253.190	13.875	930.111	708.096
254.205	13.913	929.313	707.589
255.220	13.941	928.692	707.172
256.234	13.941	928.018	706.597
257.249	13.873	927.452	705.814
258.263	13.971	926.385	705.357
259.278	13.964	925.477	704.573
260.293	13.908	925.192	704.055
261.307	14.024	923.876	703.485
262.322	13.933	923.444	702.707
263.336	13.850	922.016	701.210
264.351	13.626	921.240	699.611
265.366	13.646	920.793	699.293
266.380	13.918	920.429	700.101
267.395	13.898	919.812	699.487
268.409	14.060	918.535	699.135
269.424	14.168	917.585	698.802
270.439	14.063	917.430	698.182
271.453	14.049	916.964	697.709
272.468	14.142	916.012	697.310
273.482	14.250	915.392	697.231
274.497	14.130	914.695	696.135
275.512	14.045	913.780	695.021
276.526	14.141	913.148	694.880
277.541	14.184	913.015	694.898
278.555	14.083	912.083	693.706
279.570	14.102	910.984	692.887
280.585	14.205	910.355	692.777
281.599	14.160	909.375	691.784
282.614	14.025	908.965	690.848
283.628	14.134	908.221	690.676
284.643	14.216	907.837	690.662
285.657	14.052	907.358	689.557
286.672	14.120	905.848	688.627
287.687	14.339	905.275	689.037
288.701	14.302	904.851	688.502
289.716	14.258	904.010	687.619
290.730	14.136	903.478	686.648
291.745	14.170	902.832	686.236
292.760	14.170	901.970	685.524
293.774	14.377	901.836	686.211
294.789	14.493	900.950	685.954
295.803	14.380	900.514	685.098
296.818	14.554	899.456	684.946
297.833	14.341	898.745	683.471
298.847	14.460	897.770	683.158
299.862	14.353	897.628	682.551
300.876	14.466	897.140	682.580
301.891	14.578	896.268	682.317
302.906	14.437	895.491	681.088
303.920	14.471	894.821	680.654
304.935	14.578	894.492	680.783
305.949	14.571	893.713	680.099
306.964	14.562	892.903	679.387
307.979	14.652	892.394	679.308
308.993	14.698	891.861	679.029
310.008	14.704	891.280	678.551
311.022	14.609	890.658	677.631
312.037	14.640	890.415	677.509
313.052	14.616	889.791	676.879
314.066	14.548	888.701	675.715
315.081	14.518	888.375	675.284
316.095	14.511	888.092	674.980
317.110	14.731	887.201	675.136
318.125	14.406	886.621	673.320
319.139	14.517	885.934	673.188
320.154	14.616	885.401	673.121
321.168	14.659	884.793	672.775
322.183	14.823	884.119	672.862
323.197	14.704	883.532	671.877
324.212	14.790	883.081	671.822
325.227	14.679	882.628	670.971
326.241	14.805	881.635	670.660
327.256	14.711	881.407	670.053
328.270	14.730	880.627	669.475
329.285	14.720	880.049	668.939
330.300	14.601	879.478	667.966
331.314	14.673	878.976	667.813
332.329	14.823	878.287	667.832
333.343	14.724	878.197	667.308
334.358	14.759	877.537	666.887
335.373	14.635	877.026	665.947
336.387	14.688	876.445	665.656
337.402	14.764	876.104	665.644
338.416	14.796	875.730	665.427
339.431	14.807	875.357	665.129
340.446	14.848	874.407	664.512
341.460	14.970	873.909	664.559
342.475	14.916	873.522	663.989
343.489	14.997	873.034	663.882
344.504	14.924	872.762	663.329
345.519	14.898	872.359	662.857
346.533	14.923	871.688	662.390
347.548	14.922	870.949	661.763
348.562	14.990	870.636	661.739
349.577	15.029	869.975	661.332
350.592	14.928	869.216	660.296
351.606	14.860	868.388	659.342
352.621	14.886	867.677	658.845
353.635	14.918	867.265	658.602
354.650	14.871	866.457	657.742
355.665	14.870	866.355	657.602
356.679	14.890	865.328	656.843
357.694	14.950	864.439	656.349
358.708	15.039	863.794	656.148
359.723	14.893	863.009	654.921
360.738	15.046	862.367	654.974
361.752	15.073	861.276	654.195
362.767	15.102	860.846	653.924
363.781	14.887	860.528	652.783
364.796	14.961	859.840	652.495
365.810	14.879	859.343	651.739
366.825	14.844	859.301	651.515
367.840	15.024	858.367	651.450
368.854	15.161	858.277	651.855
369.869	15.095	857.616	651.039
370.883	15.186	857.279	651.078
371.898	15.024	857.283	650.397
372.913	15.127	856.514	650.155
373.927	14.994	856.023	649.207
374.942	15.201	854.954	649.140
375.956	15.223	854.324	648.691
376.971	15.038	853.909	647.602
377.986	14.972	853.789	647.198
379.000	15.139	853.120	647.279
380.015	15.225	852.393	647.003
381.029	15.209	851.852	646.472
382.044	15.126	851.487	645.819
383.059	15.321	850.613	645.849
384.073	15.246	849.894	644.958
385.088	15.021	849.594	643.809
386.102	14.977	849.332	643.383
387.117	14.938	848.694	642.693
388.132	15.333	847.909	643.559
389.146	15.401	847.279	643.283
390.161	15.382	846.916	642.880
391.175	15.320	846.377	642.176
392.190	15.373	846.175	642.168
393.205	15.323	846.065	641.834
394.219	15.552	845.521	642.244
395.234	15.629	845.542	642.494
396.248	15.355	844.618	640.691
397.263	15.126	843.622	639.004
398.278	15.165	842.996	638.624
399.292	15.169	842.670	638.333
400.307	15.107	842.042	637.565
401.321	14.858	841.796	636.376
402.336	14.969	840.633	635.863
403.350	14.953	840.371	635.545
404.365	14.967	840.144	635.372
405.380	15.004	839.135	634.692
406.394	14.902	838.352	633.658
407.409	14.859	838.495	633.547
408.423	15.060	837.979	633.865
409.438	15.004	837.319	633.095
410.453	14.946	836.523	632.218
411.467	14.908	835.888	631.537
412.482	14.731	835.798	630.747
413.496	14.809	835.397	630.682
414.511	14.845	834.896	630.384
415.526	14.867	834.685	630.254
416.540	15.084	833.960	630.465
417.555	15.179	833.723	630.588
418.569	15.086	833.479	630.000
419.584	15.183	832.865	629.845
420.599	15.348	832.188	629.895
421.613	149.438	1358.815	1774.982
422.628	130.596	1435.584	1775.109
