DTS Sentinel unit serial number:	SN413079Multiplexer serial number:	ORYXHardware model number:	OX4-SRSoftware version number:	ORYX F/W v4.00 Oryx Data Collector v3.7.2.0data status	okinstallation	princeton_trtdifferential loss correction	single-endedforward channel	channel 1reverse channel	N/Adate	2019/09/14time	07:54:35forward acquisition time	60.00reverse acquisition time	0.00gamma	496.2192k internal	0.2334k external	0.2334temperature offset calibration	1.0070default loss term (dB/km)	0.3790temperature slope calibration	1.0000multiplexer offset coefficient	1.0000multiplexer slope coefficient	1.0000fibre end	0.00T internal ref (°C)	26.62T ext. ref 1 (°C)	3.51T ext. ref 2 (°C)	23.53length (m)	temperature (°C)	Stokes	anti-Stokes-747.200	-120.451	-0.054	0.009
-746.185	-200.000	-0.047	0.477
-745.171	-200.000	0.034	-0.248
-744.156	2.171	-0.156	0.113
-743.142	-45.039	-0.382	0.191
-742.127	68.068	0.195	0.201
-741.112	568.079	0.037	0.090
-740.098	157.051	-0.141	0.196
-739.083	123.870	0.069	-0.087
-738.069	800.000	0.039	0.164
-737.054	-200.000	0.003	-0.201
-736.039	144.356	-0.208	-0.279
-735.025	405.613	-0.084	0.178
-734.010	158.639	-0.083	0.116
-732.996	14.985	-0.190	0.149
-731.981	1.616	-0.105	-0.076
-730.966	18.857	0.118	-0.095
-729.952	-122.924	-0.072	-0.012
-728.937	68.506	-0.197	-0.203
-727.923	-200.000	-0.026	0.242
-726.908	120.009	-0.200	0.249
-725.894	-200.000	0.059	-0.278
-724.879	-9.312	0.041	0.028
-723.864	-110.209	0.103	0.022
-722.850	-45.928	0.080	-0.040
-721.835	426.409	-0.124	-0.270
-720.821	383.901	0.165	-0.342
-719.806	-184.868	-0.154	0.002
-718.791	-80.129	0.423	0.142
-717.777	19.657	-0.173	0.140
-716.762	127.527	-0.266	-0.339
-715.748	250.856	0.043	0.073
-714.733	-27.502	-0.076	-0.044
-713.718	-53.128	0.103	-0.047
-712.704	-200.000	0.013	-0.320
-711.689	-64.208	0.360	-0.147
-710.675	64.205	-0.165	0.166
-709.660	-200.000	0.050	0.286
-708.645	-200.000	0.074	-0.500
-707.631	-82.867	-0.025	0.008
-706.616	489.785	-0.086	0.197
-705.602	-200.000	-0.108	-0.000
-704.587	-200.000	-0.025	0.136
-703.572	160.075	0.074	-0.103
-702.558	-46.863	0.278	-0.136
-701.543	86.591	0.018	-0.020
-700.529	-27.727	-0.359	-0.209
-699.514	-69.851	-0.215	0.082
-698.499	57.833	-0.091	-0.089
-697.485	45.484	-0.177	0.164
-696.470	2.196	0.184	-0.134
-695.456	163.862	0.058	-0.082
-694.441	-57.440	0.281	-0.124
-693.426	-48.263	-0.203	-0.098
-692.412	800.000	-0.064	-0.180
-691.397	453.392	-0.102	-0.227
-690.383	-35.261	0.134	0.073
-689.368	-118.276	0.194	-0.035
-688.354	-110.919	0.147	-0.030
-687.339	351.339	-0.180	0.357
-686.324	442.143	-0.027	-0.058
-685.310	800.000	0.041	0.156
-684.295	452.192	-0.106	-0.235
-683.281	-200.000	-0.002	-0.507
-682.266	-9.442	-0.235	-0.157
-681.251	-88.177	0.223	0.067
-680.237	180.687	-0.147	-0.216
-679.222	74.914	-0.323	-0.341
-678.208	-107.385	-0.123	-0.027
-677.193	-200.000	0.032	-0.199
-676.178	-117.902	-0.226	-0.041
-675.164	-200.000	0.022	0.132
-674.149	-86.250	0.075	-0.023
-673.135	480.343	-0.023	0.052
-672.120	-200.000	-0.012	-0.212
-671.105	-200.000	-0.017	0.134
-670.091	-6.367	0.092	0.063
-669.076	-200.000	-0.010	-0.130
-668.062	-117.451	-0.384	0.070
-667.047	631.791	0.049	0.125
-666.032	318.839	-0.107	-0.204
-665.018	151.309	-0.027	0.037
-664.003	800.000	-0.064	0.202
-662.989	120.672	-0.014	-0.018
-661.974	745.416	0.063	0.170
-660.959	-55.262	-0.198	-0.089
-659.945	-57.792	0.387	-0.170
-658.930	171.941	-0.185	-0.266
-657.916	-200.000	0.008	0.174
-656.901	-130.075	0.148	-0.020
-655.886	-200.000	-0.011	-0.231
-654.872	800.000	-0.037	-0.160
-653.857	-102.094	-0.134	0.032
-652.843	-200.000	-0.040	0.244
-651.828	-99.762	-0.083	-0.021
-650.814	-143.908	-0.459	-0.043
-649.799	33.527	0.116	-0.101
-648.784	-123.791	0.370	-0.059
-647.770	-200.000	0.024	0.230
-646.755	-3.889	0.121	-0.084
-645.741	800.000	-0.100	-0.363
-644.726	-57.550	-0.119	-0.052
-643.711	127.667	0.135	-0.171
-642.697	29.570	0.305	-0.259
-641.682	-48.165	0.209	-0.101
-640.668	18.455	-0.106	-0.085
-639.653	-77.221	-0.059	0.021
-638.638	-200.000	0.061	-0.363
-637.624	-142.974	0.258	0.025
-636.609	-138.142	-0.275	0.031
-635.595	79.394	-0.073	-0.078
-634.580	-200.000	0.001	-0.016
-633.565	-200.000	-0.005	-0.159
-632.551	-200.000	-0.300	-0.001
-631.536	207.984	0.163	0.255
-630.522	19.360	-0.044	0.035
-629.507	74.585	0.267	0.281
-628.492	-66.805	-0.156	0.062
-627.478	-0.478	-0.251	-0.179
-626.463	800.000	0.049	-0.200
-625.449	-54.044	0.138	-0.063
-624.434	139.517	-0.165	0.217
-623.419	800.000	-0.031	-0.101
-622.405	-21.208	-0.152	0.093
-621.390	-200.000	0.028	-0.345
-620.376	102.870	-0.069	0.081
-619.361	-61.177	-0.256	0.108
-618.346	265.951	0.023	-0.041
-617.332	388.492	0.071	-0.146
-616.317	280.249	0.155	-0.278
-615.303	-126.554	0.091	0.014
-614.288	363.847	-0.072	-0.145
-613.273	21.786	0.217	-0.177
-612.259	-3.005	-0.087	0.061
-611.244	303.717	-0.063	0.117
-610.230	-48.600	0.180	0.087
-609.215	316.790	-0.118	-0.223
-608.201	553.041	0.072	-0.173
-607.186	-200.000	-0.056	-0.347
-606.171	-200.000	-0.125	-0.549
-605.157	-14.151	-0.282	-0.182
-604.142	-109.788	-0.093	-0.020
-603.128	387.955	0.053	-0.110
-602.113	-16.138	-0.055	-0.035
-601.098	-126.528	0.401	0.060
-600.084	800.000	0.010	-0.032
-599.069	-94.887	0.325	0.088
-598.055	-200.000	0.029	-0.212
-597.040	-78.213	0.200	0.069
-596.025	46.664	-0.261	0.242
-595.011	-166.338	0.130	-0.005
-593.996	-61.691	-0.260	-0.109
-592.982	522.120	-0.091	-0.215
-591.967	42.471	-0.229	0.208
-590.952	-96.846	0.244	0.064
-589.938	-72.168	-0.097	0.036
-588.923	136.854	-0.257	0.336
-587.909	230.382	-0.070	0.115
-586.894	-121.095	-0.100	-0.017
-585.879	462.947	-0.014	-0.032
-584.865	800.000	0.095	-0.276
-583.850	-200.000	-0.065	0.361
-582.836	21.195	-0.102	0.082
-581.821	-122.973	0.079	0.013
-580.806	307.958	0.125	0.232
-579.792	109.267	0.127	-0.151
-578.777	-153.178	0.277	-0.019
-577.763	-75.730	-0.086	-0.030
-576.748	85.785	-0.094	-0.103
-575.733	346.265	-0.090	0.176
-574.719	-200.000	-0.009	0.121
-573.704	190.152	-0.116	-0.175
-572.690	-106.262	0.053	-0.012
-571.675	702.779	0.052	0.136
-570.661	-200.000	0.013	0.177
-569.646	97.741	0.094	0.108
-568.631	800.000	-0.074	0.210
-567.617	-87.571	0.184	0.055
-566.602	169.832	0.143	-0.204
-565.588	-73.985	0.065	-0.024
-564.573	383.783	0.144	0.295
-563.558	700.367	-0.067	-0.176
-562.544	-200.000	-0.004	0.298
-561.529	28.537	-0.145	-0.122
-560.515	-178.176	0.484	-0.011
-559.500	-90.052	0.106	-0.031
-558.485	182.191	0.070	0.103
-557.471	22.026	-0.262	-0.213
-556.456	24.783	-0.138	-0.114
-555.442	800.000	0.119	-0.335
-554.427	261.517	0.048	-0.084
-553.412	-200.000	0.024	0.148
-552.398	-10.989	0.069	0.045
-551.383	-19.338	-0.032	-0.020
-550.369	-31.313	-0.301	0.169
-549.354	121.789	-0.031	-0.038
-548.339	-21.348	0.114	-0.069
-547.325	-7.017	-0.221	-0.149
-546.310	-91.880	0.224	-0.063
-545.296	-106.828	-0.187	-0.041
-544.281	12.743	-0.110	-0.085
-543.266	-51.648	0.246	0.115
-542.252	147.046	0.179	-0.241
-541.237	-200.000	0.019	0.289
-540.223	-127.261	-0.042	0.006
-539.208	-200.000	-0.025	-0.236
-538.193	800.000	-0.092	0.361
-537.179	-200.000	0.007	0.164
-536.164	-21.772	0.320	0.194
-535.150	-41.029	-0.171	-0.088
-534.135	-18.410	-0.113	-0.071
-533.121	129.908	-0.150	-0.192
-532.106	40.719	0.265	-0.238
-531.091	-113.597	-0.181	0.035
-530.077	-200.000	0.000	-0.168
-529.062	-82.018	-0.344	0.112
-528.048	-28.797	0.050	-0.029
-527.033	-54.261	0.278	0.126
-526.018	-200.000	-0.005	-0.133
-525.004	34.488	-0.365	-0.317
-523.989	800.000	-0.037	-0.122
-522.975	-22.220	0.145	-0.087
-521.960	266.342	-0.259	0.450
-520.945	-111.661	-0.102	0.021
-519.931	-90.884	-0.067	0.019
-518.916	-14.422	0.391	0.251
-517.902	800.000	0.107	0.439
-516.887	-98.538	-0.209	0.053
-515.872	-10.785	0.185	0.122
-514.858	-200.000	0.028	-0.348
-513.843	212.878	0.041	-0.064
-512.829	130.144	0.078	-0.100
-511.814	-122.477	-0.026	0.004
-510.799	-200.000	0.022	0.205
-509.785	171.292	-0.177	-0.252
-508.770	68.381	-0.219	-0.223
-507.756	281.371	-0.156	-0.279
-506.741	216.592	-0.076	-0.121
-505.726	-111.212	0.204	0.041
-504.712	22.358	-0.163	-0.133
-503.697	194.234	0.048	-0.072
-502.683	104.910	-0.108	0.126
-501.668	225.196	0.076	-0.122
-500.653	-78.059	0.327	-0.112
-499.639	-89.246	-0.130	0.038
-498.624	-162.935	-0.106	0.005
-497.610	194.303	0.093	0.141
-496.595	-200.000	-0.044	0.355
-495.581	310.411	-0.061	0.114
-494.566	-200.000	0.021	-0.116
-493.551	0.666	0.179	-0.128
-492.537	-23.904	0.107	-0.064
-491.522	102.776	-0.155	-0.180
-490.508	-134.619	-0.378	-0.046
-489.493	-200.000	-0.008	-0.130
-488.478	553.542	-0.084	-0.201
-487.464	-124.155	0.188	-0.029
-486.449	323.568	-0.182	0.346
-485.435	-98.062	-0.023	-0.006
-484.420	-146.927	0.188	-0.016
-483.405	428.467	-0.167	0.359
-482.391	-89.854	0.165	-0.048
-481.376	-18.985	-0.378	0.234
-480.362	-200.000	0.037	-0.223
-479.347	227.330	0.088	-0.142
-478.332	-84.310	-0.042	0.013
-477.318	-21.743	-0.322	-0.195
-476.303	-68.358	-0.133	0.051
-475.289	138.694	0.137	-0.178
-474.274	5.447	0.202	0.148
-473.259	38.236	-0.250	0.221
-472.245	-200.000	0.017	0.261
-471.230	162.445	-0.064	-0.090
-470.216	-163.907	0.191	-0.009
-469.201	800.000	0.048	0.177
-468.186	800.000	0.037	0.105
-467.172	514.199	-0.083	-0.193
-466.157	54.169	-0.126	-0.120
-465.143	800.000	0.059	0.244
-464.128	107.977	0.105	0.124
-463.113	-88.179	0.244	0.073
-462.099	-85.065	0.301	0.094
-461.084	-144.465	0.260	0.024
-460.070	-29.412	0.401	0.228
-459.055	-200.000	0.018	-0.188
-458.040	-123.672	-0.370	-0.058
-457.026	800.000	0.022	0.077
-456.011	-200.000	0.033	-0.270
-454.997	-200.000	-0.023	-0.184
-453.982	89.390	0.329	0.364
-452.968	-65.504	0.088	0.035
-451.953	-163.015	0.236	-0.011
-450.938	32.605	0.121	0.104
-449.924	23.153	0.244	0.199
-448.909	-200.000	0.017	0.244
-447.895	-19.334	0.249	-0.153
-446.880	264.807	-0.135	0.234
-445.865	543.025	-0.050	0.119
-444.851	13.960	-0.234	0.181
-443.836	728.265	-0.040	0.106
-442.822	111.333	0.096	0.115
-441.807	-63.043	0.089	0.037
-440.792	-200.000	-0.006	-0.137
-439.778	171.326	-0.189	-0.269
-438.763	800.000	0.058	-0.231
-437.749	-104.875	0.434	0.099
-436.734	-156.043	-0.278	-0.017
-435.719	-59.550	-0.252	0.107
-434.705	-29.148	0.066	0.037
-433.690	199.569	0.153	0.233
-432.676	-124.547	0.110	-0.017
-431.661	-154.660	0.356	0.024
-430.646	-146.934	0.110	0.009
-429.632	-77.545	0.332	-0.114
-428.617	-200.000	0.033	0.172
-427.603	-5.097	0.183	0.125
-426.588	-117.585	-0.326	0.058
-425.573	-0.238	0.237	-0.167
-424.559	1.638	-0.110	-0.079
-423.544	-200.000	-0.065	-0.486
-422.530	-200.000	0.028	0.132
-421.515	-106.222	-0.163	0.036
-420.500	157.818	0.246	-0.338
-419.486	-89.093	-0.174	-0.051
-418.471	-67.487	-0.232	-0.090
-417.457	-72.609	0.138	0.051
-416.442	570.789	0.024	-0.058
-415.428	-136.190	-0.203	0.024
-414.413	-200.000	-0.017	0.134
-413.398	150.285	0.133	0.179
-412.384	-121.753	-0.265	-0.043
-411.369	800.000	-0.154	-0.471
-410.355	-115.692	0.313	0.058
-409.340	9.431	-0.160	-0.120
-408.325	71.203	0.212	0.218
-407.311	-42.071	-0.028	-0.014
-406.296	32.954	0.089	-0.077
-405.282	-154.037	0.316	0.021
-404.267	21.256	0.261	-0.210
-403.252	-69.800	-0.243	0.092
-402.238	10.372	0.179	-0.135
-401.223	-52.388	-0.040	0.018
-400.209	-200.000	-0.011	-0.053
-399.194	-200.000	-0.013	0.357
-398.179	271.940	-0.145	0.253
-397.165	-200.000	0.101	0.456
-396.150	-9.841	-0.034	0.023
-395.136	-112.094	0.123	-0.024
-394.121	-102.209	-0.275	-0.065
-393.106	-73.068	0.486	-0.177
-392.092	-165.155	0.194	0.009
-391.077	86.913	0.150	0.164
-390.063	375.244	-0.087	-0.175
-389.048	81.730	0.156	-0.168
-388.033	132.542	0.167	-0.213
-387.019	14.789	0.064	0.050
-386.004	741.141	-0.093	0.247
-384.990	-120.232	0.206	-0.035
-383.975	100.860	-0.118	-0.136
-382.960	237.230	0.124	0.203
-381.946	800.000	-0.013	-0.050
-380.931	131.652	-0.073	-0.093
-379.917	-200.000	0.035	-0.370
-378.902	-40.740	-0.077	0.039
-377.888	-148.815	0.297	0.024
-376.873	-65.560	-0.287	-0.114
-375.858	-36.980	0.245	-0.130
-374.844	594.853	-0.108	-0.266
-373.829	-122.793	-0.659	-0.105
-372.815	68.005	0.215	0.218
-371.800	-32.727	-0.270	0.149
-370.785	291.774	0.205	0.369
-369.771	210.256	0.084	0.131
-368.756	-68.946	-0.182	0.070
-367.742	-200.000	-0.002	-0.259
-366.727	569.180	0.060	0.144
-365.712	-111.665	-0.224	-0.045
-364.698	223.845	0.050	-0.080
-363.683	800.000	-0.007	-0.028
-362.669	-98.349	0.255	-0.065
-361.654	-72.240	-0.040	-0.015
-360.639	480.320	0.021	0.047
-359.625	76.550	-0.230	-0.241
-358.610	23.523	0.136	-0.110
-357.596	800.000	0.036	0.143
-356.581	-200.000	-0.014	-0.237
-355.566	800.000	0.026	0.091
-354.552	-41.928	-0.111	-0.057
-353.537	69.175	-0.140	-0.143
-352.523	41.884	-0.200	0.179
-351.508	-106.955	-0.251	-0.055
-350.493	-200.000	-0.027	-0.286
-349.479	-200.000	0.015	0.074
-348.464	-163.658	-0.119	-0.006
-347.450	-200.000	0.011	0.208
-346.435	800.000	0.078	-0.278
-345.420	-90.996	-0.132	-0.038
-344.406	-123.870	-0.085	0.013
-343.391	-200.000	0.012	-0.167
-342.377	-64.761	0.076	-0.031
-341.362	-200.000	0.187	0.000
-340.348	307.633	-0.061	-0.113
-339.333	800.000	0.086	-0.251
-338.318	183.753	-0.013	0.019
-337.304	-35.416	0.406	0.218
-336.289	-144.649	-0.387	-0.035
-335.275	-178.129	-0.491	0.011
-334.260	198.742	-0.190	-0.287
-333.245	268.742	-0.029	-0.050
-332.231	-116.420	-0.174	0.032
-331.216	264.320	0.145	-0.249
-330.202	800.000	-0.041	0.162
-329.187	-200.000	-0.004	-0.263
-328.172	10.790	-0.135	0.102
-327.158	-38.905	-0.209	0.109
-326.143	-200.000	0.029	0.280
-325.129	-160.513	-0.388	0.021
-324.114	503.329	0.104	0.238
-323.099	171.485	0.115	-0.163
-322.085	-200.000	0.086	-0.000
-321.070	-0.625	-0.086	0.060
-320.056	-37.393	0.166	-0.087
-319.041	181.316	0.201	0.293
-318.026	-126.477	-0.124	0.018
-317.012	153.731	-0.159	0.215
-315.997	800.000	0.083	0.238
-314.983	800.000	-0.039	0.137
-313.968	18.222	-0.270	0.213
-312.953	76.256	0.237	0.248
-311.939	800.000	0.078	0.304
-310.924	-83.727	0.105	0.033
-309.910	-59.338	0.219	0.093
-308.895	37.843	0.125	0.110
-307.880	489.236	-0.037	0.085
-306.866	-12.746	0.088	0.057
-305.851	330.447	-0.073	0.139
-304.837	300.215	-0.078	-0.143
-303.822	-38.300	0.083	0.044
-302.807	65.011	-0.151	-0.150
-301.793	316.313	0.108	0.202
-300.778	-72.071	-0.223	0.082
-299.764	-200.000	-0.021	-0.145
-298.749	225.558	-0.130	-0.209
-297.735	-128.261	-0.049	-0.007
-296.720	-105.521	-0.120	-0.027
-295.705	-140.198	-0.203	-0.021
-294.691	139.567	0.144	-0.187
-293.676	-200.000	-0.016	-0.495
-292.662	800.000	-0.053	0.182
-291.647	-21.988	-0.247	0.148
-290.632	-97.603	0.430	-0.110
-289.618	-36.406	-0.065	0.034
-288.603	560.866	0.049	-0.118
-287.589	252.975	-0.148	-0.250
-286.574	7.929	0.083	-0.062
-285.559	-32.803	0.279	0.153
-284.545	261.775	-0.207	0.353
-283.530	-77.503	0.201	-0.069
-282.516	-67.227	0.062	0.024
-281.501	660.050	-0.088	0.224
-280.486	-149.827	0.172	-0.013
-279.472	-107.229	-0.205	-0.044
-278.457	-14.759	0.065	0.041
-277.443	-200.000	-0.001	0.253
-276.428	-200.000	-0.011	-0.102
-275.413	116.153	-0.131	-0.159
-274.399	-60.635	-0.235	0.098
-273.384	-165.931	-0.223	-0.009
-272.370	-200.000	-0.025	0.254
-271.355	-41.361	0.028	0.014
-270.340	149.228	-0.116	-0.155
-269.326	-200.000	-0.000	0.120
-268.311	385.846	0.066	0.135
-267.297	-90.456	0.415	-0.119
-266.282	-159.649	-0.108	-0.006
-265.267	-200.000	0.035	-0.290
-264.253	12.130	-0.159	0.121
-263.238	-200.000	0.007	-0.308
-262.224	-76.994	0.309	0.106
-261.209	165.279	0.161	-0.225
-260.195	-122.698	0.064	0.010
-259.180	-103.410	-0.195	0.045
-258.165	44.348	0.097	-0.087
-257.151	-120.584	0.070	-0.012
-256.136	434.947	-0.054	0.116
-255.122	23.963	0.225	0.183
-254.107	197.200	-0.071	0.107
-253.092	-69.347	0.270	0.102
-252.078	667.711	0.062	-0.159
-251.063	200.418	-0.146	-0.221
-250.049	-200.000	-0.048	-0.286
-249.034	-77.125	-0.627	0.216
-248.019	-112.992	0.157	-0.031
-247.005	-52.156	-0.375	-0.171
-245.990	-42.288	0.141	0.071
-244.976	-172.180	-0.316	-0.010
-243.961	-48.230	0.193	0.092
-242.946	-200.000	0.047	-0.213
-241.932	-200.000	0.020	-0.274
-240.917	-77.495	0.073	0.025
-239.903	800.000	0.054	0.228
-238.888	-177.051	-0.280	-0.007
-237.873	234.973	-0.086	0.139
-236.859	76.359	0.053	0.055
-235.844	-16.135	-0.416	0.260
-234.830	200.176	-0.109	-0.166
-233.815	-32.986	-0.150	-0.082
-232.800	-200.000	-0.008	-0.056
-231.786	-175.651	0.130	0.003
-230.771	3.670	-0.232	-0.167
-229.757	85.540	0.047	0.051
-228.742	108.398	0.102	0.120
-227.727	-8.580	0.320	0.212
-226.713	99.397	-0.161	-0.184
-225.698	18.492	-0.162	0.128
-224.684	54.148	-0.183	0.174
-223.669	2.646	-0.178	-0.127
-222.655	-200.000	-0.050	0.295
-221.640	-118.168	-0.350	0.062
-220.625	98.965	0.280	-0.319
-219.611	-129.465	0.065	-0.009
-218.596	-200.000	0.005	-0.164
-217.582	800.000	-0.044	0.122
-216.567	-101.515	0.070	-0.017
-215.552	-200.000	0.026	0.182
-214.538	130.758	0.215	0.272
-213.523	36.962	-0.116	0.101
-212.509	800.000	0.068	0.268
-211.494	800.000	0.038	-0.122
-210.479	-18.016	0.237	0.146
-209.465	-82.356	-0.089	-0.028
-208.450	-11.387	0.322	0.208
-207.436	-90.169	-0.141	0.040
-206.421	-7.263	0.097	-0.065
-205.406	-127.232	-0.417	-0.060
-204.392	327.929	-0.052	0.098
-203.377	-200.000	0.036	-0.341
-202.363	-137.842	-0.212	-0.023
-201.348	-200.000	-0.013	-0.075
-200.333	15.667	0.164	0.126
-199.319	-126.141	0.108	-0.016
-198.304	-200.000	-0.055	0.245
-197.290	28.073	0.175	-0.146
-196.275	-72.381	-0.218	0.079
-195.260	-20.023	-0.171	0.104
-194.246	800.000	-0.073	0.215
-193.231	-200.000	0.037	-0.359
-192.217	-200.000	0.032	-0.221
-191.202	-88.869	-0.206	0.060
-190.187	-130.446	0.525	0.070
-189.173	-138.653	-0.172	-0.019
-188.158	160.391	0.090	-0.124
-187.144	419.918	0.014	0.029
-186.129	33.864	0.041	-0.035
-185.114	83.680	-0.191	0.205
-184.100	800.000	0.040	-0.110
-183.085	-25.433	-0.111	-0.065
-182.071	28.973	0.205	-0.171
-181.056	108.144	-0.151	-0.177
-180.042	-15.861	-0.118	-0.074
-179.027	-155.928	-0.116	-0.007
-178.012	684.469	0.049	-0.125
-176.998	-172.438	0.251	-0.008
-175.983	-25.175	-0.185	0.108
-174.969	-200.000	-0.013	0.281
-173.954	134.642	0.077	-0.098
-172.939	332.759	-0.030	0.057
-171.925	-99.345	0.155	0.038
-170.910	125.564	0.093	0.115
-169.896	-80.441	-0.080	0.026
-168.881	-125.710	0.078	-0.012
-167.866	-116.964	0.232	0.042
-166.852	732.790	-0.104	0.273
-165.837	-200.000	-0.002	0.339
-164.823	800.000	0.040	-0.159
-163.808	-65.866	0.136	0.053
-162.793	-52.678	0.379	0.172
-161.779	443.496	-0.085	0.183
-160.764	-78.030	-0.215	0.073
-159.750	-200.000	-0.015	0.132
-158.735	68.805	-0.043	0.044
-157.720	22.636	-0.086	-0.069
-156.706	-64.634	-0.095	0.038
-155.691	-8.823	-0.059	-0.039
-154.677	-200.000	-0.025	-0.181
-153.662	36.546	-0.083	0.072
-152.647	800.000	-0.069	0.257
-151.633	9.062	0.126	0.093
-150.618	-81.287	0.054	-0.017
-149.604	-129.978	0.260	-0.035
-148.589	197.966	0.082	-0.123
-147.574	-67.522	-0.076	-0.029
-146.560	666.939	0.104	0.263
-145.545	6.155	-0.289	0.211
-144.531	-106.216	-0.212	-0.047
-143.516	-41.104	-0.169	0.086
-142.502	-58.025	-0.164	0.070
-141.487	800.000	0.075	-0.228
-140.472	-200.000	0.043	-0.201
-139.458	-176.718	0.454	-0.011
-138.443	353.423	0.042	-0.082
-137.429	-200.000	0.044	0.249
-136.414	537.354	0.062	0.144
-135.399	-140.131	0.367	-0.038
-134.385	59.147	-0.094	0.091
-133.370	-200.000	-0.020	0.097
-132.356	800.000	-0.040	-0.141
-131.341	170.772	0.128	-0.179
-130.326	-200.000	-0.003	-0.195
-129.312	-115.504	0.171	-0.032
-128.297	-148.400	0.159	0.013
-127.283	521.744	-0.105	-0.242
-126.268	-6.973	-0.295	-0.196
-125.253	441.214	-0.178	-0.382
-124.239	74.756	-0.094	0.097
-123.224	800.000	0.036	0.138
-122.210	6.444	-0.186	-0.135
-121.195	-200.000	0.006	0.212
-120.180	16.950	-0.235	0.183
-119.166	287.239	-0.129	0.229
-118.151	645.589	-0.099	0.249
-117.137	800.000	0.043	0.147
-116.122	145.016	0.194	-0.254
-115.107	66.153	0.273	-0.271
-114.093	99.090	-0.211	0.239
-113.078	40.988	0.028	-0.024
-112.064	800.000	-0.130	0.434
-111.049	346.779	-0.131	0.252
-110.034	-52.978	0.281	-0.127
-109.020	-58.650	-0.345	0.147
-108.005	-7.777	-0.161	-0.107
-106.991	104.256	0.086	-0.099
-105.976	238.160	-0.231	0.375
-104.962	-16.331	-0.187	0.116
-103.947	58.778	0.075	-0.072
-102.932	168.888	0.042	-0.059
-101.918	-75.184	0.111	0.039
-100.903	440.169	-0.071	-0.153
-99.889	256.274	0.074	-0.125
-98.874	-200.000	0.049	-0.271
-97.859	-200.000	0.009	0.274
-96.845	-161.366	0.315	-0.016
-95.830	800.000	0.028	-0.102
-94.816	-21.558	-0.193	-0.115
-93.801	-72.537	-0.077	-0.028
-92.786	800.000	0.048	-0.161
-91.772	782.672	0.014	0.037
-90.757	144.148	-0.259	-0.339
-89.743	-91.329	0.285	0.080
-88.728	85.849	-0.110	0.118
-87.713	18.134	-0.216	0.169
-86.699	111.142	0.165	0.194
-85.684	-200.000	-0.045	0.255
-84.670	190.047	0.206	0.303
-83.655	-101.588	-0.011	0.003
-82.640	-29.062	0.191	0.107
-81.626	-168.330	-0.361	-0.014
-80.611	23.529	-0.371	0.299
-79.597	800.000	-0.113	0.408
-78.582	-15.407	-0.070	0.044
-77.567	-200.000	0.002	-0.112
-76.553	24.374	0.349	0.283
-75.538	69.535	0.180	0.181
-74.524	667.191	0.081	-0.205
-73.509	-125.911	0.540	-0.080
-72.494	196.114	-0.131	0.196
-71.480	103.629	0.338	0.389
-70.465	16.715	0.237	-0.184
-69.451	196.607	-0.104	0.155
-68.436	177.775	0.126	-0.179
-67.422	800.000	0.066	0.185
-66.407	-200.000	-0.011	-0.188
-65.392	-59.323	0.164	0.069
-64.378	-59.932	0.148	0.062
-63.363	-63.030	0.086	0.035
-62.349	-117.827	0.189	0.033
-61.334	14.314	-1.157	-0.883
-60.319	-45.424	0.846	0.411
-59.305	473.929	-0.453	-0.999
-58.290	330.287	0.698	1.315
-57.276	800.000	0.545	1.535
-56.261	-200.000	116.638	663.799
-55.246	526.109	1536.858	3541.246
-54.232	175.344	2709.691	3841.913
-53.217	107.926	2162.396	2520.792
-52.203	38.622	1596.277	1393.103
-51.188	29.825	1339.322	1116.022
-50.173	27.025	1300.869	1067.504
-49.159	55.456	1358.658	1286.303
-48.144	53.197	1372.755	1286.087
-47.130	30.174	1327.051	1107.708
-46.115	26.684	1309.214	1072.165
-45.100	26.548	1303.921	1066.983
-44.086	26.467	1301.105	1064.160
-43.071	26.420	1298.372	1061.609
-42.057	26.502	1296.481	1060.502
-41.042	26.367	1295.463	1058.836
-40.027	26.451	1293.741	1057.875
-39.013	26.526	1291.647	1056.558
-37.998	26.528	1289.983	1055.166
-36.984	26.511	1288.633	1053.927
-35.969	26.586	1286.882	1052.888
-34.954	26.650	1284.853	1051.558
-33.940	26.641	1283.546	1050.391
-32.925	26.662	1281.938	1049.154
-31.911	26.789	1280.465	1048.645
-30.896	26.691	1278.919	1046.769
-29.881	26.780	1277.478	1046.063
-28.867	26.743	1276.326	1044.866
-27.852	26.740	1274.985	1043.707
-26.838	26.746	1273.530	1042.511
-25.823	26.710	1272.373	1041.317
-24.809	26.663	1270.865	1039.769
-23.794	26.667	1269.364	1038.523
-22.779	26.770	1267.853	1037.834
-21.765	26.651	1266.774	1036.231
-20.750	26.696	1265.690	1035.557
-19.736	26.599	1264.604	1034.073
-18.721	26.557	1263.664	1033.024
-17.706	26.595	1262.836	1032.524
-16.692	26.654	1261.165	1031.455
-15.677	26.644	1259.823	1030.260
-14.663	26.574	1259.153	1029.272
-13.648	26.608	1257.688	1028.226
-12.633	26.581	1256.702	1027.223
-11.619	26.614	1256.120	1026.899
-10.604	26.673	1255.357	1026.567
-9.590	26.552	1254.303	1024.980
-8.575	26.520	1253.350	1023.979
-7.560	26.487	1252.702	1023.219
-6.546	26.510	1251.742	1022.527
-5.531	26.565	1250.527	1021.804
-4.517	26.554	1249.905	1021.192
-3.502	26.573	1248.869	1020.415
-2.487	26.556	1248.112	1019.657
-1.473	26.676	1244.086	1017.005
-0.458	25.466	1229.808	998.571
0.556	22.808	1213.823	965.723
1.571	19.630	1221.070	953.883
2.586	18.976	1236.607	962.276
3.600	18.495	1224.913	950.426
4.615	13.830	1152.749	869.959
5.629	6.564	1081.262	780.101
6.644	3.656	1063.190	752.828
7.659	3.440	1060.878	750.073
8.673	3.539	1059.867	749.775
9.688	3.416	1058.859	748.398
10.702	3.679	1056.726	748.097
11.717	8.101	1062.423	773.562
12.731	15.345	1073.178	816.716
13.746	19.097	1077.326	838.104
14.761	19.428	1077.032	839.413
15.775	18.665	1075.212	834.212
16.790	17.542	1073.489	827.348
17.804	16.943	1072.149	823.338
18.819	16.572	1070.913	820.516
19.834	16.376	1070.331	819.046
20.848	16.329	1069.063	817.777
21.863	15.989	1068.391	815.543
22.877	15.913	1068.014	814.816
23.892	15.911	1067.152	814.079
24.907	15.814	1066.031	812.681
25.921	15.910	1065.074	812.341
26.936	15.991	1064.230	812.019
27.950	16.030	1062.139	810.539
28.965	16.137	1060.783	809.946
29.980	16.204	1059.115	808.924
30.994	16.093	1058.783	808.064
32.009	16.277	1057.514	807.905
33.023	16.213	1056.790	806.977
34.038	16.207	1055.254	805.700
35.053	16.092	1054.405	804.432
36.067	16.114	1053.367	803.674
37.082	16.058	1053.070	803.112
38.096	16.267	1051.927	803.163
39.111	16.291	1051.332	802.752
40.126	15.969	1050.273	800.340
41.140	15.825	1048.656	798.356
42.155	15.755	1047.421	797.013
43.169	15.702	1046.534	796.018
44.184	15.750	1045.335	795.263
45.199	15.699	1044.562	794.364
46.213	15.870	1043.500	794.291
47.228	15.759	1043.302	793.547
48.242	15.902	1042.267	793.364
49.257	16.090	1040.546	792.868
50.271	16.060	1040.037	792.269
51.286	16.064	1039.147	791.540
52.301	15.914	1038.037	789.919
53.315	16.001	1037.069	789.519
54.330	15.861	1035.941	787.935
55.344	15.670	1035.395	786.559
56.359	15.770	1034.107	785.976
57.374	15.854	1033.006	785.461
58.388	15.714	1032.269	784.179
59.403	15.717	1031.559	783.584
60.417	15.690	1030.564	782.637
61.432	15.528	1030.332	781.635
62.447	15.701	1029.195	781.508
63.461	15.559	1028.110	779.954
64.476	15.590	1027.295	779.410
65.490	15.473	1026.463	778.172
66.505	15.706	1025.657	778.568
67.520	15.641	1024.919	777.638
68.534	15.606	1024.151	776.825
69.549	15.565	1023.686	776.213
70.563	15.481	1023.004	775.240
71.578	15.514	1021.538	774.214
72.593	15.463	1021.245	773.690
73.607	15.471	1020.593	773.162
74.622	15.531	1019.779	772.753
75.636	15.573	1019.387	772.579
76.651	15.462	1018.950	771.673
77.666	15.591	1017.768	771.302
78.680	15.696	1017.032	771.157
79.695	15.482	1016.664	769.829
80.709	15.779	1015.616	770.327
81.724	15.891	1015.122	770.394
82.739	16.007	1014.442	770.341
83.753	15.980	1013.967	769.792
84.768	16.107	1012.996	769.562
85.782	16.131	1012.600	769.307
86.797	16.209	1011.264	768.578
87.812	15.993	1010.947	767.284
88.826	16.022	1009.832	766.501
89.841	16.103	1008.938	766.125
90.855	16.154	1008.018	765.591
91.870	16.156	1007.268	764.963
92.884	16.104	1006.575	764.130
93.899	16.218	1005.288	763.601
94.914	16.304	1004.574	763.381
95.928	16.229	1004.096	762.613
96.943	16.153	1003.029	761.390
97.957	15.996	1002.566	760.265
98.972	16.052	1001.324	759.509
99.987	16.239	1000.386	759.572
101.001	16.095	999.287	758.023
102.016	16.098	998.663	757.492
103.030	16.174	997.974	757.245
104.045	16.212	997.147	756.722
105.060	16.084	996.124	755.306
106.074	15.968	995.245	754.052
107.089	15.822	994.033	752.415
108.103	15.667	993.098	750.949
109.118	15.681	992.157	750.231
110.133	15.741	991.629	750.033
111.147	15.690	990.232	748.684
112.162	15.764	989.914	748.706
113.176	15.835	989.251	748.454
114.191	15.983	988.201	748.254
115.206	15.900	987.290	747.126
116.220	15.903	986.401	746.402
117.235	15.850	985.440	745.374
118.249	15.666	984.921	744.099
119.264	15.810	983.544	743.630
120.279	15.676	982.903	742.489
121.293	15.672	982.423	742.044
122.308	15.681	981.360	741.213
123.322	15.696	980.446	740.523
124.337	15.494	979.515	738.869
125.352	15.733	977.998	738.708
126.366	15.737	976.690	737.670
127.381	15.590	975.970	736.418
128.395	15.655	975.521	736.301
129.410	15.725	974.343	735.653
130.424	15.773	973.805	735.389
131.439	15.760	973.016	734.672
132.454	15.819	972.174	734.231
133.468	15.996	971.480	734.412
134.483	15.820	970.380	732.748
135.497	15.601	970.263	731.644
136.512	15.839	968.823	731.525
137.527	15.797	968.024	730.674
138.541	15.828	967.620	730.442
139.556	15.915	966.801	730.134
140.570	15.993	966.375	730.087
141.585	16.051	965.849	729.877
142.600	16.243	964.353	729.512
143.614	16.104	963.777	728.410
144.629	16.168	963.380	728.323
145.643	16.265	961.977	727.615
146.658	16.186	960.468	726.068
147.673	16.011	960.086	724.963
148.687	15.921	959.317	723.934
149.702	15.967	958.084	723.133
150.716	16.028	956.959	722.484
151.731	15.818	956.722	721.339
152.746	15.992	956.036	721.504
153.760	16.032	955.350	721.094
154.775	16.060	954.851	720.771
155.789	16.191	953.985	720.616
156.804	16.178	953.296	719.977
157.819	16.173	952.964	719.639
158.833	16.359	952.220	719.807
159.848	16.373	951.247	719.066
160.862	16.214	950.786	717.977
161.877	16.044	949.522	716.237
162.892	15.890	948.613	714.834
163.906	15.928	947.499	714.092
164.921	16.058	946.607	713.910
165.935	16.088	945.622	713.229
166.950	16.082	945.032	712.695
167.964	15.984	944.471	711.795
168.979	16.074	943.032	711.029
169.994	15.998	942.266	710.069
171.008	16.108	941.823	710.133
172.023	16.305	941.047	710.317
173.037	16.387	940.199	709.959
174.052	16.162	939.481	708.407
175.067	16.195	938.718	707.910
176.081	16.086	937.995	706.843
177.096	15.938	937.623	705.881
178.110	16.193	937.034	706.443
179.125	16.036	936.799	705.544
180.140	16.238	936.022	705.741
181.154	16.312	935.590	705.664
182.169	16.261	935.442	705.275
183.183	16.399	934.772	705.284
184.198	16.269	933.853	703.986
185.213	16.399	932.819	703.685
186.227	16.395	932.575	703.423
187.242	16.403	931.988	702.950
188.256	16.593	931.429	703.259
189.271	16.484	930.522	702.060
190.286	16.215	929.211	699.892
191.300	15.913	928.650	698.154
192.315	15.907	927.747	697.389
193.329	16.086	927.234	697.682
194.344	16.224	926.884	697.928
195.359	16.215	926.436	697.493
196.373	16.439	925.335	697.527
197.388	16.496	925.484	697.810
198.402	16.628	924.702	697.707
199.417	16.677	924.295	697.540
200.432	16.822	923.671	697.604
201.446	16.688	923.580	696.920
202.461	16.977	922.633	697.331
203.475	16.744	922.332	696.085
204.490	16.589	921.488	694.750
205.504	16.603	920.332	693.876
206.519	16.570	919.608	693.134
207.534	16.620	918.622	692.534
208.548	16.598	918.299	692.137
209.563	16.533	917.502	691.211
210.577	16.716	916.964	691.490
211.592	16.830	916.436	691.497
212.607	16.892	915.664	691.105
213.621	16.811	914.897	690.136
214.636	16.725	914.508	689.432
215.650	16.890	913.541	689.311
216.665	17.028	912.734	689.203
217.680	17.025	912.112	688.659
218.694	16.982	911.605	688.042
219.709	17.050	910.623	687.517
220.723	16.819	910.364	686.325
221.738	16.844	909.566	685.762
222.753	16.852	908.746	685.115
223.767	17.032	908.149	685.332
224.782	16.958	907.851	684.749
225.796	17.225	907.404	685.426
226.811	17.073	906.602	684.147
227.826	17.045	905.807	683.377
228.840	16.999	905.124	682.614
229.855	16.996	903.972	681.671
230.869	16.895	903.570	680.904
231.884	16.749	903.228	679.998
232.899	16.795	902.102	679.277
233.913	16.808	900.749	678.251
234.928	16.760	900.418	677.746
235.942	16.754	900.450	677.690
236.957	16.720	899.579	676.837
237.972	16.891	898.596	676.722
238.986	16.770	898.770	676.309
240.001	16.868	897.708	675.841
241.015	16.805	897.244	675.182
242.030	16.868	896.604	674.888
243.045	16.963	896.027	674.771
244.059	17.099	895.299	674.705
245.074	16.996	894.813	673.870
246.088	17.139	893.944	673.722
247.103	17.218	893.779	673.855
248.117	17.173	893.495	673.401
249.132	17.428	892.775	673.809
250.147	17.514	892.314	673.743
251.161	17.562	891.614	673.343
252.176	17.516	891.159	672.759
253.190	17.549	890.282	672.166
254.205	17.652	889.355	671.812
255.220	17.743	888.812	671.703
256.234	17.710	888.393	671.198
257.249	17.647	887.974	670.572
258.263	17.607	887.052	669.661
259.278	17.714	886.184	669.365
260.293	17.790	885.482	669.076
261.307	17.838	885.059	668.882
262.322	17.828	884.537	668.392
263.336	17.735	883.696	667.333
264.351	17.795	883.153	667.096
265.366	17.945	882.208	666.909
266.380	17.882	881.519	666.087
267.395	17.695	881.228	665.076
268.409	17.859	879.949	664.692
269.424	17.671	879.394	663.483
270.439	17.690	878.680	662.959
271.453	17.629	878.432	662.476
272.468	17.598	877.522	661.609
273.482	17.723	876.729	661.439
274.497	17.594	876.881	660.993
275.512	17.726	875.992	660.777
276.526	17.742	875.821	660.650
277.541	17.766	875.138	660.170
278.555	17.804	874.596	659.849
279.570	17.932	874.117	659.925
280.585	17.874	873.131	658.898
281.599	17.906	871.779	657.943
282.614	17.816	871.792	657.547
283.628	18.048	871.096	657.857
284.643	17.870	870.397	656.586
285.657	17.932	869.818	656.333
286.672	17.845	869.244	655.504
287.687	17.969	868.531	655.384
288.701	17.995	867.863	654.923
289.716	17.780	867.664	653.891
290.730	17.960	866.815	653.883
291.745	17.825	866.435	653.022
292.760	18.036	865.633	653.166
293.774	18.049	865.193	652.827
294.789	18.071	864.480	652.315
295.803	17.966	863.521	651.133
296.818	18.127	862.852	651.184
297.833	17.896	862.264	649.802
298.847	17.872	861.680	649.215
299.862	18.040	861.079	649.341
300.876	18.141	860.624	649.324
301.891	18.192	860.309	649.224
302.906	18.214	859.588	648.705
303.920	18.415	859.216	649.129
304.935	18.411	858.566	648.565
305.949	18.220	858.220	647.523
306.964	18.163	857.658	646.828
307.979	18.283	856.640	646.456
308.993	18.402	856.243	646.548
310.008	18.462	855.660	646.277
311.022	18.287	854.881	644.972
312.037	18.229	854.432	644.357
313.052	18.160	853.723	643.505
314.066	18.109	853.311	642.948
315.081	18.172	852.300	642.367
316.095	18.159	852.051	642.070
317.110	18.100	851.427	641.322
318.125	18.041	850.987	640.714
319.139	18.209	850.400	640.846
320.154	18.220	849.796	640.375
321.168	18.207	849.663	640.170
322.183	18.220	849.039	639.689
323.197	18.217	848.653	639.331
324.212	18.240	848.050	638.908
325.227	18.303	846.730	638.089
326.241	18.349	846.432	637.982
327.256	18.176	846.162	637.076
328.270	18.297	845.498	636.971
329.285	18.239	844.968	636.298
330.300	18.231	844.178	635.620
331.314	18.223	843.852	635.286
332.329	18.428	843.508	635.731
333.343	18.523	842.919	635.585
334.358	18.612	842.503	635.543
335.373	18.573	841.930	634.911
336.387	18.512	842.185	634.821
337.402	18.597	841.662	634.685
338.416	18.622	841.509	634.606
339.431	18.738	841.140	634.702
340.446	18.779	840.384	634.227
341.460	18.819	840.209	634.186
342.475	18.821	839.808	633.832
343.489	18.850	839.362	633.549
344.504	19.013	838.510	633.450
345.519	19.085	838.282	633.487
346.533	18.826	838.218	632.428
347.548	18.756	837.592	631.642
348.562	18.702	836.720	630.731
349.577	18.615	835.886	629.725
350.592	18.543	835.384	629.027
351.606	18.689	834.475	628.822
352.621	18.764	833.893	628.604
353.635	18.732	833.277	627.967
354.650	18.761	832.732	627.608
355.665	18.618	832.262	626.676
356.679	18.926	831.878	627.453
357.694	18.779	830.956	626.167
358.708	18.902	830.294	626.060
359.723	18.871	829.547	625.332
360.738	18.835	829.078	624.789
361.752	18.861	828.816	624.633
362.767	18.991	828.247	624.620
363.781	19.070	827.676	624.421
364.796	19.148	827.425	624.459
365.810	19.184	827.142	624.320
366.825	19.231	826.782	624.165
367.840	19.251	825.887	623.503
368.854	19.247	825.306	622.996
369.869	19.200	825.279	622.751
370.883	19.141	824.539	621.926
371.898	19.294	824.564	622.441
372.913	19.286	823.997	621.930
373.927	19.260	823.525	621.426
374.942	19.253	823.113	621.033
375.956	19.251	822.470	620.488
376.971	19.401	822.257	620.810
377.986	19.497	821.939	620.859
379.000	19.533	821.431	620.550
380.015	19.360	820.976	619.532
381.029	19.440	819.995	619.022
382.044	19.602	819.289	619.017
383.059	19.492	818.841	618.228
384.073	19.538	817.890	617.622
385.088	19.349	817.547	616.632
386.102	19.176	816.977	615.528
387.117	19.311	816.664	615.719
388.132	19.354	815.686	615.081
389.146	19.375	814.974	614.567
390.161	19.512	814.845	614.901
391.175	19.665	814.137	614.857
392.190	19.406	813.475	613.382
393.205	19.267	813.499	612.852
394.219	19.368	812.875	612.688
395.234	19.211	812.603	611.871
396.248	19.354	812.076	611.926
397.263	19.476	811.443	611.828
398.278	19.234	811.099	610.656
399.292	19.330	810.692	610.635
400.307	19.302	810.138	610.065
401.321	19.324	809.654	609.725
402.336	19.331	809.262	609.402
403.350	19.408	809.377	609.705
404.365	19.609	808.650	609.813
405.380	19.580	808.224	609.338
406.394	19.752	807.743	609.526
407.409	19.753	807.263	609.113
408.423	19.843	807.150	609.291
409.438	19.930	806.875	609.335
410.453	19.864	806.578	608.824
411.467	19.904	805.547	608.133
412.482	19.974	805.439	608.243
413.496	19.996	805.272	608.143
414.511	20.021	804.711	607.752
415.526	19.982	804.087	607.091
416.540	20.019	803.710	606.881
417.555	19.981	803.168	606.285
418.569	19.939	802.765	605.782
419.584	19.952	802.427	605.519
420.599	19.942	802.044	605.141
421.613	161.433	1371.844	1796.041
422.628	140.216	1454.849	1796.132
