DTS Sentinel unit serial number:	SN413079Multiplexer serial number:	ORYXHardware model number:	OX4-SRSoftware version number:	ORYX F/W v4.00 Oryx Data Collector v3.7.2.0data status	okinstallation	princeton_trtdifferential loss correction	single-endedforward channel	channel 1reverse channel	N/Adate	2019/09/13time	00:02:35forward acquisition time	60.00reverse acquisition time	0.00gamma	496.2192k internal	0.2328k external	0.2328temperature offset calibration	1.0150default loss term (dB/km)	0.3790temperature slope calibration	1.0000multiplexer offset coefficient	1.0000multiplexer slope coefficient	1.0000fibre end	0.00T internal ref (°C)	28.64T ext. ref 1 (°C)	3.77T ext. ref 2 (°C)	23.36length (m)	temperature (°C)	Stokes	anti-Stokes-747.200	-200.000	0.033	-0.178
-746.185	-134.980	-0.176	0.021
-745.171	-96.970	-0.375	-0.099
-744.156	-16.402	-0.323	0.206
-743.142	376.769	0.045	-0.093
-742.127	-200.000	0.038	0.219
-741.112	-105.365	0.220	0.050
-740.098	243.101	-0.210	0.355
-739.083	800.000	-0.027	-0.077
-738.069	-159.217	-0.074	0.004
-737.054	-200.000	0.040	-0.179
-736.039	205.741	-0.146	-0.229
-735.025	-200.000	0.008	0.335
-734.010	-124.179	-0.212	0.033
-732.996	-91.462	0.175	0.050
-731.981	-152.904	-0.112	-0.008
-730.966	-42.687	-0.112	-0.057
-729.952	26.667	-0.155	-0.131
-728.937	-200.000	0.066	-0.305
-727.923	5.319	0.282	-0.209
-726.908	-135.012	-0.123	-0.015
-725.894	76.879	-0.165	-0.176
-724.879	-200.000	0.002	0.027
-723.864	800.000	-0.087	-0.342
-722.850	20.775	-0.100	0.082
-721.835	68.449	-0.059	-0.060
-720.821	25.966	-0.163	-0.137
-719.806	-38.804	-0.246	0.131
-718.791	54.777	0.026	0.025
-717.777	-72.237	-0.357	0.133
-716.762	449.073	0.101	-0.224
-715.748	-132.655	-0.198	0.026
-714.733	412.799	0.187	-0.400
-713.718	113.170	-0.087	0.106
-712.704	800.000	-0.093	-0.298
-711.689	-134.728	-0.433	0.053
-710.675	385.715	0.124	0.258
-709.660	90.527	-0.101	-0.114
-708.645	-93.614	-0.375	0.104
-707.631	-46.792	0.169	-0.083
-706.616	-200.000	-0.007	0.124
-705.602	-4.258	0.289	0.201
-704.587	-200.000	0.036	-0.168
-703.572	101.589	0.151	0.177
-702.558	247.262	0.152	0.258
-701.543	31.881	-0.352	-0.305
-700.529	-91.284	-0.040	-0.011
-699.514	127.196	0.026	-0.033
-698.499	-49.604	-0.078	-0.037
-697.485	-95.527	-0.299	-0.081
-696.470	-126.947	0.290	-0.043
-695.456	-75.217	-0.192	0.069
-694.441	-116.788	-0.350	-0.065
-693.426	-145.426	-0.387	0.035
-692.412	-68.702	0.153	0.060
-691.397	668.668	0.070	-0.182
-690.383	800.000	-0.047	-0.180
-689.368	67.043	0.207	0.212
-688.354	-86.440	0.511	0.158
-687.339	-64.726	-0.312	0.127
-686.324	-178.123	0.105	-0.002
-685.310	166.256	0.101	0.144
-684.295	-76.662	-0.463	-0.163
-683.281	-28.410	-0.231	-0.134
-682.266	-200.000	0.066	0.509
-681.251	-147.136	-0.116	0.010
-680.237	187.490	-0.148	0.221
-679.222	800.000	-0.025	0.104
-678.208	-92.682	0.252	-0.071
-677.193	-200.000	-0.003	0.225
-676.178	-25.109	-0.121	0.072
-675.164	257.343	-0.147	0.254
-674.149	-200.000	0.057	-0.316
-673.135	-60.199	-0.158	-0.068
-672.120	504.403	0.135	-0.315
-671.105	162.157	0.208	-0.293
-670.091	-132.244	0.208	0.027
-669.076	118.136	0.152	0.188
-668.062	272.636	0.121	-0.214
-667.047	463.670	-0.028	0.063
-666.032	-200.000	0.015	-0.125
-665.018	459.439	0.035	-0.077
-664.003	240.586	-0.035	0.058
-662.989	-200.000	-0.000	-0.077
-661.974	-80.714	0.028	0.010
-660.959	-200.000	0.003	0.110
-659.945	441.209	0.048	0.106
-658.930	-200.000	-0.260	-0.000
-657.916	-92.262	0.020	-0.006
-656.901	-200.000	0.007	0.050
-655.886	211.669	-0.210	-0.333
-654.872	-92.732	-0.404	0.114
-653.857	-200.000	0.015	0.082
-652.843	-5.014	-0.383	-0.265
-651.828	630.783	0.101	0.256
-650.814	-89.787	-0.108	0.032
-649.799	61.005	0.178	-0.177
-648.784	-200.000	-0.011	-0.267
-647.770	-126.816	0.032	0.005
-646.755	339.131	0.049	0.096
-645.741	-143.960	0.210	-0.020
-644.726	318.797	-0.261	-0.497
-643.711	-137.774	-0.338	0.038
-642.697	-189.392	0.356	0.004
-641.682	-55.831	0.315	0.141
-640.668	500.424	0.016	0.036
-639.653	-90.040	-0.038	0.011
-638.638	586.109	-0.047	0.115
-637.624	274.557	-0.054	-0.096
-636.609	-200.000	-0.044	-0.278
-635.595	39.765	0.019	0.017
-634.580	115.384	-0.036	-0.044
-633.565	140.840	-0.114	0.152
-632.551	-28.381	-0.310	-0.180
-631.536	-47.570	0.097	0.047
-630.522	-154.169	0.077	0.005
-629.507	-125.171	0.260	0.040
-628.492	267.496	0.066	-0.115
-627.478	0.626	-0.150	0.107
-626.463	-93.935	0.255	-0.070
-625.449	503.714	0.066	0.154
-624.434	-200.000	-0.019	-0.262
-623.419	-87.001	-0.197	0.060
-622.405	719.494	0.047	-0.124
-621.390	800.000	-0.136	0.413
-620.376	350.046	-0.101	-0.201
-619.361	-41.336	0.063	0.033
-618.346	-66.290	0.022	0.009
-617.332	228.442	-0.040	0.066
-616.317	-80.616	-0.129	-0.043
-615.303	-59.721	-0.316	-0.136
-614.288	-99.674	-0.479	-0.120
-613.273	800.000	0.082	0.325
-612.259	-200.000	-0.013	0.226
-611.244	286.936	-0.132	-0.239
-610.230	-47.049	0.128	0.062
-609.215	-161.766	-0.224	0.011
-608.201	-18.257	-0.367	0.230
-607.186	326.129	0.092	-0.177
-606.171	-200.000	0.030	-0.146
-605.157	65.804	-0.093	-0.095
-604.142	-75.048	0.137	-0.049
-603.128	-144.974	-0.373	-0.034
-602.113	-200.000	-0.031	-0.183
-601.098	136.085	0.107	0.139
-600.084	-4.055	0.290	-0.202
-599.069	-25.109	0.064	-0.038
-598.055	-92.977	0.332	0.093
-597.040	-200.000	0.029	-0.236
-596.025	153.744	-0.177	0.243
-595.011	307.922	-0.301	0.563
-593.996	49.806	-0.137	-0.129
-592.982	-112.333	0.249	-0.050
-591.967	-191.768	0.139	0.001
-590.952	-200.000	0.044	-0.212
-589.938	534.547	-0.148	-0.352
-588.923	-60.468	0.353	-0.150
-587.909	-32.723	0.336	0.187
-586.894	-15.877	-0.274	-0.175
-585.879	-200.000	-0.028	0.159
-584.865	366.646	0.123	0.249
-583.850	-166.922	-0.308	0.013
-582.836	19.466	-0.074	0.060
-581.821	-31.159	-0.299	-0.169
-580.806	-200.000	0.017	-0.107
-579.792	288.271	-0.052	0.095
-578.777	3.390	-0.331	-0.241
-577.763	32.725	-0.356	0.308
-576.748	-13.155	-0.028	0.018
-575.733	-24.558	-0.081	0.049
-574.719	155.697	0.066	-0.091
-573.704	116.095	-0.220	-0.269
-572.690	-153.664	0.176	-0.012
-571.675	26.149	-0.183	0.153
-570.661	376.981	-0.128	-0.261
-569.646	433.769	-0.048	0.104
-568.631	155.236	0.116	-0.159
-567.617	670.408	-0.008	-0.021
-566.602	105.310	-0.259	-0.306
-565.588	16.224	-0.100	0.079
-564.573	-200.000	0.027	0.213
-563.558	-200.000	0.017	0.249
-562.544	-173.848	-0.236	0.007
-561.529	192.947	-0.095	0.144
-560.515	208.741	-0.227	-0.355
-559.500	129.826	0.081	0.103
-558.485	-200.000	-0.055	-0.361
-557.471	3.496	-0.187	-0.136
-556.456	-96.887	-0.340	0.089
-555.442	46.423	0.106	0.098
-554.427	-200.000	0.026	-0.195
-553.412	-64.874	0.318	0.129
-552.398	37.164	0.022	-0.020
-551.383	89.833	0.336	-0.376
-550.369	800.000	-0.041	0.161
-549.354	800.000	0.026	0.096
-548.339	370.224	-0.051	-0.104
-547.325	108.908	-0.069	0.083
-546.310	427.297	-0.140	-0.303
-545.296	-200.000	0.034	-0.264
-544.281	-200.000	-0.020	-0.145
-543.266	-59.748	-0.045	0.019
-542.252	455.335	-0.018	0.040
-541.237	-79.901	-0.159	0.053
-540.223	38.687	-0.074	0.066
-539.208	-72.516	0.460	-0.170
-538.193	-200.000	-0.097	0.468
-537.179	-131.697	-0.105	-0.014
-536.164	-200.000	-0.106	-0.511
-535.150	-46.936	0.034	-0.017
-534.135	-117.610	-0.361	0.065
-533.121	68.727	0.077	0.079
-532.106	-200.000	-0.051	0.393
-531.091	-200.000	-0.008	0.128
-530.077	-53.222	0.123	0.057
-529.062	-13.331	-0.213	0.138
-528.048	653.141	-0.037	-0.095
-527.033	-32.464	0.202	0.113
-526.018	-200.000	-0.040	-0.333
-525.004	-200.000	-0.020	-0.163
-523.989	-103.620	-0.116	-0.027
-522.975	-69.973	-0.333	0.127
-521.960	-37.047	0.410	0.220
-520.945	-166.923	-0.368	-0.015
-519.931	49.282	0.225	0.211
-518.916	613.735	-0.061	0.153
-517.902	-67.713	0.260	0.102
-516.887	-68.384	0.256	0.099
-515.872	0.893	-0.319	-0.228
-514.858	-112.684	0.368	0.073
-513.843	-93.027	0.171	0.047
-512.829	-200.000	-0.012	-0.141
-511.814	-200.000	0.048	0.224
-510.799	-123.827	-0.246	-0.039
-509.785	167.972	0.067	-0.095
-508.770	63.292	0.129	-0.129
-507.756	-60.000	0.300	-0.128
-506.741	-17.500	0.242	0.152
-505.726	-58.164	-0.234	-0.102
-504.712	94.190	-0.099	0.113
-503.697	-200.000	0.019	-0.115
-502.683	23.240	-0.177	0.145
-501.668	-55.303	-0.085	-0.038
-500.653	-18.845	0.101	-0.063
-499.639	191.205	0.146	-0.220
-498.624	-151.313	-0.261	0.019
-497.610	-33.950	0.361	0.198
-496.595	151.793	-0.080	0.108
-495.581	-48.792	0.237	-0.113
-494.566	56.911	-0.096	0.093
-493.551	266.637	0.096	0.167
-492.537	6.354	-0.097	-0.072
-491.522	-137.436	0.324	-0.037
-490.508	180.059	0.175	0.257
-489.493	105.043	0.078	-0.092
-488.478	372.612	-0.036	-0.073
-487.464	-45.055	0.098	0.049
-486.449	212.490	-0.082	0.129
-485.435	-51.207	-0.262	0.122
-484.420	-161.996	-0.057	0.003
-483.405	800.000	-0.055	-0.168
-482.391	-200.000	0.024	0.146
-481.376	-9.847	-0.470	-0.312
-480.362	92.303	-0.153	-0.172
-479.347	800.000	0.062	-0.216
-478.332	-67.841	0.083	0.032
-477.318	506.847	0.078	0.181
-476.303	-140.558	-0.307	0.032
-475.289	-29.786	0.165	0.094
-474.274	-36.108	-0.149	-0.080
-473.259	-200.000	0.015	0.205
-472.245	800.000	-0.108	0.351
-471.230	182.493	0.109	0.161
-470.216	117.849	-0.166	-0.204
-469.201	617.239	0.067	0.169
-468.186	-8.199	-0.091	0.061
-467.172	-200.000	-0.029	-0.135
-466.157	454.320	0.058	-0.129
-465.143	-63.470	0.275	-0.113
-464.128	-200.000	0.012	-0.230
-463.113	-97.535	0.206	-0.053
-462.099	25.206	0.026	-0.021
-461.084	35.694	-0.014	-0.013
-460.070	747.376	-0.098	-0.263
-459.055	439.873	-0.117	-0.255
-458.040	-89.595	-0.118	0.034
-457.026	108.328	0.191	0.227
-456.011	-200.000	0.012	-0.173
-454.997	800.000	-0.109	-0.345
-453.982	800.000	0.095	-0.265
-452.968	800.000	-0.073	-0.302
-451.953	800.000	-0.100	0.386
-450.938	-200.000	0.038	-0.196
-449.924	-69.110	0.047	-0.018
-448.909	97.690	-0.291	0.333
-447.895	800.000	-0.117	0.478
-446.880	-188.581	-0.466	-0.006
-445.865	453.499	0.122	-0.268
-444.851	54.305	-0.100	0.096
-443.836	-65.156	0.063	0.025
-442.822	800.000	-0.039	0.170
-441.807	-10.171	0.105	-0.069
-440.792	-173.861	0.429	0.013
-439.778	-130.280	0.123	-0.017
-438.763	8.008	0.097	-0.073
-437.749	193.449	0.068	0.102
-436.734	800.000	-0.128	0.505
-435.719	-132.535	-0.206	-0.026
-434.705	288.549	-0.142	-0.255
-433.690	202.736	-0.091	0.140
-432.676	141.005	-0.113	0.148
-431.661	280.658	-0.171	0.304
-430.646	-36.590	-0.114	0.061
-429.632	60.509	-0.123	0.121
-428.617	130.460	-0.163	-0.208
-427.603	411.739	-0.082	-0.173
-426.588	365.524	-0.089	-0.178
-425.573	217.087	-0.144	-0.228
-424.559	490.992	-0.024	0.054
-423.544	-104.101	-0.095	-0.022
-422.530	-24.998	0.221	-0.130
-421.515	124.625	-0.184	0.231
-420.500	-96.811	-0.160	-0.042
-419.486	-106.134	0.236	-0.053
-418.471	143.161	0.113	-0.149
-417.457	-62.723	-0.278	0.115
-416.442	-42.176	-0.211	0.107
-415.428	-89.533	0.123	0.036
-414.413	104.345	0.126	0.147
-413.398	-200.000	0.031	0.218
-412.384	111.271	0.216	0.259
-411.369	-200.000	0.023	0.282
-410.355	-34.736	0.381	-0.207
-409.340	87.144	-0.219	-0.241
-408.325	-41.663	-0.249	0.127
-407.311	-76.148	0.324	0.114
-406.296	-75.996	-0.274	0.096
-405.282	226.185	0.095	-0.153
-404.267	-42.449	-0.110	0.056
-403.252	12.921	0.317	0.244
-402.238	-169.608	-0.305	0.011
-401.223	-170.054	0.169	0.006
-400.209	-200.000	-0.026	-0.237
-399.194	256.719	-0.187	-0.319
-398.179	164.664	0.175	0.245
-397.165	-77.946	0.259	0.089
-396.150	181.763	0.135	0.198
-395.136	180.088	-0.097	-0.141
-394.121	-84.643	0.564	-0.176
-393.106	-56.240	0.323	-0.143
-392.092	-10.789	-0.135	-0.088
-391.077	-136.870	-0.058	-0.007
-390.063	-82.605	-0.160	-0.051
-389.048	-15.882	0.234	-0.148
-388.033	273.630	0.025	0.044
-387.019	800.000	-0.016	0.062
-386.004	85.540	-0.259	-0.283
-384.990	108.292	0.076	0.090
-383.975	171.423	0.146	0.209
-382.960	-200.000	0.002	0.242
-381.946	800.000	0.067	-0.202
-380.931	113.390	-0.151	0.183
-379.917	486.039	0.020	0.044
-378.902	-63.267	0.316	0.129
-377.888	-84.976	-0.141	0.044
-376.873	-200.000	-0.055	-0.643
-375.858	-52.332	-0.160	-0.074
-374.844	-200.000	0.030	-0.347
-373.829	422.521	0.031	-0.066
-372.815	-16.080	0.214	-0.135
-371.800	89.544	0.109	0.120
-370.785	-97.381	-0.168	0.043
-369.771	57.569	0.060	0.058
-368.756	-40.714	0.151	-0.078
-367.742	800.000	-0.019	0.058
-366.727	-200.000	0.004	-0.076
-365.712	-200.000	-0.004	0.401
-364.698	788.850	-0.069	-0.188
-363.683	800.000	-0.091	-0.308
-362.669	-33.285	0.121	-0.066
-361.654	1.968	0.096	0.069
-360.639	-200.000	-0.049	0.349
-359.625	161.493	-0.143	0.198
-358.610	292.849	0.142	-0.257
-357.596	-138.742	0.211	-0.023
-356.581	25.590	-0.072	0.059
-355.566	196.148	0.230	0.347
-354.552	125.799	-0.119	-0.149
-353.537	65.705	0.247	0.248
-352.523	74.332	-0.119	0.124
-351.508	-39.992	0.276	-0.143
-350.493	-11.792	0.053	-0.034
-349.479	-164.394	-0.171	0.008
-348.464	33.630	0.245	0.211
-347.450	518.771	0.159	-0.369
-346.435	104.342	-0.122	-0.142
-345.420	-187.388	-0.143	-0.002
-344.406	-152.943	-0.130	0.009
-343.391	-111.642	0.300	-0.060
-342.377	-200.000	0.020	-0.118
-341.362	800.000	-0.037	0.141
-340.348	-41.771	-0.168	0.085
-339.333	-200.000	0.020	0.174
-338.318	196.944	-0.206	-0.312
-337.304	-200.000	0.010	-0.077
-336.289	121.903	-0.134	-0.166
-335.275	800.000	0.059	-0.178
-334.260	-12.571	0.139	0.090
-333.245	-43.861	-0.164	-0.082
-332.231	83.792	0.265	0.286
-331.216	253.256	0.082	0.138
-330.202	286.813	0.031	-0.055
-329.187	800.000	0.125	-0.483
-328.172	478.729	-0.085	-0.191
-327.158	-200.000	0.016	-0.141
-326.143	3.406	0.275	0.199
-325.129	800.000	-0.025	0.107
-324.114	22.061	0.248	-0.200
-323.099	68.629	-0.038	0.038
-322.085	-155.959	0.202	-0.013
-321.070	-147.238	0.329	0.028
-320.056	-63.425	-0.336	-0.137
-319.041	-200.000	-0.024	-0.138
-318.026	-74.145	0.158	-0.057
-317.012	-200.000	-0.001	-0.023
-315.997	-10.515	-0.223	0.146
-314.983	317.789	0.126	-0.237
-313.968	45.614	0.164	0.150
-312.953	-200.000	0.022	-0.179
-311.939	359.982	0.082	0.163
-310.924	-27.693	0.345	-0.198
-309.910	301.627	-0.173	-0.317
-308.895	-62.278	0.086	0.035
-307.880	242.489	0.156	0.258
-306.866	-60.881	-0.177	0.074
-305.851	50.741	-0.121	0.114
-304.837	800.000	-0.020	0.065
-303.822	-95.657	-0.261	-0.069
-302.807	-78.042	0.224	-0.077
-301.793	86.262	0.143	-0.156
-300.778	-200.000	-0.019	0.152
-299.764	386.551	0.101	-0.207
-298.749	450.674	-0.119	0.260
-297.735	-200.000	-0.045	0.330
-296.720	-36.276	0.242	0.129
-295.705	800.000	0.027	0.078
-294.691	-115.786	0.252	-0.047
-293.676	-200.000	-0.009	0.227
-292.662	-129.741	-0.350	-0.048
-291.647	-37.447	0.325	0.172
-290.632	35.691	-0.134	0.117
-289.618	-103.170	0.271	0.063
-288.603	-200.000	0.056	-0.420
-287.589	-102.073	-0.107	0.026
-286.574	214.405	0.108	-0.170
-285.559	504.650	-0.115	-0.263
-284.545	800.000	0.068	-0.218
-283.530	-197.157	-0.146	0.001
-282.516	63.477	-0.085	-0.085
-281.501	-40.608	0.165	-0.085
-280.486	260.464	-0.117	-0.201
-279.472	-200.000	0.088	-0.395
-278.457	698.157	-0.043	-0.111
-277.443	-121.284	-0.029	0.005
-276.428	448.939	-0.079	0.173
-275.413	-146.054	-0.262	0.023
-274.399	-50.844	-0.101	0.047
-273.384	-200.000	0.164	0.000
-272.370	-200.000	-0.036	0.478
-271.355	-200.000	0.031	0.476
-270.340	157.890	-0.217	-0.297
-269.326	104.425	0.126	0.146
-268.311	-109.159	0.598	0.126
-267.297	-200.000	-0.016	0.244
-266.282	-123.724	0.088	0.014
-265.267	-200.000	0.046	-0.228
-264.253	32.480	-0.183	0.157
-263.238	800.000	0.052	0.168
-262.224	329.975	0.153	0.292
-261.209	-76.273	0.143	0.050
-260.195	-115.757	-0.123	-0.023
-259.180	17.949	0.167	-0.132
-258.165	800.000	0.092	0.313
-257.151	-200.000	0.007	0.404
-256.136	-175.447	-0.221	0.006
-255.122	-27.397	-0.157	0.091
-254.107	10.123	0.184	-0.138
-253.092	3.057	-0.081	-0.058
-252.078	-57.293	0.277	0.120
-251.063	-1.414	-0.485	-0.338
-250.049	800.000	-0.055	-0.159
-249.034	171.852	0.250	-0.356
-248.019	-122.343	0.394	-0.063
-247.005	-132.626	0.056	-0.007
-245.990	31.469	-0.189	0.160
-244.976	-130.355	0.049	0.007
-243.961	-200.000	0.048	-0.325
-242.946	-112.436	-0.117	0.023
-241.932	-181.686	-0.092	-0.002
-240.917	-200.000	0.014	0.161
-239.903	800.000	0.069	0.238
-238.888	800.000	-0.091	-0.282
-237.873	-74.632	0.204	0.073
-236.859	-0.256	-0.295	0.207
-235.844	109.641	-0.270	0.319
-234.830	-6.595	0.269	0.181
-233.815	735.963	-0.089	0.235
-232.800	120.954	-0.137	0.168
-231.786	-59.957	-0.201	0.085
-230.771	-200.000	-0.012	0.092
-229.757	-200.000	0.041	0.184
-228.742	27.555	-0.395	0.329
-227.727	-200.000	-0.012	0.113
-226.713	800.000	0.012	-0.047
-225.698	44.832	0.223	-0.203
-224.684	265.763	0.122	-0.210
-223.669	-200.000	0.003	-0.029
-222.655	-37.344	0.055	0.029
-221.640	96.871	0.120	-0.136
-220.625	-200.000	0.015	0.092
-219.611	800.000	-0.090	0.258
-218.596	19.541	-0.302	-0.240
-217.582	800.000	-0.050	0.169
-216.567	-110.139	0.127	-0.026
-215.552	-5.231	0.274	-0.186
-214.538	-80.553	-0.248	0.082
-213.523	318.686	-0.049	-0.091
-212.509	-114.374	-0.183	0.035
-211.494	-200.000	-0.051	-0.316
-210.479	-95.017	-0.130	0.035
-209.465	-119.509	-0.113	-0.019
-208.450	-4.162	0.323	-0.221
-207.436	52.392	-0.124	0.116
-206.421	32.128	0.243	-0.207
-205.406	-79.330	-0.222	-0.074
-204.392	-40.143	-0.092	0.048
-203.377	-18.658	-0.230	0.141
-202.363	-6.042	0.132	0.089
-201.348	486.027	-0.147	0.329
-200.333	-158.010	0.303	-0.018
-199.319	-200.000	-0.001	0.321
-198.304	800.000	0.101	0.316
-197.290	800.000	-0.062	0.188
-196.275	136.190	-0.257	-0.331
-195.260	142.229	-0.130	-0.170
-194.246	190.791	-0.086	-0.127
-193.231	45.369	-0.101	-0.091
-192.217	-12.953	0.206	0.132
-191.202	47.281	-0.305	0.280
-190.187	-195.512	-0.128	0.001
-189.173	-200.000	-0.020	-0.225
-188.158	99.725	-0.062	-0.071
-187.144	27.024	0.058	0.048
-186.129	-96.366	-0.255	0.066
-185.114	116.306	0.124	0.150
-184.100	250.470	0.074	-0.124
-183.085	-137.716	0.191	-0.021
-182.071	138.503	0.050	0.065
-181.056	184.127	-0.087	-0.127
-180.042	252.003	0.082	0.137
-179.027	-107.433	0.214	-0.046
-178.012	-153.940	0.187	-0.013
-176.998	-200.000	0.011	0.142
-175.983	129.679	0.260	0.327
-174.969	-99.136	-0.150	-0.038
-173.954	-81.918	-0.173	0.056
-172.939	-3.264	-0.160	0.110
-171.925	-99.452	0.398	-0.099
-170.910	111.309	-0.051	-0.060
-169.896	800.000	0.014	-0.055
-168.881	222.637	0.113	0.179
-167.866	153.162	-0.096	0.129
-166.852	438.544	-0.076	0.163
-165.837	-27.606	0.310	0.177
-164.823	33.193	0.313	-0.267
-163.808	-122.723	0.029	0.005
-162.793	-118.561	-0.063	-0.011
-161.779	-57.576	-0.121	-0.052
-160.764	-84.833	-0.242	0.075
-159.750	31.817	0.243	-0.206
-158.735	-200.000	0.027	-0.116
-157.720	65.676	0.105	0.105
-156.706	261.154	-0.100	0.171
-155.691	-78.730	0.148	-0.050
-154.677	182.801	0.197	-0.287
-153.662	20.602	0.134	-0.106
-152.647	-200.000	0.025	0.204
-151.633	-17.764	0.179	0.111
-150.618	-200.000	-0.035	0.248
-149.604	-200.000	0.089	-0.446
-148.589	342.257	0.088	0.170
-147.574	800.000	0.081	0.276
-146.560	-31.328	0.321	-0.178
-145.545	-165.018	-0.375	-0.016
-144.531	-142.172	0.196	-0.019
-143.516	800.000	0.095	-0.273
-142.502	-200.000	-0.010	-0.361
-141.487	800.000	0.058	0.171
-140.472	-82.088	-0.079	-0.025
-139.458	-200.000	-0.060	-0.273
-138.443	549.695	-0.083	0.195
-137.429	54.165	-0.135	-0.128
-136.414	98.034	0.181	-0.205
-135.399	175.479	-0.045	-0.064
-134.385	-49.519	-0.220	0.103
-133.370	181.575	0.212	0.306
-132.356	252.992	-0.050	-0.084
-131.341	321.512	0.063	-0.119
-130.326	800.000	-0.048	0.162
-129.312	-53.442	0.102	-0.046
-128.297	-6.312	0.316	-0.212
-127.283	628.079	0.111	0.275
-126.268	-23.058	0.225	-0.134
-125.253	151.852	-0.153	0.205
-124.239	-146.916	0.386	0.033
-123.224	171.648	0.214	-0.302
-122.210	-200.000	0.014	-0.127
-121.195	-62.332	-0.135	-0.055
-120.180	-64.423	0.083	0.033
-119.166	-103.368	0.266	0.062
-118.151	120.271	0.117	-0.143
-117.137	256.816	0.117	0.197
-116.122	-120.157	0.397	0.067
-115.107	-81.182	-0.167	-0.054
-114.093	-177.130	-0.188	0.005
-113.078	-129.556	0.167	0.023
-112.064	52.908	-0.253	0.238
-111.049	336.953	0.145	-0.276
-110.034	6.559	0.111	-0.081
-109.020	-170.293	-0.248	-0.009
-108.005	219.761	0.069	0.109
-106.991	-200.000	0.057	0.453
-105.976	-93.323	0.343	-0.094
-104.962	325.240	0.072	0.135
-103.947	481.512	0.174	0.388
-102.932	63.495	-0.212	0.209
-101.918	-118.688	0.293	0.051
-100.903	-122.040	0.209	0.034
-99.889	2.381	-0.042	-0.030
-98.874	-20.930	0.214	-0.129
-97.859	36.887	-0.315	-0.274
-96.845	800.000	0.048	0.170
-95.830	-46.499	-0.180	0.087
-94.816	-200.000	0.009	0.094
-93.801	799.971	-0.076	0.205
-92.786	53.893	0.256	0.242
-91.772	84.229	0.227	-0.244
-90.757	-79.235	0.293	-0.098
-89.743	-200.000	0.014	-0.203
-88.728	-87.009	-0.114	-0.034
-87.713	-86.767	-0.036	-0.011
-86.699	406.654	0.115	0.239
-85.684	211.123	0.079	-0.122
-84.670	147.571	0.066	0.088
-83.655	280.580	0.065	0.114
-82.640	-113.049	0.128	-0.025
-81.626	-200.000	0.005	0.064
-80.611	102.294	0.143	0.164
-79.597	800.000	-0.039	-0.113
-78.582	300.457	-0.133	-0.241
-77.567	-200.000	0.001	0.031
-76.553	555.939	0.040	-0.094
-75.538	-173.920	-0.323	0.009
-74.524	76.712	0.168	-0.175
-73.509	501.555	0.069	-0.157
-72.494	204.398	0.051	0.077
-71.480	-60.795	-0.206	-0.086
-70.465	-20.858	-0.070	0.042
-69.451	186.452	0.055	0.080
-68.436	-59.508	0.170	0.072
-67.422	800.000	-0.104	0.311
-66.407	-73.569	-0.231	0.083
-65.392	106.037	0.164	0.191
-64.378	452.241	0.137	-0.296
-63.363	-63.987	0.030	-0.012
-62.349	800.000	0.163	-0.493
-61.334	57.498	-0.923	-0.884
-60.319	45.588	0.550	0.498
-59.305	167.156	-0.477	-0.665
-58.290	300.935	0.665	1.203
-57.276	243.404	0.839	1.380
-56.261	-200.000	112.239	629.152
-55.246	517.014	1521.702	3490.250
-54.232	176.938	2694.153	3844.677
-53.217	111.263	2151.008	2542.502
-52.203	40.239	1597.957	1409.662
-51.188	32.348	1340.709	1135.287
-50.173	29.199	1301.372	1083.444
-49.159	53.652	1358.143	1278.399
-48.144	53.810	1372.683	1292.984
-47.130	32.118	1327.308	1122.382
-46.115	28.823	1309.398	1087.727
-45.100	28.622	1304.677	1082.580
-44.086	28.609	1301.703	1079.992
-43.071	28.556	1299.590	1077.885
-42.057	28.469	1297.773	1075.822
-41.042	28.600	1295.670	1074.805
-40.027	28.474	1294.982	1073.453
-39.013	28.570	1292.563	1071.971
-37.998	28.515	1290.841	1070.178
-36.984	28.578	1289.295	1069.222
-35.969	28.646	1287.005	1067.675
-34.954	28.467	1286.090	1065.829
-33.940	28.585	1284.889	1065.481
-32.925	28.733	1283.047	1064.770
-31.911	28.668	1281.991	1063.470
-30.896	28.868	1279.780	1062.751
-29.881	28.713	1278.999	1061.163
-28.867	28.813	1277.305	1060.294
-27.852	28.743	1275.971	1058.741
-26.838	28.829	1274.829	1058.251
-25.823	28.740	1273.647	1056.714
-24.809	28.668	1272.102	1054.976
-23.794	28.757	1270.428	1054.058
-22.779	28.699	1269.285	1052.732
-21.765	28.680	1268.095	1051.599
-20.750	28.686	1266.637	1050.379
-19.736	28.703	1265.275	1049.308
-18.721	28.619	1264.301	1047.978
-17.706	28.597	1262.921	1046.668
-16.692	28.526	1262.217	1045.635
-15.677	28.588	1261.044	1044.976
-14.663	28.612	1260.295	1044.448
-13.648	28.564	1259.063	1043.115
-12.633	28.707	1257.511	1042.600
-11.619	28.738	1256.759	1042.110
-10.604	28.531	1256.444	1040.633
-9.590	28.569	1255.910	1040.366
-8.575	28.563	1254.469	1039.096
-7.560	28.591	1253.495	1038.410
-6.546	28.535	1252.837	1037.502
-5.531	28.613	1251.552	1036.839
-4.517	28.570	1251.278	1036.329
-3.502	28.482	1250.634	1035.256
-2.487	28.508	1249.477	1034.403
-1.473	28.571	1244.847	1030.887
-0.458	26.871	1229.963	1009.071
0.556	24.861	1212.871	970.895
1.571	21.056	1217.646	953.869
2.586	20.192	1232.394	960.551
3.600	19.781	1220.998	949.328
4.615	15.205	1149.719	870.120
5.629	7.466	1077.230	777.404
6.644	4.073	1058.646	747.569
7.659	3.794	1055.722	744.094
8.673	3.638	1054.731	742.582
9.688	3.566	1053.674	741.424
10.702	3.967	1051.086	741.459
11.717	8.969	1058.361	770.606
12.731	17.289	1070.143	819.377
13.746	22.114	1076.242	847.306
14.761	23.047	1076.776	852.147
15.775	22.418	1075.128	847.742
16.790	21.625	1073.537	842.599
17.804	21.166	1071.812	838.964
18.819	20.910	1071.586	837.485
19.834	20.866	1071.088	836.809
20.848	20.989	1070.336	836.737
21.863	20.883	1069.410	835.431
22.877	20.610	1068.688	833.486
23.892	20.536	1068.283	832.738
24.907	20.459	1067.568	831.741
25.921	20.485	1066.019	830.587
26.936	20.349	1064.659	828.802
27.950	20.285	1063.940	827.862
28.965	20.538	1062.268	827.697
29.980	20.751	1060.922	827.585
30.994	20.932	1059.841	827.531
32.009	20.817	1058.914	826.186
33.023	20.864	1057.885	825.532
34.038	20.676	1057.038	823.908
35.053	20.580	1056.025	822.590
36.067	20.558	1055.133	821.719
37.082	20.590	1054.112	821.005
38.096	20.609	1054.091	821.003
39.111	20.649	1053.058	820.318
40.126	20.495	1051.761	818.507
41.140	20.197	1049.957	815.629
42.155	19.948	1048.812	813.499
43.169	19.928	1047.447	812.273
44.184	19.917	1047.185	811.950
45.199	19.902	1046.337	811.149
46.213	20.186	1045.112	811.457
47.228	20.540	1044.649	812.680
48.242	20.592	1043.855	812.232
49.257	20.541	1042.849	811.142
50.271	20.639	1042.693	811.403
51.286	20.731	1041.751	811.029
52.301	20.641	1040.636	809.669
53.315	20.553	1039.159	808.040
54.330	20.367	1038.544	806.626
55.344	20.277	1037.259	805.140
56.359	20.272	1036.716	804.623
57.374	20.212	1035.517	803.342
58.388	19.945	1034.706	801.408
59.403	19.958	1034.214	801.016
60.417	19.989	1033.612	800.621
61.432	19.780	1033.082	799.173
62.447	19.839	1032.145	798.651
63.461	19.907	1030.811	797.864
64.476	19.686	1029.832	796.015
65.490	19.737	1028.879	795.444
66.505	19.744	1028.603	795.194
67.520	19.790	1028.130	794.968
68.534	19.672	1027.076	793.542
69.549	19.615	1026.432	792.711
70.563	19.445	1025.767	791.348
71.578	19.483	1024.430	790.418
72.593	19.333	1023.844	789.211
73.607	19.185	1022.835	787.685
74.622	19.203	1022.830	787.694
75.636	19.451	1021.721	787.903
76.651	19.411	1021.178	787.235
77.666	19.487	1020.311	786.843
78.680	19.561	1019.674	786.618
79.695	19.576	1019.013	786.106
80.709	19.733	1019.348	787.009
81.724	19.898	1018.657	787.158
82.739	20.037	1017.760	787.025
83.753	20.350	1017.682	788.321
84.768	20.791	1017.196	789.872
85.782	21.034	1016.419	790.302
86.797	20.972	1015.409	789.165
87.812	20.723	1014.125	786.974
88.826	20.689	1013.300	786.109
89.841	20.842	1012.595	786.181
90.855	20.892	1012.066	785.926
91.870	20.923	1011.314	785.412
92.884	20.798	1010.258	783.963
93.899	20.859	1009.121	783.284
94.914	20.930	1008.318	782.911
95.928	20.908	1007.319	781.970
96.943	20.750	1006.093	780.238
97.957	20.622	1005.060	778.796
98.972	20.716	1004.664	778.838
99.987	20.791	1003.707	778.363
101.001	20.705	1002.641	777.086
102.016	20.702	1001.554	776.159
103.030	20.858	1000.844	776.237
104.045	20.658	1000.808	775.250
105.060	20.547	999.353	773.559
106.074	20.285	998.012	771.287
107.089	20.058	996.570	769.100
108.103	19.862	995.531	767.360
109.118	19.752	994.546	766.044
110.133	19.610	993.577	764.603
111.147	19.541	992.860	763.676
112.162	19.724	991.876	763.661
113.176	19.793	991.698	763.761
114.191	19.983	990.981	763.981
115.206	19.902	990.162	762.922
116.220	19.830	989.284	761.862
117.235	19.739	988.551	760.830
118.249	19.705	987.411	759.736
119.264	19.530	986.321	758.064
120.279	19.556	985.622	757.571
121.293	19.473	984.884	756.574
122.308	19.378	984.007	755.418
123.322	19.302	982.638	753.966
124.337	19.291	981.538	753.006
125.352	19.337	980.392	752.264
126.366	19.286	979.607	751.374
127.381	19.447	978.820	751.403
128.395	19.450	977.696	750.485
129.410	19.552	976.760	750.143
130.424	19.649	976.471	750.278
131.439	19.866	975.875	750.694
132.454	19.937	975.066	750.313
133.468	19.748	974.419	748.933
134.483	19.873	973.419	748.638
135.497	19.913	972.391	747.955
136.512	19.994	971.730	747.730
137.527	19.895	971.527	747.079
138.541	20.067	970.220	746.750
139.556	20.079	969.628	746.280
140.570	20.200	969.475	746.618
141.585	20.487	969.024	747.437
142.600	20.652	967.808	747.141
143.614	20.717	966.894	746.650
144.629	20.745	966.451	746.361
145.643	20.609	965.675	745.113
146.658	20.450	963.634	742.793
147.673	20.178	962.848	740.957
148.687	19.988	961.975	739.410
149.702	19.926	960.568	738.001
150.716	19.970	960.000	737.685
151.731	20.033	958.932	737.068
152.746	20.039	959.000	737.080
153.760	20.192	958.287	737.118
154.775	20.405	957.480	737.334
155.789	20.265	957.026	736.325
156.804	20.271	956.533	735.906
157.819	20.642	955.279	736.450
158.833	20.627	955.369	736.390
159.848	20.896	954.458	736.761
160.862	20.560	953.235	734.331
161.877	20.269	951.565	731.751
162.892	19.950	950.151	729.257
163.906	19.892	949.087	728.131
164.921	19.923	948.529	727.772
165.935	20.054	947.962	727.822
166.950	20.141	947.129	727.481
167.964	20.229	946.061	726.965
168.979	20.066	945.069	725.457
169.994	20.142	944.039	724.920
171.008	20.276	943.476	724.982
172.023	20.552	943.128	725.805
173.037	20.662	942.790	725.940
174.052	20.354	941.847	723.866
175.067	19.915	940.939	721.273
176.081	19.751	939.819	719.668
177.096	19.746	939.460	719.308
178.110	19.839	938.837	719.157
179.125	19.879	938.243	718.802
180.140	20.211	937.964	719.904
181.154	20.419	937.972	720.712
182.169	20.376	937.730	720.281
183.183	20.514	936.917	720.167
184.198	20.508	935.974	719.351
185.213	20.385	935.389	718.328
186.227	20.538	934.926	718.544
187.242	20.651	934.159	718.356
188.256	20.777	933.580	718.367
189.271	20.701	933.266	717.751
190.286	20.412	931.405	715.067
191.300	19.949	930.268	712.225
192.315	19.677	929.490	710.450
193.329	19.861	929.311	711.006
194.344	19.987	928.632	710.939
195.359	20.097	928.375	711.131
196.373	20.261	927.969	711.431
197.388	20.484	927.663	712.047
198.402	20.712	927.487	712.781
199.417	20.845	927.199	713.040
200.432	21.218	925.962	713.552
201.446	21.287	925.830	713.670
202.461	21.247	925.475	713.169
203.475	21.077	924.465	711.634
204.490	20.775	923.487	709.589
205.504	20.538	922.287	707.639
206.519	20.508	922.169	707.365
207.534	20.523	920.935	706.414
208.548	20.584	920.828	706.517
209.563	20.583	919.816	705.676
210.577	20.628	919.333	705.424
211.592	20.906	919.222	706.403
212.607	21.027	918.680	706.415
213.621	20.825	917.323	704.493
214.636	20.989	916.553	704.500
215.650	20.896	915.837	703.512
216.665	20.980	915.918	703.850
217.680	21.061	914.971	703.388
218.694	21.192	914.538	703.523
219.709	21.113	913.297	702.187
220.723	20.846	913.146	700.936
221.738	20.889	912.000	700.167
222.753	20.944	911.591	700.009
223.767	20.989	911.263	699.878
224.782	21.103	911.039	700.100
225.796	21.284	910.339	700.227
226.811	21.163	909.492	699.027
227.826	20.899	908.348	697.032
228.840	20.706	907.823	695.795
229.855	20.663	907.104	695.013
230.869	20.628	906.129	694.063
231.884	20.695	905.481	693.774
232.899	20.545	904.611	692.448
233.913	20.386	903.942	691.242
234.928	20.245	903.482	690.267
235.942	20.202	902.679	689.420
236.957	20.331	902.502	689.736
237.972	20.320	902.178	689.385
238.986	20.389	900.825	688.563
240.001	20.343	900.492	688.068
241.015	20.453	899.775	687.894
242.030	20.555	899.860	688.301
243.045	20.742	899.150	688.437
244.059	20.588	898.970	687.628
245.074	20.866	897.810	687.777
246.088	20.811	897.820	687.509
247.103	21.050	897.169	687.892
248.117	21.267	897.041	688.589
249.132	21.758	896.998	690.430
250.147	22.055	896.518	691.167
251.161	22.132	895.902	690.932
252.176	21.952	895.247	689.662
253.190	22.139	894.505	689.760
254.205	22.174	894.128	689.547
255.220	22.057	893.380	688.451
256.234	21.865	892.824	687.211
257.249	21.978	891.714	686.736
258.263	21.951	890.796	685.864
259.278	21.817	890.599	685.126
260.293	21.899	890.709	685.471
261.307	22.113	890.118	685.790
262.322	22.174	888.884	685.017
263.336	22.082	888.365	684.199
264.351	21.979	887.765	683.276
265.366	22.134	887.182	683.369
266.380	22.047	886.380	682.352
267.395	21.790	885.934	680.949
268.409	21.795	884.817	680.053
269.424	21.937	884.044	679.948
270.439	21.624	883.517	678.268
271.453	21.653	882.498	677.541
272.468	21.551	881.811	676.557
273.482	21.578	881.465	676.338
274.497	21.604	881.045	676.056
275.512	21.426	880.490	674.882
276.526	21.655	879.826	675.197
277.541	21.774	879.629	675.445
278.555	22.100	879.309	676.395
279.570	22.207	878.742	676.310
280.585	22.036	878.014	675.035
281.599	21.915	876.647	673.459
282.614	21.697	875.837	671.942
283.628	21.692	875.374	671.505
284.643	21.647	875.086	671.054
285.657	21.625	874.022	670.095
286.672	21.759	873.523	670.164
287.687	21.799	873.255	670.053
288.701	21.834	872.524	669.565
289.716	21.780	871.769	668.723
290.730	21.855	871.342	668.622
291.745	21.836	870.753	668.035
292.760	22.119	870.259	668.676
293.774	22.340	869.778	669.089
294.789	22.201	868.970	667.878
295.803	21.847	868.184	665.871
296.818	21.868	867.352	665.253
297.833	21.787	866.856	664.507
298.847	21.767	866.443	664.055
299.862	21.861	865.922	663.954
300.876	22.259	865.455	665.043
301.891	22.331	864.935	664.859
302.906	22.380	864.725	664.820
303.920	22.593	864.446	665.352
304.935	22.701	863.814	665.216
305.949	22.460	862.770	663.444
306.964	22.240	862.222	662.136
307.979	22.157	861.813	661.452
308.993	22.315	861.414	661.681
310.008	22.398	860.583	661.293
311.022	22.223	859.600	659.825
312.037	22.053	858.646	658.397
313.052	21.781	858.158	656.944
314.066	21.622	857.954	656.134
315.081	21.573	856.912	655.099
316.095	21.737	856.039	654.985
317.110	21.674	855.686	654.420
318.125	21.593	855.736	654.100
319.139	21.423	855.250	653.034
320.154	21.785	854.191	653.517
321.168	21.701	854.090	653.068
322.183	21.783	853.375	652.770
323.197	21.791	853.312	652.694
324.212	21.812	852.567	652.146
325.227	21.836	851.519	651.373
326.241	21.789	851.048	650.784
327.256	21.728	850.485	650.069
328.270	21.689	849.781	649.327
329.285	21.723	849.258	648.996
330.300	21.565	848.615	647.865
331.314	21.825	848.394	648.597
332.329	21.978	847.819	648.668
333.343	22.198	847.577	649.239
334.358	22.041	847.382	648.451
335.373	22.258	847.079	648.963
336.387	22.293	846.857	648.864
337.402	22.330	846.905	648.980
338.416	22.674	846.206	649.654
339.431	22.803	846.056	649.956
340.446	22.884	845.637	649.874
341.460	22.913	845.625	649.916
342.475	23.005	845.093	649.789
343.489	22.991	844.948	649.567
344.504	23.157	844.238	649.573
345.519	23.076	844.033	649.060
346.533	23.074	843.180	648.338
347.548	22.725	842.149	646.210
348.562	22.579	841.457	645.090
349.577	22.413	840.679	643.830
350.592	22.175	839.615	642.088
351.606	22.010	839.406	641.267
352.621	22.122	838.490	640.919
353.635	22.310	838.032	641.197
354.650	22.288	837.472	640.633
355.665	22.352	837.078	640.507
356.679	22.682	836.229	641.000
357.694	22.664	835.689	640.466
358.708	22.515	835.300	639.570
359.723	22.396	834.616	638.556
360.738	22.382	833.929	637.924
361.752	22.683	833.043	638.280
362.767	22.921	833.040	639.082
363.781	23.037	832.899	639.338
364.796	23.318	832.389	639.904
365.810	23.417	832.196	640.058
366.825	23.442	831.630	639.654
367.840	23.161	831.118	638.191
368.854	22.925	830.735	636.991
369.869	22.817	829.966	635.957
370.883	22.875	829.761	635.950
371.898	23.211	829.204	636.677
372.913	23.411	828.697	636.951
373.927	23.124	828.052	635.367
374.942	22.977	827.876	634.646
375.956	23.223	827.405	635.112
376.971	23.358	827.162	635.355
377.986	23.408	827.086	635.418
379.000	23.507	826.324	635.131
380.015	23.412	825.579	634.165
381.029	23.362	824.902	633.407
382.044	23.230	824.675	632.708
383.059	23.306	824.340	632.665
384.073	23.234	823.073	631.379
385.088	22.925	822.064	629.450
386.102	22.849	821.347	628.572
387.117	22.735	820.748	627.655
388.132	22.647	820.413	627.031
389.146	22.833	819.923	627.259
390.161	23.080	819.803	627.992
391.175	23.125	819.590	627.931
392.190	23.114	818.441	626.959
393.205	23.057	817.621	626.072
394.219	22.710	817.420	624.632
395.234	22.645	816.795	623.870
396.248	22.618	816.295	623.339
397.263	22.556	815.772	622.664
398.278	22.516	815.614	622.346
399.292	22.632	814.938	622.187
400.307	22.371	814.690	621.021
401.321	22.633	814.248	621.553
402.336	22.843	813.534	621.694
403.350	22.946	813.729	622.149
404.365	23.269	813.353	622.943
405.380	23.548	813.116	623.686
406.394	23.612	812.332	623.254
407.409	23.664	812.311	623.367
408.423	23.587	812.137	622.907
409.438	23.797	811.776	623.312
410.453	23.811	811.008	622.716
411.467	23.808	810.261	622.079
412.482	23.968	809.790	622.221
413.496	24.004	809.931	622.400
414.511	23.956	809.410	621.775
415.526	23.668	809.075	620.458
416.540	23.485	808.618	619.412
417.555	23.674	808.029	619.566
418.569	23.693	807.389	619.087
419.584	23.791	806.595	618.764
420.599	23.653	806.774	618.365
421.613	163.974	1371.851	1798.228
422.628	142.682	1454.151	1798.310
