DTS Sentinel unit serial number:	SN413079Multiplexer serial number:	ORYXHardware model number:	OX4-SRSoftware version number:	ORYX F/W v4.00 Oryx Data Collector v3.7.2.0data status	okinstallation	princeton_trtdifferential loss correction	single-endedforward channel	channel 1reverse channel	N/Adate	2019/09/15time	19:50:35forward acquisition time	60.00reverse acquisition time	0.00gamma	496.2192k internal	0.2310k external	0.2310temperature offset calibration	0.9956default loss term (dB/km)	0.3790temperature slope calibration	1.0000multiplexer offset coefficient	1.0000multiplexer slope coefficient	1.0000fibre end	0.00T internal ref (°C)	36.61T ext. ref 1 (°C)	7.48T ext. ref 2 (°C)	26.84length (m)	temperature (°C)	Stokes	anti-Stokes-747.200	94.095	0.065	0.075
-746.185	-1.381	-0.246	0.176
-745.171	-200.000	-0.006	-0.177
-744.156	-1.987	0.168	0.120
-743.142	800.000	-0.088	0.331
-742.127	40.122	0.107	0.098
-741.112	-69.537	0.091	0.035
-740.098	-63.155	-0.265	-0.111
-739.083	-53.032	0.183	0.085
-738.069	-200.000	0.026	0.214
-737.054	-100.998	-0.466	-0.116
-736.039	-153.028	-0.383	-0.027
-735.025	293.322	0.119	-0.221
-734.010	-33.329	-0.201	-0.113
-732.996	-125.429	-0.547	-0.085
-731.981	89.998	-0.209	-0.237
-730.966	340.236	-0.071	-0.140
-729.952	-144.533	-0.241	0.023
-728.937	-121.716	-0.378	0.063
-727.923	-200.000	-0.020	-0.197
-726.908	1.163	-0.124	0.090
-725.894	585.248	-0.202	-0.504
-724.879	-118.207	0.303	0.055
-723.864	-200.000	-0.026	0.118
-722.850	2.156	0.245	0.179
-721.835	-32.866	-0.104	0.059
-720.821	186.379	0.024	-0.037
-719.806	40.696	-0.248	0.227
-718.791	-200.000	0.009	0.195
-717.777	-78.711	0.184	0.064
-716.762	47.368	-0.217	-0.205
-715.748	-200.000	-0.031	-0.172
-714.733	-13.998	-0.164	-0.107
-713.718	-63.074	-0.343	0.144
-712.704	144.984	-0.201	-0.273
-711.689	119.886	-0.166	0.209
-710.675	-200.000	0.069	-0.361
-709.660	-200.000	0.000	0.019
-708.645	-75.247	-0.124	-0.045
-707.631	64.961	-0.154	-0.158
-706.616	-43.563	-0.463	-0.237
-705.602	-168.701	-0.253	0.010
-704.587	-20.437	-0.197	-0.123
-703.572	-200.000	-0.028	-0.346
-702.558	27.597	0.389	-0.332
-701.543	800.000	0.111	0.356
-700.529	311.708	-0.041	-0.078
-699.514	-32.365	-0.172	-0.097
-698.499	-200.000	0.045	-0.270
-697.485	596.452	0.056	-0.141
-696.470	-3.310	0.246	-0.173
-695.456	200.016	0.089	-0.139
-694.441	46.157	0.166	0.156
-693.426	-144.733	-0.048	-0.005
-692.412	-73.678	0.130	0.048
-691.397	-135.888	-0.250	-0.030
-690.383	-137.746	-0.185	0.021
-689.368	-58.002	0.053	-0.024
-688.354	27.808	-0.266	-0.227
-687.339	-200.000	0.299	-0.001
-686.324	-200.000	-0.026	-0.265
-685.310	192.198	0.081	0.124
-684.295	-129.104	-0.055	0.008
-683.281	-200.000	0.019	-0.140
-682.266	68.607	0.122	-0.127
-681.251	800.000	0.117	0.334
-680.237	-23.215	-0.275	0.167
-679.222	-46.790	0.174	0.086
-678.208	-200.000	-0.008	-0.070
-677.193	-200.000	-0.016	-0.467
-676.178	-200.000	0.041	-0.272
-675.164	-122.979	-0.306	0.050
-674.149	-200.000	-0.001	-0.069
-673.135	30.927	-0.054	0.047
-672.120	-200.000	0.011	0.074
-671.105	800.000	0.031	0.096
-670.091	800.000	-0.089	0.293
-669.076	-200.000	-0.015	0.188
-668.062	2.310	0.112	0.082
-667.047	-18.835	0.201	-0.127
-666.032	-122.895	-0.319	-0.052
-665.018	-57.977	0.074	-0.033
-664.003	221.872	0.058	0.094
-662.989	76.356	-0.244	0.262
-661.974	-62.396	0.392	0.165
-660.959	166.816	-0.136	-0.195
-659.945	-129.685	0.380	0.053
-658.930	795.684	-0.099	0.276
-657.916	31.860	0.161	-0.141
-656.901	-4.586	-0.293	0.205
-655.886	58.457	0.101	-0.100
-654.872	-200.000	0.030	0.146
-653.857	6.064	0.118	0.088
-652.843	-123.527	0.089	-0.014
-651.828	800.000	-0.029	0.091
-650.814	-108.134	-0.436	-0.096
-649.799	-156.573	-0.128	-0.008
-648.784	355.957	0.049	0.098
-647.770	125.096	-0.197	-0.251
-646.755	220.202	0.103	-0.167
-645.741	398.556	-0.118	-0.251
-644.726	162.901	0.086	-0.122
-643.711	-200.000	-0.229	0.001
-642.697	221.410	-0.092	-0.149
-641.682	-122.709	-0.450	-0.074
-640.668	-200.000	-0.033	-0.172
-639.653	800.000	0.050	0.184
-638.638	148.314	0.125	-0.171
-637.624	706.581	-0.148	-0.395
-636.609	800.000	0.030	-0.109
-635.595	118.325	0.126	-0.157
-634.580	-200.000	-0.069	-0.533
-633.565	-9.933	-0.343	0.231
-632.551	-200.000	-0.027	-0.159
-631.536	-200.000	0.017	0.126
-630.522	665.130	-0.124	0.324
-629.507	-55.916	-0.196	-0.088
-628.492	309.438	-0.053	0.101
-627.478	-29.954	-0.111	0.064
-626.463	547.868	0.071	0.171
-625.449	-56.853	-0.110	-0.049
-624.434	800.000	-0.087	0.323
-623.419	113.016	0.111	-0.136
-622.405	-107.296	0.135	0.030
-621.390	705.643	-0.012	-0.032
-620.376	-31.932	-0.097	0.055
-619.361	97.949	-0.314	-0.365
-618.346	-100.823	-0.244	-0.061
-617.332	201.358	-0.053	0.082
-616.317	408.152	-0.113	-0.241
-615.303	337.935	-0.086	0.169
-614.288	6.951	0.122	-0.092
-613.273	88.830	0.076	-0.085
-612.259	-33.657	-0.373	-0.208
-611.244	-146.988	0.244	0.021
-610.230	40.696	0.299	0.272
-609.215	-200.000	-0.044	-0.328
-608.201	323.359	0.037	0.071
-607.186	427.980	0.096	0.208
-606.171	-132.641	0.365	0.047
-605.157	-123.595	0.148	-0.024
-604.142	146.514	0.055	-0.074
-603.128	60.427	0.202	0.202
-602.113	-94.535	0.047	0.013
-601.098	800.000	-0.048	-0.176
-600.084	634.490	0.110	-0.282
-599.069	-37.614	-0.203	0.109
-598.055	-200.000	-0.086	0.602
-597.040	-200.000	0.056	0.303
-596.025	-200.000	0.009	-0.158
-595.011	-155.208	0.341	-0.022
-593.996	138.301	-0.302	0.400
-592.982	-127.442	-0.107	0.016
-591.967	-198.424	-0.139	-0.001
-590.952	-57.609	0.144	0.064
-589.938	268.862	-0.108	0.192
-588.923	-59.888	0.167	0.072
-587.909	349.448	-0.056	-0.112
-586.894	109.910	0.129	0.156
-585.879	62.142	-0.068	0.068
-584.865	-178.784	-0.320	0.007
-583.850	96.381	-0.080	0.092
-582.836	-13.358	0.265	0.173
-581.821	-73.562	0.150	-0.055
-580.806	-121.659	-0.009	0.002
-579.792	-200.000	-0.009	-0.351
-578.777	-71.325	-0.099	-0.038
-577.763	-67.935	-0.227	0.090
-576.748	2.724	-0.179	0.131
-575.733	800.000	0.083	0.299
-574.719	-200.000	0.027	0.134
-573.704	-171.823	-0.478	-0.016
-572.690	-175.029	-0.362	0.010
-571.675	559.351	0.073	-0.179
-570.661	-142.737	-0.224	-0.022
-569.646	83.124	0.257	-0.282
-568.631	425.875	0.082	0.178
-567.617	183.168	0.233	0.347
-566.602	516.556	-0.019	0.044
-565.588	125.099	-0.150	-0.191
-564.573	-63.493	0.152	-0.063
-563.558	-129.771	-0.224	-0.031
-562.544	607.571	0.055	-0.138
-561.529	800.000	-0.107	0.428
-560.515	201.698	-0.207	0.322
-559.500	-13.428	-0.210	-0.137
-558.485	244.675	0.074	-0.126
-557.471	-116.619	0.159	0.029
-556.456	-39.114	0.182	-0.096
-555.442	70.168	-0.215	0.223
-554.427	-27.902	-0.259	0.151
-553.412	152.207	0.093	0.128
-552.398	356.538	-0.127	0.255
-551.383	87.073	-0.140	0.156
-550.369	-41.845	0.262	0.135
-549.354	800.000	-0.081	0.313
-548.339	-200.000	0.044	0.280
-547.325	139.806	-0.095	-0.126
-546.310	-34.431	-0.203	0.112
-545.296	-39.082	0.103	-0.054
-544.281	-35.337	0.064	0.035
-543.266	800.000	-0.039	0.111
-542.252	-200.000	-0.032	-0.146
-541.237	-90.970	-0.246	0.071
-540.223	800.000	-0.019	-0.056
-539.208	-19.004	-0.301	-0.188
-538.193	-110.006	0.127	0.027
-537.179	192.689	-0.173	-0.263
-536.164	-108.486	-0.277	-0.060
-535.150	164.830	0.189	-0.269
-534.135	-200.000	0.017	-0.084
-533.121	178.873	-0.052	0.076
-532.106	-62.743	-0.070	-0.029
-531.091	-200.000	-0.023	0.133
-530.077	-130.940	-0.521	-0.070
-529.062	-33.329	0.237	0.132
-528.048	44.068	0.016	0.015
-527.033	-200.000	-0.022	-0.137
-526.018	435.108	0.081	0.177
-525.004	-83.158	-0.038	-0.012
-523.989	-19.025	-0.287	-0.180
-522.975	-194.135	0.223	-0.002
-521.960	-64.215	-0.366	0.150
-520.945	-200.000	0.029	0.280
-519.931	-176.204	-0.127	0.003
-518.916	349.355	-0.100	0.198
-517.902	338.269	-0.199	-0.390
-516.887	795.123	0.123	-0.340
-515.872	-200.000	-0.045	0.334
-514.858	227.243	0.223	0.365
-513.843	47.016	0.190	-0.177
-512.829	349.539	-0.055	-0.109
-511.814	-19.264	0.284	-0.177
-510.799	222.822	-0.056	-0.091
-509.785	-78.882	-0.163	0.056
-508.770	800.000	-0.117	-0.386
-507.756	16.073	0.252	0.199
-506.741	-126.195	0.317	-0.048
-505.726	-79.654	0.200	-0.068
-504.712	-200.000	0.006	-0.034
-503.697	47.619	0.259	0.243
-502.683	121.390	0.127	-0.159
-501.668	-127.986	0.484	0.070
-500.653	-168.307	-0.415	0.016
-499.639	-200.000	0.056	0.262
-498.624	-35.008	-0.204	0.112
-497.610	262.430	-0.082	-0.143
-496.595	48.643	0.067	-0.064
-495.581	83.103	0.224	0.245
-494.566	-200.000	0.009	-0.258
-493.551	800.000	-0.068	-0.287
-492.537	-90.766	-0.088	-0.026
-491.522	-74.399	0.099	-0.036
-490.508	-111.867	-0.173	0.035
-489.493	2.123	-0.086	0.062
-488.478	-200.000	-0.012	-0.159
-487.464	61.844	-0.084	0.084
-486.449	-200.000	-0.012	0.195
-485.435	-145.004	-0.193	-0.018
-484.420	-13.047	0.270	0.177
-483.405	-24.095	0.371	-0.223
-482.391	132.105	-0.186	0.241
-481.376	-200.000	-0.016	-0.308
-480.362	-71.332	-0.392	-0.148
-479.347	-132.151	-0.172	0.022
-478.332	-32.411	0.299	0.167
-477.318	-72.926	-0.116	0.043
-476.303	-118.351	-0.031	0.006
-475.289	-129.550	-0.184	-0.026
-474.274	-16.361	-0.189	-0.121
-473.259	-200.000	-0.021	-0.240
-472.245	-176.043	-0.204	0.005
-471.230	615.111	0.144	0.362
-470.216	-200.000	0.024	-0.127
-469.201	157.140	-0.031	-0.044
-468.186	-200.000	0.030	0.465
-467.172	264.180	0.058	0.101
-466.157	300.441	0.145	0.268
-465.143	-143.412	-0.398	0.038
-464.128	-24.185	0.142	0.085
-463.113	-53.745	-0.249	0.114
-462.099	-200.000	-0.004	0.376
-461.084	-200.000	0.039	-0.518
-460.070	-94.634	-0.191	0.052
-459.055	-200.000	0.002	-0.247
-458.040	24.142	-0.109	-0.090
-457.026	-45.575	0.328	0.163
-456.011	-117.981	0.360	0.065
-454.997	-42.804	0.348	0.178
-453.982	800.000	-0.084	0.271
-452.968	63.223	0.125	-0.126
-451.953	-66.580	-0.182	0.072
-450.938	-151.186	0.157	0.012
-449.924	153.344	-0.107	-0.147
-448.909	180.229	-0.149	-0.219
-447.895	-153.657	-0.378	-0.026
-446.880	-107.631	0.189	-0.041
-445.865	688.345	0.137	0.359
-444.851	-200.000	0.047	-0.259
-443.836	-200.000	-0.012	0.143
-442.822	-36.785	-0.283	-0.152
-441.807	-91.345	0.176	0.050
-440.792	-60.015	0.298	-0.128
-439.778	-73.708	0.366	0.134
-438.763	800.000	-0.017	0.061
-437.749	800.000	0.061	-0.266
-436.734	-103.047	-0.113	0.027
-435.719	-19.969	0.109	-0.068
-434.705	99.043	0.057	0.066
-433.690	-96.446	0.378	-0.100
-432.676	55.837	-0.147	0.143
-431.661	-200.000	-0.052	-0.530
-430.646	800.000	-0.044	-0.171
-429.632	-200.000	-0.010	-0.112
-428.617	-13.882	-0.377	-0.244
-427.603	43.874	-0.069	0.064
-426.588	-34.569	0.265	-0.146
-425.573	-19.471	0.230	-0.143
-424.559	315.099	-0.118	0.222
-423.544	367.225	-0.064	0.129
-422.530	52.864	-0.132	-0.127
-421.515	-159.343	0.099	0.006
-420.500	-139.084	0.214	-0.023
-419.486	-2.369	-0.167	0.118
-418.471	-200.000	-0.038	0.252
-417.457	86.976	-0.284	0.315
-416.442	-90.168	0.187	-0.054
-415.428	-148.068	-0.217	-0.018
-414.413	6.694	-0.130	0.097
-413.398	-200.000	0.043	-0.225
-412.384	-200.000	-0.023	0.104
-411.369	-55.984	0.165	0.074
-410.355	800.000	-0.051	-0.174
-409.340	-95.339	-0.060	0.016
-408.325	38.731	0.236	-0.211
-407.311	-68.007	-0.196	0.077
-406.296	-95.082	0.246	0.067
-405.282	289.368	-0.064	-0.116
-404.267	-119.819	-0.205	0.035
-403.252	350.142	-0.132	0.262
-402.238	-108.959	0.387	-0.083
-401.223	316.024	0.071	-0.135
-400.209	66.054	0.208	-0.212
-399.194	-32.986	-0.258	0.143
-398.179	-51.209	-0.061	-0.029
-397.165	43.950	-0.217	-0.199
-396.150	71.763	0.245	-0.255
-395.136	-102.889	0.220	0.052
-394.121	-8.799	-0.193	0.130
-393.106	-200.000	0.010	-0.092
-392.092	39.581	0.075	-0.068
-391.077	-200.000	-0.051	0.242
-390.063	201.524	-0.121	0.187
-389.048	19.591	0.214	0.173
-388.033	-200.000	-0.008	-0.207
-387.019	-26.445	-0.176	0.103
-386.004	88.177	0.204	-0.227
-384.990	-41.699	0.145	0.075
-383.975	-200.000	-0.011	0.277
-382.960	-33.742	0.199	0.110
-381.946	397.853	0.171	-0.357
-380.931	109.559	-0.201	-0.241
-379.917	-146.839	-0.339	-0.029
-378.902	-92.358	0.127	0.036
-377.888	800.000	-0.022	-0.075
-376.873	61.869	0.312	0.311
-375.858	-93.106	-0.222	0.062
-374.844	9.776	0.130	0.099
-373.829	-71.843	0.158	-0.059
-372.815	-179.220	-0.183	-0.004
-371.800	-172.542	-0.045	0.001
-370.785	800.000	-0.046	0.159
-369.771	34.023	-0.126	0.110
-368.756	-54.894	-0.266	-0.120
-367.742	-83.134	-0.108	0.035
-366.727	800.000	0.040	-0.174
-365.712	451.337	0.057	-0.125
-364.698	325.002	-0.089	-0.170
-363.683	49.647	-0.178	0.168
-362.669	739.795	0.099	0.266
-361.654	53.398	-0.053	-0.050
-360.639	800.000	0.077	-0.278
-359.625	80.813	-0.251	-0.271
-358.610	800.000	0.043	0.168
-357.596	-200.000	0.000	0.015
-356.581	800.000	0.067	-0.278
-355.566	163.181	0.158	0.221
-354.552	205.652	0.211	0.328
-353.537	-181.588	0.380	0.007
-352.523	-122.685	0.267	0.043
-351.508	-51.935	-0.058	0.027
-350.493	-200.000	-0.020	-0.245
-349.479	-137.760	0.186	-0.021
-348.464	-200.000	-0.101	-0.448
-347.450	21.248	-0.159	0.129
-346.435	-174.634	0.076	0.002
-345.420	-144.601	0.222	-0.021
-344.406	116.441	0.147	-0.180
-343.391	559.026	-0.073	-0.176
-342.377	-127.153	0.302	0.044
-341.362	-88.947	-0.477	0.141
-340.348	37.764	-0.081	-0.072
-339.333	-200.000	0.016	-0.493
-338.318	-41.649	-0.305	-0.157
-337.304	-162.945	-0.262	0.013
-336.289	-144.818	0.373	-0.034
-335.275	-200.000	-0.023	0.140
-334.260	-112.042	0.064	-0.013
-333.245	7.525	-0.375	-0.280
-332.231	-124.554	0.307	0.048
-331.216	-112.810	0.246	-0.049
-330.202	153.047	0.125	0.171
-329.187	-119.482	-0.086	0.015
-328.172	576.043	-0.043	0.105
-327.158	-14.067	0.312	-0.201
-326.143	-200.000	-0.014	-0.123
-325.129	-200.000	-0.042	-0.322
-324.114	-166.392	-0.249	-0.010
-323.099	536.431	-0.079	-0.186
-322.085	-200.000	-0.029	0.187
-321.070	395.591	0.135	-0.281
-320.056	-48.123	-0.323	-0.156
-319.041	-200.000	0.016	0.264
-318.026	-102.121	0.135	-0.032
-317.012	337.694	0.045	0.087
-315.997	-21.137	-0.106	-0.065
-314.983	43.611	0.104	0.095
-313.968	-33.232	-0.058	-0.032
-312.953	41.209	-0.233	-0.211
-311.939	217.574	-0.094	-0.150
-310.924	-2.822	0.112	-0.078
-309.910	-200.000	0.019	-0.086
-308.895	-46.595	-0.214	0.105
-307.880	-106.300	0.121	0.027
-306.866	195.752	-0.004	-0.007
-305.851	-200.000	0.026	0.176
-304.837	-155.354	0.287	-0.019
-303.822	-200.000	0.039	-0.477
-302.807	190.705	0.051	-0.077
-301.793	-33.950	-0.258	0.142
-300.778	235.459	0.075	-0.123
-299.764	-100.311	0.236	-0.058
-298.749	-200.000	0.040	0.344
-297.735	-113.587	-0.200	-0.039
-296.720	800.000	0.056	-0.157
-295.705	165.218	0.191	-0.269
-294.691	-200.000	-0.040	-0.182
-293.676	-106.042	0.401	-0.090
-292.662	-200.000	0.028	0.128
-291.647	476.320	0.038	-0.085
-290.632	-30.672	0.280	0.158
-289.618	178.969	-0.063	0.092
-288.603	-31.109	0.182	0.102
-287.589	-11.142	0.155	0.102
-286.574	800.000	-0.075	0.210
-285.559	-131.908	-0.231	0.030
-284.545	454.091	-0.048	-0.106
-283.530	-135.670	0.155	-0.018
-282.516	-91.326	-0.196	-0.056
-281.501	-200.000	-0.002	-0.049
-280.486	20.024	0.099	0.079
-279.472	-200.000	-0.020	-0.158
-278.457	148.841	0.197	0.266
-277.443	800.000	0.060	0.190
-276.428	-163.877	-0.128	-0.006
-275.413	-126.621	0.252	-0.037
-274.399	-200.000	-0.010	-0.139
-273.384	-47.819	0.246	-0.119
-272.370	-200.000	-0.041	0.355
-271.355	-41.323	0.095	-0.049
-270.340	800.000	0.064	0.267
-269.326	-200.000	-0.009	-0.242
-268.311	74.977	-0.291	0.305
-267.297	471.705	-0.139	0.311
-266.282	800.000	0.080	0.254
-265.267	-71.865	-0.230	-0.085
-264.253	79.176	0.016	-0.017
-263.238	-79.175	0.049	-0.017
-262.224	-5.982	0.159	0.108
-261.209	-93.842	0.052	0.014
-260.195	531.433	-0.056	-0.132
-259.180	-89.476	-0.244	-0.071
-258.165	-71.451	0.150	0.056
-257.151	-35.507	0.211	0.114
-256.136	252.149	0.119	-0.201
-255.122	-19.684	-0.136	-0.084
-254.107	-96.856	0.055	-0.014
-253.092	-71.698	-0.203	-0.076
-252.078	310.239	0.059	0.109
-251.063	800.000	-0.039	0.148
-250.049	49.277	0.225	0.211
-249.034	800.000	0.062	0.212
-248.019	365.548	-0.105	-0.210
-247.005	-200.000	-0.044	0.388
-245.990	-116.187	0.354	0.066
-244.976	93.755	0.162	-0.183
-243.961	-65.067	0.146	-0.059
-242.946	179.399	-0.314	0.458
-241.932	800.000	-0.021	0.068
-240.917	-156.994	0.118	-0.007
-239.903	-185.060	-0.244	0.004
-238.888	4.745	0.176	-0.129
-237.873	-183.594	-0.055	-0.001
-236.859	-200.000	-0.016	-0.177
-235.844	-200.000	0.022	-0.195
-234.830	37.222	0.093	-0.082
-233.815	-38.003	0.196	-0.103
-232.800	-25.975	0.263	-0.154
-231.786	-200.000	-0.017	-0.084
-230.771	-165.785	0.084	-0.004
-229.757	-84.866	-0.205	-0.064
-228.742	-200.000	-0.024	0.193
-227.727	-36.891	-0.226	-0.120
-226.713	800.000	-0.072	0.221
-225.698	-133.082	0.217	-0.027
-224.684	433.439	-0.013	-0.029
-223.669	-200.000	-0.003	0.213
-222.655	-28.100	0.107	-0.061
-221.640	-183.223	-0.201	0.004
-220.625	-171.949	0.576	0.019
-219.611	-134.903	0.260	0.031
-218.596	208.942	-0.138	0.215
-217.582	-143.545	-0.223	0.021
-216.567	800.000	0.087	-0.269
-215.552	-200.000	-0.010	0.219
-214.538	-93.462	-0.308	-0.085
-213.523	-17.419	-0.099	-0.062
-212.509	800.000	-0.135	-0.447
-211.494	359.615	-0.046	-0.092
-210.479	149.712	-0.236	0.319
-209.465	627.306	-0.060	0.151
-208.450	-131.988	0.239	-0.031
-207.436	229.511	-0.130	0.210
-206.421	481.797	-0.108	-0.243
-205.406	-106.876	-0.188	-0.041
-204.392	-171.808	0.335	-0.011
-203.377	214.546	0.122	0.192
-202.363	59.056	-0.122	0.119
-201.348	488.725	-0.009	0.020
-200.333	-152.494	-0.111	-0.008
-199.319	-200.000	-0.005	-0.202
-198.304	-89.265	0.177	-0.052
-197.290	-200.000	0.056	0.249
-196.275	11.692	0.280	-0.213
-195.260	-127.058	-0.082	-0.012
-194.246	-86.344	0.324	-0.099
-193.231	-200.000	0.007	0.094
-192.217	261.999	0.092	0.159
-191.202	-200.000	-0.045	0.211
-190.187	-75.677	0.192	-0.068
-189.173	-144.404	0.334	0.031
-188.158	-200.000	-0.003	-0.273
-187.144	-58.810	0.093	-0.040
-186.129	745.062	-0.104	0.279
-185.114	46.652	-0.094	0.087
-184.100	-60.857	-0.224	0.094
-183.085	349.873	-0.112	0.219
-182.071	-52.554	-0.251	-0.115
-181.056	534.299	0.098	0.230
-180.042	-4.442	-0.456	0.313
-179.027	-74.954	0.105	-0.037
-178.012	800.000	0.120	-0.381
-176.998	22.074	0.098	-0.079
-175.983	-200.000	-0.014	-0.114
-174.969	360.321	0.057	0.113
-173.954	-200.000	0.032	0.232
-172.939	178.142	0.059	-0.086
-171.925	-200.000	0.031	0.184
-170.910	-200.000	0.032	-0.181
-169.896	-82.249	0.297	-0.096
-168.881	66.024	0.250	-0.252
-167.866	-67.308	-0.168	0.066
-166.852	21.931	0.208	0.168
-165.837	135.017	0.096	-0.123
-164.823	800.000	-0.039	0.151
-163.808	-51.417	0.069	0.032
-162.793	-200.000	0.031	0.150
-161.779	-85.790	0.188	-0.058
-160.764	42.694	-0.053	-0.048
-159.750	46.310	-0.135	0.124
-158.735	28.109	0.173	-0.145
-157.720	22.547	-0.111	0.090
-156.706	200.755	0.034	0.052
-155.691	-51.696	-0.378	-0.175
-154.677	-56.231	0.366	-0.162
-153.662	469.331	-0.061	-0.135
-152.647	253.436	-0.166	0.281
-151.633	113.188	0.144	-0.173
-150.618	-125.310	0.286	-0.043
-149.604	556.188	-0.142	0.340
-148.589	81.265	-0.338	0.363
-147.574	-95.371	0.292	-0.078
-146.560	-51.950	-0.094	-0.043
-145.545	-200.000	0.013	-0.351
-144.531	800.000	0.042	0.167
-143.516	13.223	0.152	-0.117
-142.502	100.869	-0.121	-0.139
-141.487	387.042	-0.103	-0.211
-140.472	721.756	-0.057	-0.150
-139.458	150.392	0.092	-0.124
-138.443	800.000	0.073	-0.202
-137.429	-200.000	-0.036	0.309
-136.414	-114.247	-0.132	0.025
-135.399	55.696	-0.197	-0.189
-134.385	-17.239	-0.332	-0.208
-133.370	-99.486	0.144	0.036
-132.356	800.000	-0.007	0.024
-131.341	-200.000	0.001	-0.224
-130.326	-87.746	0.254	-0.076
-129.312	-57.005	-0.236	0.103
-128.297	-130.472	-0.319	0.043
-127.283	136.937	-0.075	-0.097
-126.268	-200.000	-0.019	-0.236
-125.253	-128.455	-0.385	-0.054
-124.239	-148.646	-0.163	0.013
-123.224	-67.049	0.235	-0.092
-122.210	-200.000	0.045	-0.368
-121.195	214.839	-0.193	0.303
-120.180	-107.308	-0.094	0.020
-119.166	-149.445	0.188	0.015
-118.151	-166.543	0.196	0.008
-117.137	11.031	0.067	-0.051
-116.122	254.932	0.167	0.283
-115.107	123.038	0.075	0.093
-114.093	800.000	-0.065	0.179
-113.078	800.000	0.038	0.159
-112.064	-118.038	0.282	0.050
-111.049	4.556	-0.159	-0.116
-110.034	-83.585	0.227	0.072
-109.020	186.705	0.133	-0.197
-108.005	-139.739	-0.327	-0.034
-106.991	10.279	-0.032	-0.024
-105.976	-141.123	0.163	-0.017
-104.962	800.000	0.037	0.133
-103.947	225.156	-0.097	-0.155
-102.932	204.559	0.125	0.191
-101.918	-200.000	-0.051	-0.349
-100.903	-200.000	-0.009	0.112
-99.889	-200.000	0.004	-0.081
-98.874	800.000	0.059	0.230
-97.859	800.000	-0.039	-0.157
-96.845	135.175	-0.080	-0.102
-95.830	-161.145	-0.021	-0.001
-94.816	-22.263	0.254	0.153
-93.801	-200.000	0.050	0.237
-92.786	197.557	-0.127	0.192
-91.772	15.206	-0.300	0.233
-90.757	-29.999	-0.144	0.081
-89.743	150.715	-0.066	0.088
-88.728	-200.000	0.028	-0.201
-87.713	553.802	-0.036	-0.086
-86.699	150.027	0.082	0.110
-85.684	-151.537	0.157	-0.011
-84.670	-154.292	-0.166	0.011
-83.655	-132.154	-0.010	-0.001
-82.640	800.000	0.027	0.074
-81.626	-121.066	0.111	-0.018
-80.611	-31.903	-0.071	0.039
-79.597	44.799	0.024	-0.022
-78.582	-193.645	0.309	0.003
-77.567	410.901	-0.075	0.158
-76.553	620.620	0.076	-0.189
-75.538	54.435	-0.364	-0.347
-74.524	295.210	-0.070	-0.127
-73.509	-67.101	-0.134	0.052
-72.494	-162.169	-0.181	0.009
-71.480	-171.458	0.224	0.007
-70.465	-111.132	-0.320	0.065
-69.451	-136.245	-0.071	0.008
-68.436	273.262	-0.124	0.216
-67.422	-200.000	-0.055	-0.260
-66.407	75.812	-0.095	-0.099
-65.392	-105.851	0.101	0.023
-64.378	800.000	-0.085	0.280
-63.363	-130.977	0.340	0.045
-62.349	282.289	-0.347	0.616
-61.334	-35.587	-0.693	-0.372
-60.319	89.038	0.592	0.652
-59.305	-200.000	0.075	-0.728
-58.290	568.174	0.563	1.351
-57.276	364.934	0.669	1.331
-56.261	-200.000	94.717	558.676
-55.246	536.956	1381.364	3242.411
-54.232	153.360	2572.606	3480.655
-53.217	116.811	2168.157	2630.294
-52.203	48.423	1626.065	1504.898
-51.188	40.184	1363.165	1211.373
-50.173	36.866	1320.014	1153.271
-49.159	57.468	1369.120	1321.581
-48.144	62.217	1386.728	1367.277
-47.130	40.298	1341.730	1192.824
-46.115	36.796	1323.252	1155.498
-45.100	36.515	1318.818	1149.909
-44.086	36.447	1316.055	1147.050
-43.071	36.396	1313.454	1144.433
-42.057	36.503	1311.537	1143.350
-41.042	36.454	1309.967	1141.647
-40.027	36.412	1308.414	1140.000
-39.013	36.418	1306.941	1138.710
-37.998	36.451	1304.825	1137.016
-36.984	36.579	1303.206	1136.309
-35.969	36.553	1301.248	1134.404
-34.954	36.620	1299.758	1133.452
-33.940	36.550	1298.297	1131.723
-32.925	36.699	1296.642	1131.107
-31.911	36.696	1295.299	1129.872
-30.896	36.758	1293.958	1129.023
-29.881	36.731	1292.750	1127.768
-28.867	36.659	1291.960	1126.611
-27.852	36.703	1289.800	1124.937
-26.838	36.769	1288.303	1123.973
-25.823	36.728	1286.505	1122.125
-24.809	36.639	1285.631	1120.797
-23.794	36.711	1284.313	1120.024
-22.779	36.732	1282.623	1118.628
-21.765	36.713	1281.583	1117.563
-20.750	36.706	1280.554	1116.583
-19.736	36.554	1279.226	1114.504
-18.721	36.514	1278.290	1113.416
-17.706	36.500	1276.791	1111.982
-16.692	36.513	1275.722	1111.081
-15.677	36.621	1274.064	1110.216
-14.663	36.618	1272.851	1109.098
-13.648	36.607	1272.108	1108.342
-12.633	36.558	1271.264	1107.282
-11.619	36.549	1270.918	1106.887
-10.604	36.619	1269.749	1106.221
-9.590	36.608	1268.981	1105.450
-8.575	36.544	1268.183	1104.341
-7.560	36.601	1267.296	1103.852
-6.546	36.536	1266.441	1102.691
-5.531	36.612	1265.021	1101.848
-4.517	36.462	1264.731	1100.695
-3.502	36.548	1263.746	1100.284
-2.487	36.548	1262.598	1099.242
-1.473	36.317	1258.474	1094.300
-0.458	33.994	1241.367	1066.366
0.556	26.812	1219.890	1014.099
1.571	21.504	1223.581	987.215
2.586	20.028	1238.244	990.522
3.600	19.346	1228.163	978.503
4.615	16.109	1160.235	906.919
5.629	10.632	1089.202	823.595
6.644	7.712	1070.021	794.447
7.659	7.477	1067.280	791.170
8.673	7.391	1065.903	789.651
9.688	7.340	1064.509	788.293
10.702	7.710	1062.957	788.914
11.717	10.935	1067.184	808.023
12.731	15.853	1074.292	837.874
13.746	17.712	1075.724	848.169
14.761	17.416	1074.703	845.820
15.775	16.399	1072.119	838.667
16.790	15.277	1070.045	831.411
17.804	14.602	1068.656	826.913
18.819	14.220	1067.565	824.101
19.834	13.893	1066.435	821.542
20.848	13.650	1065.792	819.769
21.863	13.353	1065.008	817.628
22.877	13.177	1064.399	816.216
23.892	13.296	1063.493	816.038
24.907	13.303	1062.243	815.042
25.921	13.246	1061.825	814.367
26.936	13.304	1060.422	813.503
27.950	13.367	1058.947	812.612
28.965	13.458	1057.594	811.947
29.980	13.430	1056.043	810.546
30.994	13.415	1054.937	809.553
32.009	13.529	1053.836	809.194
33.023	13.589	1052.412	808.324
34.038	13.370	1052.181	807.007
35.053	13.453	1051.066	806.484
36.067	13.378	1049.945	805.186
37.082	13.409	1049.166	804.666
38.096	13.474	1048.293	804.243
39.111	13.462	1047.588	803.575
40.126	13.534	1046.447	802.976
41.140	13.159	1045.384	800.275
42.155	13.219	1044.316	799.673
43.169	13.189	1043.206	798.611
44.184	13.185	1042.095	797.668
45.199	13.154	1041.589	797.060
46.213	13.141	1040.687	796.237
47.228	13.253	1038.910	795.348
48.242	13.300	1038.085	794.869
49.257	13.342	1037.229	794.346
50.271	13.453	1036.144	793.978
51.286	13.336	1035.489	792.844
52.301	13.477	1034.017	792.322
53.315	13.318	1033.607	791.177
54.330	13.332	1032.107	790.026
55.344	13.274	1031.600	789.292
56.359	13.192	1030.926	788.315
57.374	13.355	1029.485	787.920
58.388	13.119	1028.980	786.341
59.403	13.102	1028.046	785.475
60.417	13.144	1027.473	785.168
61.432	13.122	1026.806	784.486
62.447	13.004	1025.800	783.084
63.461	13.089	1024.671	782.557
64.476	13.177	1023.805	782.243
65.490	13.043	1023.394	781.228
66.505	13.079	1022.568	780.699
67.520	13.281	1021.804	780.999
68.534	13.209	1021.128	780.072
69.549	13.091	1020.399	778.893
70.563	13.054	1019.634	778.064
71.578	13.093	1018.579	777.373
72.593	13.066	1017.582	776.415
73.607	13.064	1017.300	776.126
74.622	13.037	1016.540	775.349
75.636	13.004	1015.799	774.560
76.651	12.985	1015.389	774.090
77.666	13.090	1014.857	774.107
78.680	13.063	1014.060	773.307
79.695	13.157	1013.207	773.024
80.709	12.991	1012.945	771.981
81.724	13.141	1012.532	772.299
82.739	13.229	1011.627	771.953
83.753	13.318	1010.407	771.369
84.768	13.398	1009.445	770.938
85.782	13.329	1008.975	770.187
86.797	13.495	1007.615	769.854
87.812	13.313	1007.007	768.475
88.826	13.341	1005.996	767.766
89.841	13.404	1004.688	766.993
90.855	13.354	1004.282	766.382
91.870	13.476	1003.319	766.143
92.884	13.399	1002.367	764.996
93.899	13.428	1001.783	764.615
94.914	13.556	1000.618	764.247
95.928	13.462	1000.202	763.432
96.943	13.438	999.215	762.500
97.957	13.405	998.421	761.675
98.972	13.483	997.634	761.364
99.987	13.488	996.565	760.504
101.001	13.343	995.819	759.201
102.016	13.388	994.869	758.616
103.030	13.381	994.162	757.980
104.045	13.388	993.336	757.315
105.060	13.364	992.669	756.630
106.074	13.245	991.622	755.220
107.089	13.221	990.510	754.195
108.103	13.204	989.514	753.294
109.118	13.179	988.487	752.332
110.133	13.146	987.521	751.380
111.147	13.176	986.396	750.593
112.162	13.144	985.591	749.771
113.176	13.238	985.218	749.845
114.191	13.221	984.524	749.173
115.206	13.334	983.520	748.857
116.220	13.237	982.700	747.725
117.235	13.400	981.433	747.432
118.249	13.207	981.112	746.249
119.264	13.182	980.322	745.471
120.279	13.282	979.198	745.000
121.293	13.131	978.590	743.792
122.308	13.206	977.554	743.277
123.322	13.209	976.431	742.369
124.337	13.214	975.652	741.736
125.352	13.156	974.684	740.672
126.366	13.275	973.231	740.036
127.381	13.225	972.516	739.202
128.395	13.275	971.561	738.635
129.410	13.183	970.871	737.634
130.424	13.358	969.469	737.286
131.439	13.270	969.066	736.519
132.454	13.363	968.189	736.205
133.468	13.373	967.496	735.655
134.483	13.466	966.544	735.279
135.497	13.458	965.821	734.628
136.512	13.282	965.202	733.314
137.527	13.248	964.434	732.516
138.541	13.428	963.283	732.371
139.556	13.327	962.697	731.416
140.570	13.522	961.878	731.587
141.585	13.528	961.280	731.095
142.600	13.636	960.210	730.694
143.614	13.537	959.532	729.677
144.629	13.683	958.800	729.699
145.643	13.685	957.775	728.863
146.658	13.591	956.892	727.712
147.673	13.452	956.297	726.585
148.687	13.513	954.978	725.788
149.702	13.327	954.453	724.511
150.716	13.379	953.707	724.106
151.731	13.352	953.162	723.509
152.746	13.472	952.452	723.430
153.760	13.534	951.635	723.019
154.775	13.534	951.354	722.742
155.789	13.485	950.856	722.083
156.804	13.595	950.136	721.955
157.819	13.698	949.155	721.590
158.833	13.712	948.232	720.888
159.848	13.723	947.585	720.379
160.862	13.670	946.676	719.396
161.877	13.515	946.097	718.220
162.892	13.496	945.112	717.323
163.906	13.458	943.930	716.202
164.921	13.417	943.052	715.293
165.935	13.369	942.799	714.829
166.950	13.417	941.593	714.060
167.964	13.557	940.589	713.838
168.979	13.630	939.379	713.171
169.994	13.481	938.941	712.135
171.008	13.589	938.451	712.163
172.023	13.692	937.489	711.816
173.037	13.644	936.900	711.096
174.052	13.700	935.856	710.482
175.067	13.624	934.976	709.426
176.081	13.664	934.392	709.090
177.096	13.493	934.216	708.162
178.110	13.620	933.601	708.178
179.125	13.775	932.795	708.166
180.140	13.751	932.364	707.675
181.154	13.704	932.059	707.177
182.169	13.684	931.622	706.700
183.183	13.774	930.696	706.316
184.198	13.885	930.006	706.203
185.213	13.847	929.317	705.455
186.227	13.869	928.838	705.124
187.242	13.891	928.348	704.782
188.256	13.948	927.572	704.372
189.271	13.945	926.753	703.677
190.286	13.790	926.012	702.394
191.300	13.565	925.571	701.047
192.315	13.559	924.904	700.453
193.329	13.555	924.413	700.001
194.344	13.635	923.593	699.657
195.359	13.848	922.886	699.957
196.373	13.818	922.675	699.609
197.388	14.039	922.039	699.998
198.402	14.140	921.227	699.742
199.417	13.999	921.188	699.059
200.432	14.101	920.234	698.701
201.446	14.207	919.811	698.765
202.461	14.160	919.519	698.282
203.475	14.225	918.668	697.846
204.490	14.230	917.620	697.010
205.504	13.968	917.308	695.615
206.519	14.092	916.443	695.418
207.534	14.059	915.583	694.565
208.548	14.200	914.829	694.518
209.563	14.111	914.454	693.800
210.577	14.218	913.533	693.487
211.592	14.285	913.054	693.342
212.607	14.268	912.087	692.476
213.621	14.216	911.649	691.864
214.636	14.273	910.763	691.369
215.650	14.264	910.289	690.911
216.665	14.307	909.510	690.435
217.680	14.354	909.264	690.381
218.694	14.362	908.423	689.718
219.709	14.365	907.652	689.081
220.723	14.421	906.697	688.529
221.738	14.472	906.150	688.261
222.753	14.385	905.444	687.307
223.767	14.461	904.922	687.162
224.782	14.375	904.940	686.762
225.796	14.530	904.043	686.656
226.811	14.476	903.677	686.094
227.826	14.377	902.943	685.070
228.840	14.392	901.888	684.272
229.855	14.316	901.246	683.412
230.869	14.358	900.476	682.942
231.884	14.407	899.731	682.517
232.899	14.313	899.459	681.862
233.913	14.336	898.243	680.977
234.928	14.367	897.690	680.624
235.942	14.221	897.271	679.650
236.957	14.404	896.516	679.762
237.972	14.462	896.041	679.578
238.986	14.374	895.211	678.532
240.001	14.565	894.802	678.937
241.015	14.454	894.363	678.096
242.030	14.569	893.670	677.977
243.045	14.531	893.034	677.278
244.059	14.606	892.292	676.959
245.074	14.569	891.797	676.377
246.088	14.634	891.055	676.016
247.103	14.508	890.829	675.275
248.117	14.695	890.374	675.626
249.132	14.844	889.615	675.594
250.147	14.831	889.024	675.032
251.161	14.949	888.161	674.792
252.176	14.920	887.600	674.191
253.190	14.965	886.766	673.680
254.205	15.075	886.092	673.549
255.220	14.950	885.493	672.533
256.234	14.983	884.866	672.128
257.249	15.067	883.961	671.721
258.263	15.022	883.419	671.066
259.278	15.009	882.768	670.462
260.293	15.114	882.323	670.483
261.307	15.114	881.981	670.166
262.322	15.092	881.260	669.470
263.336	15.087	880.291	668.653
264.351	15.172	879.636	668.436
265.366	15.074	879.438	667.835
266.380	15.311	878.397	667.933
267.395	15.081	878.295	666.878
268.409	15.203	877.097	666.395
269.424	15.238	876.118	665.732
270.439	15.150	875.735	665.031
271.453	15.133	874.917	664.287
272.468	15.134	874.367	663.810
273.482	15.045	874.251	663.314
274.497	14.975	873.450	662.370
275.512	15.126	872.694	662.336
276.526	15.093	872.185	661.758
277.541	15.275	871.929	662.224
278.555	15.331	871.124	661.776
279.570	15.420	870.176	661.350
280.585	15.389	869.298	660.501
281.599	15.281	868.911	659.722
282.614	15.312	867.953	659.058
283.628	15.409	867.844	659.300
284.643	15.304	867.301	658.418
285.657	15.373	866.403	657.947
286.672	15.410	865.609	657.431
287.687	15.378	865.309	657.019
288.701	15.422	864.603	656.599
289.716	15.408	864.495	656.400
290.730	15.472	863.653	655.956
291.745	15.546	862.932	655.639
292.760	15.406	862.450	654.668
293.774	15.568	862.038	654.928
294.789	15.678	861.012	654.519
295.803	15.623	860.177	653.612
296.818	15.575	859.752	653.044
297.833	15.520	859.117	652.294
298.847	15.585	858.478	652.003
299.862	15.615	857.892	651.615
300.876	15.599	857.509	651.204
301.891	15.542	856.532	650.187
302.906	15.722	856.189	650.564
303.920	15.699	855.799	650.120
304.935	15.784	855.438	650.115
305.949	15.739	854.638	649.279
306.964	15.716	854.038	648.675
307.979	15.696	853.617	648.223
308.993	15.771	852.923	647.925
310.008	15.783	852.403	647.518
311.022	15.927	851.386	647.245
312.037	15.729	851.495	646.507
313.052	15.722	851.032	646.071
314.066	15.823	849.774	645.448
315.081	15.701	849.359	644.609
316.095	15.738	848.855	644.308
317.110	15.826	847.719	643.729
318.125	15.754	847.791	643.450
319.139	15.774	847.299	643.094
320.154	15.801	846.521	642.552
321.168	15.782	846.281	642.241
322.183	15.760	845.630	641.606
323.197	15.864	845.356	641.737
324.212	15.891	844.434	641.081
325.227	15.770	844.156	640.353
326.241	15.791	843.522	639.896
327.256	15.933	842.565	639.653
328.270	15.786	842.151	638.725
329.285	15.879	841.727	638.699
330.300	15.862	841.331	638.279
331.314	15.942	840.804	638.123
332.329	15.906	840.499	637.699
333.343	16.061	839.894	637.770
334.358	16.031	839.393	637.220
335.373	16.081	838.852	636.943
336.387	16.105	838.644	636.821
337.402	16.218	838.338	636.958
338.416	16.158	838.100	636.493
339.431	16.241	837.456	636.261
340.446	16.317	837.295	636.369
341.460	16.185	837.344	635.851
342.475	16.231	836.363	635.225
343.489	16.425	835.794	635.464
344.504	16.322	835.522	634.816
345.519	16.436	835.057	634.833
346.533	16.313	834.634	633.993
347.548	16.316	834.027	633.487
348.562	16.200	833.263	632.418
349.577	16.191	832.890	632.045
350.592	16.263	831.884	631.494
351.606	16.249	831.366	630.994
352.621	16.309	830.495	630.499
353.635	16.397	830.061	630.442
354.650	16.271	829.194	629.259
355.665	16.275	828.731	628.869
356.679	16.205	828.867	628.655
357.694	16.384	827.668	628.354
358.708	16.393	826.832	627.697
359.723	16.451	826.706	627.762
360.738	16.375	826.320	627.133
361.752	16.575	825.461	627.167
362.767	16.560	824.604	626.404
363.781	16.556	824.589	626.320
364.796	16.616	824.087	626.109
365.810	16.638	823.848	625.950
366.825	16.818	823.517	626.309
367.840	16.785	822.701	625.513
368.854	16.632	821.968	624.334
369.869	16.676	821.945	624.427
370.883	16.639	821.852	624.161
371.898	16.756	821.118	623.982
372.913	16.802	820.607	623.707
373.927	16.656	820.111	622.736
374.942	16.735	819.710	622.668
375.956	16.741	819.308	622.330
376.971	16.843	818.451	621.997
377.986	16.947	818.416	622.299
379.000	17.075	818.015	622.408
380.015	17.053	817.133	621.602
381.029	16.893	816.662	620.601
382.044	16.818	815.959	619.739
383.059	17.078	815.296	620.131
384.073	17.065	814.687	619.566
385.088	16.730	814.522	618.161
386.102	16.783	813.980	617.888
387.117	16.972	813.487	618.149
388.132	16.837	812.701	617.004
389.146	16.953	811.729	616.636
390.161	16.927	811.538	616.342
391.175	16.932	811.269	616.098
392.190	17.039	810.553	615.890
393.205	17.041	810.099	615.496
394.219	16.945	809.840	614.899
395.234	16.864	809.592	614.361
396.248	16.919	808.851	613.944
397.263	16.976	808.195	613.598
398.278	16.958	808.098	613.405
399.292	16.901	807.770	612.898
400.307	16.949	807.500	612.811
401.321	17.030	806.758	612.485
402.336	16.971	806.490	612.016
403.350	17.024	806.056	611.824
404.365	17.088	805.492	611.571
405.380	17.274	804.910	611.745
406.394	17.319	804.384	611.452
407.409	17.376	804.230	611.487
408.423	17.294	803.957	610.930
409.438	17.347	803.901	611.022
410.453	17.341	803.269	610.467
411.467	17.389	802.453	609.964
412.482	17.439	802.220	609.913
413.496	17.520	801.709	609.761
414.511	17.500	801.576	609.536
415.526	17.597	800.957	609.358
416.540	17.505	800.493	608.619
417.555	17.468	799.934	608.009
418.569	17.477	799.639	607.763
419.584	17.519	798.864	607.272
420.599	17.569	798.636	607.221
421.613	102.314	1281.867	1432.573
422.628	87.762	1352.262	1432.693
