DTS Sentinel unit serial number:	SN413079Multiplexer serial number:	ORYXHardware model number:	OX4-SRSoftware version number:	ORYX F/W v4.00 Oryx Data Collector v3.7.2.0data status	okinstallation	princeton_trtdifferential loss correction	single-endedforward channel	channel 1reverse channel	N/Adate	2019/09/18time	05:18:35forward acquisition time	60.00reverse acquisition time	0.00gamma	496.2192k internal	0.2339k external	0.2339temperature offset calibration	0.9982default loss term (dB/km)	0.3790temperature slope calibration	1.0000multiplexer offset coefficient	1.0000multiplexer slope coefficient	1.0000fibre end	0.00T internal ref (°C)	23.50T ext. ref 1 (°C)	0.18T ext. ref 2 (°C)	17.25length (m)	temperature (°C)	Stokes	anti-Stokes-747.200	50.922	0.142	0.135
-746.185	-68.705	-0.358	0.139
-745.171	-11.837	0.218	-0.144
-744.156	15.092	-0.189	0.148
-743.142	-70.962	-0.194	0.073
-742.127	-200.000	-0.011	0.174
-741.112	34.219	-0.185	0.162
-740.098	800.000	0.064	0.182
-739.083	-28.856	-0.256	-0.148
-738.069	800.000	0.118	0.334
-737.054	-13.407	0.104	-0.067
-736.039	-36.696	-0.339	-0.182
-735.025	3.123	0.302	-0.220
-734.010	-24.992	-0.136	0.081
-732.996	-12.011	-0.343	-0.225
-731.981	95.330	0.159	-0.181
-730.966	470.830	-0.125	-0.282
-729.952	800.000	-0.106	0.314
-728.937	-125.559	0.095	0.015
-727.923	-85.399	-0.301	-0.094
-726.908	1.153	-0.092	-0.066
-725.894	-84.887	-0.071	-0.022
-724.879	-200.000	-0.024	0.175
-723.864	-200.000	-0.110	0.550
-722.850	-200.000	-0.001	0.279
-721.835	502.981	-0.144	0.335
-720.821	-84.748	-0.068	0.021
-719.806	-77.028	0.375	0.131
-718.791	-200.000	0.003	0.172
-717.777	110.479	-0.121	-0.145
-716.762	2.764	-0.292	-0.212
-715.748	7.613	0.134	-0.101
-714.733	-168.373	-0.101	-0.004
-713.718	-180.350	-0.493	0.010
-712.704	-165.814	0.161	0.007
-711.689	-81.457	-0.352	-0.116
-710.675	-176.150	0.159	-0.004
-709.660	-123.093	0.164	0.026
-708.645	215.237	-0.073	0.117
-707.631	227.931	-0.095	0.155
-706.616	-93.347	0.088	0.024
-705.602	-64.694	-0.170	-0.069
-704.587	243.200	0.066	-0.111
-703.572	-200.000	-0.016	0.266
-702.558	93.164	-0.082	-0.093
-701.543	23.153	-0.230	-0.189
-700.529	57.276	-0.154	-0.150
-699.514	-200.000	0.000	-0.335
-698.499	-43.512	0.252	0.127
-697.485	-158.396	0.254	0.015
-696.470	215.146	0.067	-0.107
-695.456	300.257	-0.003	0.005
-694.441	-200.000	-0.057	-0.493
-693.426	-200.000	-0.003	0.243
-692.412	-120.273	0.215	0.037
-691.397	-200.000	-0.008	-0.119
-690.383	-36.720	0.121	0.065
-689.368	201.575	-0.079	0.122
-688.354	374.338	-0.063	0.127
-687.339	345.746	0.116	-0.227
-686.324	20.192	0.185	-0.150
-685.310	-200.000	-0.112	0.670
-684.295	196.605	-0.126	0.192
-683.281	157.425	0.020	0.028
-682.266	-23.494	-0.108	-0.065
-681.251	74.495	0.288	-0.303
-680.237	-168.631	0.372	-0.014
-679.222	30.504	0.093	-0.080
-678.208	-118.362	0.213	-0.038
-677.193	-44.404	0.285	-0.143
-676.178	800.000	0.012	-0.036
-675.164	67.776	0.241	-0.247
-674.149	-151.877	0.190	0.014
-673.135	152.393	-0.087	0.119
-672.120	-200.000	-0.041	-0.250
-671.105	546.880	-0.104	-0.248
-670.091	34.894	-0.099	-0.087
-669.076	-115.547	0.320	-0.060
-668.062	158.971	0.025	0.034
-667.047	800.000	0.038	-0.141
-666.032	800.000	0.055	-0.163
-665.018	188.497	0.194	0.290
-664.003	-142.776	0.090	0.009
-662.989	262.073	-0.132	-0.229
-661.974	-123.533	0.247	0.039
-660.959	213.126	-0.098	-0.155
-659.945	-29.747	0.202	0.115
-658.930	58.130	0.242	-0.237
-657.916	96.256	0.069	-0.079
-656.901	-56.246	-0.152	0.068
-655.886	-131.648	-0.263	0.035
-654.872	69.230	0.022	0.022
-653.857	-86.994	-0.034	0.010
-652.843	-200.000	0.019	0.113
-651.828	-200.000	-0.008	-0.221
-650.814	170.462	0.047	-0.067
-649.799	4.058	0.068	-0.050
-648.784	-63.018	0.085	-0.035
-647.770	144.246	0.037	0.050
-646.755	-170.719	-0.257	-0.009
-645.741	-188.598	-0.045	0.001
-644.726	-151.680	-0.295	0.022
-643.711	-171.147	-0.195	-0.007
-642.697	-200.000	-0.004	0.052
-641.682	-82.274	-0.041	0.013
-640.668	-117.019	0.061	0.011
-639.653	272.272	0.067	-0.119
-638.638	198.370	0.101	0.154
-637.624	70.034	0.124	0.128
-636.609	65.293	-0.144	0.145
-635.595	800.000	-0.037	-0.159
-634.580	-200.000	0.007	-0.159
-633.565	248.680	0.117	-0.198
-632.551	800.000	-0.080	0.255
-631.536	267.301	0.027	0.047
-630.522	231.795	0.211	-0.346
-629.507	-35.120	-0.209	-0.113
-628.492	53.909	-0.144	0.138
-627.478	76.080	-0.201	-0.212
-626.463	800.000	0.073	-0.288
-625.449	-200.000	0.038	-0.168
-624.434	800.000	0.032	0.122
-623.419	265.957	0.178	0.310
-622.405	-105.704	0.329	-0.074
-621.390	-177.071	-0.278	0.007
-620.376	800.000	-0.035	0.108
-619.361	800.000	0.034	0.102
-618.346	-104.461	-0.105	-0.024
-617.332	-42.254	-0.262	0.133
-616.317	-98.863	-0.284	-0.072
-615.303	-56.104	-0.280	0.124
-614.288	-179.128	-0.184	-0.004
-613.273	-173.917	-0.153	-0.004
-612.259	-111.832	-0.182	-0.037
-611.244	58.605	-0.041	-0.041
-610.230	-200.000	-0.042	-0.264
-609.215	800.000	0.023	0.093
-608.201	466.441	-0.188	-0.419
-607.186	-135.389	0.269	0.032
-606.171	40.218	0.161	-0.145
-605.157	6.546	0.121	0.090
-604.142	42.191	-0.060	-0.054
-603.128	-74.532	-0.227	0.082
-602.113	-200.000	0.009	0.140
-601.098	-137.862	0.555	-0.062
-600.084	164.707	-0.169	-0.238
-599.069	262.652	-0.071	0.122
-598.055	-41.599	0.382	0.196
-597.040	242.843	-0.115	-0.192
-596.025	-200.000	-0.027	0.143
-595.011	215.916	0.101	-0.160
-593.996	323.356	0.148	-0.280
-592.982	483.695	-0.099	-0.226
-591.967	471.917	0.046	-0.104
-590.952	-118.353	-0.218	-0.039
-589.938	36.473	0.238	-0.209
-588.923	340.382	0.010	-0.020
-587.909	-200.000	-0.031	0.156
-586.894	195.774	-0.083	0.125
-585.879	-97.010	-0.147	0.038
-584.865	-200.000	0.002	0.140
-583.850	13.071	0.118	0.091
-582.836	-59.573	0.216	0.092
-581.821	518.690	-0.113	-0.263
-580.806	-200.000	-0.018	0.109
-579.792	14.998	0.191	0.149
-578.777	-200.000	-0.038	-0.181
-577.763	-28.417	-0.220	-0.126
-576.748	-126.686	-0.189	-0.028
-575.733	800.000	-0.029	0.084
-574.719	47.344	-0.166	0.154
-573.704	301.219	-0.141	0.259
-572.690	282.076	0.046	-0.083
-571.675	84.480	0.215	-0.235
-570.661	446.198	0.166	-0.364
-569.646	196.349	0.064	-0.096
-568.631	696.998	0.038	-0.100
-567.617	461.611	0.083	0.184
-566.602	12.016	0.215	-0.165
-565.588	800.000	-0.066	0.194
-564.573	800.000	0.072	-0.242
-563.558	386.942	0.067	-0.138
-562.544	-200.000	-0.012	-0.091
-561.529	-185.825	0.174	0.003
-560.515	130.831	0.154	-0.197
-559.500	695.903	-0.050	-0.130
-558.485	-109.421	0.146	-0.031
-557.471	-57.228	0.070	-0.031
-556.456	800.000	-0.078	-0.257
-555.442	-114.171	-0.171	0.033
-554.427	299.653	0.113	0.208
-553.412	38.618	0.126	-0.111
-552.398	-35.064	-0.132	-0.071
-551.383	367.700	0.167	-0.337
-550.369	-200.000	-0.001	-0.098
-549.354	-74.272	0.104	-0.038
-548.339	-42.846	-0.165	0.084
-547.325	9.734	0.213	-0.161
-546.310	149.769	-0.027	0.036
-545.296	-19.992	-0.137	-0.084
-544.281	664.963	-0.028	0.071
-543.266	-200.000	-0.007	-0.186
-542.252	-27.537	-0.164	-0.095
-541.237	-7.221	0.145	-0.098
-540.223	800.000	0.063	-0.175
-539.208	-58.914	0.228	0.098
-538.193	105.886	0.185	-0.217
-537.179	-117.965	0.246	-0.044
-536.164	-200.000	-0.053	0.318
-535.150	50.875	0.214	0.202
-534.135	-155.864	0.114	0.007
-533.121	326.097	0.079	0.151
-532.106	37.263	-0.070	0.062
-531.091	-29.808	0.338	0.192
-530.077	-200.000	-0.009	0.270
-529.062	629.708	-0.083	-0.208
-528.048	-193.224	0.063	0.001
-527.033	-82.992	0.176	-0.056
-526.018	-184.870	-0.139	0.002
-525.004	15.000	0.197	0.153
-523.989	566.296	-0.054	0.129
-522.975	257.581	0.184	0.315
-521.960	0.024	0.046	0.033
-520.945	-97.413	0.094	0.024
-519.931	73.471	0.289	-0.300
-518.916	-133.060	0.131	-0.017
-517.902	-96.487	0.441	-0.116
-516.887	-200.000	0.019	0.230
-515.872	-81.482	0.228	0.075
-514.858	-111.331	0.057	0.011
-513.843	-4.340	0.193	0.132
-512.829	-0.658	-0.112	0.079
-511.814	175.559	-0.193	-0.278
-510.799	-80.886	-0.022	0.007
-509.785	76.999	-0.143	-0.151
-508.770	800.000	-0.034	-0.112
-507.756	578.317	0.030	0.073
-506.741	53.446	-0.220	-0.210
-505.726	-127.355	0.376	0.054
-504.712	-200.000	0.003	0.154
-503.697	19.234	0.126	0.101
-502.683	-35.647	-0.134	0.072
-501.668	-132.488	0.188	0.024
-500.653	92.936	-0.142	-0.159
-499.639	-108.288	-0.207	0.045
-498.624	-103.157	0.271	-0.064
-497.610	-31.201	0.080	0.045
-496.595	18.164	0.051	-0.040
-495.581	106.388	0.143	-0.169
-494.566	-114.182	-0.080	0.015
-493.551	-85.813	-0.172	0.053
-492.537	-177.814	-0.201	0.005
-491.522	-200.000	0.008	0.183
-490.508	51.404	0.337	0.318
-489.493	800.000	0.041	-0.150
-488.478	-59.359	0.151	-0.064
-487.464	145.154	-0.189	0.251
-486.449	2.455	0.247	0.177
-485.435	-128.622	0.112	0.016
-484.420	-184.434	0.318	-0.005
-483.405	10.946	-0.256	0.195
-482.391	133.934	-0.152	-0.195
-481.376	48.435	-0.229	-0.213
-480.362	-200.000	-0.046	-0.276
-479.347	62.578	-0.068	-0.068
-478.332	-141.717	-0.366	-0.036
-477.318	6.877	-0.048	0.035
-476.303	-69.555	0.243	-0.092
-475.289	632.717	-0.086	0.217
-474.274	69.092	0.084	-0.086
-473.259	101.654	0.206	-0.238
-472.245	-20.846	0.289	0.176
-471.230	12.291	-0.086	-0.066
-470.216	-200.000	-0.021	-0.126
-469.201	-173.424	-0.117	0.004
-468.186	4.926	0.161	0.118
-467.172	-200.000	0.019	-0.171
-466.157	357.669	-0.260	0.516
-465.143	-35.056	-0.289	0.156
-464.128	-80.619	-0.297	0.098
-463.113	182.032	-0.188	0.274
-462.099	800.000	0.092	0.279
-461.084	-11.235	0.343	0.224
-460.070	-107.876	0.164	0.035
-459.055	499.295	0.116	-0.266
-458.040	-82.870	-0.112	0.036
-457.026	800.000	0.046	0.143
-456.011	-33.359	0.073	-0.040
-454.997	-84.426	-0.204	-0.064
-453.982	132.651	0.216	-0.276
-452.968	800.000	0.140	-0.390
-451.953	-200.000	0.016	0.184
-450.938	800.000	0.047	-0.162
-449.924	724.540	0.061	-0.160
-448.909	289.252	-0.036	0.065
-447.895	-200.000	-0.017	0.309
-446.880	151.030	-0.173	0.233
-445.865	70.059	-0.128	-0.131
-444.851	293.917	0.151	-0.273
-443.836	73.574	0.192	-0.200
-442.822	-123.153	-0.185	-0.029
-441.807	-4.942	0.004	-0.003
-440.792	88.518	-0.252	0.278
-439.778	-200.000	-0.013	0.307
-438.763	107.365	-0.288	0.340
-437.749	-200.000	-0.003	-0.256
-436.734	-200.000	-0.007	0.044
-435.719	800.000	0.116	0.401
-434.705	-200.000	0.026	-0.335
-433.690	-163.280	-0.486	0.023
-432.676	-0.239	0.420	-0.296
-431.661	75.576	-0.038	-0.040
-430.646	270.853	-0.141	0.246
-429.632	-87.554	-0.228	-0.068
-428.617	-120.974	0.198	-0.033
-427.603	419.572	-0.060	0.128
-426.588	17.761	0.243	0.192
-425.573	-200.000	-0.035	-0.168
-424.559	109.878	-0.166	0.198
-423.544	-88.000	-0.164	0.049
-422.530	-117.561	-0.266	0.048
-421.515	-135.321	-0.045	-0.005
-420.500	-200.000	0.015	-0.082
-419.486	-177.377	0.254	-0.006
-418.471	5.680	0.216	-0.158
-417.457	800.000	0.011	0.030
-416.442	-153.859	0.214	0.015
-415.428	-69.875	-0.358	-0.135
-414.413	253.855	0.068	-0.115
-413.398	-51.721	0.253	0.117
-412.384	772.442	0.133	0.358
-411.369	-200.000	0.015	0.080
-410.355	354.549	0.054	-0.106
-409.340	-200.000	-0.005	-0.206
-408.325	238.182	0.261	0.429
-407.311	137.744	-0.121	0.157
-406.296	-28.806	0.046	0.026
-405.282	-108.645	-0.351	-0.075
-404.267	19.074	0.252	0.200
-403.252	665.651	-0.053	0.137
-402.238	416.775	-0.165	0.349
-401.223	-159.827	0.291	-0.016
-400.209	-125.441	-0.179	-0.027
-399.194	800.000	0.040	-0.159
-398.179	278.077	0.193	0.340
-397.165	-16.055	-0.122	0.077
-396.150	-200.000	0.034	0.195
-395.136	-7.663	0.202	-0.135
-394.121	210.235	0.189	-0.293
-393.106	-113.273	-0.434	0.084
-392.092	754.481	0.081	-0.217
-391.077	237.319	-0.074	0.121
-390.063	800.000	-0.024	0.100
-389.048	-51.286	0.208	-0.096
-388.033	-20.838	0.115	0.070
-387.019	800.000	0.071	0.275
-386.004	-44.729	-0.028	-0.014
-384.990	47.351	-0.325	-0.299
-383.975	3.789	-0.090	0.065
-382.960	-94.919	0.147	0.039
-381.946	226.474	0.119	-0.190
-380.931	-66.485	0.296	0.116
-379.917	800.000	-0.056	0.206
-378.902	320.580	0.127	0.239
-377.888	-51.444	-0.216	-0.100
-376.873	-72.523	0.113	-0.041
-375.858	580.824	0.096	-0.232
-374.844	800.000	-0.087	-0.301
-373.829	-165.814	-0.186	-0.008
-372.815	-39.444	0.149	0.077
-371.800	-19.635	0.143	-0.088
-370.785	-160.100	-0.128	0.007
-369.771	-56.081	0.244	0.108
-368.756	800.000	0.046	-0.132
-367.742	-81.266	-0.376	0.123
-366.727	237.929	-0.197	0.323
-365.712	-78.037	-0.255	0.087
-364.698	-200.000	-0.003	0.039
-363.683	-200.000	-0.008	-0.118
-362.669	148.611	-0.131	-0.175
-361.654	-31.546	-0.173	0.096
-360.639	106.120	-0.115	0.135
-359.625	432.638	-0.077	-0.165
-358.610	121.417	-0.139	0.171
-357.596	800.000	0.052	-0.194
-356.581	102.129	0.044	0.050
-355.566	240.247	-0.132	-0.217
-354.552	-17.691	-0.284	-0.176
-353.537	-35.753	-0.018	-0.010
-352.523	-67.040	0.193	-0.075
-351.508	-200.000	0.018	0.264
-350.493	800.000	0.040	-0.129
-349.479	-93.290	0.101	-0.028
-348.464	-97.924	0.192	0.049
-347.450	-200.000	0.042	0.393
-346.435	-76.652	-0.522	0.181
-345.420	-200.000	-0.010	0.143
-344.406	159.898	-0.239	0.328
-343.391	125.951	0.117	0.146
-342.377	-200.000	-0.002	0.481
-341.362	41.974	0.254	0.227
-340.348	-73.686	0.257	-0.092
-339.333	800.000	-0.115	0.349
-338.318	-200.000	-0.035	0.318
-337.304	-105.538	0.411	-0.092
-336.289	-87.936	-0.094	0.028
-335.275	-43.327	-0.127	-0.064
-334.260	421.513	0.177	-0.374
-333.245	27.960	-0.238	-0.198
-332.231	46.475	-0.294	-0.269
-331.216	-113.354	0.255	-0.049
-330.202	46.847	-0.205	0.188
-329.187	800.000	0.047	-0.136
-328.172	139.268	-0.171	-0.222
-327.158	-200.000	0.003	-0.085
-326.143	-200.000	0.050	-0.238
-325.129	800.000	-0.047	0.141
-324.114	212.393	-0.168	-0.262
-323.099	-26.262	-0.315	-0.183
-322.085	800.000	-0.110	0.473
-321.070	800.000	0.065	-0.192
-320.056	85.514	-0.087	0.094
-319.041	-200.000	0.004	0.316
-318.026	221.058	0.084	0.132
-317.012	-45.343	-0.129	-0.063
-315.997	-128.141	-0.253	0.036
-314.983	3.709	0.210	-0.151
-313.968	-152.378	0.152	-0.011
-312.953	-52.991	-0.380	0.173
-311.939	352.427	0.101	-0.198
-310.924	-115.995	0.131	-0.024
-309.910	173.196	0.195	-0.277
-308.895	-200.000	-0.025	-0.223
-307.880	-200.000	0.001	0.015
-306.866	-77.033	-0.163	0.056
-305.851	-124.442	0.274	0.042
-304.837	-35.999	-0.238	-0.127
-303.822	174.774	0.282	-0.402
-302.807	-44.113	0.282	-0.139
-301.793	58.976	-0.180	-0.174
-300.778	-200.000	-0.055	-0.425
-299.764	270.633	0.071	0.123
-298.749	7.758	0.173	0.128
-297.735	-116.843	-0.227	0.041
-296.720	-24.423	0.131	-0.077
-295.705	-200.000	-0.036	-0.383
-294.691	176.619	-0.051	0.073
-293.676	155.077	-0.103	0.139
-292.662	-58.329	0.025	0.011
-291.647	77.870	-0.130	-0.137
-290.632	-70.415	-0.244	-0.091
-289.618	-10.878	0.149	0.097
-288.603	-162.957	-0.251	0.012
-287.589	71.091	-0.007	-0.007
-286.574	-200.000	-0.003	-0.040
-285.559	-200.000	0.031	0.204
-284.545	800.000	-0.149	-0.417
-283.530	-200.000	-0.065	-0.445
-282.516	31.091	0.111	0.094
-281.501	-77.225	-0.293	-0.100
-280.486	265.116	-0.089	-0.153
-279.472	119.389	-0.129	0.158
-278.457	-65.403	0.252	0.100
-277.443	-113.144	-0.040	0.008
-276.428	-134.061	-0.173	0.021
-275.413	404.488	-0.146	-0.303
-274.399	800.000	0.015	-0.059
-273.384	82.807	0.337	-0.361
-272.370	-142.511	-0.341	0.033
-271.355	-166.889	0.185	0.007
-270.340	86.903	0.137	-0.149
-269.326	-200.000	0.039	-0.442
-268.311	-73.719	-0.278	0.100
-267.297	-90.390	0.320	0.091
-266.282	-157.071	-0.225	0.013
-265.267	-109.443	-0.311	0.065
-264.253	800.000	0.060	0.165
-263.238	2.948	-0.250	0.178
-262.224	374.964	-0.106	0.212
-261.209	133.569	0.040	-0.051
-260.195	199.442	0.219	0.331
-259.180	150.364	0.274	-0.366
-258.165	370.358	-0.030	0.059
-257.151	800.000	0.064	-0.177
-256.136	-118.658	-0.243	0.042
-255.122	800.000	0.043	-0.178
-254.107	-200.000	-0.051	-0.365
-253.092	23.221	-0.190	0.153
-252.078	10.620	-0.115	-0.086
-251.063	572.589	0.206	-0.494
-250.049	-120.022	0.358	-0.060
-249.034	-102.151	-0.168	-0.040
-248.019	253.090	0.116	0.195
-247.005	144.120	0.108	-0.142
-245.990	43.209	-0.197	-0.177
-244.976	-200.000	-0.009	-0.154
-243.961	366.088	0.106	0.211
-242.946	234.739	0.133	0.215
-241.932	-82.750	-0.101	-0.032
-240.917	-76.361	0.211	-0.073
-239.903	-126.699	0.114	0.017
-238.888	94.344	-0.124	0.139
-237.873	-63.835	0.136	-0.055
-236.859	104.083	0.274	0.317
-235.844	722.685	-0.061	0.159
-234.830	-65.206	-0.268	0.106
-233.815	-59.234	0.084	-0.036
-232.800	-87.105	0.125	0.037
-231.786	766.436	0.048	-0.127
-230.771	51.454	-0.117	-0.109
-229.757	-200.000	-0.040	0.513
-228.742	609.255	-0.074	0.182
-227.727	-200.000	-0.016	0.349
-226.713	49.269	-0.073	0.067
-225.698	17.273	0.172	0.134
-224.684	-200.000	0.082	0.681
-223.669	-11.974	0.035	0.022
-222.655	-110.289	-0.049	-0.010
-221.640	72.088	-0.057	0.058
-220.625	17.696	-0.073	0.057
-219.611	452.819	-0.123	-0.267
-218.596	800.000	-0.035	0.142
-217.582	800.000	0.127	-0.492
-216.567	-157.536	0.284	-0.017
-215.552	458.728	0.054	-0.118
-214.538	800.000	0.056	-0.210
-213.523	-132.114	-0.064	0.008
-212.509	800.000	0.156	0.430
-211.494	-78.046	-0.433	0.146
-210.479	248.899	0.023	0.038
-209.465	-200.000	0.012	-0.096
-208.450	800.000	-0.053	0.223
-207.436	206.055	0.089	-0.136
-206.421	-200.000	-0.019	-0.488
-205.406	-70.509	-0.109	0.040
-204.392	-200.000	0.115	0.525
-203.377	-27.730	0.131	0.074
-202.363	-78.241	0.045	-0.015
-201.348	159.573	-0.134	0.184
-200.333	-121.357	-0.423	0.069
-199.319	-200.000	0.041	-0.258
-198.304	115.025	-0.079	0.094
-197.290	768.573	0.020	0.052
-196.275	211.688	-0.214	-0.330
-195.260	-13.446	0.107	-0.068
-194.246	-121.313	-0.133	0.022
-193.231	186.553	0.063	0.092
-192.217	101.933	-0.340	0.389
-191.202	8.788	-0.036	-0.026
-190.187	54.502	0.081	-0.077
-189.173	-91.059	0.099	-0.028
-188.158	-29.627	-0.256	-0.144
-187.144	-200.000	0.070	0.453
-186.129	-55.331	0.058	-0.025
-185.114	-200.000	-0.005	-0.241
-184.100	561.229	-0.062	0.147
-183.085	-102.615	-0.110	-0.026
-182.071	-200.000	0.008	0.281
-181.056	469.789	0.114	0.251
-180.042	40.202	0.152	-0.134
-179.027	2.416	0.115	-0.082
-178.012	-84.704	0.084	-0.026
-176.998	-29.185	-0.131	0.073
-175.983	-49.336	0.225	0.105
-174.969	188.244	-0.274	-0.402
-173.954	91.930	0.189	-0.209
-172.939	107.209	0.213	0.248
-171.925	760.754	-0.076	-0.202
-170.910	541.496	0.042	0.098
-169.896	244.777	-0.072	-0.118
-168.881	171.742	0.097	0.137
-167.866	-66.946	0.230	0.089
-166.852	-16.076	0.181	0.113
-165.837	-69.285	-0.233	-0.088
-164.823	-61.036	0.214	-0.089
-163.808	800.000	-0.058	-0.178
-162.793	-168.539	0.265	0.010
-161.779	-200.000	-0.011	0.050
-160.764	-67.482	-0.189	0.073
-159.750	186.385	-0.145	0.211
-158.735	-1.630	-0.144	-0.100
-157.720	14.396	-0.343	0.262
-156.706	51.477	0.116	-0.108
-155.691	-44.388	0.184	-0.091
-154.677	640.558	-0.018	-0.044
-153.662	-200.000	0.014	0.192
-152.647	70.526	-0.247	-0.250
-151.633	-200.000	-0.002	0.419
-150.618	-47.241	0.245	0.117
-149.604	-76.336	-0.243	0.084
-148.589	-90.696	0.376	0.106
-147.574	-77.925	0.445	-0.150
-146.560	800.000	0.083	-0.242
-145.545	-61.682	0.091	0.037
-144.531	28.023	-0.184	-0.152
-143.516	57.638	0.356	-0.341
-142.502	-200.000	-0.023	-0.217
-141.487	-200.000	0.011	0.196
-140.472	800.000	0.076	0.241
-139.458	-45.615	0.037	0.018
-138.443	-145.032	-0.097	-0.009
-137.429	-141.351	-0.286	0.028
-136.414	-1.527	0.203	-0.140
-135.399	-180.298	-0.135	-0.003
-134.385	-132.519	-0.099	0.012
-133.370	118.679	-0.109	-0.132
-132.356	-78.525	-0.145	0.049
-131.341	-145.379	0.253	0.022
-130.326	-81.858	0.090	-0.029
-129.312	-96.071	0.315	0.082
-128.297	-122.897	-0.085	0.013
-127.283	247.665	-0.174	0.289
-126.268	-102.611	0.552	-0.129
-125.253	186.181	-0.226	0.329
-124.239	-62.150	0.111	-0.045
-123.224	423.622	0.130	0.273
-122.210	161.328	0.150	0.205
-121.195	535.710	-0.136	-0.316
-120.180	164.151	-0.071	0.098
-119.166	-200.000	0.012	-0.066
-118.151	-68.678	0.279	0.106
-117.137	136.813	0.157	0.201
-116.122	800.000	0.110	0.327
-115.107	-200.000	-0.023	-0.113
-114.093	-87.108	-0.086	-0.026
-113.078	-83.016	-0.516	-0.163
-112.064	134.971	-0.098	0.125
-111.049	57.104	0.204	0.194
-110.034	2.569	0.121	-0.086
-109.020	25.537	0.015	-0.012
-108.005	60.770	-0.080	0.077
-106.991	725.637	0.057	-0.148
-105.976	67.587	0.048	0.048
-104.962	130.811	-0.180	0.226
-103.947	-55.072	0.273	0.120
-102.932	241.856	-0.263	-0.430
-101.918	676.276	0.078	0.199
-100.903	122.776	0.172	0.210
-99.889	800.000	0.068	0.213
-98.874	-152.190	0.223	0.016
-97.859	220.848	0.106	0.166
-96.845	-16.739	0.258	0.160
-95.830	379.523	0.080	0.161
-94.816	-200.000	0.019	-0.088
-93.801	-63.915	-0.214	0.086
-92.786	64.242	-0.097	0.096
-91.772	-121.716	0.347	0.056
-90.757	-42.807	0.422	-0.210
-89.743	800.000	-0.092	0.327
-88.728	53.180	-0.200	-0.188
-87.713	192.751	-0.042	0.062
-86.699	-113.457	0.130	-0.025
-85.684	-16.727	-0.211	0.130
-84.670	800.000	-0.108	-0.378
-83.655	800.000	0.084	-0.340
-82.640	34.339	-0.228	-0.194
-81.626	56.618	0.116	0.110
-80.611	-183.924	-0.439	-0.007
-79.597	-200.000	0.003	-0.183
-78.582	532.422	0.062	0.143
-77.567	72.340	0.047	0.047
-76.553	800.000	-0.012	0.039
-75.538	-131.139	0.081	0.011
-74.524	43.152	-0.058	0.052
-73.509	-200.000	0.019	-0.214
-72.494	-36.125	0.089	-0.047
-71.480	-96.250	-0.124	0.032
-70.465	145.284	-0.195	-0.254
-69.451	2.810	-0.276	-0.196
-68.436	-200.000	0.005	0.166
-67.422	-12.043	-0.143	0.092
-66.407	800.000	-0.103	-0.287
-65.392	800.000	0.114	-0.355
-64.378	-112.945	0.219	0.042
-63.363	47.862	0.141	-0.129
-62.349	-84.972	-0.091	-0.028
-61.334	4.756	-1.472	-1.056
-60.319	-73.624	1.018	0.362
-59.305	311.490	-0.628	-1.150
-58.290	91.052	1.060	1.161
-57.276	213.773	0.783	1.208
-56.261	-200.000	124.986	647.524
-55.246	412.451	1565.524	3247.258
-54.232	142.739	2723.411	3532.671
-53.217	95.925	2163.621	2412.283
-52.203	35.185	1595.999	1365.325
-51.188	26.765	1339.814	1095.493
-50.173	24.225	1302.424	1049.931
-49.159	50.879	1371.973	1268.674
-48.144	48.456	1383.000	1264.149
-47.130	26.806	1331.113	1088.448
-46.115	23.569	1312.214	1053.764
-45.100	23.383	1306.923	1048.375
-44.086	23.381	1304.528	1046.398
-43.071	23.304	1302.216	1044.046
-42.057	23.288	1300.178	1042.280
-41.042	23.324	1298.634	1041.209
-40.027	23.431	1297.470	1040.864
-39.013	23.482	1294.794	1038.976
-37.998	23.304	1293.700	1037.015
-36.984	23.435	1291.861	1036.265
-35.969	23.407	1290.272	1034.788
-34.954	23.485	1288.094	1033.450
-33.940	23.479	1287.542	1032.936
-32.925	23.547	1285.792	1031.885
-31.911	23.570	1284.324	1030.801
-30.896	23.541	1282.785	1029.356
-29.881	23.630	1281.654	1028.923
-28.867	23.557	1280.516	1027.543
-27.852	23.595	1278.948	1026.468
-26.838	23.590	1277.569	1025.291
-25.823	23.596	1276.550	1024.466
-24.809	23.679	1274.410	1023.184
-23.794	23.618	1274.303	1022.709
-22.779	23.599	1272.135	1020.817
-21.765	23.621	1270.875	1019.891
-20.750	23.650	1269.442	1018.869
-19.736	23.573	1268.518	1017.646
-18.721	23.457	1267.504	1016.126
-17.706	23.510	1265.929	1015.129
-16.692	23.404	1265.242	1013.927
-15.677	23.440	1263.704	1012.861
-14.663	23.401	1262.821	1011.892
-13.648	23.423	1261.608	1011.006
-12.633	23.486	1260.434	1010.382
-11.619	23.400	1260.202	1009.668
-10.604	23.493	1259.079	1009.254
-9.590	23.462	1258.144	1008.292
-8.575	23.410	1257.116	1007.133
-7.560	23.440	1256.460	1006.735
-6.546	23.499	1255.650	1006.380
-5.531	23.445	1254.887	1005.422
-4.517	23.439	1254.058	1004.686
-3.502	23.569	1252.699	1004.291
-2.487	23.372	1252.605	1003.061
-1.473	23.431	1248.009	999.675
-0.458	21.928	1232.547	978.874
0.556	16.745	1217.122	941.094
1.571	13.220	1224.650	927.090
2.586	12.556	1240.006	934.860
3.600	12.684	1227.317	925.934
4.615	9.387	1155.053	853.863
5.629	3.174	1084.976	770.934
6.644	0.364	1068.138	745.033
7.659	0.166	1066.342	742.735
8.673	0.083	1065.295	741.531
9.688	0.107	1064.272	740.872
10.702	0.339	1061.778	740.208
11.717	4.153	1065.665	761.628
12.731	10.982	1074.817	801.856
13.746	15.672	1080.635	829.308
14.761	16.827	1081.449	835.558
15.775	16.097	1080.154	830.889
16.790	15.193	1077.939	824.667
17.804	14.421	1076.624	819.792
18.819	14.053	1075.808	817.287
19.834	13.857	1074.690	815.405
20.848	13.613	1073.953	813.572
21.863	13.452	1072.677	811.744
22.877	13.298	1072.104	810.484
23.892	13.218	1071.095	809.261
24.907	13.301	1070.622	809.235
25.921	13.223	1070.186	808.456
26.936	13.326	1069.023	808.005
27.950	13.470	1068.026	807.885
28.965	13.348	1066.508	806.071
29.980	13.431	1065.408	805.574
30.994	13.412	1064.734	804.897
32.009	13.467	1063.579	804.221
33.023	13.394	1062.822	803.226
34.038	13.388	1061.819	802.365
35.053	13.479	1060.408	801.668
36.067	13.298	1060.323	800.659
37.082	13.406	1058.926	800.052
38.096	13.354	1058.823	799.652
39.111	13.454	1057.465	799.038
40.126	13.355	1056.457	797.729
41.140	13.228	1055.527	796.344
42.155	13.268	1054.125	795.410
43.169	13.213	1053.192	794.371
44.184	13.213	1052.408	793.709
45.199	13.234	1051.444	793.015
46.213	13.295	1049.964	792.118
47.228	13.360	1048.894	791.553
48.242	13.269	1048.017	790.387
49.257	13.369	1046.791	789.869
50.271	13.245	1046.309	788.846
51.286	13.323	1045.123	788.253
52.301	13.317	1044.104	787.386
53.315	13.345	1043.157	786.734
54.330	13.279	1042.377	785.760
55.344	13.246	1041.588	784.939
56.359	13.332	1040.661	784.581
57.374	13.197	1039.896	783.295
58.388	13.164	1038.743	782.202
59.403	13.244	1037.849	781.839
60.417	13.223	1037.553	781.444
61.432	13.210	1036.420	780.463
62.447	13.177	1035.346	779.429
63.461	13.096	1035.287	778.934
64.476	13.291	1033.554	778.476
65.490	13.201	1033.005	777.572
66.505	13.157	1032.568	776.968
67.520	13.215	1031.934	776.693
68.534	13.213	1030.917	775.851
69.549	13.130	1030.444	775.038
70.563	13.122	1029.741	774.402
71.578	13.190	1028.630	773.816
72.593	13.051	1027.905	772.553
73.607	13.116	1027.478	772.467
74.622	13.020	1027.262	771.788
75.636	13.070	1026.302	771.230
76.651	13.227	1025.188	771.060
77.666	13.057	1024.904	769.985
78.680	13.033	1024.176	769.258
79.695	13.146	1023.113	768.918
80.709	13.094	1022.982	768.506
81.724	13.207	1022.013	768.237
82.739	13.130	1021.769	767.628
83.753	13.392	1020.344	767.705
84.768	13.248	1019.289	766.175
85.782	13.369	1018.811	766.308
86.797	13.300	1017.746	765.121
87.812	13.405	1016.630	764.701
88.826	13.418	1016.175	764.349
89.841	13.466	1014.836	763.498
90.855	13.389	1014.036	762.474
91.870	13.444	1013.518	762.268
92.884	13.342	1012.831	761.217
93.899	13.362	1011.709	760.395
94.914	13.501	1011.160	760.557
95.928	13.500	1010.157	759.731
96.943	13.354	1009.472	758.477
97.957	13.521	1008.542	758.475
98.972	13.456	1007.617	757.418
99.987	13.485	1006.905	756.947
101.001	13.399	1005.953	755.773
102.016	13.345	1005.169	754.871
103.030	13.476	1004.312	754.753
104.045	13.370	1003.789	753.812
105.060	13.281	1003.164	752.871
106.074	13.358	1001.845	752.164
107.089	13.364	1001.118	751.582
108.103	13.268	999.921	750.178
109.118	13.196	999.430	749.416
110.133	13.285	998.185	748.823
111.147	13.325	997.446	748.383
112.162	13.363	996.532	747.800
113.176	13.421	995.617	747.309
114.191	13.484	994.940	747.022
115.206	13.347	994.340	745.884
116.220	13.350	993.265	745.030
117.235	13.204	992.367	743.630
118.249	13.408	991.687	743.973
119.264	13.437	990.898	743.445
120.279	13.332	990.259	742.428
121.293	13.297	989.201	741.413
122.308	13.324	988.225	740.737
123.322	13.306	987.577	740.107
124.337	13.282	986.365	739.024
125.352	13.335	985.516	738.560
126.366	13.393	984.412	737.928
127.381	13.434	983.567	737.410
128.395	13.414	982.435	736.405
129.410	13.381	981.754	735.685
130.424	13.385	980.889	734.987
131.439	13.343	980.213	734.230
132.454	13.361	979.532	733.736
133.468	13.448	978.432	733.233
134.483	13.399	977.537	732.280
135.497	13.397	976.787	731.643
136.512	13.479	975.751	731.164
137.527	13.349	975.319	730.203
138.541	13.409	974.196	729.563
139.556	13.445	973.475	729.115
140.570	13.393	973.114	728.552
141.585	13.548	972.224	728.502
142.600	13.601	971.193	727.900
143.614	13.498	970.716	727.027
144.629	13.628	969.505	726.625
145.643	13.672	968.661	726.119
146.658	13.433	967.532	724.162
147.673	13.484	967.141	724.031
148.687	13.455	965.871	722.887
149.702	13.514	965.132	722.528
150.716	13.515	964.274	721.826
151.731	13.524	963.980	721.582
152.746	13.489	963.416	720.944
153.760	13.575	962.411	720.500
154.775	13.741	961.982	720.837
155.789	13.572	961.527	719.700
156.804	13.666	960.507	719.282
157.819	13.600	960.186	718.692
158.833	13.766	958.991	718.450
159.848	13.897	957.757	718.031
160.862	13.805	957.107	717.081
161.877	13.560	956.505	715.508
162.892	13.631	955.561	715.045
163.906	13.642	954.340	714.115
164.921	13.590	953.810	713.433
165.935	13.802	952.433	713.251
166.950	13.816	951.604	712.626
167.964	13.600	951.496	711.554
168.979	13.664	949.952	710.611
169.994	13.686	949.489	710.299
171.008	13.644	949.041	709.721
172.023	13.834	947.705	709.471
173.037	13.855	947.216	709.132
174.052	13.780	947.148	708.697
175.067	13.782	945.885	707.699
176.081	13.711	945.779	707.251
177.096	13.831	944.927	707.065
178.110	13.679	944.096	705.731
179.125	13.837	943.693	706.040
180.140	13.883	943.242	705.839
181.154	13.877	943.202	705.718
182.169	13.800	942.117	704.519
183.183	13.921	941.959	704.850
184.198	13.920	940.920	704.007
185.213	14.006	940.042	703.651
186.227	13.948	939.464	702.911
187.242	13.992	938.853	702.577
188.256	13.965	938.290	701.982
189.271	14.024	937.112	701.286
190.286	13.926	936.449	700.315
191.300	13.799	935.997	699.380
192.315	13.837	935.636	699.210
193.329	13.792	935.294	698.702
194.344	13.796	934.229	697.860
195.359	13.907	933.583	697.785
196.373	14.002	932.766	697.509
197.388	14.011	932.617	697.374
198.402	14.195	932.078	697.679
199.417	14.155	931.172	696.771
200.432	14.061	930.973	696.170
201.446	14.154	930.889	696.436
202.461	14.262	929.770	695.985
203.475	14.164	929.401	695.241
204.490	14.140	928.730	694.575
205.504	14.300	927.524	694.281
206.519	14.191	926.622	693.089
207.534	14.197	926.106	692.668
208.548	14.265	925.466	692.410
209.563	14.266	924.652	691.745
210.577	14.348	924.000	691.535
211.592	14.297	923.642	690.995
212.607	14.323	922.982	690.549
213.621	14.323	922.013	689.760
214.636	14.205	921.455	688.795
215.650	14.402	920.598	688.907
216.665	14.564	919.684	688.832
217.680	14.585	919.142	688.451
218.694	14.457	918.535	687.409
219.709	14.480	918.066	687.090
220.723	14.478	917.503	686.600
221.738	14.469	916.772	685.956
222.753	14.516	916.113	685.596
223.767	14.545	915.334	685.069
224.782	14.628	914.971	685.077
225.796	14.577	914.388	684.374
226.811	14.686	913.367	683.995
227.826	14.602	912.796	683.162
228.840	14.591	912.154	682.578
229.855	14.569	911.009	681.568
230.869	14.629	909.986	680.987
231.884	14.556	909.999	680.642
232.899	14.511	908.897	679.571
233.913	14.623	908.387	679.586
234.928	14.490	908.315	678.931
235.942	14.533	907.456	678.403
236.957	14.429	906.980	677.564
237.972	14.539	906.292	677.439
238.986	14.603	905.709	677.202
240.001	14.578	904.814	676.371
241.015	14.567	904.521	676.050
242.030	14.608	903.868	675.665
243.045	14.618	903.356	675.263
244.059	14.815	902.658	675.478
245.074	14.717	901.879	674.442
246.088	14.853	900.795	674.119
247.103	14.695	900.514	673.212
248.117	14.780	900.086	673.174
249.132	14.937	899.491	673.301
250.147	14.976	898.772	672.864
251.161	14.980	898.306	672.469
252.176	14.954	897.451	671.667
253.190	14.958	897.035	671.313
254.205	14.934	896.369	670.658
255.220	15.020	895.783	670.505
256.234	15.032	895.178	670.038
257.249	15.135	894.151	669.623
258.263	15.059	893.481	668.759
259.278	15.079	892.778	668.252
260.293	15.182	892.225	668.193
261.307	15.096	891.856	667.513
262.322	15.302	891.114	667.718
263.336	15.127	890.504	666.505
264.351	15.176	889.510	665.896
265.366	15.267	888.960	665.790
266.380	15.288	888.448	665.430
267.395	15.202	887.824	664.561
268.409	15.237	886.736	663.830
269.424	15.260	886.541	663.716
270.439	15.226	885.887	663.030
271.453	15.335	884.744	662.549
272.468	15.319	884.026	661.890
273.482	15.201	884.232	661.517
274.497	15.369	883.047	661.235
275.512	15.255	882.693	660.463
276.526	15.231	882.678	660.299
277.541	15.422	881.425	660.054
278.555	15.387	881.126	659.632
279.570	15.344	880.488	658.931
280.585	15.473	879.381	658.547
281.599	15.425	878.683	657.778
282.614	15.372	878.209	657.159
283.628	15.383	877.529	656.635
284.643	15.566	876.886	656.812
285.657	15.515	876.444	656.225
286.672	15.465	875.778	655.471
287.687	15.458	875.111	654.884
288.701	15.664	874.154	654.916
289.716	15.522	873.589	653.879
290.730	15.494	873.392	653.565
291.745	15.370	873.161	652.854
292.760	15.776	871.930	653.451
293.774	15.632	871.268	652.341
294.789	15.586	870.660	651.649
295.803	15.671	870.170	651.553
296.818	15.544	869.508	650.506
297.833	15.514	868.669	649.708
298.847	15.675	867.959	649.739
299.862	15.693	867.732	649.584
300.876	15.780	867.272	649.516
301.891	15.783	866.404	648.821
302.906	15.739	865.969	648.269
303.920	15.755	865.110	647.628
304.935	15.990	864.646	648.130
305.949	15.954	864.025	647.465
306.964	15.941	863.350	646.855
307.979	15.939	862.912	646.461
308.993	15.731	862.572	645.352
310.008	15.861	861.852	645.252
311.022	15.776	861.584	644.670
312.037	15.991	860.419	644.566
313.052	16.013	859.939	644.231
314.066	15.875	859.864	643.593
315.081	16.040	858.789	643.360
316.095	15.990	858.303	642.747
317.110	15.855	857.724	641.744
318.125	16.050	857.172	642.017
319.139	16.083	856.646	641.691
320.154	15.914	856.519	640.897
321.168	15.924	855.885	640.404
322.183	16.102	855.374	640.641
323.197	16.035	855.099	640.124
324.212	16.077	854.086	639.467
325.227	16.110	853.241	638.904
326.241	15.979	852.879	638.080
327.256	16.014	852.717	638.033
328.270	15.959	852.197	637.381
329.285	15.978	851.585	636.937
330.300	16.021	850.679	636.367
331.314	16.074	850.359	636.269
332.329	16.117	849.668	635.860
333.343	16.109	849.405	635.576
334.358	16.171	848.778	635.284
335.373	16.230	848.425	635.185
336.387	16.201	848.487	635.068
337.402	16.260	847.949	634.829
338.416	16.134	847.906	634.266
339.431	16.255	847.362	634.261
340.446	16.334	846.460	633.824
341.460	16.254	846.572	633.551
342.475	16.405	845.917	633.572
343.489	16.351	845.667	633.126
344.504	16.421	844.820	632.697
345.519	16.508	844.505	632.732
346.533	16.511	843.472	631.914
347.548	16.382	843.467	631.370
348.562	16.404	842.787	630.891
349.577	16.352	842.354	630.313
350.592	16.434	841.790	630.143
351.606	16.450	840.676	629.314
352.621	16.394	839.988	628.532
353.635	16.518	839.445	628.532
354.650	16.470	838.842	627.849
355.665	16.556	838.085	627.545
356.679	16.644	837.640	627.484
357.694	16.584	836.973	626.702
358.708	16.496	836.713	626.129
359.723	16.611	836.261	626.159
360.738	16.681	835.006	625.424
361.752	16.591	834.526	624.676
362.767	16.534	834.281	624.227
363.781	16.704	833.736	624.392
364.796	16.756	833.268	624.179
365.810	16.795	832.624	623.784
366.825	16.910	832.496	624.056
367.840	16.913	832.108	623.720
368.854	16.846	831.547	622.999
369.869	16.849	831.094	622.614
370.883	16.728	830.932	621.994
371.898	16.824	830.140	621.700
372.913	16.902	829.765	621.651
373.927	16.938	829.480	621.512
374.942	16.891	829.107	621.007
375.956	17.007	828.416	620.860
376.971	17.036	828.210	620.754
377.986	17.054	827.599	620.308
379.000	16.906	827.305	619.491
380.015	17.105	826.699	619.710
381.029	17.131	825.707	619.007
382.044	17.094	825.443	618.617
383.059	17.208	824.693	618.418
384.073	17.131	824.040	617.592
385.088	16.996	823.551	616.680
386.102	17.157	822.970	616.776
387.117	17.053	822.298	615.839
388.132	17.087	822.026	615.705
389.146	17.084	821.620	615.336
390.161	17.074	821.092	614.849
391.175	17.229	820.605	614.990
392.190	17.061	820.145	613.985
393.205	17.123	819.720	613.834
394.219	17.084	819.177	613.234
395.234	17.027	818.801	612.694
396.248	17.000	818.660	612.436
397.263	17.064	818.166	612.242
398.278	17.210	817.670	612.344
399.292	17.088	817.045	611.382
400.307	17.157	816.888	611.457
401.321	17.152	816.369	610.999
402.336	17.327	815.503	610.924
403.350	17.337	815.165	610.652
404.365	17.353	814.861	610.428
405.380	17.467	814.030	610.161
406.394	17.401	813.611	609.558
407.409	17.499	813.030	609.418
408.423	17.605	812.934	609.670
409.438	17.400	812.871	608.837
410.453	17.522	812.111	608.649
411.467	17.558	811.580	608.325
412.482	17.634	811.220	608.275
413.496	17.745	811.177	608.586
414.511	17.629	810.370	607.510
415.526	17.614	810.197	607.274
416.540	17.555	809.492	606.482
417.555	17.660	809.139	606.538
418.569	17.624	808.758	606.072
419.584	17.749	808.034	605.918
420.599	17.697	807.649	605.392
421.613	113.369	1299.250	1485.495
422.628	97.912	1370.818	1485.574
