DTS Sentinel unit serial number:	SN413079Multiplexer serial number:	ORYXHardware model number:	OX4-SRSoftware version number:	ORYX F/W v4.00 Oryx Data Collector v3.7.2.0data status	okinstallation	princeton_trtdifferential loss correction	single-endedforward channel	channel 1reverse channel	N/Adate	2019/09/13time	00:58:35forward acquisition time	60.00reverse acquisition time	0.00gamma	496.2192k internal	0.2330k external	0.2330temperature offset calibration	1.0140default loss term (dB/km)	0.3790temperature slope calibration	1.0000multiplexer offset coefficient	1.0000multiplexer slope coefficient	1.0000fibre end	0.00T internal ref (°C)	28.06T ext. ref 1 (°C)	3.65T ext. ref 2 (°C)	22.60length (m)	temperature (°C)	Stokes	anti-Stokes-747.200	472.750	-0.057	0.130
-746.185	58.742	0.214	0.211
-745.171	-62.949	-0.185	-0.077
-744.156	-67.136	0.084	-0.033
-743.142	531.200	-0.047	0.113
-742.127	301.257	-0.084	0.157
-741.112	-111.848	-0.132	0.027
-740.098	-70.904	-0.092	-0.035
-739.083	-200.000	0.019	0.142
-738.069	-67.939	-0.234	0.092
-737.054	702.026	-0.185	0.489
-736.039	-8.242	-0.363	-0.246
-735.025	-22.479	0.129	0.079
-734.010	-200.000	0.008	-0.236
-732.996	14.852	0.126	-0.099
-731.981	800.000	0.064	0.272
-730.966	47.096	-0.197	-0.184
-729.952	-200.000	-0.029	0.406
-728.937	800.000	-0.045	0.193
-727.923	-135.996	-0.272	-0.032
-726.908	31.779	-0.200	-0.173
-725.894	-28.614	0.113	-0.065
-724.879	-200.000	-0.029	0.263
-723.864	137.279	0.109	0.143
-722.850	662.738	-0.085	0.220
-721.835	212.734	-0.154	0.245
-720.821	-131.063	-0.293	0.039
-719.806	-101.721	0.122	-0.030
-718.791	-200.000	0.042	0.236
-717.777	-43.416	-0.056	0.028
-716.762	464.195	0.077	0.172
-715.748	-50.247	0.258	-0.123
-714.733	454.625	-0.204	-0.455
-713.718	-32.970	-0.161	-0.090
-712.704	-49.360	-0.263	-0.126
-711.689	36.712	0.039	0.034
-710.675	13.623	0.256	-0.200
-709.660	268.622	0.147	-0.259
-708.645	611.292	0.098	0.246
-707.631	-105.016	-0.415	0.096
-706.616	-46.369	-0.078	0.039
-705.602	800.000	-0.104	0.387
-704.587	523.068	0.162	-0.384
-703.572	115.718	0.251	-0.309
-702.558	-200.000	0.000	0.230
-701.543	-200.000	0.060	0.289
-700.529	-72.834	0.140	-0.052
-699.514	-139.376	-0.015	-0.002
-698.499	-174.046	-0.156	-0.005
-697.485	26.825	-0.188	-0.158
-696.470	800.000	0.087	-0.287
-695.456	-50.193	-0.164	0.078
-694.441	678.535	-0.026	-0.068
-693.426	15.138	-0.050	-0.039
-692.412	-200.000	-0.021	0.153
-691.397	706.966	0.108	-0.287
-690.383	36.551	0.273	-0.242
-689.368	-200.000	-0.000	0.104
-688.354	640.449	-0.076	-0.194
-687.339	-200.000	-0.002	-0.182
-686.324	476.968	0.055	-0.126
-685.310	-86.612	0.098	0.030
-684.295	-30.385	0.491	0.280
-683.281	-73.418	0.067	-0.024
-682.266	44.376	-0.014	-0.013
-681.251	120.034	-0.063	0.078
-680.237	-41.476	0.132	0.068
-679.222	-97.668	0.302	0.079
-678.208	-37.482	0.242	0.130
-677.193	-57.174	0.276	-0.122
-676.178	-200.000	0.038	-0.293
-675.164	-86.770	-0.329	-0.101
-674.149	-200.000	-0.026	-0.157
-673.135	-200.000	-0.005	-0.458
-672.120	-129.384	0.116	-0.016
-671.105	-132.838	0.236	-0.030
-670.091	-102.648	-0.107	-0.026
-669.076	738.390	-0.070	-0.188
-668.062	-75.655	0.232	-0.083
-667.047	800.000	0.084	-0.237
-666.032	181.384	-0.097	0.143
-665.018	17.136	0.311	-0.247
-664.003	-27.935	-0.341	-0.198
-662.989	104.924	-0.211	-0.250
-661.974	357.305	0.030	-0.061
-660.959	-71.083	0.355	0.134
-659.945	97.358	0.029	0.034
-658.930	41.870	-0.269	-0.245
-657.916	20.546	0.080	-0.065
-656.901	79.733	-0.096	-0.103
-655.886	33.254	-0.178	0.155
-654.872	84.732	0.102	-0.112
-653.857	-112.225	0.355	-0.072
-652.843	273.608	0.178	0.316
-651.828	800.000	-0.045	-0.124
-650.814	-200.000	-0.024	-0.215
-649.799	-200.000	-0.083	-0.387
-648.784	169.617	-0.116	0.167
-647.770	29.968	0.263	-0.225
-646.755	310.810	-0.057	-0.107
-645.741	-47.271	-0.170	-0.083
-644.726	-80.842	0.343	-0.114
-643.711	218.629	-0.058	-0.094
-642.697	-28.757	0.227	0.131
-641.682	532.580	-0.053	0.126
-640.668	-200.000	0.014	-0.144
-639.653	396.258	-0.101	-0.211
-638.638	-82.694	-0.212	0.069
-637.624	-200.000	-0.036	-0.173
-636.609	475.361	-0.029	0.067
-635.595	119.998	-0.226	-0.281
-634.580	20.166	-0.269	-0.218
-633.565	87.064	-0.330	0.365
-632.551	-200.000	0.013	0.104
-631.536	187.104	0.063	0.094
-630.522	161.076	0.174	-0.244
-629.507	525.682	0.184	-0.435
-628.492	119.437	-0.128	-0.158
-627.478	-200.000	0.041	-0.236
-626.463	-98.955	-0.084	-0.021
-625.449	-96.609	-0.183	-0.048
-624.434	-165.209	0.099	0.004
-623.419	800.000	-0.023	0.092
-622.405	800.000	-0.030	-0.121
-621.390	-200.000	0.001	-0.399
-620.376	-58.986	-0.195	0.085
-619.361	-173.066	-0.106	-0.003
-618.346	-37.213	-0.333	0.178
-617.332	443.401	-0.017	-0.038
-616.317	269.247	0.067	-0.117
-615.303	-200.000	0.059	-0.273
-614.288	-200.000	-0.004	-0.217
-613.273	-188.408	-0.331	-0.004
-612.259	800.000	-0.008	-0.024
-611.244	-200.000	-0.036	-0.215
-610.230	-80.626	0.124	-0.041
-609.215	-133.504	-0.299	0.038
-608.201	800.000	-0.044	0.147
-607.186	152.240	0.010	0.013
-606.171	121.777	0.062	0.078
-605.157	-88.524	-0.181	-0.054
-604.142	800.000	-0.016	-0.061
-603.128	536.904	0.114	-0.271
-602.113	-89.484	-0.200	0.059
-601.098	-129.648	-0.350	-0.048
-600.084	-28.081	-0.218	-0.126
-599.069	-63.958	0.174	-0.071
-598.055	268.604	0.071	0.126
-597.040	91.318	0.086	-0.097
-596.025	-146.639	-0.201	-0.017
-595.011	-3.784	0.365	0.254
-593.996	-200.000	-0.008	0.228
-592.982	48.236	0.309	0.289
-591.967	-200.000	-0.043	0.361
-590.952	54.660	0.213	0.206
-589.938	140.686	0.135	-0.179
-588.923	-200.000	-0.004	-0.128
-587.909	662.837	-0.109	0.283
-586.894	-82.963	-0.353	0.114
-585.879	-163.368	-0.188	0.009
-584.865	-89.310	0.173	0.051
-583.850	-200.000	-0.077	-0.343
-582.836	52.933	-0.216	-0.207
-581.821	-124.737	0.543	-0.084
-580.806	-200.000	-0.006	0.043
-579.792	1.743	0.224	0.162
-578.777	800.000	0.061	0.249
-577.763	-44.266	-0.398	0.199
-576.748	49.669	0.286	-0.269
-575.733	800.000	0.031	0.109
-574.719	-50.746	-0.125	0.059
-573.704	-91.954	0.218	0.062
-572.690	-200.000	0.040	0.308
-571.675	-116.642	0.168	0.031
-570.661	120.802	0.187	-0.233
-569.646	800.000	-0.042	0.136
-568.631	-66.420	0.086	-0.034
-567.617	-200.000	0.011	-0.372
-566.602	800.000	-0.080	-0.336
-565.588	-200.000	0.567	-0.001
-564.573	800.000	-0.057	0.208
-563.558	-87.291	0.457	-0.139
-562.544	20.432	-0.275	-0.222
-561.529	321.023	-0.156	0.297
-560.515	95.722	-0.170	0.194
-559.500	20.005	-0.155	-0.125
-558.485	-200.000	0.035	-0.303
-557.471	243.723	0.114	-0.191
-556.456	800.000	-0.053	0.213
-555.442	46.524	-0.090	0.084
-554.427	-200.000	0.035	-0.246
-553.412	800.000	-0.063	-0.239
-552.398	-149.713	0.629	-0.049
-551.383	178.969	-0.098	-0.144
-550.369	26.476	0.031	-0.026
-549.354	800.000	-0.069	-0.260
-548.339	261.685	-0.137	-0.237
-547.325	-134.450	0.199	0.024
-546.310	692.581	0.080	-0.209
-545.296	-97.453	-0.166	0.043
-544.281	-200.000	0.025	0.148
-543.266	29.704	-0.247	0.210
-542.252	497.963	-0.067	0.153
-541.237	-37.840	-0.042	-0.022
-540.223	-104.528	0.098	-0.023
-539.208	-200.000	-0.003	-0.057
-538.193	73.511	-0.186	0.195
-537.179	261.819	0.040	-0.069
-536.164	184.420	0.228	-0.338
-535.150	72.134	0.118	0.123
-534.135	-5.111	0.232	-0.159
-533.121	242.232	0.013	-0.022
-532.106	-94.202	-0.360	-0.098
-531.091	-200.000	-0.021	0.283
-530.077	133.711	0.149	0.192
-529.062	800.000	-0.052	-0.216
-528.048	-46.597	-0.341	-0.167
-527.033	-91.082	0.006	-0.002
-526.018	-83.224	0.241	-0.077
-525.004	-138.892	0.196	-0.021
-523.989	517.648	0.151	-0.352
-522.975	-111.179	-0.202	-0.041
-521.960	-21.584	0.138	0.084
-520.945	-200.000	0.039	-0.250
-519.931	-103.850	-0.201	0.047
-518.916	-0.476	0.240	0.170
-517.902	-23.834	0.338	0.202
-516.887	-45.028	-0.016	0.008
-515.872	-65.649	-0.339	-0.136
-514.858	-86.981	-0.290	-0.088
-513.843	-200.000	-0.029	-0.214
-512.829	-65.675	-0.077	0.031
-511.814	-197.082	-0.415	0.003
-510.799	-103.268	-0.399	-0.094
-509.785	18.152	-0.159	-0.127
-508.770	105.239	0.161	-0.190
-507.756	-200.000	-0.024	-0.111
-506.741	285.239	-0.102	-0.184
-505.726	-63.136	-0.155	-0.064
-504.712	-46.926	-0.099	0.048
-503.697	-200.000	0.031	0.355
-502.683	-116.295	-0.241	-0.044
-501.668	4.098	-0.123	-0.090
-500.653	38.441	-0.304	0.270
-499.639	-200.000	0.042	0.314
-498.624	12.750	-0.231	0.178
-497.610	-20.660	0.365	0.223
-496.595	529.464	-0.085	0.199
-495.581	396.026	-0.168	-0.351
-494.566	-116.883	-0.060	0.011
-493.551	800.000	0.039	-0.129
-492.537	800.000	-0.032	0.132
-491.522	-200.000	-0.007	-0.124
-490.508	-81.504	-0.179	0.059
-489.493	-200.000	0.059	-0.369
-488.478	44.785	0.165	0.152
-487.464	-14.858	0.157	0.101
-486.449	-200.000	0.028	-0.265
-485.435	-200.000	0.044	-0.292
-484.420	428.343	-0.071	-0.154
-483.405	-41.472	0.070	-0.036
-482.391	-200.000	-0.003	-0.161
-481.376	463.198	-0.086	-0.192
-480.362	-112.664	-0.361	-0.072
-479.347	-55.636	0.411	-0.184
-478.332	-116.428	-0.352	-0.065
-477.318	40.104	0.210	-0.189
-476.303	-95.202	-0.256	-0.069
-475.289	800.000	0.047	0.144
-474.274	138.391	0.204	-0.266
-473.259	800.000	-0.059	0.231
-472.245	-200.000	0.046	-0.227
-471.230	-152.663	-0.203	-0.014
-470.216	287.707	0.124	0.224
-469.201	800.000	-0.027	-0.098
-468.186	580.322	-0.007	0.017
-467.172	12.653	-0.317	-0.244
-466.157	89.862	0.282	0.314
-465.143	-118.797	0.163	0.029
-464.128	30.053	0.177	-0.151
-463.113	708.497	0.064	-0.170
-462.099	32.279	-0.102	0.087
-461.084	-8.276	0.348	-0.233
-460.070	-96.363	-0.428	0.113
-459.055	-200.000	0.037	-0.272
-458.040	-23.776	0.262	-0.156
-457.026	-6.355	-0.226	0.153
-456.011	-200.000	0.035	0.323
-454.997	-118.981	-0.237	0.041
-453.982	-152.461	-0.313	-0.022
-452.968	-200.000	0.004	-0.132
-451.953	-42.296	-0.139	-0.071
-450.938	-51.421	-0.440	0.205
-449.924	800.000	-0.083	0.324
-448.909	-96.732	-0.100	-0.026
-447.895	-3.999	0.107	-0.074
-446.880	-190.909	-0.099	0.001
-445.865	-200.000	-0.033	0.332
-444.851	-96.101	-0.038	0.010
-443.836	212.512	0.070	0.110
-442.822	508.630	0.156	0.362
-441.807	-113.969	0.294	0.057
-440.792	-133.525	0.271	-0.034
-439.778	-73.144	-0.158	0.058
-438.763	-200.000	0.019	-0.095
-437.749	86.972	0.143	0.158
-436.734	297.134	0.152	0.277
-435.719	128.545	-0.297	-0.376
-434.705	99.244	0.057	0.065
-433.690	-20.381	0.229	0.140
-432.676	507.852	0.100	-0.230
-431.661	706.030	-0.066	0.174
-430.646	95.662	-0.169	0.192
-429.632	-29.112	-0.126	-0.072
-428.617	563.430	-0.165	0.398
-427.603	5.743	0.287	-0.211
-426.588	-100.355	-0.179	-0.044
-425.573	109.806	-0.145	-0.173
-424.559	66.309	0.250	0.252
-423.544	-190.330	-0.472	-0.005
-422.530	-173.491	-0.386	-0.012
-421.515	-200.000	-0.071	-0.366
-420.500	-200.000	0.027	0.174
-419.486	-200.000	0.006	0.082
-418.471	10.376	0.121	-0.092
-417.457	230.922	-0.185	0.301
-416.442	-75.797	0.220	0.077
-415.428	211.027	0.201	0.314
-414.413	-200.000	0.022	0.147
-413.398	114.918	-0.078	-0.095
-412.384	-58.174	0.142	0.061
-411.369	197.953	0.282	-0.429
-410.355	715.971	-0.152	0.401
-409.340	84.536	0.132	-0.144
-408.325	83.115	-0.298	-0.322
-407.311	800.000	-0.035	-0.138
-406.296	-200.000	0.003	0.044
-405.282	60.843	0.061	-0.060
-404.267	300.951	-0.075	0.137
-403.252	1.349	0.279	-0.199
-402.238	-61.955	-0.228	0.095
-401.223	9.834	0.075	-0.056
-400.209	102.140	0.290	-0.336
-399.194	-0.155	0.048	-0.034
-398.179	-110.225	0.237	-0.049
-397.165	-200.000	-0.021	0.220
-396.150	-200.000	0.028	-0.211
-395.136	-50.017	0.330	-0.155
-394.121	-98.528	-0.256	0.065
-393.106	100.349	0.106	0.122
-392.092	-33.512	0.060	0.033
-391.077	323.657	-0.122	0.232
-390.063	-70.416	-0.302	0.114
-389.048	329.946	-0.039	-0.074
-388.033	-130.845	0.097	-0.013
-387.019	46.550	-0.087	-0.080
-386.004	473.286	0.076	-0.169
-384.990	-70.293	0.228	0.086
-383.975	-200.000	0.013	-0.058
-382.960	-36.578	-0.402	0.214
-381.946	332.285	0.233	0.447
-380.931	510.895	-0.096	0.223
-379.917	142.986	0.117	-0.154
-378.902	-109.080	0.019	0.004
-377.888	56.179	0.139	-0.134
-376.873	-200.000	-0.028	-0.142
-375.858	-14.584	0.116	0.074
-374.844	-47.980	0.180	-0.086
-373.829	-100.984	-0.517	0.126
-372.815	134.842	-0.079	-0.101
-371.800	-28.554	0.024	0.014
-370.785	-200.000	0.004	0.048
-369.771	-83.344	0.129	0.041
-368.756	71.660	0.142	0.147
-367.742	-78.917	-0.366	0.124
-366.727	-200.000	0.052	-0.233
-365.712	596.261	0.055	-0.135
-364.698	57.935	0.211	-0.205
-363.683	-68.044	-0.168	0.065
-362.669	30.103	0.218	-0.185
-361.654	-121.106	-0.121	-0.020
-360.639	800.000	0.157	0.433
-359.625	115.036	-0.208	-0.252
-358.610	74.436	-0.164	-0.171
-357.596	-119.845	0.329	-0.056
-356.581	30.354	0.080	-0.067
-355.566	350.146	0.246	0.482
-354.552	800.000	0.058	-0.232
-353.537	-27.201	0.338	0.195
-352.523	-54.652	0.273	-0.122
-351.508	19.685	0.200	0.160
-350.493	-45.465	0.290	-0.142
-349.479	800.000	0.086	0.373
-348.464	56.542	0.068	0.065
-347.450	220.415	0.074	0.118
-346.435	419.987	-0.053	-0.112
-345.420	477.424	-0.143	0.322
-344.406	-84.587	0.257	-0.080
-343.391	161.160	-0.156	-0.216
-342.377	-126.261	-0.173	0.026
-341.362	-43.772	-0.125	0.063
-340.348	-108.502	-0.259	-0.055
-339.333	29.404	-0.087	0.073
-338.318	-78.339	0.179	-0.061
-337.304	800.000	0.049	0.205
-336.289	615.300	0.023	0.058
-335.275	-26.304	0.168	0.098
-334.260	800.000	-0.062	0.264
-333.245	119.998	0.132	-0.163
-332.231	-116.785	0.046	-0.008
-331.216	13.307	0.116	0.089
-330.202	-12.579	-0.025	-0.016
-329.187	85.010	-0.110	-0.119
-328.172	-118.794	0.121	0.021
-327.158	107.145	-0.217	-0.255
-326.143	800.000	0.048	-0.141
-325.129	-39.906	0.122	-0.063
-324.114	54.093	0.088	-0.084
-323.099	-200.000	0.123	0.686
-322.085	-125.060	0.182	-0.028
-321.070	91.202	0.087	0.096
-320.056	196.342	0.173	0.261
-319.041	800.000	0.050	-0.215
-318.026	800.000	0.076	-0.279
-317.012	-87.794	0.102	-0.030
-315.997	462.443	-0.125	-0.276
-314.983	64.392	0.169	-0.169
-313.968	-111.007	0.076	-0.015
-312.953	-52.251	-0.322	-0.148
-311.939	-123.360	-0.152	0.024
-310.924	57.698	0.232	-0.225
-309.910	225.739	0.156	0.250
-308.895	-119.589	0.097	-0.017
-307.880	-122.070	-0.064	-0.010
-306.866	158.305	0.179	0.246
-305.851	522.941	-0.053	-0.124
-304.837	10.712	0.219	0.166
-303.822	-144.491	0.154	0.014
-302.807	502.636	0.062	0.141
-301.793	104.580	-0.044	-0.051
-300.778	92.134	-0.161	0.180
-299.764	48.272	-0.259	-0.240
-298.749	11.848	-0.135	0.103
-297.735	-98.027	0.134	-0.034
-296.720	-200.000	0.014	-0.123
-295.705	737.162	-0.013	0.034
-294.691	336.409	-0.085	-0.163
-293.676	564.893	0.120	-0.288
-292.662	-96.906	-0.138	0.036
-291.647	-200.000	0.008	-0.196
-290.632	208.649	0.071	0.110
-289.618	800.000	0.045	0.126
-288.603	44.163	0.178	0.161
-287.589	235.897	-0.134	-0.220
-286.574	-26.287	-0.069	0.040
-285.559	-200.000	-0.009	0.102
-284.545	-52.469	-0.199	0.091
-283.530	-200.000	0.049	0.324
-282.516	17.631	0.292	0.230
-281.501	-200.000	0.074	0.418
-280.486	-159.704	-0.125	-0.007
-279.472	-13.220	0.055	-0.035
-278.457	-200.000	-0.004	0.104
-277.443	-200.000	0.005	0.034
-276.428	480.190	0.026	0.058
-275.413	-52.232	-0.313	0.144
-274.399	-200.000	-0.038	-0.172
-273.384	-173.048	-0.139	-0.004
-272.370	143.973	0.314	0.414
-271.355	-51.356	-0.287	-0.133
-270.340	107.913	0.089	-0.105
-269.326	-101.854	-0.323	0.077
-268.311	-122.685	0.207	0.033
-267.297	-200.000	-0.003	0.218
-266.282	57.636	0.105	0.101
-265.267	-66.717	0.200	-0.078
-264.253	69.672	0.074	0.075
-263.238	-200.000	-0.013	-0.195
-262.224	511.915	0.074	0.170
-261.209	-46.586	0.195	0.095
-260.195	-132.358	0.176	-0.022
-259.180	-200.000	0.118	0.546
-258.165	-61.384	0.033	-0.014
-257.151	-200.000	0.038	0.216
-256.136	81.731	-0.100	0.107
-255.122	352.332	-0.114	-0.224
-254.107	25.810	-0.324	-0.267
-253.092	312.927	0.087	-0.162
-252.078	188.133	0.194	-0.287
-251.063	-27.038	-0.150	-0.086
-250.049	-140.120	-0.047	-0.005
-249.034	-117.921	-0.202	-0.036
-248.019	20.839	0.200	0.160
-247.005	-165.951	-0.413	-0.017
-245.990	32.936	0.229	0.196
-244.976	46.757	0.282	0.259
-243.961	-71.405	0.129	-0.048
-242.946	545.149	-0.090	-0.213
-241.932	-200.000	0.066	0.315
-240.917	224.971	0.081	-0.129
-239.903	-64.003	0.098	0.040
-238.888	152.265	-0.158	0.214
-237.873	-150.866	-0.131	0.010
-236.859	24.886	0.069	0.056
-235.844	-88.422	0.228	0.067
-234.830	-200.000	-0.002	0.278
-233.815	-72.626	-0.168	-0.061
-232.800	-122.674	0.036	-0.006
-231.786	-23.309	-0.363	0.216
-230.771	-200.000	0.041	0.180
-229.757	93.150	0.191	-0.213
-228.742	-69.180	0.186	0.070
-227.727	391.003	-0.060	0.123
-226.713	441.526	0.127	0.274
-225.698	800.000	0.077	0.226
-224.684	-122.916	0.372	0.059
-223.669	81.812	0.137	-0.147
-222.655	-80.773	0.345	-0.113
-221.640	214.421	-0.021	-0.033
-220.625	-7.513	-0.158	-0.105
-219.611	-56.758	-0.182	0.080
-218.596	59.700	0.229	-0.222
-217.582	-136.800	-0.401	0.046
-216.567	-200.000	-0.017	0.128
-215.552	-175.680	-0.234	0.006
-214.538	449.389	0.184	-0.400
-213.523	-111.016	-0.129	-0.026
-212.509	-68.419	-0.240	-0.092
-211.494	24.107	0.065	0.053
-210.479	-79.700	0.173	0.058
-209.465	-200.000	0.024	-0.156
-208.450	-49.294	0.138	-0.065
-207.436	800.000	0.032	0.110
-206.421	-70.014	0.183	-0.069
-205.406	-113.850	-0.219	-0.042
-204.392	38.544	-0.012	0.011
-203.377	800.000	0.044	0.121
-202.363	-200.000	0.004	-0.209
-201.348	218.775	0.099	-0.156
-200.333	-200.000	0.096	-0.471
-199.319	-177.727	-0.087	-0.002
-198.304	-121.373	0.065	0.011
-197.290	-200.000	-0.008	-0.177
-196.275	96.042	0.201	-0.226
-195.260	565.350	-0.046	-0.111
-194.246	-200.000	-0.073	-0.415
-193.231	-200.000	-0.011	-0.183
-192.217	279.831	-0.120	0.211
-191.202	-200.000	0.026	0.336
-190.187	-60.591	-0.200	0.084
-189.173	-59.130	0.167	0.071
-188.158	800.000	0.027	0.081
-187.144	210.375	-0.188	-0.291
-186.129	-135.298	-0.086	0.010
-185.114	-200.000	-0.031	0.206
-184.100	-200.000	0.048	0.272
-183.085	436.209	-0.042	-0.090
-182.071	800.000	-0.075	0.275
-181.056	421.354	0.114	0.240
-180.042	284.151	-0.192	0.339
-179.027	59.488	-0.088	-0.085
-178.012	4.820	-0.213	0.154
-176.998	-16.917	0.129	-0.080
-175.983	482.622	0.073	0.164
-174.969	-97.844	-0.047	0.012
-173.954	800.000	-0.040	0.155
-172.939	696.888	0.011	0.028
-171.925	22.984	0.142	0.115
-170.910	-58.878	-0.177	-0.075
-169.896	-97.270	0.147	-0.038
-168.881	-112.382	-0.388	0.076
-167.866	56.784	-0.133	-0.127
-166.852	800.000	-0.050	0.157
-165.837	324.156	-0.215	0.404
-164.823	79.852	-0.128	0.136
-163.808	151.062	-0.224	-0.300
-162.793	-99.053	0.308	-0.077
-161.779	-200.000	0.028	0.184
-160.764	-200.000	-0.032	0.274
-159.750	-200.000	0.043	-0.207
-158.735	800.000	0.071	0.195
-157.720	800.000	0.059	0.254
-156.706	-200.000	0.000	0.054
-155.691	147.892	-0.090	0.120
-154.677	41.250	0.148	-0.131
-153.662	123.938	0.259	0.320
-152.647	-25.217	-0.110	-0.064
-151.633	407.893	0.054	-0.113
-150.618	-23.098	-0.304	0.180
-149.604	-52.511	-0.277	0.126
-148.589	102.986	0.103	-0.119
-147.574	753.524	-0.058	0.154
-146.560	-200.000	0.001	0.235
-145.545	-200.000	-0.001	-0.010
-144.531	469.395	-0.161	0.355
-143.516	417.767	0.148	-0.312
-142.502	81.234	0.107	0.114
-141.487	800.000	0.110	-0.442
-140.472	-200.000	-0.033	-0.329
-139.458	-200.000	0.020	-0.226
-138.443	800.000	0.079	0.331
-137.429	127.740	-0.226	-0.282
-136.414	66.452	-0.064	0.064
-135.399	380.869	-0.006	-0.012
-134.385	800.000	-0.053	0.189
-133.370	-50.919	-0.272	0.126
-132.356	67.223	-0.104	-0.104
-131.341	-75.214	-0.277	0.097
-130.326	-102.238	-0.257	0.061
-129.312	-88.630	-0.385	-0.113
-128.297	-200.000	-0.005	0.289
-127.283	800.000	-0.107	-0.292
-126.268	506.898	0.121	0.276
-125.253	-200.000	-0.025	0.391
-124.239	-98.469	0.265	-0.067
-123.224	800.000	-0.145	-0.407
-122.210	-65.614	0.115	-0.045
-121.195	-14.784	-0.065	0.041
-120.180	-200.000	-0.017	-0.194
-119.166	-53.908	0.148	-0.066
-118.151	65.326	0.094	0.094
-117.137	-200.000	0.019	-0.223
-116.122	-82.008	0.233	0.075
-115.107	-200.000	-0.024	0.363
-114.093	124.214	-0.150	-0.185
-113.078	800.000	0.038	0.111
-112.064	-200.000	-0.053	-0.386
-111.049	-47.400	-0.365	0.174
-110.034	29.235	-0.091	0.076
-109.020	29.427	-0.229	0.192
-108.005	228.973	0.118	0.189
-106.991	54.705	-0.175	0.166
-105.976	800.000	0.086	-0.259
-104.962	-11.016	0.159	-0.103
-103.947	-92.323	0.339	0.094
-102.932	36.911	0.079	-0.069
-101.918	-127.608	0.301	-0.043
-100.903	800.000	-0.089	0.284
-99.889	-200.000	-0.008	-0.102
-98.874	147.840	0.208	0.275
-97.859	147.874	-0.109	0.144
-96.845	-78.650	0.168	-0.056
-95.830	454.954	0.038	-0.083
-94.816	210.838	-0.134	-0.207
-93.801	-109.997	-0.177	0.036
-92.786	113.398	-0.185	0.221
-91.772	22.053	-0.214	-0.171
-90.757	-119.286	0.196	-0.033
-89.743	131.667	0.101	0.127
-88.728	67.327	0.090	0.090
-87.713	-97.691	0.227	0.058
-86.699	67.118	0.029	-0.029
-85.684	-95.192	-0.300	0.079
-84.670	-76.788	0.158	0.054
-83.655	59.450	0.085	0.083
-82.640	472.000	-0.078	-0.172
-81.626	-200.000	-0.009	0.307
-80.611	329.264	-0.058	-0.109
-79.597	-167.296	0.067	0.003
-78.582	-77.140	-0.227	-0.078
-77.567	-21.031	-0.081	-0.049
-76.553	-31.648	0.306	0.168
-75.538	-200.000	-0.020	-0.135
-74.524	-7.480	0.145	0.096
-73.509	-58.500	0.350	-0.149
-72.494	407.981	0.122	0.254
-71.480	-74.853	0.136	0.048
-70.465	79.657	-0.043	-0.045
-69.451	-105.956	-0.304	0.067
-68.436	-200.000	0.075	0.364
-67.422	-32.692	-0.398	-0.217
-66.407	551.660	0.202	-0.475
-65.392	71.088	-0.151	-0.154
-64.378	-57.464	0.132	0.057
-63.363	-200.000	-0.039	0.229
-62.349	-40.883	0.246	0.125
-61.334	-65.344	-1.320	-0.521
-60.319	215.024	0.426	0.662
-59.305	570.568	-0.462	-1.103
-58.290	262.732	0.498	0.847
-57.276	432.689	0.778	1.654
-56.261	-200.000	113.718	643.895
-55.246	532.992	1517.305	3521.453
-54.232	178.883	2682.238	3843.358
-53.217	110.757	2147.596	2532.496
-52.203	39.661	1597.080	1403.853
-51.188	31.461	1343.937	1131.907
-50.173	28.602	1305.103	1082.320
-49.159	56.000	1362.089	1295.228
-48.144	54.489	1376.727	1300.031
-47.130	31.652	1331.479	1122.380
-46.115	28.245	1314.465	1087.793
-45.100	27.962	1309.548	1082.005
-44.086	27.966	1306.908	1079.802
-43.071	27.839	1304.886	1077.338
-42.057	27.822	1302.767	1075.452
-41.042	27.966	1300.985	1074.784
-40.027	27.915	1299.600	1073.297
-39.013	27.951	1297.570	1071.790
-37.998	28.012	1295.432	1070.335
-36.984	28.101	1293.590	1069.290
-35.969	28.073	1291.884	1067.679
-34.954	28.113	1289.933	1066.254
-33.940	28.094	1289.038	1065.361
-32.925	28.059	1287.688	1064.001
-31.911	28.072	1286.447	1063.008
-30.896	28.160	1284.691	1062.023
-29.881	28.196	1283.395	1061.122
-28.867	28.178	1282.003	1059.823
-27.852	28.199	1280.977	1059.057
-26.838	28.134	1279.299	1057.252
-25.823	28.182	1278.276	1056.641
-24.809	28.171	1276.899	1055.395
-23.794	28.126	1275.653	1054.063
-22.779	28.050	1274.593	1052.712
-21.765	28.128	1272.726	1051.576
-20.750	28.102	1271.772	1050.596
-19.736	28.105	1270.307	1049.360
-18.721	28.104	1268.692	1047.980
-17.706	27.999	1268.553	1047.220
-16.692	28.089	1266.434	1045.946
-15.677	28.076	1265.737	1045.256
-14.663	27.996	1264.950	1044.103
-13.648	27.970	1263.904	1043.050
-12.633	28.064	1262.896	1042.713
-11.619	28.107	1261.926	1042.115
-10.604	27.924	1261.415	1040.610
-9.590	27.937	1260.247	1039.682
-8.575	27.904	1259.047	1038.463
-7.560	28.042	1257.995	1038.338
-6.546	28.004	1257.169	1037.396
-5.531	27.920	1256.600	1036.410
-4.517	27.975	1255.885	1036.090
-3.502	28.031	1254.548	1035.263
-2.487	28.080	1253.302	1034.470
-1.473	28.001	1249.697	1031.011
-0.458	26.394	1234.008	1009.065
0.556	24.166	1216.979	970.744
1.571	20.242	1222.783	953.757
2.586	19.283	1237.603	959.892
3.600	19.108	1225.251	949.266
4.615	14.628	1155.210	871.574
5.629	7.164	1082.811	780.225
6.644	3.997	1064.155	751.358
7.659	3.553	1062.395	747.900
8.673	3.542	1060.525	746.464
9.688	3.528	1058.807	745.121
10.702	3.845	1057.205	745.453
11.717	8.771	1063.365	773.569
12.731	16.929	1074.969	821.623
13.746	21.749	1081.810	850.225
14.761	22.720	1082.270	855.219
15.775	22.064	1080.613	850.656
16.790	21.155	1079.118	845.008
17.804	20.618	1077.582	841.131
18.819	20.403	1076.918	839.500
19.834	20.491	1076.635	839.631
20.848	20.351	1076.083	838.449
21.863	20.310	1075.169	837.466
22.877	20.081	1074.126	835.477
23.892	20.018	1073.469	834.585
24.907	20.019	1072.322	833.627
25.921	19.997	1071.131	832.522
26.936	19.769	1070.566	830.913
27.950	19.932	1068.808	830.257
28.965	20.045	1067.801	829.945
29.980	20.188	1066.232	829.336
30.994	20.367	1065.329	829.412
32.009	20.423	1064.154	828.690
33.023	20.314	1062.997	827.200
34.038	20.248	1062.445	826.381
35.053	20.002	1061.659	824.526
36.067	19.992	1060.560	823.551
37.082	20.064	1059.712	823.162
38.096	20.275	1058.796	823.379
39.111	20.328	1058.603	823.408
40.126	20.058	1056.887	820.719
41.140	19.647	1055.300	817.472
42.155	19.503	1054.009	815.718
43.169	19.403	1053.324	814.647
44.184	19.465	1051.893	813.760
45.199	19.464	1051.059	813.038
46.213	19.665	1050.728	813.653
47.228	19.937	1049.927	814.242
48.242	20.086	1048.926	814.095
49.257	20.080	1047.738	813.072
50.271	20.167	1047.316	813.079
51.286	20.268	1046.450	812.812
52.301	20.281	1045.506	812.064
53.315	19.902	1044.803	809.673
54.330	19.870	1042.962	808.025
55.344	19.770	1042.200	806.896
56.359	19.915	1041.293	806.803
57.374	19.607	1040.987	805.056
58.388	19.599	1039.137	803.517
59.403	19.341	1039.149	802.258
60.417	19.532	1037.817	802.043
61.432	19.356	1037.469	800.885
62.447	19.408	1036.136	800.028
63.461	19.157	1035.875	798.590
64.476	19.150	1034.831	797.683
65.490	19.238	1033.838	797.254
66.505	19.238	1033.190	796.685
67.520	19.395	1032.582	796.872
68.534	19.282	1031.551	795.484
69.549	19.155	1031.070	794.453
70.563	18.993	1030.532	793.223
71.578	18.960	1029.227	791.998
72.593	18.827	1028.146	790.485
73.607	18.841	1027.440	789.935
74.622	18.944	1027.308	790.236
75.636	19.007	1026.418	789.773
76.651	19.143	1025.399	789.542
77.666	19.100	1025.174	789.102
78.680	19.112	1024.396	788.490
79.695	19.079	1023.519	787.591
80.709	19.344	1023.347	788.601
81.724	19.378	1023.107	788.504
82.739	19.640	1021.814	788.634
83.753	20.054	1021.400	790.131
84.768	20.411	1021.082	791.443
85.782	20.659	1020.414	791.987
86.797	20.540	1019.274	790.488
87.812	20.304	1018.327	788.613
88.826	20.229	1017.622	787.655
89.841	20.308	1017.071	787.517
90.855	20.440	1015.903	787.140
91.870	20.505	1014.986	786.658
92.884	20.641	1013.665	786.178
93.899	20.476	1013.414	785.168
94.914	20.479	1012.647	784.517
95.928	20.505	1011.304	783.523
96.943	20.217	1010.543	781.568
97.957	20.254	1009.405	780.785
98.972	20.189	1009.185	780.253
99.987	20.229	1008.009	779.454
101.001	20.271	1006.885	778.706
102.016	20.258	1005.644	777.618
103.030	20.413	1005.073	777.803
104.045	20.340	1004.585	777.028
105.060	20.103	1003.685	775.205
106.074	19.765	1002.347	772.592
107.089	19.590	1000.765	770.525
108.103	19.381	1000.216	769.102
109.118	19.297	998.807	767.577
110.133	19.170	998.221	766.494
111.147	19.193	997.297	765.818
112.162	19.236	996.724	765.499
113.176	19.498	996.199	766.192
114.191	19.567	995.704	766.050
115.206	19.514	994.080	764.498
116.220	19.450	993.691	763.846
117.235	19.308	992.668	762.366
118.249	19.339	991.409	761.468
119.264	19.340	990.295	760.551
120.279	19.153	990.405	759.741
121.293	19.081	988.968	758.256
122.308	19.059	987.863	757.243
123.322	18.849	987.137	755.699
124.337	18.866	985.727	754.626
125.352	18.829	985.145	753.952
126.366	19.017	984.143	753.944
127.381	19.051	983.088	753.216
128.395	18.981	982.921	752.716
129.410	19.127	982.278	752.793
130.424	19.262	981.151	752.456
131.439	19.494	980.423	752.842
132.454	19.395	980.350	752.287
133.468	19.514	978.657	751.438
134.483	19.439	978.237	750.725
135.497	19.495	977.164	750.078
136.512	19.496	976.458	749.473
137.527	19.528	975.538	748.840
138.541	19.506	975.179	748.403
139.556	19.579	974.485	748.120
140.570	19.732	973.916	748.278
141.585	20.096	972.798	748.929
142.600	20.054	972.136	748.169
143.614	20.362	971.257	748.755
144.629	20.377	970.867	748.453
145.643	20.284	969.671	747.065
146.658	19.899	968.442	744.395
147.673	19.855	967.458	743.386
148.687	19.605	966.306	741.363
149.702	19.449	965.604	740.087
150.716	19.641	964.803	740.233
151.731	19.688	964.034	739.776
152.746	19.675	962.906	738.791
153.760	19.747	962.730	738.900
154.775	19.817	962.325	738.823
155.789	20.004	961.441	738.873
156.804	19.900	960.933	737.975
157.819	20.067	960.308	738.142
158.833	20.167	959.666	738.010
159.848	20.515	958.777	738.738
160.862	20.169	957.294	736.063
161.877	19.838	955.659	733.337
162.892	19.527	954.905	731.378
163.906	19.597	953.478	730.513
164.921	19.550	953.188	730.028
165.935	19.589	952.615	729.691
166.950	19.836	951.277	729.642
167.964	19.709	950.616	728.534
168.979	19.557	949.550	727.013
169.994	19.582	948.279	726.082
171.008	19.830	948.019	726.862
172.023	20.082	947.996	727.837
173.037	20.229	947.183	727.768
174.052	19.975	946.215	725.896
175.067	19.487	945.144	722.963
176.081	19.445	944.129	721.950
177.096	19.401	943.625	721.314
178.110	19.579	942.743	721.321
179.125	19.574	942.561	721.097
180.140	19.756	942.250	721.554
181.154	19.950	942.176	722.244
182.169	20.127	941.924	722.723
183.183	20.175	941.339	722.410
184.198	20.138	940.335	721.422
185.213	20.063	939.486	720.396
186.227	20.206	938.797	720.399
187.242	20.294	938.433	720.422
188.256	20.344	938.104	720.313
189.271	20.507	936.987	720.065
190.286	20.002	935.969	717.130
191.300	19.662	934.597	714.610
192.315	19.305	933.873	712.517
193.329	19.441	933.878	713.020
194.344	19.717	933.063	713.471
195.359	19.752	932.802	713.355
196.373	19.884	932.008	713.227
197.388	20.158	932.038	714.319
198.402	20.479	931.616	715.253
199.417	20.684	931.110	715.642
200.432	20.613	931.034	715.232
201.446	20.729	930.848	715.500
202.461	20.739	930.015	714.838
203.475	20.541	929.167	713.311
204.490	20.290	927.449	710.901
205.504	20.101	926.989	709.712
206.519	20.094	926.702	709.401
207.534	20.147	925.440	708.589
208.548	20.170	924.837	708.156
209.563	20.258	923.906	707.740
210.577	20.404	923.219	707.747
211.592	20.478	923.656	708.323
212.607	20.629	922.750	708.178
213.621	20.513	922.137	707.174
214.636	20.503	920.749	706.005
215.650	20.356	921.037	705.565
216.665	20.527	919.769	705.228
217.680	20.778	919.324	705.840
218.694	20.763	918.642	705.193
219.709	20.606	918.283	704.220
220.723	20.570	917.500	703.413
221.738	20.468	916.510	702.177
222.753	20.580	915.733	701.973
223.767	20.807	915.210	702.425
224.782	20.746	915.539	702.371
225.796	20.805	915.047	702.167
226.811	20.674	913.852	700.664
227.826	20.365	913.182	698.845
228.840	20.363	912.046	697.903
229.855	20.291	911.489	697.128
230.869	20.380	910.559	696.711
231.884	20.254	909.893	695.633
232.899	20.198	909.291	694.888
233.913	20.038	908.632	693.682
234.928	19.974	907.665	692.626
235.942	19.890	907.051	691.761
236.957	19.909	906.412	691.287
237.972	19.965	906.182	691.274
238.986	20.050	905.540	691.062
240.001	19.949	904.952	690.150
241.015	20.094	904.303	690.174
242.030	20.246	904.063	690.534
243.045	20.325	903.481	690.340
244.059	20.443	902.832	690.253
245.074	20.552	902.079	690.048
246.088	20.494	902.020	689.713
247.103	20.783	901.350	690.285
248.117	20.938	901.508	690.961
249.132	21.296	901.218	692.095
250.147	21.564	900.622	692.638
251.161	21.586	900.490	692.560
252.176	21.619	899.168	691.613
253.190	21.687	898.821	691.554
254.205	21.713	898.067	691.016
255.220	21.497	897.098	689.357
256.234	21.490	896.726	688.984
257.249	21.526	896.074	688.563
258.263	21.495	895.002	687.557
259.278	21.594	894.563	687.548
260.293	21.512	894.512	687.125
261.307	21.636	893.910	687.090
262.322	21.803	893.172	687.114
263.336	21.592	892.738	685.895
264.351	21.708	891.727	685.511
265.366	21.738	891.075	685.065
266.380	21.733	890.398	684.465
267.395	21.527	889.795	683.138
268.409	21.601	888.550	682.407
269.424	21.402	887.831	681.022
270.439	21.326	887.369	680.309
271.453	21.222	886.479	679.166
272.468	21.258	885.800	678.724
273.482	21.270	885.184	678.239
274.497	21.284	884.746	677.896
275.512	21.129	884.677	677.183
276.526	21.331	883.733	677.184
277.541	21.452	883.310	677.267
278.555	21.476	883.315	677.302
279.570	21.941	882.275	678.245
280.585	21.668	882.066	676.967
281.599	21.650	880.290	675.476
282.614	21.162	880.145	673.423
283.628	21.245	879.240	672.993
284.643	21.327	878.938	673.018
285.657	21.291	878.392	672.400
286.672	21.385	877.467	671.995
287.687	21.454	877.073	671.896
288.701	21.476	876.127	671.198
289.716	21.508	875.879	671.074
290.730	21.450	875.365	670.397
291.745	21.400	874.964	669.839
292.760	21.509	874.454	669.804
293.774	21.868	873.835	670.644
294.789	21.551	873.348	669.001
295.803	21.416	872.123	667.488
296.818	21.471	871.372	667.064
297.833	21.340	870.755	666.033
298.847	21.335	870.322	665.625
299.862	21.620	869.581	666.083
300.876	21.681	869.674	666.327
301.891	21.772	869.400	666.404
302.906	22.011	868.492	666.556
303.920	22.211	868.164	667.004
304.935	22.238	867.690	666.683
305.949	22.096	866.637	665.278
306.964	21.782	866.214	663.706
307.979	21.818	865.228	663.027
308.993	22.037	864.841	663.502
310.008	22.124	864.027	663.145
311.022	22.018	863.290	662.123
312.037	21.671	862.736	660.329
313.052	21.407	862.097	658.786
314.066	21.256	861.614	657.793
315.081	21.158	861.321	657.141
316.095	21.312	860.349	656.918
317.110	21.480	859.292	656.684
318.125	21.238	859.240	655.681
319.139	21.306	858.798	655.540
320.154	21.306	858.570	655.308
321.168	21.416	857.592	654.916
322.183	21.468	857.339	654.858
323.197	21.642	856.919	655.131
324.212	21.534	856.184	654.108
325.227	21.361	855.738	653.062
326.241	21.437	855.008	652.729
327.256	21.281	854.437	651.655
328.270	21.365	853.848	651.463
329.285	21.355	853.155	650.838
330.300	21.189	852.619	649.755
331.314	21.398	852.301	650.231
332.329	21.567	852.161	650.696
333.343	21.804	851.243	650.817
334.358	21.790	851.232	650.699
335.373	21.877	850.768	650.608
336.387	21.915	850.476	650.470
337.402	22.104	850.495	651.125
338.416	22.288	850.104	651.452
339.431	22.344	849.904	651.448
340.446	22.349	849.825	651.347
341.460	22.514	849.330	651.520
342.475	22.705	848.985	651.906
343.489	22.600	848.509	651.093
344.504	22.753	848.043	651.243
345.519	22.725	847.797	650.895
346.533	22.566	847.185	649.782
347.548	22.160	846.661	647.823
348.562	21.937	845.614	646.145
349.577	21.868	844.655	645.101
350.592	21.817	843.764	644.177
351.606	21.782	843.088	643.473
352.621	21.744	842.446	642.788
353.635	21.816	842.116	642.745
354.650	22.036	841.529	643.045
355.665	22.074	840.740	642.522
356.679	22.257	840.159	642.693
357.694	22.171	839.615	641.905
358.708	22.110	839.023	641.171
359.723	22.106	838.346	640.584
360.738	22.129	837.953	640.312
361.752	22.271	837.460	640.395
362.767	22.457	837.031	640.687
363.781	22.665	836.637	641.085
364.796	22.624	836.502	640.776
365.810	22.925	836.220	641.597
366.825	23.094	835.503	641.603
367.840	22.865	835.138	640.434
368.854	22.788	834.451	639.571
369.869	22.676	834.018	638.777
370.883	22.563	833.546	637.949
371.898	22.801	833.309	638.575
372.913	22.925	832.910	638.659
373.927	22.664	831.939	636.915
374.942	22.767	831.564	636.944
375.956	22.836	831.446	637.049
376.971	22.995	831.320	637.469
377.986	23.130	830.701	637.424
379.000	23.074	830.375	636.914
380.015	22.945	829.578	635.782
381.029	22.931	828.961	635.205
382.044	23.028	828.206	634.916
383.059	23.170	827.224	634.619
384.073	22.862	826.841	633.164
385.088	22.595	825.979	631.491
386.102	22.366	825.571	630.301
387.117	22.511	824.769	630.154
388.132	22.392	824.324	629.331
389.146	22.655	823.315	629.446
390.161	22.811	823.331	629.958
391.175	22.977	823.091	630.310
392.190	22.774	822.023	628.716
393.205	22.535	821.497	627.406
394.219	22.438	821.239	626.808
395.234	22.436	820.781	626.396
396.248	22.343	820.004	625.415
397.263	22.383	819.153	624.854
398.278	22.152	818.989	623.853
399.292	22.088	818.789	623.420
400.307	22.133	818.405	623.230
401.321	22.283	817.353	622.905
402.336	22.413	817.237	623.224
403.350	22.589	817.295	623.836
404.365	22.756	816.853	624.035
405.380	23.084	816.816	625.111
406.394	23.246	816.233	625.180
407.409	23.303	815.737	624.945
408.423	23.272	815.477	624.584
409.438	23.516	814.961	624.990
410.453	23.397	814.351	624.049
411.467	23.385	814.298	623.910
412.482	23.612	814.090	624.497
413.496	23.772	813.584	624.613
414.511	23.532	813.226	623.440
415.526	23.321	812.739	622.270
416.540	23.328	812.379	621.967
417.555	23.309	811.441	621.125
418.569	23.405	811.315	621.311
419.584	23.465	810.699	620.995
420.599	23.428	810.292	620.500
421.613	163.326	1372.744	1797.008
422.628	142.187	1454.718	1797.097
