DTS Sentinel unit serial number:	SN413079Multiplexer serial number:	ORYXHardware model number:	OX4-SRSoftware version number:	ORYX F/W v4.00 Oryx Data Collector v3.7.2.0data status	okinstallation	princeton_trtdifferential loss correction	single-endedforward channel	channel 1reverse channel	N/Adate	2019/09/12time	08:44:11forward acquisition time	60.00reverse acquisition time	0.00gamma	496.2192k internal	0.2311k external	0.2311temperature offset calibration	1.0047default loss term (dB/km)	0.3790temperature slope calibration	1.0000multiplexer offset coefficient	1.0000multiplexer slope coefficient	1.0000fibre end	0.00T internal ref (°C)	33.87T ext. ref 1 (°C)	1.72T ext. ref 2 (°C)	30.41length (m)	temperature (°C)	Stokes	anti-Stokes-747.200	200.317	0.150	0.234
-746.185	79.535	0.094	0.102
-745.171	-170.629	-0.392	0.014
-744.156	158.002	0.274	0.385
-743.142	-40.112	0.208	-0.110
-742.127	118.280	0.039	0.048
-741.112	-200.000	0.019	0.103
-740.098	-200.000	-0.066	0.000
-739.083	-134.187	0.083	-0.010
-738.069	-194.525	-0.203	-0.002
-737.054	5.490	0.071	0.053
-736.039	-18.829	-0.217	-0.137
-735.025	-200.000	0.020	-0.106
-734.010	800.000	0.047	-0.188
-732.996	-87.717	-0.134	0.041
-731.981	-200.000	-0.009	-0.440
-730.966	81.055	0.259	0.283
-729.952	-183.324	0.209	0.004
-728.937	-127.716	0.134	0.020
-727.923	-90.090	0.021	0.006
-726.908	-53.433	-0.131	-0.061
-725.894	-200.000	0.017	-0.284
-724.879	298.534	0.201	-0.376
-723.864	-46.689	-0.192	-0.095
-722.850	-66.107	-0.388	-0.157
-721.835	577.162	-0.078	-0.195
-720.821	234.711	-0.135	0.226
-719.806	44.337	-0.323	-0.301
-718.791	-200.000	-0.047	-0.283
-717.777	688.833	-0.099	-0.262
-716.762	-200.000	-0.026	0.228
-715.748	-200.000	0.037	0.555
-714.733	800.000	0.064	-0.219
-713.718	-43.638	0.069	-0.035
-712.704	-148.541	-0.197	-0.016
-711.689	2.505	0.194	-0.142
-710.675	-200.000	0.005	0.043
-709.660	718.792	0.108	-0.292
-708.645	-200.000	-0.034	-0.519
-707.631	-36.965	-0.102	-0.056
-706.616	-30.159	0.040	-0.023
-705.602	268.999	-0.032	-0.057
-704.587	52.304	-0.218	-0.211
-703.572	-200.000	-0.011	-0.093
-702.558	-107.038	0.062	-0.014
-701.543	35.186	0.294	-0.261
-700.529	-171.325	-0.166	-0.006
-699.514	800.000	0.036	0.158
-698.499	247.457	0.165	-0.282
-697.485	120.153	-0.026	-0.033
-696.470	2.316	-0.209	0.154
-695.456	-200.000	-0.027	0.272
-694.441	-200.000	-0.005	0.079
-693.426	-18.116	0.286	0.181
-692.412	-87.773	-0.109	-0.033
-691.397	4.086	0.221	-0.163
-690.383	163.266	-0.198	-0.282
-689.368	-200.000	-0.002	-0.016
-688.354	800.000	0.129	-0.394
-687.339	62.466	0.030	0.030
-686.324	-110.656	0.173	0.036
-685.310	-127.250	0.138	0.020
-684.295	-29.201	-0.206	0.120
-683.281	-200.000	0.090	-0.403
-682.266	-200.000	-0.047	-0.280
-681.251	207.597	0.021	-0.033
-680.237	-123.029	-0.344	-0.056
-679.222	-41.462	0.104	-0.054
-678.208	800.000	-0.093	0.403
-677.193	207.007	-0.195	-0.308
-676.178	279.442	-0.142	-0.257
-675.164	269.524	0.099	0.176
-674.149	-3.019	0.171	0.121
-673.135	214.592	0.104	-0.167
-672.120	-95.113	0.220	-0.060
-671.105	-75.472	0.134	0.048
-670.091	685.242	-0.132	0.349
-669.076	1.515	0.173	0.126
-668.062	214.716	-0.133	0.214
-667.047	280.334	-0.080	-0.145
-666.032	-124.191	-0.392	0.062
-665.018	-200.000	0.053	0.308
-664.003	3.408	-0.089	0.066
-662.989	551.949	-0.118	0.286
-661.974	94.307	-0.136	0.156
-660.959	-200.000	0.027	-0.144
-659.945	-138.363	-0.077	0.009
-658.930	6.082	0.085	-0.064
-657.916	0.917	0.176	0.128
-656.901	-88.183	-0.258	0.078
-655.886	-67.150	-0.134	-0.053
-654.872	800.000	0.139	-0.405
-653.857	-108.937	-0.337	-0.073
-652.843	-149.009	0.199	-0.016
-651.828	800.000	0.069	0.226
-650.814	-31.467	0.062	-0.035
-649.799	-200.000	-0.030	0.290
-648.784	275.257	0.127	0.228
-647.770	-62.921	0.034	-0.014
-646.755	15.098	-0.036	-0.029
-645.741	175.615	0.137	-0.201
-644.726	800.000	0.025	0.083
-643.711	-200.000	0.018	0.208
-642.697	-104.641	0.186	0.043
-641.682	161.014	-0.053	0.074
-640.668	-143.845	0.173	0.016
-639.653	165.254	0.197	0.281
-638.638	-200.000	0.018	-0.122
-637.624	539.771	0.102	-0.245
-636.609	669.543	-0.052	-0.137
-635.595	75.050	-0.140	-0.149
-634.580	-200.000	0.004	0.206
-633.565	-77.313	0.129	-0.045
-632.551	-60.618	-0.333	0.143
-631.536	800.000	-0.071	0.300
-630.522	56.902	0.054	0.053
-629.507	177.763	-0.072	0.105
-628.492	-200.000	0.017	0.353
-627.478	-116.638	0.161	-0.030
-626.463	-43.723	0.411	-0.209
-625.449	649.715	-0.025	0.066
-624.434	-41.086	-0.081	-0.042
-623.419	0.269	-0.160	0.115
-622.405	116.884	-0.078	0.096
-621.390	34.833	0.416	0.368
-620.376	-200.000	-0.009	-0.187
-619.361	-26.750	0.066	0.039
-618.346	25.439	0.256	-0.215
-617.332	800.000	0.041	0.164
-616.317	-73.288	-0.200	0.074
-615.303	800.000	-0.116	0.378
-614.288	-101.587	0.270	0.066
-613.273	19.780	0.171	0.139
-612.259	9.933	-0.128	0.098
-611.244	29.476	0.167	0.143
-610.230	219.496	0.070	-0.113
-609.215	-154.359	0.015	-0.001
-608.201	-94.859	0.246	-0.067
-607.186	406.892	-0.120	-0.256
-606.171	478.885	0.045	0.103
-605.157	-200.000	-0.018	-0.194
-604.142	800.000	-0.049	-0.181
-603.128	610.721	0.067	-0.168
-602.113	-28.160	-0.219	0.128
-601.098	70.605	0.231	0.241
-600.084	-0.824	0.121	-0.086
-599.069	89.036	0.034	-0.038
-598.055	-80.094	0.200	0.068
-597.040	-200.000	-0.015	-0.390
-596.025	53.873	0.101	-0.098
-595.011	-140.208	0.036	0.004
-593.996	-200.000	0.057	-0.303
-592.982	-23.963	-0.049	0.030
-591.967	590.535	0.067	-0.166
-590.952	145.890	-0.173	0.234
-589.938	-129.866	0.316	0.044
-588.923	338.496	-0.148	0.291
-587.909	-55.560	0.243	0.110
-586.894	44.895	-0.029	0.027
-585.879	800.000	0.078	-0.267
-584.865	-72.524	-0.103	0.038
-583.850	-200.000	0.030	0.260
-582.836	62.051	-0.160	-0.161
-581.821	60.341	0.203	0.203
-580.806	-104.995	0.105	0.024
-579.792	-116.256	-0.277	0.052
-578.777	119.684	-0.092	-0.115
-577.763	-109.734	-0.183	-0.039
-576.748	-200.000	-0.001	-0.010
-575.733	-102.159	-0.313	-0.076
-574.719	296.713	0.124	-0.229
-573.704	384.904	0.164	-0.341
-572.690	280.441	-0.049	0.088
-571.675	800.000	-0.057	0.171
-570.661	-91.212	-0.403	0.116
-569.646	174.376	0.208	0.303
-568.631	-125.012	0.220	-0.034
-567.617	489.672	0.043	-0.100
-566.602	157.974	-0.105	-0.147
-565.588	800.000	0.077	0.241
-564.573	-200.000	0.036	-0.187
-563.558	800.000	0.068	-0.289
-562.544	141.496	-0.110	-0.147
-561.529	800.000	0.120	-0.334
-560.515	800.000	-0.081	0.233
-559.500	-32.572	-0.230	-0.129
-558.485	-63.204	-0.373	0.155
-557.471	106.314	-0.013	0.016
-556.456	-200.000	-0.034	0.208
-555.442	-13.266	-0.284	-0.186
-554.427	800.000	-0.075	0.254
-553.412	-147.177	-0.081	-0.007
-552.398	-50.228	-0.253	-0.121
-551.383	26.935	-0.111	-0.094
-550.369	800.000	0.105	0.381
-549.354	-72.906	0.205	-0.076
-548.339	-116.865	0.129	0.024
-547.325	800.000	0.099	0.347
-546.310	193.446	0.050	-0.076
-545.296	-111.679	-0.185	0.038
-544.281	800.000	0.055	-0.165
-543.266	800.000	-0.073	0.318
-542.252	211.337	-0.101	-0.161
-541.237	717.146	0.016	0.042
-540.223	-200.000	0.007	0.127
-539.208	85.131	0.193	-0.213
-538.193	800.000	0.011	0.034
-537.179	186.618	-0.033	0.050
-536.164	-158.423	0.234	0.014
-535.150	68.237	0.050	-0.051
-534.135	361.978	-0.108	-0.219
-533.121	800.000	-0.083	-0.328
-532.106	2.363	0.139	-0.101
-531.091	800.000	-0.110	-0.335
-530.077	75.794	0.267	-0.284
-529.062	-40.095	0.274	-0.144
-528.048	-200.000	0.006	-0.046
-527.033	800.000	-0.040	0.173
-526.018	-172.175	-0.046	-0.001
-525.004	49.174	-0.097	0.092
-523.989	-200.000	-0.075	0.332
-522.975	800.000	-0.053	0.179
-521.960	275.374	0.025	0.045
-520.945	459.438	0.030	0.068
-519.931	298.083	0.074	0.137
-518.916	751.789	-0.078	0.211
-517.902	10.217	-0.198	0.151
-516.887	57.309	-0.078	0.077
-515.872	-200.000	0.070	0.326
-514.858	32.383	0.331	0.288
-513.843	21.966	0.164	-0.134
-512.829	-200.000	-0.019	0.103
-511.814	-3.089	-0.053	-0.037
-510.799	-126.497	-0.296	-0.044
-509.785	10.419	0.092	0.071
-508.770	-200.000	0.031	0.265
-507.756	-200.000	0.033	-0.332
-506.741	421.715	-0.068	-0.147
-505.726	-91.422	0.187	-0.054
-504.712	171.596	-0.069	0.100
-503.697	-200.000	-0.011	-0.070
-502.683	-52.867	0.198	-0.092
-501.668	800.000	-0.021	-0.090
-500.653	53.467	-0.114	-0.110
-499.639	-113.048	0.079	-0.016
-498.624	19.036	0.172	0.139
-497.610	-79.797	0.129	-0.044
-496.595	-47.955	-0.122	-0.059
-495.581	-73.485	0.383	-0.141
-494.566	-157.099	-0.255	0.016
-493.551	-60.671	-0.299	0.127
-492.537	92.702	-0.081	-0.092
-491.522	287.160	-0.112	-0.204
-490.508	204.707	0.093	0.145
-489.493	-103.335	-0.083	0.020
-488.478	126.407	0.087	-0.111
-487.464	-69.464	0.312	-0.120
-486.449	800.000	0.043	-0.187
-485.435	147.474	0.049	-0.067
-484.420	224.441	-0.186	0.303
-483.405	31.860	-0.204	-0.176
-482.391	800.000	-0.113	-0.377
-481.376	353.840	0.068	0.135
-480.362	-200.000	0.036	0.210
-479.347	-82.735	-0.413	-0.134
-478.332	-37.296	0.136	-0.073
-477.318	-58.923	-0.167	-0.072
-476.303	-190.224	-0.281	0.003
-475.289	-55.576	0.211	0.095
-474.274	-200.000	-0.042	-0.360
-473.259	-28.214	-0.278	0.161
-472.245	-58.103	0.103	-0.045
-471.230	-131.322	-0.029	-0.004
-470.216	424.822	-0.116	-0.251
-469.201	-130.876	-0.364	-0.049
-468.186	-59.927	0.178	0.076
-467.172	123.339	0.029	-0.037
-466.157	-83.510	-0.093	0.030
-465.143	222.022	0.089	0.143
-464.128	-200.000	0.023	0.224
-463.113	47.828	-0.152	-0.142
-462.099	-42.567	-0.135	-0.069
-461.084	-86.381	0.093	0.029
-460.070	154.294	-0.121	0.167
-459.055	-37.081	0.433	0.233
-458.040	-61.442	0.138	-0.058
-457.026	-157.151	0.132	-0.008
-456.011	581.771	-0.027	-0.066
-454.997	102.833	0.082	-0.097
-453.982	800.000	0.090	-0.292
-452.968	-37.529	0.249	-0.133
-451.953	541.024	-0.145	-0.347
-450.938	-165.315	0.094	0.004
-449.924	159.276	0.129	-0.179
-448.909	364.761	0.164	0.331
-447.895	-71.820	-0.250	0.093
-446.880	800.000	-0.050	-0.211
-445.865	-136.990	-0.323	0.037
-444.851	-200.000	-0.006	-0.064
-443.836	-57.563	0.209	0.092
-442.822	6.032	0.161	0.120
-441.807	203.439	-0.229	-0.356
-440.792	-72.944	-0.166	-0.061
-439.778	111.312	-0.113	0.137
-438.763	800.000	-0.076	-0.267
-437.749	-105.824	0.239	0.054
-436.734	453.437	-0.039	0.086
-435.719	-200.000	-0.058	-0.326
-434.705	12.703	-0.180	-0.140
-433.690	-60.474	-0.223	0.095
-432.676	-116.941	0.152	0.028
-431.661	12.048	-0.259	-0.199
-430.646	34.913	0.169	-0.148
-429.632	190.589	-0.074	-0.112
-428.617	800.000	0.067	-0.191
-427.603	-52.278	-0.309	0.144
-426.588	-189.449	-0.164	0.002
-425.573	-130.537	0.180	-0.024
-424.559	18.869	0.148	-0.119
-423.544	467.371	-0.040	0.089
-422.530	-200.000	-0.020	0.297
-421.515	-1.671	-0.075	0.053
-420.500	69.122	-0.221	-0.227
-419.486	280.014	0.160	-0.287
-418.471	-200.000	-0.003	-0.032
-417.457	-200.000	-0.008	0.292
-416.442	28.977	0.049	0.041
-415.428	-46.851	0.034	-0.016
-414.413	-200.000	-0.022	0.268
-413.398	-98.400	-0.352	-0.090
-412.384	62.069	-0.141	-0.141
-411.369	400.695	0.064	0.134
-410.355	-26.875	-0.148	0.087
-409.340	-113.737	-0.251	-0.049
-408.325	800.000	-0.064	0.219
-407.311	-31.582	-0.162	-0.091
-406.296	-200.000	0.032	-0.164
-405.282	1.204	-0.324	0.233
-404.267	800.000	-0.015	-0.060
-403.252	-80.232	0.204	-0.068
-402.238	-56.421	-0.211	-0.094
-401.223	112.763	0.201	0.244
-400.209	-81.449	-0.124	0.041
-399.194	800.000	0.078	-0.223
-398.179	800.000	-0.038	-0.128
-397.165	-133.339	0.198	0.025
-396.150	-200.000	0.028	-0.217
-395.136	-200.000	-0.034	0.279
-394.121	800.000	0.130	0.429
-393.106	115.293	0.082	0.101
-392.092	179.148	-0.167	0.244
-391.077	341.639	0.056	-0.109
-390.063	69.684	0.052	-0.053
-389.048	-200.000	0.008	-0.041
-388.033	800.000	0.036	-0.143
-387.019	11.558	-0.157	0.121
-386.004	-146.342	0.120	-0.011
-384.990	243.475	-0.140	-0.235
-383.975	203.219	-0.163	-0.253
-382.960	253.341	-0.098	-0.167
-381.946	143.085	-0.055	-0.074
-380.931	-200.000	-0.008	-0.135
-379.917	-63.251	0.177	0.073
-378.902	115.923	0.233	0.286
-377.888	-63.251	-0.465	-0.192
-376.873	366.854	-0.102	0.206
-375.858	1.951	0.163	0.118
-374.844	-200.000	-0.068	0.430
-373.829	800.000	-0.036	-0.107
-372.815	146.665	0.215	0.289
-371.800	18.795	0.246	0.197
-370.785	-134.894	-0.237	-0.029
-369.771	-200.000	-0.000	-0.103
-368.756	-158.149	0.183	-0.011
-367.742	800.000	0.049	-0.170
-366.727	-29.572	-0.116	0.066
-365.712	24.463	0.173	-0.143
-364.698	-200.000	-0.039	-0.276
-363.683	-200.000	-0.001	0.120
-362.669	800.000	-0.061	-0.178
-361.654	-127.355	-0.294	0.043
-360.639	4.789	-0.334	0.245
-359.625	-200.000	-0.014	-0.076
-358.610	-91.965	0.205	-0.058
-357.596	120.340	-0.055	0.068
-356.581	-101.610	0.270	-0.066
-355.566	20.788	-0.119	0.096
-354.552	-200.000	0.014	-0.143
-353.537	-200.000	0.004	-0.041
-352.523	160.164	0.296	-0.413
-351.508	59.190	0.019	-0.019
-350.493	640.366	-0.061	-0.154
-349.479	-200.000	0.001	-0.223
-348.464	-200.000	-0.003	0.041
-347.450	68.453	0.035	0.036
-346.435	-200.000	0.013	0.402
-345.420	15.673	0.314	-0.246
-344.406	1.085	0.093	0.067
-343.391	-200.000	0.032	0.388
-342.377	-131.818	-0.170	-0.022
-341.362	388.763	-0.175	0.362
-340.348	-49.778	-0.255	0.121
-339.333	127.353	-0.274	-0.347
-338.318	-35.422	-0.311	0.169
-337.304	-148.466	0.381	0.031
-336.289	417.234	-0.108	-0.231
-335.275	42.378	0.034	-0.031
-334.260	-100.462	-0.210	-0.052
-333.245	172.595	-0.166	0.238
-332.231	-200.000	-0.002	0.122
-331.216	-114.032	0.132	-0.026
-330.202	-40.124	-0.327	-0.170
-329.187	-200.000	0.014	-0.152
-328.172	-2.501	-0.207	-0.145
-327.158	17.125	0.269	-0.213
-326.143	-200.000	0.038	-0.213
-325.129	-11.810	-0.325	0.213
-324.114	82.166	0.125	0.135
-323.099	43.658	-0.168	-0.154
-322.085	124.528	0.089	0.112
-321.070	-75.064	-0.442	0.158
-320.056	98.191	0.155	0.178
-319.041	-150.750	-0.012	-0.001
-318.026	-84.591	0.212	-0.067
-317.012	227.756	-0.006	-0.010
-315.997	316.263	-0.161	0.303
-314.983	-200.000	-0.042	0.193
-313.968	-200.000	0.050	-0.347
-312.953	-76.012	-0.088	0.031
-311.939	253.142	0.116	-0.198
-310.924	-200.000	0.049	0.498
-309.910	-27.360	-0.248	-0.144
-308.895	60.841	-0.070	-0.069
-307.880	-90.537	0.279	0.080
-306.866	-200.000	-0.009	-0.101
-305.851	-200.000	0.009	-0.119
-304.837	800.000	0.020	0.079
-303.822	-119.833	-0.317	-0.054
-302.807	322.243	-0.205	-0.390
-301.793	-2.332	0.250	0.175
-300.778	-173.045	0.203	-0.006
-299.764	-200.000	0.046	-0.337
-298.749	193.027	-0.200	-0.301
-297.735	18.738	-0.223	0.178
-296.720	58.182	-0.244	0.238
-295.705	-97.962	0.155	0.040
-294.691	160.621	0.099	-0.138
-293.676	91.162	0.094	-0.105
-292.662	-75.907	0.354	-0.125
-291.647	729.887	-0.136	0.363
-290.632	-7.123	0.337	0.228
-289.618	-27.239	0.330	0.192
-288.603	110.527	0.020	0.024
-287.589	86.268	0.142	0.156
-286.574	72.967	0.245	0.256
-285.559	800.000	0.038	0.137
-284.545	800.000	0.042	-0.116
-283.530	-50.736	-0.092	-0.043
-282.516	-124.629	-0.030	-0.005
-281.501	-100.813	0.349	0.086
-280.486	-46.852	-0.070	-0.034
-279.472	-67.788	0.096	-0.037
-278.457	141.947	-0.077	-0.101
-277.443	11.287	0.086	0.065
-276.428	233.124	0.164	-0.268
-275.413	-152.883	0.210	0.015
-274.399	-200.000	-0.049	-0.274
-273.384	-200.000	-0.041	-0.335
-272.370	800.000	0.030	0.094
-271.355	54.083	0.088	-0.084
-270.340	-137.958	-0.168	-0.019
-269.326	196.192	0.064	-0.097
-268.311	346.994	-0.118	-0.231
-267.297	-112.053	0.133	-0.027
-266.282	185.398	0.147	-0.218
-265.267	159.912	0.093	-0.129
-264.253	155.390	0.192	-0.263
-263.238	-151.228	-0.072	0.005
-262.224	800.000	0.064	0.194
-261.209	-200.000	0.005	0.069
-260.195	800.000	-0.039	0.154
-259.180	401.886	-0.047	0.098
-258.165	-65.281	-0.145	0.058
-257.151	-200.000	-0.050	0.302
-256.136	-106.030	0.359	-0.080
-255.122	-78.435	0.135	-0.046
-254.107	-153.874	0.238	0.016
-253.092	-108.731	-0.077	0.016
-252.078	-138.055	-0.449	-0.050
-251.063	237.073	0.049	-0.080
-250.049	-130.428	0.091	-0.012
-249.034	37.749	0.226	-0.200
-248.019	800.000	0.047	0.169
-247.005	40.414	-0.086	0.077
-245.990	52.322	-0.232	-0.220
-244.976	153.660	0.102	0.139
-243.961	800.000	-0.060	-0.221
-242.946	145.489	0.200	-0.267
-241.932	-200.000	0.017	0.242
-240.917	-11.380	-0.239	-0.156
-239.903	800.000	-0.042	-0.178
-238.888	381.292	-0.094	0.192
-237.873	-141.220	-0.272	-0.028
-236.859	55.543	0.161	-0.155
-235.844	-8.830	0.197	0.132
-234.830	581.939	0.158	0.386
-233.815	-30.779	0.278	0.156
-232.800	-200.000	0.000	0.142
-231.786	-6.053	-0.064	-0.044
-230.771	-147.528	0.103	0.009
-229.757	237.163	-0.076	0.125
-228.742	51.509	0.118	-0.112
-227.727	800.000	-0.119	0.403
-226.713	-167.737	0.234	0.009
-225.698	-200.000	-0.040	0.192
-224.684	-144.507	-0.224	0.021
-223.669	112.768	0.145	-0.175
-222.655	43.286	0.126	0.114
-221.640	-41.918	-0.069	0.035
-220.625	-10.646	-0.374	0.246
-219.611	-200.000	-0.005	-0.039
-218.596	62.166	0.160	0.159
-217.582	-200.000	-0.008	0.232
-216.567	600.275	-0.083	0.204
-215.552	630.514	0.069	-0.174
-214.538	94.519	0.210	-0.237
-213.523	117.593	0.074	-0.091
-212.509	82.133	-0.024	-0.026
-211.494	92.796	0.261	-0.292
-210.479	639.543	0.118	0.298
-209.465	-96.448	-0.156	-0.041
-208.450	-200.000	0.015	-0.167
-207.436	-64.362	-0.221	0.089
-206.421	-16.167	-0.127	0.080
-205.406	98.723	0.447	0.513
-204.392	190.213	-0.108	-0.161
-203.377	800.000	0.059	-0.211
-202.363	-200.000	-0.072	0.489
-201.348	800.000	-0.018	-0.073
-200.333	-200.000	-0.038	0.248
-199.319	-200.000	0.058	0.436
-198.304	800.000	0.042	0.149
-197.290	-167.626	-0.173	0.007
-196.275	269.271	-0.146	0.255
-195.260	-154.436	-0.288	-0.019
-194.246	-6.934	0.285	0.192
-193.231	-108.970	-0.156	-0.033
-192.217	154.139	0.048	-0.066
-191.202	466.521	-0.040	-0.090
-190.187	-121.316	-0.200	0.033
-189.173	281.362	-0.196	0.348
-188.158	100.847	0.077	0.089
-187.144	167.583	-0.229	-0.323
-186.129	180.183	0.068	0.099
-185.114	-63.321	0.219	0.090
-184.100	800.000	0.073	0.222
-183.085	-32.318	-0.175	0.097
-182.071	385.745	0.228	-0.466
-181.056	-138.327	0.319	0.035
-180.042	-54.246	0.113	-0.051
-179.027	315.153	-0.126	-0.235
-178.012	-61.400	-0.488	-0.204
-176.998	-82.635	0.221	0.071
-175.983	298.977	-0.026	-0.047
-174.969	-200.000	-0.057	0.256
-173.954	-186.515	-0.368	-0.005
-172.939	300.101	0.177	-0.323
-171.925	800.000	0.008	-0.031
-170.910	83.802	0.136	0.147
-169.896	-115.109	-0.123	0.023
-168.881	7.774	0.192	-0.142
-167.866	-200.000	0.018	-0.141
-166.852	-179.798	-0.174	-0.004
-165.837	800.000	0.035	0.135
-164.823	631.876	-0.096	-0.241
-163.808	241.306	0.130	-0.215
-162.793	-22.787	-0.238	-0.142
-161.779	-30.886	-0.380	-0.213
-160.764	101.212	-0.097	-0.112
-159.750	129.474	0.123	-0.156
-158.735	7.442	0.154	-0.114
-157.720	800.000	-0.044	-0.135
-156.706	-12.113	0.168	0.109
-155.691	-200.000	0.035	0.237
-154.677	-19.988	-0.033	-0.020
-153.662	730.572	0.080	-0.213
-152.647	102.372	0.037	0.043
-151.633	-200.000	0.035	-0.154
-150.618	-95.886	-0.348	-0.092
-149.604	-0.519	0.057	-0.040
-148.589	-87.772	0.141	-0.042
-147.574	-28.338	-0.110	0.063
-146.560	-83.416	-0.153	0.049
-145.545	-0.130	0.085	0.060
-144.531	-200.000	0.051	-0.227
-143.516	37.026	0.289	0.253
-142.502	-66.477	-0.186	-0.073
-141.487	-115.273	-0.141	0.026
-140.472	800.000	-0.017	0.056
-139.458	-200.000	-0.001	0.227
-138.443	-7.722	-0.128	0.086
-137.429	-177.354	0.115	0.003
-136.414	-10.773	-0.218	0.143
-135.399	192.814	-0.035	0.053
-134.385	13.096	-0.219	-0.168
-133.370	96.242	-0.133	-0.151
-132.356	-200.000	0.027	0.156
-131.341	-93.745	0.354	-0.097
-130.326	-34.522	-0.193	-0.105
-129.312	-60.470	0.322	0.135
-128.297	-92.384	-0.088	0.025
-127.283	-42.873	-0.171	0.086
-126.268	785.242	0.006	-0.017
-125.253	-200.000	-0.018	0.086
-124.239	-200.000	0.076	0.492
-123.224	13.235	0.194	-0.149
-122.210	-37.314	0.210	-0.111
-121.195	-75.938	-0.243	-0.085
-120.180	45.124	0.194	-0.177
-119.166	800.000	-0.092	0.313
-118.151	-102.744	-0.242	-0.057
-117.137	-57.477	0.308	0.134
-116.122	228.308	0.267	0.430
-115.107	-125.138	-0.174	-0.026
-114.093	-200.000	-0.043	-0.252
-113.078	1.492	0.161	0.115
-112.064	-32.474	0.090	0.049
-111.049	-79.231	0.107	0.036
-110.034	-200.000	0.025	-0.132
-109.020	-59.866	0.227	-0.096
-108.005	266.875	-0.078	-0.134
-106.991	3.339	0.130	-0.093
-105.976	445.726	0.024	-0.051
-104.962	800.000	-0.029	-0.087
-103.947	62.488	-0.132	-0.131
-102.932	58.473	0.184	-0.179
-101.918	-149.162	0.208	-0.016
-100.903	-4.262	0.179	0.123
-99.889	46.000	-0.037	0.034
-98.874	712.770	0.017	-0.045
-97.859	-200.000	0.018	0.327
-96.845	420.721	-0.151	0.320
-95.830	-200.000	-0.068	0.438
-94.816	800.000	0.073	-0.256
-93.801	-11.855	0.390	0.253
-92.786	170.685	-0.165	0.234
-91.772	800.000	-0.053	0.185
-90.757	800.000	0.070	-0.238
-89.743	-200.000	0.011	-0.332
-88.728	-51.466	-0.131	0.060
-87.713	-160.004	0.159	0.009
-86.699	-25.926	0.023	-0.013
-85.684	-106.785	0.241	0.053
-84.670	-136.221	0.466	-0.054
-83.655	12.099	-0.173	-0.132
-82.640	5.147	-0.306	-0.223
-81.626	27.069	-0.285	-0.237
-80.611	465.825	-0.105	0.232
-79.597	-109.629	0.227	-0.047
-78.582	351.729	0.169	-0.331
-77.567	69.199	0.096	-0.098
-76.553	-136.531	0.038	0.004
-75.538	-53.779	-0.314	0.141
-74.524	76.461	0.063	-0.066
-73.509	-130.792	0.193	0.026
-72.494	-139.472	0.306	0.032
-71.480	800.000	-0.069	0.220
-70.465	-200.000	-0.020	0.234
-69.451	800.000	0.143	0.434
-68.436	-33.590	-0.252	0.137
-67.422	-142.005	-0.326	-0.032
-66.407	788.428	-0.111	-0.300
-65.392	-73.719	-0.152	-0.055
-64.378	-200.000	-0.017	0.112
-63.363	404.074	-0.028	0.057
-62.349	572.406	0.092	-0.222
-61.334	48.553	-1.076	-0.996
-60.319	47.303	0.348	0.321
-59.305	-200.000	-0.083	-0.745
-58.290	168.717	0.620	0.873
-57.276	383.795	0.661	1.345
-56.261	-200.000	98.827	587.952
-55.246	533.134	1410.193	3299.287
-54.232	148.975	2616.428	3496.157
-53.217	112.759	2177.290	2605.375
-52.203	45.467	1626.232	1483.126
-51.188	37.353	1361.039	1191.719
-50.173	34.090	1318.483	1134.983
-49.159	56.961	1368.400	1317.366
-48.144	60.483	1385.642	1355.251
-47.130	37.679	1339.866	1174.962
-46.115	34.106	1321.911	1137.846
-45.100	33.809	1317.396	1132.145
-44.086	33.763	1314.910	1129.694
-43.071	33.649	1312.867	1127.212
-42.057	33.668	1310.741	1125.459
-41.042	33.732	1308.915	1124.222
-40.027	33.755	1307.265	1122.899
-39.013	33.682	1306.188	1121.495
-37.998	33.769	1304.101	1120.171
-36.984	33.853	1302.224	1119.012
-35.969	33.943	1299.884	1117.486
-34.954	33.892	1298.639	1116.069
-33.940	33.996	1297.091	1115.309
-32.925	34.051	1295.801	1114.475
-31.911	33.915	1294.552	1112.562
-30.896	33.971	1292.714	1111.266
-29.881	34.047	1291.478	1110.601
-28.867	34.090	1289.743	1109.315
-27.852	33.994	1288.719	1107.833
-26.838	34.010	1287.247	1106.615
-25.823	33.938	1286.086	1105.153
-24.809	33.946	1284.860	1104.107
-23.794	33.953	1283.190	1102.666
-22.779	34.075	1281.753	1102.092
-21.765	34.021	1280.264	1100.456
-20.750	33.915	1279.586	1099.217
-19.736	33.835	1278.157	1097.485
-18.721	33.780	1277.178	1096.281
-17.706	33.819	1275.881	1095.350
-16.692	33.867	1274.779	1094.636
-15.677	33.763	1273.818	1093.169
-14.663	33.844	1272.579	1092.529
-13.648	33.807	1271.282	1091.160
-12.633	33.830	1270.635	1090.696
-11.619	33.756	1269.915	1089.607
-10.604	33.721	1269.040	1088.614
-9.590	33.761	1268.215	1088.089
-8.575	33.908	1266.595	1087.503
-7.560	33.821	1266.131	1086.561
-6.546	33.768	1265.066	1085.301
-5.531	33.652	1264.285	1083.923
-4.517	33.732	1263.337	1083.523
-3.502	33.732	1262.714	1082.946
-2.487	33.823	1261.678	1082.535
-1.473	33.793	1257.837	1079.029
-0.458	32.637	1242.954	1059.721
0.556	29.398	1224.993	1023.191
1.571	25.882	1230.491	1008.059
2.586	25.044	1245.882	1015.833
3.600	24.059	1234.526	1000.950
4.615	17.006	1159.122	902.356
5.629	6.558	1080.705	789.177
6.644	2.134	1059.612	751.956
7.659	1.695	1057.174	748.001
8.673	1.532	1055.972	746.284
9.688	1.502	1054.681	745.159
10.702	1.807	1052.876	745.314
11.717	8.240	1062.186	783.502
12.731	18.913	1077.094	847.314
13.746	24.228	1083.463	878.521
14.761	24.964	1085.236	883.512
15.775	24.985	1084.550	882.982
16.790	24.888	1083.371	881.464
17.804	24.875	1082.688	880.767
18.819	24.831	1082.632	880.427
19.834	25.051	1082.312	881.171
20.848	25.154	1081.747	881.138
21.863	25.169	1081.260	880.739
22.877	25.123	1080.576	879.879
23.892	25.029	1079.731	878.652
24.907	25.016	1078.950	877.872
25.921	25.015	1078.109	877.110
26.936	25.057	1076.547	875.963
27.950	25.035	1074.804	874.363
28.965	24.879	1072.869	871.952
29.980	24.789	1071.711	870.492
30.994	25.107	1071.060	871.436
32.009	24.983	1069.865	869.785
33.023	24.890	1068.683	868.294
34.038	24.879	1068.384	867.922
35.053	24.980	1067.536	867.645
36.067	24.958	1066.717	866.794
37.082	25.115	1065.980	866.877
38.096	25.215	1065.387	866.805
39.111	25.366	1064.775	866.957
40.126	25.149	1062.918	864.325
41.140	24.855	1061.320	861.532
42.155	24.704	1060.061	859.706
43.169	24.680	1059.101	858.739
44.184	24.782	1057.851	858.139
45.199	24.619	1057.485	856.983
46.213	24.608	1056.760	856.268
47.228	24.940	1055.390	856.670
48.242	24.959	1054.976	856.351
49.257	24.871	1054.362	855.354
50.271	25.123	1053.489	855.775
51.286	25.181	1052.645	855.291
52.301	25.182	1051.586	854.358
53.315	25.114	1050.529	853.098
54.330	24.977	1050.274	852.166
55.344	24.888	1049.488	851.028
56.359	25.044	1048.129	850.592
57.374	24.790	1047.635	848.911
58.388	24.785	1046.443	847.846
59.403	24.781	1045.275	846.807
60.417	24.520	1044.635	844.977
61.432	24.726	1044.185	845.515
62.447	24.818	1043.568	845.373
63.461	24.835	1042.652	844.639
64.476	24.643	1041.743	842.920
65.490	24.766	1040.031	842.041
66.505	24.762	1040.231	842.111
67.520	24.840	1039.513	841.818
68.534	24.725	1037.915	839.911
69.549	24.355	1036.963	837.330
70.563	24.318	1036.561	836.758
71.578	24.248	1035.682	835.644
72.593	24.245	1034.495	834.600
73.607	24.244	1034.069	834.179
74.622	24.505	1033.953	835.230
75.636	24.668	1033.150	835.269
76.651	24.316	1032.775	833.251
77.666	24.381	1031.539	832.483
78.680	24.398	1031.206	832.220
79.695	24.506	1030.434	832.025
80.709	24.606	1029.520	831.681
81.724	24.645	1028.727	831.145
82.739	24.664	1028.090	830.646
83.753	25.075	1027.694	832.162
84.768	25.326	1026.757	832.494
85.782	25.481	1025.770	832.339
86.797	25.321	1025.039	830.929
87.812	25.126	1024.168	829.247
88.826	25.145	1023.423	828.661
89.841	25.330	1022.387	828.601
90.855	25.407	1020.961	827.725
91.870	25.289	1020.292	826.570
92.884	25.183	1019.095	825.039
93.899	24.996	1018.527	823.643
94.914	25.269	1017.863	824.292
95.928	25.134	1016.547	822.533
96.943	24.902	1015.274	820.366
97.957	24.624	1014.136	818.100
98.972	24.621	1013.224	817.278
99.987	24.727	1012.505	817.111
101.001	24.963	1011.822	817.566
102.016	24.976	1010.843	816.763
103.030	24.876	1009.615	815.242
104.045	24.684	1009.171	813.936
105.060	24.649	1007.799	812.600
106.074	24.810	1007.102	812.698
107.089	25.086	1006.750	813.595
108.103	25.039	1005.739	812.490
109.118	24.792	1003.752	809.697
110.133	24.740	1003.254	808.990
111.147	24.671	1001.864	807.485
112.162	24.482	1001.411	806.196
113.176	24.766	1000.837	806.943
114.191	24.627	1000.214	805.740
115.206	24.356	998.922	803.410
116.220	24.398	997.576	802.445
117.235	24.490	997.223	802.501
118.249	24.347	996.276	801.029
119.264	24.326	995.648	800.356
120.279	24.352	995.197	800.040
121.293	24.459	994.166	799.621
122.308	24.404	993.220	798.545
123.322	24.382	991.805	797.235
124.337	24.397	990.682	796.331
125.352	23.754	989.352	792.324
126.366	23.754	988.236	791.362
127.381	24.592	987.991	794.825
128.395	24.918	988.022	796.228
129.410	24.884	987.105	795.268
130.424	24.985	985.792	794.587
131.439	24.824	984.901	793.087
132.454	24.880	983.981	792.522
133.468	24.757	983.522	791.540
134.483	25.068	982.076	791.681
135.497	25.232	981.762	792.081
136.512	25.312	980.958	791.716
137.527	25.152	980.486	790.559
138.541	25.277	979.165	789.973
139.556	25.285	978.465	789.376
140.570	25.345	978.189	789.344
141.585	25.357	976.874	788.268
142.600	25.325	975.770	787.166
143.614	25.472	975.012	787.127
144.629	25.510	974.681	786.958
145.643	25.366	973.076	784.961
146.658	25.058	972.421	783.019
147.673	25.114	971.020	782.066
148.687	25.100	969.816	780.968
149.702	25.053	968.851	779.917
150.716	24.919	968.222	778.757
151.731	25.080	967.558	778.854
152.746	25.277	967.231	779.378
153.760	25.412	966.322	779.163
154.775	25.579	965.831	779.420
155.789	25.361	964.880	777.643
156.804	25.344	963.926	776.732
157.819	25.404	962.936	776.122
158.833	25.479	962.983	776.416
159.848	25.513	961.646	775.416
160.862	25.351	960.709	773.892
161.877	25.321	959.823	772.984
162.892	25.380	958.893	772.419
163.906	25.335	957.586	771.103
164.921	25.315	956.510	770.083
165.935	25.476	955.611	769.983
166.950	25.413	955.009	769.160
167.964	25.309	954.390	768.147
168.979	25.264	952.946	766.726
169.994	25.239	951.818	765.643
171.008	25.406	951.873	766.332
172.023	25.489	950.807	765.759
173.037	25.171	949.890	763.600
174.052	25.057	948.722	762.109
175.067	25.064	948.444	761.846
176.081	25.142	947.958	761.722
177.096	25.192	946.888	761.007
178.110	24.858	946.342	759.084
179.125	24.692	945.452	757.600
180.140	24.883	945.197	758.136
181.154	24.903	944.811	757.846
182.169	25.265	944.710	759.228
183.183	25.433	943.780	759.123
184.198	25.375	942.948	758.141
185.213	25.357	942.440	757.592
186.227	25.301	942.298	757.174
187.242	25.387	941.466	756.801
188.256	25.410	940.604	756.138
189.271	25.520	939.829	755.910
190.286	25.128	938.768	753.343
191.300	24.389	937.845	749.434
192.315	23.678	935.882	744.817
193.329	23.763	935.016	744.418
194.344	24.659	935.738	748.684
195.359	25.151	935.903	750.807
196.373	25.397	935.073	751.105
197.388	25.016	935.065	749.438
198.402	25.303	933.832	749.581
199.417	25.361	933.435	749.441
200.432	25.024	932.465	747.188
201.446	24.957	931.656	746.195
202.461	24.802	931.328	745.223
203.475	23.989	929.108	740.000
204.490	23.381	927.712	736.296
205.504	24.330	927.907	740.329
206.519	24.943	927.929	742.823
207.534	25.023	927.442	742.701
208.548	25.405	927.164	743.992
209.563	25.049	926.490	741.913
210.577	25.058	926.041	741.524
211.592	25.546	925.708	743.211
212.607	25.429	924.948	742.050
213.621	25.588	924.209	742.048
214.636	25.463	923.488	740.890
215.650	25.459	922.819	740.273
216.665	25.636	921.631	739.980
217.680	25.535	921.482	739.379
218.694	25.076	920.229	736.424
219.709	24.901	919.716	735.229
220.723	25.155	919.631	736.139
221.738	25.254	918.792	735.809
222.753	25.163	918.039	734.766
223.767	25.300	918.173	735.369
224.782	25.567	917.569	735.916
225.796	25.463	917.024	734.988
226.811	24.870	915.190	731.030
227.826	24.201	914.101	727.366
228.840	24.550	913.636	728.355
229.855	24.686	912.682	728.087
230.869	24.105	911.962	725.082
231.884	24.593	911.973	727.013
232.899	25.336	911.971	729.969
233.913	25.341	911.044	729.183
234.928	25.191	910.923	728.411
235.942	25.084	910.201	727.336
236.957	24.716	909.042	724.855
237.972	24.831	908.844	725.097
238.986	24.876	908.445	724.898
240.001	25.077	907.463	724.862
241.015	25.185	906.753	724.667
242.030	25.215	906.433	724.468
243.045	25.159	906.429	724.177
244.059	25.498	905.937	725.084
245.074	25.235	904.809	723.059
246.088	24.958	903.968	721.207
247.103	25.200	903.645	721.862
248.117	25.742	903.568	723.915
249.132	26.070	903.378	725.018
250.147	26.107	902.953	724.759
251.161	26.159	902.083	724.206
252.176	25.971	902.227	723.505
253.190	26.311	901.280	724.042
254.205	26.356	901.219	724.109
255.220	26.273	900.295	722.973
256.234	26.259	899.698	722.371
257.249	26.190	898.426	721.010
258.263	26.283	897.956	720.940
259.278	26.192	897.263	719.957
260.293	26.165	897.123	719.674
261.307	26.077	896.488	718.751
262.322	26.022	895.370	717.571
263.336	25.190	892.990	712.299
264.351	24.174	891.538	707.046
265.366	24.329	891.200	707.332
266.380	25.499	891.718	712.320
267.395	25.819	891.802	713.594
268.409	25.737	891.047	712.600
269.424	25.901	890.561	712.800
270.439	25.967	889.854	712.428
271.453	25.954	889.248	711.830
272.468	26.087	889.406	712.419
273.482	26.292	888.486	712.425
274.497	25.832	887.170	709.496
275.512	25.626	885.946	707.644
276.526	25.790	886.568	708.727
277.541	25.958	886.195	709.024
278.555	25.819	885.124	707.560
279.570	25.816	884.120	706.683
280.585	25.954	883.934	707.014
281.599	25.810	882.994	705.633
282.614	25.147	881.961	702.152
283.628	25.199	881.535	701.954
284.643	25.522	881.289	702.959
285.657	25.105	879.532	699.869
286.672	24.947	878.874	698.666
287.687	25.478	879.087	700.843
288.701	25.683	878.155	700.838
289.716	25.301	877.651	698.887
290.730	25.151	877.062	697.772
291.745	25.119	875.905	696.667
292.760	25.373	875.869	697.562
293.774	26.245	876.481	701.374
294.789	26.593	876.226	702.459
295.803	26.619	875.745	702.113
296.818	26.636	874.776	701.338
297.833	26.119	873.723	698.434
298.847	25.954	873.264	697.368
299.862	26.253	872.823	698.109
300.876	26.490	872.881	699.006
301.891	26.489	871.587	697.905
302.906	25.962	871.097	695.421
303.920	26.124	870.823	695.764
304.935	26.595	870.342	697.131
305.949	26.543	869.638	696.305
306.964	26.099	869.143	694.141
307.979	26.218	868.957	694.390
308.993	26.508	868.542	695.110
310.008	26.739	867.621	695.196
311.022	26.387	866.825	693.149
312.037	26.207	866.327	691.999
313.052	25.957	865.562	690.369
314.066	25.197	863.548	685.798
315.081	24.743	863.421	683.903
316.095	25.664	863.448	687.383
317.110	26.264	862.946	689.214
318.125	25.148	861.735	683.930
319.139	24.137	860.146	678.756
320.154	24.250	859.855	678.897
321.168	25.150	860.249	682.575
322.183	25.932	860.263	685.504
323.197	26.083	859.834	685.675
324.212	26.422	859.590	686.707
325.227	26.415	858.734	685.936
326.241	26.009	858.528	684.171
327.256	26.035	857.763	683.598
328.270	25.924	856.888	682.422
329.285	25.702	856.120	680.908
330.300	25.487	855.514	679.554
331.314	25.729	855.128	680.101
332.329	26.300	854.833	681.961
333.343	26.451	854.777	682.426
334.358	26.385	854.139	681.610
335.373	26.590	853.618	681.905
336.387	26.623	854.018	682.287
337.402	26.723	854.195	682.744
338.416	26.542	853.540	681.480
339.431	26.939	853.352	682.763
340.446	26.956	852.914	682.418
341.460	26.855	852.195	681.401
342.475	26.511	852.023	679.911
343.489	26.878	851.344	680.685
344.504	27.018	851.225	681.056
345.519	27.157	850.959	681.306
346.533	27.165	850.143	680.621
347.548	27.324	849.449	680.601
348.562	27.199	849.098	679.792
349.577	27.136	848.161	678.744
350.592	26.973	847.985	677.936
351.606	27.063	847.011	677.434
352.621	26.836	846.204	675.881
353.635	26.893	845.434	675.419
354.650	26.206	843.612	671.352
355.665	25.345	842.166	666.944
356.679	25.775	842.027	668.370
357.694	26.183	841.810	669.652
358.708	26.042	841.185	668.574
359.723	26.675	840.812	670.565
360.738	26.661	840.857	670.489
361.752	26.829	840.666	670.897
362.767	27.283	839.805	671.829
363.781	27.323	839.897	671.990
364.796	27.609	839.185	672.415
365.810	27.620	838.937	672.198
366.825	27.669	838.210	671.736
367.840	27.359	837.535	669.995
368.854	26.809	836.630	667.187
369.869	26.972	836.232	667.414
370.883	26.848	835.626	666.416
371.898	26.781	835.573	666.067
372.913	26.850	835.428	666.144
373.927	27.088	834.586	666.290
374.942	27.166	834.392	666.362
375.956	27.453	833.625	666.740
376.971	27.347	833.796	666.427
377.986	27.485	833.394	666.554
379.000	27.559	832.487	666.040
380.015	27.199	832.315	664.529
381.029	27.252	831.537	664.042
382.044	27.520	830.962	664.502
383.059	27.458	830.751	664.049
384.073	27.551	830.067	663.780
385.088	27.404	829.248	662.534
386.102	27.246	828.600	661.381
387.117	27.135	827.625	660.141
388.132	26.908	826.536	658.392
389.146	26.375	825.429	655.518
390.161	26.701	825.771	656.913
391.175	27.349	825.349	658.868
392.190	26.890	824.469	656.446
393.205	25.396	822.462	649.394
394.219	23.997	820.522	642.755
395.234	23.998	820.430	642.629
396.248	25.500	821.880	649.139
397.263	26.992	822.747	655.153
398.278	27.070	821.914	654.715
399.292	26.723	821.412	653.007
400.307	26.680	821.137	652.573
401.321	26.922	820.846	653.156
402.336	27.330	820.688	654.440
403.350	27.806	820.452	655.904
404.365	27.935	820.316	656.204
405.380	28.210	820.175	657.018
406.394	28.326	819.307	656.682
407.409	28.186	818.653	655.598
408.423	28.088	818.588	655.136
409.438	28.123	818.391	655.047
410.453	28.100	817.901	654.515
411.467	28.222	817.411	654.500
412.482	28.215	817.057	654.133
413.496	28.215	816.735	653.817
414.511	28.267	816.129	653.459
415.526	28.152	815.740	652.680
416.540	28.034	814.993	651.607
417.555	27.821	814.145	650.113
418.569	27.916	813.704	650.038
419.584	27.926	813.009	649.461
420.599	27.744	812.687	648.499
421.613	107.641	1284.053	1448.129
422.628	93.046	1352.747	1448.257
