DTS Sentinel unit serial number:	SN413079Multiplexer serial number:	ORYXHardware model number:	OX4-SRSoftware version number:	ORYX F/W v4.00 Oryx Data Collector v3.7.2.0data status	okinstallation	princeton_trtdifferential loss correction	single-endedforward channel	channel 1reverse channel	N/Adate	2019/09/14time	19:50:35forward acquisition time	60.00reverse acquisition time	0.00gamma	496.2192k internal	0.2314k external	0.2314temperature offset calibration	1.0027default loss term (dB/km)	0.3790temperature slope calibration	1.0000multiplexer offset coefficient	1.0000multiplexer slope coefficient	1.0000fibre end	0.00T internal ref (°C)	34.28T ext. ref 1 (°C)	4.88T ext. ref 2 (°C)	28.50length (m)	temperature (°C)	Stokes	anti-Stokes-747.200	800.000	0.022	-0.077
-746.185	-110.944	0.073	-0.015
-745.171	310.264	-0.163	-0.310
-744.156	65.975	0.055	-0.057
-743.142	-47.377	0.108	0.053
-742.127	-141.018	-0.276	-0.029
-741.112	120.755	0.091	-0.114
-740.098	285.470	0.017	0.031
-739.083	-81.418	0.275	0.092
-738.069	-134.495	0.043	-0.005
-737.054	116.310	0.100	0.124
-736.039	-111.201	-0.417	0.087
-735.025	-92.278	0.281	-0.080
-734.010	-200.000	-0.037	0.242
-732.996	107.583	-0.136	-0.163
-731.981	67.649	0.250	-0.259
-730.966	-20.973	0.394	-0.244
-729.952	-126.734	-0.491	-0.074
-728.937	-63.017	-0.444	-0.186
-727.923	115.413	0.132	-0.164
-726.908	-200.000	0.028	-0.197
-725.894	800.000	0.072	-0.205
-724.879	-200.000	-0.011	0.230
-723.864	67.347	-0.125	0.129
-722.850	-71.480	0.546	-0.207
-721.835	189.586	-0.188	-0.285
-720.821	-71.684	0.104	0.039
-719.806	602.837	0.121	0.306
-718.791	-104.524	-0.365	-0.085
-717.777	27.449	-0.431	-0.367
-716.762	103.692	-0.063	0.074
-715.748	25.182	-0.336	-0.283
-714.733	-200.000	-0.038	-0.283
-713.718	-62.611	0.263	-0.111
-712.704	-148.272	0.379	-0.032
-711.689	146.449	-0.013	0.018
-710.675	-51.659	-0.409	0.193
-709.660	640.463	-0.062	-0.161
-708.645	-143.421	0.107	0.010
-707.631	233.123	0.161	-0.268
-706.616	-69.429	-0.487	0.189
-705.602	168.862	-0.123	0.177
-704.587	-95.379	0.133	-0.036
-703.572	-200.000	0.004	-0.136
-702.558	86.214	-0.242	-0.270
-701.543	-29.865	-0.150	0.087
-700.529	-10.561	0.175	-0.117
-699.514	49.850	-0.115	-0.110
-698.499	6.226	0.284	-0.213
-697.485	482.261	-0.106	-0.245
-696.470	-7.372	0.312	-0.214
-695.456	800.000	-0.097	-0.306
-694.441	800.000	-0.135	0.495
-693.426	196.126	0.117	-0.180
-692.412	83.516	0.057	0.063
-691.397	154.835	0.100	0.140
-690.383	-98.212	-0.236	0.061
-689.368	-200.000	0.013	0.244
-688.354	151.786	0.134	-0.184
-687.339	114.465	-0.069	-0.085
-686.324	-75.432	0.247	-0.089
-685.310	-157.187	-0.195	-0.012
-684.295	673.031	0.049	-0.127
-683.281	78.708	0.075	0.081
-682.266	235.547	-0.078	-0.131
-681.251	-200.000	-0.006	-0.136
-680.237	72.726	-0.161	-0.170
-679.222	179.022	-0.130	-0.192
-678.208	-89.411	0.176	0.052
-677.193	-24.513	-0.267	0.161
-676.178	166.939	-0.215	-0.309
-675.164	84.709	-0.132	0.146
-674.149	-82.922	0.121	-0.039
-673.135	25.572	-0.099	-0.083
-672.120	71.480	-0.124	-0.130
-671.105	203.618	0.067	-0.105
-670.091	253.370	0.160	-0.277
-669.076	-200.000	-0.020	-0.098
-668.062	142.704	-0.123	-0.166
-667.047	-154.733	0.320	-0.021
-666.032	90.424	-0.164	-0.186
-665.018	800.000	-0.056	-0.214
-664.003	28.838	0.219	-0.187
-662.989	-77.650	0.228	0.080
-661.974	9.276	-0.250	-0.191
-660.959	54.988	0.146	0.142
-659.945	15.315	-0.069	0.055
-658.930	-200.000	-0.041	-0.184
-657.916	-186.848	-0.260	0.004
-656.901	17.640	0.399	-0.321
-655.886	800.000	-0.032	0.112
-654.872	117.848	0.136	-0.170
-653.857	-40.857	0.131	-0.069
-652.843	361.538	-0.164	0.333
-651.828	142.358	-0.089	0.120
-650.814	-24.850	-0.311	-0.187
-649.799	575.544	0.112	0.277
-648.784	393.992	-0.042	0.088
-647.770	187.534	0.110	0.166
-646.755	30.128	0.297	-0.256
-645.741	20.957	-0.080	0.066
-644.726	-137.868	0.328	0.037
-643.711	-200.000	-0.030	0.310
-642.697	-200.000	0.040	0.277
-641.682	-71.907	-0.424	-0.159
-640.668	-150.579	-0.374	-0.029
-639.653	-146.928	0.126	0.011
-638.638	-77.241	-0.111	-0.039
-637.624	455.475	0.082	-0.185
-636.609	-128.830	-0.557	0.079
-635.595	800.000	0.100	0.358
-634.580	-67.971	0.423	-0.167
-633.565	-153.639	-0.294	0.020
-632.551	-200.000	0.006	-0.229
-631.536	17.378	-0.169	-0.135
-630.522	658.958	-0.110	0.287
-629.507	-200.000	-0.023	0.269
-628.492	-117.818	0.063	-0.012
-627.478	141.691	0.211	-0.282
-626.463	-154.582	-0.129	0.009
-625.449	800.000	0.020	0.080
-624.434	-200.000	-0.002	0.167
-623.419	8.080	0.077	0.059
-622.405	800.000	-0.047	0.153
-621.390	-89.777	0.349	-0.103
-620.376	68.149	0.173	0.178
-619.361	64.088	-0.014	-0.015
-618.346	384.242	-0.024	-0.049
-617.332	-72.965	-0.171	-0.063
-616.317	116.719	-0.217	0.269
-615.303	77.174	0.147	0.157
-614.288	-200.000	0.049	-0.279
-613.273	-200.000	0.015	0.145
-612.259	-124.077	-0.046	0.007
-611.244	800.000	-0.081	-0.244
-610.230	102.409	-0.072	0.085
-609.215	-57.624	-0.177	0.078
-608.201	800.000	0.075	0.235
-607.186	-27.611	-0.052	0.030
-606.171	-164.233	-0.088	-0.004
-605.157	-96.238	0.262	0.070
-604.142	-76.372	0.221	0.078
-603.128	-10.271	-0.087	-0.058
-602.113	153.044	0.306	-0.422
-601.098	-106.542	0.175	0.039
-600.084	67.621	-0.166	-0.171
-599.069	-200.000	-0.006	-0.028
-598.055	-126.004	-0.253	-0.038
-597.040	167.269	0.163	-0.233
-596.025	-93.414	-0.226	0.063
-595.011	-200.000	0.014	-0.087
-593.996	118.243	-0.079	-0.098
-592.982	0.933	0.042	-0.030
-591.967	-99.869	0.275	0.069
-590.952	174.556	-0.100	-0.146
-589.938	65.231	-0.207	0.211
-588.923	-200.000	0.042	0.302
-587.909	63.687	0.143	-0.145
-586.894	770.929	0.082	-0.224
-585.879	3.877	-0.264	-0.194
-584.865	-200.000	0.012	0.063
-583.850	-134.533	0.179	-0.022
-582.836	-33.302	-0.150	-0.084
-581.821	-143.801	0.174	0.017
-580.806	-145.879	-0.102	0.009
-579.792	800.000	-0.037	-0.141
-578.777	-94.505	-0.144	-0.040
-577.763	103.100	-0.257	-0.303
-576.748	34.870	-0.206	0.182
-575.733	-200.000	-0.000	0.163
-574.719	31.853	0.259	-0.225
-573.704	-128.000	0.299	0.043
-572.690	67.208	0.162	0.167
-571.675	-2.444	0.074	0.052
-570.661	-101.369	-0.510	0.125
-569.646	800.000	0.052	-0.225
-568.631	-49.972	0.104	-0.050
-567.617	426.834	-0.056	-0.121
-566.602	148.818	0.023	-0.032
-565.588	-45.166	-0.142	0.071
-564.573	55.845	-0.091	-0.089
-563.558	-200.000	0.009	-0.264
-562.544	487.859	0.127	-0.292
-561.529	-30.204	0.215	0.123
-560.515	-200.000	0.031	-0.300
-559.500	-116.017	0.261	-0.049
-558.485	-200.000	-0.001	0.043
-557.471	-200.000	-0.013	0.315
-556.456	-130.522	-0.446	-0.061
-555.442	-200.000	0.016	-0.251
-554.427	-87.072	0.166	-0.051
-553.412	-113.925	0.290	0.057
-552.398	485.716	0.152	-0.349
-551.383	-200.000	-0.015	-0.331
-550.369	96.062	-0.025	-0.029
-549.354	-200.000	-0.036	-0.207
-548.339	149.539	0.159	-0.217
-547.325	156.125	-0.113	0.157
-546.310	-63.299	-0.257	0.106
-545.296	-92.235	-0.328	0.093
-544.281	800.000	-0.039	-0.122
-543.266	556.564	-0.024	-0.059
-542.252	17.624	0.174	-0.139
-541.237	-79.189	-0.265	-0.091
-540.223	42.688	0.103	0.094
-539.208	-11.960	0.132	0.087
-538.193	-67.252	-0.227	0.090
-537.179	-34.965	0.296	-0.162
-536.164	238.267	-0.128	-0.214
-535.150	-200.000	0.001	-0.421
-534.135	325.602	0.175	-0.337
-533.121	40.604	-0.206	-0.187
-532.106	-200.000	-0.008	-0.187
-531.091	800.000	0.050	-0.141
-530.077	-167.310	0.237	0.010
-529.062	314.235	0.039	0.075
-528.048	800.000	-0.020	-0.086
-527.033	-141.745	0.054	0.005
-526.018	704.504	0.084	-0.221
-525.004	48.433	0.224	-0.211
-523.989	-64.676	-0.306	-0.125
-522.975	18.566	0.133	-0.107
-521.960	-200.000	0.010	0.098
-520.945	-200.000	-0.015	-0.391
-519.931	40.093	-0.105	0.094
-518.916	800.000	-0.038	0.130
-517.902	-151.673	-0.077	-0.006
-516.887	-77.800	-0.015	0.005
-515.872	-200.000	0.016	-0.217
-514.858	52.999	-0.230	-0.221
-513.843	800.000	-0.131	0.425
-512.829	800.000	0.052	-0.180
-511.814	40.132	0.122	0.110
-510.799	122.161	-0.152	-0.191
-509.785	87.875	-0.151	0.168
-508.770	-141.705	-0.073	-0.007
-507.756	-7.254	-0.025	-0.017
-506.741	152.661	0.074	-0.102
-505.726	172.353	0.069	0.099
-504.712	-47.354	-0.074	0.036
-503.697	-101.840	0.129	0.031
-502.683	-118.094	-0.369	-0.066
-501.668	-52.655	-0.241	-0.112
-500.653	-200.000	-0.019	-0.311
-499.639	800.000	0.043	0.152
-498.624	-10.301	-0.282	0.188
-497.610	620.809	0.048	0.121
-496.595	100.235	-0.063	0.074
-495.581	102.249	0.111	0.130
-494.566	-108.370	-0.219	0.047
-493.551	-23.785	0.148	0.089
-492.537	53.412	0.165	0.159
-491.522	-105.835	-0.209	-0.047
-490.508	-18.926	0.331	-0.207
-489.493	-200.000	-0.012	0.232
-488.478	-40.740	0.256	-0.133
-487.464	-200.000	0.023	-0.183
-486.449	-200.000	-0.018	-0.268
-485.435	-33.272	0.184	-0.102
-484.420	800.000	-0.066	0.214
-483.405	153.981	0.108	0.148
-482.391	-28.105	0.436	0.253
-481.376	3.773	0.143	0.105
-480.362	-130.871	0.168	-0.023
-479.347	-200.000	0.021	0.140
-478.332	-94.506	0.177	0.048
-477.318	-119.106	-0.156	0.027
-476.303	515.835	-0.140	0.328
-475.289	-6.678	-0.229	-0.157
-474.274	-147.341	-0.315	-0.027
-473.259	491.583	0.062	-0.143
-472.245	-13.116	-0.055	-0.036
-471.230	-193.878	-0.076	-0.001
-470.216	-56.469	-0.100	0.045
-469.201	-200.000	-0.055	-0.252
-468.186	-200.000	-0.041	0.204
-467.172	12.084	0.063	-0.049
-466.157	-35.675	-0.264	0.143
-465.143	148.035	-0.085	-0.115
-464.128	-81.469	0.207	0.068
-463.113	-44.621	-0.127	-0.064
-462.099	-164.044	0.231	-0.011
-461.084	800.000	0.097	-0.366
-460.070	-25.339	-0.274	0.162
-459.055	519.390	-0.114	-0.267
-458.040	158.489	-0.155	0.216
-457.026	-102.185	-0.209	0.050
-456.011	146.108	-0.081	0.109
-454.997	-200.000	-0.076	0.395
-453.982	-200.000	0.060	0.392
-452.968	-118.453	0.389	0.069
-451.953	-200.000	0.041	-0.298
-450.938	-166.887	-0.211	0.009
-449.924	800.000	-0.052	-0.199
-448.909	-25.578	-0.036	-0.021
-447.895	800.000	0.099	0.294
-446.880	-170.469	0.168	0.006
-445.865	-16.020	-0.079	0.050
-444.851	273.733	-0.126	0.223
-443.836	-112.416	-0.157	-0.031
-442.822	74.854	0.147	0.155
-441.807	127.667	0.090	0.114
-440.792	84.433	-0.250	0.274
-439.778	-110.807	0.290	-0.060
-438.763	-135.813	-0.516	0.061
-437.749	-102.546	0.247	0.059
-436.734	142.303	-0.162	-0.215
-435.719	-141.844	-0.261	-0.026
-434.705	116.751	0.154	0.190
-433.690	-195.774	-0.091	0.001
-432.676	-20.194	-0.225	-0.139
-431.661	85.531	-0.072	-0.079
-430.646	770.046	-0.065	-0.178
-429.632	57.127	-0.087	0.085
-428.617	209.913	-0.053	0.084
-427.603	-110.052	0.197	0.041
-426.588	-122.496	-0.046	-0.007
-425.573	198.181	-0.222	-0.340
-424.559	-73.530	-0.170	-0.062
-423.544	417.773	0.156	0.334
-422.530	-200.000	-0.030	0.207
-421.515	-61.425	0.177	0.074
-420.500	382.189	0.120	0.247
-419.486	-200.000	0.026	-0.130
-418.471	-20.302	0.080	-0.049
-417.457	-29.951	-0.083	-0.047
-416.442	-200.000	-0.035	0.204
-415.428	800.000	0.051	0.215
-414.413	694.646	-0.076	-0.199
-413.398	103.024	0.120	-0.141
-412.384	17.967	0.312	0.249
-411.369	30.462	0.233	0.200
-410.355	617.513	0.215	0.539
-409.340	-200.000	-0.003	0.184
-408.325	497.763	0.106	0.245
-407.311	-200.000	0.014	0.273
-406.296	-200.000	-0.005	0.118
-405.282	310.909	0.092	-0.172
-404.267	-29.517	-0.301	-0.172
-403.252	-142.007	0.056	-0.006
-402.238	217.596	-0.086	-0.137
-401.223	40.917	-0.222	-0.201
-400.209	-200.000	-0.041	-0.315
-399.194	800.000	-0.047	-0.168
-398.179	-149.157	0.018	0.001
-397.165	-122.207	-0.320	-0.052
-396.150	-129.428	-0.087	0.012
-395.136	800.000	0.093	0.262
-394.121	-46.176	-0.283	0.139
-393.106	-200.000	0.032	0.292
-392.092	89.159	-0.282	0.315
-391.077	-144.444	-0.268	-0.025
-390.063	-200.000	0.001	0.014
-389.048	523.667	0.030	0.071
-388.033	800.000	-0.040	-0.163
-387.019	60.453	0.284	-0.281
-386.004	-200.000	-0.023	0.328
-384.990	800.000	-0.105	0.297
-383.975	-65.989	0.508	-0.203
-382.960	166.656	0.038	-0.053
-381.946	-114.568	0.170	-0.033
-380.931	96.619	-0.334	0.382
-379.917	74.288	0.257	0.270
-378.902	-116.210	0.090	-0.017
-377.888	-182.548	0.176	0.003
-376.873	79.446	0.096	-0.103
-375.858	800.000	0.066	0.245
-374.844	45.403	0.256	-0.237
-373.829	185.501	-0.089	0.133
-372.815	-9.325	0.155	-0.104
-371.800	-82.440	0.131	-0.043
-370.785	-200.000	0.009	0.098
-369.771	800.000	-0.060	0.215
-368.756	724.153	0.051	-0.137
-367.742	-39.450	0.166	0.087
-366.727	-33.367	0.171	-0.094
-365.712	-24.586	-0.066	0.039
-364.698	-155.120	0.512	-0.033
-363.683	-14.175	-0.129	-0.083
-362.669	216.270	-0.074	0.118
-361.654	169.722	0.099	-0.141
-360.639	146.463	0.070	0.094
-359.625	135.111	-0.121	-0.157
-358.610	19.889	-0.054	-0.044
-357.596	8.912	0.191	-0.144
-356.581	328.240	0.126	-0.242
-355.566	105.260	0.174	0.205
-354.552	636.199	0.141	0.356
-353.537	-106.050	0.127	0.029
-352.523	-108.942	-0.127	0.027
-351.508	-200.000	-0.022	-0.100
-350.493	-92.538	0.366	0.103
-349.479	-110.992	0.229	-0.047
-348.464	-200.000	-0.055	-0.342
-347.450	-18.175	-0.182	0.114
-346.435	-200.000	0.065	-0.293
-345.420	-89.092	0.044	-0.013
-344.406	22.170	-0.147	0.120
-343.391	800.000	0.136	-0.512
-342.377	25.954	0.190	-0.158
-341.362	-2.576	0.146	-0.102
-340.348	-87.439	0.198	-0.060
-339.333	127.033	0.195	-0.247
-338.318	95.965	-0.113	-0.129
-337.304	-148.908	0.160	0.013
-336.289	-77.574	-0.362	0.125
-335.275	17.880	0.146	0.116
-334.260	800.000	-0.075	-0.223
-333.245	800.000	0.008	-0.028
-332.231	-200.000	0.030	0.477
-331.216	-150.695	-0.245	-0.019
-330.202	-122.193	-0.180	0.029
-329.187	800.000	0.092	-0.345
-328.172	33.228	0.184	-0.160
-327.158	498.991	0.072	-0.164
-326.143	107.549	-0.127	-0.150
-325.129	510.473	-0.045	-0.104
-324.114	-81.327	-0.042	0.014
-323.099	190.881	-0.083	0.124
-322.085	-32.047	0.204	-0.114
-321.070	108.835	-0.162	-0.193
-320.056	401.265	-0.048	-0.101
-319.041	13.231	-0.052	0.040
-318.026	104.896	-0.068	-0.080
-317.012	-165.301	0.347	0.015
-315.997	-134.343	-0.390	-0.048
-314.983	-93.129	-0.267	0.074
-313.968	-127.345	-0.181	0.026
-312.953	152.840	-0.098	-0.134
-311.939	-81.302	-0.041	0.014
-310.924	800.000	0.081	-0.242
-309.910	3.612	0.251	0.183
-308.895	606.457	0.088	-0.217
-307.880	200.332	0.040	0.061
-306.866	3.620	-0.182	0.132
-305.851	60.687	0.296	-0.292
-304.837	-22.014	0.257	-0.156
-303.822	800.000	-0.049	0.138
-302.807	-45.285	-0.147	0.073
-301.793	-132.394	0.195	0.025
-300.778	14.311	-0.282	-0.219
-299.764	235.682	-0.111	-0.183
-298.749	210.454	0.222	-0.348
-297.735	-45.652	-0.243	0.120
-296.720	81.375	0.162	-0.175
-295.705	33.985	-0.380	0.329
-294.691	139.525	-0.091	0.120
-293.676	-82.208	-0.262	-0.085
-292.662	-167.746	-0.089	0.004
-291.647	-24.452	-0.152	-0.090
-290.632	-200.000	-0.012	0.114
-289.618	670.280	0.039	0.101
-288.603	16.984	0.082	0.065
-287.589	101.237	-0.185	0.214
-286.574	-106.966	-0.253	-0.056
-285.559	80.815	-0.043	0.046
-284.545	-41.188	0.044	0.023
-283.530	800.000	0.103	-0.352
-282.516	51.040	-0.116	-0.109
-281.501	-200.000	0.014	0.085
-280.486	800.000	-0.073	0.217
-279.472	659.313	0.052	0.134
-278.457	-200.000	0.020	-0.412
-277.443	450.367	-0.067	-0.146
-276.428	-82.712	0.235	0.076
-275.413	19.759	0.157	0.126
-274.399	-157.966	-0.366	0.021
-273.384	-200.000	0.021	-0.267
-272.370	250.412	-0.114	0.193
-271.355	-120.898	-0.512	-0.086
-270.340	-68.616	0.083	-0.032
-269.326	29.126	0.217	-0.183
-268.311	31.003	0.095	-0.081
-267.297	800.000	0.045	0.152
-266.282	293.451	-0.265	0.481
-265.267	-127.831	0.476	0.068
-264.253	-200.000	-0.054	0.374
-263.238	-21.948	-0.263	0.159
-262.224	-200.000	0.030	-0.179
-261.209	-16.478	-0.200	-0.126
-260.195	-200.000	-0.313	0.001
-259.180	-200.000	0.024	0.115
-258.165	78.158	0.254	0.270
-257.151	-200.000	0.006	0.590
-256.136	-200.000	0.001	-0.052
-255.122	-32.382	0.303	0.168
-254.107	215.533	-0.077	0.122
-253.092	800.000	-0.033	-0.114
-252.078	14.224	0.258	-0.200
-251.063	-36.731	0.319	-0.170
-250.049	75.437	0.141	-0.148
-249.034	800.000	-0.078	0.325
-248.019	163.377	-0.128	0.179
-247.005	-7.166	-0.131	-0.088
-245.990	-200.000	0.047	-0.242
-244.976	298.268	0.101	0.185
-243.961	-52.891	0.256	0.117
-242.946	267.289	0.135	0.235
-241.932	-125.816	0.228	-0.034
-240.917	-200.000	-0.026	0.242
-239.903	-53.858	0.069	-0.031
-238.888	-188.632	-0.273	-0.003
-237.873	-86.115	-0.069	-0.021
-236.859	-83.508	-0.244	0.077
-235.844	-200.000	-0.002	-0.055
-234.830	-18.469	0.120	0.074
-233.815	-200.000	-0.044	0.289
-232.800	800.000	-0.062	-0.192
-231.786	308.374	0.072	0.134
-230.771	51.068	-0.320	-0.302
-229.757	22.363	0.302	0.245
-228.742	509.955	0.081	0.187
-227.727	-32.929	0.098	0.054
-226.713	59.407	-0.082	0.081
-225.698	-200.000	-0.021	0.195
-224.684	-42.027	0.231	0.118
-223.669	-61.363	0.112	0.047
-222.655	-200.000	-0.040	0.270
-221.640	81.365	0.110	0.118
-220.625	-21.142	-0.207	-0.126
-219.611	-110.582	-0.209	0.043
-218.596	-41.408	-0.038	0.019
-217.582	185.548	-0.177	-0.261
-216.567	-176.688	-0.114	-0.003
-215.552	33.758	0.168	0.145
-214.538	90.546	-0.085	0.095
-213.523	56.121	-0.242	-0.233
-212.509	236.284	0.046	-0.075
-211.494	-2.211	-0.327	0.228
-210.479	-200.000	0.012	-0.123
-209.465	10.395	-0.134	-0.101
-208.450	-24.301	0.126	0.075
-207.436	179.392	0.092	-0.133
-206.421	-102.126	0.279	-0.067
-205.406	-139.224	-0.081	-0.009
-204.392	15.675	0.131	0.103
-203.377	-41.462	0.337	-0.172
-202.363	397.714	-0.100	0.208
-201.348	512.235	0.180	0.417
-200.333	17.196	-0.167	-0.132
-199.319	-88.987	0.310	-0.091
-198.304	-129.206	0.287	-0.040
-197.290	69.798	0.055	0.056
-196.275	730.829	-0.067	0.177
-195.260	-109.458	-0.254	0.053
-194.246	422.185	0.090	0.191
-193.231	800.000	-0.012	-0.039
-192.217	493.104	-0.065	0.149
-191.202	423.495	0.063	-0.134
-190.187	-167.893	-0.132	-0.005
-189.173	-81.942	0.173	0.056
-188.158	-200.000	0.038	0.251
-187.144	-118.956	-0.362	0.063
-186.129	43.675	0.113	-0.103
-185.114	800.000	-0.072	-0.295
-184.100	-113.424	-0.114	-0.022
-183.085	-137.244	-0.255	0.029
-182.071	-124.644	0.107	-0.016
-181.056	-146.107	0.235	0.021
-180.042	800.000	0.040	-0.118
-179.027	112.276	0.096	0.115
-178.012	-99.556	0.060	0.015
-176.998	-16.915	-0.220	0.138
-175.983	-64.162	-0.167	-0.068
-174.969	800.000	-0.069	-0.203
-173.954	-16.101	0.242	0.152
-172.939	800.000	0.070	-0.221
-171.925	-200.000	0.031	-0.288
-170.910	461.959	0.115	0.255
-169.896	-200.000	-0.022	-0.112
-168.881	122.867	-0.225	-0.279
-167.866	148.292	0.194	-0.260
-166.852	-54.129	0.284	0.128
-165.837	800.000	-0.057	-0.195
-164.823	43.025	0.225	0.203
-163.808	-200.000	-0.020	-0.137
-162.793	-41.930	-0.204	0.104
-161.779	-185.921	-0.206	0.003
-160.764	-120.287	0.258	-0.044
-159.750	232.437	0.097	-0.158
-158.735	137.748	0.090	0.117
-157.720	-12.412	-0.053	0.034
-156.706	-14.297	0.114	0.073
-155.691	132.414	-0.061	0.077
-154.677	800.000	-0.058	-0.187
-153.662	515.721	0.020	0.045
-152.647	-120.618	-0.242	-0.041
-151.633	-200.000	0.013	0.094
-150.618	-37.915	0.102	-0.054
-149.604	-93.109	0.149	0.041
-148.589	-46.832	0.252	0.122
-147.574	-41.483	0.255	-0.130
-146.560	-200.000	-0.012	-0.067
-145.545	-105.269	0.306	-0.069
-144.531	-82.317	-0.249	-0.080
-143.516	-107.335	0.271	0.059
-142.502	119.565	-0.136	0.167
-141.487	-63.209	-0.217	0.088
-140.472	-141.431	-0.305	-0.031
-139.458	-8.209	-0.140	0.093
-138.443	800.000	0.155	-0.450
-137.429	-115.790	-0.133	-0.025
-136.414	-48.615	0.098	0.047
-135.399	101.677	-0.126	-0.146
-134.385	86.151	0.212	-0.232
-133.370	719.996	0.054	-0.142
-132.356	-169.890	-0.164	-0.006
-131.341	-200.000	0.049	-0.224
-130.326	800.000	-0.040	-0.128
-129.312	-24.708	-0.178	0.105
-128.297	-188.170	0.391	-0.005
-127.283	-200.000	-0.058	0.511
-126.268	120.958	0.112	-0.138
-125.253	-123.099	-0.169	0.027
-124.239	4.350	-0.115	0.083
-123.224	-200.000	0.048	0.316
-122.210	330.599	0.074	0.140
-121.195	-200.000	0.026	0.177
-120.180	59.849	-0.074	-0.073
-119.166	-200.000	-0.036	-0.247
-118.151	160.767	0.093	-0.128
-117.137	35.804	0.092	0.080
-116.122	142.425	0.267	-0.351
-115.107	-27.382	0.191	-0.110
-114.093	-200.000	-0.019	-0.093
-113.078	-126.261	-0.047	-0.007
-112.064	-129.019	-0.380	-0.053
-111.049	371.187	0.107	-0.214
-110.034	155.649	0.108	-0.147
-109.020	-21.741	0.117	0.070
-108.005	-200.000	0.001	0.317
-106.991	54.712	0.223	-0.213
-105.976	316.683	0.063	0.117
-104.962	-110.821	-0.139	-0.028
-103.947	-144.061	0.154	-0.014
-102.932	800.000	-0.028	0.097
-101.918	-139.348	0.194	0.021
-100.903	352.928	0.082	0.161
-99.889	-200.000	-0.007	0.068
-98.874	800.000	-0.067	-0.261
-97.859	-71.174	-0.346	0.128
-96.845	-136.780	-0.157	-0.018
-95.830	40.138	-0.079	-0.070
-94.816	0.177	-0.150	0.106
-93.801	-31.408	-0.211	-0.118
-92.786	-138.433	-0.067	0.007
-91.772	63.514	-0.020	0.020
-90.757	-115.515	-0.264	-0.049
-89.743	177.098	-0.126	-0.182
-88.728	-98.908	0.211	0.053
-87.713	-99.414	0.219	0.055
-86.699	-107.384	-0.224	0.049
-85.684	21.937	-0.112	0.090
-84.670	6.206	0.199	0.146
-83.655	-176.248	-0.266	-0.007
-82.640	800.000	-0.061	-0.186
-81.626	-200.000	-0.004	-0.021
-80.611	-152.932	-0.129	-0.009
-79.597	-92.648	0.158	-0.044
-78.582	-7.211	0.130	0.087
-77.567	800.000	0.015	0.045
-76.553	75.318	0.192	0.200
-75.538	-66.067	0.206	-0.081
-74.524	-200.000	0.003	-0.190
-73.509	-200.000	0.039	0.285
-72.494	353.165	0.093	0.183
-71.480	330.243	0.042	-0.080
-70.465	-21.482	0.287	0.173
-69.451	34.713	-0.027	0.024
-68.436	-152.152	-0.105	-0.008
-67.422	-140.619	0.316	0.032
-66.407	-0.546	-0.105	-0.074
-65.392	545.684	0.085	0.201
-64.378	-200.000	-0.026	-0.161
-63.363	378.891	0.264	0.534
-62.349	-200.000	-0.064	0.388
-61.334	169.519	-0.702	-0.989
-60.319	-79.241	0.628	0.210
-59.305	-200.000	0.009	-1.029
-58.290	129.401	0.578	0.728
-57.276	359.027	0.690	1.361
-56.261	-200.000	97.112	574.085
-55.246	630.107	1390.808	3472.291
-54.232	191.254	2584.534	3839.315
-53.217	120.294	2159.856	2645.975
-52.203	45.842	1616.966	1475.716
-51.188	37.707	1354.503	1186.823
-50.173	34.469	1311.833	1130.235
-49.159	56.899	1360.571	1307.988
-48.144	60.521	1377.643	1346.143
-47.130	38.028	1334.131	1170.709
-46.115	34.416	1316.542	1133.797
-45.100	34.221	1311.644	1128.382
-44.086	34.157	1309.058	1125.729
-43.071	34.052	1306.933	1123.241
-42.057	34.076	1304.725	1121.441
-41.042	34.075	1303.196	1120.073
-40.027	34.211	1301.803	1119.634
-39.013	34.133	1299.926	1117.513
-37.998	34.197	1297.981	1116.175
-36.984	34.258	1296.420	1115.145
-35.969	34.321	1294.484	1113.801
-34.954	34.350	1292.640	1112.344
-33.940	34.288	1291.674	1111.107
-32.925	34.486	1289.806	1110.609
-31.911	34.504	1288.194	1109.282
-30.896	34.355	1287.574	1107.837
-29.881	34.420	1286.107	1106.910
-28.867	34.485	1284.849	1106.157
-27.852	34.421	1283.380	1104.478
-26.838	34.378	1281.803	1102.826
-25.823	34.321	1280.680	1101.488
-24.809	34.247	1279.151	1099.701
-23.794	34.322	1277.966	1099.071
-22.779	34.336	1276.949	1098.232
-21.765	34.366	1275.445	1097.069
-20.750	34.342	1273.772	1095.452
-19.736	34.287	1272.687	1094.160
-18.721	34.170	1271.494	1092.414
-17.706	34.131	1270.172	1091.015
-16.692	34.250	1268.930	1090.586
-15.677	34.329	1267.765	1089.993
-14.663	34.310	1266.991	1089.176
-13.648	34.149	1266.011	1087.374
-12.633	34.263	1264.865	1086.997
-11.619	34.242	1263.837	1085.948
-10.604	34.195	1263.267	1085.146
-9.590	34.157	1262.602	1084.317
-8.575	34.156	1261.396	1083.231
-7.560	34.150	1260.638	1082.503
-6.546	34.275	1259.188	1081.925
-5.531	34.200	1258.285	1080.683
-4.517	34.223	1257.486	1080.085
-3.502	34.197	1257.330	1079.758
-2.487	34.215	1255.999	1078.672
-1.473	34.166	1252.336	1075.209
-0.458	32.573	1236.804	1052.936
0.556	28.124	1218.843	1011.847
1.571	24.175	1224.342	994.331
2.586	22.881	1239.647	999.356
3.600	22.267	1228.686	986.987
4.615	16.914	1157.103	901.032
5.629	8.690	1082.219	801.617
6.644	4.962	1062.133	768.321
7.659	4.819	1059.545	765.677
8.673	4.859	1058.942	765.370
9.688	4.890	1057.654	764.520
10.702	4.988	1055.554	763.416
11.717	9.462	1061.738	789.815
12.731	16.808	1071.990	833.640
13.746	19.574	1075.420	849.871
14.761	18.779	1073.433	844.317
15.775	17.715	1071.231	837.287
16.790	16.698	1069.184	830.626
17.804	15.993	1067.331	825.660
18.819	15.704	1066.403	823.453
19.834	15.469	1065.509	821.543
20.848	15.249	1064.843	819.880
21.863	15.046	1063.595	817.851
22.877	14.888	1062.801	816.397
23.892	14.773	1062.349	815.418
24.907	14.926	1061.284	815.273
25.921	14.917	1060.666	814.682
26.936	14.834	1059.409	813.242
27.950	14.890	1057.570	812.032
28.965	15.014	1056.437	811.691
29.980	15.013	1055.189	810.654
30.994	15.127	1053.476	809.821
32.009	15.151	1052.771	809.319
33.023	15.201	1051.577	808.574
34.038	14.982	1050.616	806.708
35.053	14.972	1050.393	806.416
36.067	14.989	1049.066	805.408
37.082	14.986	1048.634	804.989
38.096	15.119	1047.829	804.938
39.111	15.110	1046.982	804.174
40.126	14.940	1045.355	802.039
41.140	14.752	1044.643	800.523
42.155	14.686	1043.187	799.018
43.169	14.570	1042.362	797.762
44.184	14.685	1041.165	797.322
45.199	14.749	1039.847	796.552
46.213	14.861	1038.971	796.341
47.228	14.907	1038.386	796.042
48.242	14.985	1037.122	795.373
49.257	14.792	1036.311	793.763
50.271	15.030	1035.605	794.282
51.286	14.948	1034.601	793.052
52.301	14.949	1033.547	792.181
53.315	14.859	1032.444	790.841
54.330	14.870	1031.442	790.053
55.344	14.743	1030.994	789.041
56.359	14.762	1030.039	788.331
57.374	14.872	1028.675	787.734
58.388	14.766	1028.087	786.714
59.403	14.764	1027.211	785.963
60.417	14.610	1026.420	784.567
61.432	14.658	1025.944	784.360
62.447	14.552	1025.216	783.237
63.461	14.619	1024.108	782.633
64.476	14.649	1023.320	782.104
65.490	14.589	1022.669	781.254
66.505	14.602	1022.216	780.901
67.520	14.655	1021.275	780.363
68.534	14.668	1020.229	779.555
69.549	14.576	1019.662	778.621
70.563	14.600	1018.632	777.878
71.578	14.487	1018.484	777.171
72.593	14.593	1017.324	776.710
73.607	14.529	1016.541	775.744
74.622	14.510	1016.200	775.328
75.636	14.502	1015.429	774.633
76.651	14.503	1014.690	774.008
77.666	14.582	1014.088	773.845
78.680	14.634	1013.215	773.351
79.695	14.568	1012.555	772.476
80.709	14.625	1012.110	772.330
81.724	14.921	1010.923	772.723
82.739	14.965	1010.578	772.594
83.753	14.979	1009.909	772.080
84.768	15.053	1009.346	771.924
85.782	15.143	1008.240	771.421
86.797	15.076	1007.742	770.665
87.812	14.909	1006.520	768.896
88.826	14.893	1005.531	767.995
89.841	14.967	1004.770	767.686
90.855	15.121	1003.511	767.366
91.870	15.058	1003.006	766.621
92.884	15.114	1001.923	765.981
93.899	15.119	1001.228	765.404
94.914	15.120	1000.534	764.814
95.928	15.170	999.696	764.332
96.943	15.199	998.398	763.401
97.957	15.041	998.248	762.503
98.972	15.158	996.810	761.867
99.987	15.101	996.096	760.997
101.001	15.144	995.056	760.327
102.016	15.111	994.622	759.780
103.030	14.970	993.954	758.562
104.045	14.960	993.080	757.785
105.060	15.014	992.048	757.173
106.074	14.970	991.073	756.162
107.089	14.831	989.655	754.387
108.103	14.738	989.018	753.418
109.118	14.757	988.284	752.877
110.133	14.809	987.475	752.429
111.147	14.700	986.410	751.061
112.162	14.740	985.561	750.527
113.176	14.904	984.992	750.763
114.191	14.938	984.054	750.132
115.206	14.892	983.663	749.564
116.220	14.669	982.929	747.937
117.235	14.849	981.590	747.656
118.249	14.776	981.051	746.857
119.264	14.776	980.250	746.180
120.279	14.795	979.629	745.725
121.293	14.659	978.546	744.230
122.308	14.714	977.914	743.927
123.322	14.729	976.587	742.920
124.337	14.675	975.598	741.859
125.352	14.601	974.450	740.595
126.366	14.661	973.509	740.077
127.381	14.741	972.255	739.413
128.395	14.772	971.655	739.029
129.410	14.693	971.007	738.124
130.424	14.772	970.027	737.662
131.439	14.889	968.972	737.310
132.454	14.993	968.445	737.301
133.468	14.906	968.029	736.537
134.483	14.988	966.754	735.862
135.497	15.061	966.013	735.552
136.512	14.920	965.553	734.517
137.527	14.880	964.627	733.574
138.541	14.898	963.842	732.992
139.556	14.868	963.422	732.475
140.570	15.045	962.449	732.445
141.585	15.120	961.840	732.243
142.600	15.171	960.793	731.606
143.614	15.291	959.714	731.245
144.629	15.346	959.139	730.980
145.643	15.150	958.527	729.596
146.658	15.029	957.167	727.970
147.673	15.080	956.416	727.556
148.687	14.955	955.390	726.168
149.702	14.994	954.603	725.674
150.716	14.906	953.908	724.698
151.731	14.981	953.274	724.478
152.746	14.932	952.820	723.861
153.760	15.065	952.253	723.939
154.775	15.086	951.747	723.581
155.789	15.274	950.937	723.712
156.804	15.150	950.137	722.507
157.819	15.204	949.310	722.046
158.833	15.272	948.739	721.839
159.848	15.277	947.920	721.176
160.862	15.132	947.174	719.920
161.877	15.164	945.894	719.022
162.892	14.928	945.356	717.537
163.906	14.971	944.256	716.822
164.921	15.000	943.439	716.261
165.935	15.068	942.684	715.917
166.950	15.210	941.525	715.578
167.964	15.136	940.758	714.619
168.979	15.131	939.450	713.537
169.994	15.151	938.333	712.714
171.008	15.195	937.956	712.550
172.023	15.237	937.613	712.407
173.037	15.347	937.313	712.581
174.052	15.362	935.956	711.550
175.067	15.005	935.560	709.673
176.081	15.086	935.062	709.574
177.096	15.079	934.356	708.946
178.110	15.072	933.868	708.483
179.125	15.169	932.796	708.018
180.140	15.058	932.826	707.511
181.154	15.268	932.261	707.903
182.169	15.382	931.519	707.762
183.183	15.461	930.617	707.344
184.198	15.356	930.005	706.374
185.213	15.330	929.583	705.882
186.227	15.515	928.736	705.957
187.242	15.488	928.133	705.321
188.256	15.564	927.658	705.217
189.271	15.600	926.867	704.705
190.286	15.289	926.043	702.714
191.300	15.052	925.177	700.999
192.315	15.144	924.400	700.736
193.329	15.171	924.225	700.654
194.344	15.320	923.398	700.585
195.359	15.389	922.819	700.373
196.373	15.500	922.182	700.290
197.388	15.524	922.164	700.313
198.402	15.544	921.690	699.978
199.417	15.625	920.924	699.670
200.432	15.798	919.904	699.554
201.446	15.678	920.322	699.308
202.461	15.914	919.377	699.509
203.475	15.662	919.135	698.217
204.490	15.604	918.230	697.225
205.504	15.637	916.923	696.310
206.519	15.578	916.183	695.441
207.534	15.600	915.433	694.902
208.548	15.538	915.175	694.387
209.563	15.612	914.100	693.819
210.577	15.593	913.222	693.012
211.592	15.915	912.751	693.920
212.607	15.874	912.040	693.147
213.621	15.789	911.623	692.419
214.636	15.819	910.452	691.591
215.650	15.877	910.079	691.487
216.665	15.887	909.387	690.939
217.680	15.886	908.849	690.467
218.694	15.883	907.920	689.688
219.709	16.038	907.109	689.643
220.723	16.048	906.409	689.094
221.738	15.910	906.273	688.364
222.753	15.984	905.466	687.991
223.767	15.911	905.113	687.367
224.782	16.044	904.502	687.382
225.796	16.022	903.883	686.760
226.811	15.941	903.494	686.076
227.826	16.045	902.208	685.460
228.840	15.831	901.897	684.294
229.855	15.841	900.769	683.418
230.869	16.006	899.920	683.384
231.884	15.896	899.267	682.381
232.899	15.945	898.723	682.105
233.913	15.890	898.336	681.531
234.928	15.815	897.460	680.502
235.942	15.889	897.167	680.517
236.957	15.944	896.242	679.977
237.972	15.890	895.914	679.451
238.986	15.864	895.245	678.779
240.001	15.917	894.320	678.232
241.015	15.981	893.936	678.136
242.030	16.053	893.569	678.088
243.045	16.100	893.027	677.807
244.059	16.019	892.429	676.969
245.074	16.129	891.803	676.874
246.088	16.142	890.633	675.976
247.103	16.149	890.327	675.713
248.117	16.172	889.822	675.363
249.132	16.345	889.407	675.680
250.147	16.444	888.929	675.655
251.161	16.361	888.381	674.846
252.176	16.529	887.758	674.985
253.190	16.521	887.171	674.446
254.205	16.647	886.229	674.172
255.220	16.633	885.723	673.671
256.234	16.606	885.129	673.051
257.249	16.589	884.231	672.243
258.263	16.712	883.358	672.006
259.278	16.639	882.878	671.293
260.293	16.728	882.060	670.966
261.307	16.779	881.567	670.733
262.322	16.718	881.064	670.048
263.336	16.719	880.300	669.412
264.351	16.758	879.447	668.859
265.366	16.765	879.258	668.682
266.380	16.876	878.242	668.290
267.395	16.901	877.251	667.574
268.409	16.727	876.837	666.514
269.424	16.655	876.105	665.618
270.439	16.732	875.365	665.299
271.453	16.667	874.754	664.520
272.468	16.641	874.312	664.023
273.482	16.590	873.642	663.257
274.497	16.652	873.226	663.122
275.512	16.682	872.707	662.788
276.526	16.707	872.402	662.598
277.541	16.685	871.900	662.072
278.555	16.861	871.384	662.308
279.570	17.073	870.746	662.593
280.585	16.963	869.942	661.492
281.599	16.893	868.845	660.327
282.614	16.866	867.852	659.408
283.628	16.963	867.295	659.303
284.643	16.841	866.953	658.511
285.657	16.861	866.336	658.064
286.672	16.814	865.874	657.472
287.687	16.946	865.126	657.358
288.701	16.926	865.034	657.150
289.716	16.979	863.907	656.444
290.730	16.883	863.670	655.834
291.745	16.991	862.978	655.665
292.760	16.985	862.130	654.942
293.774	17.166	861.848	655.369
294.789	17.066	861.057	654.321
295.803	17.146	860.311	654.008
296.818	17.089	859.265	652.933
297.833	16.937	859.167	652.217
298.847	17.052	858.391	652.013
299.862	17.059	858.106	651.763
300.876	17.176	857.340	651.572
301.891	17.247	856.660	651.271
302.906	17.230	856.272	650.855
303.920	17.326	855.875	650.863
304.935	17.382	855.309	650.589
305.949	17.391	854.758	650.145
306.964	17.171	854.206	648.829
307.979	17.277	853.791	648.859
308.993	17.417	853.129	648.836
310.008	17.503	852.481	648.612
311.022	17.402	852.049	647.841
312.037	17.391	850.737	646.743
313.052	17.251	850.220	645.760
314.066	17.184	850.107	645.365
315.081	17.247	849.440	645.040
316.095	17.292	849.007	644.825
317.110	17.197	848.313	643.881
318.125	17.048	847.972	642.999
319.139	17.117	847.697	642.995
320.154	17.171	846.951	642.578
321.168	17.304	846.449	642.645
322.183	17.425	845.749	642.510
323.197	17.381	845.357	641.989
324.212	17.324	845.242	641.633
325.227	17.315	844.350	640.865
326.241	17.269	843.587	640.055
327.256	17.326	842.781	639.599
328.270	17.328	842.498	639.338
329.285	17.243	841.963	638.555
330.300	17.329	841.169	638.220
331.314	17.322	841.102	638.085
332.329	17.482	840.246	637.980
333.343	17.473	840.254	637.896
334.358	17.533	839.682	637.628
335.373	17.549	839.124	637.210
336.387	17.659	838.814	637.327
337.402	17.616	838.970	637.230
338.416	17.750	838.390	637.233
339.431	17.697	837.844	636.564
340.446	17.725	837.483	636.337
341.460	17.871	837.005	636.465
342.475	17.820	836.979	636.199
343.489	17.850	836.512	635.896
344.504	17.899	835.583	635.318
345.519	17.933	835.496	635.322
346.533	17.856	835.259	634.799
347.548	17.820	834.310	633.887
348.562	17.654	833.851	632.866
349.577	17.575	833.586	632.314
350.592	17.739	832.674	632.177
351.606	17.682	831.950	631.359
352.621	17.717	831.293	630.935
353.635	17.846	830.663	630.878
354.650	17.678	829.930	629.646
355.665	17.797	829.441	629.658
356.679	17.947	828.878	629.728
357.694	17.941	827.940	628.938
358.708	17.966	827.187	628.400
359.723	17.818	827.289	627.878
360.738	17.912	826.493	627.563
361.752	17.930	825.707	626.980
362.767	17.980	825.386	626.861
363.781	18.245	824.718	627.271
364.796	18.101	824.579	626.583
365.810	18.286	824.059	626.808
366.825	18.226	823.996	626.486
367.840	18.344	823.036	626.134
368.854	18.212	822.726	625.358
369.869	18.324	822.184	625.301
370.883	18.126	821.976	624.365
371.898	18.254	821.826	624.661
372.913	18.336	821.233	624.455
373.927	18.188	820.664	623.427
374.942	18.235	819.824	622.905
375.956	18.409	819.844	623.497
376.971	18.440	819.199	623.065
377.986	18.402	818.855	622.611
379.000	18.448	818.546	622.487
380.015	18.619	817.471	622.235
381.029	18.350	817.373	621.129
382.044	18.429	816.595	620.772
383.059	18.380	815.827	619.954
384.073	18.523	815.323	620.033
385.088	18.400	814.975	619.269
386.102	18.442	814.151	618.738
387.117	18.223	814.033	617.806
388.132	18.368	813.179	617.625
389.146	18.537	812.490	617.655
390.161	18.609	812.320	617.730
391.175	18.610	811.721	617.226
392.190	18.484	811.324	616.416
393.205	18.438	810.881	615.860
394.219	18.401	810.315	615.242
395.234	18.263	810.048	614.488
396.248	18.285	809.636	614.201
397.263	18.363	808.751	613.755
398.278	18.324	808.756	613.565
399.292	18.380	808.204	613.291
400.307	18.501	807.197	612.906
401.321	18.502	807.271	612.911
402.336	18.417	806.877	612.256
403.350	18.513	806.344	612.139
404.365	18.651	805.861	612.209
405.380	18.583	805.932	611.969
406.394	18.881	805.147	612.379
407.409	18.692	805.041	611.570
408.423	18.931	804.388	611.870
409.438	18.866	804.174	611.425
410.453	18.943	803.591	611.199
411.467	18.985	802.893	610.764
412.482	18.893	802.939	610.418
413.496	18.955	802.318	610.113
414.511	18.961	801.888	609.754
415.526	19.001	801.486	609.535
416.540	19.026	801.010	609.205
417.555	18.897	800.702	608.463
418.569	19.026	800.058	608.375
419.584	18.949	799.762	607.824
420.599	19.000	799.562	607.798
421.613	155.995	1371.005	1792.203
422.628	135.228	1454.252	1792.311
