DTS Sentinel unit serial number:	SN413079Multiplexer serial number:	ORYXHardware model number:	OX4-SRSoftware version number:	ORYX F/W v4.00 Oryx Data Collector v3.7.2.0data status	okinstallation	princeton_trtdifferential loss correction	single-endedforward channel	channel 1reverse channel	N/Adate	2019/09/14time	00:26:35forward acquisition time	60.00reverse acquisition time	0.00gamma	496.2192k internal	0.2337k external	0.2337temperature offset calibration	1.0079default loss term (dB/km)	0.3790temperature slope calibration	1.0000multiplexer offset coefficient	1.0000multiplexer slope coefficient	1.0000fibre end	0.00T internal ref (°C)	26.47T ext. ref 1 (°C)	3.19T ext. ref 2 (°C)	21.25length (m)	temperature (°C)	Stokes	anti-Stokes-747.200	227.872	-0.253	0.413
-746.185	254.830	0.135	0.232
-745.171	187.063	-0.186	-0.279
-744.156	-86.864	-0.227	0.070
-743.142	800.000	0.047	-0.155
-742.127	-3.609	-0.101	0.070
-741.112	-109.793	0.128	0.027
-740.098	-44.020	-0.161	0.081
-739.083	-123.134	-0.155	0.025
-738.069	-15.169	-0.454	0.292
-737.054	-29.063	-0.272	0.157
-736.039	227.074	-0.088	0.143
-735.025	-97.729	0.542	-0.141
-734.010	-103.556	-0.301	0.071
-732.996	-154.266	-0.267	-0.018
-731.981	-200.000	0.001	-0.020
-730.966	767.363	-0.083	-0.226
-729.952	265.043	0.140	-0.246
-728.937	-78.459	-0.425	-0.146
-727.923	-96.271	-0.340	-0.091
-726.908	-100.134	0.373	0.093
-725.894	-200.000	0.014	0.233
-724.879	340.759	0.063	0.124
-723.864	-112.368	0.383	0.077
-722.850	121.507	-0.182	-0.228
-721.835	-46.459	0.056	0.027
-720.821	-200.000	-0.023	0.205
-719.806	-96.618	-0.306	0.081
-718.791	9.465	-0.054	-0.041
-717.777	-200.000	-0.026	0.315
-716.762	-37.463	0.193	-0.103
-715.748	-37.945	-0.071	0.038
-714.733	-94.059	-0.147	-0.040
-713.718	-77.033	-0.170	0.059
-712.704	800.000	-0.091	-0.292
-711.689	-58.370	0.460	-0.200
-710.675	-31.082	0.295	0.167
-709.660	-92.393	-0.160	0.045
-708.645	91.495	0.052	0.058
-707.631	-200.000	-0.011	0.409
-706.616	-200.000	0.021	-0.141
-705.602	-19.609	-0.186	0.115
-704.587	175.734	0.150	0.218
-703.572	104.080	0.094	0.111
-702.558	800.000	-0.111	-0.336
-701.543	56.121	-0.137	-0.133
-700.529	-200.000	0.028	0.244
-699.514	8.156	-0.304	0.229
-698.499	172.970	0.116	0.167
-697.485	7.049	-0.255	-0.191
-696.470	800.000	-0.022	0.074
-695.456	67.460	0.136	-0.139
-694.441	-124.139	-0.183	-0.029
-693.426	-200.000	0.001	0.085
-692.412	-180.218	-0.130	0.003
-691.397	-88.334	0.251	0.075
-690.383	6.991	0.154	-0.115
-689.368	800.000	-0.042	-0.154
-688.354	276.772	-0.144	-0.257
-687.339	234.010	-0.034	-0.055
-686.324	-78.153	0.115	0.040
-685.310	800.000	0.126	0.358
-684.295	-106.629	0.054	0.012
-683.281	-110.968	0.254	-0.052
-682.266	4.760	0.110	-0.081
-681.251	107.650	0.097	0.116
-680.237	46.142	-0.137	-0.127
-679.222	173.009	-0.121	-0.175
-678.208	14.041	0.149	-0.116
-677.193	-34.381	-0.176	0.097
-676.178	284.066	0.152	0.275
-675.164	296.237	0.051	0.094
-674.149	-36.636	-0.257	0.138
-673.135	188.973	-0.179	0.269
-672.120	800.000	0.034	0.129
-671.105	-200.000	-0.006	-0.104
-670.091	-17.575	0.225	-0.141
-669.076	22.597	-0.133	-0.109
-668.062	-52.137	0.428	0.199
-667.047	294.789	0.027	0.049
-666.032	3.696	0.079	-0.058
-665.018	-8.361	0.039	0.026
-664.003	-15.495	-0.166	-0.106
-662.989	800.000	0.068	-0.199
-661.974	54.287	-0.061	0.059
-660.959	800.000	0.069	-0.251
-659.945	268.910	0.052	-0.092
-658.930	110.752	-0.080	-0.097
-657.916	-1.596	0.277	-0.195
-656.901	-60.651	-0.216	0.092
-655.886	800.000	0.107	-0.334
-654.872	-200.000	-0.011	0.250
-653.857	800.000	-0.012	0.053
-652.843	115.641	-0.247	-0.302
-651.828	-30.231	-0.115	-0.065
-650.814	314.882	-0.035	0.066
-649.799	-104.760	-0.128	0.029
-648.784	-19.445	-0.106	0.066
-647.770	-147.885	-0.209	-0.017
-646.755	-200.000	0.005	0.251
-645.741	45.331	-0.250	0.230
-644.726	422.137	-0.073	0.156
-643.711	155.750	0.076	-0.105
-642.697	-132.219	-0.162	-0.021
-641.682	-122.271	-0.378	0.062
-640.668	-8.604	0.297	-0.199
-639.653	-47.512	0.469	-0.228
-638.638	-44.603	-0.256	-0.128
-637.624	-8.102	-0.312	0.210
-636.609	-50.962	0.108	-0.051
-635.595	444.935	-0.093	-0.203
-634.580	229.647	0.178	-0.291
-633.565	-200.000	-0.015	-0.136
-632.551	-67.790	-0.158	0.062
-631.536	-119.863	0.095	-0.016
-630.522	-21.002	0.291	0.178
-629.507	11.796	0.160	-0.123
-628.492	64.381	-0.091	-0.092
-627.478	800.000	-0.095	-0.298
-626.463	-81.442	0.072	0.024
-625.449	-200.000	0.018	-0.218
-624.434	106.106	-0.188	-0.223
-623.419	-200.000	-0.045	-0.397
-622.405	-200.000	0.051	-0.245
-621.390	-115.059	-0.148	0.028
-620.376	-52.778	-0.191	0.088
-619.361	442.351	-0.109	0.239
-618.346	379.534	0.077	0.158
-617.332	36.725	-0.163	-0.144
-616.317	-200.000	-0.023	0.122
-615.303	-44.790	-0.235	-0.117
-614.288	-200.000	0.001	0.255
-613.273	-16.699	0.041	-0.026
-612.259	800.000	-0.080	0.223
-611.244	-200.000	0.010	-0.045
-610.230	-83.651	-0.141	-0.045
-609.215	-126.956	-0.173	0.025
-608.201	46.815	-0.148	-0.137
-607.186	-104.873	-0.017	0.004
-606.171	800.000	-0.088	-0.254
-605.157	233.283	0.047	-0.077
-604.142	50.315	-0.071	-0.067
-603.128	-17.415	0.153	-0.096
-602.113	378.288	-0.213	-0.435
-601.098	301.451	-0.149	-0.276
-600.084	786.882	0.054	0.149
-599.069	-12.975	-0.308	0.200
-598.055	-145.163	0.191	0.017
-597.040	-87.884	-0.339	0.102
-596.025	412.651	0.036	-0.076
-595.011	-43.119	0.108	0.055
-593.996	-94.495	0.068	0.018
-592.982	151.457	-0.170	-0.231
-591.967	201.528	0.221	-0.340
-590.952	-106.906	-0.350	-0.077
-589.938	550.231	0.081	0.194
-588.923	-167.230	-0.480	-0.019
-587.909	-71.147	0.282	0.106
-586.894	-200.000	0.032	-0.237
-585.879	-72.460	-0.350	-0.129
-584.865	-52.174	0.261	0.121
-583.850	317.535	0.061	-0.116
-582.836	-151.452	-0.239	0.018
-581.821	39.583	0.142	-0.127
-580.806	-81.266	-0.193	0.064
-579.792	-200.000	0.040	0.292
-578.777	400.792	-0.044	-0.092
-577.763	-169.765	0.209	-0.008
-576.748	591.421	0.110	-0.270
-575.733	36.836	0.260	-0.229
-574.719	78.015	-0.303	-0.323
-573.704	-200.000	-0.033	-0.226
-572.690	795.349	0.057	0.156
-571.675	4.857	-0.031	-0.023
-570.661	800.000	0.061	-0.208
-569.646	98.022	0.147	-0.168
-568.631	-27.474	-0.333	-0.193
-567.617	-200.000	-0.069	0.384
-566.602	-54.439	0.137	0.062
-565.588	5.034	0.279	-0.204
-564.573	-127.614	0.316	0.046
-563.558	-68.943	0.247	-0.095
-562.544	291.863	0.197	-0.358
-561.529	154.068	0.038	0.052
-560.515	-124.207	-0.083	0.013
-559.500	-115.426	-0.370	0.070
-558.485	-173.450	0.081	0.002
-557.471	-85.839	0.182	-0.056
-556.456	-200.000	-0.028	-0.142
-555.442	-46.927	-0.253	-0.123
-554.427	8.990	0.027	-0.020
-553.412	-102.753	-0.121	-0.029
-552.398	11.399	0.151	-0.115
-551.383	-18.431	0.318	0.198
-550.369	-200.000	0.020	-0.350
-549.354	-4.663	0.093	-0.064
-548.339	-59.963	0.054	0.023
-547.325	-3.271	0.326	-0.226
-546.310	403.470	0.122	0.256
-545.296	0.456	0.239	-0.170
-544.281	755.764	0.135	0.363
-543.266	165.161	-0.284	0.400
-542.252	-16.893	-0.168	0.106
-541.237	-200.000	0.022	-0.230
-540.223	-119.703	0.147	-0.025
-539.208	800.000	0.077	-0.224
-538.193	280.818	-0.140	-0.249
-537.179	-200.000	-0.030	-0.565
-536.164	72.567	0.173	-0.180
-535.150	-193.674	-0.183	0.002
-534.135	-110.336	0.310	-0.064
-533.121	-102.724	-0.115	0.027
-532.106	-200.000	0.030	0.261
-531.091	-76.591	0.221	0.077
-530.077	800.000	-0.152	0.425
-529.062	-22.496	0.082	-0.050
-528.048	438.053	-0.080	0.174
-527.033	-178.212	0.269	0.006
-526.018	-143.517	0.085	-0.008
-525.004	-21.492	0.248	-0.151
-523.989	-200.000	-0.034	0.239
-522.975	11.829	-0.095	-0.072
-521.960	-200.000	-0.018	-0.172
-520.945	800.000	-0.075	-0.237
-519.931	-46.551	0.072	0.035
-518.916	469.488	0.110	-0.246
-517.902	406.329	-0.101	-0.212
-516.887	-47.432	-0.117	0.057
-515.872	21.663	-0.179	0.145
-514.858	-80.047	-0.247	-0.082
-513.843	-90.385	0.217	-0.063
-512.829	-26.759	0.136	0.079
-511.814	694.086	-0.061	-0.158
-510.799	16.110	0.068	0.053
-509.785	393.770	0.061	0.127
-508.770	164.620	0.077	0.108
-507.756	4.706	-0.209	0.153
-506.741	267.363	0.104	-0.181
-505.726	800.000	0.047	0.165
-504.712	-41.642	-0.240	0.123
-503.697	100.842	-0.106	-0.122
-502.683	-2.895	-0.229	-0.159
-501.668	-198.616	-0.173	-0.001
-500.653	119.857	-0.211	0.260
-499.639	18.142	0.133	-0.105
-498.624	-87.276	-0.163	-0.049
-497.610	-93.045	0.062	-0.017
-496.595	800.000	-0.126	-0.385
-495.581	64.931	-0.150	0.151
-494.566	-7.516	0.197	0.133
-493.551	-27.322	-0.442	-0.256
-492.537	-115.481	-0.081	0.015
-491.522	202.085	-0.106	0.163
-490.508	-83.738	0.218	-0.069
-489.493	-42.376	0.293	0.148
-488.478	-33.024	-0.135	-0.074
-487.464	800.000	0.086	0.277
-486.449	-200.000	0.051	0.404
-485.435	800.000	-0.111	0.371
-484.420	-80.049	-0.287	-0.096
-483.405	138.257	-0.168	-0.219
-482.391	65.637	-0.232	-0.234
-481.376	-76.568	-0.070	0.024
-480.362	125.773	0.336	0.422
-479.347	266.558	0.143	0.248
-478.332	33.304	-0.112	0.097
-477.318	-52.723	0.218	0.100
-476.303	-81.848	-0.259	0.084
-475.289	800.000	0.058	0.190
-474.274	-200.000	-0.046	0.214
-473.259	-102.950	-0.255	0.060
-472.245	40.332	0.029	-0.026
-471.230	275.447	-0.140	-0.246
-470.216	60.180	-0.049	-0.048
-469.201	632.110	0.064	0.162
-468.186	-140.829	0.158	-0.016
-467.172	-200.000	0.005	0.094
-466.157	-200.000	0.017	-0.097
-465.143	-51.237	0.194	-0.090
-464.128	-95.747	0.139	-0.037
-463.113	800.000	-0.073	-0.259
-462.099	-119.452	-0.050	0.009
-461.084	26.504	-0.211	0.175
-460.070	-49.391	0.142	-0.067
-459.055	-133.663	-0.185	0.023
-458.040	50.956	0.262	0.247
-457.026	-88.979	0.170	0.050
-456.011	5.127	0.213	-0.156
-454.997	-15.298	-0.191	0.121
-453.982	-99.832	-0.072	-0.018
-452.968	181.793	0.139	-0.203
-451.953	300.787	0.088	0.161
-450.938	81.877	0.202	0.217
-449.924	430.495	0.111	-0.239
-448.909	194.563	-0.065	-0.098
-447.895	-6.158	-0.211	-0.143
-446.880	12.126	0.361	0.275
-445.865	-200.000	-0.043	0.195
-444.851	171.512	-0.130	0.185
-443.836	-200.000	0.046	0.261
-442.822	198.246	-0.045	-0.068
-441.807	-108.037	0.334	-0.072
-440.792	-200.000	0.005	0.036
-439.778	800.000	0.103	0.356
-438.763	-132.699	0.089	-0.011
-437.749	800.000	0.055	0.213
-436.734	-10.515	-0.147	0.096
-435.719	96.454	0.069	-0.078
-434.705	-200.000	-0.031	0.224
-433.690	-200.000	-0.013	-0.223
-432.676	215.216	0.037	-0.058
-431.661	-141.708	-0.390	-0.039
-430.646	800.000	0.100	-0.346
-429.632	-200.000	0.012	-0.403
-428.617	-200.000	-0.033	-0.161
-427.603	800.000	0.034	-0.096
-426.588	5.367	-0.071	0.052
-425.573	-62.198	-0.145	0.060
-424.559	166.387	-0.091	0.128
-423.544	800.000	-0.147	0.468
-422.530	44.950	0.150	0.137
-421.515	-200.000	-0.012	-0.388
-420.500	142.110	0.074	0.097
-419.486	-12.846	-0.101	-0.065
-418.471	172.288	-0.069	-0.099
-417.457	322.114	0.121	-0.227
-416.442	-38.140	-0.117	-0.061
-415.428	245.274	-0.078	0.131
-414.413	203.908	-0.153	-0.235
-413.398	-77.572	-0.338	0.116
-412.384	800.000	-0.102	0.292
-411.369	96.781	-0.078	-0.089
-410.355	794.185	-0.047	0.129
-409.340	-64.317	-0.250	0.101
-408.325	-20.671	0.197	0.120
-407.311	-200.000	0.014	-0.225
-406.296	-167.038	0.174	0.007
-405.282	-45.688	0.300	-0.147
-404.267	-45.622	0.209	-0.103
-403.252	482.955	-0.123	0.277
-402.238	131.727	0.121	0.155
-401.223	-117.245	0.224	-0.040
-400.209	-148.031	-0.315	0.026
-399.194	122.868	0.069	0.086
-398.179	800.000	0.016	-0.044
-397.165	-166.545	-0.307	0.013
-396.150	-136.178	-0.362	-0.042
-395.136	-23.424	-0.234	0.139
-394.121	-200.000	0.022	0.203
-393.106	-99.504	-0.102	0.025
-392.092	-102.170	0.099	0.024
-391.077	616.713	-0.023	-0.057
-390.063	563.673	0.074	-0.177
-389.048	-152.872	-0.196	0.014
-388.033	401.676	-0.201	0.417
-387.019	625.810	0.074	0.184
-386.004	-200.000	0.050	-0.220
-384.990	-31.547	-0.168	0.094
-383.975	-138.768	-0.392	0.042
-382.960	-200.000	-0.004	-0.065
-381.946	-200.000	0.025	-0.125
-380.931	-92.391	-0.481	0.134
-379.917	-200.000	0.002	-0.170
-378.902	-27.041	0.086	-0.050
-377.888	113.861	0.179	-0.216
-376.873	292.274	-0.169	0.305
-375.858	286.137	0.111	-0.198
-374.844	106.555	-0.027	-0.031
-373.829	25.439	-0.037	0.030
-372.815	-200.000	0.049	0.223
-371.800	32.166	0.373	-0.318
-370.785	-117.397	0.229	0.041
-369.771	380.888	0.087	-0.176
-368.756	-42.149	-0.158	0.080
-367.742	-14.488	0.185	-0.118
-366.727	209.434	-0.084	0.130
-365.712	-200.000	0.012	0.172
-364.698	-55.959	0.070	-0.031
-363.683	-99.231	0.240	0.060
-362.669	156.978	0.066	-0.090
-361.654	-69.632	-0.243	-0.092
-360.639	226.461	0.038	0.060
-359.625	532.985	0.091	-0.213
-358.610	-46.091	-0.187	-0.091
-357.596	-200.000	-0.001	0.186
-356.581	-160.508	0.279	0.015
-355.566	-115.364	-0.071	0.013
-354.552	509.186	0.040	0.092
-353.537	800.000	0.051	0.166
-352.523	119.781	-0.005	0.006
-351.508	-164.456	0.275	-0.012
-350.493	-35.540	0.333	-0.179
-349.479	-94.734	-0.370	-0.099
-348.464	-200.000	-0.000	0.118
-347.450	116.649	0.069	-0.084
-346.435	-200.000	-0.038	-0.401
-345.420	279.144	0.182	-0.322
-344.406	-97.102	0.263	0.068
-343.391	-169.715	0.014	0.001
-342.377	-25.524	0.036	0.021
-341.362	651.436	0.230	0.581
-340.348	-107.887	0.485	-0.104
-339.333	-135.606	-0.207	0.024
-338.318	800.000	0.030	0.111
-337.304	-0.443	0.122	-0.086
-336.289	-200.000	-0.022	0.151
-335.275	800.000	0.097	0.357
-334.260	-200.000	0.049	0.299
-333.245	-89.217	-0.234	0.068
-332.231	-43.736	0.120	0.060
-331.216	188.486	-0.156	-0.231
-330.202	246.891	0.054	0.091
-329.187	-94.678	-0.239	0.064
-328.172	-33.326	-0.109	-0.060
-327.158	-160.950	-0.407	-0.021
-326.143	-65.693	0.491	-0.194
-325.129	79.182	0.079	-0.084
-324.114	-117.424	0.215	0.038
-323.099	-200.000	0.049	0.312
-322.085	18.573	-0.318	0.251
-321.070	258.987	-0.156	-0.265
-320.056	90.110	0.146	-0.161
-319.041	-29.543	-0.150	-0.084
-318.026	-15.470	0.183	0.115
-317.012	-136.099	0.170	-0.020
-315.997	800.000	-0.035	0.122
-314.983	-200.000	0.036	-0.339
-313.968	310.839	-0.027	0.050
-312.953	-200.000	0.002	-0.009
-311.939	175.857	0.179	0.256
-310.924	-200.000	0.018	-0.216
-309.910	106.720	0.149	-0.175
-308.895	135.083	0.112	-0.144
-307.880	-134.890	-0.457	-0.055
-306.866	-22.912	0.190	0.113
-305.851	-87.162	0.195	0.059
-304.837	800.000	-0.023	-0.082
-303.822	-103.108	0.201	-0.047
-302.807	-200.000	0.027	0.115
-301.793	-109.200	-0.146	-0.031
-300.778	175.968	0.091	0.131
-299.764	-1.963	-0.132	-0.091
-298.749	-200.000	-0.041	0.284
-297.735	800.000	-0.062	0.225
-296.720	-200.000	-0.021	-0.169
-295.705	64.679	0.121	-0.121
-294.691	-200.000	0.003	0.073
-293.676	-36.390	-0.240	-0.127
-292.662	-71.814	-0.168	-0.062
-291.647	-40.066	-0.072	-0.037
-290.632	-84.186	0.193	0.060
-289.618	43.665	-0.274	-0.247
-288.603	177.374	0.121	-0.174
-287.589	-78.455	-0.386	-0.130
-286.574	254.544	0.110	-0.186
-285.559	-49.134	-0.158	-0.074
-284.545	-56.864	-0.042	-0.018
-283.530	242.047	0.047	0.077
-282.516	-200.000	-0.011	-0.102
-281.501	47.961	0.196	-0.181
-280.486	-200.000	-0.003	0.112
-279.472	168.043	-0.069	0.097
-278.457	216.211	0.077	0.121
-277.443	4.556	0.085	-0.061
-276.428	-32.578	0.134	-0.074
-275.413	-77.954	-0.339	0.115
-274.399	65.828	0.177	0.177
-273.384	-99.515	-0.166	0.041
-272.370	127.581	0.068	0.085
-271.355	-99.991	-0.132	0.032
-270.340	800.000	-0.132	0.450
-269.326	-200.000	-0.048	0.252
-268.311	-127.451	-0.107	-0.015
-267.297	175.803	0.220	-0.315
-266.282	-174.422	-0.343	0.010
-265.267	-67.538	-0.420	0.162
-264.253	308.750	0.100	-0.184
-263.238	39.134	0.453	0.399
-262.224	192.830	-0.073	-0.109
-261.209	-200.000	-0.018	-0.227
-260.195	42.193	-0.140	0.125
-259.180	146.280	0.111	-0.147
-258.165	-50.594	0.280	0.130
-257.151	-200.000	-0.068	-0.476
-256.136	323.708	-0.104	0.196
-255.122	-49.877	0.205	0.096
-254.107	239.815	0.096	-0.157
-253.092	114.620	-0.303	-0.364
-252.078	800.000	-0.036	0.146
-251.063	800.000	0.144	-0.418
-250.049	108.505	-0.151	0.178
-249.034	88.622	-0.170	0.186
-248.019	79.100	0.277	-0.292
-247.005	372.947	-0.073	-0.145
-245.990	-135.236	0.203	-0.024
-244.976	136.477	0.024	0.031
-243.961	1.937	-0.230	-0.163
-242.946	245.642	0.036	0.059
-241.932	-200.000	0.004	-0.031
-240.917	-200.000	-0.015	-0.109
-239.903	-184.610	0.397	0.006
-238.888	-200.000	0.009	0.163
-237.873	-200.000	0.023	0.107
-236.859	486.461	0.079	0.178
-235.844	90.324	0.078	-0.086
-234.830	-101.872	-0.261	0.062
-233.815	800.000	-0.154	0.421
-232.800	-193.129	0.145	-0.001
-231.786	325.696	0.066	-0.125
-230.771	434.320	0.122	-0.261
-229.757	-29.053	0.273	0.154
-228.742	624.917	0.059	-0.146
-227.727	8.135	-0.064	-0.047
-226.713	-200.000	-0.059	0.415
-225.698	-200.000	0.185	0.001
-224.684	-148.778	-0.079	0.006
-223.669	3.867	0.282	-0.203
-222.655	440.531	-0.037	0.080
-221.640	-107.920	-0.090	-0.019
-220.625	13.071	-0.104	0.080
-219.611	-85.745	-0.181	-0.055
-218.596	-200.000	0.026	0.131
-217.582	192.994	-0.051	-0.076
-216.567	257.743	0.103	0.175
-215.552	-200.000	-0.013	0.099
-214.538	234.534	-0.063	0.102
-213.523	248.876	0.041	0.068
-212.509	2.189	-0.253	0.180
-211.494	44.897	-0.335	0.303
-210.479	26.414	0.205	0.168
-209.465	221.874	0.022	-0.036
-208.450	387.179	0.062	-0.126
-207.436	-200.000	0.035	0.257
-206.421	-9.196	-0.117	-0.077
-205.406	-72.357	-0.157	-0.057
-204.392	-56.570	0.272	-0.118
-203.377	-28.166	0.055	-0.031
-202.363	-94.220	0.032	-0.009
-201.348	800.000	-0.034	0.102
-200.333	39.002	0.231	0.203
-199.319	-106.588	0.266	-0.058
-198.304	-200.000	0.010	-0.400
-197.290	162.713	0.177	0.245
-196.275	85.731	-0.292	-0.316
-195.260	-83.510	-0.282	0.089
-194.246	35.946	-0.119	0.103
-193.231	-69.963	0.176	-0.066
-192.217	-200.000	-0.018	0.107
-191.202	-112.563	0.397	0.078
-190.187	41.091	0.136	0.121
-189.173	-142.620	0.126	0.012
-188.158	800.000	-0.080	-0.257
-187.144	-48.180	0.589	-0.279
-186.129	-200.000	-0.009	0.143
-185.114	155.765	-0.221	-0.299
-184.100	-1.395	-0.046	-0.032
-183.085	-200.000	-0.004	0.065
-182.071	800.000	-0.074	0.212
-181.056	800.000	-0.054	0.152
-180.042	-88.590	0.360	0.105
-179.027	-142.165	0.263	-0.026
-178.012	-200.000	0.035	0.280
-176.998	-200.000	0.037	0.211
-175.983	-200.000	-0.004	-0.109
-174.969	-200.000	0.037	-0.171
-173.954	-119.717	0.169	0.029
-172.939	-34.615	-0.318	-0.171
-171.925	-44.444	-0.080	-0.039
-170.910	-74.688	0.060	0.021
-169.896	382.165	0.011	-0.023
-168.881	103.677	0.153	0.176
-167.866	7.508	-0.038	0.028
-166.852	118.636	-0.100	0.121
-165.837	288.521	-0.159	0.282
-164.823	-200.000	-0.025	0.119
-163.808	-171.730	-0.113	0.004
-162.793	250.997	0.109	-0.182
-161.779	-19.037	-0.236	0.144
-160.764	-7.299	0.341	-0.227
-159.750	46.021	0.102	0.093
-158.735	64.077	0.126	-0.125
-157.720	-25.047	-0.140	0.082
-156.706	103.846	0.277	0.319
-155.691	12.153	0.277	0.209
-154.677	-72.637	-0.080	-0.029
-153.662	-55.160	-0.070	0.031
-152.647	473.027	0.163	0.361
-151.633	-200.000	-0.017	0.294
-150.618	-34.510	0.403	-0.217
-149.604	191.964	-0.071	0.105
-148.589	111.499	-0.125	0.148
-147.574	-70.449	0.337	0.125
-146.560	-60.032	-0.247	-0.104
-145.545	-67.160	0.425	0.164
-144.531	73.549	0.154	0.158
-143.516	800.000	0.029	-0.119
-142.502	-200.000	0.037	0.379
-141.487	-7.260	-0.459	0.305
-140.472	-58.838	0.178	-0.075
-139.458	-200.000	-0.019	0.180
-138.443	279.323	0.089	-0.156
-137.429	-200.000	0.060	-0.290
-136.414	800.000	0.063	0.237
-135.399	-71.866	-0.214	0.078
-134.385	800.000	-0.071	0.218
-133.370	73.346	-0.024	0.024
-132.356	79.556	-0.183	0.193
-131.341	-200.000	-0.022	0.131
-130.326	345.960	0.056	-0.107
-129.312	-200.000	0.033	0.193
-128.297	-200.000	-0.031	-0.224
-127.283	52.255	0.100	-0.093
-126.268	-146.027	-0.208	0.018
-125.253	800.000	0.043	0.138
-124.239	-18.224	0.167	0.102
-123.224	-42.237	0.036	0.018
-122.210	800.000	-0.107	0.319
-121.195	-59.860	0.576	-0.241
-120.180	800.000	0.114	-0.340
-119.166	-200.000	0.001	0.196
-118.151	-200.000	-0.010	-0.088
-117.137	-165.348	0.157	-0.007
-116.122	-158.935	-0.127	0.007
-115.107	-34.459	-0.177	0.095
-114.093	-29.555	-0.146	0.082
-113.078	800.000	0.015	0.050
-112.064	404.840	0.158	-0.327
-111.049	-79.541	-0.092	-0.030
-110.034	750.437	0.106	0.281
-109.020	800.000	0.099	0.410
-108.005	-200.000	0.061	0.397
-106.991	-58.410	0.202	0.086
-105.976	-80.622	0.262	-0.085
-104.962	-100.743	0.491	-0.119
-103.947	-121.364	-0.132	0.022
-102.932	-55.592	0.312	-0.137
-101.918	-62.537	0.373	0.152
-100.903	635.257	-0.056	-0.139
-99.889	64.662	-0.152	-0.151
-98.874	227.548	0.048	0.076
-97.859	-18.241	0.152	-0.093
-96.845	17.374	-0.199	-0.154
-95.830	800.000	0.077	-0.227
-94.816	-74.483	0.208	-0.073
-93.801	82.899	-0.065	0.069
-92.786	-125.484	-0.117	-0.017
-91.772	-137.716	-0.122	-0.013
-90.757	724.977	-0.074	-0.193
-89.743	-7.245	0.221	0.147
-88.728	-89.568	0.047	-0.014
-87.713	-96.013	-0.302	0.079
-86.699	-200.000	-0.055	0.270
-85.684	541.946	-0.098	0.228
-84.670	77.292	0.228	-0.237
-83.655	-147.146	-0.170	-0.014
-82.640	-200.000	-0.019	0.305
-81.626	36.689	0.203	-0.176
-80.611	-200.000	0.009	0.161
-79.597	102.911	0.201	0.230
-78.582	-14.881	0.156	-0.098
-77.567	-39.015	0.153	0.079
-76.553	231.965	-0.111	0.177
-75.538	-65.011	0.099	0.039
-74.524	800.000	0.141	0.381
-73.509	-200.000	0.032	0.448
-72.494	800.000	0.119	0.371
-71.480	-200.000	0.040	-0.213
-70.465	39.299	0.180	0.158
-69.451	212.094	-0.033	0.052
-68.436	50.944	0.081	-0.075
-67.422	15.828	0.151	0.116
-66.407	-120.023	-0.254	0.043
-65.392	-71.167	0.374	0.137
-64.378	290.605	-0.126	-0.223
-63.363	-200.000	0.005	-0.066
-62.349	763.587	-0.120	0.320
-61.334	90.801	-1.102	-1.207
-60.319	144.944	0.675	0.882
-59.305	636.288	-0.442	-1.096
-58.290	493.447	0.597	1.339
-57.276	243.810	0.923	1.514
-56.261	-200.000	116.306	645.594
-55.246	502.456	1537.923	3473.253
-54.232	176.531	2705.133	3842.260
-53.217	105.459	2147.213	2479.094
-52.203	37.981	1583.510	1375.855
-51.188	29.878	1326.065	1104.027
-50.173	26.956	1287.983	1055.318
-49.159	52.779	1346.801	1257.920
-48.144	51.289	1360.242	1261.572
-47.130	29.983	1314.079	1094.491
-46.115	26.626	1296.189	1059.938
-45.100	26.419	1291.010	1054.457
-44.086	26.299	1288.371	1051.562
-43.071	26.372	1286.082	1050.072
-42.057	26.359	1283.883	1048.164
-41.042	26.336	1282.147	1046.573
-40.027	26.354	1280.805	1045.535
-39.013	26.246	1279.412	1043.737
-37.998	26.366	1277.104	1042.501
-36.984	26.418	1275.406	1041.377
-35.969	26.459	1273.271	1039.827
-34.954	26.483	1271.763	1038.692
-33.940	26.498	1270.532	1037.730
-32.925	26.507	1269.169	1036.625
-31.911	26.524	1268.078	1035.793
-30.896	26.527	1266.210	1034.245
-29.881	26.508	1265.076	1033.167
-28.867	26.606	1263.646	1032.517
-27.852	26.631	1262.046	1031.314
-26.838	26.566	1260.395	1029.550
-25.823	26.553	1259.675	1028.847
-24.809	26.535	1258.217	1027.515
-23.794	26.576	1256.541	1026.335
-22.779	26.452	1255.757	1024.952
-21.765	26.401	1254.708	1023.769
-20.750	26.556	1252.861	1023.096
-19.736	26.533	1251.407	1021.739
-18.721	26.435	1250.612	1020.498
-17.706	26.417	1249.453	1019.411
-16.692	26.600	1248.145	1019.332
-15.677	26.433	1247.460	1017.792
-14.663	26.399	1246.538	1016.808
-13.648	26.406	1244.850	1015.427
-12.633	26.461	1243.959	1014.970
-11.619	26.401	1243.655	1014.347
-10.604	26.464	1242.530	1013.742
-9.590	26.418	1241.538	1012.635
-8.575	26.411	1240.541	1011.745
-7.560	26.403	1239.825	1011.074
-6.546	26.521	1238.569	1010.669
-5.531	26.450	1237.798	1009.605
-4.517	26.447	1236.780	1008.715
-3.502	26.294	1236.925	1007.939
-2.487	26.437	1235.205	1007.295
-1.473	26.396	1231.083	1003.663
-0.458	24.860	1217.043	983.743
0.556	21.806	1200.024	947.366
1.571	18.215	1206.054	932.505
2.586	17.395	1220.751	939.257
3.600	17.033	1208.722	927.940
4.615	12.678	1138.740	851.655
5.629	6.120	1068.055	766.814
6.644	3.318	1050.671	740.803
7.659	3.109	1048.455	738.172
8.673	3.209	1046.763	737.397
9.688	3.115	1045.952	736.309
10.702	3.329	1043.696	735.681
11.717	7.214	1049.256	758.157
12.731	14.549	1059.320	800.688
13.746	19.072	1064.676	826.438
14.761	19.682	1065.392	829.847
15.775	18.897	1063.678	824.675
16.790	17.921	1061.580	818.297
17.804	17.190	1060.373	813.797
18.819	16.913	1059.203	811.500
19.834	16.797	1058.519	810.349
20.848	16.690	1057.702	809.140
21.863	16.535	1056.878	807.701
22.877	16.405	1056.058	806.380
23.892	16.266	1056.021	805.617
24.907	16.234	1054.869	804.517
25.921	16.275	1053.311	803.451
26.936	16.277	1052.142	802.497
27.950	16.290	1051.180	801.754
28.965	16.446	1049.742	801.328
29.980	16.523	1047.985	800.280
30.994	16.696	1046.623	799.988
32.009	16.672	1046.295	799.553
33.023	16.604	1045.145	798.282
34.038	16.592	1043.718	797.066
35.053	16.430	1042.927	795.628
36.067	16.364	1041.915	794.476
37.082	16.635	1041.128	795.077
38.096	16.517	1040.968	794.328
39.111	16.622	1039.652	793.747
40.126	16.299	1038.320	791.147
41.140	16.269	1037.088	789.998
42.155	16.074	1036.056	788.233
43.169	16.038	1034.762	787.009
44.184	16.026	1033.921	786.243
45.199	16.116	1032.754	785.706
46.213	16.234	1031.808	785.468
47.228	16.253	1031.095	784.941
48.242	16.264	1030.325	784.338
49.257	16.302	1029.289	783.654
50.271	16.444	1028.535	783.668
51.286	16.480	1027.561	783.025
52.301	16.411	1026.431	781.777
53.315	16.292	1025.700	780.602
54.330	16.336	1024.047	779.476
55.344	16.178	1023.367	778.160
56.359	16.175	1022.799	777.645
57.374	16.168	1021.542	776.592
58.388	16.022	1020.845	775.320
59.403	16.115	1019.852	774.923
60.417	16.100	1019.153	774.256
61.432	16.084	1018.405	773.545
62.447	16.020	1017.495	772.495
63.461	15.972	1016.474	771.429
64.476	15.909	1015.862	770.609
65.490	15.887	1015.239	769.967
66.505	15.985	1014.215	769.571
67.520	15.998	1013.517	769.032
68.534	16.022	1012.989	768.671
69.549	15.947	1012.408	767.822
70.563	16.065	1010.800	767.073
71.578	15.890	1010.078	765.657
72.593	15.808	1009.706	764.935
73.607	15.829	1008.994	764.424
74.622	15.876	1008.408	764.126
75.636	15.883	1007.650	763.517
76.651	15.782	1007.299	762.725
77.666	15.845	1006.608	762.422
78.680	15.958	1005.612	762.109
79.695	15.960	1005.192	761.732
80.709	16.073	1004.726	761.824
81.724	16.187	1003.867	761.617
82.739	16.211	1003.167	761.129
83.753	16.364	1002.489	761.236
84.768	16.506	1002.057	761.480
85.782	16.439	1001.278	760.518
86.797	16.559	1000.599	760.477
87.812	16.500	999.221	759.098
88.826	16.506	998.038	758.156
89.841	16.600	997.364	757.998
90.855	16.576	996.578	757.227
91.870	16.672	995.762	756.972
92.884	16.692	994.703	756.189
93.899	16.629	993.921	755.246
94.914	16.680	993.111	754.789
95.928	16.642	992.376	753.995
96.943	16.552	991.579	752.921
97.957	16.527	990.447	751.885
98.972	16.526	989.837	751.350
99.987	16.503	988.989	750.537
101.001	16.480	988.080	749.680
102.016	16.613	986.798	749.231
103.030	16.624	986.218	748.773
104.045	16.495	985.746	747.779
105.060	16.564	984.509	747.078
106.074	16.329	983.306	745.062
107.089	16.054	982.678	743.309
108.103	16.034	981.891	742.559
109.118	16.081	980.872	741.927
110.133	16.110	979.369	740.853
111.147	16.096	978.769	740.273
112.162	16.170	978.025	739.971
113.176	16.161	977.723	739.637
114.191	16.209	977.050	739.273
115.206	16.190	975.957	738.298
116.220	16.139	975.274	737.493
117.235	16.276	974.142	737.168
118.249	16.270	972.976	736.193
119.264	16.239	972.367	735.534
120.279	16.015	971.792	734.058
121.293	15.965	971.252	733.369
122.308	15.912	970.012	732.136
123.322	16.017	968.749	731.575
124.337	15.933	967.839	730.458
125.352	16.028	966.353	729.684
126.366	15.906	965.674	728.578
127.381	15.897	964.771	727.793
128.395	15.949	963.847	727.259
129.410	15.970	962.737	726.445
130.424	15.972	962.165	725.958
131.439	16.251	961.693	726.738
132.454	16.186	961.136	725.973
133.468	16.303	959.610	725.259
134.483	16.180	959.484	724.574
135.497	16.201	958.399	723.780
136.512	16.220	957.606	723.196
137.527	16.263	957.159	722.982
138.541	16.153	956.461	721.918
139.556	16.293	955.400	721.650
140.570	16.363	955.143	721.694
141.585	16.604	954.187	721.937
142.600	16.576	953.451	721.197
143.614	16.613	952.511	720.576
144.629	16.718	951.572	720.249
145.643	16.651	950.959	719.438
146.658	16.575	949.847	718.209
147.673	16.376	948.752	716.476
148.687	16.306	947.600	715.246
149.702	16.287	947.094	714.721
150.716	16.192	946.519	713.821
151.731	16.180	945.945	713.274
152.746	16.385	944.825	713.232
153.760	16.466	944.178	713.021
154.775	16.475	943.905	712.790
155.789	16.504	943.461	712.515
156.804	16.642	942.047	711.963
157.819	16.616	941.568	711.430
158.833	16.528	941.408	710.874
159.848	16.853	940.216	711.277
160.862	16.695	939.372	709.912
161.877	16.380	938.452	707.834
162.892	16.382	937.212	706.844
163.906	16.230	936.370	705.511
164.921	16.351	935.271	705.129
165.935	16.382	934.479	704.598
166.950	16.490	933.806	704.477
167.964	16.419	933.118	703.601
168.979	16.409	931.950	702.616
169.994	16.420	931.356	702.152
171.008	16.504	930.634	701.893
172.023	16.647	930.049	701.983
173.037	16.659	929.238	701.357
174.052	16.673	928.409	700.729
175.067	16.457	927.779	699.297
176.081	16.396	927.140	698.503
177.096	16.367	926.753	698.028
178.110	16.482	925.872	697.778
179.125	16.459	925.327	697.213
180.140	16.497	925.222	697.227
181.154	16.573	924.717	697.098
182.169	16.774	924.066	697.372
183.183	16.787	923.090	696.628
184.198	16.829	922.615	696.381
185.213	16.689	922.132	695.380
186.227	16.815	921.604	695.437
187.242	16.788	921.246	694.994
188.256	16.923	920.259	694.743
189.271	16.982	919.717	694.514
190.286	16.728	918.183	692.256
191.300	16.362	917.370	690.087
192.315	16.258	917.146	689.433
193.329	16.360	916.725	689.471
194.344	16.563	915.488	689.308
195.359	16.707	915.134	689.565
196.373	16.809	914.680	689.576
197.388	16.942	914.474	689.904
198.402	16.947	914.175	689.638
199.417	17.127	913.201	689.570
200.432	17.132	912.510	689.009
201.446	17.242	912.533	689.410
202.461	17.213	912.131	688.927
203.475	17.281	910.980	688.273
204.490	17.072	910.317	686.867
205.504	16.863	909.700	685.494
206.519	16.967	908.644	685.060
207.534	16.954	907.906	684.390
208.548	17.035	907.434	684.299
209.563	16.936	906.983	683.502
210.577	17.031	906.278	683.293
211.592	17.209	905.366	683.260
212.607	17.337	904.591	683.126
213.621	17.144	904.207	682.003
214.636	17.103	903.731	681.417
215.650	17.176	903.010	681.108
216.665	17.089	902.725	680.484
217.680	17.387	901.647	680.805
218.694	17.359	901.241	680.324
219.709	17.229	900.866	679.460
220.723	17.446	899.612	679.324
221.738	17.261	899.177	678.193
222.753	17.344	898.123	677.672
223.767	17.439	897.789	677.737
224.782	17.494	897.290	677.520
225.796	17.466	897.254	677.322
226.811	17.507	896.157	676.596
227.826	17.332	895.381	675.254
228.840	17.301	894.435	674.360
229.855	17.397	893.719	674.140
230.869	17.478	892.824	673.725
231.884	17.188	892.602	672.351
232.899	17.038	891.525	670.889
233.913	17.181	890.880	670.909
234.928	17.085	890.383	670.095
235.942	17.058	889.813	669.501
236.957	17.219	889.125	669.558
237.972	17.102	888.794	668.788
238.986	17.068	888.239	668.179
240.001	17.068	887.541	667.592
241.015	17.182	886.817	667.438
242.030	17.338	886.133	667.477
243.045	17.266	885.875	666.940
244.059	17.414	885.464	667.154
245.074	17.388	884.682	666.403
246.088	17.490	883.952	666.192
247.103	17.607	883.307	666.107
248.117	17.586	883.292	665.954
249.132	17.821	882.519	666.230
250.147	17.997	882.130	666.564
251.161	17.862	881.516	665.514
252.176	18.177	880.731	666.089
253.190	18.135	880.330	665.563
254.205	18.055	879.892	664.864
255.220	17.973	879.190	663.956
256.234	18.085	878.125	663.527
257.249	18.045	878.131	663.316
258.263	17.970	876.828	661.983
259.278	17.964	876.173	661.408
260.293	18.117	875.783	661.644
261.307	18.119	875.399	661.304
262.322	18.197	874.511	660.875
263.336	18.168	873.619	660.034
264.351	18.385	872.811	660.199
265.366	18.299	872.306	659.429
266.380	18.313	872.158	659.311
267.395	18.140	871.191	657.859
268.409	18.115	870.337	657.057
269.424	18.039	869.500	656.076
270.439	18.277	868.487	656.166
271.453	18.109	868.036	655.123
272.468	17.993	867.702	654.368
273.482	18.124	867.126	654.380
274.497	18.100	866.441	653.712
275.512	18.086	865.888	653.185
276.526	18.103	865.393	652.817
277.541	18.098	865.108	652.526
278.555	18.319	864.591	652.921
279.570	18.301	864.329	652.596
280.585	18.312	863.056	651.618
281.599	18.379	862.107	651.099
282.614	18.021	861.917	649.537
283.628	18.265	861.133	649.818
284.643	18.194	860.495	649.009
285.657	18.170	860.040	648.517
286.672	18.387	859.417	648.811
287.687	18.470	858.313	648.236
288.701	18.221	858.406	647.305
289.716	18.291	857.503	646.831
290.730	18.341	856.968	646.559
291.745	18.496	856.045	646.390
292.760	18.482	855.728	646.043
293.774	18.609	855.263	646.112
294.789	18.439	854.741	645.018
295.803	18.331	853.892	643.917
296.818	18.342	853.295	643.449
297.833	18.480	852.613	643.397
298.847	18.421	851.819	642.519
299.862	18.505	851.141	642.268
300.876	18.494	851.011	642.070
301.891	18.568	850.630	642.005
302.906	18.762	849.971	642.173
303.920	18.912	849.315	642.184
304.935	18.856	848.916	641.615
305.949	18.806	848.070	640.732
306.964	18.833	847.123	640.060
307.979	18.719	846.834	639.359
308.993	18.667	846.619	638.948
310.008	18.733	845.930	638.617
311.022	18.857	845.281	638.533
312.037	18.541	844.553	636.753
313.052	18.639	843.888	636.559
314.066	18.551	843.337	635.761
315.081	18.554	842.544	635.116
316.095	18.583	841.830	634.629
317.110	18.523	841.525	634.123
318.125	18.507	841.485	633.977
319.139	18.641	840.575	633.731
320.154	18.514	840.366	633.048
321.168	18.528	839.742	632.573
322.183	18.639	839.208	632.525
323.197	18.703	838.946	632.508
324.212	18.664	838.249	631.779
325.227	18.628	837.538	631.057
326.241	18.521	837.209	630.358
327.256	18.574	836.256	629.782
328.270	18.621	835.555	629.371
329.285	18.448	835.318	628.501
330.300	18.644	834.451	628.511
331.314	18.575	834.429	628.186
332.329	18.952	833.836	629.063
333.343	18.834	833.490	628.317
334.358	18.820	833.058	627.882
335.373	18.903	832.416	627.647
336.387	18.907	832.496	627.667
337.402	19.040	832.158	627.840
338.416	19.090	831.712	627.632
339.431	19.172	831.854	627.982
340.446	19.253	830.915	627.513
341.460	19.205	830.733	627.144
342.475	19.304	830.341	627.153
343.489	19.294	829.790	626.646
344.504	19.549	829.106	626.999
345.519	19.342	828.919	626.053
346.533	19.488	828.223	626.001
347.548	19.226	827.558	624.494
348.562	19.087	827.149	623.624
349.577	19.100	826.465	623.101
350.592	19.183	825.641	622.726
351.606	19.000	824.918	621.463
352.621	18.987	824.764	621.247
353.635	19.129	823.829	620.999
354.650	18.989	823.341	620.070
355.665	19.152	822.902	620.272
356.679	19.224	822.207	619.953
357.694	19.312	821.593	619.752
358.708	19.302	820.700	618.988
359.723	19.232	820.342	618.410
360.738	19.168	819.780	617.704
361.752	19.366	819.097	617.845
362.767	19.348	819.019	617.666
363.781	19.599	818.006	617.745
364.796	19.567	818.050	617.608
365.810	19.591	817.762	617.421
366.825	19.718	817.028	617.267
367.840	19.596	816.855	616.647
368.854	19.651	816.121	616.233
369.869	19.538	815.785	615.522
370.883	19.606	815.491	615.489
371.898	19.664	815.154	615.385
372.913	19.674	814.776	615.084
373.927	19.522	813.971	613.879
374.942	19.560	813.701	613.758
375.956	19.794	813.221	614.171
376.971	19.777	812.759	613.709
377.986	19.966	812.310	613.986
379.000	19.983	811.818	613.618
380.015	19.981	811.132	613.039
381.029	19.890	810.293	612.027
382.044	19.869	810.073	611.735
383.059	19.987	809.437	611.615
384.073	19.834	808.741	610.495
385.088	19.703	808.093	609.492
386.102	19.758	807.599	609.258
387.117	19.728	806.830	608.521
388.132	19.719	806.326	608.054
389.146	19.810	805.978	608.059
390.161	19.948	805.665	608.254
391.175	19.939	805.309	607.900
392.190	19.761	804.566	606.660
393.205	19.702	804.150	606.084
394.219	19.706	803.812	605.790
395.234	19.548	803.618	605.038
396.248	19.490	802.893	604.236
397.263	19.583	802.519	604.223
398.278	19.635	801.895	603.883
399.292	19.576	801.491	603.319
400.307	19.471	801.478	602.889
401.321	19.433	800.775	602.176
402.336	19.628	800.381	602.506
403.350	19.805	799.622	602.496
404.365	19.957	799.282	602.718
405.380	19.990	798.861	602.460
406.394	20.031	798.595	602.350
407.409	20.177	798.253	602.545
408.423	20.157	797.942	602.188
409.438	20.178	797.640	601.981
410.453	20.303	796.964	601.850
411.467	20.432	796.355	601.784
412.482	20.360	796.642	601.699
413.496	20.478	796.057	601.612
414.511	20.242	795.557	600.363
415.526	20.275	795.232	600.180
416.540	20.375	794.276	599.750
417.555	20.346	794.150	599.501
418.569	20.301	793.923	599.123
419.584	20.284	793.312	598.548
420.599	20.294	793.242	598.478
421.613	162.668	1371.400	1797.562
422.628	141.038	1455.632	1797.669
