DTS Sentinel unit serial number:	SN413079Multiplexer serial number:	ORYXHardware model number:	OX4-SRSoftware version number:	ORYX F/W v4.00 Oryx Data Collector v3.7.2.0data status	okinstallation	princeton_trtdifferential loss correction	single-endedforward channel	channel 1reverse channel	N/Adate	2019/09/18time	22:26:35forward acquisition time	60.00reverse acquisition time	0.00gamma	496.2192k internal	0.2341k external	0.2341temperature offset calibration	1.0014default loss term (dB/km)	0.3790temperature slope calibration	1.0000multiplexer offset coefficient	1.0000multiplexer slope coefficient	1.0000fibre end	0.00T internal ref (°C)	24.27T ext. ref 1 (°C)	0.79T ext. ref 2 (°C)	17.95length (m)	temperature (°C)	Stokes	anti-Stokes-747.200	144.973	-0.158	0.212
-746.185	443.617	0.068	0.150
-745.171	173.201	-0.091	-0.131
-744.156	-129.039	0.201	-0.028
-743.142	26.248	0.055	-0.046
-742.127	-76.591	-0.255	0.090
-741.112	-60.577	0.386	0.164
-740.098	-113.143	0.093	-0.018
-739.083	-200.000	0.016	-0.099
-738.069	186.822	0.094	-0.141
-737.054	468.730	0.061	-0.138
-736.039	-14.324	-0.531	-0.343
-735.025	180.822	0.047	0.070
-734.010	-200.000	-0.007	0.133
-732.996	17.685	0.080	0.064
-731.981	-158.768	0.139	0.008
-730.966	39.016	-0.215	-0.193
-729.952	426.508	0.046	-0.100
-728.937	-93.112	0.342	0.095
-727.923	89.434	-0.035	-0.039
-726.908	-200.000	-0.037	-0.186
-725.894	405.629	-0.176	-0.372
-724.879	278.832	-0.073	0.131
-723.864	30.890	0.230	0.198
-722.850	224.700	-0.173	-0.279
-721.835	800.000	0.060	-0.185
-720.821	-9.016	-0.068	-0.045
-719.806	-200.000	0.011	-0.111
-718.791	52.494	-0.240	-0.230
-717.777	85.327	0.239	-0.262
-716.762	-200.000	-0.002	-0.073
-715.748	800.000	-0.051	0.184
-714.733	176.008	-0.075	0.108
-713.718	-44.731	-0.205	0.102
-712.704	39.135	0.122	-0.110
-711.689	705.852	0.063	-0.167
-710.675	-104.990	-0.236	-0.054
-709.660	800.000	0.048	0.184
-708.645	-106.897	-0.075	-0.017
-707.631	126.987	0.172	-0.218
-706.616	-56.507	0.274	0.122
-705.602	-200.000	-0.010	0.109
-704.587	-55.710	-0.082	-0.037
-703.572	479.564	0.137	-0.311
-702.558	-8.796	-0.260	-0.174
-701.543	-177.025	-0.286	-0.007
-700.529	800.000	-0.082	-0.232
-699.514	-167.670	-0.121	-0.005
-698.499	5.617	0.262	-0.194
-697.485	-77.571	0.058	0.020
-696.470	125.097	-0.054	0.068
-695.456	-200.000	-0.005	0.160
-694.441	413.889	-0.194	0.412
-693.426	-25.235	-0.081	0.048
-692.412	49.206	-0.160	-0.151
-691.397	-146.024	-0.211	0.019
-690.383	-130.693	-0.332	0.045
-689.368	-64.755	-0.032	-0.013
-688.354	-99.764	-0.220	-0.055
-687.339	742.274	-0.109	0.294
-686.324	167.044	-0.185	0.263
-685.310	-78.878	0.161	0.055
-684.295	87.315	-0.086	-0.095
-683.281	-200.000	-0.018	0.242
-682.266	31.376	-0.101	0.087
-681.251	32.076	0.295	0.254
-680.237	99.772	-0.073	-0.084
-679.222	-144.652	0.178	0.016
-678.208	-200.000	0.069	0.346
-677.193	-99.690	-0.241	0.060
-676.178	-57.436	-0.124	-0.055
-675.164	86.360	0.081	0.089
-674.149	-80.722	-0.218	-0.072
-673.135	-136.423	0.314	0.036
-672.120	8.316	-0.103	0.077
-671.105	-18.360	-0.245	-0.153
-670.091	-200.000	-0.003	0.224
-669.076	-200.000	-0.004	-0.082
-668.062	800.000	-0.020	0.064
-667.047	-200.000	-0.036	-0.201
-666.032	179.879	0.053	-0.078
-665.018	-67.420	-0.291	0.114
-664.003	96.459	0.127	-0.145
-662.989	-148.690	-0.074	-0.006
-661.974	355.966	-0.091	-0.182
-660.959	-200.000	0.041	-0.376
-659.945	102.576	-0.023	0.027
-658.930	204.701	-0.064	0.099
-657.916	272.881	-0.115	0.203
-656.901	93.089	0.054	-0.061
-655.886	-81.125	-0.195	0.064
-654.872	-162.064	-0.519	0.026
-653.857	-134.381	0.075	0.009
-652.843	95.771	-0.128	0.146
-651.828	-47.057	0.140	-0.068
-650.814	-116.731	-0.416	-0.076
-649.799	56.740	0.278	-0.270
-648.784	800.000	-0.067	-0.277
-647.770	258.307	-0.086	-0.147
-646.755	171.504	0.138	-0.197
-645.741	-11.751	0.141	-0.093
-644.726	432.592	0.050	-0.108
-643.711	-125.702	-0.211	0.032
-642.697	800.000	0.028	0.096
-641.682	145.975	0.194	0.259
-640.668	800.000	0.101	0.333
-639.653	90.173	-0.132	-0.148
-638.638	-74.253	0.115	0.041
-637.624	-140.461	-0.109	0.011
-636.609	800.000	0.098	0.341
-635.595	800.000	-0.058	0.237
-634.580	800.000	-0.094	-0.319
-633.565	226.750	-0.210	0.340
-632.551	-5.059	-0.100	0.069
-631.536	-165.977	-0.297	-0.013
-630.522	800.000	-0.074	0.239
-629.507	-0.432	0.139	-0.098
-628.492	114.691	0.151	-0.184
-627.478	212.884	0.150	-0.237
-626.463	36.172	-0.105	0.092
-625.449	157.298	-0.153	0.211
-624.434	800.000	-0.062	0.171
-623.419	595.974	0.140	-0.347
-622.405	23.024	0.238	0.195
-621.390	452.694	-0.054	-0.120
-620.376	568.991	0.013	0.032
-619.361	163.646	0.280	-0.393
-618.346	800.000	-0.081	-0.336
-617.332	-145.678	-0.226	-0.020
-616.317	-57.754	-0.246	0.108
-615.303	-122.209	-0.400	-0.065
-614.288	-94.562	0.253	0.069
-613.273	-200.000	-0.033	-0.284
-612.259	-1.226	-0.415	0.292
-611.244	183.831	-0.024	0.036
-610.230	-114.376	-0.167	-0.032
-609.215	44.034	-0.163	0.149
-608.201	-34.397	-0.197	0.108
-607.186	800.000	-0.056	-0.203
-606.171	-151.772	-0.028	0.002
-605.157	-200.000	0.003	0.128
-604.142	-17.142	-0.099	0.062
-603.128	-148.724	0.118	-0.010
-602.113	799.705	0.127	0.349
-601.098	-50.027	0.046	-0.022
-600.084	46.661	-0.214	0.198
-599.069	800.000	0.012	0.035
-598.055	800.000	-0.020	0.075
-597.040	42.990	0.085	0.077
-596.025	-116.272	-0.270	-0.050
-595.011	-42.553	-0.188	0.095
-593.996	-77.535	0.261	-0.090
-592.982	92.923	0.053	0.060
-591.967	800.000	-0.062	0.196
-590.952	-121.542	-0.166	-0.028
-589.938	-60.815	0.150	-0.063
-588.923	-67.302	0.236	-0.092
-587.909	376.452	0.083	-0.170
-586.894	7.071	0.052	0.039
-585.879	-72.262	-0.466	-0.172
-584.865	-200.000	0.039	0.257
-583.850	-127.738	0.229	0.033
-582.836	-200.000	-0.007	0.278
-581.821	190.693	0.090	0.135
-580.806	16.831	-0.117	0.092
-579.792	-48.864	-0.486	-0.232
-578.777	233.736	0.184	-0.302
-577.763	-200.000	0.018	-0.195
-576.748	-195.140	0.205	-0.002
-575.733	-114.705	-0.139	0.027
-574.719	-39.753	-0.273	0.142
-573.704	-126.017	0.469	0.070
-572.690	29.562	-0.241	0.204
-571.675	52.235	0.122	0.115
-570.661	530.855	-0.084	0.197
-569.646	176.759	0.174	-0.252
-568.631	-78.166	-0.284	-0.097
-567.617	-200.000	0.004	-0.203
-566.602	414.980	-0.075	0.158
-565.588	353.879	0.057	0.112
-564.573	161.575	0.140	-0.196
-563.558	-200.000	-0.016	0.214
-562.544	-41.226	0.090	-0.046
-561.529	-200.000	-0.013	-0.100
-560.515	-161.522	-0.390	0.020
-559.500	377.127	0.223	-0.452
-558.485	157.977	-0.068	0.093
-557.471	53.781	0.089	0.085
-556.456	-200.000	-0.003	-0.361
-555.442	9.200	0.088	-0.066
-554.427	169.372	-0.320	0.454
-553.412	-112.199	0.480	0.096
-552.398	17.076	-0.326	0.257
-551.383	202.270	-0.089	0.137
-550.369	-200.000	0.020	-0.223
-549.354	-88.934	0.280	-0.082
-548.339	-200.000	0.004	-0.400
-547.325	-200.000	-0.059	-0.270
-546.310	60.357	-0.220	-0.217
-545.296	-160.785	-0.177	0.009
-544.281	800.000	0.025	-0.107
-543.266	800.000	-0.035	0.131
-542.252	800.000	-0.080	0.299
-541.237	9.379	-0.217	0.163
-540.223	-56.287	0.295	0.130
-539.208	-200.000	-0.016	-0.084
-538.193	93.067	-0.238	-0.268
-537.179	90.461	0.144	-0.160
-536.164	-200.000	0.013	-0.196
-535.150	185.796	-0.275	0.406
-534.135	800.000	0.035	0.139
-533.121	340.898	-0.094	0.183
-532.106	-138.986	-0.192	-0.021
-531.091	-127.529	0.145	0.021
-530.077	287.908	-0.112	0.202
-529.062	70.067	0.216	0.221
-528.048	800.000	0.096	0.307
-527.033	59.299	0.070	-0.068
-526.018	-200.000	0.002	-0.261
-525.004	158.363	0.210	-0.289
-523.989	105.433	0.086	-0.101
-522.975	-200.000	-0.003	0.023
-521.960	800.000	-0.113	0.378
-520.945	-124.339	0.355	-0.055
-519.931	-62.572	-0.549	-0.226
-518.916	188.006	-0.185	-0.275
-517.902	-17.221	0.140	0.088
-516.887	759.088	0.091	0.246
-515.872	-187.263	0.128	0.002
-514.858	785.578	-0.088	-0.240
-513.843	4.281	-0.017	0.012
-512.829	-200.000	-0.024	0.449
-511.814	161.658	0.044	-0.061
-510.799	-179.465	-0.066	0.001
-509.785	606.245	0.074	-0.184
-508.770	-200.000	0.104	-0.463
-507.756	245.532	0.172	-0.288
-506.741	-200.000	-0.012	-0.292
-505.726	-200.000	0.076	-0.600
-504.712	-28.889	0.237	-0.135
-503.697	233.629	-0.070	-0.114
-502.683	-77.333	-0.444	-0.153
-501.668	-200.000	-0.006	0.112
-500.653	-65.251	-0.211	-0.084
-499.639	150.302	0.100	0.135
-498.624	37.684	0.111	-0.098
-497.610	-108.245	-0.365	0.078
-496.595	-70.051	0.342	-0.129
-495.581	19.393	-0.222	0.177
-494.566	-147.271	0.089	0.008
-493.551	-121.190	-0.099	-0.016
-492.537	-175.024	0.213	0.006
-491.522	28.341	-0.214	0.179
-490.508	31.868	-0.144	0.123
-489.493	-84.305	0.061	-0.019
-488.478	-100.245	-0.212	0.052
-487.464	-134.784	-0.327	-0.039
-486.449	-9.697	-0.080	-0.053
-485.435	-150.373	-0.174	0.013
-484.420	-76.490	-0.442	-0.154
-483.405	113.532	-0.213	0.256
-482.391	492.563	-0.151	-0.343
-481.376	-193.392	0.265	-0.002
-480.362	-122.377	0.181	0.029
-479.347	-200.000	-0.004	-0.218
-478.332	-117.147	0.311	-0.056
-477.318	203.406	-0.113	0.174
-476.303	-103.651	0.161	0.037
-475.289	526.365	-0.025	-0.059
-474.274	-200.000	-0.027	0.158
-473.259	221.003	0.077	0.123
-472.245	45.637	0.178	0.163
-471.230	800.000	-0.084	-0.318
-470.216	-114.417	0.102	0.019
-469.201	-102.168	0.124	0.030
-468.186	74.455	0.107	0.111
-467.172	-42.164	-0.283	0.143
-466.157	108.999	0.053	0.063
-465.143	31.208	-0.153	-0.130
-464.128	-95.153	-0.449	0.120
-463.113	-12.933	0.215	0.139
-462.099	278.476	-0.125	0.222
-461.084	13.947	0.215	-0.166
-460.070	-176.569	-0.091	0.002
-459.055	-59.561	0.089	-0.038
-458.040	-23.438	-0.162	-0.096
-457.026	800.000	0.029	0.101
-456.011	-3.434	-0.109	-0.075
-454.997	-200.000	0.023	0.185
-453.982	40.995	0.273	-0.244
-452.968	738.783	0.031	0.082
-451.953	-70.566	0.322	-0.121
-450.938	-106.567	0.033	-0.007
-449.924	373.796	0.131	0.264
-448.909	800.000	-0.003	-0.008
-447.895	-200.000	-0.594	0.003
-446.880	-144.100	-0.194	0.018
-445.865	75.713	-0.067	0.070
-444.851	9.176	0.277	-0.208
-443.836	-112.107	0.281	-0.056
-442.822	-81.497	0.057	-0.018
-441.807	-200.000	-0.004	0.238
-440.792	-8.252	-0.287	0.192
-439.778	-150.909	0.083	0.006
-438.763	119.405	0.097	-0.119
-437.749	16.413	0.108	0.084
-436.734	-105.482	0.224	0.050
-435.719	-200.000	-0.035	0.207
-434.705	9.048	0.163	-0.122
-433.690	-200.000	-0.029	0.333
-432.676	-200.000	0.023	0.104
-431.661	-65.739	0.189	0.075
-430.646	-200.000	0.050	0.355
-429.632	68.091	-0.486	0.493
-428.617	146.734	-0.045	0.060
-427.603	-70.638	0.473	-0.177
-426.588	206.881	0.090	-0.138
-425.573	-36.898	-0.063	-0.033
-424.559	309.783	-0.065	0.121
-423.544	-76.082	-0.105	0.037
-422.530	-59.700	-0.262	-0.111
-421.515	-6.990	0.104	0.070
-420.500	275.884	0.033	0.058
-419.486	-77.769	0.272	-0.093
-418.471	800.000	-0.103	0.291
-417.457	762.547	0.125	-0.336
-416.442	14.801	0.158	-0.122
-415.428	-15.862	0.217	-0.137
-414.413	-200.000	-0.008	0.101
-413.398	-79.557	-0.254	-0.085
-412.384	230.863	-0.106	-0.172
-411.369	-51.436	0.438	-0.202
-410.355	-26.412	0.292	0.170
-409.340	-135.411	-0.180	-0.021
-408.325	-95.771	-0.424	0.112
-407.311	-78.294	0.101	-0.034
-406.296	-200.000	0.003	0.242
-405.282	6.648	-0.126	0.092
-404.267	-158.739	-0.177	-0.010
-403.252	-91.374	-0.116	-0.033
-402.238	-8.158	-0.079	-0.053
-401.223	120.580	-0.174	-0.214
-400.209	-34.598	0.037	0.020
-399.194	-136.591	0.196	-0.022
-398.179	9.403	-0.099	0.074
-397.165	155.201	0.120	-0.163
-396.150	643.861	0.191	0.482
-395.136	67.040	-0.063	0.063
-394.121	670.783	-0.064	-0.164
-393.106	-28.956	0.044	0.025
-392.092	800.000	-0.094	-0.354
-391.077	800.000	0.041	0.121
-390.063	800.000	0.027	-0.078
-389.048	-140.081	0.052	-0.005
-388.033	-108.717	-0.370	0.078
-387.019	-81.844	-0.074	0.024
-386.004	73.674	0.124	-0.128
-384.990	178.415	-0.030	-0.043
-383.975	-149.330	0.114	0.009
-382.960	-119.518	0.025	0.004
-381.946	24.857	0.366	0.300
-380.931	27.214	0.167	0.139
-379.917	255.067	-0.014	0.023
-378.902	530.823	-0.020	-0.047
-377.888	-100.133	0.294	0.072
-376.873	-200.000	0.037	0.212
-375.858	800.000	-0.014	0.051
-374.844	72.155	-0.124	-0.127
-373.829	18.455	0.101	0.080
-372.815	-200.000	0.009	-0.100
-371.800	800.000	-0.068	-0.229
-370.785	-200.000	0.024	-0.310
-369.771	117.702	0.028	0.034
-368.756	-92.730	-0.195	0.054
-367.742	56.589	-0.198	0.191
-366.727	29.220	-0.104	0.087
-365.712	-55.426	-0.184	0.082
-364.698	688.880	-0.025	0.065
-363.683	800.000	0.037	-0.126
-362.669	-163.416	0.132	0.006
-361.654	800.000	-0.103	0.282
-360.639	315.535	0.008	0.014
-359.625	-81.555	-0.106	-0.034
-358.610	519.910	-0.065	-0.151
-357.596	-200.000	0.038	-0.190
-356.581	-109.264	-0.092	-0.019
-355.566	-97.449	0.426	-0.109
-354.552	68.397	0.155	-0.156
-353.537	5.513	0.269	0.196
-352.523	-86.073	0.143	0.043
-351.508	-78.265	-0.148	0.050
-350.493	-65.192	-0.180	0.072
-349.479	47.958	0.088	0.081
-348.464	72.517	0.202	0.208
-347.450	800.000	0.077	-0.251
-346.435	-58.063	-0.394	-0.170
-345.420	-20.610	-0.329	-0.199
-344.406	-199.362	-0.191	0.001
-343.391	-200.000	0.073	-0.376
-342.377	-97.299	-0.119	0.031
-341.362	391.282	-0.065	-0.133
-340.348	39.480	-0.055	0.048
-339.333	181.442	0.108	-0.157
-338.318	595.957	0.103	-0.252
-337.304	800.000	-0.014	-0.050
-336.289	-34.446	-0.117	-0.063
-335.275	-200.000	0.007	0.160
-334.260	64.867	0.230	-0.229
-333.245	-200.000	-0.005	-0.115
-332.231	232.507	-0.177	-0.287
-331.216	-67.286	-0.346	0.134
-330.202	-109.387	-0.128	0.027
-329.187	-107.628	0.243	0.052
-328.172	-200.000	0.001	-0.047
-327.158	7.755	-0.382	-0.282
-326.143	245.692	0.219	-0.363
-325.129	800.000	-0.012	0.042
-324.114	443.444	0.075	-0.162
-323.099	-125.817	-0.042	0.006
-322.085	-88.569	-0.145	0.043
-321.070	97.403	-0.269	-0.305
-320.056	800.000	0.049	0.199
-319.041	134.661	0.151	-0.194
-318.026	102.221	-0.139	-0.160
-317.012	-55.237	-0.162	-0.072
-315.997	-26.186	-0.312	-0.181
-314.983	-57.932	-0.268	0.115
-313.968	-14.786	-0.111	0.070
-312.953	-2.545	0.157	0.108
-311.939	380.943	-0.051	0.102
-310.924	-1.998	-0.022	0.015
-309.910	-115.249	0.183	0.034
-308.895	-155.022	0.173	-0.011
-307.880	22.650	0.206	0.166
-306.866	-200.000	0.046	0.348
-305.851	269.052	-0.070	0.120
-304.837	273.762	-0.077	0.134
-303.822	-19.393	0.059	0.036
-302.807	-141.170	0.185	-0.019
-301.793	-30.063	0.126	0.071
-300.778	-200.000	0.017	0.271
-299.764	-73.570	0.428	0.154
-298.749	-156.712	-0.125	-0.008
-297.735	198.064	0.092	-0.138
-296.720	800.000	0.089	0.255
-295.705	40.931	0.236	-0.210
-294.691	758.674	0.039	-0.104
-293.676	-109.632	-0.266	-0.055
-292.662	52.660	0.278	0.262
-291.647	147.427	-0.062	0.082
-290.632	19.826	-0.184	-0.146
-289.618	-200.000	0.067	-0.294
-288.603	-153.774	0.232	-0.016
-287.589	800.000	0.076	0.239
-286.574	-158.271	0.304	0.017
-285.559	-21.809	-0.371	-0.222
-284.545	112.804	0.116	0.138
-283.530	-109.331	0.230	-0.048
-282.516	35.347	0.076	0.066
-281.501	298.097	0.119	0.215
-280.486	136.368	0.187	-0.240
-279.472	341.446	0.052	0.101
-278.457	-89.186	0.173	-0.050
-277.443	317.514	0.132	-0.245
-276.428	-200.000	0.127	-0.000
-275.413	-200.000	-0.013	0.134
-274.399	470.853	0.116	0.258
-273.384	-200.000	-0.047	-0.213
-272.370	-55.188	-0.206	-0.091
-271.355	-65.185	-0.033	0.013
-270.340	-60.867	0.308	-0.128
-269.326	-200.000	-0.019	-0.122
-268.311	-67.103	-0.141	0.055
-267.297	33.253	0.027	-0.023
-266.282	-200.000	0.031	0.261
-265.267	-186.180	0.214	0.003
-264.253	-104.228	0.227	0.052
-263.238	-43.621	-0.098	0.048
-262.224	18.869	-0.308	-0.243
-261.209	84.614	-0.280	0.301
-260.195	800.000	0.094	-0.337
-259.180	-43.518	0.063	0.031
-258.165	-158.430	-0.181	-0.010
-257.151	-67.070	-0.309	-0.120
-256.136	100.830	0.171	0.196
-255.122	-138.569	0.160	-0.017
-254.107	-200.000	-0.040	0.286
-253.092	140.068	-0.139	-0.180
-252.078	800.000	0.048	-0.186
-251.063	-62.285	-0.522	-0.214
-250.049	-138.029	0.211	-0.023
-249.034	-7.901	0.112	0.074
-248.019	-200.000	0.031	0.330
-247.005	-65.771	-0.077	0.030
-245.990	-78.329	-0.084	0.028
-244.976	474.883	-0.162	0.360
-243.961	800.000	0.052	-0.189
-242.946	-35.013	0.194	0.104
-241.932	-27.981	0.144	-0.082
-240.917	-30.442	-0.209	0.117
-239.903	52.265	0.220	0.206
-238.888	-200.000	0.014	-0.134
-237.873	352.867	0.015	-0.030
-236.859	-200.000	0.067	-0.321
-235.844	35.891	0.164	0.142
-234.830	53.439	-0.166	0.156
-233.815	-87.067	0.590	-0.176
-232.800	-160.072	0.206	-0.011
-231.786	-200.000	-0.000	-0.051
-230.771	-21.032	-0.325	0.196
-229.757	800.000	0.053	0.201
-228.742	510.871	0.103	-0.236
-227.727	-200.000	-0.019	-0.266
-226.713	31.638	-0.364	-0.308
-225.698	12.060	0.091	-0.069
-224.684	133.956	-0.048	-0.062
-223.669	-32.175	0.201	-0.110
-222.655	-200.000	-0.052	0.284
-221.640	-194.669	0.165	0.001
-220.625	315.938	-0.134	-0.248
-219.611	-129.182	0.185	-0.025
-218.596	800.000	-0.096	0.290
-217.582	62.906	0.070	0.069
-216.567	538.095	-0.065	-0.152
-215.552	95.476	0.248	-0.278
-214.538	68.075	0.139	0.140
-213.523	188.589	-0.107	-0.156
-212.509	-79.664	0.293	-0.097
-211.494	-24.436	-0.218	-0.127
-210.479	-115.474	-0.204	0.038
-209.465	-200.000	-0.048	0.245
-208.450	-75.541	0.150	0.052
-207.436	-200.000	-0.074	-0.349
-206.421	617.995	-0.114	0.280
-205.406	-138.570	0.316	-0.034
-204.392	-200.000	-0.012	0.122
-203.377	-200.000	0.008	-0.222
-202.363	97.697	0.296	-0.334
-201.348	-200.000	0.010	-0.227
-200.333	-200.000	-0.038	0.225
-199.319	-170.665	-0.120	-0.004
-198.304	-157.476	0.090	0.005
-197.290	1.675	-0.138	-0.097
-196.275	94.552	0.038	0.042
-195.260	124.552	-0.150	0.185
-194.246	69.790	0.111	0.112
-193.231	800.000	0.080	-0.238
-192.217	20.165	-0.296	-0.234
-191.202	-172.912	-0.305	0.009
-190.187	-96.706	-0.136	-0.035
-189.173	116.348	-0.188	-0.226
-188.158	386.793	-0.124	0.252
-187.144	5.375	-0.064	0.046
-186.129	-200.000	0.015	-0.162
-185.114	135.977	0.275	-0.351
-184.100	-200.000	0.056	0.389
-183.085	152.030	0.157	-0.209
-182.071	-200.000	0.039	0.197
-181.056	-200.000	0.076	0.470
-180.042	-89.032	0.322	0.093
-179.027	-93.187	0.075	-0.021
-178.012	-45.933	0.089	-0.043
-176.998	-200.000	0.004	0.109
-175.983	-200.000	0.017	-0.149
-174.969	-131.913	0.179	-0.023
-173.954	-81.051	-0.042	0.014
-172.939	-36.058	0.342	-0.181
-171.925	-200.000	-0.028	0.264
-170.910	-200.000	0.050	0.393
-169.896	303.264	-0.110	-0.199
-168.881	143.243	-0.238	-0.311
-167.866	12.250	0.145	0.109
-166.852	122.743	0.142	0.174
-165.837	5.276	-0.153	0.110
-164.823	16.384	-0.208	0.161
-163.808	800.000	-0.074	0.209
-162.793	800.000	-0.083	0.258
-161.779	77.138	-0.283	0.294
-160.764	61.436	0.253	-0.247
-159.750	-1.833	0.293	0.202
-158.735	-200.000	-0.061	0.270
-157.720	-200.000	0.033	-0.218
-156.706	799.330	0.044	0.118
-155.691	443.175	-0.135	-0.290
-154.677	38.625	0.280	0.244
-153.662	-62.217	0.231	0.094
-152.647	228.056	-0.122	0.194
-151.633	587.067	0.018	0.043
-150.618	-11.885	-0.029	0.019
-149.604	-21.757	-0.023	-0.014
-148.589	800.000	-0.010	-0.030
-147.574	696.648	0.113	-0.290
-146.560	-30.735	0.068	0.038
-145.545	276.639	-0.149	0.259
-144.531	-125.860	-0.048	-0.007
-143.516	299.624	-0.086	0.155
-142.502	800.000	0.051	0.147
-141.487	-200.000	-0.001	0.206
-140.472	130.549	-0.188	0.236
-139.458	-30.038	0.494	-0.275
-138.443	571.983	0.079	-0.188
-137.429	254.100	-0.062	-0.103
-136.414	374.422	-0.175	0.349
-135.399	156.984	-0.165	0.224
-134.385	-81.265	-0.140	0.045
-133.370	-200.000	0.330	0.001
-132.356	-200.000	0.025	-0.106
-131.341	-101.845	-0.353	0.083
-130.326	-24.090	0.190	0.111
-129.312	-71.778	0.386	0.141
-128.297	-139.387	-0.104	0.011
-127.283	-59.533	0.198	0.083
-126.268	50.144	-0.123	0.114
-125.253	-200.000	0.028	0.199
-124.239	29.816	0.183	-0.152
-123.224	-61.763	0.268	-0.110
-122.210	-84.434	-0.068	0.021
-121.195	-156.732	-0.119	-0.007
-120.180	-200.000	-0.006	0.223
-119.166	800.000	-0.052	0.142
-118.151	299.213	-0.103	0.186
-117.137	-80.906	-0.227	0.074
-116.122	415.873	-0.086	-0.179
-115.107	-125.390	0.225	-0.034
-114.093	-92.387	-0.170	0.047
-113.078	-96.544	-0.264	-0.068
-112.064	170.793	0.035	0.050
-111.049	126.184	0.310	-0.383
-110.034	-88.963	-0.032	0.009
-109.020	-65.259	0.356	-0.140
-108.005	-154.764	-0.148	0.010
-106.991	-200.000	0.004	0.091
-105.976	144.870	0.153	0.200
-104.962	-200.000	-0.012	0.102
-103.947	86.137	0.239	0.258
-102.932	233.709	-0.061	-0.098
-101.918	800.000	-0.103	-0.359
-100.903	-153.137	-0.071	0.005
-99.889	-81.021	-0.229	0.074
-98.874	-5.822	0.195	-0.130
-97.859	800.000	0.032	-0.097
-96.845	-149.764	0.177	-0.014
-95.830	800.000	0.064	0.243
-94.816	41.736	0.192	-0.170
-93.801	-200.000	0.008	0.284
-92.786	140.667	0.055	-0.071
-91.772	130.722	0.069	0.086
-90.757	-99.339	0.231	0.057
-89.743	45.407	-0.158	-0.142
-88.728	491.056	0.209	0.467
-87.713	195.049	-0.040	0.059
-86.699	67.309	-0.091	-0.091
-85.684	-64.822	0.168	0.067
-84.670	-200.000	0.018	-0.190
-83.655	800.000	-0.059	-0.198
-82.640	-200.000	0.023	-0.120
-81.626	9.660	-0.180	0.133
-80.611	-62.220	-0.282	-0.115
-79.597	415.620	0.101	-0.211
-78.582	96.316	0.250	-0.280
-77.567	40.704	0.080	-0.070
-76.553	-200.000	-0.004	-0.212
-75.538	-143.858	-0.283	-0.026
-74.524	800.000	0.048	0.169
-73.509	395.460	0.048	-0.098
-72.494	-1.034	-0.120	0.083
-71.480	-200.000	0.015	-0.076
-70.465	-110.044	-0.218	-0.044
-69.451	219.846	0.191	-0.299
-68.436	-20.568	-0.037	0.022
-67.422	-35.859	-0.162	-0.086
-66.407	139.806	-0.037	0.047
-65.392	-200.000	-0.039	-0.209
-64.378	-116.582	0.271	0.049
-63.363	392.774	0.135	-0.274
-62.349	19.563	0.150	0.118
-61.334	159.480	-0.971	-1.318
-60.319	19.119	0.969	0.758
-59.305	189.954	-0.744	-1.090
-58.290	800.000	0.359	1.370
-57.276	323.666	0.843	1.569
-56.261	-200.000	121.524	646.312
-55.246	435.399	1536.318	3259.619
-54.232	148.247	2686.567	3536.793
-53.217	99.412	2135.178	2408.763
-52.203	35.798	1578.510	1353.590
-51.188	27.623	1323.772	1086.617
-50.173	24.942	1286.942	1040.781
-49.159	52.394	1354.959	1260.880
-48.144	49.808	1366.641	1256.273
-47.130	27.671	1315.080	1079.591
-46.115	24.380	1296.500	1045.054
-45.100	24.277	1291.401	1040.301
-44.086	24.209	1289.017	1037.944
-43.071	24.135	1286.309	1035.294
-42.057	24.171	1284.435	1033.951
-41.042	24.116	1282.892	1032.351
-40.027	24.069	1281.871	1031.213
-39.013	24.028	1280.183	1029.579
-37.998	24.177	1277.784	1028.470
-36.984	24.170	1276.136	1027.061
-35.969	24.259	1274.571	1026.271
-34.954	24.393	1271.925	1024.874
-33.940	24.212	1271.758	1023.659
-32.925	24.305	1270.449	1023.095
-31.911	24.374	1268.539	1021.915
-30.896	24.427	1266.787	1020.764
-29.881	24.406	1266.093	1020.045
-28.867	24.413	1264.968	1019.136
-27.852	24.326	1263.674	1017.557
-26.838	24.438	1261.824	1016.665
-25.823	24.405	1260.555	1015.416
-24.809	24.352	1259.432	1014.169
-23.794	24.393	1257.613	1012.896
-22.779	24.330	1257.087	1012.078
-21.765	24.277	1255.740	1010.651
-20.750	24.314	1254.481	1009.805
-19.736	24.279	1253.252	1008.582
-18.721	24.312	1252.126	1007.823
-17.706	24.234	1251.480	1006.818
-16.692	24.102	1250.354	1005.131
-15.677	24.117	1249.198	1004.245
-14.663	24.235	1247.361	1003.391
-13.648	24.122	1247.018	1002.440
-12.633	24.244	1245.855	1002.149
-11.619	24.218	1245.068	1001.332
-10.604	24.214	1243.909	1000.337
-9.590	24.220	1242.930	999.547
-8.575	24.218	1241.771	998.564
-7.560	24.205	1241.390	998.144
-6.546	24.247	1240.457	997.587
-5.531	24.293	1239.485	997.023
-4.517	24.137	1238.948	995.680
-3.502	24.219	1238.286	995.568
-2.487	24.318	1236.990	995.040
-1.473	24.190	1232.697	990.836
-0.458	22.557	1217.696	969.759
0.556	18.071	1202.522	933.323
1.571	14.508	1209.579	919.111
2.586	13.838	1224.614	926.714
3.600	13.842	1212.356	917.378
4.615	10.359	1141.951	845.867
5.629	3.991	1071.543	762.357
6.644	0.971	1054.580	735.571
7.659	0.742	1052.119	732.680
8.673	0.762	1051.347	732.172
9.688	0.665	1050.475	731.034
10.702	0.817	1047.899	729.906
11.717	4.898	1051.895	752.363
12.731	11.792	1061.554	792.705
13.746	16.333	1067.186	818.908
14.761	17.322	1067.935	824.205
15.775	16.519	1066.535	819.166
16.790	15.611	1064.364	813.033
17.804	14.922	1062.443	808.164
18.819	14.524	1061.787	805.674
19.834	14.306	1060.650	803.687
20.848	14.270	1059.298	802.416
21.863	13.846	1059.008	800.084
22.877	13.693	1058.198	798.665
23.892	13.663	1057.707	798.081
24.907	13.668	1057.270	797.702
25.921	13.708	1055.904	796.793
26.936	13.630	1055.643	796.151
27.950	13.696	1054.295	795.379
28.965	13.783	1053.127	794.845
29.980	13.859	1051.723	794.080
30.994	13.918	1050.262	793.188
32.009	13.877	1049.381	792.259
33.023	13.892	1049.097	792.045
34.038	13.967	1047.426	791.068
35.053	13.914	1046.533	790.071
36.067	13.851	1045.922	789.242
37.082	13.839	1044.867	788.318
38.096	13.848	1044.364	787.913
39.111	13.959	1043.569	787.770
40.126	13.792	1042.597	786.177
41.140	13.722	1041.072	784.625
42.155	13.666	1040.092	783.553
43.169	13.701	1039.018	782.839
44.184	13.622	1038.584	782.069
45.199	13.609	1037.642	781.228
46.213	13.563	1036.665	780.209
47.228	13.761	1035.239	779.998
48.242	13.831	1034.121	779.414
49.257	13.704	1033.328	778.153
50.271	13.716	1032.555	777.556
51.286	13.814	1031.564	777.200
52.301	13.791	1030.266	776.046
53.315	13.851	1029.479	775.668
54.330	13.800	1028.569	774.675
55.344	13.779	1027.604	773.781
56.359	13.670	1026.834	772.625
57.374	13.735	1026.191	772.376
58.388	13.665	1025.611	771.544
59.403	13.659	1024.516	770.623
60.417	13.686	1023.689	770.061
61.432	13.722	1022.992	769.632
62.447	13.713	1022.022	768.792
63.461	13.543	1021.340	767.427
64.476	13.513	1020.344	766.472
65.490	13.594	1019.658	766.263
66.505	13.656	1018.792	765.830
67.520	13.701	1018.414	765.685
68.534	13.575	1017.532	764.375
69.549	13.544	1016.856	763.655
70.563	13.683	1015.688	763.350
71.578	13.567	1015.127	762.326
72.593	13.721	1013.992	762.116
73.607	13.661	1013.619	761.493
74.622	13.555	1013.087	760.541
75.636	13.503	1012.372	759.697
76.651	13.530	1011.962	759.446
77.666	13.569	1011.225	759.004
78.680	13.584	1010.273	758.292
79.695	13.675	1009.378	757.968
80.709	13.703	1009.371	758.024
81.724	13.702	1008.756	757.489
82.739	13.672	1008.054	756.758
83.753	13.853	1006.982	756.713
84.768	13.851	1005.783	755.737
85.782	13.801	1005.125	754.948
86.797	13.848	1004.306	754.480
87.812	13.717	1003.192	752.979
88.826	13.731	1002.277	752.290
89.841	13.920	1001.627	752.594
90.855	13.842	1000.551	751.366
91.870	13.889	999.676	750.853
92.884	13.841	998.787	749.901
93.899	13.976	998.201	750.006
94.914	13.887	997.536	749.037
95.928	13.886	996.952	748.529
96.943	13.925	995.887	747.839
97.957	13.942	995.231	747.356
98.972	13.889	994.369	746.403
99.987	13.740	993.386	744.929
101.001	13.901	992.544	744.957
102.016	13.661	992.065	743.453
103.030	13.783	991.003	743.139
104.045	13.838	990.165	742.693
105.060	13.874	988.980	741.898
106.074	13.775	988.134	740.754
107.089	13.819	987.430	740.360
108.103	13.781	986.311	739.286
109.118	13.719	985.347	738.220
110.133	13.763	984.555	737.758
111.147	13.809	983.948	737.441
112.162	13.795	983.136	736.707
113.176	13.752	982.063	735.647
114.191	13.840	981.816	735.785
115.206	13.832	980.984	735.063
116.220	13.838	980.302	734.511
117.235	13.799	979.101	733.375
118.249	13.897	978.380	733.205
119.264	13.809	977.402	732.019
120.279	13.904	976.615	731.781
121.293	13.859	975.767	730.884
122.308	13.691	975.160	729.625
123.322	13.823	973.719	729.061
124.337	13.775	972.792	728.095
125.352	13.894	971.660	727.703
126.366	13.915	970.154	726.603
127.381	13.755	969.822	725.590
128.395	13.674	969.343	724.813
129.410	13.775	967.676	723.942
130.424	13.860	966.905	723.673
131.439	13.823	966.107	722.849
132.454	13.778	965.850	722.400
133.468	13.868	964.722	721.883
134.483	13.874	963.776	721.137
135.497	13.909	962.741	720.449
136.512	13.760	961.954	719.151
137.527	13.814	961.088	718.675
138.541	13.874	960.382	718.343
139.556	13.955	959.512	717.976
140.570	13.917	959.113	717.450
141.585	14.006	958.094	717.010
142.600	13.958	957.394	716.216
143.614	14.022	956.677	715.891
144.629	14.176	955.339	715.491
145.643	14.163	954.359	714.637
146.658	14.041	953.682	713.543
147.673	13.872	952.861	712.140
148.687	13.886	952.329	711.739
149.702	13.913	951.514	711.184
150.716	13.970	951.094	711.050
151.731	13.849	950.109	709.733
152.746	14.018	949.275	709.771
153.760	14.034	948.694	709.341
154.775	14.077	948.113	709.028
155.789	14.059	947.317	708.294
156.804	14.178	946.559	708.169
157.819	14.023	946.638	707.506
158.833	14.305	944.719	707.208
159.848	14.280	944.241	706.683
160.862	14.207	943.569	705.804
161.877	14.158	942.739	704.916
162.892	14.062	941.759	703.713
163.906	14.012	940.830	702.744
164.921	14.112	939.869	702.387
165.935	14.231	938.837	702.056
166.950	14.099	938.348	701.074
167.964	14.201	937.368	700.709
168.979	14.188	936.537	699.968
169.994	14.202	935.513	699.199
171.008	14.115	935.399	698.690
172.023	14.402	934.541	699.190
173.037	14.282	933.565	697.897
174.052	14.198	933.279	697.268
175.067	14.216	932.658	696.817
176.081	14.272	932.151	696.612
177.096	14.235	931.175	695.665
178.110	14.310	930.689	695.554
179.125	14.232	930.157	694.771
180.140	14.300	929.374	694.407
181.154	14.346	929.184	694.396
182.169	14.357	928.620	693.959
183.183	14.344	927.934	693.330
184.198	14.439	926.904	692.895
185.213	14.444	926.072	692.231
186.227	14.453	925.775	691.985
187.242	14.543	925.153	691.833
188.256	14.583	924.230	691.248
189.271	14.335	923.733	689.786
190.286	14.342	923.115	689.294
191.300	14.409	922.133	688.777
192.315	14.222	921.790	687.688
193.329	14.392	921.206	687.892
194.344	14.385	920.783	687.487
195.359	14.341	920.108	686.741
196.373	14.435	919.263	686.436
197.388	14.554	918.718	686.459
198.402	14.610	918.163	686.215
199.417	14.585	917.801	685.780
200.432	14.634	917.209	685.476
201.446	14.789	916.638	685.626
202.461	14.654	915.757	684.354
203.475	14.671	915.525	684.188
204.490	14.842	914.210	683.846
205.504	14.659	913.989	682.871
206.519	14.590	913.327	682.035
207.534	14.741	912.122	681.689
208.548	14.852	911.546	681.653
209.563	14.682	911.249	680.676
210.577	14.725	910.266	680.057
211.592	14.727	909.605	679.511
212.607	14.885	908.864	679.540
213.621	14.771	908.185	678.511
214.636	14.772	907.732	678.116
215.650	14.804	907.260	677.830
216.665	14.893	906.618	677.652
217.680	14.864	905.741	676.821
218.694	14.969	904.903	676.559
219.709	14.921	904.397	675.927
220.723	14.881	903.844	675.290
221.738	14.752	903.168	674.208
222.753	14.968	902.261	674.339
223.767	14.973	901.830	673.980
224.782	15.077	901.205	673.870
225.796	15.080	900.630	673.395
226.811	15.061	899.975	672.767
227.826	14.970	899.398	671.912
228.840	15.075	898.408	671.531
229.855	15.113	897.658	671.065
230.869	15.031	897.310	670.418
231.884	14.902	896.510	669.243
232.899	15.002	895.761	669.026
233.913	15.049	895.129	668.681
234.928	15.054	894.369	668.076
235.942	14.883	894.054	667.098
236.957	14.974	893.006	666.621
237.972	14.998	892.927	666.599
238.986	15.005	892.225	666.045
240.001	15.114	891.263	665.698
241.015	15.071	891.059	665.318
242.030	15.088	890.379	664.817
243.045	15.143	889.769	664.522
244.059	15.053	889.206	663.685
245.074	15.215	888.333	663.615
246.088	15.241	887.830	663.286
247.103	15.253	887.176	662.787
248.117	15.209	886.677	662.179
249.132	15.298	886.117	662.054
250.147	15.357	885.337	661.645
251.161	15.501	884.362	661.424
252.176	15.503	883.866	661.003
253.190	15.417	883.107	660.039
254.205	15.446	882.583	659.706
255.220	15.485	881.868	659.263
256.234	15.443	881.511	658.775
257.249	15.566	880.132	658.167
258.263	15.520	879.962	657.801
259.278	15.552	878.968	657.124
260.293	15.535	878.856	656.919
261.307	15.701	877.993	656.861
262.322	15.597	877.596	656.102
263.336	15.731	876.644	655.854
264.351	15.779	876.181	655.639
265.366	15.726	875.489	654.854
266.380	15.712	874.864	654.276
267.395	15.608	874.484	653.527
268.409	15.662	873.706	653.099
269.424	15.755	872.343	652.382
270.439	15.782	871.883	652.088
271.453	15.741	870.850	651.098
272.468	15.796	870.667	651.117
273.482	15.745	870.390	650.653
274.497	15.612	869.856	649.683
275.512	15.860	869.093	650.013
276.526	15.737	868.870	649.316
277.541	15.913	867.856	649.177
278.555	15.983	867.351	649.013
279.570	16.016	866.528	648.467
280.585	15.812	866.258	647.423
281.599	15.915	865.252	647.007
282.614	15.950	864.784	646.734
283.628	15.807	864.153	645.656
284.643	15.929	863.417	645.517
285.657	15.985	862.847	645.250
286.672	15.921	862.059	644.359
287.687	15.995	861.441	644.121
288.701	16.124	860.678	643.985
289.716	15.938	860.703	643.239
290.730	16.109	859.957	643.276
291.745	16.082	859.407	642.706
292.760	16.134	858.803	642.395
293.774	16.089	857.845	641.451
294.789	16.091	857.204	640.921
295.803	16.192	856.608	640.804
296.818	16.172	856.111	640.297
297.833	16.126	855.614	639.697
298.847	16.206	854.667	639.234
299.862	16.206	854.156	638.795
300.876	16.198	853.767	638.416
301.891	16.314	853.270	638.427
302.906	16.285	852.521	637.702
303.920	16.237	852.075	637.129
304.935	16.402	851.328	637.139
305.949	16.316	850.658	636.257
306.964	16.308	850.026	635.696
307.979	16.360	849.553	635.483
308.993	16.288	849.284	634.954
310.008	16.503	848.577	635.178
311.022	16.447	847.660	634.226
312.037	16.527	846.916	633.913
313.052	16.485	846.399	633.312
314.066	16.554	846.272	633.420
315.081	16.408	845.426	632.182
316.095	16.476	844.734	631.864
317.110	16.323	844.700	631.211
318.125	16.417	844.167	631.109
319.139	16.560	843.256	630.903
320.154	16.602	842.800	630.666
321.168	16.567	842.285	630.091
322.183	16.450	842.265	629.585
323.197	16.557	841.206	629.138
324.212	16.589	840.457	628.639
325.227	16.618	840.028	628.372
326.241	16.495	840.040	627.868
327.256	16.559	839.714	627.806
328.270	16.466	838.770	626.699
329.285	16.479	838.067	626.166
330.300	16.690	837.264	626.294
331.314	16.486	837.256	625.475
332.329	16.604	836.636	625.395
333.343	16.608	836.336	625.130
334.358	16.708	835.611	624.902
335.373	16.716	835.240	624.596
336.387	16.589	835.044	623.926
337.402	16.789	834.472	624.183
338.416	16.655	834.544	623.687
339.431	16.721	834.177	623.602
340.446	16.693	833.780	623.144
341.460	16.746	833.277	622.911
342.475	16.756	832.656	622.427
343.489	16.919	832.111	622.562
344.504	16.966	831.334	622.099
345.519	16.947	831.140	621.830
346.533	16.941	830.782	621.483
347.548	17.029	829.874	621.072
348.562	16.833	829.497	620.016
349.577	16.931	828.855	619.840
350.592	16.923	828.636	619.592
351.606	17.018	827.576	619.090
352.621	17.018	826.919	618.546
353.635	16.941	826.298	617.747
354.650	16.972	825.706	617.364
355.665	17.031	825.061	617.040
356.679	16.930	824.553	616.240
357.694	16.998	823.784	615.856
358.708	17.168	823.091	615.898
359.723	17.044	822.817	615.190
360.738	17.071	822.311	614.855
361.752	17.015	821.759	614.188
362.767	17.126	821.236	614.144
363.781	17.099	820.818	613.678
364.796	17.299	820.247	613.918
365.810	17.326	819.446	613.362
366.825	17.379	819.098	613.239
367.840	17.251	818.591	612.344
368.854	17.326	818.227	612.289
369.869	17.339	818.015	612.120
370.883	17.306	817.474	611.543
371.898	17.558	817.247	612.227
372.913	17.366	816.823	611.162
373.927	17.416	816.179	610.810
374.942	17.427	815.749	610.472
375.956	17.505	815.138	610.240
376.971	17.518	814.747	609.938
377.986	17.611	814.322	609.901
379.000	17.640	813.917	609.647
380.015	17.502	813.291	608.631
381.029	17.535	812.935	608.427
382.044	17.644	812.225	608.230
383.059	17.520	811.850	607.456
384.073	17.467	811.134	606.675
385.088	17.508	810.789	606.511
386.102	17.489	809.762	605.620
387.117	17.509	809.560	605.488
388.132	17.596	809.217	605.488
389.146	17.768	808.200	605.284
390.161	17.571	808.103	604.458
391.175	17.657	807.533	604.284
392.190	17.645	806.836	603.663
393.205	17.752	806.369	603.642
394.219	17.519	806.348	602.748
395.234	17.667	805.883	602.869
396.248	17.687	805.544	602.632
397.263	17.580	804.971	601.775
398.278	17.548	804.835	601.506
399.292	17.662	804.230	601.403
400.307	17.815	803.633	601.441
401.321	17.783	803.149	600.913
402.336	17.804	802.527	600.469
403.350	17.801	802.199	600.160
404.365	17.806	802.138	600.079
405.380	17.938	801.275	599.846
406.394	18.133	800.443	599.851
407.409	17.772	800.640	598.680
408.423	17.955	800.208	598.948
409.438	18.002	799.800	598.754
410.453	17.849	799.571	597.991
411.467	17.964	798.915	597.851
412.482	17.981	798.712	597.707
413.496	18.086	798.198	597.636
414.511	18.105	797.529	597.148
415.526	17.945	797.514	596.524
416.540	18.083	796.752	596.385
417.555	18.253	795.970	596.339
418.569	18.125	795.882	595.773
419.584	18.155	795.515	595.551
420.599	18.091	795.156	595.007
421.613	115.912	1297.069	1489.496
422.628	99.910	1370.178	1489.553
