DTS Sentinel unit serial number:	SN413079Multiplexer serial number:	ORYXHardware model number:	OX4-SRSoftware version number:	ORYX F/W v4.00 Oryx Data Collector v3.7.2.0data status	okinstallation	princeton_trtdifferential loss correction	single-endedforward channel	channel 1reverse channel	N/Adate	2019/09/10time	16:52:11forward acquisition time	60.00reverse acquisition time	0.00gamma	496.2192k internal	0.2300k external	0.2300temperature offset calibration	0.9924default loss term (dB/km)	0.3790temperature slope calibration	1.0000multiplexer offset coefficient	1.0000multiplexer slope coefficient	1.0000fibre end	0.00T internal ref (°C)	37.62T ext. ref 1 (°C)	-0.30T ext. ref 2 (°C)	32.46length (m)	temperature (°C)	Stokes	anti-Stokes-747.200	800.000	0.076	0.305
-746.185	12.500	0.258	0.203
-745.171	-200.000	0.063	0.301
-744.156	560.032	0.211	0.521
-743.142	-200.000	0.040	0.192
-742.127	138.568	-0.043	0.057
-741.112	-68.034	-0.166	-0.066
-740.098	72.755	-0.037	-0.039
-739.083	800.000	-0.028	-0.116
-738.069	-67.519	0.084	0.034
-737.054	-171.672	-0.341	0.011
-736.039	-200.000	-0.024	-0.291
-735.025	173.338	0.081	-0.118
-734.010	-112.829	-0.197	0.040
-732.996	202.873	-0.214	-0.338
-731.981	800.000	-0.098	-0.380
-730.966	-144.982	-0.201	0.019
-729.952	-200.000	-0.022	0.273
-728.937	-70.678	0.181	0.070
-727.923	-148.592	-0.438	-0.036
-726.908	-153.541	-0.415	-0.029
-725.894	28.524	0.224	-0.193
-724.879	141.432	0.158	0.214
-723.864	-200.000	0.009	-0.369
-722.850	-200.000	0.015	0.106
-721.835	-162.519	-0.127	-0.006
-720.821	456.102	0.017	-0.038
-719.806	-176.646	-0.198	0.005
-718.791	120.526	-0.132	0.167
-717.777	6.630	-0.197	-0.150
-716.762	-200.000	0.068	-0.318
-715.748	29.817	-0.309	-0.268
-714.733	-189.801	-0.074	-0.001
-713.718	-114.676	0.099	0.019
-712.704	-87.332	-0.495	-0.153
-711.689	-51.331	-0.221	0.105
-710.675	800.000	-0.075	0.309
-709.660	-78.546	-0.102	0.035
-708.645	-9.386	0.214	-0.145
-707.631	-35.742	0.255	-0.141
-706.616	-165.006	0.062	-0.003
-705.602	-131.446	0.019	0.002
-704.587	-61.482	0.428	-0.183
-703.572	-200.000	-0.192	-0.000
-702.558	-81.265	0.018	0.006
-701.543	-10.148	0.277	-0.187
-700.529	-5.485	-0.012	-0.008
-699.514	209.739	0.019	0.031
-698.499	216.787	0.162	0.262
-697.485	42.616	0.183	0.169
-696.470	-128.111	-0.116	0.017
-695.456	-109.528	0.350	-0.075
-694.441	28.722	-0.233	0.201
-693.426	800.000	-0.029	0.096
-692.412	206.932	0.064	0.101
-691.397	-24.406	-0.043	-0.026
-690.383	-149.702	-0.205	-0.016
-689.368	308.866	-0.108	-0.206
-688.354	170.169	-0.145	0.212
-687.339	91.047	-0.126	-0.144
-686.324	50.604	-0.150	0.144
-685.310	800.000	-0.021	-0.079
-684.295	-31.618	0.144	-0.083
-683.281	-200.000	-0.028	0.199
-682.266	472.134	-0.166	-0.381
-681.251	201.690	-0.223	-0.349
-680.237	-45.980	0.240	0.120
-679.222	628.073	0.017	-0.043
-678.208	39.312	-0.105	0.096
-677.193	567.583	-0.134	0.330
-676.178	-103.600	-0.087	-0.021
-675.164	301.354	0.084	-0.159
-674.149	-200.000	-0.069	0.507
-673.135	800.000	0.109	0.367
-672.120	-200.000	0.004	-0.074
-671.105	165.795	0.157	-0.227
-670.091	362.411	0.108	0.220
-669.076	-189.165	-0.199	-0.002
-668.062	-75.963	0.089	-0.032
-667.047	-120.502	-0.323	-0.056
-666.032	-99.825	0.068	0.017
-665.018	-67.767	0.077	0.031
-664.003	326.584	0.218	-0.424
-662.989	84.631	-0.217	-0.241
-661.974	-122.779	0.153	0.025
-660.959	800.000	-0.082	-0.246
-659.945	-9.237	-0.228	-0.155
-658.930	-133.036	0.076	0.010
-657.916	179.280	-0.088	-0.130
-656.901	-98.330	0.116	0.030
-655.886	-200.000	0.035	-0.176
-654.872	4.340	0.253	0.189
-653.857	107.196	0.278	0.336
-652.843	-54.759	0.212	-0.097
-651.828	800.000	0.030	0.131
-650.814	630.973	-0.082	-0.211
-649.799	-135.386	0.058	0.007
-648.784	11.406	-0.273	0.212
-647.770	-119.521	-0.388	-0.068
-646.755	60.216	-0.050	0.051
-645.741	110.261	0.192	0.235
-644.726	-148.258	0.217	-0.018
-643.711	-63.799	-0.122	0.051
-642.697	-78.193	0.132	0.046
-641.682	417.621	-0.161	0.349
-640.668	307.004	0.183	-0.347
-639.653	34.878	-0.117	0.104
-638.638	-200.000	0.046	0.233
-637.624	159.322	-0.048	0.067
-636.609	-93.669	0.191	0.054
-635.595	-200.000	0.016	0.131
-634.580	-90.843	0.110	0.032
-633.565	-7.882	0.138	-0.094
-632.551	-24.906	-0.211	-0.127
-631.536	-46.279	-0.381	0.190
-630.522	-136.802	-0.169	0.020
-629.507	-200.000	-0.018	-0.175
-628.492	305.531	0.077	-0.146
-627.478	-146.625	-0.268	-0.024
-626.463	-85.994	-0.213	0.067
-625.449	-51.456	-0.345	-0.164
-624.434	519.577	0.221	-0.525
-623.419	-200.000	0.007	-0.182
-622.405	79.199	0.172	0.187
-621.390	-130.247	0.108	0.015
-620.376	-200.000	0.042	0.427
-619.361	-0.490	-0.353	0.255
-618.346	-133.836	0.278	-0.035
-617.332	149.088	-0.114	-0.157
-616.317	-200.000	-0.025	-0.141
-615.303	284.507	-0.149	-0.272
-614.288	43.837	0.072	0.067
-613.273	177.186	-0.056	0.082
-612.259	71.621	0.028	-0.030
-611.244	-58.325	0.221	0.097
-610.230	-159.102	0.208	-0.012
-609.215	571.431	-0.136	0.336
-608.201	510.992	-0.053	-0.125
-607.186	681.468	-0.036	-0.096
-606.171	36.848	0.316	0.283
-605.157	800.000	-0.030	-0.090
-604.142	-20.826	-0.068	-0.043
-603.128	-73.143	-0.330	0.123
-602.113	-115.940	-0.296	-0.056
-601.098	-20.011	-0.192	0.120
-600.084	152.123	0.276	0.381
-599.069	232.509	0.071	0.118
-598.055	86.530	0.187	0.209
-597.040	130.210	-0.107	0.139
-596.025	-200.000	-0.010	-0.082
-595.011	-124.587	-0.415	-0.065
-593.996	-51.354	-0.034	-0.016
-592.982	-92.719	-0.212	-0.060
-591.967	-154.752	-0.427	-0.029
-590.952	800.000	-0.118	-0.453
-589.938	-50.471	0.229	-0.110
-588.923	73.828	-0.121	-0.129
-587.909	87.470	0.072	-0.081
-586.894	180.758	0.231	-0.344
-585.879	60.226	0.130	-0.130
-584.865	398.076	0.173	-0.367
-583.850	32.937	0.177	-0.156
-582.836	152.891	0.061	0.084
-581.821	54.856	0.080	-0.078
-580.806	369.754	-0.090	-0.185
-579.792	21.645	-0.079	0.065
-578.777	-48.422	-0.206	0.101
-577.763	-200.000	0.006	0.145
-576.748	514.429	-0.127	0.300
-575.733	-121.505	-0.392	-0.066
-574.719	-5.633	-0.481	-0.334
-573.704	-200.000	-0.021	-0.287
-572.690	-146.546	0.047	-0.004
-571.675	-42.749	-0.178	0.092
-570.661	715.787	0.096	0.258
-569.646	73.519	-0.264	-0.280
-568.631	-78.270	-0.024	-0.008
-567.617	145.235	0.062	-0.084
-566.602	-106.135	0.177	-0.040
-565.588	667.173	0.104	0.271
-564.573	-163.156	0.177	0.009
-563.558	48.883	-0.223	0.212
-562.544	360.339	-0.158	0.319
-561.529	-200.000	-0.021	-0.306
-560.515	180.887	0.061	-0.090
-559.500	94.243	0.142	-0.164
-558.485	-81.270	-0.349	-0.117
-557.471	-200.000	0.000	-0.217
-556.456	123.679	0.076	-0.097
-555.442	-28.979	-0.083	0.049
-554.427	20.330	-0.237	0.194
-553.412	16.613	-0.121	-0.097
-552.398	763.701	-0.086	-0.237
-551.383	84.776	0.065	0.072
-550.369	11.926	0.040	0.031
-549.354	-60.592	-0.146	0.063
-548.339	-41.453	0.226	0.118
-547.325	89.595	0.224	0.253
-546.310	-29.400	-0.159	0.092
-545.296	-189.605	-0.265	0.003
-544.281	-18.311	-0.301	0.190
-543.266	136.792	0.176	0.233
-542.252	800.000	0.030	-0.093
-541.237	-145.338	-0.217	-0.020
-540.223	264.617	-0.066	0.116
-539.208	535.767	-0.023	-0.054
-538.193	-72.674	0.350	-0.131
-537.179	-200.000	0.019	0.211
-536.164	-104.426	0.373	-0.087
-535.150	-26.895	-0.460	-0.272
-534.135	-60.144	-0.156	-0.067
-533.121	22.205	0.221	0.183
-532.106	20.571	0.197	0.161
-531.091	800.000	0.085	0.292
-530.077	43.222	-0.156	0.144
-529.062	93.416	0.095	0.109
-528.048	-182.392	0.136	0.003
-527.033	22.979	0.102	0.085
-526.018	-127.318	-0.091	0.013
-525.004	-178.255	0.068	0.002
-523.989	163.177	0.023	-0.032
-522.975	28.123	-0.094	-0.080
-521.960	-200.000	-0.008	0.225
-520.945	-1.150	-0.079	-0.056
-519.931	-83.312	0.299	-0.097
-518.916	-200.000	-0.040	0.446
-517.902	-132.542	0.176	0.023
-516.887	800.000	0.021	-0.067
-515.872	112.571	0.082	0.100
-514.858	-200.000	-0.007	-0.079
-513.843	-200.000	0.023	-0.170
-512.829	172.825	0.141	0.206
-511.814	800.000	-0.041	0.115
-510.799	65.824	0.048	0.049
-509.785	800.000	-0.106	0.407
-508.770	-91.719	-0.231	-0.066
-507.756	-143.276	0.272	-0.026
-506.741	-200.000	-0.015	-0.259
-505.726	800.000	-0.038	-0.132
-504.712	-80.058	-0.260	-0.088
-503.697	201.021	0.031	0.048
-502.683	-91.694	-0.251	-0.072
-501.668	-157.647	0.104	0.006
-500.653	8.371	-0.201	-0.153
-499.639	-74.348	0.291	0.106
-498.624	-39.937	-0.456	0.241
-497.610	-106.285	-0.252	-0.057
-496.595	-187.057	-0.158	0.002
-495.581	476.895	0.246	-0.562
-494.566	115.728	-0.261	-0.323
-493.551	216.869	0.071	-0.114
-492.537	110.506	0.167	0.203
-491.522	45.538	-0.179	0.167
-490.508	-200.000	0.034	-0.222
-489.493	-189.391	-0.065	0.001
-488.478	-62.979	-0.070	0.029
-487.464	6.073	0.212	-0.159
-486.449	-93.254	-0.154	-0.043
-485.435	736.579	-0.025	0.067
-484.420	260.864	0.030	-0.053
-483.405	-200.000	-0.048	-0.356
-482.391	142.132	-0.183	-0.246
-481.376	3.984	-0.173	-0.128
-480.362	-12.863	-0.169	-0.111
-479.347	156.076	0.258	0.359
-478.332	251.237	0.059	-0.101
-477.318	117.859	-0.072	-0.089
-476.303	-200.000	-0.044	-0.206
-475.289	-200.000	0.000	-0.279
-474.274	-11.090	-0.202	-0.134
-473.259	-101.442	0.100	-0.025
-472.245	800.000	0.077	0.306
-471.230	-200.000	0.007	0.145
-470.216	800.000	0.022	-0.069
-469.201	-59.883	0.035	-0.015
-468.186	309.088	0.151	-0.285
-467.172	35.113	0.186	0.165
-466.157	49.669	-0.054	-0.051
-465.143	-1.692	0.129	-0.091
-464.128	-51.605	0.141	-0.066
-463.113	2.446	-0.086	0.063
-462.099	230.272	0.029	0.048
-461.084	-91.702	-0.166	0.048
-460.070	71.469	0.157	0.164
-459.055	98.418	-0.202	-0.235
-458.040	601.764	-0.077	-0.193
-457.026	52.808	0.056	0.054
-456.011	-100.399	0.099	-0.025
-454.997	568.068	0.100	-0.245
-453.982	-178.078	-0.256	-0.006
-452.968	-200.000	0.020	0.089
-451.953	800.000	-0.040	-0.151
-450.938	53.810	-0.150	-0.145
-449.924	172.998	-0.154	0.224
-448.909	-108.635	0.218	0.047
-447.895	800.000	-0.083	0.233
-446.880	-104.141	-0.188	0.044
-445.865	-31.455	-0.167	-0.094
-444.851	-145.622	0.308	-0.028
-443.836	101.605	0.316	-0.372
-442.822	-119.170	0.287	0.051
-441.807	-200.000	0.045	0.257
-440.792	-52.687	0.136	-0.063
-439.778	-175.146	-0.254	0.007
-438.763	-52.541	0.281	0.131
-437.749	-75.872	-0.394	0.141
-436.734	-13.577	0.232	-0.151
-435.719	75.461	0.219	0.233
-434.705	-70.984	0.247	-0.094
-433.690	58.395	-0.232	-0.229
-432.676	196.493	0.052	0.080
-431.661	-166.559	-0.089	-0.004
-430.646	112.518	0.047	-0.057
-429.632	527.835	-0.022	0.051
-428.617	568.848	0.157	-0.385
-427.603	-47.076	0.180	0.088
-426.588	-8.174	-0.253	0.172
-425.573	800.000	0.073	-0.208
-424.559	-55.702	-0.365	-0.164
-423.544	70.245	-0.165	-0.172
-422.530	800.000	-0.070	0.213
-421.515	800.000	0.032	0.110
-420.500	267.803	0.130	-0.229
-419.486	146.264	0.141	0.191
-418.471	-24.158	0.228	-0.137
-417.457	-129.988	-0.311	0.043
-416.442	-81.003	-0.256	-0.086
-415.428	-200.000	0.013	0.244
-414.413	800.000	-0.063	-0.272
-413.398	-55.805	-0.139	0.062
-412.384	212.493	0.074	0.117
-411.369	47.877	0.210	0.197
-410.355	15.980	0.262	0.208
-409.340	-94.238	-0.270	0.074
-408.325	-65.300	-0.068	0.028
-407.311	19.687	-0.077	0.062
-406.296	182.175	-0.087	-0.130
-405.282	-67.059	-0.042	0.017
-404.267	-200.000	0.004	-0.030
-403.252	-60.366	0.322	0.138
-402.238	-28.829	0.337	-0.195
-401.223	-165.131	-0.180	-0.008
-400.209	131.221	0.112	-0.144
-399.194	-65.762	0.303	0.122
-398.179	800.000	-0.045	0.159
-397.165	105.806	0.084	-0.101
-396.150	3.976	0.273	0.201
-395.136	-130.439	0.110	-0.015
-394.121	91.096	-0.201	-0.227
-393.106	-3.702	0.157	-0.110
-392.092	-48.786	-0.064	-0.031
-391.077	48.417	0.375	0.353
-390.063	218.086	0.120	0.193
-389.048	800.000	0.087	0.247
-388.033	-44.636	0.120	-0.060
-387.019	-0.497	0.181	-0.129
-386.004	30.683	0.142	-0.122
-384.990	-71.043	-0.240	0.091
-383.975	-79.180	-0.324	-0.110
-382.960	-156.885	0.269	0.017
-381.946	537.519	-0.168	0.400
-380.931	-200.000	-0.015	0.231
-379.917	89.686	0.004	0.005
-378.902	327.545	-0.009	0.018
-377.888	-10.034	0.068	-0.046
-376.873	-0.694	0.190	-0.136
-375.858	-187.890	0.180	-0.002
-374.844	566.260	0.034	-0.084
-373.829	800.000	0.021	0.069
-372.815	-47.394	-0.187	0.091
-371.800	268.298	0.087	-0.153
-370.785	-0.210	-0.184	-0.132
-369.771	-15.656	0.028	0.018
-368.756	-140.330	0.351	-0.037
-367.742	800.000	0.039	0.152
-366.727	-200.000	0.037	0.231
-365.712	158.267	-0.097	0.135
-364.698	79.071	0.106	-0.114
-363.683	-200.000	0.027	-0.292
-362.669	-132.270	-0.440	0.057
-361.654	-74.678	0.120	0.043
-360.639	-78.983	0.229	0.078
-359.625	41.694	0.225	0.204
-358.610	-200.000	0.266	0.001
-357.596	65.301	-0.163	0.166
-356.581	355.799	0.100	0.201
-355.566	189.979	0.035	0.053
-354.552	63.444	0.252	-0.254
-353.537	8.630	0.108	0.082
-352.523	211.836	-0.040	-0.063
-351.508	-16.950	-0.102	-0.065
-350.493	-113.414	-0.080	-0.016
-349.479	-70.168	-0.433	0.165
-348.464	-200.000	-0.038	-0.226
-347.450	800.000	-0.049	-0.162
-346.435	-66.804	0.229	-0.091
-345.420	-117.502	-0.261	0.047
-344.406	310.487	-0.094	-0.177
-343.391	-200.000	-0.017	-0.081
-342.377	800.000	-0.056	0.223
-341.362	55.351	-0.143	-0.139
-340.348	-75.053	-0.166	0.060
-339.333	800.000	0.124	-0.390
-338.318	-25.422	0.155	0.092
-337.304	800.000	0.118	0.389
-336.289	213.791	-0.137	-0.218
-335.275	-48.629	-0.207	-0.100
-334.260	-130.419	0.192	-0.026
-333.245	-200.000	-0.033	0.178
-332.231	746.758	0.067	0.181
-331.216	-49.017	0.073	0.035
-330.202	-155.339	0.223	0.015
-329.187	136.418	-0.229	0.300
-328.172	130.995	0.216	0.278
-327.158	800.000	-0.061	-0.192
-326.143	-84.156	0.179	-0.057
-325.129	800.000	0.092	0.262
-324.114	800.000	-0.090	0.279
-323.099	-126.512	0.115	0.017
-322.085	41.812	-0.413	0.376
-321.070	16.450	0.068	0.053
-320.056	-86.282	-0.343	-0.106
-319.041	-9.966	0.361	-0.241
-318.026	-45.451	-0.068	0.034
-317.012	-200.000	0.019	-0.186
-315.997	256.841	-0.024	-0.041
-314.983	-68.758	-0.124	-0.048
-313.968	800.000	-0.044	-0.147
-312.953	714.399	0.027	-0.071
-311.939	473.229	0.054	0.123
-310.924	-87.964	0.116	0.035
-309.910	55.328	0.214	0.208
-308.895	-132.374	0.394	0.051
-307.880	9.577	-0.256	-0.194
-306.866	-200.000	0.071	-0.471
-305.851	-5.687	-0.153	-0.105
-304.837	13.627	0.280	-0.218
-303.822	-65.123	-0.005	-0.002
-302.807	-49.770	-0.366	0.174
-301.793	259.586	-0.101	0.175
-300.778	83.892	0.234	0.256
-299.764	33.605	-0.143	0.125
-298.749	221.442	0.046	0.074
-297.735	-39.341	-0.227	0.120
-296.720	58.341	-0.145	-0.143
-295.705	682.573	-0.056	-0.146
-294.691	75.191	0.109	0.115
-293.676	23.788	0.341	-0.281
-292.662	652.524	0.165	0.424
-291.647	-114.017	-0.098	0.019
-290.632	-62.843	-0.179	0.074
-289.618	526.278	0.048	-0.114
-288.603	12.460	0.046	0.036
-287.589	-1.611	-0.298	0.210
-286.574	800.000	0.044	-0.138
-285.559	-115.601	0.234	-0.044
-284.545	-115.222	0.291	0.055
-283.530	-200.000	-0.005	-0.100
-282.516	800.000	-0.083	-0.271
-281.501	-83.798	0.327	-0.104
-280.486	46.973	0.108	-0.101
-279.472	-200.000	0.007	0.140
-278.457	-200.000	-0.019	-0.114
-277.443	156.691	0.166	-0.230
-276.428	-36.746	-0.073	-0.039
-275.413	-118.478	0.138	0.024
-274.399	-36.152	0.383	-0.207
-273.384	-131.597	-0.078	0.010
-272.370	-200.000	0.004	0.165
-271.355	-200.000	0.286	0.000
-270.340	131.893	-0.130	0.168
-269.326	-142.007	0.289	0.029
-268.311	-200.000	0.015	-0.079
-267.297	-96.522	0.300	0.079
-266.282	-157.905	0.351	-0.021
-265.267	-200.000	-0.001	-0.073
-264.253	-9.225	-0.033	0.022
-263.238	-200.000	0.008	-0.198
-262.224	81.166	-0.045	0.049
-261.209	-105.398	-0.183	0.042
-260.195	350.024	-0.068	-0.134
-259.180	-64.921	-0.471	-0.191
-258.165	-78.565	-0.301	-0.103
-257.151	81.262	0.190	0.205
-256.136	-200.000	0.210	-0.001
-255.122	-96.661	-0.391	-0.103
-254.107	83.047	-0.138	-0.150
-253.092	-156.878	-0.411	-0.025
-252.078	-13.738	0.161	0.104
-251.063	29.843	0.209	-0.178
-250.049	-67.892	-0.128	-0.050
-249.034	-65.270	0.095	-0.038
-248.019	326.879	0.187	-0.359
-247.005	607.601	0.097	-0.242
-245.990	-200.000	0.035	-0.179
-244.976	292.231	-0.061	0.112
-243.961	789.718	0.063	0.174
-242.946	131.818	-0.026	0.033
-241.932	-140.630	0.157	-0.016
-240.917	-128.284	0.262	0.037
-239.903	-170.249	-0.294	-0.010
-238.888	-77.652	0.218	-0.075
-237.873	800.000	0.041	-0.128
-236.859	-174.762	-0.183	0.005
-235.844	-94.383	0.238	0.065
-234.830	800.000	-0.080	-0.223
-233.815	-7.010	-0.107	0.073
-232.800	-113.086	0.144	0.028
-231.786	800.000	0.013	-0.050
-230.771	499.198	0.066	0.152
-229.757	547.124	-0.047	0.112
-228.742	-195.638	0.037	0.000
-227.727	-200.000	-0.025	-0.164
-226.713	-11.568	-0.251	-0.165
-225.698	20.214	-0.056	0.045
-224.684	366.091	-0.078	-0.157
-223.669	-200.000	0.026	-0.166
-222.655	-200.000	-0.007	0.304
-221.640	-76.469	0.024	-0.009
-220.625	-167.521	0.138	-0.006
-219.611	-2.922	-0.148	-0.103
-218.596	-200.000	0.006	-0.206
-217.582	201.471	0.169	0.259
-216.567	-91.113	0.209	0.060
-215.552	164.673	-0.060	-0.084
-214.538	800.000	-0.081	-0.224
-213.523	-117.090	0.175	-0.032
-212.509	120.613	-0.051	-0.063
-211.494	-134.806	0.020	0.002
-210.479	800.000	0.066	0.250
-209.465	-172.503	-0.107	-0.003
-208.450	-61.630	-0.081	-0.034
-207.436	154.853	0.024	0.033
-206.421	-65.972	0.022	0.009
-205.406	182.499	0.102	0.150
-204.392	-124.104	-0.320	0.050
-203.377	96.265	-0.060	0.069
-202.363	-110.510	0.204	0.042
-201.348	111.243	0.101	0.122
-200.333	-45.187	0.108	-0.054
-199.319	-200.000	0.006	-0.122
-198.304	-200.000	-0.003	-0.041
-197.290	-200.000	-0.007	-0.125
-196.275	-128.962	0.202	-0.028
-195.260	184.590	0.074	0.109
-194.246	251.928	0.234	-0.397
-193.231	-66.762	-0.109	0.043
-192.217	-111.708	0.092	0.019
-191.202	800.000	0.091	0.275
-190.187	-200.000	0.021	-0.151
-189.173	-200.000	0.028	0.201
-188.158	-186.483	0.175	0.002
-187.144	88.411	-0.198	0.220
-186.129	752.083	0.058	-0.157
-185.114	-21.221	-0.245	0.149
-184.100	63.006	0.132	-0.132
-183.085	-35.357	-0.190	0.103
-182.071	63.299	0.107	-0.107
-181.056	108.575	-0.155	0.185
-180.042	37.210	-0.149	0.131
-179.027	-74.629	0.135	0.048
-178.012	-46.125	0.191	0.094
-176.998	-109.381	0.174	-0.037
-175.983	203.373	-0.033	0.051
-174.969	98.123	0.149	0.171
-173.954	119.833	0.276	0.341
-172.939	206.918	0.164	0.255
-171.925	-42.131	-0.302	-0.154
-170.910	-39.419	-0.216	0.113
-169.896	194.554	0.047	0.071
-168.881	-32.455	-0.160	-0.089
-167.866	-118.531	-0.096	-0.017
-166.852	-98.414	-0.214	-0.055
-165.837	12.755	0.112	-0.086
-164.823	491.874	-0.097	-0.222
-163.808	-87.996	0.223	-0.067
-162.793	552.532	-0.073	0.175
-161.779	-84.074	-0.227	-0.072
-160.764	-77.416	-0.100	0.035
-159.750	53.777	-0.059	-0.057
-158.735	800.000	0.103	0.372
-157.720	-12.429	-0.285	0.185
-156.706	-171.531	0.062	-0.002
-155.691	-76.295	-0.273	-0.096
-154.677	-200.000	0.002	-0.088
-153.662	246.164	0.113	0.190
-152.647	192.812	-0.110	-0.166
-151.633	-200.000	-0.006	0.219
-150.618	-14.332	0.079	0.051
-149.604	-55.929	-0.250	0.111
-148.589	-141.741	0.190	-0.019
-147.574	-73.707	0.237	0.086
-146.560	13.242	0.204	0.158
-145.545	-74.481	-0.399	0.143
-144.531	-177.408	-0.193	-0.005
-143.516	39.976	0.050	-0.045
-142.502	-200.000	0.011	-0.366
-141.487	125.808	-0.010	-0.012
-140.472	407.222	-0.094	0.197
-139.458	136.291	0.094	-0.122
-138.443	82.913	-0.051	0.056
-137.429	-134.434	0.220	0.027
-136.414	-200.000	-0.005	0.125
-135.399	20.686	0.181	0.146
-134.385	-106.593	0.145	0.032
-133.370	156.470	0.064	0.088
-132.356	135.715	0.294	0.382
-131.341	46.701	0.145	0.134
-130.326	-60.313	-0.076	-0.032
-129.312	800.000	-0.064	0.181
-128.297	-147.228	-0.379	0.032
-127.283	-92.361	-0.234	-0.066
-126.268	8.636	-0.149	0.111
-125.253	-105.288	0.105	-0.024
-124.239	242.226	0.211	-0.351
-123.224	-136.627	-0.048	-0.006
-122.210	559.617	-0.030	-0.072
-121.195	239.830	-0.040	-0.066
-120.180	800.000	-0.060	0.204
-119.166	127.387	-0.231	0.292
-118.151	-88.889	-0.235	0.069
-117.137	800.000	-0.128	0.364
-116.122	-200.000	0.017	0.349
-115.107	49.508	-0.097	0.091
-114.093	-179.931	-0.246	0.005
-113.078	-82.595	-0.054	0.017
-112.064	-123.010	0.165	0.026
-111.049	-131.187	-0.095	0.013
-110.034	29.645	0.135	-0.114
-109.020	93.225	0.104	-0.116
-108.005	222.678	-0.157	-0.252
-106.991	-200.000	0.047	0.239
-105.976	-135.604	0.183	-0.022
-104.962	-109.234	-0.374	0.079
-103.947	-14.066	-0.154	0.099
-102.932	-122.835	-0.078	0.013
-101.918	800.000	-0.037	-0.113
-100.903	245.587	0.114	-0.191
-99.889	-126.811	-0.124	0.018
-98.874	-200.000	-0.009	0.138
-97.859	110.384	-0.082	0.098
-96.845	249.131	-0.134	-0.226
-95.830	97.757	-0.112	-0.128
-94.816	-17.939	-0.048	-0.030
-93.801	172.686	0.151	-0.216
-92.786	95.269	-0.135	0.153
-91.772	-200.000	-0.003	-0.028
-90.757	800.000	0.102	-0.309
-89.743	-38.530	-0.346	0.182
-88.728	75.577	-0.023	0.024
-87.713	-181.705	0.138	-0.003
-86.699	-95.755	0.176	-0.047
-85.684	791.141	0.092	-0.252
-84.670	-117.190	0.280	-0.051
-83.655	30.305	0.203	-0.173
-82.640	-200.000	-0.027	-0.236
-81.626	19.817	0.084	0.067
-80.611	27.889	0.295	-0.247
-79.597	101.915	-0.126	0.146
-78.582	62.246	0.211	-0.209
-77.567	76.068	-0.131	-0.138
-76.553	-200.000	0.002	0.108
-75.538	-97.339	0.105	0.027
-74.524	-58.815	0.244	0.105
-73.509	-200.000	-0.003	0.206
-72.494	-107.642	0.165	0.036
-71.480	-56.615	-0.084	0.037
-70.465	26.489	0.060	0.050
-69.451	800.000	0.057	-0.193
-68.436	312.010	0.137	-0.256
-67.422	238.063	-0.063	-0.105
-66.407	-32.757	-0.171	0.094
-65.392	510.894	0.033	-0.076
-64.378	-200.000	0.002	0.070
-63.363	800.000	0.051	-0.145
-62.349	377.276	0.096	0.196
-61.334	96.869	-0.780	-0.888
-60.319	17.333	0.617	0.487
-59.305	800.000	-0.180	-0.654
-58.290	800.000	0.311	1.294
-57.276	800.000	0.447	1.478
-56.261	-200.000	86.123	507.431
-55.246	547.505	1380.774	3281.548
-54.232	179.741	2631.189	3826.913
-53.217	118.900	2256.556	2768.736
-52.203	48.617	1702.909	1584.678
-51.188	41.080	1431.738	1283.903
-50.173	37.656	1387.395	1222.634
-49.159	56.836	1428.501	1381.211
-48.144	61.308	1447.803	1428.248
-47.130	41.340	1406.713	1262.908
-46.115	37.766	1389.729	1225.188
-45.100	37.583	1384.756	1219.604
-44.086	37.488	1382.135	1216.659
-43.071	37.372	1380.379	1214.337
-42.057	37.440	1377.468	1212.150
-41.042	37.530	1375.631	1211.049
-40.027	37.592	1374.001	1209.953
-39.013	37.540	1372.804	1208.527
-37.998	37.454	1370.897	1206.262
-36.984	37.648	1368.996	1205.744
-35.969	37.686	1366.939	1204.120
-34.954	37.649	1365.207	1202.319
-33.940	37.693	1363.616	1201.144
-32.925	37.710	1362.614	1200.319
-31.911	37.704	1360.861	1198.685
-30.896	37.746	1359.615	1197.799
-29.881	37.727	1358.107	1196.310
-28.867	37.800	1355.984	1194.839
-27.852	37.748	1354.792	1193.425
-26.838	37.708	1353.333	1191.845
-25.823	37.671	1351.817	1190.238
-24.809	37.681	1350.938	1189.479
-23.794	37.762	1349.060	1188.272
-22.779	37.814	1347.622	1187.270
-21.765	37.805	1346.221	1185.937
-20.750	37.774	1344.419	1184.115
-19.736	37.621	1343.377	1182.218
-18.721	37.512	1342.630	1180.852
-17.706	37.511	1341.461	1179.771
-16.692	37.643	1339.925	1179.177
-15.677	37.578	1339.292	1178.178
-14.663	37.540	1337.625	1176.437
-13.648	37.642	1336.249	1175.790
-12.633	37.463	1335.870	1174.332
-11.619	37.453	1334.601	1173.112
-10.604	37.591	1333.587	1173.003
-9.590	37.530	1332.518	1171.649
-8.575	37.477	1331.710	1170.575
-7.560	37.581	1330.559	1170.141
-6.546	37.455	1329.977	1168.827
-5.531	37.578	1328.802	1168.484
-4.517	37.575	1328.038	1167.749
-3.502	37.646	1326.879	1167.112
-2.487	37.583	1325.892	1165.819
-1.473	37.568	1322.371	1162.586
-0.458	36.454	1307.104	1142.535
0.556	30.686	1288.045	1102.193
1.571	26.765	1292.542	1082.580
2.586	25.567	1308.203	1088.352
3.600	24.474	1297.338	1072.651
4.615	17.838	1219.079	970.257
5.629	6.047	1133.998	839.756
6.644	0.126	1109.202	790.290
7.659	-0.308	1105.945	785.630
8.673	-0.530	1104.717	783.528
9.688	-0.486	1103.450	782.789
10.702	-0.085	1102.050	783.818
11.717	6.187	1111.722	823.555
12.731	15.261	1124.946	881.172
13.746	16.768	1125.909	889.770
14.761	14.928	1122.766	877.565
15.775	14.395	1121.228	873.492
16.790	14.142	1120.248	871.322
17.804	13.944	1119.339	869.505
18.819	13.963	1119.052	869.306
19.834	13.769	1118.498	867.783
20.848	13.833	1117.407	867.195
21.863	13.732	1117.143	866.384
22.877	13.701	1116.108	865.340
23.892	13.621	1115.613	864.466
24.907	13.830	1114.469	864.591
25.921	13.766	1113.506	863.435
26.936	13.749	1111.906	862.030
27.950	13.824	1110.469	861.226
28.965	13.589	1108.531	858.432
29.980	13.744	1106.398	857.502
30.994	13.731	1105.768	856.874
32.009	13.782	1104.477	856.062
33.023	13.628	1103.058	854.093
34.038	13.689	1102.130	853.614
35.053	13.799	1101.099	853.305
36.067	13.939	1099.808	852.946
37.082	13.797	1099.314	851.757
38.096	13.952	1098.392	851.762
39.111	13.945	1097.601	851.038
40.126	13.972	1095.752	849.666
41.140	13.730	1094.085	847.064
42.155	13.667	1093.230	846.008
43.169	13.655	1092.007	844.925
44.184	13.662	1090.698	843.873
45.199	13.596	1089.770	842.744
46.213	13.643	1088.405	841.852
47.228	13.564	1086.877	840.195
48.242	13.616	1085.839	839.581
49.257	13.730	1084.881	839.344
50.271	13.699	1084.292	838.655
51.286	13.650	1083.304	837.574
52.301	13.722	1082.190	837.000
53.315	13.690	1081.108	835.928
54.330	13.746	1080.046	835.312
55.344	13.708	1078.790	834.079
56.359	13.756	1077.876	833.538
57.374	13.630	1077.065	832.203
58.388	13.611	1076.471	831.578
59.403	13.652	1074.886	830.485
60.417	13.536	1074.461	829.500
61.432	13.663	1073.606	829.405
62.447	13.635	1073.183	828.865
63.461	13.750	1071.821	828.315
64.476	13.733	1070.673	827.266
65.490	13.705	1070.083	826.597
66.505	13.742	1069.424	826.202
67.520	13.667	1068.703	825.195
68.534	13.633	1067.619	824.120
69.549	13.568	1066.742	823.047
70.563	13.651	1065.714	822.592
71.578	13.629	1065.575	822.302
72.593	13.650	1063.757	820.933
73.607	13.639	1063.951	820.951
74.622	13.697	1062.984	820.419
75.636	13.717	1061.761	819.505
76.651	13.665	1060.836	818.463
77.666	13.426	1060.604	817.028
78.680	13.618	1059.649	817.169
79.695	13.608	1059.268	816.752
80.709	13.720	1058.201	816.407
81.724	13.729	1057.131	815.554
82.739	13.680	1056.563	814.807
83.753	13.723	1055.281	813.953
84.768	13.691	1054.725	813.299
85.782	13.834	1053.243	812.783
86.797	13.750	1052.181	811.479
87.812	13.688	1051.366	810.479
88.826	13.793	1050.072	809.920
89.841	13.753	1049.422	809.152
90.855	13.719	1048.167	807.947
91.870	13.681	1047.284	807.011
92.884	13.760	1046.331	806.587
93.899	13.636	1045.625	805.369
94.914	13.819	1044.456	805.286
95.928	13.742	1043.243	803.908
96.943	13.717	1042.286	802.977
97.957	13.583	1041.021	801.285
98.972	13.399	1040.525	799.945
99.987	13.605	1039.440	800.033
101.001	13.676	1038.535	799.607
102.016	13.635	1038.036	798.952
103.030	13.531	1037.163	797.711
104.045	13.390	1035.950	796.029
105.060	13.408	1034.879	795.221
106.074	13.489	1034.321	795.112
107.089	13.779	1033.241	795.603
108.103	13.767	1032.459	794.871
109.118	13.679	1031.344	793.522
110.133	13.865	1030.148	793.419
111.147	13.676	1029.126	791.662
112.162	13.461	1028.307	789.935
113.176	13.729	1027.499	790.524
114.191	13.535	1026.608	788.845
115.206	13.534	1025.282	787.752
116.220	13.521	1024.126	786.728
117.235	13.706	1023.019	786.687
118.249	13.681	1022.603	786.181
119.264	13.735	1021.350	785.404
120.279	13.683	1020.555	784.474
121.293	13.728	1019.904	784.120
122.308	13.747	1019.151	783.562
123.322	13.743	1017.297	782.045
124.337	13.584	1016.336	780.491
125.352	13.428	1014.587	778.343
126.366	13.372	1013.113	776.881
127.381	13.723	1012.321	777.851
128.395	13.581	1012.024	776.889
129.410	13.815	1010.710	776.906
130.424	13.733	1009.353	775.413
131.439	13.802	1008.434	774.962
132.454	13.773	1007.609	774.124
133.468	13.752	1007.051	773.529
134.483	13.699	1006.018	772.417
135.497	13.874	1005.225	772.556
136.512	13.886	1003.931	771.549
137.527	13.857	1003.119	770.724
138.541	13.928	1001.967	770.099
139.556	13.878	1001.643	769.548
140.570	13.864	1000.321	768.398
141.585	13.973	998.840	767.697
142.600	13.713	998.390	766.081
143.614	13.880	997.299	765.951
144.629	13.899	996.425	765.299
145.643	13.667	996.033	763.858
146.658	13.734	994.651	763.042
147.673	13.719	993.687	762.165
148.687	13.742	992.644	761.403
149.702	13.792	991.621	760.783
150.716	13.626	990.881	759.387
151.731	13.757	990.044	759.276
152.746	13.902	989.248	759.261
153.760	13.773	988.748	758.219
154.775	13.855	987.638	757.675
155.789	13.722	987.176	756.650
156.804	13.783	986.111	756.045
157.819	13.851	985.451	755.780
158.833	13.878	984.167	754.852
159.848	13.907	983.003	754.023
160.862	13.795	982.461	753.034
161.877	13.896	981.299	752.533
162.892	13.690	981.206	751.462
163.906	13.865	979.474	750.859
164.921	13.885	978.657	750.260
165.935	13.934	977.327	749.391
166.950	13.792	976.297	747.899
167.964	13.952	975.611	748.025
168.979	13.802	974.740	746.618
169.994	13.824	973.964	746.054
171.008	13.853	972.641	745.105
172.023	13.870	971.512	744.252
173.037	13.697	971.163	743.144
174.052	13.714	969.710	742.041
175.067	13.668	969.425	741.551
176.081	13.860	968.917	741.954
177.096	13.853	968.367	741.437
178.110	13.724	967.526	740.153
179.125	13.754	966.630	739.535
180.140	13.692	966.277	738.925
181.154	13.876	965.639	739.191
182.169	13.738	964.949	737.985
183.183	13.961	964.526	738.587
184.198	13.972	963.382	737.693
185.213	13.920	962.701	736.875
186.227	14.058	961.865	736.783
187.242	13.861	961.762	735.764
188.256	13.803	960.758	734.675
189.271	13.889	959.894	734.328
190.286	13.775	958.746	732.884
191.300	13.822	957.911	732.385
192.315	13.534	957.579	730.799
193.329	13.440	956.773	729.702
194.344	13.761	956.360	730.739
195.359	13.792	955.789	730.376
196.373	13.833	954.645	729.614
197.388	13.652	954.165	728.390
198.402	13.766	953.229	728.111
199.417	13.730	952.616	727.421
200.432	13.595	951.545	725.945
201.446	13.675	950.839	725.695
202.461	13.642	950.526	725.246
203.475	13.379	949.813	723.487
204.490	13.236	948.322	721.662
205.504	13.457	948.271	722.527
206.519	13.738	947.141	722.827
207.534	13.711	946.973	722.514
208.548	13.810	946.724	722.695
209.563	13.917	945.436	722.113
210.577	13.818	944.928	721.229
211.592	13.858	943.931	720.578
212.607	13.844	943.046	719.777
213.621	13.889	942.154	719.226
214.636	13.978	941.689	719.195
215.650	13.936	940.945	718.380
216.665	13.952	940.110	717.749
217.680	13.953	939.535	717.250
218.694	13.802	937.942	715.320
219.709	13.748	937.526	714.706
220.723	13.928	936.885	714.930
221.738	13.901	936.092	714.147
222.753	13.927	935.734	713.923
223.767	13.867	935.152	713.155
224.782	14.029	934.507	713.297
225.796	14.034	933.918	712.806
226.811	13.837	932.928	711.142
227.826	13.652	931.686	709.343
228.840	13.793	930.550	709.016
229.855	13.768	929.990	708.419
230.869	13.696	928.936	707.247
231.884	13.830	928.539	707.455
232.899	14.136	927.510	707.912
233.913	14.008	927.123	707.007
234.928	14.113	926.487	706.908
235.942	14.029	926.129	706.215
236.957	13.843	925.370	704.785
237.972	14.083	924.130	704.795
238.986	13.916	923.968	703.900
240.001	13.861	923.542	703.279
241.015	14.040	922.360	703.073
242.030	14.068	921.893	702.776
243.045	14.113	921.392	702.520
244.059	14.034	920.266	701.267
245.074	14.051	919.600	700.768
246.088	13.816	918.621	698.972
247.103	13.993	917.430	698.749
248.117	14.084	917.537	699.152
249.132	14.120	916.966	698.806
250.147	14.099	915.718	697.703
251.161	14.208	915.297	697.778
252.176	14.133	914.451	696.757
253.190	14.284	913.660	696.724
254.205	14.273	913.266	696.316
255.220	14.325	912.345	695.771
256.234	14.345	911.568	695.199
257.249	14.283	910.785	694.283
258.263	14.382	909.747	693.841
259.278	14.377	909.143	693.301
260.293	14.274	908.737	692.498
261.307	14.185	908.188	691.652
262.322	14.233	907.047	690.918
263.336	14.051	905.879	689.213
264.351	13.782	905.308	687.604
265.366	13.948	904.420	687.557
266.380	14.162	904.058	688.106
267.395	14.266	903.305	687.901
268.409	14.160	902.537	686.818
269.424	14.228	902.115	686.718
270.439	14.368	901.012	686.392
271.453	14.398	900.626	686.160
272.468	14.426	900.065	685.790
273.482	14.525	899.373	685.606
274.497	14.340	898.358	684.012
275.512	14.235	897.614	682.954
276.526	14.383	897.448	683.375
277.541	14.342	896.495	682.422
278.555	14.236	895.649	681.284
279.570	14.215	894.821	680.506
280.585	14.307	894.042	680.233
281.599	14.364	893.457	679.958
282.614	14.281	892.567	678.882
283.628	14.296	891.909	678.385
284.643	14.223	891.657	677.833
285.657	14.195	890.523	676.800
286.672	14.130	889.831	675.947
287.687	14.319	889.051	676.064
288.701	14.272	888.907	675.705
289.716	14.157	888.428	674.812
290.730	14.061	887.734	673.835
291.745	14.144	886.726	673.347
292.760	14.263	886.145	673.327
293.774	14.467	885.885	673.896
294.789	14.644	884.854	673.766
295.803	14.844	884.258	674.059
296.818	14.707	883.753	673.062
297.833	14.637	882.960	672.119
298.847	14.287	882.555	670.341
299.862	14.635	881.558	670.925
300.876	14.583	881.200	670.382
301.891	14.690	880.177	669.975
302.906	14.460	879.899	668.783
303.920	14.452	878.966	667.983
304.935	14.513	878.364	667.709
305.949	14.703	877.470	667.728
306.964	14.511	877.151	666.663
307.979	14.665	876.790	666.944
308.993	14.818	875.454	666.478
310.008	14.816	875.132	666.164
311.022	14.589	874.902	665.027
312.037	14.538	874.001	664.078
313.052	14.622	873.851	664.241
314.066	14.452	872.691	662.626
315.081	14.366	872.211	661.862
316.095	14.589	871.812	662.384
317.110	14.900	870.403	662.488
318.125	14.483	870.460	660.819
319.139	14.493	869.274	659.902
320.154	14.450	869.327	659.713
321.168	14.603	868.905	659.941
322.183	14.599	868.626	659.652
323.197	14.688	867.795	659.316
324.212	14.976	867.332	660.042
325.227	14.858	866.685	659.026
326.241	14.824	866.202	658.465
327.256	14.985	865.149	658.241
328.270	14.793	865.057	657.358
329.285	14.799	864.011	656.527
330.300	14.739	863.767	656.049
331.314	14.937	862.715	655.970
332.329	14.888	862.516	655.568
333.343	14.779	862.195	654.837
334.358	14.764	861.357	654.085
335.373	14.846	860.980	654.062
336.387	14.950	860.918	654.361
337.402	14.933	860.661	654.042
338.416	14.854	860.373	653.458
339.431	15.031	859.317	653.287
340.446	14.970	858.682	652.512
341.460	14.785	858.762	651.791
342.475	14.759	857.700	650.828
343.489	14.812	857.551	650.864
344.504	14.987	857.208	651.225
345.519	14.946	856.402	650.398
346.533	15.121	856.038	650.744
347.548	15.121	855.495	650.272
348.562	15.051	854.782	649.399
349.577	15.144	854.218	649.276
350.592	15.163	854.131	649.226
351.606	15.176	853.093	648.431
352.621	15.177	852.231	647.720
353.635	14.968	851.668	646.429
354.650	14.996	850.422	645.535
355.665	14.819	849.980	644.457
356.679	14.687	849.606	643.609
357.694	14.778	849.017	643.456
358.708	14.872	848.238	643.170
359.723	15.072	847.691	643.466
360.738	15.274	847.297	643.889
361.752	15.254	846.578	643.208
362.767	15.399	845.945	643.224
363.781	15.367	845.105	642.407
364.796	15.415	844.584	642.139
365.810	15.214	844.159	640.990
366.825	15.297	844.045	641.163
367.840	15.247	843.574	640.560
368.854	15.096	842.889	639.404
369.869	15.153	842.368	639.169
370.883	15.169	841.902	638.821
371.898	15.052	841.354	637.904
372.913	14.957	841.125	637.312
373.927	15.147	840.646	637.615
374.942	15.320	840.011	637.734
375.956	15.343	839.842	637.639
376.971	15.370	838.947	637.003
377.986	15.489	838.168	636.806
379.000	15.363	837.998	636.143
380.015	15.329	837.345	635.463
381.029	15.327	836.645	634.868
382.044	15.340	835.935	634.324
383.059	15.305	835.619	633.895
384.073	15.378	835.206	633.803
385.088	15.420	834.980	633.731
386.102	15.471	834.402	633.430
387.117	15.644	833.584	633.403
388.132	15.472	832.478	631.860
389.146	15.288	832.074	630.804
390.161	15.107	831.518	629.650
391.175	15.299	831.178	630.056
392.190	15.210	830.527	629.172
393.205	15.188	829.956	628.603
394.219	15.289	829.988	628.949
395.234	15.421	829.266	628.842
396.248	15.308	829.234	628.337
397.263	15.414	829.071	628.558
398.278	15.685	828.428	629.028
399.292	15.686	828.102	628.726
400.307	15.822	827.453	628.687
401.321	15.654	826.871	627.563
402.336	15.685	826.281	627.175
403.350	15.675	825.429	626.434
404.365	15.477	825.505	625.700
405.380	15.668	824.832	625.844
406.394	15.743	823.516	625.071
407.409	15.688	823.647	624.909
408.423	15.660	823.191	624.405
409.438	15.764	822.595	624.282
410.453	15.808	822.436	624.270
411.467	15.887	822.097	624.252
412.482	15.980	821.546	624.121
413.496	15.808	821.468	623.370
414.511	15.839	820.951	623.036
415.526	15.969	819.929	622.687
416.540	15.880	819.428	621.921
417.555	15.731	818.887	620.906
418.569	15.618	818.944	620.477
419.584	15.675	818.282	620.132
420.599	15.511	818.205	619.413
421.613	150.542	1359.212	1779.509
422.628	131.132	1438.030	1779.598
