DTS Sentinel unit serial number:	SN413079Multiplexer serial number:	ORYXHardware model number:	OX4-SRSoftware version number:	ORYX F/W v4.00 Oryx Data Collector v3.7.2.0data status	okinstallation	princeton_trtdifferential loss correction	single-endedforward channel	channel 1reverse channel	N/Adate	2019/09/12time	11:04:11forward acquisition time	60.00reverse acquisition time	0.00gamma	496.2192k internal	0.2295k external	0.2295temperature offset calibration	1.0050default loss term (dB/km)	0.3790temperature slope calibration	1.0000multiplexer offset coefficient	1.0000multiplexer slope coefficient	1.0000fibre end	0.00T internal ref (°C)	38.56T ext. ref 1 (°C)	1.96T ext. ref 2 (°C)	35.78length (m)	temperature (°C)	Stokes	anti-Stokes-747.200	-200.000	0.042	0.288
-746.185	-65.449	0.391	0.161
-745.171	-105.493	0.166	-0.039
-744.156	-200.000	-0.007	0.177
-743.142	-200.000	-0.044	0.328
-742.127	-200.000	-0.038	0.376
-741.112	-104.159	0.286	-0.068
-740.098	-106.889	-0.411	-0.093
-739.083	109.233	-0.163	-0.200
-738.069	-13.546	0.441	0.292
-737.054	-200.000	0.028	0.204
-736.039	318.140	0.109	0.211
-735.025	800.000	0.071	-0.278
-734.010	-42.297	0.276	0.144
-732.996	-43.136	-0.262	-0.136
-731.981	47.201	-0.227	-0.216
-730.966	-135.538	0.193	0.023
-729.952	220.129	-0.074	-0.120
-728.937	-64.509	-0.222	-0.092
-727.923	800.000	-0.052	-0.158
-726.908	218.450	0.351	-0.572
-725.894	800.000	-0.042	-0.169
-724.879	38.740	-0.212	-0.193
-723.864	19.652	0.188	-0.155
-722.850	-200.000	-0.057	-0.300
-721.835	150.680	0.180	-0.249
-720.821	118.544	-0.219	0.276
-719.806	-152.000	0.116	-0.009
-718.791	588.067	-0.088	-0.220
-717.777	6.781	0.338	-0.257
-716.762	-83.705	-0.113	0.037
-715.748	-49.072	-0.180	-0.088
-714.733	-80.754	-0.213	-0.072
-713.718	-40.115	0.221	-0.118
-712.704	-151.107	-0.112	0.009
-711.689	65.068	0.142	0.146
-710.675	-200.000	0.032	-0.324
-709.660	-200.000	0.036	0.275
-708.645	800.000	0.053	0.211
-707.631	354.168	0.015	0.030
-706.616	245.375	-0.104	0.179
-705.602	-181.934	0.215	-0.004
-704.587	29.517	-0.247	0.214
-703.572	-200.000	0.020	-0.101
-702.558	-200.000	0.031	0.153
-701.543	85.974	0.051	-0.057
-700.529	800.000	-0.035	-0.119
-699.514	-98.402	0.167	0.044
-698.499	-41.342	0.084	0.044
-697.485	49.948	-0.079	0.076
-696.470	172.884	0.162	0.238
-695.456	122.939	0.088	0.113
-694.441	-126.510	0.340	0.052
-693.426	800.000	0.012	-0.048
-692.412	53.579	-0.279	-0.273
-691.397	-54.896	-0.158	0.073
-690.383	22.560	-0.127	-0.106
-689.368	-124.364	0.160	-0.025
-688.354	197.435	-0.144	0.224
-687.339	493.779	0.124	-0.289
-686.324	-200.000	-0.073	-0.371
-685.310	-200.000	-0.076	0.373
-684.295	800.000	-0.051	0.166
-683.281	-160.966	0.167	-0.009
-682.266	-60.694	-0.319	-0.138
-681.251	16.832	-0.135	0.109
-680.237	494.389	0.062	-0.146
-679.222	43.438	-0.100	0.093
-678.208	280.674	-0.031	-0.057
-677.193	334.405	0.024	0.047
-676.178	227.655	-0.012	0.020
-675.164	800.000	0.031	-0.110
-674.149	4.581	-0.172	0.129
-673.135	-200.000	-0.024	-0.291
-672.120	569.507	-0.085	-0.211
-671.105	87.193	0.182	0.205
-670.091	-130.455	-0.402	-0.055
-669.076	92.099	-0.063	-0.072
-668.062	19.345	-0.079	-0.064
-667.047	-18.264	0.134	0.085
-666.032	570.483	0.040	0.099
-665.018	501.946	0.135	0.318
-664.003	-200.000	-0.050	-0.234
-662.989	5.475	-0.098	-0.074
-661.974	-36.972	-0.395	-0.216
-660.959	25.995	0.112	0.095
-659.945	-200.000	-0.010	-0.151
-658.930	800.000	0.047	-0.183
-657.916	-4.807	-0.415	-0.292
-656.901	185.060	-0.047	0.071
-655.886	172.704	0.019	-0.028
-654.872	97.527	-0.183	0.214
-653.857	-200.000	-0.020	-0.121
-652.843	800.000	0.046	-0.152
-651.828	96.263	-0.146	0.170
-650.814	800.000	0.056	-0.212
-649.799	346.418	-0.034	-0.068
-648.784	800.000	0.105	-0.322
-647.770	5.981	0.191	0.144
-646.755	-81.972	-0.111	0.037
-645.741	168.751	0.150	0.218
-644.726	-4.916	-0.243	0.171
-643.711	-136.687	0.185	0.022
-642.697	-15.524	0.072	0.047
-641.682	218.097	-0.040	0.065
-640.668	547.833	-0.035	-0.085
-639.653	-200.000	0.024	-0.162
-638.638	411.509	0.110	0.237
-637.624	78.704	-0.049	-0.053
-636.609	-108.052	0.422	0.093
-635.595	-200.000	-0.007	0.368
-634.580	800.000	0.035	0.114
-633.565	16.054	0.148	0.119
-632.551	-162.543	0.083	0.004
-631.536	45.596	0.128	0.121
-630.522	-200.000	-0.028	-0.129
-629.507	800.000	-0.075	-0.211
-628.492	-59.922	0.236	-0.103
-627.478	-200.000	-0.014	-0.090
-626.463	-200.000	0.012	-0.129
-625.449	111.378	-0.152	-0.187
-624.434	589.881	-0.038	0.095
-623.419	-12.562	-0.260	-0.173
-622.405	800.000	-0.023	0.099
-621.390	-200.000	-0.044	0.214
-620.376	415.639	-0.051	0.111
-619.361	-97.366	-0.174	-0.046
-618.346	-84.904	-0.094	-0.030
-617.332	213.066	0.027	-0.043
-616.317	-59.968	0.288	0.125
-615.303	-200.000	-0.038	0.230
-614.288	-129.009	0.213	0.030
-613.273	36.045	-0.181	-0.162
-612.259	35.421	0.278	-0.248
-611.244	44.244	-0.170	0.158
-610.230	-125.742	0.022	0.003
-609.215	-89.307	-0.248	0.074
-608.201	800.000	0.054	-0.233
-607.186	800.000	-0.085	-0.356
-606.171	-79.939	-0.457	-0.156
-605.157	235.116	0.125	-0.209
-604.142	-103.539	0.169	-0.040
-603.128	-200.000	-0.002	-0.113
-602.113	-19.010	-0.193	0.122
-601.098	-200.000	-0.060	0.282
-600.084	72.151	0.206	0.218
-599.069	-93.284	-0.174	0.049
-598.055	-200.000	-0.001	0.208
-597.040	48.090	0.077	0.073
-596.025	19.019	0.223	-0.182
-595.011	53.023	-0.065	-0.063
-593.996	405.050	-0.052	-0.110
-592.982	800.000	0.070	-0.229
-591.967	245.997	0.051	-0.086
-590.952	-98.818	0.406	-0.105
-589.938	-77.758	-0.310	0.109
-588.923	-25.385	-0.300	-0.180
-587.909	-190.500	-0.109	-0.001
-586.894	-197.353	-0.227	0.001
-585.879	-93.739	-0.297	0.083
-584.865	20.831	0.155	-0.127
-583.850	-200.000	-0.004	0.158
-582.836	-153.528	0.156	0.011
-581.821	-168.110	-0.240	0.009
-580.806	800.000	0.051	-0.153
-579.792	800.000	-0.125	-0.396
-578.777	-76.858	0.077	-0.027
-577.763	11.566	-0.123	0.096
-576.748	532.239	0.059	0.141
-575.733	-200.000	0.033	-0.327
-574.719	-13.834	-0.281	0.185
-573.704	-135.019	0.189	0.023
-572.690	-69.207	0.242	-0.094
-571.675	282.194	-0.158	0.287
-570.661	-119.696	-0.075	-0.013
-569.646	430.126	0.035	0.076
-568.631	-113.743	-0.100	0.020
-567.617	376.773	-0.099	-0.204
-566.602	800.000	0.013	-0.041
-565.588	800.000	0.070	0.197
-564.573	-124.644	-0.193	0.030
-563.558	800.000	0.096	0.346
-562.544	-160.821	0.271	0.015
-561.529	63.420	-0.200	-0.204
-560.515	-104.436	-0.083	0.020
-559.500	-97.627	0.300	-0.079
-558.485	-200.000	-0.002	-0.279
-557.471	-45.469	-0.217	-0.109
-556.456	-11.758	0.202	-0.134
-555.442	-200.000	0.048	-0.412
-554.427	-58.789	-0.209	-0.092
-553.412	-0.777	0.361	0.259
-552.398	56.527	0.061	-0.060
-551.383	-71.997	0.089	0.034
-550.369	-200.000	-0.009	-0.176
-549.354	-55.121	0.106	0.048
-548.339	-52.221	0.043	0.020
-547.325	-36.899	-0.186	0.101
-546.310	800.000	-0.066	0.220
-545.296	-200.000	-0.048	-0.239
-544.281	115.011	-0.317	-0.392
-543.266	800.000	0.106	-0.376
-542.252	-200.000	-0.021	0.255
-541.237	-200.000	0.048	-0.363
-540.223	-200.000	0.004	0.017
-539.208	24.360	0.201	0.168
-538.193	-200.000	-0.038	0.284
-537.179	444.294	-0.039	-0.087
-536.164	-200.000	0.014	0.273
-535.150	-200.000	0.006	0.121
-534.135	146.298	-0.099	-0.134
-533.121	553.200	0.124	0.303
-532.106	-141.171	0.128	-0.013
-531.091	-100.497	0.220	0.055
-530.077	-200.000	0.117	-0.554
-529.062	10.687	-0.222	-0.171
-528.048	398.937	0.096	-0.203
-527.033	-42.990	-0.267	0.137
-526.018	-16.426	-0.243	-0.156
-525.004	-88.268	0.192	-0.058
-523.989	-154.516	-0.557	-0.038
-522.975	180.332	-0.130	0.194
-521.960	-31.195	-0.087	0.050
-520.945	-18.462	0.027	0.017
-519.931	-68.965	0.231	-0.090
-518.916	-142.537	-0.368	-0.037
-517.902	-200.000	0.010	-0.360
-516.887	169.781	0.086	0.124
-515.872	623.303	0.046	0.117
-514.858	-200.000	-0.056	0.405
-513.843	800.000	0.069	-0.193
-512.829	333.183	-0.203	-0.397
-511.814	-30.688	0.195	-0.112
-510.799	800.000	0.073	-0.308
-509.785	-41.311	0.345	0.180
-508.770	-32.586	0.296	-0.167
-507.756	-115.110	0.167	-0.032
-506.741	-117.430	0.254	-0.046
-505.726	-48.131	0.367	0.179
-504.712	-200.000	0.031	0.171
-503.697	-164.091	-0.440	0.021
-502.683	-57.325	-0.087	0.039
-501.668	113.325	0.203	0.249
-500.653	-154.521	-0.079	0.005
-499.639	-14.327	-0.173	-0.113
-498.624	-91.923	0.319	-0.092
-497.610	-147.028	-0.129	-0.011
-496.595	-8.643	0.099	0.067
-495.581	-149.528	-0.128	-0.010
-494.566	-104.385	-0.089	-0.021
-493.551	-81.395	-0.228	-0.076
-492.537	800.000	-0.030	-0.125
-491.522	-73.518	-0.228	0.084
-490.508	-93.659	0.232	0.065
-489.493	-200.000	0.031	0.230
-488.478	-19.824	-0.361	-0.225
-487.464	-21.994	-0.093	-0.057
-486.449	25.404	0.290	-0.244
-485.435	-138.585	-0.264	-0.029
-484.420	-116.094	0.092	0.017
-483.405	-106.436	0.197	0.045
-482.391	-152.691	-0.119	0.009
-481.376	0.506	0.143	0.103
-480.362	-200.000	-0.051	0.273
-479.347	-75.146	0.115	0.042
-478.332	-149.497	0.182	-0.015
-477.318	-92.385	-0.188	-0.054
-476.303	132.630	0.176	0.230
-475.289	-107.398	0.264	-0.059
-474.274	-168.001	0.090	0.004
-473.259	-40.473	0.182	0.096
-472.245	228.811	0.078	-0.128
-471.230	-46.116	-0.140	0.070
-470.216	357.835	-0.116	0.235
-469.201	800.000	0.053	-0.190
-468.186	-71.213	-0.176	-0.067
-467.172	158.110	-0.052	-0.074
-466.157	-200.000	0.010	-0.198
-465.143	154.218	0.106	0.147
-464.128	800.000	0.058	0.234
-463.113	-143.848	-0.276	-0.026
-462.099	-200.000	-0.060	0.290
-461.084	-161.406	0.278	0.015
-460.070	576.398	-0.069	-0.171
-459.055	-44.892	-0.227	-0.114
-458.040	-34.791	-0.230	0.127
-457.026	630.512	0.025	0.063
-456.011	800.000	-0.065	-0.255
-454.997	391.891	0.038	-0.081
-453.982	-16.264	-0.206	0.132
-452.968	-200.000	0.017	0.095
-451.953	-19.693	-0.076	-0.047
-450.938	-200.000	-0.017	-0.104
-449.924	-55.033	-0.158	-0.072
-448.909	-69.506	-0.167	-0.065
-447.895	-85.568	-0.079	-0.025
-446.880	6.941	-0.112	0.084
-445.865	39.645	0.122	-0.110
-444.851	-72.252	0.388	0.145
-443.836	-178.344	0.258	0.006
-442.822	52.185	-0.174	0.168
-441.807	-60.409	-0.220	-0.094
-440.792	-200.000	0.039	0.176
-439.778	36.254	-0.244	-0.217
-438.763	427.161	-0.146	-0.318
-437.749	41.204	0.126	-0.115
-436.734	-124.205	0.287	0.045
-435.719	-200.000	0.047	-0.494
-434.705	-44.478	-0.161	-0.081
-433.690	-68.852	-0.354	0.138
-432.676	-98.774	-0.047	0.012
-431.661	152.202	-0.092	0.126
-430.646	89.106	0.247	0.278
-429.632	-0.122	0.260	0.187
-428.617	-200.000	0.031	-0.314
-427.603	761.655	-0.041	-0.111
-426.588	19.505	0.108	-0.088
-425.573	-31.575	0.154	0.087
-424.559	800.000	-0.013	0.049
-423.544	-200.000	0.010	-0.443
-422.530	513.023	0.056	-0.132
-421.515	420.987	-0.067	-0.146
-420.500	-200.000	-0.044	0.238
-419.486	0.240	0.098	-0.070
-418.471	81.699	0.044	0.048
-417.457	-200.000	0.073	0.385
-416.442	-55.987	0.339	-0.152
-415.428	142.452	-0.217	-0.290
-414.413	-140.410	-0.140	-0.015
-413.398	-117.502	-0.184	0.034
-412.384	786.635	-0.067	0.186
-411.369	-114.275	-0.121	0.024
-410.355	524.624	0.234	-0.555
-409.340	800.000	0.032	-0.119
-408.325	94.333	-0.227	-0.260
-407.311	7.100	0.129	-0.097
-406.296	-200.000	-0.025	0.211
-405.282	150.999	-0.106	0.145
-404.267	2.664	-0.127	0.093
-403.252	-86.655	0.046	-0.014
-402.238	-103.788	-0.236	0.056
-401.223	-147.732	0.135	0.011
-400.209	71.313	0.037	-0.039
-399.194	-200.000	-0.013	0.078
-398.179	800.000	-0.027	-0.088
-397.165	-12.004	-0.104	-0.069
-396.150	-57.468	0.179	0.079
-395.136	172.874	0.168	0.244
-394.121	-118.478	-0.075	0.013
-393.106	290.233	0.032	-0.058
-392.092	9.910	0.219	0.168
-391.077	-200.000	0.024	0.307
-390.063	41.531	-0.245	0.224
-389.048	-200.000	0.021	-0.099
-388.033	-51.444	-0.225	-0.106
-387.019	305.136	-0.100	0.187
-386.004	45.373	0.074	0.069
-384.990	-12.928	-0.244	0.160
-383.975	-38.584	-0.232	0.124
-382.960	84.878	0.081	-0.090
-381.946	-200.000	0.499	-0.000
-380.931	-200.000	-0.032	0.193
-379.917	-109.629	-0.076	0.016
-378.902	0.324	0.236	0.170
-377.888	-200.000	0.015	-0.120
-376.873	183.567	-0.056	0.083
-375.858	-34.642	-0.375	0.207
-374.844	-69.289	-0.231	0.090
-373.829	-46.946	-0.159	-0.078
-372.815	442.154	-0.029	0.064
-371.800	223.236	0.147	-0.238
-370.785	3.437	0.046	-0.034
-369.771	-69.295	-0.103	-0.040
-368.756	53.605	-0.070	-0.068
-367.742	-62.935	0.178	0.074
-366.727	-200.000	-0.013	0.079
-365.712	-7.996	0.259	0.176
-364.698	66.459	-0.241	-0.247
-363.683	62.744	-0.167	-0.168
-362.669	110.267	-0.276	0.334
-361.654	-46.348	-0.183	-0.090
-360.639	73.171	0.081	0.086
-359.625	756.997	-0.078	-0.211
-358.610	205.113	-0.135	-0.211
-357.596	-8.633	-0.163	-0.110
-356.581	-162.950	0.140	-0.007
-355.566	-37.503	-0.298	0.160
-354.552	246.600	0.048	-0.081
-353.537	800.000	0.044	-0.145
-352.523	602.218	-0.100	-0.251
-351.508	-200.000	0.011	0.197
-350.493	-200.000	-0.001	-0.238
-349.479	110.274	0.134	0.162
-348.464	-28.594	0.096	0.056
-347.450	800.000	0.056	-0.157
-346.435	177.433	0.309	0.453
-345.420	252.798	0.051	0.087
-344.406	11.926	-0.103	-0.079
-343.391	-97.402	0.038	-0.010
-342.377	31.756	-0.053	-0.046
-341.362	-151.153	0.320	0.024
-340.348	-143.034	-0.238	0.023
-339.333	60.669	-0.072	0.072
-338.318	-53.576	0.414	0.191
-337.304	-20.946	0.032	0.020
-336.289	0.916	0.220	0.158
-335.275	-43.424	0.097	-0.049
-334.260	310.606	-0.060	0.113
-333.245	-200.000	-0.009	0.152
-332.231	79.535	0.047	-0.051
-331.216	-200.000	-0.003	-0.097
-330.202	-18.994	-0.181	0.113
-329.187	-12.621	0.195	0.128
-328.172	617.957	0.176	0.445
-327.158	-142.775	-0.266	0.026
-326.143	-200.000	0.026	0.129
-325.129	-118.214	-0.158	0.028
-324.114	268.972	0.228	-0.403
-323.099	-34.225	-0.067	-0.037
-322.085	-187.653	0.292	-0.004
-321.070	791.976	-0.026	-0.071
-320.056	289.129	-0.157	-0.286
-319.041	143.685	-0.085	0.113
-318.026	92.055	0.138	0.157
-317.012	800.000	0.073	-0.316
-315.997	-200.000	0.041	-0.246
-314.983	-200.000	-0.011	-0.313
-313.968	-20.377	0.094	-0.058
-312.953	-127.425	-0.172	0.025
-311.939	182.400	0.046	0.068
-310.924	358.821	0.119	0.239
-309.910	-147.535	0.158	0.013
-308.895	195.943	-0.160	-0.244
-307.880	-36.489	0.131	-0.071
-306.866	-200.000	-0.018	-0.292
-305.851	-200.000	-0.000	-0.086
-304.837	-200.000	-0.001	-0.129
-303.822	41.045	0.048	0.044
-302.807	48.990	-0.205	0.194
-301.793	-200.000	0.004	-0.065
-300.778	-139.002	-0.266	0.029
-299.764	145.207	-0.127	-0.170
-298.749	-200.000	-0.039	-0.194
-297.735	-93.448	-0.329	0.092
-296.720	49.437	0.150	-0.142
-295.705	800.000	-0.080	0.337
-294.691	-200.000	-0.006	0.026
-293.676	-200.000	0.013	0.085
-292.662	-41.417	0.306	0.158
-291.647	63.021	0.378	0.380
-290.632	-60.670	0.087	-0.037
-289.618	100.707	-0.133	-0.155
-288.603	-171.802	0.293	0.010
-287.589	-23.811	0.173	-0.104
-286.574	-99.206	0.262	0.066
-285.559	800.000	-0.065	0.233
-284.545	-90.233	-0.097	0.028
-283.530	-6.184	-0.014	-0.010
-282.516	233.238	0.207	0.341
-281.501	35.296	-0.025	0.022
-280.486	-200.000	-0.030	0.309
-279.472	37.470	-0.295	0.262
-278.457	21.024	-0.067	0.055
-277.443	-2.507	-0.095	0.067
-276.428	523.960	0.023	0.055
-275.413	-9.167	0.382	-0.256
-274.399	39.029	0.118	0.106
-273.384	-110.301	-0.275	0.057
-272.370	-200.000	0.018	0.189
-271.355	800.000	-0.100	0.370
-270.340	-129.425	-0.086	0.012
-269.326	-81.927	0.075	-0.025
-268.311	148.278	-0.049	-0.066
-267.297	535.830	-0.072	-0.170
-266.282	-96.714	0.203	0.054
-265.267	-53.289	-0.230	0.106
-264.253	40.935	-0.055	-0.050
-263.238	102.555	0.119	-0.140
-262.224	24.964	-0.255	0.212
-261.209	576.875	0.128	-0.314
-260.195	681.690	-0.072	0.189
-259.180	198.611	0.117	-0.180
-258.165	-54.764	-0.251	-0.114
-257.151	-149.125	-0.181	-0.015
-256.136	-29.223	0.139	0.080
-255.122	14.127	0.136	-0.106
-254.107	-200.000	-0.005	-0.079
-253.092	-10.730	-0.227	-0.150
-252.078	-94.211	0.268	-0.074
-251.063	-200.000	-0.020	-0.174
-250.049	-109.178	0.087	0.019
-249.034	129.295	0.071	0.091
-248.019	-127.229	-0.386	0.057
-247.005	69.227	0.135	-0.139
-245.990	-74.421	-0.070	0.025
-244.976	-200.000	0.008	0.229
-243.961	-3.964	0.213	-0.148
-242.946	-35.878	0.218	0.119
-241.932	497.570	-0.090	0.207
-240.917	48.721	0.101	0.095
-239.903	37.025	0.080	0.071
-238.888	508.140	0.095	-0.221
-237.873	-25.628	0.234	-0.138
-236.859	-79.383	-0.024	0.008
-235.844	6.150	0.331	0.246
-234.830	-40.558	-0.224	0.116
-233.815	-200.000	-0.022	-0.183
-232.800	51.375	-0.086	0.081
-231.786	106.784	-0.161	0.192
-230.771	-200.000	-0.002	0.146
-229.757	800.000	-0.082	0.272
-228.742	134.022	0.052	-0.068
-227.727	-61.936	0.169	-0.071
-226.713	800.000	-0.034	0.127
-225.698	-200.000	-0.017	-0.268
-224.684	-90.992	-0.231	0.067
-223.669	-66.083	-0.024	-0.010
-222.655	-64.156	-0.104	-0.043
-221.640	-10.281	-0.177	0.118
-220.625	800.000	-0.054	-0.179
-219.611	-200.000	-0.020	0.120
-218.596	-34.216	-0.301	0.165
-217.582	-153.029	0.220	-0.015
-216.567	-91.059	0.158	0.045
-215.552	-200.000	-0.059	-0.297
-214.538	445.814	-0.078	-0.172
-213.523	-132.406	-0.229	-0.030
-212.509	54.382	0.191	0.184
-211.494	-41.402	0.187	-0.096
-210.479	-200.000	0.029	0.195
-209.465	49.338	0.203	0.191
-208.450	40.627	0.144	-0.130
-207.436	32.008	-0.271	-0.234
-206.421	-200.000	-0.007	-0.034
-205.406	335.845	0.158	0.308
-204.392	-19.481	-0.148	-0.092
-203.377	56.817	0.268	0.261
-202.363	361.732	-0.140	-0.282
-201.348	-109.835	-0.268	0.056
-200.333	-66.373	0.182	0.072
-199.319	137.542	0.130	0.170
-198.304	199.650	-0.035	-0.054
-197.290	45.832	-0.230	-0.213
-196.275	-200.000	-0.011	-0.054
-195.260	60.659	-0.205	-0.203
-194.246	800.000	-0.079	0.329
-193.231	14.388	0.333	0.260
-192.217	-11.218	-0.261	-0.172
-191.202	800.000	0.068	0.240
-190.187	115.027	-0.135	-0.165
-189.173	-82.492	0.229	0.074
-188.158	87.829	-0.168	-0.186
-187.144	-82.850	0.347	0.112
-186.129	-102.160	0.377	0.091
-185.114	-133.529	0.221	-0.028
-184.100	415.318	0.088	0.188
-183.085	-38.644	0.058	-0.030
-182.071	74.248	-0.125	0.131
-181.056	11.892	-0.247	0.190
-180.042	70.600	-0.152	0.157
-179.027	-200.000	-0.034	-0.436
-178.012	-36.670	-0.307	-0.165
-176.998	-108.094	-0.288	0.062
-175.983	-195.765	0.308	0.002
-174.969	800.000	-0.047	0.148
-173.954	-81.449	0.378	-0.124
-172.939	682.960	0.103	0.270
-171.925	-19.701	0.018	-0.011
-170.910	266.896	-0.051	-0.090
-169.896	-155.018	-0.172	0.011
-168.881	-97.798	-0.127	0.033
-167.866	78.827	-0.107	0.115
-166.852	13.459	-0.088	0.068
-165.837	11.577	0.244	-0.187
-164.823	-15.522	0.334	0.213
-163.808	102.408	-0.236	0.276
-162.793	224.920	-0.128	0.207
-161.779	-90.915	0.099	0.028
-160.764	14.899	0.358	-0.280
-159.750	-200.000	0.038	0.000
-158.735	-200.000	-0.017	-0.144
-157.720	-103.659	0.171	0.040
-156.706	-200.000	0.035	-0.175
-155.691	552.973	-0.046	-0.110
-154.677	76.384	0.040	-0.042
-153.662	-137.503	-0.357	-0.040
-152.647	-200.000	-0.006	-0.149
-151.633	-107.349	0.099	0.022
-150.618	800.000	0.090	-0.339
-149.604	600.048	-0.152	0.376
-148.589	800.000	0.051	-0.194
-147.574	-1.232	-0.246	-0.173
-146.560	691.127	0.119	-0.311
-145.545	99.474	-0.059	0.069
-144.531	175.797	-0.068	0.099
-143.516	-20.423	-0.220	0.135
-142.502	800.000	0.065	0.235
-141.487	131.533	-0.221	0.283
-140.472	-28.135	-0.149	0.086
-139.458	-200.000	-0.026	-0.122
-138.443	371.751	-0.249	-0.505
-137.429	-33.870	-0.021	0.011
-136.414	-102.363	-0.161	-0.039
-135.399	-200.000	0.015	0.133
-134.385	28.241	0.186	-0.156
-133.370	1.217	0.075	0.054
-132.356	-84.750	-0.326	-0.102
-131.341	37.941	-0.109	0.097
-130.326	-200.000	0.023	0.195
-129.312	-88.032	0.190	-0.057
-128.297	163.713	0.257	0.361
-127.283	353.371	-0.029	0.058
-126.268	-55.510	0.162	-0.072
-125.253	-177.486	0.176	0.004
-124.239	-200.000	0.002	-0.049
-123.224	-200.000	-0.007	-0.068
-122.210	51.419	0.136	0.128
-121.195	800.000	0.036	0.115
-120.180	-200.000	-0.026	0.118
-119.166	33.114	0.184	0.160
-118.151	800.000	-0.060	-0.199
-117.137	-132.663	0.084	-0.011
-116.122	-58.564	-0.210	0.091
-115.107	800.000	0.070	-0.268
-114.093	69.971	-0.118	-0.122
-113.078	-137.348	-0.197	-0.022
-112.064	167.601	-0.156	-0.221
-111.049	648.088	0.075	0.190
-110.034	551.970	-0.083	0.200
-109.020	52.510	0.105	0.100
-108.005	800.000	-0.172	-0.590
-106.991	-200.000	0.015	0.074
-105.976	-136.385	0.223	-0.026
-104.962	-152.089	0.021	-0.001
-103.947	-146.132	0.464	-0.041
-102.932	-61.346	0.112	-0.047
-101.918	-124.200	0.304	0.047
-100.903	214.267	-0.035	-0.055
-99.889	800.000	0.021	-0.083
-98.874	800.000	-0.015	-0.050
-97.859	-52.255	-0.218	0.101
-96.845	800.000	-0.072	-0.300
-95.830	28.263	0.138	0.116
-94.816	800.000	-0.051	0.142
-93.801	-8.583	0.248	-0.166
-92.786	-200.000	-0.017	0.165
-91.772	588.296	-0.059	-0.146
-90.757	70.844	0.136	-0.141
-89.743	800.000	0.024	0.075
-88.728	-118.132	0.312	-0.055
-87.713	-70.628	-0.336	0.126
-86.699	-15.611	0.110	-0.070
-85.684	25.556	0.273	0.226
-84.670	-64.130	-0.214	-0.087
-83.655	-114.918	-0.112	-0.021
-82.640	-200.000	-0.010	0.159
-81.626	-19.624	-0.215	0.132
-80.611	-27.374	-0.121	0.070
-79.597	5.765	0.080	-0.059
-78.582	-200.000	-0.021	0.151
-77.567	-200.000	0.057	0.257
-76.553	-121.193	-0.104	-0.017
-75.538	123.791	-0.202	0.252
-74.524	-200.000	0.010	0.136
-73.509	248.639	-0.140	0.236
-72.494	-200.000	0.028	0.180
-71.480	-138.745	0.384	0.042
-70.465	367.623	0.222	-0.447
-69.451	656.109	0.061	0.156
-68.436	298.033	0.137	-0.250
-67.422	102.326	-0.204	-0.237
-66.407	652.055	0.029	0.073
-65.392	-200.000	-0.012	0.070
-64.378	-106.774	0.134	-0.030
-63.363	719.997	-0.028	0.074
-62.349	800.000	-0.107	0.333
-61.334	80.217	-0.755	-0.808
-60.319	800.000	0.136	0.393
-59.305	800.000	0.205	-0.664
-58.290	187.135	0.596	0.884
-57.276	-200.000	0.198	1.626
-56.261	-200.000	81.296	495.795
-55.246	468.166	1378.545	3076.895
-54.232	143.508	2605.065	3451.243
-53.217	110.953	2245.430	2689.073
-52.203	49.327	1692.752	1583.647
-51.188	41.914	1423.419	1284.274
-50.173	38.725	1379.047	1224.309
-49.159	56.689	1417.971	1372.766
-48.144	61.886	1436.683	1423.666
-47.130	42.442	1397.739	1264.232
-46.115	38.716	1380.845	1225.657
-45.100	38.362	1376.386	1219.442
-44.086	38.359	1373.783	1217.072
-43.071	38.412	1371.292	1215.146
-42.057	38.312	1369.388	1212.791
-41.042	38.438	1367.425	1211.783
-40.027	38.435	1366.109	1210.550
-39.013	38.455	1364.191	1208.924
-37.998	38.428	1362.354	1207.083
-36.984	38.546	1360.065	1205.733
-35.969	38.635	1358.402	1204.758
-34.954	38.531	1357.094	1202.913
-33.940	38.576	1355.645	1201.858
-32.925	38.687	1353.910	1200.949
-31.911	38.683	1352.578	1199.698
-30.896	38.804	1350.865	1198.873
-29.881	38.670	1349.606	1196.887
-28.867	38.583	1348.227	1195.083
-27.852	38.718	1346.566	1194.390
-26.838	38.648	1345.282	1192.775
-25.823	38.594	1344.387	1191.609
-24.809	38.716	1342.318	1190.468
-23.794	38.633	1341.441	1189.138
-22.779	38.709	1339.459	1187.797
-21.765	38.721	1338.328	1186.820
-20.750	38.595	1336.959	1184.792
-19.736	38.505	1335.941	1183.298
-18.721	38.469	1334.199	1181.491
-17.706	38.491	1333.461	1180.928
-16.692	38.522	1331.754	1179.555
-15.677	38.543	1330.973	1178.939
-14.663	38.548	1329.876	1177.956
-13.648	38.429	1329.503	1176.863
-12.633	38.524	1327.487	1175.600
-11.619	38.435	1327.039	1174.622
-10.604	38.516	1326.111	1174.239
-9.590	38.524	1325.020	1173.277
-8.575	38.399	1324.324	1171.864
-7.560	38.514	1322.997	1171.334
-6.546	38.502	1322.084	1170.406
-5.531	38.503	1321.074	1169.468
-4.517	38.423	1320.604	1168.531
-3.502	38.541	1319.204	1167.949
-2.487	38.564	1318.653	1167.550
-1.473	38.546	1314.944	1164.112
-0.458	37.526	1300.094	1144.920
0.556	34.233	1280.559	1104.711
1.571	30.291	1284.492	1085.011
2.586	28.999	1299.949	1090.316
3.600	27.587	1287.594	1071.563
4.615	19.600	1208.439	961.338
5.629	7.597	1123.661	831.333
6.644	2.403	1099.982	787.076
7.659	1.912	1096.695	782.137
8.673	1.821	1095.283	780.597
9.688	1.696	1094.299	779.186
10.702	1.940	1092.997	779.438
11.717	8.688	1103.322	821.452
12.731	19.720	1119.981	890.952
13.746	24.783	1125.600	921.500
14.761	25.233	1126.018	924.079
15.775	25.261	1125.139	923.418
16.790	25.016	1124.797	921.797
17.804	24.863	1124.235	920.466
18.819	25.097	1123.623	921.086
19.834	25.145	1123.156	920.870
20.848	25.175	1122.991	920.808
21.863	25.239	1122.142	920.356
22.877	25.180	1121.504	919.449
23.892	25.173	1120.696	918.672
24.907	25.125	1119.885	917.677
25.921	25.127	1118.898	916.799
26.936	25.159	1117.360	915.621
27.950	25.051	1115.820	913.728
28.965	24.988	1113.968	911.812
29.980	24.948	1112.546	910.362
30.994	25.239	1111.848	911.190
32.009	25.201	1110.611	909.902
33.023	25.032	1109.607	908.141
34.038	25.101	1108.745	907.707
35.053	25.230	1107.877	907.567
36.067	25.171	1106.947	906.424
37.082	25.267	1106.686	906.618
38.096	25.348	1105.763	906.192
39.111	25.496	1104.862	906.119
40.126	25.210	1103.484	903.466
41.140	24.870	1101.602	900.135
42.155	24.715	1100.457	898.341
43.169	24.803	1099.343	897.795
44.184	24.825	1098.435	897.086
45.199	24.718	1097.488	895.697
46.213	24.820	1096.471	895.297
47.228	25.097	1095.546	895.845
48.242	24.933	1095.043	894.539
49.257	25.008	1094.474	894.368
50.271	25.237	1093.411	894.565
51.286	25.142	1093.084	893.740
52.301	25.254	1091.957	893.297
53.315	25.155	1090.827	891.804
54.330	25.009	1090.074	890.384
55.344	25.153	1088.999	890.139
56.359	25.144	1088.201	889.367
57.374	24.892	1087.238	887.249
58.388	24.874	1086.684	886.632
59.403	24.743	1085.901	885.266
60.417	24.770	1084.867	884.478
61.432	24.792	1084.094	883.877
62.447	24.923	1083.583	884.028
63.461	24.897	1082.649	883.061
64.476	24.868	1081.341	881.773
65.490	24.787	1080.838	880.886
66.505	24.911	1080.018	880.750
67.520	24.863	1079.500	880.014
68.534	24.687	1077.924	877.788
69.549	24.432	1076.870	875.603
70.563	24.251	1076.640	874.450
71.578	24.391	1075.629	874.238
72.593	24.152	1074.629	872.174
73.607	24.366	1073.903	872.555
74.622	24.533	1073.848	873.250
75.636	24.692	1072.878	873.160
76.651	24.537	1071.908	871.540
77.666	24.508	1071.033	870.607
78.680	24.530	1070.623	870.305
79.695	24.536	1070.441	870.112
80.709	24.681	1069.172	869.707
81.724	24.681	1068.319	868.937
82.739	24.623	1067.857	868.200
83.753	25.050	1067.487	869.898
84.768	25.375	1066.553	870.636
85.782	25.453	1065.590	870.149
86.797	25.348	1064.672	868.813
87.812	25.253	1063.625	867.423
88.826	25.328	1062.546	866.827
89.841	25.279	1061.987	866.062
90.855	25.479	1060.684	865.885
91.870	25.281	1060.164	864.428
92.884	25.284	1058.376	862.912
93.899	25.296	1057.438	862.127
94.914	25.362	1056.746	861.805
95.928	25.280	1055.463	860.289
96.943	25.060	1054.210	858.139
97.957	24.739	1053.079	855.607
98.972	24.672	1051.906	854.255
99.987	24.867	1051.276	854.600
101.001	25.049	1050.714	854.938
102.016	25.036	1049.909	854.145
103.030	25.030	1048.579	852.960
104.045	24.906	1047.593	851.489
105.060	24.661	1046.882	849.670
106.074	24.817	1046.179	849.769
107.089	25.184	1045.835	851.153
108.103	25.086	1044.147	849.241
109.118	24.950	1042.827	847.448
110.133	24.900	1041.700	846.222
111.147	24.634	1040.796	844.156
112.162	24.584	1040.142	843.314
113.176	24.752	1039.597	843.591
114.191	24.686	1038.485	842.305
115.206	24.333	1037.357	839.651
116.220	24.450	1036.461	839.401
117.235	24.613	1035.423	839.256
118.249	24.492	1035.010	838.277
119.264	24.331	1034.207	836.796
120.279	24.523	1033.605	837.135
121.293	24.540	1032.739	836.441
122.308	24.509	1031.860	835.508
123.322	24.541	1030.328	834.343
124.337	24.381	1028.895	832.366
125.352	24.027	1027.208	829.276
126.366	23.694	1025.988	826.667
127.381	24.575	1026.441	831.060
128.395	25.085	1026.008	833.008
129.410	25.147	1025.186	832.555
130.424	25.056	1024.114	831.190
131.439	25.071	1023.322	830.543
132.454	25.063	1022.567	829.820
133.468	24.969	1021.133	828.148
134.483	25.138	1020.665	828.476
135.497	25.294	1019.981	828.564
136.512	25.261	1019.191	827.699
137.527	25.259	1018.397	826.970
138.541	25.330	1017.645	826.615
139.556	25.412	1016.595	826.066
140.570	25.506	1015.649	825.654
141.585	25.575	1014.599	825.044
142.600	25.378	1013.693	823.332
143.614	25.517	1013.172	823.476
144.629	25.645	1012.256	823.243
145.643	25.439	1010.926	821.145
146.658	25.148	1010.308	819.241
147.673	25.126	1009.219	818.187
148.687	25.133	1007.911	817.084
149.702	25.015	1007.021	815.754
150.716	25.040	1006.096	815.045
151.731	25.297	1004.920	815.190
152.746	25.405	1004.743	815.464
153.760	25.488	1003.836	815.032
154.775	25.487	1003.474	814.663
155.789	25.455	1002.962	814.029
156.804	25.411	1001.555	812.618
157.819	25.442	1000.740	812.021
158.833	25.585	1000.287	812.229
159.848	25.639	999.221	811.536
160.862	25.513	997.565	809.551
161.877	25.436	996.510	808.278
162.892	25.459	995.802	807.733
163.906	25.362	994.917	806.511
164.921	25.419	993.623	805.645
165.935	25.510	993.074	805.539
166.950	25.486	992.047	804.526
167.964	25.411	990.686	803.012
168.979	25.341	989.270	801.484
169.994	25.258	989.096	800.902
171.008	25.569	988.399	801.650
172.023	25.569	987.866	801.151
173.037	25.315	986.655	798.967
174.052	25.129	985.535	797.162
175.067	25.099	985.022	796.543
176.081	25.330	984.099	796.750
177.096	25.179	983.772	795.748
178.110	24.901	982.776	793.637
179.125	24.650	981.901	791.750
180.140	24.919	981.355	792.428
181.154	24.996	981.340	792.687
182.169	25.175	981.323	793.396
183.183	25.419	980.716	793.914
184.198	25.279	979.762	792.453
185.213	25.325	978.786	791.797
186.227	25.521	978.078	792.019
187.242	25.367	977.598	790.881
188.256	25.502	976.722	790.696
189.271	25.634	976.031	790.646
190.286	25.250	974.796	787.889
191.300	24.546	973.242	783.480
192.315	23.858	971.494	778.986
193.329	23.759	971.063	778.137
194.344	24.640	971.305	782.124
195.359	25.225	971.572	784.830
196.373	25.411	970.970	785.084
197.388	25.293	970.446	784.078
198.402	25.321	969.839	783.637
199.417	25.317	969.060	782.920
200.432	25.240	967.666	781.393
201.446	24.933	967.133	779.558
202.461	24.962	966.939	779.456
203.475	24.243	964.745	774.495
204.490	23.462	963.287	769.869
205.504	24.246	963.907	773.698
206.519	24.876	963.912	776.368
207.534	25.097	963.112	776.614
208.548	25.427	963.019	777.899
209.563	25.127	962.151	775.829
210.577	25.086	961.641	775.172
211.592	25.557	961.184	776.773
212.607	25.551	959.984	775.707
213.621	25.509	959.976	775.450
214.636	25.578	958.945	774.846
215.650	25.406	958.171	773.414
216.665	25.498	957.916	773.534
217.680	25.547	956.757	772.738
218.694	25.179	955.324	769.934
219.709	24.970	954.704	768.472
220.723	25.245	954.490	769.410
221.738	25.487	953.597	769.658
222.753	25.436	953.091	768.965
223.767	25.409	952.628	768.408
224.782	25.648	952.578	769.320
225.796	25.487	952.560	768.547
226.811	24.827	950.699	764.162
227.826	24.342	949.058	760.708
228.840	24.527	948.547	761.020
229.855	24.383	948.521	760.318
230.869	24.122	947.257	758.127
231.884	24.630	947.125	760.116
232.899	25.338	946.834	762.823
233.913	25.387	946.110	762.379
234.928	25.107	945.978	761.019
235.942	25.080	945.149	760.168
236.957	24.941	943.912	758.520
237.972	24.924	943.379	757.952
238.986	24.976	942.999	757.800
240.001	24.955	942.684	757.388
241.015	25.081	941.682	757.050
242.030	25.228	941.161	757.182
243.045	25.298	940.717	757.057
244.059	25.588	940.356	757.922
245.074	25.309	939.337	755.857
246.088	24.984	938.234	753.534
247.103	25.186	938.197	754.290
248.117	25.860	938.345	757.174
249.132	26.160	937.272	757.502
250.147	26.265	937.261	757.867
251.161	26.352	936.906	757.875
252.176	26.274	936.241	756.945
253.190	26.307	935.541	756.450
254.205	26.382	935.345	756.538
255.220	26.338	934.230	755.384
256.234	26.306	933.301	754.434
257.249	26.042	932.901	752.941
258.263	26.086	932.276	752.556
259.278	26.222	931.290	752.258
260.293	26.272	930.860	752.051
261.307	26.184	930.127	751.029
262.322	26.011	929.200	749.493
263.336	25.377	927.074	745.085
264.351	24.162	925.349	738.597
265.366	24.252	925.333	738.892
266.380	25.510	925.912	744.501
267.395	25.816	925.540	745.406
268.409	25.767	924.995	744.697
269.424	26.041	924.071	745.021
270.439	25.976	923.648	744.342
271.453	26.111	922.888	744.221
272.468	26.269	922.715	744.666
273.482	26.316	922.086	744.290
274.497	25.894	920.905	741.533
275.512	25.557	919.699	739.111
276.526	25.904	920.474	741.095
277.541	26.068	919.947	741.282
278.555	25.801	918.841	739.228
279.570	25.598	918.408	737.979
280.585	25.852	917.927	738.569
281.599	25.898	916.582	737.613
282.614	25.382	914.930	734.108
283.628	25.228	914.656	733.192
284.643	25.660	914.605	734.853
285.657	25.286	913.298	732.212
286.672	24.835	912.690	729.820
287.687	25.530	912.627	732.540
288.701	25.669	911.979	732.522
289.716	25.214	911.129	729.922
290.730	25.168	910.337	729.038
291.745	24.998	908.893	727.126
292.760	25.188	909.418	728.253
293.774	26.236	909.781	732.734
294.789	26.615	909.220	733.750
295.803	26.712	908.290	733.330
296.818	26.723	907.932	733.020
297.833	26.169	906.736	729.751
298.847	26.034	905.830	728.413
299.862	26.332	905.873	729.584
300.876	26.539	905.752	730.259
301.891	26.380	904.957	728.911
302.906	26.203	903.666	727.095
303.920	26.264	903.282	726.969
304.935	26.662	903.571	728.735
305.949	26.558	902.887	727.702
306.964	26.265	901.775	725.567
307.979	26.373	901.165	725.443
308.993	26.734	901.299	726.936
310.008	26.695	900.655	726.196
311.022	26.554	899.485	724.625
312.037	26.250	899.033	722.980
313.052	25.916	898.312	721.000
314.066	25.118	896.295	716.131
315.081	24.805	895.800	714.421
316.095	25.587	895.973	717.617
317.110	26.215	895.518	719.692
318.125	25.320	894.153	714.970
319.139	24.281	892.475	709.434
320.154	24.135	892.249	708.608
321.168	25.121	892.999	713.068
322.183	25.968	893.001	716.374
323.197	25.949	892.753	716.035
324.212	26.314	892.119	716.910
325.227	26.250	891.591	716.170
326.241	26.141	890.626	714.900
327.256	26.041	890.314	714.189
328.270	25.938	889.059	712.712
329.285	25.840	888.244	711.608
330.300	25.584	887.900	710.258
331.314	25.903	887.259	710.944
332.329	26.198	887.480	712.219
333.343	26.436	887.251	712.912
334.358	26.516	886.115	712.251
335.373	26.557	886.060	712.307
336.387	26.821	886.029	713.253
337.402	26.889	886.240	713.630
338.416	26.784	885.535	712.588
339.431	27.027	885.080	713.113
340.446	27.019	885.159	713.080
341.460	26.917	884.690	712.241
342.475	26.743	883.853	710.821
343.489	26.882	883.595	711.095
344.504	27.091	883.142	711.484
345.519	27.241	882.794	711.729
346.533	27.283	882.509	711.602
347.548	27.287	881.760	710.949
348.562	27.153	881.307	709.998
349.577	27.187	880.784	709.647
350.592	27.120	880.063	708.741
351.606	27.176	878.936	707.991
352.621	27.026	878.135	706.700
353.635	26.940	877.265	705.603
354.650	26.210	875.758	701.491
355.665	25.282	874.273	696.639
356.679	25.714	874.121	698.132
357.694	26.141	873.671	699.368
358.708	26.079	872.728	698.309
359.723	26.638	872.650	700.348
360.738	26.832	872.458	700.882
361.752	27.000	871.992	701.095
362.767	27.262	871.846	701.926
363.781	27.371	871.513	702.019
364.796	27.591	871.168	702.523
365.810	27.571	870.692	702.001
366.825	27.613	870.193	701.698
367.840	27.410	869.071	699.951
368.854	26.895	868.096	697.127
369.869	26.833	868.025	696.771
370.883	26.924	867.609	696.724
371.898	26.831	867.074	695.876
372.913	27.055	866.858	696.499
373.927	26.966	866.580	695.874
374.942	27.234	865.927	696.313
375.956	27.259	865.586	696.074
376.971	27.378	865.096	696.074
377.986	27.568	864.698	696.418
379.000	27.518	864.120	695.701
380.015	27.278	863.602	694.305
381.029	27.255	863.474	694.054
382.044	27.571	862.594	694.489
383.059	27.579	861.837	693.849
384.073	27.496	861.265	693.012
385.088	27.493	860.574	692.380
386.102	27.426	859.498	691.201
387.117	27.262	859.182	690.264
388.132	26.771	858.077	687.451
389.146	26.444	857.132	685.396
390.161	26.851	856.810	686.620
391.175	27.429	856.341	688.368
392.190	26.856	855.788	685.697
393.205	25.589	854.088	679.489
394.219	24.027	851.891	671.793
395.234	23.993	851.532	671.321
396.248	25.502	852.776	677.939
397.263	27.023	853.764	684.402
398.278	26.928	853.324	683.631
399.292	26.661	852.899	682.223
400.307	26.767	852.353	682.126
401.321	26.671	851.991	681.416
402.336	27.315	851.437	683.331
403.350	27.666	851.645	684.756
404.365	27.939	851.538	685.634
405.380	28.147	851.251	686.121
406.394	28.280	850.661	686.083
407.409	28.140	849.873	684.866
408.423	28.159	849.446	684.529
409.438	28.159	849.455	684.477
410.453	28.296	848.684	684.308
411.467	28.214	848.141	683.504
412.482	28.181	847.715	682.975
413.496	28.240	847.474	682.940
414.511	28.228	847.125	682.555
415.526	28.241	846.751	682.241
416.540	28.209	845.885	681.364
417.555	27.827	845.026	679.190
418.569	27.969	844.698	679.396
419.584	27.836	844.239	678.470
420.599	27.756	843.667	677.657
421.613	98.685	1275.601	1403.235
422.628	85.771	1338.575	1403.353
