DTS Sentinel unit serial number:	SN413079Multiplexer serial number:	ORYXHardware model number:	OX4-SRSoftware version number:	ORYX F/W v4.00 Oryx Data Collector v3.7.2.0data status	okinstallation	princeton_trtdifferential loss correction	single-endedforward channel	channel 1reverse channel	N/Adate	2019/09/13time	11:30:35forward acquisition time	60.00reverse acquisition time	0.00gamma	496.2192k internal	0.2315k external	0.2315temperature offset calibration	1.0146default loss term (dB/km)	0.3790temperature slope calibration	1.0000multiplexer offset coefficient	1.0000multiplexer slope coefficient	1.0000fibre end	0.00T internal ref (°C)	32.75T ext. ref 1 (°C)	4.36T ext. ref 2 (°C)	30.25length (m)	temperature (°C)	Stokes	anti-Stokes-747.200	239.589	0.148	0.249
-746.185	538.495	0.120	0.290
-745.171	-67.901	-0.165	-0.065
-744.156	-136.359	-0.261	-0.031
-743.142	-110.126	0.216	-0.046
-742.127	800.000	-0.042	0.139
-741.112	-82.905	-0.218	-0.071
-740.098	-146.125	-0.254	-0.023
-739.083	16.853	-0.230	-0.184
-738.069	22.200	0.343	0.284
-737.054	134.384	-0.170	-0.224
-736.039	-200.000	0.021	-0.386
-735.025	800.000	0.040	-0.176
-734.010	196.887	-0.148	-0.228
-732.996	690.884	0.039	-0.103
-731.981	800.000	-0.063	-0.243
-730.966	-65.566	-0.064	0.026
-729.952	47.277	-0.093	-0.088
-728.937	800.000	-0.121	-0.393
-727.923	-147.181	0.050	-0.004
-726.908	33.889	-0.214	0.189
-725.894	7.449	-0.233	0.176
-724.879	800.000	0.089	0.296
-723.864	-133.581	0.095	0.012
-722.850	-70.854	0.155	-0.059
-721.835	-69.624	-0.185	-0.072
-720.821	327.691	-0.039	0.076
-719.806	-152.233	0.138	0.010
-718.791	29.628	-0.114	-0.098
-717.777	303.577	0.106	-0.199
-716.762	794.155	-0.025	0.071
-715.748	214.429	-0.128	-0.205
-714.733	673.251	-0.122	0.321
-713.718	116.292	-0.163	-0.203
-712.704	363.951	0.130	-0.265
-711.689	-109.542	0.204	-0.044
-710.675	-47.452	0.192	0.094
-709.660	115.418	-0.070	-0.087
-708.645	294.598	0.191	-0.353
-707.631	770.881	0.044	0.121
-706.616	-67.649	-0.150	-0.060
-705.602	27.636	0.219	0.186
-704.587	-200.000	0.015	0.149
-703.572	-200.000	-0.019	-0.157
-702.558	-200.000	0.029	-0.164
-701.543	-52.874	0.225	-0.105
-700.529	-59.720	-0.096	-0.041
-699.514	300.921	0.149	-0.277
-698.499	253.579	0.211	0.365
-697.485	-46.087	-0.145	0.072
-696.470	800.000	0.100	-0.365
-695.456	800.000	0.125	-0.478
-694.441	-87.501	-0.260	-0.080
-693.426	17.059	-0.159	0.127
-692.412	241.242	-0.147	0.248
-691.397	800.000	-0.062	-0.262
-690.383	-40.998	-0.384	-0.201
-689.368	-61.565	0.082	0.035
-688.354	706.619	-0.104	-0.278
-687.339	154.947	-0.164	0.228
-686.324	-9.101	0.185	-0.125
-685.310	-146.483	-0.128	-0.011
-684.295	-200.000	-0.041	0.227
-683.281	162.910	-0.176	-0.250
-682.266	-200.000	-0.011	-0.148
-681.251	-1.180	0.104	-0.074
-680.237	-200.000	0.062	-0.484
-679.222	-97.212	-0.305	-0.080
-678.208	-11.025	-0.097	-0.065
-677.193	-40.072	-0.175	-0.092
-676.178	-104.723	0.082	0.019
-675.164	113.963	0.160	0.196
-674.149	-30.540	0.224	0.128
-673.135	21.579	0.123	-0.102
-672.120	-26.092	-0.023	0.014
-671.105	-64.743	0.404	0.166
-670.091	-90.899	-0.348	0.101
-669.076	143.500	-0.121	-0.163
-668.062	148.525	0.176	0.240
-667.047	-25.209	-0.191	-0.114
-666.032	24.207	0.013	-0.011
-665.018	24.398	-0.222	-0.186
-664.003	-200.000	-0.026	0.291
-662.989	-200.000	0.066	-0.292
-661.974	-37.243	-0.165	-0.089
-660.959	-73.920	-0.207	0.076
-659.945	6.772	-0.127	0.096
-658.930	-163.035	0.316	0.015
-657.916	-54.437	0.108	0.049
-656.901	-200.000	0.002	-0.036
-655.886	366.477	-0.115	-0.235
-654.872	32.674	-0.090	-0.078
-653.857	-75.860	0.127	-0.045
-652.843	-9.879	-0.244	-0.164
-651.828	-200.000	-0.061	-0.349
-650.814	-51.781	0.191	0.090
-649.799	-181.249	-0.230	-0.005
-648.784	-200.000	-0.012	-0.307
-647.770	72.018	0.195	-0.205
-646.755	242.049	0.097	0.164
-645.741	68.663	0.102	0.105
-644.726	-105.459	-0.032	0.007
-643.711	-90.044	-0.294	0.086
-642.697	-25.285	0.248	-0.148
-641.682	6.655	-0.068	0.051
-640.668	-200.000	-0.022	0.184
-639.653	-200.000	0.043	0.282
-638.638	-200.000	-0.014	-0.104
-637.624	-6.660	-0.180	-0.123
-636.609	404.999	-0.084	0.179
-635.595	-3.483	-0.178	0.125
-634.580	100.850	0.101	-0.119
-633.565	-161.327	-0.116	0.006
-632.551	-31.876	-0.339	-0.191
-631.536	-101.877	0.021	0.005
-630.522	94.266	-0.185	0.212
-629.507	-99.557	-0.286	-0.072
-628.492	-8.200	0.171	0.116
-627.478	239.212	0.037	0.063
-626.463	74.677	0.074	0.078
-625.449	544.449	-0.161	0.389
-624.434	179.816	0.127	0.188
-623.419	-110.918	-0.270	-0.056
-622.405	-91.715	0.179	0.051
-621.390	-9.563	0.158	0.107
-620.376	62.736	0.179	0.180
-619.361	-200.000	-0.011	0.108
-618.346	-82.729	-0.376	-0.123
-617.332	83.499	0.136	0.149
-616.317	800.000	-0.070	-0.245
-615.303	11.239	-0.159	-0.123
-614.288	-155.114	-0.452	-0.030
-613.273	413.254	-0.073	-0.156
-612.259	800.000	-0.048	0.199
-611.244	12.477	-0.337	0.262
-610.230	550.224	0.076	-0.183
-609.215	-22.212	-0.016	-0.010
-608.201	369.222	-0.108	-0.220
-607.186	-36.859	0.223	0.120
-606.171	-133.655	-0.027	0.003
-605.157	-200.000	0.054	-0.298
-604.142	-130.087	-0.138	-0.019
-603.128	-30.691	-0.073	-0.042
-602.113	95.991	-0.078	-0.090
-601.098	656.215	0.046	-0.120
-600.084	543.448	-0.098	0.236
-599.069	74.778	-0.202	0.214
-598.055	35.643	-0.117	-0.104
-597.040	105.541	0.048	0.057
-596.025	167.343	-0.151	-0.217
-595.011	-176.220	0.107	0.003
-593.996	-200.000	-0.015	0.129
-592.982	304.967	-0.084	-0.158
-591.967	-200.000	0.042	0.212
-590.952	-200.000	-0.000	-0.189
-589.938	634.237	0.061	0.156
-588.923	800.000	0.114	-0.387
-587.909	-194.729	-0.303	0.002
-586.894	-200.000	0.020	0.100
-585.879	280.957	-0.079	0.143
-584.865	-29.022	0.335	0.194
-583.850	226.669	-0.083	-0.136
-582.836	317.347	0.057	-0.109
-581.821	-200.000	-0.022	-0.168
-580.806	26.523	-0.198	-0.167
-579.792	800.000	-0.070	0.232
-578.777	525.898	0.132	-0.313
-577.763	800.000	-0.019	0.069
-576.748	83.910	-0.179	-0.197
-575.733	-138.265	0.365	-0.041
-574.719	-75.812	-0.215	0.077
-573.704	41.480	0.073	-0.067
-572.690	53.496	-0.222	-0.215
-571.675	-88.081	-0.313	-0.094
-570.661	-17.914	0.236	0.149
-569.646	-31.653	-0.334	0.189
-568.631	-34.950	0.197	-0.108
-567.617	512.418	0.094	-0.222
-566.602	12.682	-0.222	-0.173
-565.588	205.399	0.039	0.061
-564.573	-200.000	-0.023	0.244
-563.558	-11.734	0.216	0.143
-562.544	-133.803	-0.113	0.014
-561.529	-200.000	-0.009	0.215
-560.515	90.884	-0.269	-0.304
-559.500	30.944	-0.043	-0.037
-558.485	-147.375	-0.103	-0.009
-557.471	74.363	-0.095	-0.100
-556.456	-200.000	-0.048	-0.277
-555.442	-109.035	0.124	-0.027
-554.427	-60.287	0.133	0.057
-553.412	237.823	0.105	0.175
-552.398	214.501	-0.081	-0.129
-551.383	-132.495	0.172	0.022
-550.369	-81.807	0.423	-0.139
-549.354	-200.000	0.094	0.564
-548.339	37.190	0.116	0.103
-547.325	12.386	0.084	-0.065
-546.310	-42.425	0.169	-0.087
-545.296	444.957	0.069	-0.152
-544.281	-153.681	-0.109	-0.008
-543.266	295.841	0.066	-0.122
-542.252	-27.814	-0.125	-0.073
-541.237	486.460	-0.101	0.231
-540.223	727.802	0.039	-0.105
-539.208	-200.000	0.028	-0.162
-538.193	16.450	0.069	-0.055
-537.179	-200.000	0.018	-0.214
-536.164	260.711	0.157	-0.273
-535.150	-200.000	-0.010	-0.295
-534.135	155.763	-0.124	-0.172
-533.121	-49.047	-0.175	-0.084
-532.106	27.685	-0.215	-0.182
-531.091	227.594	-0.185	-0.302
-530.077	-200.000	-0.011	-0.240
-529.062	-200.000	0.007	0.137
-528.048	-200.000	-0.010	0.123
-527.033	-96.055	0.137	0.037
-526.018	519.210	-0.117	0.274
-525.004	-25.721	-0.198	-0.118
-523.989	96.271	-0.091	0.105
-522.975	-13.040	0.267	-0.175
-521.960	-200.000	0.074	0.465
-520.945	-71.767	-0.208	-0.078
-519.931	464.514	0.106	0.238
-518.916	800.000	-0.097	-0.272
-517.902	-200.000	-0.019	0.263
-516.887	8.300	0.094	0.071
-515.872	-8.773	-0.254	-0.171
-514.858	-200.000	0.032	0.221
-513.843	-166.831	0.301	-0.012
-512.829	-200.000	-0.017	-0.263
-511.814	-37.853	-0.147	-0.078
-510.799	-16.812	-0.205	-0.130
-509.785	-57.413	-0.195	-0.086
-508.770	-77.836	0.279	-0.097
-507.756	-200.000	-0.021	0.143
-506.741	415.239	-0.107	0.228
-505.726	800.000	-0.046	0.140
-504.712	424.535	-0.120	-0.259
-503.697	38.085	0.256	-0.229
-502.683	102.915	0.156	0.183
-501.668	800.000	-0.021	0.073
-500.653	-115.781	0.446	0.084
-499.639	13.954	0.120	0.094
-498.624	-29.738	0.178	-0.102
-497.610	-35.694	-0.309	0.168
-496.595	-139.882	0.144	0.015
-495.581	-200.000	-0.006	0.077
-494.566	-200.000	0.011	0.074
-493.551	-115.501	0.060	0.011
-492.537	-93.592	-0.152	-0.042
-491.522	336.860	0.093	0.182
-490.508	-4.107	-0.123	-0.085
-489.493	-23.754	-0.130	-0.078
-488.478	-70.154	0.309	-0.118
-487.464	-200.000	-0.006	-0.385
-486.449	-200.000	-0.017	-0.133
-485.435	-38.546	0.161	0.085
-484.420	-57.942	-0.283	-0.124
-483.405	212.208	0.161	0.255
-482.391	-200.000	0.030	0.205
-481.376	-45.840	0.071	0.035
-480.362	-200.000	-0.021	0.097
-479.347	75.637	-0.198	0.210
-478.332	2.472	-0.285	0.207
-477.318	-1.882	-0.090	0.064
-476.303	-52.612	-0.217	-0.100
-475.289	-50.728	0.203	-0.096
-474.274	-200.000	-0.043	-0.260
-473.259	-200.000	0.015	-0.073
-472.245	-200.000	-0.009	0.235
-471.230	800.000	-0.059	0.235
-470.216	198.046	-0.096	0.147
-469.201	-200.000	0.018	-0.208
-468.186	-200.000	-0.038	-0.189
-467.172	-200.000	0.021	-0.167
-466.157	745.894	-0.073	-0.196
-465.143	800.000	0.092	-0.265
-464.128	-53.174	-0.271	0.125
-463.113	-200.000	0.009	0.060
-462.099	-48.091	0.191	0.093
-461.084	-166.518	-0.138	0.006
-460.070	390.293	0.044	-0.092
-459.055	-72.859	0.160	-0.059
-458.040	-151.655	0.143	0.011
-457.026	94.349	0.234	-0.266
-456.011	115.786	-0.033	-0.040
-454.997	-88.074	-0.153	-0.046
-453.982	-145.904	-0.090	-0.008
-452.968	235.746	-0.137	-0.227
-451.953	-120.092	-0.146	-0.025
-450.938	302.186	-0.006	-0.011
-449.924	-132.760	-0.160	0.020
-448.909	-27.810	0.089	0.052
-447.895	-126.788	0.074	-0.011
-446.880	16.824	0.079	-0.063
-445.865	-200.000	0.097	-0.468
-444.851	-36.027	-0.142	-0.077
-443.836	125.535	-0.112	-0.142
-442.822	-200.000	0.050	0.472
-441.807	-200.000	-0.049	0.295
-440.792	-5.716	-0.164	-0.113
-439.778	105.911	-0.133	-0.157
-438.763	-121.150	0.231	-0.039
-437.749	-20.963	0.123	0.076
-436.734	-200.000	-0.024	0.198
-435.719	-90.331	-0.118	-0.034
-434.705	-200.000	-0.043	-0.267
-433.690	428.193	-0.124	-0.267
-432.676	-113.154	-0.530	0.105
-431.661	-200.000	0.008	-0.188
-430.646	-200.000	0.008	0.064
-429.632	20.996	-0.346	0.281
-428.617	-61.217	-0.072	0.030
-427.603	480.492	0.070	0.158
-426.588	48.703	0.057	-0.053
-425.573	-200.000	0.027	0.423
-424.559	800.000	0.045	0.155
-423.544	-180.420	-0.072	0.001
-422.530	-200.000	0.032	0.268
-421.515	-200.000	0.037	-0.226
-420.500	2.708	-0.241	-0.175
-419.486	-38.020	-0.326	0.173
-418.471	439.529	0.102	0.222
-417.457	-120.801	0.115	0.019
-416.442	-79.978	0.066	-0.022
-415.428	-8.522	-0.072	-0.048
-414.413	47.048	0.189	0.176
-413.398	197.861	0.018	-0.027
-412.384	-36.221	0.288	0.156
-411.369	-41.027	0.244	0.126
-410.355	-91.141	0.070	-0.020
-409.340	-200.000	0.004	-0.332
-408.325	-200.000	0.020	-0.119
-407.311	-132.088	0.187	-0.024
-406.296	58.915	-0.032	-0.031
-405.282	800.000	0.036	0.139
-404.267	-86.789	0.064	-0.019
-403.252	462.222	0.055	-0.122
-402.238	-200.000	-0.005	-0.213
-401.223	97.656	-0.091	0.105
-400.209	328.322	-0.134	0.257
-399.194	-127.091	0.210	0.031
-398.179	110.929	0.234	0.281
-397.165	-200.000	0.035	0.274
-396.150	41.829	0.131	0.119
-395.136	-166.523	0.267	0.011
-394.121	-95.339	-0.385	0.103
-393.106	-94.253	-0.152	0.042
-392.092	218.562	0.093	0.148
-391.077	-27.150	-0.080	0.046
-390.063	-149.273	0.255	-0.020
-389.048	-7.095	0.040	-0.027
-388.033	653.042	-0.111	-0.285
-387.019	260.723	0.145	-0.250
-386.004	360.959	-0.059	-0.119
-384.990	-134.843	-0.151	0.018
-383.975	-182.081	0.197	0.004
-382.960	466.932	0.155	-0.347
-381.946	-88.659	0.168	-0.050
-380.931	29.458	0.133	0.113
-379.917	-185.061	-0.076	-0.001
-378.902	800.000	-0.035	0.136
-377.888	123.015	0.135	-0.169
-376.873	-191.787	0.104	-0.001
-375.858	-89.507	0.073	-0.021
-374.844	-90.671	-0.233	0.067
-373.829	-130.667	0.093	-0.012
-372.815	-101.573	0.128	-0.031
-371.800	-200.000	0.026	-0.147
-370.785	-200.000	-0.001	0.263
-369.771	215.999	0.249	-0.396
-368.756	73.101	0.257	-0.269
-367.742	333.452	-0.030	-0.059
-366.727	27.980	0.405	0.341
-365.712	-200.000	0.008	-0.383
-364.698	625.788	0.007	0.019
-363.683	-156.866	0.230	-0.014
-362.669	64.749	-0.116	0.116
-361.654	-40.348	0.309	-0.160
-360.639	-87.414	0.194	-0.059
-359.625	120.135	-0.028	0.035
-358.610	-175.884	-0.128	-0.003
-357.596	-30.108	-0.124	-0.071
-356.581	-78.870	0.202	0.069
-355.566	-188.854	0.281	-0.003
-354.552	-83.498	0.276	-0.088
-353.537	-120.198	-0.214	0.037
-352.523	-170.097	-0.238	-0.008
-351.508	196.531	0.079	-0.119
-350.493	-21.514	-0.067	0.041
-349.479	182.148	-0.006	0.010
-348.464	83.667	-0.196	-0.213
-347.450	-200.000	-0.009	-0.085
-346.435	-87.080	0.111	0.034
-345.420	-154.005	0.031	0.002
-344.406	-108.613	0.150	0.032
-343.391	-200.000	0.016	0.165
-342.377	217.441	-0.158	-0.252
-341.362	16.922	-0.210	-0.166
-340.348	-64.752	-0.129	0.052
-339.333	-121.406	0.281	0.047
-338.318	-200.000	0.012	0.371
-337.304	81.775	0.107	-0.115
-336.289	79.639	0.137	0.147
-335.275	-200.000	0.017	-0.334
-334.260	97.444	-0.054	-0.061
-333.245	82.776	-0.236	0.256
-332.231	693.376	0.082	0.216
-331.216	134.731	0.109	0.141
-330.202	-46.103	0.150	-0.074
-329.187	130.761	-0.269	0.345
-328.172	41.618	0.186	0.168
-327.158	-126.226	0.170	-0.025
-326.143	-86.850	-0.072	0.022
-325.129	429.408	-0.165	0.355
-324.114	-200.000	0.018	-0.094
-323.099	-43.904	0.177	-0.089
-322.085	-200.000	-0.003	-0.335
-321.070	-78.647	0.160	0.054
-320.056	800.000	-0.015	0.063
-319.041	-87.384	0.077	0.023
-318.026	-124.402	0.055	-0.009
-317.012	-88.867	-0.126	-0.037
-315.997	219.252	-0.143	0.228
-314.983	-31.315	-0.129	0.073
-313.968	-56.570	0.242	-0.107
-312.953	271.974	0.114	0.201
-311.939	-185.225	-0.375	0.006
-310.924	-200.000	0.008	0.335
-309.910	-34.733	0.220	0.120
-308.895	-71.025	-0.316	0.119
-307.880	278.169	-0.086	-0.152
-306.866	216.606	0.123	0.195
-305.851	183.098	0.103	-0.152
-304.837	791.838	0.066	-0.182
-303.822	800.000	0.079	-0.334
-302.807	39.427	0.209	-0.186
-301.793	-44.218	0.311	-0.155
-300.778	-154.558	-0.286	0.019
-299.764	139.044	-0.105	-0.137
-298.749	122.098	0.139	-0.173
-297.735	-200.000	-0.022	-0.187
-296.720	30.288	0.078	0.066
-295.705	-200.000	-0.035	0.206
-294.691	-160.640	0.269	-0.014
-293.676	58.399	0.087	0.085
-292.662	220.401	-0.127	-0.203
-291.647	-200.000	-0.004	0.110
-290.632	60.825	0.252	-0.249
-289.618	-82.851	0.065	0.021
-288.603	-3.404	-0.271	-0.188
-287.589	489.313	-0.027	-0.062
-286.574	56.198	0.172	-0.166
-285.559	-8.335	0.147	0.099
-284.545	-200.000	-0.002	-0.055
-283.530	-130.112	-0.050	0.007
-282.516	-150.839	0.130	-0.010
-281.501	-200.000	-0.006	-0.198
-280.486	80.357	0.111	-0.119
-279.472	-132.066	0.124	-0.016
-278.457	-167.112	-0.286	0.012
-277.443	40.322	0.114	0.102
-276.428	-115.558	0.111	0.021
-275.413	-200.000	0.013	0.087
-274.399	260.342	0.058	0.100
-273.384	-79.712	0.130	-0.044
-272.370	-28.560	0.061	0.035
-271.355	78.159	-0.004	0.004
-270.340	-50.911	-0.288	-0.135
-269.326	800.000	-0.088	0.354
-268.311	8.615	0.214	0.161
-267.297	-144.489	-0.074	0.007
-266.282	-107.959	0.144	-0.031
-265.267	-25.731	-0.125	-0.073
-264.253	40.592	-0.150	-0.134
-263.238	-150.793	-0.187	0.014
-262.224	-131.508	0.189	0.025
-261.209	-8.689	0.029	-0.019
-260.195	194.970	-0.026	0.040
-259.180	31.099	-0.118	-0.101
-258.165	126.824	0.172	-0.216
-257.151	-130.803	0.358	-0.048
-256.136	358.709	-0.034	-0.068
-255.122	-9.975	-0.169	-0.112
-254.107	62.146	0.080	0.079
-253.092	-43.917	0.362	-0.181
-252.078	-200.000	-0.026	-0.385
-251.063	-136.568	-0.200	-0.023
-250.049	-115.208	0.106	0.020
-249.034	-200.000	-0.073	0.404
-248.019	241.120	0.147	-0.244
-247.005	573.769	0.046	-0.112
-245.990	-110.032	0.247	0.051
-244.976	40.833	-0.111	0.099
-243.961	58.287	0.026	0.025
-242.946	99.530	0.153	-0.176
-241.932	-96.089	-0.372	0.098
-240.917	569.248	-0.085	-0.205
-239.903	-200.000	0.062	-0.430
-238.888	-17.632	0.373	-0.233
-237.873	-200.000	0.002	0.020
-236.859	-77.794	-0.319	-0.110
-235.844	-137.458	0.155	0.017
-234.830	45.261	0.139	-0.128
-233.815	-148.215	-0.217	0.018
-232.800	-200.000	0.053	0.241
-231.786	-144.605	0.235	-0.022
-230.771	-200.000	-0.052	-0.461
-229.757	-13.495	-0.095	0.061
-228.742	-200.000	-0.008	0.077
-227.727	-79.070	-0.219	0.074
-226.713	392.743	0.058	-0.120
-225.698	494.327	-0.044	-0.100
-224.684	27.868	0.307	-0.257
-223.669	-108.590	-0.371	-0.079
-222.655	-200.000	0.051	0.290
-221.640	-55.369	-0.240	0.107
-220.625	6.294	-0.036	0.026
-219.611	-15.941	-0.103	0.065
-218.596	-200.000	0.063	0.387
-217.582	109.776	-0.060	-0.072
-216.567	-200.000	-0.044	0.194
-215.552	-127.304	0.352	0.051
-214.538	-21.949	-0.191	0.115
-213.523	188.191	-0.170	0.252
-212.509	198.442	0.093	0.141
-211.494	-169.738	0.199	-0.007
-210.479	800.000	0.029	0.096
-209.465	12.711	-0.192	-0.147
-208.450	-79.311	0.254	0.085
-207.436	-71.819	-0.183	0.068
-206.421	364.189	-0.061	0.122
-205.406	800.000	-0.053	0.186
-204.392	683.617	-0.165	-0.426
-203.377	320.456	-0.116	0.218
-202.363	31.939	-0.053	-0.045
-201.348	140.656	-0.146	0.191
-200.333	-39.257	0.234	-0.122
-199.319	-200.000	-0.006	0.107
-198.304	637.848	-0.115	-0.291
-197.290	326.035	0.079	-0.150
-196.275	-200.000	-0.039	0.302
-195.260	199.528	0.117	0.179
-194.246	-134.304	-0.299	-0.037
-193.231	-134.766	0.148	0.018
-192.217	394.601	-0.216	0.446
-191.202	596.009	0.165	0.405
-190.187	-163.361	-0.132	0.006
-189.173	295.563	0.153	0.278
-188.158	432.832	-0.062	0.134
-187.144	-19.776	-0.253	0.155
-186.129	-79.284	0.418	0.140
-185.114	-200.000	-0.074	0.400
-184.100	-200.000	0.032	-0.170
-183.085	-200.000	-0.004	0.311
-182.071	800.000	0.185	0.516
-181.056	300.122	0.028	-0.052
-180.042	102.713	-0.405	0.470
-179.027	-11.004	0.187	0.123
-178.012	-96.657	-0.282	-0.074
-176.998	-200.000	0.027	0.279
-175.983	43.881	0.154	0.140
-174.969	-134.678	-0.139	-0.017
-173.954	-38.041	0.085	-0.045
-172.939	322.400	0.032	0.060
-171.925	-5.526	-0.069	0.047
-170.910	-111.840	-0.141	0.028
-169.896	-93.349	-0.170	0.047
-168.881	-95.193	-0.071	0.019
-167.866	153.261	0.182	0.247
-166.852	-200.000	0.014	0.169
-165.837	800.000	-0.075	-0.243
-164.823	131.042	0.134	-0.170
-163.808	-63.311	0.285	0.116
-162.793	-155.244	-0.292	-0.019
-161.779	-111.633	-0.145	0.029
-160.764	448.135	-0.058	-0.126
-159.750	-3.490	0.273	-0.188
-158.735	133.766	0.244	-0.313
-157.720	-155.014	0.105	-0.007
-156.706	284.020	-0.067	0.120
-155.691	-134.607	0.199	-0.024
-154.677	-24.915	0.271	-0.159
-153.662	72.640	-0.257	-0.266
-152.647	-23.133	-0.235	0.140
-151.633	-91.997	-0.312	-0.087
-150.618	-19.006	0.222	-0.136
-149.604	-135.810	0.326	-0.038
-148.589	-200.000	-0.001	-0.018
-147.574	-51.693	-0.258	-0.119
-146.560	36.830	0.255	0.223
-145.545	32.602	-0.155	-0.133
-144.531	-69.257	-0.170	-0.065
-143.516	-200.000	0.042	0.238
-142.502	-63.260	0.137	0.056
-141.487	-85.940	0.066	0.020
-140.472	-14.003	-0.029	-0.019
-139.458	-79.601	0.197	0.066
-138.443	75.471	0.055	-0.057
-137.429	470.688	0.076	-0.169
-136.414	-200.000	-0.010	-0.051
-135.399	40.685	-0.272	-0.242
-134.385	232.008	0.150	-0.243
-133.370	-200.000	0.019	-0.145
-132.356	-143.616	-0.426	-0.040
-131.341	25.380	0.189	0.156
-130.326	-69.471	0.110	-0.042
-129.312	-37.767	0.099	0.052
-128.297	272.166	-0.035	0.061
-127.283	-39.769	0.192	-0.099
-126.268	-73.582	0.202	0.073
-125.253	-200.000	-0.003	-0.068
-124.239	-200.000	0.002	-0.231
-123.224	-144.619	0.172	-0.016
-122.210	-29.504	0.073	0.041
-121.195	-74.116	0.162	0.058
-120.180	800.000	0.047	-0.130
-119.166	-200.000	0.018	0.171
-118.151	608.708	0.154	0.380
-117.137	604.896	0.011	-0.027
-116.122	-120.477	0.216	-0.036
-115.107	-57.224	0.323	-0.141
-114.093	-116.834	-0.165	0.030
-113.078	-161.533	0.330	0.017
-112.064	-13.881	0.487	-0.311
-111.049	-13.449	-0.109	0.070
-110.034	-43.674	-0.069	0.034
-109.020	800.000	0.066	-0.268
-108.005	38.592	0.186	0.164
-106.991	800.000	0.076	0.231
-105.976	800.000	-0.060	-0.166
-104.962	322.093	0.179	-0.336
-103.947	35.511	-0.068	0.059
-102.932	-125.218	0.174	0.026
-101.918	-132.212	0.161	0.021
-100.903	749.583	0.026	-0.070
-99.889	-122.661	0.122	0.020
-98.874	-200.000	-0.011	-0.062
-97.859	-173.416	-0.248	-0.007
-96.845	-200.000	-0.056	0.244
-95.830	-200.000	0.001	0.018
-94.816	800.000	0.132	0.425
-93.801	-186.116	0.143	-0.002
-92.786	12.332	-0.077	0.059
-91.772	80.133	0.098	-0.105
-90.757	402.541	-0.153	-0.318
-89.743	-52.679	-0.287	0.131
-88.728	-73.894	0.241	0.086
-87.713	-80.283	0.350	0.116
-86.699	-175.179	0.293	-0.008
-85.684	-200.000	0.004	-0.038
-84.670	-85.732	-0.337	0.103
-83.655	-63.002	0.243	0.099
-82.640	-91.803	0.470	0.132
-81.626	9.933	-0.229	0.172
-80.611	-91.115	0.104	0.030
-79.597	-85.764	-0.244	-0.075
-78.582	-120.308	0.043	0.007
-77.567	-98.774	0.239	0.060
-76.553	-130.294	-0.058	0.008
-75.538	-112.857	-0.095	-0.019
-74.524	205.050	-0.071	0.109
-73.509	123.733	-0.147	-0.183
-72.494	800.000	0.072	-0.205
-71.480	-1.396	-0.274	-0.191
-70.465	-200.000	0.010	-0.065
-69.451	-200.000	0.076	-0.536
-68.436	-200.000	0.039	-0.265
-67.422	-128.146	-0.210	-0.030
-66.407	-28.668	-0.244	0.139
-65.392	-110.523	0.415	-0.085
-64.378	-100.345	-0.169	-0.041
-63.363	550.023	0.094	0.223
-62.349	72.314	0.234	0.241
-61.334	95.396	-0.804	-0.904
-60.319	-200.000	0.038	0.390
-59.305	632.985	-0.331	-0.829
-58.290	274.164	0.506	0.883
-57.276	-200.000	0.334	1.519
-56.261	-200.000	97.862	593.226
-55.246	605.726	1429.432	3513.232
-54.232	184.382	2627.728	3839.679
-53.217	118.275	2187.669	2661.518
-52.203	44.521	1633.514	1480.567
-51.188	36.227	1367.332	1188.435
-50.173	33.050	1324.517	1132.180
-49.159	55.386	1372.168	1309.473
-48.144	57.941	1388.866	1340.891
-47.130	36.529	1346.451	1171.930
-46.115	32.884	1329.321	1135.103
-45.100	32.677	1324.429	1129.643
-44.086	32.676	1321.647	1127.216
-43.071	32.576	1319.617	1124.845
-42.057	32.542	1317.530	1122.819
-41.042	32.696	1315.622	1122.063
-40.027	32.696	1313.939	1120.583
-39.013	32.724	1312.203	1119.225
-37.998	32.714	1310.330	1117.524
-36.984	32.736	1308.936	1116.422
-35.969	32.805	1307.257	1115.357
-34.954	32.839	1305.305	1113.844
-33.940	32.791	1304.391	1112.740
-32.925	32.834	1303.134	1111.873
-31.911	32.882	1301.170	1110.436
-30.896	32.868	1299.539	1108.918
-29.881	32.898	1298.516	1108.179
-28.867	32.985	1296.413	1106.848
-27.852	32.921	1295.019	1105.240
-26.838	32.900	1293.593	1103.859
-25.823	32.851	1292.611	1102.690
-24.809	32.734	1291.355	1100.891
-23.794	32.814	1290.007	1100.166
-22.779	32.788	1288.398	1098.597
-21.765	32.867	1287.499	1098.248
-20.750	32.775	1286.047	1096.431
-19.736	32.749	1284.847	1095.215
-18.721	32.691	1284.014	1094.124
-17.706	32.675	1282.483	1092.682
-16.692	32.696	1281.201	1091.667
-15.677	32.658	1280.393	1090.718
-14.663	32.688	1279.160	1089.795
-13.648	32.671	1278.224	1088.856
-12.633	32.636	1277.500	1087.994
-11.619	32.653	1276.560	1087.248
-10.604	32.706	1275.501	1086.609
-9.590	32.645	1274.446	1085.319
-8.575	32.565	1273.461	1083.973
-7.560	32.675	1272.757	1083.968
-6.546	32.515	1272.307	1082.621
-5.531	32.786	1270.527	1082.615
-4.517	32.565	1270.611	1081.377
-3.502	32.673	1269.053	1080.627
-2.487	32.773	1268.137	1080.380
-1.473	32.756	1264.044	1076.749
-0.458	31.692	1249.918	1058.662
0.556	29.924	1231.856	1020.200
1.571	26.110	1237.352	1003.497
2.586	24.807	1251.433	1007.495
3.600	22.994	1238.670	987.018
4.615	17.174	1165.109	897.659
5.629	8.660	1089.877	797.367
6.644	4.770	1069.647	763.445
7.659	4.334	1067.360	759.609
8.673	4.216	1065.276	757.485
9.688	4.142	1064.336	756.387
10.702	4.763	1063.020	758.410
11.717	10.515	1071.278	792.414
12.731	18.897	1083.177	842.393
13.746	22.174	1086.267	860.800
14.761	21.741	1085.698	858.150
15.775	20.933	1083.896	852.702
16.790	20.035	1081.649	846.472
17.804	19.350	1080.112	841.850
18.819	19.121	1079.110	839.878
19.834	18.902	1078.417	838.195
20.848	18.710	1077.869	836.761
21.863	18.588	1076.849	835.302
22.877	18.564	1076.089	834.518
23.892	18.497	1075.075	833.333
24.907	18.531	1074.610	833.067
25.921	18.411	1073.413	831.479
26.936	18.415	1072.020	830.349
27.950	18.414	1070.807	829.331
28.965	18.449	1069.447	828.372
29.980	18.695	1068.163	828.494
30.994	18.823	1067.346	828.401
32.009	18.742	1066.063	826.942
33.023	18.728	1065.319	826.223
34.038	18.614	1063.988	824.572
35.053	18.706	1063.262	824.378
36.067	18.569	1062.346	822.938
37.082	18.599	1061.227	822.144
38.096	18.728	1060.889	822.426
39.111	18.758	1060.464	822.164
40.126	18.563	1058.667	819.770
41.140	18.326	1057.085	817.342
42.155	18.204	1055.967	815.824
43.169	18.042	1055.157	814.351
44.184	18.054	1054.163	813.572
45.199	18.127	1052.942	812.901
46.213	18.411	1052.028	813.475
47.228	18.496	1051.490	813.387
48.242	18.452	1050.749	812.537
49.257	18.399	1049.732	811.425
50.271	18.657	1048.605	811.703
51.286	18.681	1047.791	811.117
52.301	18.421	1047.330	809.461
53.315	18.459	1045.655	808.271
54.330	18.331	1044.334	806.576
55.344	18.263	1043.949	805.886
56.359	18.328	1043.023	805.408
57.374	18.290	1042.354	804.639
58.388	18.155	1040.965	802.864
59.403	18.020	1040.021	801.429
60.417	18.201	1038.964	801.392
61.432	17.960	1039.111	800.307
62.447	17.991	1037.743	799.325
63.461	17.952	1036.853	798.388
64.476	17.823	1035.814	796.916
65.490	17.860	1035.385	796.689
66.505	17.944	1034.566	796.378
67.520	17.917	1034.088	795.812
68.534	17.926	1032.725	794.737
69.549	17.941	1032.574	794.621
70.563	17.786	1031.445	792.961
71.578	17.655	1030.335	791.431
72.593	17.650	1029.559	790.738
73.607	17.640	1029.436	790.528
74.622	17.743	1028.512	790.229
75.636	17.919	1027.556	790.236
76.651	17.794	1026.911	789.093
77.666	17.800	1026.534	788.760
78.680	17.856	1025.880	788.446
79.695	17.897	1025.147	788.004
80.709	18.052	1024.687	788.294
81.724	18.076	1024.266	788.011
82.739	18.344	1023.438	788.541
83.753	18.436	1022.488	788.161
84.768	18.716	1022.015	789.017
85.782	18.910	1021.160	789.176
86.797	18.734	1020.329	787.658
87.812	18.613	1019.435	786.343
88.826	18.730	1018.283	785.919
89.841	18.729	1017.707	785.400
90.855	18.737	1016.779	784.653
91.870	18.805	1016.062	784.341
92.884	18.782	1014.834	783.216
93.899	18.828	1013.836	782.585
94.914	18.865	1013.268	782.248
95.928	18.828	1012.407	781.347
96.943	18.658	1011.654	779.921
97.957	18.616	1010.771	778.982
98.972	18.639	1009.812	778.279
99.987	18.754	1009.006	778.110
101.001	18.739	1007.793	777.035
102.016	18.520	1007.099	775.444
103.030	18.729	1006.431	775.803
104.045	18.698	1005.459	774.845
105.060	18.561	1004.600	773.500
106.074	18.347	1003.357	771.508
107.089	18.139	1002.212	769.626
108.103	18.070	1001.065	768.366
109.118	17.939	1000.282	767.109
110.133	17.986	999.377	766.557
111.147	17.947	998.741	765.826
112.162	18.066	997.588	765.409
113.176	18.082	997.388	765.258
114.191	18.334	996.676	765.772
115.206	18.291	995.687	764.749
116.220	18.153	994.813	763.394
117.235	18.142	994.380	762.948
118.249	18.021	993.445	761.622
119.264	18.002	992.776	760.956
120.279	17.951	992.030	760.091
121.293	17.828	990.796	758.534
122.308	17.781	989.828	757.514
123.322	17.779	988.853	756.692
124.337	17.747	988.366	756.114
125.352	17.745	986.881	754.898
126.366	17.862	985.527	754.313
127.381	17.808	984.820	753.467
128.395	17.920	984.119	753.358
129.410	17.963	983.253	752.820
130.424	18.069	982.514	752.654
131.439	18.169	982.035	752.660
132.454	18.270	981.057	752.290
133.468	18.333	980.185	751.828
134.483	18.152	979.601	750.521
135.497	18.200	978.517	749.837
136.512	18.301	977.848	749.699
137.527	18.297	976.890	748.880
138.541	18.283	976.523	748.472
139.556	18.305	975.555	747.759
140.570	18.547	974.983	748.312
141.585	18.582	974.430	747.971
142.600	18.649	973.703	747.639
143.614	18.824	972.018	747.041
144.629	18.758	971.964	746.647
145.643	18.695	970.852	745.453
146.658	18.550	969.527	743.740
147.673	18.529	968.062	742.458
148.687	18.351	967.424	741.137
149.702	18.185	966.454	739.607
150.716	18.133	965.834	738.843
151.731	18.312	964.983	738.900
152.746	18.237	964.504	738.145
153.760	18.426	963.700	738.277
154.775	18.514	963.600	738.517
155.789	18.547	962.456	737.716
156.804	18.499	961.577	736.771
157.819	18.659	961.046	736.986
158.833	18.775	960.253	736.811
159.848	18.848	959.885	736.774
160.862	18.616	959.153	735.153
161.877	18.501	957.406	733.258
162.892	18.397	955.880	731.580
163.906	18.092	955.522	729.940
164.921	18.327	954.525	730.115
165.935	18.513	953.645	730.171
166.950	18.431	952.885	729.175
167.964	18.466	952.016	728.594
168.979	18.389	951.092	727.494
169.994	18.316	950.419	726.605
171.008	18.447	949.760	726.594
172.023	18.573	949.370	726.767
173.037	18.703	948.867	726.865
174.052	18.675	947.596	725.710
175.067	18.375	946.984	723.909
176.081	18.272	946.078	722.717
177.096	18.226	945.973	722.378
178.110	18.351	945.403	722.409
179.125	18.272	944.881	721.613
180.140	18.515	944.256	722.094
181.154	18.671	943.519	722.124
182.169	18.684	943.388	722.013
183.183	18.727	943.006	721.839
184.198	18.888	941.560	721.342
185.213	18.898	940.978	720.874
186.227	18.784	940.563	720.014
187.242	18.867	940.010	719.876
188.256	19.152	939.546	720.652
189.271	18.992	938.860	719.391
190.286	18.601	937.398	716.573
191.300	18.074	936.438	713.577
192.315	18.183	935.524	713.271
193.329	18.222	935.477	713.336
194.344	18.380	935.307	713.801
195.359	18.493	934.346	713.478
196.373	18.685	933.528	713.587
197.388	18.867	933.600	714.337
198.402	18.970	933.326	714.488
199.417	19.162	932.491	714.586
200.432	19.221	931.933	714.340
201.446	19.343	931.410	714.379
202.461	19.368	931.207	714.265
203.475	19.370	930.207	713.443
204.490	18.956	929.280	710.958
205.504	18.860	928.307	709.754
206.519	18.867	927.686	709.245
207.534	18.676	927.393	708.170
208.548	18.916	925.959	708.001
209.563	18.897	925.571	707.565
210.577	18.896	925.044	707.095
211.592	19.125	925.177	708.074
212.607	19.321	923.899	707.839
213.621	19.183	923.045	706.557
214.636	19.108	922.464	705.739
215.650	19.110	921.836	705.206
216.665	19.155	921.237	704.870
217.680	19.308	920.401	704.794
218.694	19.392	919.912	704.700
219.709	19.275	919.120	703.552
220.723	19.314	918.408	703.105
221.738	19.224	917.944	702.320
222.753	19.302	917.339	702.115
223.767	19.381	916.853	702.000
224.782	19.429	916.422	701.803
225.796	19.540	915.796	701.714
226.811	19.442	914.788	700.482
227.826	19.234	914.507	699.361
228.840	19.146	913.545	698.207
229.855	19.306	912.334	697.867
230.869	19.247	911.565	696.978
231.884	19.136	911.328	696.287
232.899	18.983	910.592	695.044
233.913	18.936	909.556	694.003
234.928	18.937	909.118	693.609
235.942	18.882	908.297	692.699
236.957	18.950	907.984	692.676
237.972	18.972	907.206	692.106
238.986	18.960	906.827	691.710
240.001	19.003	906.167	691.319
241.015	19.144	905.473	691.292
242.030	19.325	905.008	691.603
243.045	19.252	904.406	690.788
244.059	19.272	903.874	690.403
245.074	19.291	903.379	690.039
246.088	19.386	902.585	689.751
247.103	19.490	902.121	689.751
248.117	19.743	901.825	690.476
249.132	19.838	901.389	690.461
250.147	20.119	900.968	691.195
251.161	20.124	900.817	691.038
252.176	20.078	900.403	690.478
253.190	20.211	899.418	690.191
254.205	20.266	898.349	689.529
255.220	20.237	897.530	688.723
256.234	20.159	897.447	688.288
257.249	20.266	896.598	687.999
258.263	20.137	895.955	686.933
259.278	20.079	895.199	686.064
260.293	20.208	894.562	686.027
261.307	20.244	894.520	686.077
262.322	20.399	893.709	686.005
263.336	20.285	893.120	685.042
264.351	20.337	891.622	684.037
265.366	20.400	891.503	684.133
266.380	20.339	890.923	683.389
267.395	20.218	889.929	682.091
268.409	20.166	889.298	681.342
269.424	20.124	888.500	680.506
270.439	20.076	887.692	679.639
271.453	20.042	886.810	678.769
272.468	19.859	886.837	678.014
273.482	19.987	886.292	678.037
274.497	20.013	885.030	677.114
275.512	19.923	884.756	676.491
276.526	19.971	884.075	676.099
277.541	20.051	884.049	676.332
278.555	20.434	883.445	677.306
279.570	20.442	883.094	677.005
280.585	20.488	882.044	676.319
281.599	20.179	880.970	674.236
282.614	20.209	880.526	673.952
283.628	20.082	880.172	673.127
284.643	20.136	879.466	672.737
285.657	20.136	878.925	672.266
286.672	20.288	878.051	672.127
287.687	20.191	877.597	671.342
288.701	20.179	876.902	670.705
289.716	20.216	876.349	670.368
290.730	20.374	875.919	670.590
291.745	20.334	875.356	669.945
292.760	20.403	874.724	669.669
293.774	20.661	874.274	670.259
294.789	20.509	873.604	669.098
295.803	20.370	872.109	667.361
296.818	20.328	871.769	666.881
297.833	20.211	871.223	665.953
298.847	20.364	870.389	665.846
299.862	20.466	869.767	665.701
300.876	20.394	869.582	665.226
301.891	20.522	869.514	665.603
302.906	20.662	868.679	665.442
303.920	20.852	868.373	665.875
304.935	20.836	867.596	665.159
305.949	20.738	866.635	663.990
306.964	20.662	865.917	663.092
307.979	20.637	865.415	662.552
308.993	20.766	865.269	662.875
310.008	20.856	864.298	662.411
311.022	20.716	863.917	661.530
312.037	20.446	863.164	659.870
313.052	20.347	862.106	658.629
314.066	20.329	861.721	658.208
315.081	20.324	861.357	657.851
316.095	20.186	860.995	656.993
317.110	20.138	860.700	656.529
318.125	20.237	859.831	656.181
319.139	20.306	859.108	655.833
320.154	20.417	858.614	655.818
321.168	20.347	858.370	655.308
322.183	20.349	858.077	655.034
323.197	20.486	857.576	655.110
324.212	20.559	856.767	654.710
325.227	20.569	855.894	654.023
326.241	20.483	855.311	653.195
327.256	20.365	855.036	652.486
328.270	20.414	854.359	652.095
329.285	20.294	853.582	650.993
330.300	20.499	852.806	651.111
331.314	20.393	852.501	650.423
332.329	20.691	852.056	651.144
333.343	20.770	851.670	651.084
334.358	20.500	851.465	649.861
335.373	20.797	851.143	650.668
336.387	20.715	850.868	650.095
337.402	20.830	850.487	650.174
338.416	21.072	850.138	650.753
339.431	21.070	849.835	650.456
340.446	21.172	849.561	650.568
341.460	21.408	849.042	650.992
342.475	21.183	849.190	650.210
343.489	21.380	848.557	650.403
344.504	21.531	847.711	650.258
345.519	21.578	847.197	649.981
346.533	21.288	846.932	648.642
347.548	21.002	846.143	646.919
348.562	20.932	846.036	646.520
349.577	20.787	845.282	645.348
350.592	20.788	844.159	644.438
351.606	20.673	843.540	643.483
352.621	20.972	842.365	643.637
353.635	20.907	841.955	643.027
354.650	20.997	841.986	643.324
355.665	21.003	841.035	642.561
356.679	21.190	840.380	642.694
357.694	21.171	839.656	642.015
358.708	21.172	838.910	641.389
359.723	20.890	838.883	640.276
360.738	21.063	838.005	640.185
361.752	21.224	837.359	640.226
362.767	21.330	837.164	640.409
363.781	21.344	836.635	639.997
364.796	21.531	836.292	640.362
365.810	21.677	835.930	640.561
366.825	21.684	835.650	640.316
367.840	21.721	835.123	639.991
368.854	21.462	834.658	638.632
369.869	21.406	834.128	637.965
370.883	21.584	833.340	637.956
371.898	21.636	833.132	637.930
372.913	21.660	832.807	637.711
373.927	21.545	832.119	636.712
374.942	21.707	831.490	636.760
375.956	21.750	831.544	636.904
376.971	21.853	831.018	636.817
377.986	21.945	830.419	636.636
379.000	21.885	830.009	636.047
380.015	21.825	829.369	635.283
381.029	21.811	829.140	635.003
382.044	21.763	828.308	634.135
383.059	21.892	827.540	633.955
384.073	21.808	827.028	633.206
385.088	21.434	826.509	631.401
386.102	21.559	825.576	631.083
387.117	21.412	825.281	630.273
388.132	21.553	824.662	630.251
389.146	21.698	824.242	630.398
390.161	21.753	823.956	630.319
391.175	21.820	823.336	630.032
392.190	21.674	822.752	629.005
393.205	21.627	822.196	628.354
394.219	21.649	821.719	628.013
395.234	21.578	821.187	627.298
396.248	21.471	820.461	626.304
397.263	21.246	820.520	625.488
398.278	21.341	819.729	625.167
399.292	21.426	819.444	625.202
400.307	21.437	818.747	624.651
401.321	21.461	818.360	624.388
402.336	21.385	818.180	623.924
403.350	21.610	817.559	624.198
404.365	21.787	817.258	624.542
405.380	21.931	816.731	624.596
406.394	21.977	816.217	624.313
407.409	22.047	816.028	624.361
408.423	22.086	815.805	624.274
409.438	22.251	815.355	624.461
410.453	22.226	815.097	624.119
411.467	22.321	814.537	623.972
412.482	22.410	814.198	623.972
413.496	22.322	813.827	623.321
414.511	22.431	813.508	623.410
415.526	22.335	812.642	622.350
416.540	22.105	812.697	621.523
417.555	22.349	811.847	621.678
418.569	22.351	811.483	621.354
419.584	22.325	811.162	620.960
420.599	22.272	810.917	620.532
421.613	161.015	1369.795	1792.750
422.628	140.186	1451.217	1792.854
