DTS Sentinel unit serial number:	SN413079Multiplexer serial number:	ORYXHardware model number:	OX4-SRSoftware version number:	ORYX F/W v4.00 Oryx Data Collector v3.7.2.0data status	okinstallation	princeton_trtdifferential loss correction	single-endedforward channel	channel 1reverse channel	N/Adate	2019/09/18time	23:50:35forward acquisition time	60.00reverse acquisition time	0.00gamma	496.2192k internal	0.2343k external	0.2343temperature offset calibration	1.0021default loss term (dB/km)	0.3790temperature slope calibration	1.0000multiplexer offset coefficient	1.0000multiplexer slope coefficient	1.0000fibre end	0.00T internal ref (°C)	23.28T ext. ref 1 (°C)	0.76T ext. ref 2 (°C)	16.16length (m)	temperature (°C)	Stokes	anti-Stokes-747.200	-200.000	-0.018	0.182
-746.185	189.123	0.041	0.061
-745.171	733.291	-0.055	-0.148
-744.156	-107.463	-0.044	0.010
-743.142	-136.326	0.122	-0.014
-742.127	800.000	-0.110	0.373
-741.112	-200.000	-0.025	0.155
-740.098	116.081	0.065	-0.080
-739.083	100.027	-0.251	0.291
-738.069	77.662	0.156	0.167
-737.054	800.000	0.114	0.315
-736.039	177.063	-0.139	0.203
-735.025	800.000	-0.061	0.250
-734.010	168.189	-0.295	-0.421
-732.996	-200.000	0.016	-0.153
-731.981	-117.762	-0.098	0.018
-730.966	82.371	-0.119	0.129
-729.952	39.607	-0.098	-0.088
-728.937	-108.275	-0.132	0.029
-727.923	664.238	0.073	-0.189
-726.908	-200.000	-0.018	0.243
-725.894	467.794	0.103	0.231
-724.879	-1.612	0.311	-0.219
-723.864	72.610	-0.054	0.056
-722.850	308.608	0.093	-0.173
-721.835	-104.094	0.294	-0.068
-720.821	-200.000	0.037	0.261
-719.806	195.158	-0.153	-0.232
-718.791	-200.000	0.048	0.242
-717.777	-200.000	0.059	0.317
-716.762	59.660	-0.326	-0.322
-715.748	-104.156	0.086	0.020
-714.733	-192.018	-0.363	-0.004
-713.718	11.474	-0.170	-0.130
-712.704	36.491	-0.224	0.197
-711.689	-200.000	0.031	-0.177
-710.675	250.795	-0.117	0.200
-709.660	38.485	0.297	-0.264
-708.645	-200.000	0.054	-0.359
-707.631	-148.893	-0.168	0.014
-706.616	-52.554	0.231	-0.107
-705.602	-66.004	-0.261	-0.104
-704.587	29.813	-0.122	0.104
-703.572	-10.625	0.370	-0.245
-702.558	336.321	0.061	-0.118
-701.543	-200.000	-0.006	0.125
-700.529	-95.098	-0.077	-0.021
-699.514	-147.641	0.259	-0.022
-698.499	-45.979	0.034	-0.017
-697.485	-200.000	-0.021	-0.218
-696.470	-116.031	0.274	0.051
-695.456	800.000	-0.084	-0.310
-694.441	-200.000	-0.035	-0.398
-693.426	145.786	-0.150	-0.201
-692.412	22.480	0.250	-0.204
-691.397	-187.595	0.149	0.002
-690.383	80.040	-0.204	-0.219
-689.368	370.202	0.010	-0.020
-688.354	58.803	0.224	0.220
-687.339	181.703	-0.172	-0.253
-686.324	-147.906	-0.129	0.011
-685.310	-200.000	0.027	-0.217
-684.295	-107.454	-0.222	-0.049
-683.281	287.694	0.288	-0.520
-682.266	-9.175	-0.176	0.118
-681.251	-106.118	-0.267	0.060
-680.237	27.363	-0.082	0.068
-679.222	-200.000	0.052	0.412
-678.208	800.000	0.104	-0.408
-677.193	-5.800	-0.174	-0.119
-676.178	101.750	-0.021	-0.024
-675.164	21.643	-0.084	-0.068
-674.149	-109.586	-0.112	0.024
-673.135	464.461	0.135	-0.302
-672.120	-64.478	0.161	-0.065
-671.105	-59.359	-0.118	-0.051
-670.091	-200.000	0.208	0.001
-669.076	-200.000	0.053	-0.258
-668.062	72.078	-0.094	0.097
-667.047	257.462	0.099	-0.171
-666.032	280.311	-0.184	-0.329
-665.018	-2.076	0.103	-0.072
-664.003	-61.445	-0.055	-0.023
-662.989	30.166	-0.093	-0.079
-661.974	-33.326	0.139	0.077
-660.959	-69.429	0.201	0.077
-659.945	393.892	-0.071	0.147
-658.930	106.698	-0.261	0.310
-657.916	-27.407	0.078	-0.045
-656.901	224.870	-0.069	-0.111
-655.886	369.045	0.059	-0.119
-654.872	63.246	0.085	-0.085
-653.857	306.949	-0.131	-0.243
-652.843	-14.450	0.154	0.099
-651.828	-17.832	0.141	0.088
-650.814	-200.000	0.017	-0.097
-649.799	-52.218	-0.152	0.071
-648.784	-79.505	-0.205	-0.069
-647.770	-80.818	-0.224	0.074
-646.755	-93.145	-0.250	-0.070
-645.741	-34.223	-0.073	0.040
-644.726	-200.000	0.003	0.294
-643.711	-109.578	-0.437	0.092
-642.697	800.000	0.038	-0.135
-641.682	-200.000	0.041	-0.191
-640.668	-200.000	0.063	-0.376
-639.653	800.000	-0.065	0.205
-638.638	-200.000	0.072	0.352
-637.624	-44.428	0.279	-0.139
-636.609	526.542	-0.061	-0.143
-635.595	385.603	0.098	-0.201
-634.580	-151.838	0.468	-0.034
-633.565	227.357	0.072	-0.117
-632.551	-166.488	-0.546	0.023
-631.536	-118.667	0.271	0.048
-630.522	19.838	0.173	-0.139
-629.507	-129.301	-0.097	-0.013
-628.492	130.591	-0.038	0.049
-627.478	-146.104	0.053	0.005
-626.463	67.865	-0.091	0.093
-625.449	162.884	-0.163	-0.228
-624.434	-61.241	0.226	0.095
-623.419	-63.238	-0.426	-0.175
-622.405	273.758	-0.219	-0.387
-621.390	-107.813	0.033	-0.007
-620.376	520.006	0.064	-0.150
-619.361	198.455	0.211	0.321
-618.346	2.207	-0.204	-0.147
-617.332	800.000	-0.027	0.113
-616.317	800.000	-0.043	-0.185
-615.303	367.368	0.153	0.308
-614.288	-61.450	-0.210	0.088
-613.273	800.000	0.030	-0.101
-612.259	800.000	-0.145	0.446
-611.244	800.000	-0.146	-0.411
-610.230	385.193	-0.169	-0.347
-609.215	24.230	0.144	0.119
-608.201	-146.258	0.267	0.023
-607.186	800.000	0.034	-0.122
-606.171	386.735	0.184	0.378
-605.157	39.926	0.371	0.332
-604.142	-102.361	-0.190	0.045
-603.128	353.188	0.058	-0.114
-602.113	549.013	0.132	0.314
-601.098	-200.000	0.000	-0.088
-600.084	-200.000	0.010	0.252
-599.069	-200.000	-0.039	0.270
-598.055	-112.639	-0.319	-0.063
-597.040	-63.897	0.215	0.088
-596.025	-20.195	-0.033	0.021
-595.011	77.196	-0.209	-0.221
-593.996	44.840	-0.164	-0.151
-592.982	75.642	0.328	-0.345
-591.967	-200.000	0.002	-0.268
-590.952	-24.490	-0.135	-0.080
-589.938	73.834	-0.108	0.113
-588.923	800.000	0.020	0.078
-587.909	-75.261	-0.102	0.036
-586.894	108.763	-0.110	0.130
-585.879	-200.000	0.023	0.421
-584.865	240.450	-0.065	0.107
-583.850	540.051	-0.103	0.243
-582.836	-58.002	-0.237	0.103
-581.821	-200.000	-0.006	0.306
-580.806	-200.000	-0.028	0.219
-579.792	-200.000	0.072	0.449
-578.777	-54.028	-0.392	-0.177
-577.763	800.000	0.028	0.102
-576.748	-165.440	-0.135	-0.006
-575.733	-90.317	0.186	-0.054
-574.719	-200.000	-0.017	-0.226
-573.704	800.000	0.028	0.083
-572.690	-114.679	-0.158	0.030
-571.675	104.919	0.087	-0.102
-570.661	71.511	0.231	-0.238
-569.646	255.635	0.130	-0.222
-568.631	-129.016	0.271	-0.038
-567.617	-15.873	-0.123	0.078
-566.602	84.369	-0.121	-0.131
-565.588	-4.732	-0.250	-0.172
-564.573	-200.000	-0.029	-0.164
-563.558	-0.869	0.320	-0.225
-562.544	-105.546	-0.330	0.075
-561.529	-63.713	0.065	0.026
-560.515	56.678	-0.165	-0.159
-559.500	-200.000	0.031	-0.318
-558.485	-200.000	0.040	0.286
-557.471	-117.544	0.222	0.040
-556.456	800.000	0.053	0.207
-555.442	-33.995	0.102	-0.056
-554.427	-66.181	-0.033	0.013
-553.412	-200.000	0.018	-0.098
-552.398	77.348	0.083	-0.088
-551.383	112.775	0.065	0.078
-550.369	511.072	0.101	0.233
-549.354	302.992	0.007	0.013
-548.339	-57.399	0.162	-0.071
-547.325	14.688	-0.221	0.172
-546.310	-9.298	0.164	-0.109
-545.296	-200.000	-0.018	-0.173
-544.281	-91.712	-0.172	0.049
-543.266	-35.155	-0.250	-0.135
-542.252	-74.337	-0.290	-0.104
-541.237	-200.000	-0.049	-0.242
-540.223	-33.601	0.144	-0.079
-539.208	-165.827	-0.157	0.007
-538.193	-94.154	0.248	0.067
-537.179	-200.000	0.018	-0.241
-536.164	-11.741	-0.156	-0.102
-535.150	-5.370	0.168	0.115
-534.135	-51.255	-0.112	0.052
-533.121	30.616	-0.052	0.045
-532.106	106.487	-0.157	-0.185
-531.091	-41.215	-0.364	0.187
-530.077	90.910	0.119	-0.133
-529.062	150.688	0.101	0.136
-528.048	152.811	-0.118	0.160
-527.033	93.901	0.163	-0.183
-526.018	359.881	-0.070	-0.140
-525.004	-200.000	-0.003	0.204
-523.989	82.492	0.091	0.098
-522.975	272.141	0.037	-0.064
-521.960	-109.720	0.279	0.058
-520.945	311.590	-0.100	-0.186
-519.931	800.000	0.092	-0.396
-518.916	-4.774	-0.099	0.068
-517.902	207.536	-0.151	0.234
-516.887	629.729	0.007	0.018
-515.872	53.886	-0.015	-0.015
-514.858	-200.000	0.013	0.062
-513.843	-4.551	-0.378	-0.259
-512.829	800.000	0.081	0.230
-511.814	-38.966	-0.119	0.062
-510.799	150.894	-0.094	-0.127
-509.785	800.000	-0.038	0.127
-508.770	-155.509	0.166	-0.011
-507.756	229.694	0.013	-0.022
-506.741	414.956	0.109	-0.231
-505.726	-65.119	0.340	-0.136
-504.712	-200.000	0.008	-0.188
-503.697	-155.986	-0.281	0.018
-502.683	-1.831	-0.221	-0.154
-501.668	-112.739	0.319	-0.063
-500.653	130.010	-0.084	0.107
-499.639	-157.496	-0.213	0.013
-498.624	202.390	0.031	-0.047
-497.610	-200.000	-0.007	0.058
-496.595	-0.930	0.227	-0.160
-495.581	-194.703	-0.045	0.000
-494.566	-69.131	-0.186	-0.071
-493.551	-77.205	-0.110	0.038
-492.537	144.314	-0.065	-0.086
-491.522	221.878	-0.148	0.235
-490.508	103.565	0.240	-0.279
-489.493	577.660	-0.127	-0.308
-488.478	14.712	0.254	-0.197
-487.464	169.530	-0.172	-0.243
-486.449	-149.106	0.102	-0.008
-485.435	800.000	-0.082	0.266
-484.420	3.788	0.147	0.106
-483.405	318.203	-0.094	-0.177
-482.391	-56.612	0.254	-0.111
-481.376	-200.000	-0.059	-0.298
-480.362	-110.913	-0.356	-0.073
-479.347	-23.050	-0.252	-0.150
-478.332	-122.774	0.308	0.049
-477.318	-200.000	-0.022	-0.265
-476.303	-189.990	-0.138	0.002
-475.289	131.203	-0.194	0.247
-474.274	745.044	0.125	-0.332
-473.259	-142.851	0.201	-0.019
-472.245	737.033	0.132	-0.351
-471.230	254.397	-0.062	-0.106
-470.216	-200.000	0.052	0.251
-469.201	-200.000	-0.035	0.172
-468.186	-93.417	-0.100	0.027
-467.172	334.996	0.055	0.105
-466.157	-165.984	-0.471	0.020
-465.143	800.000	0.021	0.087
-464.128	324.207	0.113	0.213
-463.113	800.000	-0.068	0.265
-462.099	143.076	-0.170	-0.224
-461.084	-30.073	0.170	0.096
-460.070	-44.513	-0.250	0.124
-459.055	99.048	0.167	-0.191
-458.040	-55.867	0.072	-0.032
-457.026	-75.924	0.508	-0.178
-456.011	161.250	-0.184	0.255
-454.997	-25.789	-0.194	-0.113
-453.982	-200.000	0.005	0.077
-452.968	87.291	0.075	0.082
-451.953	-144.633	-0.284	-0.026
-450.938	47.987	-0.262	0.242
-449.924	446.221	0.060	0.131
-448.909	800.000	-0.104	-0.378
-447.895	47.406	-0.139	-0.128
-446.880	7.135	-0.253	-0.187
-445.865	77.260	0.125	-0.132
-444.851	376.219	-0.077	0.157
-443.836	800.000	0.008	0.028
-442.822	513.160	0.144	-0.333
-441.807	521.136	-0.031	0.072
-440.792	-200.000	0.002	0.134
-439.778	688.791	0.061	-0.158
-438.763	-200.000	-0.041	0.228
-437.749	-12.902	-0.136	-0.087
-436.734	-72.738	-0.232	-0.085
-435.719	-69.246	-0.123	-0.047
-434.705	800.000	0.067	0.195
-433.690	-13.414	0.266	-0.171
-432.676	9.586	-0.220	0.165
-431.661	-81.126	0.211	0.069
-430.646	-200.000	0.029	-0.323
-429.632	-122.666	-0.140	-0.022
-428.617	46.936	0.035	0.033
-427.603	800.000	0.121	0.350
-426.588	-200.000	-0.011	-0.062
-425.573	118.125	-0.148	0.181
-424.559	549.157	0.130	0.308
-423.544	-116.896	-0.167	0.030
-422.530	364.684	-0.179	0.356
-421.515	194.385	0.104	-0.156
-420.500	15.210	0.265	-0.206
-419.486	-113.856	0.042	0.008
-418.471	-121.412	-0.066	0.011
-417.457	607.448	-0.150	-0.370
-416.442	695.113	0.147	-0.381
-415.428	-200.000	0.008	0.132
-414.413	-200.000	-0.009	0.070
-413.398	-18.236	0.148	-0.092
-412.384	-200.000	0.010	-0.179
-411.369	415.632	0.152	0.321
-410.355	-134.407	-0.222	-0.027
-409.340	-49.954	-0.107	0.050
-408.325	-56.784	-0.085	0.037
-407.311	-200.000	-0.019	0.135
-406.296	-200.000	-0.008	-0.072
-405.282	-1.106	-0.049	0.034
-404.267	-29.634	-0.329	0.186
-403.252	294.957	0.099	0.180
-402.238	410.494	0.009	-0.018
-401.223	-120.697	-0.157	0.026
-400.209	20.036	-0.284	0.226
-399.194	-87.845	-0.241	0.072
-398.179	-77.683	-0.148	0.050
-397.165	-96.453	0.088	-0.023
-396.150	267.844	0.028	0.048
-395.136	-200.000	0.312	0.000
-394.121	800.000	0.042	-0.132
-393.106	437.174	-0.104	0.223
-392.092	157.827	-0.190	0.260
-391.077	-101.334	0.205	-0.049
-390.063	-83.904	-0.278	-0.087
-389.048	102.485	0.104	-0.120
-388.033	9.545	0.216	-0.162
-387.019	-105.632	-0.315	0.071
-386.004	21.615	0.266	0.214
-384.990	-3.426	0.170	-0.117
-383.975	44.754	0.137	-0.125
-382.960	-184.419	-0.233	0.004
-381.946	21.554	-0.116	0.093
-380.931	800.000	-0.066	-0.242
-379.917	169.486	-0.102	0.144
-378.902	800.000	0.032	0.118
-377.888	678.645	0.094	0.241
-376.873	656.295	-0.062	0.158
-375.858	-23.025	0.116	-0.069
-374.844	-87.395	0.278	-0.083
-373.829	-127.740	0.269	0.038
-372.815	448.859	0.100	0.218
-371.800	-147.228	-0.216	-0.018
-370.785	388.801	-0.023	-0.047
-369.771	-137.173	0.091	0.010
-368.756	800.000	-0.046	0.128
-367.742	800.000	-0.077	-0.299
-366.727	800.000	-0.058	-0.210
-365.712	368.047	0.240	0.478
-364.698	152.242	0.157	0.211
-363.683	58.781	0.252	-0.244
-362.669	92.977	0.080	0.089
-361.654	800.000	-0.120	-0.341
-360.639	43.738	-0.113	-0.102
-359.625	-200.000	0.015	0.112
-358.610	-200.000	-0.030	0.133
-357.596	-200.000	-0.014	0.083
-356.581	237.011	0.102	0.167
-355.566	-89.618	0.120	-0.035
-354.552	163.150	0.063	0.087
-353.537	-22.884	-0.272	0.162
-352.523	452.910	-0.066	-0.144
-351.508	239.652	-0.019	0.031
-350.493	270.444	0.045	-0.078
-349.479	800.000	0.066	-0.199
-348.464	-107.213	-0.216	0.047
-347.450	-59.027	0.263	0.112
-346.435	-170.678	-0.134	-0.005
-345.420	756.128	0.115	-0.306
-344.406	20.002	-0.049	0.039
-343.391	115.916	0.085	0.102
-342.377	-115.608	-0.250	-0.046
-341.362	-18.554	0.100	-0.061
-340.348	175.822	0.102	0.146
-339.333	-143.997	-0.369	0.034
-338.318	-114.043	0.400	-0.076
-337.304	134.765	-0.041	0.053
-336.289	-109.687	0.210	-0.044
-335.275	118.449	0.069	0.084
-334.260	800.000	-0.156	-0.436
-333.245	109.139	0.148	0.175
-332.231	44.358	-0.127	-0.115
-331.216	785.594	0.059	-0.159
-330.202	-147.046	0.238	0.020
-329.187	-15.674	0.342	0.215
-328.172	93.824	-0.199	-0.222
-327.158	-29.870	-0.038	0.021
-326.143	-200.000	-0.004	0.019
-325.129	-200.000	-0.016	-0.084
-324.114	-78.974	-0.123	-0.041
-323.099	800.000	-0.080	0.295
-322.085	-200.000	0.045	0.339
-321.070	-15.402	0.226	0.142
-320.056	167.326	-0.186	0.261
-319.041	-200.000	-0.024	0.148
-318.026	-140.384	0.181	0.019
-317.012	-200.000	-0.104	-0.588
-315.997	-58.099	0.157	-0.067
-314.983	-200.000	0.054	0.257
-313.968	33.771	0.017	-0.015
-312.953	12.737	-0.077	0.058
-311.939	-114.329	0.262	-0.050
-310.924	5.588	0.193	-0.140
-309.910	800.000	-0.054	-0.188
-308.895	-14.130	0.089	-0.057
-307.880	45.096	0.110	-0.100
-306.866	-35.711	-0.159	0.085
-305.851	-116.957	-0.074	-0.013
-304.837	151.621	0.192	-0.257
-303.822	-200.000	0.053	0.253
-302.807	-164.773	-0.313	0.014
-301.793	-21.831	-0.209	0.125
-300.778	-122.104	-0.177	0.029
-299.764	37.682	-0.071	0.062
-298.749	-159.455	0.087	0.005
-297.735	-200.000	0.042	-0.193
-296.720	43.255	0.167	0.150
-295.705	-31.271	-0.337	0.187
-294.691	-98.906	0.079	0.020
-293.676	800.000	-0.075	-0.221
-292.662	-114.963	0.372	0.070
-291.647	-8.141	0.102	-0.068
-290.632	52.679	0.317	0.298
-289.618	-125.949	-0.216	-0.032
-288.603	379.524	-0.094	-0.189
-287.589	72.429	-0.116	0.119
-286.574	273.095	-0.069	-0.119
-285.559	-26.349	-0.176	0.102
-284.545	-16.736	-0.258	0.161
-283.530	273.820	0.048	0.083
-282.516	-104.278	0.141	0.032
-281.501	-155.912	-0.089	-0.006
-280.486	-100.621	-0.104	0.025
-279.472	-200.000	-0.036	-0.168
-278.457	-97.251	-0.084	0.022
-277.443	800.000	-0.040	0.151
-276.428	-200.000	-0.011	0.085
-275.413	561.907	0.130	-0.308
-274.399	-152.030	-0.353	0.025
-273.384	-59.193	-0.210	-0.089
-272.370	416.516	0.149	0.313
-271.355	-200.000	0.000	-0.126
-270.340	800.000	-0.082	-0.321
-269.326	-118.917	-0.292	0.050
-268.311	-20.641	0.477	0.288
-267.297	-200.000	-0.017	-0.131
-266.282	390.717	0.055	-0.112
-265.267	-71.930	0.120	-0.044
-264.253	91.761	0.183	-0.202
-263.238	-200.000	-0.014	0.218
-262.224	583.889	-0.057	0.138
-261.209	-87.979	0.112	-0.033
-260.195	743.785	-0.069	-0.183
-259.180	-123.506	0.660	-0.103
-258.165	195.271	-0.138	0.206
-257.151	-25.052	0.254	-0.148
-256.136	14.839	-0.038	-0.029
-255.122	270.900	0.253	-0.437
-254.107	-120.169	-0.238	0.040
-253.092	521.320	0.189	0.436
-252.078	119.108	-0.059	-0.071
-251.063	-9.816	-0.100	-0.066
-250.049	605.629	-0.176	0.431
-249.034	-79.127	0.109	0.036
-248.019	-115.415	0.196	0.036
-247.005	-47.774	-0.296	0.141
-245.990	295.836	-0.067	-0.121
-244.976	-46.270	0.210	-0.101
-243.961	-110.735	-0.118	-0.024
-242.946	60.997	-0.304	0.296
-241.932	309.123	0.354	0.649
-240.917	215.767	-0.051	-0.080
-239.903	800.000	0.048	-0.147
-238.888	-152.164	0.268	-0.019
-237.873	2.921	-0.029	-0.021
-236.859	-200.000	0.015	0.392
-235.844	29.465	0.030	0.025
-234.830	-14.666	-0.055	-0.035
-233.815	800.000	0.071	0.218
-232.800	6.013	-0.268	-0.195
-231.786	-8.587	-0.040	-0.026
-230.771	-114.038	0.274	0.052
-229.757	-2.634	0.203	-0.140
-228.742	-44.706	-0.178	-0.087
-227.727	382.019	-0.115	-0.233
-226.713	-109.407	-0.155	-0.032
-225.698	-200.000	0.010	-0.287
-224.684	-9.821	0.239	-0.156
-223.669	68.159	-0.187	0.188
-222.655	-200.000	-0.021	-0.287
-221.640	169.236	-0.069	-0.097
-220.625	800.000	-0.130	0.489
-219.611	-72.305	0.088	-0.032
-218.596	785.318	-0.103	0.277
-217.582	181.948	0.165	-0.239
-216.567	-75.119	0.531	-0.186
-215.552	-200.000	-0.006	-0.244
-214.538	87.006	0.163	-0.177
-213.523	531.292	0.170	0.395
-212.509	68.874	-0.189	-0.190
-211.494	-50.448	0.184	-0.085
-210.479	8.027	0.084	0.062
-209.465	-200.000	-0.001	0.020
-208.450	266.904	0.159	0.272
-207.436	118.713	0.028	-0.033
-206.421	110.877	0.226	-0.266
-205.406	-200.000	0.033	0.259
-204.392	-74.431	0.451	-0.159
-203.377	-99.776	0.282	0.069
-202.363	-68.102	0.302	0.115
-201.348	800.000	-0.075	-0.302
-200.333	-200.000	0.005	-0.210
-199.319	-119.025	-0.175	0.030
-198.304	-25.826	-0.077	0.044
-197.290	185.459	-0.114	-0.166
-196.275	-138.459	0.095	0.010
-195.260	-200.000	-0.028	-0.309
-194.246	226.972	0.210	-0.334
-193.231	-68.661	-0.061	0.023
-192.217	29.050	-0.066	0.055
-191.202	-73.245	0.151	0.054
-190.187	-96.311	0.094	-0.024
-189.173	-151.489	0.456	0.033
-188.158	800.000	0.036	0.137
-187.144	-153.338	0.284	-0.019
-186.129	-200.000	0.004	0.181
-185.114	-15.902	0.103	0.064
-184.100	-200.000	0.038	0.398
-183.085	-81.783	-0.042	-0.014
-182.071	800.000	-0.072	0.292
-181.056	-23.545	0.191	0.112
-180.042	-200.000	0.017	0.098
-179.027	-83.876	0.031	-0.010
-178.012	800.000	0.029	-0.094
-176.998	-43.263	0.276	-0.137
-175.983	-36.004	-0.274	-0.145
-174.969	137.630	-0.280	0.358
-173.954	53.676	-0.269	-0.253
-172.939	-200.000	-0.020	-0.208
-171.925	290.614	-0.170	-0.302
-170.910	58.125	0.033	0.032
-169.896	-53.256	-0.103	0.046
-168.881	192.903	-0.094	-0.139
-167.866	-116.062	-0.120	0.022
-166.852	-32.121	0.194	0.106
-165.837	-54.724	0.192	-0.085
-164.823	-69.906	0.130	0.049
-163.808	-200.000	0.042	0.274
-162.793	-83.112	0.131	0.041
-161.779	360.578	0.081	0.159
-160.764	-200.000	-0.013	-0.248
-159.750	12.465	-0.265	0.200
-158.735	-51.097	-0.311	0.143
-157.720	-60.653	0.241	0.100
-156.706	-23.225	0.163	-0.096
-155.691	613.393	0.045	0.109
-154.677	-9.671	-0.071	0.046
-153.662	-130.500	-0.053	-0.007
-152.647	800.000	-0.082	0.311
-151.633	-200.000	0.002	0.143
-150.618	-200.000	-0.049	-0.220
-149.604	-200.000	-0.022	-0.771
-148.589	7.114	-0.186	0.135
-147.574	-200.000	-0.019	0.107
-146.560	-71.577	0.275	0.101
-145.545	-49.812	-0.237	0.110
-144.531	237.354	-0.022	-0.036
-143.516	439.877	-0.172	-0.367
-142.502	-200.000	-0.024	-0.225
-141.487	-47.450	0.148	0.071
-140.472	789.501	-0.102	0.274
-139.458	-200.000	-0.022	-0.308
-138.443	127.350	-0.165	-0.205
-137.429	800.000	0.062	0.259
-136.414	-100.600	0.311	-0.075
-135.399	282.810	-0.268	-0.471
-134.385	311.598	0.131	-0.239
-133.370	-135.375	0.262	-0.031
-132.356	221.679	0.096	0.152
-131.341	-157.579	-0.265	-0.016
-130.326	461.839	0.151	0.330
-129.312	188.338	0.126	-0.184
-128.297	-86.665	0.270	-0.081
-127.283	-200.000	0.003	-0.212
-126.268	-200.000	0.023	0.161
-125.253	-59.402	-0.116	-0.049
-124.239	166.359	-0.080	0.110
-123.224	521.955	0.151	0.346
-122.210	-11.841	0.165	-0.106
-121.195	-92.612	0.179	0.049
-120.180	-67.606	0.231	-0.089
-119.166	-168.863	0.039	-0.001
-118.151	800.000	-0.020	-0.061
-117.137	-200.000	0.001	0.187
-116.122	-136.952	-0.245	0.027
-115.107	173.791	0.030	-0.042
-114.093	800.000	-0.029	-0.084
-113.078	-200.000	0.009	0.040
-112.064	135.761	0.128	-0.163
-111.049	143.754	0.286	-0.373
-110.034	27.573	-0.058	0.047
-109.020	-10.864	-0.186	-0.120
-108.005	-200.000	-0.008	0.081
-106.991	82.311	0.117	-0.124
-105.976	-118.098	0.219	-0.038
-104.962	-122.550	0.171	-0.027
-103.947	74.882	-0.048	-0.049
-102.932	136.266	-0.144	-0.184
-101.918	-200.000	0.077	-0.569
-100.903	587.975	-0.106	0.256
-99.889	146.362	0.210	-0.276
-98.874	126.488	-0.111	-0.137
-97.859	227.747	0.094	-0.149
-96.845	-10.832	0.168	-0.109
-95.830	53.091	-0.037	0.034
-94.816	289.068	-0.053	0.093
-93.801	-187.681	0.180	-0.002
-92.786	-45.242	-0.074	-0.036
-91.772	11.555	-0.100	-0.075
-90.757	408.778	-0.078	-0.161
-89.743	800.000	-0.034	0.095
-88.728	-95.594	0.168	0.044
-87.713	-163.400	-0.276	-0.013
-86.699	-96.209	0.051	-0.013
-85.684	-74.678	0.260	0.091
-84.670	-200.000	-0.006	-0.063
-83.655	-48.400	-0.216	-0.102
-82.640	11.018	-0.108	0.081
-81.626	-125.357	-0.277	0.041
-80.611	308.380	0.122	0.222
-79.597	143.164	0.159	0.206
-78.582	800.000	-0.085	0.250
-77.567	-65.604	-0.029	0.011
-76.553	-200.000	-0.028	-0.183
-75.538	43.400	0.084	0.075
-74.524	-23.474	-0.119	0.069
-73.509	-67.086	-0.082	-0.032
-72.494	245.398	-0.258	-0.424
-71.480	87.435	-0.170	-0.184
-70.465	-89.834	0.509	-0.145
-69.451	-74.799	-0.257	-0.090
-68.436	48.792	-0.120	-0.110
-67.422	-200.000	-0.089	-0.471
-66.407	164.493	-0.121	-0.167
-65.392	-200.000	-0.010	0.213
-64.378	-25.083	-0.150	-0.087
-63.363	-100.808	-0.245	-0.059
-62.349	800.000	-0.036	-0.145
-61.334	-9.320	-1.143	-0.745
-60.319	7.082	0.832	0.605
-59.305	800.000	-0.330	-1.328
-58.290	179.837	0.936	1.337
-57.276	616.400	0.640	1.566
-56.261	-200.000	127.402	689.878
-55.246	423.526	1597.739	3347.516
-54.232	140.236	2751.395	3538.088
-53.217	97.679	2154.449	2413.839
-52.203	35.009	1585.788	1353.357
-51.188	26.740	1328.904	1084.828
-50.173	24.119	1291.713	1039.152
-49.159	53.173	1362.118	1271.326
-48.144	49.386	1373.297	1259.031
-47.130	26.790	1320.844	1078.377
-46.115	23.462	1301.650	1043.120
-45.100	23.269	1296.427	1037.762
-44.086	23.232	1293.744	1035.355
-43.071	23.166	1291.394	1033.050
-42.057	23.176	1289.109	1031.238
-41.042	23.157	1287.906	1030.126
-40.027	23.204	1286.473	1029.212
-39.013	23.199	1284.394	1027.475
-37.998	23.189	1282.892	1026.174
-36.984	23.196	1280.928	1024.606
-35.969	23.244	1279.340	1023.573
-34.954	23.287	1277.773	1022.527
-33.940	23.292	1276.449	1021.453
-32.925	23.360	1275.296	1020.884
-31.911	23.280	1274.220	1019.521
-30.896	23.378	1272.392	1018.580
-29.881	23.395	1271.165	1017.657
-28.867	23.312	1269.699	1015.968
-27.852	23.457	1268.366	1015.693
-26.838	23.462	1266.441	1014.136
-25.823	23.458	1265.739	1013.512
-24.809	23.321	1264.185	1011.446
-23.794	23.288	1263.262	1010.477
-22.779	23.421	1261.860	1010.076
-21.765	23.370	1260.436	1008.604
-20.750	23.183	1259.610	1006.842
-19.736	23.267	1257.886	1005.901
-18.721	23.288	1256.947	1005.226
-17.706	23.296	1255.676	1004.218
-16.692	23.266	1254.524	1003.085
-15.677	23.251	1253.706	1002.308
-14.663	23.258	1252.199	1001.101
-13.648	23.130	1251.435	999.727
-12.633	23.364	1250.162	999.991
-11.619	23.197	1249.688	998.630
-10.604	23.217	1248.721	997.933
-9.590	23.243	1247.795	997.296
-8.575	23.220	1246.630	996.199
-7.560	23.232	1245.972	995.702
-6.546	23.214	1245.258	994.988
-5.531	23.246	1244.211	994.293
-4.517	23.271	1243.562	993.872
-3.502	23.200	1243.134	993.096
-2.487	23.165	1242.033	991.982
-1.473	23.084	1237.304	987.710
-0.458	21.196	1222.369	965.321
0.556	16.772	1206.385	927.965
1.571	12.977	1213.593	912.472
2.586	12.172	1229.229	919.636
3.600	12.106	1217.627	910.512
4.615	9.221	1146.846	842.403
5.629	3.656	1077.359	763.819
6.644	0.943	1061.127	739.014
7.659	0.724	1059.223	736.561
8.673	0.649	1058.656	735.733
9.688	0.715	1057.215	734.986
10.702	0.798	1055.360	734.035
11.717	4.373	1058.059	753.220
12.731	11.135	1067.586	792.951
13.746	15.949	1073.994	821.167
14.761	17.286	1074.954	828.346
15.775	16.625	1073.459	823.906
16.790	15.577	1071.483	817.217
17.804	14.940	1070.001	812.922
18.819	14.648	1068.785	810.505
19.834	14.493	1067.895	809.010
20.848	14.181	1066.981	806.734
21.863	13.920	1066.087	804.719
22.877	13.839	1065.052	803.477
23.892	13.736	1064.867	802.765
24.907	13.742	1063.676	801.825
25.921	13.861	1063.251	802.010
26.936	13.919	1062.467	801.628
27.950	13.733	1061.651	800.047
28.965	13.881	1060.037	799.471
29.980	13.898	1058.977	798.683
30.994	13.894	1057.594	797.549
32.009	14.116	1056.662	797.840
33.023	13.963	1056.145	796.647
34.038	13.877	1054.878	795.207
35.053	13.864	1053.985	794.403
36.067	13.836	1053.486	793.823
37.082	13.932	1052.478	793.451
38.096	13.984	1051.651	793.003
39.111	13.944	1051.064	792.300
40.126	13.840	1049.808	790.789
41.140	13.730	1048.843	789.469
42.155	13.805	1047.597	788.817
43.169	13.800	1046.628	787.994
44.184	13.690	1045.992	786.926
45.199	13.745	1044.892	786.289
46.213	13.725	1043.885	785.365
47.228	13.827	1042.960	785.082
48.242	13.860	1041.479	784.054
49.257	13.773	1040.568	782.889
50.271	13.898	1039.575	782.660
51.286	13.880	1038.798	781.920
52.301	13.893	1038.030	781.338
53.315	13.748	1037.092	779.881
54.330	13.824	1035.994	779.342
55.344	13.859	1034.554	778.352
56.359	13.867	1034.146	778.015
57.374	13.598	1034.019	776.589
58.388	13.624	1032.865	775.777
59.403	13.610	1031.915	774.931
60.417	13.702	1030.931	774.550
61.432	13.675	1030.306	773.889
62.447	13.621	1029.457	772.928
63.461	13.631	1028.936	772.517
64.476	13.673	1027.707	771.719
65.490	13.734	1027.081	771.465
66.505	13.674	1026.455	770.648
67.520	13.741	1025.524	770.194
68.534	13.683	1024.881	769.373
69.549	13.722	1024.111	768.909
70.563	13.716	1023.045	768.011
71.578	13.640	1022.524	767.198
72.593	13.546	1021.712	766.091
73.607	13.597	1021.449	766.062
74.622	13.748	1020.128	765.696
75.636	13.697	1019.331	764.796
76.651	13.576	1018.983	763.910
77.666	13.655	1018.215	763.633
78.680	13.606	1017.866	763.074
79.695	13.704	1017.041	762.841
80.709	13.802	1016.240	762.621
81.724	13.727	1015.923	761.974
82.739	13.818	1014.973	761.609
83.753	13.824	1014.424	761.160
84.768	13.864	1013.543	760.613
85.782	13.892	1012.407	759.820
86.797	13.811	1011.585	758.769
87.812	13.820	1010.387	757.843
88.826	13.824	1009.383	757.043
89.841	13.826	1009.076	756.753
90.855	14.014	1007.679	756.496
91.870	13.875	1007.565	755.710
92.884	13.849	1006.694	754.869
93.899	14.000	1005.435	754.545
94.914	13.983	1004.901	754.000
95.928	14.038	1003.833	753.383
96.943	13.971	1002.939	752.341
97.957	13.868	1002.000	751.103
98.972	13.964	1001.046	750.756
99.987	13.937	1000.461	750.130
101.001	14.025	999.012	749.372
102.016	13.883	998.546	748.316
103.030	14.003	997.812	748.244
104.045	13.957	997.078	747.419
105.060	13.853	996.457	746.417
106.074	13.849	995.493	745.612
107.089	13.749	994.639	744.460
108.103	13.840	993.278	743.781
109.118	13.790	992.826	743.151
110.133	13.773	991.897	742.316
111.147	13.784	990.737	741.430
112.162	13.893	989.927	741.244
113.176	14.049	988.391	740.726
114.191	13.869	988.634	740.038
115.206	13.949	987.979	739.842
116.220	13.971	986.762	738.960
117.235	13.938	985.775	738.013
118.249	13.946	985.064	737.450
119.264	13.924	984.167	736.615
120.279	13.890	983.625	735.994
121.293	13.782	982.870	734.886
122.308	13.760	982.446	734.403
123.322	13.860	980.990	733.694
124.337	13.864	979.974	732.889
125.352	13.948	978.771	732.292
126.366	13.870	977.720	731.099
127.381	13.912	976.436	730.259
128.395	13.832	976.216	729.677
129.410	13.988	974.560	729.059
130.424	13.900	974.276	728.397
131.439	13.846	973.760	727.707
132.454	13.932	972.703	727.231
133.468	13.873	971.911	726.316
134.483	13.876	971.179	725.717
135.497	13.927	970.101	725.070
136.512	13.988	969.537	724.853
137.527	13.958	968.438	723.837
138.541	14.010	967.539	723.326
139.556	13.940	966.975	722.535
140.570	13.983	966.388	722.220
141.585	14.010	965.469	721.588
142.600	14.079	964.694	721.242
143.614	14.104	963.848	720.656
144.629	14.130	963.134	720.169
145.643	14.223	961.860	719.555
146.658	14.087	960.857	718.156
147.673	14.025	960.335	717.434
148.687	13.856	959.684	716.157
149.702	14.016	958.377	715.804
150.716	14.200	957.269	715.706
151.731	14.145	957.076	715.263
152.746	14.178	956.284	714.746
153.760	14.130	955.590	713.960
154.775	14.179	954.713	713.450
155.789	14.011	954.748	712.696
156.804	14.072	954.026	712.354
157.819	14.136	953.454	712.137
158.833	14.216	952.594	711.776
159.848	14.292	951.664	711.342
160.862	14.283	950.675	710.502
161.877	14.207	949.919	709.550
162.892	14.194	948.707	708.524
163.906	14.217	947.768	707.860
164.921	14.218	947.123	707.319
165.935	14.246	946.279	706.743
166.950	14.218	945.489	705.972
167.964	14.328	944.830	705.887
168.979	14.342	943.940	705.216
169.994	14.302	942.727	704.079
171.008	14.310	942.147	703.620
172.023	14.256	941.408	702.778
173.037	14.362	940.661	702.603
174.052	14.193	940.388	701.624
175.067	14.176	939.767	701.027
176.081	14.229	939.599	701.065
177.096	14.330	938.169	700.358
178.110	14.471	937.737	700.567
179.125	14.340	937.373	699.685
180.140	14.405	936.546	699.275
181.154	14.344	936.625	699.016
182.169	14.447	935.779	698.758
183.183	14.471	935.070	698.267
184.198	14.432	933.947	697.204
185.213	14.590	933.211	697.250
186.227	14.614	932.385	696.674
187.242	14.542	932.179	696.155
188.256	14.565	931.789	695.899
189.271	14.494	930.566	694.628
190.286	14.398	930.060	693.788
191.300	14.445	929.352	693.395
192.315	14.290	928.731	692.228
193.329	14.267	928.108	691.604
194.344	14.356	927.846	691.718
195.359	14.467	927.055	691.528
196.373	14.523	926.527	691.306
197.388	14.555	925.961	690.955
198.402	14.692	924.953	690.708
199.417	14.698	924.501	690.334
200.432	14.657	924.192	689.873
201.446	14.836	923.402	689.962
202.461	14.837	922.997	689.602
203.475	14.845	922.976	689.558
204.490	14.709	921.553	687.875
205.504	14.721	920.908	687.382
206.519	14.791	920.096	687.002
207.534	14.723	919.557	686.258
208.548	14.855	918.728	686.124
209.563	14.734	918.125	685.115
210.577	14.942	917.598	685.513
211.592	14.864	916.617	684.400
212.607	14.882	915.833	683.828
213.621	14.890	915.009	683.183
214.636	14.928	914.583	682.962
215.650	14.991	913.642	682.457
216.665	15.014	912.955	681.976
217.680	15.143	912.477	682.084
218.694	14.927	912.048	680.825
219.709	14.994	911.394	680.547
220.723	14.965	910.544	679.736
221.738	14.950	910.259	679.399
222.753	14.956	909.555	678.841
223.767	15.094	908.473	678.530
224.782	15.165	908.052	678.442
225.796	15.217	907.266	678.008
226.811	15.065	907.027	677.152
227.826	15.085	906.112	676.492
228.840	15.054	905.222	675.642
229.855	15.050	904.586	675.093
230.869	15.079	904.037	674.738
231.884	15.206	903.362	674.689
232.899	15.059	902.801	673.617
233.913	15.139	901.865	673.179
234.928	15.094	901.214	672.456
235.942	15.140	900.600	672.122
236.957	15.080	900.219	671.536
237.972	15.213	899.273	671.306
238.986	15.243	898.549	670.826
240.001	15.235	898.019	670.337
241.015	15.007	897.713	669.137
242.030	15.284	896.934	669.606
243.045	15.241	896.301	668.901
244.059	15.196	895.657	668.184
245.074	15.237	895.052	667.834
246.088	15.264	894.294	667.320
247.103	15.337	893.409	666.887
248.117	15.378	893.522	667.077
249.132	15.313	892.968	666.345
250.147	15.448	892.086	666.165
251.161	15.379	891.237	665.197
252.176	15.620	890.069	665.222
253.190	15.586	889.581	664.663
254.205	15.571	889.379	664.394
255.220	15.672	888.183	663.840
256.234	15.695	887.832	663.612
257.249	15.557	887.655	662.876
258.263	15.601	886.717	662.288
259.278	15.749	886.000	662.279
260.293	15.612	885.790	661.523
261.307	15.747	884.730	661.206
262.322	15.741	884.364	660.848
263.336	15.687	883.485	659.922
264.351	15.681	882.713	659.261
265.366	15.736	882.157	659.004
266.380	15.773	881.529	658.623
267.395	15.781	880.991	658.193
268.409	15.940	879.952	657.978
269.424	15.841	879.434	657.148
270.439	15.705	878.989	656.225
271.453	15.790	878.299	655.986
272.468	15.770	877.805	655.480
273.482	15.726	877.100	654.726
274.497	15.865	876.242	654.566
275.512	15.900	875.708	654.244
276.526	15.902	875.518	654.055
277.541	15.937	874.697	653.517
278.555	16.015	873.673	652.997
279.570	16.101	872.911	652.703
280.585	16.138	872.331	652.354
281.599	16.022	871.760	651.422
282.614	16.041	871.174	651.000
283.628	15.897	870.617	649.972
284.643	16.038	870.030	650.017
285.657	15.957	869.615	649.339
286.672	16.046	868.676	648.922
287.687	15.814	868.752	648.027
288.701	16.135	867.632	648.371
289.716	16.128	867.020	647.829
290.730	16.146	866.273	647.283
291.745	16.245	866.002	647.404
292.760	16.336	865.080	647.003
293.774	16.331	864.799	646.717
294.789	16.108	864.256	645.401
295.803	16.212	863.074	644.857
296.818	16.219	862.525	644.419
297.833	16.296	861.989	644.253
298.847	16.316	861.250	643.719
299.862	16.210	860.704	642.853
300.876	16.318	860.495	643.049
301.891	16.265	859.974	642.402
302.906	16.416	859.356	642.457
303.920	16.357	858.867	641.810
304.935	16.510	858.250	641.874
305.949	16.383	857.301	640.629
306.964	16.374	857.081	640.373
307.979	16.455	856.228	639.983
308.993	16.430	855.555	639.329
310.008	16.341	855.615	638.982
311.022	16.401	854.928	638.639
312.037	16.524	853.845	638.237
313.052	16.362	853.602	637.387
314.066	16.449	852.779	637.047
315.081	16.302	852.587	636.293
316.095	16.348	852.094	636.040
317.110	16.537	850.897	635.802
318.125	16.460	851.078	635.592
319.139	16.527	850.529	635.376
320.154	16.466	849.755	634.512
321.168	16.407	849.791	634.263
322.183	16.740	848.655	634.607
323.197	16.639	848.164	633.804
324.212	16.543	847.927	633.211
325.227	16.603	847.583	633.123
326.241	16.613	846.725	632.465
327.256	16.611	846.086	631.922
328.270	16.537	845.598	631.226
329.285	16.625	844.656	630.795
330.300	16.695	844.304	630.739
331.314	16.686	843.656	630.163
332.329	16.700	843.418	629.984
333.343	16.741	842.977	629.750
334.358	16.923	842.173	629.771
335.373	16.808	841.689	628.924
336.387	16.754	841.679	628.663
337.402	16.804	841.457	628.625
338.416	16.823	841.038	628.328
339.431	16.805	840.819	628.041
340.446	16.833	840.433	627.803
341.460	16.735	840.282	627.269
342.475	16.770	839.547	626.794
343.489	17.075	838.739	627.263
344.504	17.060	838.534	626.999
345.519	17.055	837.948	626.489
346.533	17.143	837.396	626.344
347.548	16.923	837.039	625.209
348.562	17.149	836.677	625.716
349.577	17.014	836.126	624.752
350.592	17.004	835.437	624.146
351.606	17.155	834.253	623.763
352.621	16.997	833.599	622.638
353.635	17.131	833.201	622.777
354.650	17.130	832.636	622.295
355.665	17.286	831.830	622.209
356.679	17.152	831.265	621.241
357.694	17.204	830.550	620.841
358.708	17.179	830.243	620.468
359.723	17.176	829.720	620.010
360.738	17.031	829.301	619.114
361.752	17.333	828.382	619.472
362.767	17.147	828.063	618.500
363.781	17.393	827.173	618.676
364.796	17.344	826.554	617.981
365.810	17.415	826.436	618.095
366.825	17.462	825.945	617.846
367.840	17.353	825.405	616.989
368.854	17.279	825.546	616.771
369.869	17.422	824.748	616.641
370.883	17.388	824.159	616.020
371.898	17.337	824.332	615.912
372.913	17.547	823.735	616.170
373.927	17.312	823.282	614.927
374.942	17.596	822.539	615.346
375.956	17.558	822.055	614.791
376.971	17.608	821.496	614.498
377.986	17.592	821.583	614.453
379.000	17.577	820.844	613.792
380.015	17.646	820.186	613.493
381.029	17.694	819.197	612.872
382.044	17.653	819.078	612.583
383.059	17.590	818.889	612.159
384.073	17.677	818.141	611.859
385.088	17.756	817.332	611.481
386.102	17.605	817.037	610.665
387.117	17.642	816.265	610.168
388.132	17.799	815.807	610.333
389.146	17.780	814.967	609.582
390.161	17.772	814.615	609.237
391.175	17.762	814.161	608.808
392.190	17.878	813.577	608.731
393.205	17.801	813.171	608.100
394.219	17.749	812.980	607.717
395.234	17.687	812.669	607.208
396.248	17.740	812.076	606.901
397.263	17.636	812.184	606.558
398.278	17.795	811.522	606.574
399.292	17.889	810.901	606.391
400.307	17.727	810.451	605.426
401.321	17.786	810.226	605.415
402.336	17.782	809.597	604.876
403.350	17.938	809.094	605.001
404.365	17.769	808.774	604.108
405.380	18.006	807.771	604.144
406.394	17.971	807.432	603.715
407.409	17.992	806.897	603.335
408.423	18.110	806.737	603.578
409.438	18.056	806.707	603.310
410.453	18.108	806.116	602.998
411.467	18.050	805.655	602.397
412.482	18.187	805.065	602.386
413.496	18.201	804.813	602.194
414.511	18.140	804.591	601.758
415.526	18.201	804.030	601.499
416.540	18.208	803.639	601.181
417.555	18.145	802.988	600.418
418.569	18.167	802.614	600.163
419.584	18.135	801.901	599.465
420.599	18.093	801.967	599.313
421.613	116.150	1298.806	1490.668
422.628	100.312	1371.132	1490.741
