DTS Sentinel unit serial number:	SN413079Multiplexer serial number:	ORYXHardware model number:	OX4-SRSoftware version number:	ORYX F/W v4.00 Oryx Data Collector v3.7.2.0data status	okinstallation	princeton_trtdifferential loss correction	single-endedforward channel	channel 1reverse channel	N/Adate	2019/09/13time	09:18:35forward acquisition time	60.00reverse acquisition time	0.00gamma	496.2192k internal	0.2325k external	0.2325temperature offset calibration	1.0162default loss term (dB/km)	0.3790temperature slope calibration	1.0000multiplexer offset coefficient	1.0000multiplexer slope coefficient	1.0000fibre end	0.00T internal ref (°C)	29.11T ext. ref 1 (°C)	4.41T ext. ref 2 (°C)	26.33length (m)	temperature (°C)	Stokes	anti-Stokes-747.200	-137.443	0.357	0.041
-746.185	-200.000	0.020	0.221
-745.171	178.244	-0.120	-0.176
-744.156	436.642	-0.041	0.089
-743.142	-120.021	0.298	0.052
-742.127	-109.128	-0.447	0.096
-741.112	612.513	-0.045	0.113
-740.098	100.156	0.135	0.158
-739.083	61.798	0.243	-0.244
-738.069	-25.975	-0.285	-0.169
-737.054	65.232	-0.184	-0.188
-736.039	-200.000	0.004	-0.022
-735.025	34.108	0.127	0.112
-734.010	-200.000	0.053	-0.339
-732.996	-89.632	-0.219	0.065
-731.981	33.814	0.168	-0.148
-730.966	-200.000	0.037	0.203
-729.952	183.815	-0.124	0.185
-728.937	161.686	-0.218	-0.308
-727.923	-200.000	0.008	0.318
-726.908	245.222	-0.173	0.293
-725.894	800.000	-0.087	-0.284
-724.879	27.233	-0.147	0.124
-723.864	800.000	-0.072	0.202
-722.850	87.517	0.165	0.184
-721.835	46.154	-0.351	-0.328
-720.821	-2.707	0.076	-0.053
-719.806	-73.973	-0.276	-0.101
-718.791	210.317	0.071	-0.112
-717.777	800.000	-0.037	-0.137
-716.762	800.000	-0.141	-0.403
-715.748	34.134	0.373	0.328
-714.733	314.553	-0.020	0.038
-713.718	29.894	-0.250	-0.215
-712.704	228.314	0.126	0.207
-711.689	-200.000	0.082	-0.610
-710.675	-155.300	0.074	-0.005
-709.660	313.873	0.033	-0.062
-708.645	-200.000	0.035	0.230
-707.631	-33.700	-0.359	0.200
-706.616	-54.061	0.294	-0.135
-705.602	185.546	0.212	0.317
-704.587	-23.728	0.145	-0.087
-703.572	800.000	-0.044	-0.131
-702.558	133.582	0.248	-0.324
-701.543	-42.727	0.058	0.030
-700.529	234.753	-0.034	-0.056
-699.514	445.910	0.102	-0.227
-698.499	178.568	-0.152	-0.223
-697.485	-83.857	0.215	0.069
-696.470	19.836	-0.106	0.086
-695.456	163.410	-0.077	-0.109
-694.441	-23.439	0.052	0.031
-693.426	800.000	0.104	0.384
-692.412	800.000	-0.025	-0.094
-691.397	-44.756	-0.306	0.154
-690.383	-55.088	-0.197	0.089
-689.368	120.785	-0.107	-0.134
-688.354	-104.314	0.291	-0.068
-687.339	-74.042	-0.200	0.073
-686.324	388.975	-0.103	-0.214
-685.310	-72.189	0.185	0.069
-684.295	4.173	0.092	-0.068
-683.281	-116.613	0.237	0.044
-682.266	-125.296	-0.155	-0.024
-681.251	-200.000	-0.035	-0.161
-680.237	-69.769	-0.084	0.032
-679.222	-42.490	0.236	-0.121
-678.208	-166.938	0.120	0.005
-677.193	-25.381	-0.164	-0.097
-676.178	-200.000	0.041	-0.245
-675.164	-24.553	-0.334	-0.200
-674.149	-5.518	-0.208	-0.144
-673.135	-151.498	-0.117	0.009
-672.120	-52.028	0.153	0.071
-671.105	-167.627	-0.528	-0.021
-670.091	-14.775	-0.204	-0.132
-669.076	-46.899	-0.203	-0.100
-668.062	-109.935	-0.131	-0.028
-667.047	-157.916	-0.278	-0.017
-666.032	-136.821	0.083	0.010
-665.018	-200.000	-0.011	0.072
-664.003	53.025	-0.077	-0.075
-662.989	-66.926	0.273	0.108
-661.974	-200.000	-0.001	-0.014
-660.959	-155.275	0.089	-0.006
-659.945	-31.824	0.140	-0.079
-658.930	13.048	0.144	0.112
-657.916	-200.000	-0.077	-0.561
-656.901	60.764	-0.177	-0.177
-655.886	-154.505	-0.160	-0.011
-654.872	-200.000	0.029	-0.174
-653.857	53.066	-0.180	0.173
-652.843	-92.769	0.316	0.089
-651.828	-101.868	0.022	0.005
-650.814	-151.219	-0.103	-0.008
-649.799	464.327	-0.095	0.214
-648.784	-47.589	0.241	-0.118
-647.770	507.550	0.055	-0.129
-646.755	-200.000	0.008	-0.045
-645.741	20.143	-0.300	-0.243
-644.726	-73.447	-0.160	-0.059
-643.711	-117.877	-0.140	0.025
-642.697	800.000	0.070	-0.294
-641.682	83.852	-0.110	-0.120
-640.668	-44.981	-0.324	-0.162
-639.653	-142.158	-0.201	-0.020
-638.638	-49.707	-0.057	0.027
-637.624	-200.000	0.006	-0.261
-636.609	39.741	-0.289	-0.260
-635.595	-62.707	0.091	0.038
-634.580	-103.176	-0.153	-0.036
-633.565	-11.985	-0.171	0.113
-632.551	100.680	-0.197	0.230
-631.536	-9.680	0.102	0.068
-630.522	-85.476	0.115	-0.036
-629.507	65.513	-0.093	-0.095
-628.492	-1.477	0.164	-0.116
-627.478	-200.000	-0.025	-0.401
-626.463	-200.000	0.029	-0.134
-625.449	-62.199	-0.235	-0.098
-624.434	-14.620	0.223	0.144
-623.419	49.658	-0.169	0.160
-622.405	-95.265	0.147	-0.040
-621.390	-200.000	0.007	0.169
-620.376	147.143	0.180	-0.243
-619.361	67.886	-0.097	-0.100
-618.346	-104.455	0.068	-0.016
-617.332	-125.400	-0.088	0.013
-616.317	800.000	-0.040	0.159
-615.303	166.157	-0.134	-0.191
-614.288	-51.285	0.154	0.072
-613.273	-200.000	-0.039	0.293
-612.259	-97.883	-0.171	0.044
-611.244	800.000	-0.045	0.164
-610.230	-101.074	0.280	-0.069
-609.215	-2.260	-0.076	0.053
-608.201	-200.000	-0.012	0.262
-607.186	-69.199	0.225	0.087
-606.171	800.000	-0.034	-0.138
-605.157	-97.789	-0.125	-0.032
-604.142	139.670	0.349	-0.461
-603.128	800.000	0.090	-0.327
-602.113	52.503	-0.120	0.115
-601.098	800.000	0.039	0.108
-600.084	-19.036	0.152	0.095
-599.069	-149.959	0.394	0.031
-598.055	43.956	-0.397	-0.365
-597.040	-122.495	0.446	-0.073
-596.025	250.213	-0.075	0.128
-595.011	172.118	-0.026	-0.037
-593.996	154.723	0.061	-0.084
-592.982	-73.025	-0.515	0.189
-591.967	-181.138	-0.254	-0.005
-590.952	176.402	-0.123	-0.180
-589.938	-124.905	-0.424	0.065
-588.923	-41.956	0.418	-0.215
-587.909	-96.115	-0.583	-0.155
-586.894	-96.887	-0.381	0.100
-585.879	231.637	-0.068	-0.112
-584.865	47.725	-0.085	0.079
-583.850	-63.138	0.164	0.068
-582.836	-200.000	0.019	0.405
-581.821	-200.000	-0.007	-0.113
-580.806	-171.756	0.097	-0.003
-579.792	-200.000	0.008	0.173
-578.777	-200.000	0.017	-0.299
-577.763	369.146	0.068	-0.138
-576.748	-99.895	0.291	0.073
-575.733	133.788	-0.069	0.089
-574.719	800.000	0.045	-0.190
-573.704	242.006	-0.158	-0.266
-572.690	-200.000	0.024	0.362
-571.675	-88.022	0.319	-0.096
-570.661	187.851	-0.086	-0.129
-569.646	-65.886	-0.401	-0.161
-568.631	-200.000	0.029	-0.142
-567.617	-8.994	0.179	0.120
-566.602	-19.710	0.331	0.205
-565.588	-200.000	0.029	0.339
-564.573	-120.789	-0.370	0.063
-563.558	431.567	-0.125	-0.271
-562.544	137.416	-0.065	-0.085
-561.529	-190.222	0.079	0.001
-560.515	-38.218	-0.348	-0.185
-559.500	17.727	-0.060	-0.048
-558.485	233.293	-0.125	-0.207
-557.471	-200.000	-0.055	0.348
-556.456	800.000	-0.092	0.283
-555.442	-52.916	0.201	0.093
-554.427	-200.000	0.002	-0.199
-553.412	-200.000	-0.019	-0.235
-552.398	-140.845	-0.325	0.033
-551.383	183.211	0.208	0.308
-550.369	643.296	0.121	-0.309
-549.354	-113.528	0.222	-0.043
-548.339	-42.270	-0.077	0.039
-547.325	39.651	0.051	-0.046
-546.310	20.150	0.202	-0.163
-545.296	-105.281	-0.439	-0.100
-544.281	19.119	0.267	0.214
-543.266	24.413	-0.150	0.124
-542.252	-168.356	0.187	0.007
-541.237	129.754	-0.186	0.238
-540.223	32.914	-0.319	0.276
-539.208	-129.183	0.241	-0.034
-538.193	-63.220	0.254	-0.105
-537.179	800.000	-0.070	-0.273
-536.164	458.284	0.055	0.121
-535.150	-42.472	0.092	0.047
-534.135	-121.258	-0.285	0.048
-533.121	-200.000	0.025	0.142
-532.106	-200.000	0.033	-0.191
-531.091	142.928	0.224	-0.297
-530.077	-5.467	-0.173	0.119
-529.062	-200.000	0.021	-0.144
-528.048	-123.441	0.285	0.045
-527.033	69.449	-0.169	0.174
-526.018	800.000	0.229	0.695
-525.004	-89.517	-0.259	-0.076
-523.989	-97.530	-0.198	-0.051
-522.975	-104.640	-0.263	-0.061
-521.960	278.827	-0.094	-0.167
-520.945	-79.199	0.069	-0.023
-519.931	-168.614	-0.072	0.003
-518.916	-200.000	-0.026	-0.156
-517.902	-21.479	-0.159	-0.097
-516.887	-69.091	0.320	0.123
-515.872	-200.000	0.015	0.178
-514.858	61.668	0.102	0.101
-513.843	-121.661	-0.267	-0.044
-512.829	38.250	0.086	0.076
-511.814	-124.687	0.244	0.038
-510.799	-57.963	-0.152	-0.066
-509.785	-62.831	-0.171	-0.071
-508.770	-94.270	-0.247	-0.068
-507.756	80.072	0.098	0.106
-506.741	-200.000	0.003	0.044
-505.726	19.425	0.281	-0.226
-504.712	-200.000	-0.046	-0.769
-503.697	59.462	0.074	-0.073
-502.683	-178.194	0.070	-0.002
-501.668	800.000	0.034	-0.131
-500.653	-139.311	0.206	-0.022
-499.639	-200.000	-0.067	-0.324
-498.624	1.562	-0.170	-0.122
-497.610	76.637	0.364	0.386
-496.595	-149.292	0.107	-0.008
-495.581	800.000	0.034	0.136
-494.566	-108.864	-0.111	-0.024
-493.551	-31.407	-0.337	0.190
-492.537	-200.000	-0.010	0.069
-491.522	39.922	-0.077	0.069
-490.508	-148.091	0.176	0.015
-489.493	-200.000	-0.005	0.050
-488.478	283.344	-0.057	0.102
-487.464	-72.604	0.042	-0.015
-486.449	-162.853	0.147	-0.007
-485.435	70.832	-0.098	-0.101
-484.420	800.000	0.073	-0.204
-483.405	-115.213	0.224	0.042
-482.391	-145.906	-0.055	0.005
-481.376	283.248	0.035	-0.064
-480.362	-84.422	0.281	-0.089
-479.347	800.000	0.008	0.026
-478.332	-102.625	-0.151	-0.036
-477.318	-58.026	0.266	0.116
-476.303	-97.130	0.035	-0.009
-475.289	-200.000	0.017	-0.216
-474.274	139.162	0.067	0.088
-473.259	-34.948	-0.023	-0.013
-472.245	-52.623	0.245	-0.113
-471.230	-20.659	0.147	0.090
-470.216	-87.040	-0.217	-0.066
-469.201	-200.000	-0.022	-0.131
-468.186	800.000	-0.085	-0.337
-467.172	-24.807	0.274	-0.163
-466.157	-64.839	-0.211	0.085
-465.143	-200.000	-0.001	-0.285
-464.128	172.804	0.077	0.111
-463.113	-53.915	0.195	-0.089
-462.099	-72.495	-0.111	-0.041
-461.084	-84.768	-0.152	0.048
-460.070	-124.472	0.250	0.039
-459.055	-105.490	-0.158	0.036
-458.040	-28.548	0.126	-0.073
-457.026	-172.606	0.211	-0.007
-456.011	-200.000	0.013	0.086
-454.997	47.271	0.273	0.254
-453.982	235.804	0.168	0.276
-452.968	78.224	0.228	0.243
-451.953	20.708	0.084	-0.068
-450.938	-34.994	-0.222	0.121
-449.924	-200.000	-0.009	0.222
-448.909	-71.654	-0.131	-0.049
-447.895	-82.054	0.248	0.081
-446.880	189.489	-0.089	-0.133
-445.865	800.000	-0.117	-0.361
-444.851	-33.132	0.300	0.166
-443.836	-200.000	0.036	0.195
-442.822	-127.340	0.170	-0.025
-441.807	-102.257	-0.189	0.045
-440.792	-53.589	0.200	0.091
-439.778	-69.744	-0.371	-0.141
-438.763	800.000	-0.050	-0.149
-437.749	12.108	0.203	-0.156
-436.734	-200.000	0.011	0.113
-435.719	-148.058	0.144	-0.012
-434.705	-191.879	0.190	0.002
-433.690	15.232	-0.083	-0.065
-432.676	-163.072	-0.104	-0.005
-431.661	-89.441	0.327	0.096
-430.646	132.379	-0.030	-0.039
-429.632	-84.234	0.129	-0.041
-428.617	-92.224	-0.072	-0.020
-427.603	-169.613	0.337	-0.012
-426.588	-104.203	0.453	-0.105
-425.573	-119.089	-0.253	-0.044
-424.559	800.000	-0.076	-0.216
-423.544	-21.972	0.407	-0.246
-422.530	-108.743	0.178	0.038
-421.515	73.154	-0.094	-0.097
-420.500	100.739	0.252	0.292
-419.486	-35.393	0.145	-0.079
-418.471	20.430	-0.066	-0.053
-417.457	-76.519	0.240	-0.084
-416.442	104.511	-0.097	-0.114
-415.428	10.034	-0.115	0.087
-414.413	189.731	-0.159	-0.237
-413.398	800.000	0.046	-0.155
-412.384	-45.490	-0.217	0.107
-411.369	444.214	0.033	0.071
-410.355	-200.000	0.053	-0.341
-409.340	145.096	0.162	-0.216
-408.325	24.288	-0.186	0.153
-407.311	-54.993	0.089	-0.040
-406.296	110.430	0.317	-0.379
-405.282	-58.024	-0.267	0.116
-404.267	-50.889	-0.298	-0.139
-403.252	-200.000	0.011	0.272
-402.238	-156.851	0.383	-0.023
-401.223	-54.620	-0.265	0.119
-400.209	242.441	0.153	-0.254
-399.194	198.819	-0.188	0.286
-398.179	-200.000	-0.001	-0.038
-397.165	-200.000	0.145	0.001
-396.150	122.006	-0.190	0.236
-395.136	54.883	-0.101	-0.097
-394.121	-148.115	-0.342	-0.028
-393.106	-200.000	-0.019	0.127
-392.092	149.998	0.141	0.191
-391.077	-133.817	-0.424	-0.052
-390.063	-200.000	0.018	0.217
-389.048	316.396	-0.071	0.134
-388.033	800.000	0.057	0.184
-387.019	339.353	0.037	0.072
-386.004	800.000	-0.060	0.177
-384.990	149.032	0.230	0.309
-383.975	379.108	0.268	-0.546
-382.960	-65.293	0.201	0.080
-381.946	-129.128	-0.138	-0.019
-380.931	-133.883	0.067	0.008
-379.917	-51.702	0.245	0.114
-378.902	-60.385	0.279	-0.118
-377.888	-152.902	-0.200	0.014
-376.873	131.003	-0.280	-0.357
-375.858	800.000	-0.056	-0.196
-374.844	-31.168	0.167	-0.094
-373.829	66.088	0.173	-0.174
-372.815	-167.137	0.184	-0.007
-371.800	-152.897	-0.367	-0.026
-370.785	725.040	-0.035	-0.094
-369.771	-85.419	-0.136	-0.042
-368.756	-200.000	0.008	-0.139
-367.742	200.239	0.094	-0.144
-366.727	53.443	-0.114	-0.108
-365.712	-166.238	0.376	0.016
-364.698	430.467	0.058	0.124
-363.683	-114.631	-0.410	-0.078
-362.669	-132.076	-0.249	0.032
-361.654	-6.820	0.084	0.057
-360.639	-200.000	0.056	0.435
-359.625	800.000	0.123	0.367
-358.610	-73.046	-0.182	0.067
-357.596	-28.069	-0.412	-0.237
-356.581	-61.035	-0.365	-0.153
-355.566	-83.155	-0.143	0.046
-354.552	97.195	-0.153	0.174
-353.537	-200.000	-0.026	-0.201
-352.523	-200.000	0.036	0.360
-351.508	800.000	-0.072	-0.273
-350.493	-57.038	-0.287	-0.126
-349.479	137.987	-0.115	0.150
-348.464	497.512	0.059	0.135
-347.450	800.000	-0.005	-0.017
-346.435	-73.052	-0.072	0.026
-345.420	800.000	-0.038	-0.157
-344.406	800.000	-0.036	0.107
-343.391	37.701	-0.116	0.103
-342.377	-49.052	0.084	-0.040
-341.362	84.422	-0.135	0.147
-340.348	338.900	0.066	-0.127
-339.333	269.541	-0.022	0.038
-338.318	20.039	0.081	-0.064
-337.304	-132.272	0.365	-0.047
-336.289	-90.810	-0.052	0.015
-335.275	-53.843	-0.033	0.015
-334.260	-39.026	-0.190	-0.099
-333.245	800.000	0.075	0.206
-332.231	226.972	-0.076	0.123
-331.216	-52.851	0.204	0.093
-330.202	60.810	0.173	0.171
-329.187	-92.013	-0.230	0.065
-328.172	-10.575	-0.106	0.070
-327.158	82.310	0.102	-0.110
-326.143	-145.475	-0.035	-0.003
-325.129	-200.000	0.005	0.118
-324.114	70.562	0.167	0.171
-323.099	-95.148	0.105	0.028
-322.085	-107.945	0.200	-0.043
-321.070	-94.531	0.103	-0.028
-320.056	40.473	0.177	-0.158
-319.041	692.895	0.022	0.058
-318.026	140.167	-0.183	0.240
-317.012	-200.000	0.007	0.268
-315.997	-200.000	-0.047	0.465
-314.983	-79.007	0.324	-0.109
-313.968	-91.647	0.288	0.081
-312.953	240.083	0.248	0.409
-311.939	-200.000	-0.080	0.409
-310.924	-118.222	0.084	0.015
-309.910	517.239	-0.062	-0.145
-308.895	185.185	0.204	0.300
-307.880	800.000	-0.071	0.269
-306.866	76.788	-0.106	-0.112
-305.851	-147.812	0.292	0.024
-304.837	407.893	0.130	-0.272
-303.822	-200.000	0.020	-0.131
-302.807	71.393	0.119	0.123
-301.793	-107.467	0.397	-0.086
-300.778	-51.967	-0.253	0.117
-299.764	58.349	-0.063	-0.062
-298.749	-200.000	-0.092	0.401
-297.735	250.568	0.236	0.398
-296.720	-93.076	0.226	0.062
-295.705	-23.951	0.054	-0.032
-294.691	-200.000	0.055	-0.496
-293.676	-34.578	-0.246	-0.134
-292.662	800.000	0.047	-0.165
-291.647	-77.783	-0.465	-0.159
-290.632	85.779	-0.128	0.139
-289.618	235.202	0.290	-0.474
-288.603	46.112	0.091	-0.084
-287.589	49.209	-0.256	0.239
-286.574	800.000	0.066	-0.208
-285.559	-26.664	0.089	0.052
-284.545	-164.440	0.116	0.005
-283.530	76.914	-0.228	0.240
-282.516	-103.242	0.182	0.043
-281.501	800.000	-0.005	0.014
-280.486	-73.647	-0.060	-0.022
-279.472	16.778	-0.315	-0.247
-278.457	-123.178	0.178	0.028
-277.443	293.637	-0.098	-0.178
-276.428	-189.382	0.274	0.003
-275.413	-200.000	0.044	-0.262
-274.399	-200.000	-0.036	-0.176
-273.384	-60.611	0.003	0.001
-272.370	-54.763	-0.358	-0.160
-271.355	-200.000	0.057	0.503
-270.340	773.907	-0.064	0.172
-269.326	-85.762	-0.041	-0.012
-268.311	43.780	-0.081	0.073
-267.297	-200.000	0.037	0.258
-266.282	142.679	0.042	-0.055
-265.267	-138.641	-0.344	-0.037
-264.253	508.959	0.154	0.353
-263.238	-200.000	0.019	0.277
-262.224	160.172	-0.273	0.377
-261.209	58.199	-0.414	-0.402
-260.195	121.816	0.148	0.182
-259.180	800.000	-0.045	0.167
-258.165	-14.730	-0.283	-0.180
-257.151	-84.143	-0.140	-0.044
-256.136	376.485	-0.154	0.312
-255.122	76.212	-0.224	-0.235
-254.107	800.000	-0.090	0.254
-253.092	800.000	-0.093	0.363
-252.078	185.941	0.104	0.152
-251.063	475.359	0.129	-0.287
-250.049	127.041	0.126	-0.158
-249.034	98.529	0.119	-0.136
-248.019	145.884	-0.094	-0.125
-247.005	38.759	-0.167	-0.147
-245.990	-200.000	0.013	0.078
-244.976	141.134	0.210	0.275
-243.961	-25.607	0.037	-0.022
-242.946	800.000	0.079	-0.223
-241.932	-161.536	0.215	-0.011
-240.917	426.117	0.186	0.396
-239.903	69.853	0.160	-0.163
-238.888	78.242	-0.272	-0.287
-237.873	-200.000	-0.004	-0.059
-236.859	335.932	-0.035	0.067
-235.844	-5.470	0.145	-0.099
-234.830	-200.000	-0.008	0.119
-233.815	-108.791	0.336	-0.071
-232.800	115.618	0.160	-0.193
-231.786	57.755	0.169	-0.164
-230.771	-30.711	0.225	-0.126
-229.757	-166.566	0.330	0.014
-228.742	-200.000	-0.010	-0.167
-227.727	-200.000	0.006	-0.169
-226.713	100.624	0.061	-0.070
-225.698	800.000	-0.033	0.110
-224.684	-200.000	0.020	0.346
-223.669	-0.798	-0.135	0.095
-222.655	461.097	-0.030	-0.066
-221.640	-15.095	0.276	0.174
-220.625	169.873	-0.168	0.238
-219.611	-100.780	0.294	0.072
-218.596	28.581	0.054	-0.045
-217.582	-78.176	-0.310	-0.105
-216.567	-50.482	-0.220	-0.103
-215.552	781.487	-0.041	0.111
-214.538	-25.019	0.134	-0.078
-213.523	134.443	-0.120	0.154
-212.509	-136.528	0.497	-0.057
-211.494	310.455	0.046	-0.085
-210.479	-142.166	0.329	-0.032
-209.465	800.000	-0.022	-0.073
-208.450	-21.421	-0.276	0.167
-207.436	800.000	0.074	-0.286
-206.421	-94.201	-0.433	0.117
-205.406	-73.333	-0.138	-0.050
-204.392	800.000	0.060	-0.244
-203.377	153.649	-0.123	-0.166
-202.363	-120.287	-0.261	-0.044
-201.348	-17.835	0.317	0.196
-200.333	204.011	0.142	-0.218
-199.319	-125.792	-0.114	0.017
-198.304	119.640	0.321	0.393
-197.290	-153.926	-0.294	0.020
-196.275	237.245	0.147	-0.240
-195.260	66.960	-0.292	-0.293
-194.246	-35.798	-0.213	0.114
-193.231	-31.131	0.219	-0.122
-192.217	800.000	-0.013	0.049
-191.202	235.053	-0.256	-0.418
-190.187	800.000	0.021	0.075
-189.173	-200.000	-0.084	0.471
-188.158	325.525	0.020	0.038
-187.144	-22.902	0.122	0.073
-186.129	103.972	-0.125	0.145
-185.114	124.525	0.142	0.176
-184.100	58.909	0.297	-0.288
-183.085	605.864	-0.103	0.252
-182.071	209.299	-0.076	0.117
-181.056	-8.107	-0.323	0.215
-180.042	-200.000	-0.077	0.407
-179.027	-200.000	-0.019	-0.144
-178.012	92.591	0.057	0.064
-176.998	-44.194	-0.207	-0.103
-175.983	-99.684	0.417	0.103
-174.969	-102.532	0.098	0.023
-173.954	-93.488	0.195	0.053
-172.939	616.897	-0.086	0.213
-171.925	-88.317	-0.149	0.044
-170.910	117.265	-0.104	-0.126
-169.896	800.000	0.071	0.213
-168.881	86.525	-0.229	-0.249
-167.866	-2.151	-0.282	0.195
-166.852	440.873	0.059	-0.128
-165.837	168.879	-0.153	-0.215
-164.823	-140.016	-0.387	-0.040
-163.808	284.234	-0.137	0.243
-162.793	-85.687	-0.197	0.060
-161.779	-200.000	0.027	-0.227
-160.764	28.106	-0.078	0.065
-159.750	640.808	0.023	0.058
-158.735	-54.563	-0.130	-0.058
-157.720	-109.504	0.177	0.037
-156.706	26.632	-0.108	-0.090
-155.691	-13.010	0.343	0.220
-154.677	141.958	-0.037	-0.048
-153.662	-200.000	0.027	-0.167
-152.647	800.000	-0.099	0.304
-151.633	-52.455	0.284	0.130
-150.618	-0.754	-0.208	-0.146
-149.604	-200.000	0.023	-0.204
-148.589	-200.000	-0.019	0.099
-147.574	-200.000	-0.019	-0.145
-146.560	-200.000	-0.054	-0.300
-145.545	168.715	-0.118	0.165
-144.531	-200.000	0.033	0.147
-143.516	-200.000	0.007	0.318
-142.502	-200.000	-0.023	0.232
-141.487	-139.053	0.278	0.030
-140.472	297.332	-0.030	-0.054
-139.458	-1.881	0.252	-0.174
-138.443	-30.527	0.179	-0.100
-137.429	-185.954	0.264	0.004
-136.414	-88.581	-0.156	0.046
-135.399	800.000	-0.062	-0.220
-134.385	-200.000	-0.049	-0.262
-133.370	800.000	-0.071	-0.243
-132.356	-200.000	-0.027	0.246
-131.341	-102.448	0.272	-0.064
-130.326	39.484	0.267	-0.236
-129.312	-15.488	0.193	-0.121
-128.297	-145.930	-0.350	0.031
-127.283	-63.002	-0.032	0.013
-126.268	93.022	0.078	-0.087
-125.253	-82.116	0.032	-0.010
-124.239	108.185	-0.127	-0.150
-123.224	546.930	-0.173	-0.408
-122.210	-112.951	0.220	-0.043
-121.195	201.306	-0.119	-0.180
-120.180	-191.096	-0.283	0.003
-119.166	130.520	-0.188	-0.237
-118.151	-78.737	0.468	0.157
-117.137	677.652	-0.071	0.182
-116.122	83.446	-0.136	0.146
-115.107	143.605	0.101	0.132
-114.093	-102.363	0.407	0.096
-113.078	800.000	-0.025	-0.100
-112.064	396.759	0.147	-0.303
-111.049	-34.100	0.202	0.109
-110.034	-200.000	0.027	-0.135
-109.020	800.000	-0.091	-0.394
-108.005	18.326	-0.256	0.201
-106.991	350.299	0.076	-0.148
-105.976	-44.998	0.343	-0.168
-104.962	-102.513	0.432	-0.102
-103.947	269.275	-0.075	-0.129
-102.932	-124.502	-0.373	-0.057
-101.918	-182.274	0.045	-0.001
-100.903	800.000	0.031	0.123
-99.889	218.939	-0.141	0.222
-98.874	231.392	-0.114	-0.183
-97.859	17.523	0.324	-0.253
-96.845	75.826	0.122	0.127
-95.830	58.346	0.166	-0.160
-94.816	-96.863	0.155	0.040
-93.801	220.233	0.063	-0.099
-92.786	-200.000	0.019	0.243
-91.772	-200.000	0.008	-0.100
-90.757	-200.000	-0.008	-0.120
-89.743	-200.000	0.061	0.279
-88.728	-33.748	0.092	-0.050
-87.713	181.237	0.120	0.174
-86.699	318.240	0.147	-0.274
-85.684	629.380	-0.066	0.165
-84.670	-200.000	0.027	0.175
-83.655	266.402	0.122	-0.210
-82.640	25.091	0.026	0.021
-81.626	-200.000	-0.062	0.470
-80.611	-13.623	0.126	0.080
-79.597	1.677	0.261	-0.185
-78.582	-200.000	0.042	0.215
-77.567	204.243	-0.144	-0.220
-76.553	-42.631	-0.283	-0.141
-75.538	-116.804	0.283	0.051
-74.524	-200.000	-0.025	-0.258
-73.509	-173.057	-0.194	0.006
-72.494	296.197	-0.108	-0.195
-71.480	398.511	0.069	0.143
-70.465	31.437	0.362	0.306
-69.451	-200.000	0.020	0.111
-68.436	136.010	-0.287	0.367
-67.422	316.267	0.064	0.119
-66.407	87.189	-0.131	0.142
-65.392	96.736	-0.194	-0.218
-64.378	-200.000	-0.007	-0.246
-63.363	800.000	-0.074	0.202
-62.349	31.085	0.127	0.107
-61.334	111.423	-0.716	-0.848
-60.319	-200.000	0.137	0.801
-59.305	800.000	-0.265	-1.036
-58.290	625.604	0.516	1.279
-57.276	555.802	0.725	1.714
-56.261	-200.000	105.999	582.706
-55.246	497.344	1489.315	3365.711
-54.232	176.611	2691.089	3841.878
-53.217	110.137	2172.423	2561.194
-52.203	40.726	1610.526	1425.966
-51.188	32.453	1346.093	1141.859
-50.173	29.580	1304.479	1089.594
-49.159	52.998	1357.938	1275.865
-48.144	53.262	1373.510	1292.037
-47.130	32.621	1329.088	1128.264
-46.115	29.252	1310.759	1092.725
-45.100	29.077	1305.736	1087.461
-44.086	28.994	1303.485	1085.054
-43.071	28.969	1300.927	1082.731
-42.057	28.887	1299.093	1080.682
-41.042	29.039	1296.974	1079.765
-40.027	28.943	1295.762	1078.154
-39.013	29.007	1293.571	1076.664
-37.998	28.980	1291.999	1075.155
-36.984	29.146	1290.158	1074.544
-35.969	29.130	1288.123	1072.713
-34.954	29.060	1286.707	1071.085
-33.940	29.095	1285.630	1070.351
-32.925	29.205	1283.951	1069.552
-31.911	29.238	1282.304	1068.329
-30.896	29.082	1281.779	1066.944
-29.881	29.235	1279.973	1066.280
-28.867	29.218	1278.625	1065.021
-27.852	29.283	1276.897	1063.913
-26.838	29.207	1275.501	1062.267
-25.823	29.223	1274.269	1061.290
-24.809	29.165	1272.932	1059.802
-23.794	29.161	1271.452	1058.507
-22.779	29.089	1270.886	1057.582
-21.765	29.251	1269.199	1057.064
-20.750	29.296	1267.738	1056.062
-19.736	29.055	1266.598	1053.689
-18.721	29.207	1265.068	1053.242
-17.706	29.001	1264.294	1051.383
-16.692	29.112	1263.248	1051.105
-15.677	29.133	1261.808	1049.984
-14.663	29.037	1261.133	1048.834
-13.648	28.987	1260.028	1047.590
-12.633	29.062	1258.786	1046.942
-11.619	29.117	1258.010	1046.567
-10.604	29.160	1256.877	1045.826
-9.590	29.123	1256.212	1045.021
-8.575	28.970	1255.399	1043.436
-7.560	29.003	1254.461	1042.804
-6.546	28.918	1253.421	1041.416
-5.531	28.993	1252.726	1041.219
-4.517	29.003	1252.082	1040.699
-3.502	29.120	1250.816	1040.266
-2.487	29.078	1249.767	1039.118
-1.473	29.061	1245.791	1035.673
-0.458	28.067	1231.154	1017.937
0.556	26.572	1214.870	981.858
1.571	22.924	1220.443	966.357
2.586	21.918	1235.170	972.359
3.600	20.913	1222.903	957.099
4.615	16.007	1150.842	875.205
5.629	8.160	1077.943	781.377
6.644	4.660	1059.585	751.122
7.659	4.349	1056.729	747.535
8.673	4.288	1055.321	746.181
9.688	4.343	1053.865	745.349
10.702	4.732	1052.461	746.156
11.717	9.713	1059.907	775.368
12.731	17.774	1070.623	822.147
13.746	21.669	1074.998	844.243
14.761	22.048	1075.276	846.216
15.775	21.366	1073.260	841.270
16.790	20.436	1071.641	835.459
17.804	19.705	1070.245	830.782
18.819	19.438	1068.907	828.387
19.834	19.363	1068.226	827.427
20.848	19.304	1067.463	826.479
21.863	19.037	1067.054	824.813
22.877	18.994	1066.005	823.721
23.892	18.891	1065.551	822.803
24.907	18.801	1064.494	821.485
25.921	18.737	1063.712	820.501
26.936	18.863	1062.319	819.956
27.950	18.876	1060.949	818.889
28.965	19.040	1059.185	818.234
29.980	19.089	1058.040	817.512
30.994	19.232	1057.281	817.530
32.009	19.289	1056.295	816.968
33.023	19.280	1055.354	816.122
34.038	19.198	1053.777	814.446
35.053	19.005	1053.235	813.042
36.067	18.952	1052.648	812.266
37.082	18.974	1051.476	811.395
38.096	19.065	1051.294	811.610
39.111	19.230	1049.877	811.223
40.126	19.021	1048.629	809.202
41.140	18.648	1047.443	806.462
42.155	18.540	1045.803	804.623
43.169	18.362	1045.262	803.303
44.184	18.414	1044.148	802.618
45.199	18.700	1042.724	802.787
46.213	18.547	1042.593	801.901
47.228	18.899	1041.509	802.640
48.242	18.864	1040.632	801.731
49.257	18.905	1039.525	800.997
50.271	19.097	1038.464	801.003
51.286	19.039	1038.449	800.649
52.301	19.092	1036.897	799.628
53.315	18.781	1036.778	798.023
54.330	18.721	1034.860	796.198
55.344	18.688	1034.267	795.517
56.359	18.881	1033.502	795.753
57.374	18.676	1032.153	793.695
58.388	18.498	1031.488	792.294
59.403	18.533	1030.809	791.862
60.417	18.495	1029.925	790.935
61.432	18.511	1028.956	790.196
62.447	18.416	1028.422	789.281
63.461	18.323	1027.349	787.958
64.476	18.361	1026.285	787.248
65.490	18.356	1025.563	786.600
66.505	18.425	1025.165	786.542
67.520	18.365	1024.429	785.634
68.534	18.325	1024.178	785.187
69.549	18.305	1023.105	784.203
70.563	18.310	1022.169	783.440
71.578	18.167	1021.263	782.024
72.593	18.102	1020.278	780.902
73.607	18.012	1019.665	779.953
74.622	18.153	1019.281	780.232
75.636	18.086	1018.672	779.394
76.651	18.194	1018.103	779.382
77.666	18.234	1017.281	778.863
78.680	18.358	1016.443	778.716
79.695	18.232	1016.003	777.738
80.709	18.395	1015.595	778.099
81.724	18.532	1014.560	777.860
82.739	18.694	1013.913	778.027
83.753	18.868	1013.468	778.404
84.768	19.175	1013.151	779.481
85.782	19.326	1012.191	779.357
86.797	19.268	1011.171	778.241
87.812	18.992	1010.352	776.297
88.826	19.123	1009.333	776.035
89.841	19.194	1008.427	775.589
90.855	19.190	1007.884	775.089
91.870	19.293	1006.736	774.597
92.884	19.332	1005.628	773.850
93.899	19.312	1005.281	773.426
94.914	19.265	1004.319	772.407
95.928	19.255	1003.459	771.631
96.943	19.143	1002.402	770.250
97.957	19.093	1001.609	769.349
98.972	19.085	1000.407	768.322
99.987	19.052	999.963	767.765
101.001	19.174	998.777	767.333
102.016	19.013	998.377	766.242
103.030	19.200	997.550	766.369
104.045	19.114	996.490	765.103
105.060	18.952	995.520	763.571
106.074	18.703	994.303	761.469
107.089	18.553	993.370	760.019
108.103	18.519	992.026	758.777
109.118	18.393	991.342	757.626
110.133	18.313	990.243	756.366
111.147	18.359	989.895	756.238
112.162	18.521	988.682	755.956
113.176	18.557	987.855	755.418
114.191	18.595	987.257	755.060
115.206	18.630	986.324	754.435
116.220	18.617	985.252	753.489
117.235	18.639	984.909	753.256
118.249	18.401	984.148	751.564
119.264	18.357	982.838	750.304
120.279	18.158	982.765	749.313
121.293	18.261	981.435	748.684
122.308	18.296	980.041	747.706
123.322	18.213	978.969	746.457
124.337	18.235	977.863	745.645
125.352	18.049	977.163	744.236
126.366	18.165	976.143	743.897
127.381	18.259	975.075	743.425
128.395	18.327	974.138	742.941
129.410	18.151	973.292	741.469
130.424	18.335	972.871	741.880
131.439	18.603	971.789	742.149
132.454	18.602	971.388	741.770
133.468	18.478	970.683	740.632
134.483	18.514	969.686	739.961
135.497	18.710	968.738	740.018
136.512	18.655	968.038	739.181
137.527	18.644	967.299	738.501
138.541	18.670	966.811	738.178
139.556	18.683	966.432	737.876
140.570	18.846	965.773	738.010
141.585	19.071	964.447	737.894
142.600	19.079	963.697	737.291
143.614	19.203	963.296	737.450
144.629	19.279	962.403	737.026
145.643	19.092	961.750	735.662
146.658	18.910	960.305	733.713
147.673	18.813	959.473	732.599
148.687	18.553	958.603	730.764
149.702	18.739	957.109	730.353
150.716	18.606	956.777	729.469
151.731	18.594	955.903	728.686
152.746	18.704	955.411	728.714
153.760	18.811	954.779	728.619
154.775	18.938	954.054	728.541
155.789	19.137	953.300	728.744
156.804	18.879	953.346	727.621
157.819	19.040	952.154	727.330
158.833	19.025	952.170	727.214
159.848	19.250	951.119	727.296
160.862	19.098	950.030	725.758
161.877	18.839	948.396	723.354
162.892	18.692	947.170	721.739
163.906	18.579	946.349	720.572
164.921	18.672	945.520	720.269
165.935	18.783	944.771	720.098
166.950	18.870	943.881	719.724
167.964	18.817	943.313	719.003
168.979	18.637	942.318	717.428
169.994	18.793	941.032	717.037
171.008	18.813	940.674	716.786
172.023	18.922	940.528	717.065
173.037	19.120	939.454	717.007
174.052	18.965	938.730	715.745
175.067	18.741	937.721	713.983
176.081	18.581	936.856	712.598
177.096	18.689	936.202	712.483
178.110	18.892	935.868	713.007
179.125	18.694	935.398	711.765
180.140	18.781	935.101	711.840
181.154	18.795	935.164	711.881
182.169	19.055	934.920	712.711
183.183	19.109	933.982	712.154
184.198	19.143	933.053	711.524
185.213	19.107	932.507	710.897
186.227	19.157	931.627	710.370
187.242	19.236	931.188	710.297
188.256	19.476	930.799	710.925
189.271	19.550	929.782	710.391
190.286	19.043	928.857	707.538
191.300	18.598	927.767	704.815
192.315	18.513	927.133	703.923
193.329	18.573	926.725	703.795
194.344	18.780	926.313	704.271
195.359	18.962	925.355	704.226
196.373	19.122	924.871	704.450
197.388	19.345	924.625	705.113
198.402	19.409	924.492	705.209
199.417	19.540	923.775	705.137
200.432	19.655	923.579	705.393
201.446	19.827	922.943	705.544
202.461	19.763	922.768	705.088
203.475	19.565	921.996	703.630
204.490	19.468	920.911	702.346
205.504	19.230	919.654	700.356
206.519	19.249	919.160	699.997
207.534	19.282	918.578	699.624
208.548	19.423	917.693	699.462
209.563	19.295	917.218	698.520
210.577	19.321	916.882	698.304
211.592	19.611	916.207	698.905
212.607	19.647	915.380	698.358
213.621	19.642	914.583	697.667
214.636	19.574	913.623	696.598
215.650	19.532	913.445	696.231
216.665	19.630	913.065	696.274
217.680	19.740	912.237	696.025
218.694	19.807	911.349	695.554
219.709	19.650	910.854	694.486
220.723	19.598	910.237	693.745
221.738	19.658	909.564	693.412
222.753	19.492	909.016	692.265
223.767	19.678	908.573	692.613
224.782	19.926	907.547	692.763
225.796	19.910	907.395	692.521
226.811	19.848	906.237	691.327
227.826	19.554	906.009	689.920
228.840	19.636	905.156	689.533
229.855	19.622	904.074	688.592
230.869	19.656	903.260	688.046
231.884	19.463	902.880	686.931
232.899	19.311	902.578	686.034
233.913	19.228	901.474	684.805
234.928	19.218	900.938	684.295
235.942	19.246	900.265	683.838
236.957	19.340	899.763	683.766
237.972	19.305	898.913	682.924
238.986	19.367	897.858	682.305
240.001	19.279	897.951	681.968
241.015	19.507	897.202	682.238
242.030	19.512	896.855	681.937
243.045	19.472	896.616	681.535
244.059	19.628	895.656	681.360
245.074	19.695	895.018	681.079
246.088	19.738	894.528	680.815
247.103	19.947	893.842	681.057
248.117	20.068	893.685	681.350
249.132	20.333	893.282	682.024
250.147	20.476	892.921	682.250
251.161	20.613	892.376	682.310
252.176	20.452	891.831	681.202
253.190	20.644	891.244	681.445
254.205	20.559	890.650	680.599
255.220	20.762	889.537	680.483
256.234	20.501	889.236	679.173
257.249	20.562	888.501	678.789
258.263	20.380	887.831	677.508
259.278	20.599	886.896	677.586
260.293	20.710	886.571	677.711
261.307	20.746	886.007	677.362
262.322	20.655	885.282	676.392
263.336	20.784	884.669	676.367
264.351	20.638	884.155	675.344
265.366	20.740	882.939	674.752
266.380	20.505	883.134	673.930
267.395	20.665	881.729	673.418
268.409	20.492	880.904	672.057
269.424	20.572	880.182	671.758
270.439	20.481	879.581	670.889
271.453	20.372	879.096	670.036
272.468	20.386	878.404	669.507
273.482	20.410	877.921	669.172
274.497	20.300	877.108	668.070
275.512	20.472	876.570	668.262
276.526	20.406	876.257	667.711
277.541	20.629	875.804	668.161
278.555	20.759	875.410	668.301
279.570	20.681	874.599	667.323
280.585	20.831	873.807	667.235
281.599	20.560	872.945	665.480
282.614	20.417	872.567	664.585
283.628	20.632	871.524	664.555
284.643	20.514	871.265	663.850
285.657	20.557	870.551	663.408
286.672	20.581	869.923	662.964
287.687	20.637	869.113	662.500
288.701	20.474	868.580	661.417
289.716	20.628	868.242	661.684
290.730	20.714	867.826	661.637
291.745	20.657	866.955	660.699
292.760	20.821	866.339	660.791
293.774	20.864	866.236	660.820
294.789	20.875	865.398	660.163
295.803	20.672	864.461	658.620
296.818	20.611	863.908	657.911
297.833	20.616	862.998	657.179
298.847	20.599	862.368	656.576
299.862	20.600	862.397	656.545
300.876	20.745	861.885	656.643
301.891	21.045	860.870	656.943
302.906	21.094	860.726	656.959
303.920	21.268	860.628	657.482
304.935	21.213	859.735	656.534
305.949	21.154	858.696	655.459
306.964	20.853	858.499	654.123
307.979	20.881	857.618	653.498
308.993	20.961	857.419	653.586
310.008	20.982	857.011	653.296
311.022	20.951	856.320	652.597
312.037	21.006	855.095	651.811
313.052	20.727	854.498	650.257
314.066	20.474	853.656	648.612
315.081	20.655	852.932	648.681
316.095	20.610	853.120	648.597
317.110	20.599	852.378	647.936
318.125	20.762	851.548	647.857
319.139	20.578	851.367	646.975
320.154	20.689	850.919	646.990
321.168	20.795	849.910	646.558
322.183	20.786	849.815	646.396
323.197	20.812	849.220	645.985
324.212	20.851	848.949	645.864
325.227	20.863	848.206	645.285
326.241	20.661	847.765	644.147
327.256	20.747	846.773	643.654
328.270	20.685	846.241	642.964
329.285	20.721	845.734	642.653
330.300	20.716	845.009	642.029
331.314	20.811	844.670	642.065
332.329	21.035	844.314	642.560
333.343	20.861	844.368	641.904
334.358	20.981	843.431	641.576
335.373	21.031	843.477	641.741
336.387	20.927	843.170	641.067
337.402	21.193	843.086	641.925
338.416	21.315	842.825	642.117
339.431	21.527	842.210	642.370
340.446	21.603	841.589	642.119
341.460	21.526	841.504	641.713
342.475	21.757	841.076	642.176
343.489	21.702	840.544	641.515
344.504	21.886	839.957	641.680
345.519	21.690	839.823	640.806
346.533	21.857	838.749	640.539
347.548	21.529	838.170	638.843
348.562	21.238	837.644	637.323
349.577	21.227	836.881	636.647
350.592	21.100	836.198	635.607
351.606	21.111	835.617	635.152
352.621	21.319	834.661	635.124
353.635	21.285	834.365	634.717
354.650	21.373	833.776	634.535
355.665	21.420	833.124	634.152
356.679	21.511	832.663	634.074
357.694	21.485	831.921	633.360
358.708	21.465	831.465	632.886
359.723	21.512	830.846	632.529
360.738	21.558	830.016	632.005
361.752	21.500	829.443	631.303
362.767	21.711	829.366	631.949
363.781	21.866	828.616	631.882
364.796	21.981	828.459	632.121
365.810	22.101	828.268	632.350
366.825	22.027	828.061	631.870
367.840	22.092	827.311	631.475
368.854	21.820	826.600	629.899
369.869	21.688	826.616	629.383
370.883	21.819	825.899	629.251
371.898	21.812	825.973	629.226
372.913	22.134	825.321	629.830
373.927	21.967	824.277	628.377
374.942	22.010	823.829	628.135
375.956	22.054	823.555	628.025
376.971	22.196	823.353	628.326
377.986	22.161	823.250	628.066
379.000	22.383	822.505	628.236
380.015	22.274	821.950	627.368
381.029	22.172	821.129	626.322
382.044	22.099	820.803	625.756
383.059	22.250	820.144	625.736
384.073	21.951	819.929	624.453
385.088	21.763	818.917	622.959
386.102	21.977	817.970	622.942
387.117	21.826	817.327	621.863
388.132	21.883	816.809	621.614
389.146	21.900	816.318	621.248
390.161	22.165	815.832	621.760
391.175	22.144	815.399	621.301
392.190	22.010	814.755	620.281
393.205	21.994	814.396	619.895
394.219	21.739	814.265	618.843
395.234	21.788	813.486	618.369
396.248	21.557	813.116	617.217
397.263	21.641	812.439	616.945
398.278	21.671	811.980	616.647
399.292	21.554	811.606	615.899
400.307	21.522	811.232	615.447
401.321	21.770	810.686	615.847
402.336	21.798	810.685	615.893
403.350	21.895	809.850	615.545
404.365	22.045	809.714	615.911
405.380	22.244	809.224	616.183
406.394	22.360	808.818	616.226
407.409	22.502	808.413	616.359
408.423	22.484	808.346	616.190
409.438	22.595	807.869	616.161
410.453	22.625	807.164	615.673
411.467	22.644	806.861	615.453
412.482	22.798	806.493	615.656
413.496	22.902	806.138	615.691
414.511	22.792	805.675	614.901
415.526	22.605	805.464	614.034
416.540	22.622	805.037	613.714
417.555	22.317	804.628	612.285
418.569	22.618	804.268	613.004
419.584	22.694	803.730	612.804
420.599	22.577	803.211	611.949
421.613	164.029	1369.622	1795.697
422.628	142.649	1452.138	1795.789
