DTS Sentinel unit serial number:	SN413079Multiplexer serial number:	ORYXHardware model number:	OX4-SRSoftware version number:	ORYX F/W v4.00 Oryx Data Collector v3.7.2.0data status	okinstallation	princeton_trtdifferential loss correction	single-endedforward channel	channel 1reverse channel	N/Adate	2019/09/14time	22:14:35forward acquisition time	60.00reverse acquisition time	0.00gamma	496.2192k internal	0.2319k external	0.2319temperature offset calibration	1.0004default loss term (dB/km)	0.3790temperature slope calibration	1.0000multiplexer offset coefficient	1.0000multiplexer slope coefficient	1.0000fibre end	0.00T internal ref (°C)	32.62T ext. ref 1 (°C)	4.70T ext. ref 2 (°C)	27.62length (m)	temperature (°C)	Stokes	anti-Stokes-747.200	33.497	-0.290	0.255
-746.185	294.007	-0.050	-0.093
-745.171	233.851	0.117	-0.194
-744.156	226.732	0.060	0.099
-743.142	69.442	-0.139	0.145
-742.127	94.936	0.201	-0.232
-741.112	-106.477	0.106	-0.024
-740.098	474.197	-0.153	0.350
-739.083	800.000	-0.068	-0.249
-738.069	-200.000	0.008	0.272
-737.054	-116.796	-0.416	0.077
-736.039	-18.189	-0.287	0.182
-735.025	-109.652	0.123	-0.026
-734.010	-58.518	-0.305	0.134
-732.996	-92.410	-0.351	-0.100
-731.981	-200.000	-0.042	-0.390
-730.966	-200.000	-0.009	-0.071
-729.952	-8.969	-0.278	-0.188
-728.937	266.586	0.037	-0.066
-727.923	-200.000	-0.057	0.305
-726.908	265.461	-0.102	0.181
-725.894	51.965	-0.062	-0.060
-724.879	-134.475	-0.078	0.010
-723.864	103.917	0.142	-0.169
-722.850	3.811	-0.178	-0.132
-721.835	391.069	0.185	-0.388
-720.821	800.000	-0.072	-0.202
-719.806	166.611	0.296	-0.424
-718.791	-135.819	-0.174	0.021
-717.777	96.282	-0.141	-0.163
-716.762	-141.917	-0.169	-0.017
-715.748	264.574	-0.114	0.201
-714.733	-144.295	-0.112	0.011
-713.718	-66.921	-0.122	-0.049
-712.704	101.652	0.094	-0.111
-711.689	800.000	-0.029	0.113
-710.675	-200.000	-0.054	0.246
-709.660	-110.081	-0.135	-0.029
-708.645	800.000	-0.076	-0.269
-707.631	-200.000	0.022	0.112
-706.616	-31.341	0.254	-0.145
-705.602	397.509	0.042	0.088
-704.587	162.842	0.057	-0.080
-703.572	-116.422	-0.077	0.014
-702.558	17.920	0.030	0.024
-701.543	49.610	-0.302	0.287
-700.529	-129.805	-0.106	-0.015
-699.514	800.000	-0.018	-0.056
-698.499	-150.968	0.278	-0.021
-697.485	158.360	0.064	-0.090
-696.470	-81.993	-0.163	0.054
-695.456	-12.689	-0.262	-0.172
-694.441	89.244	0.144	0.162
-693.426	153.956	0.201	0.279
-692.412	-110.873	-0.314	0.065
-691.397	-200.000	-0.009	0.217
-690.383	-143.395	0.155	-0.015
-689.368	-47.050	0.365	0.180
-688.354	-37.059	0.136	0.074
-687.339	420.593	-0.159	-0.343
-686.324	-79.760	-0.154	-0.052
-685.310	-31.189	-0.130	-0.074
-684.295	-200.000	-0.042	0.211
-683.281	-200.000	-0.039	-0.225
-682.266	-200.000	-0.020	-0.299
-681.251	-200.000	0.001	-0.326
-680.237	382.101	-0.134	-0.278
-679.222	-53.655	-0.344	0.159
-678.208	-164.235	-0.188	-0.009
-677.193	-30.394	-0.218	-0.125
-676.178	-172.680	-0.446	0.014
-675.164	2.597	-0.070	-0.051
-674.149	800.000	0.066	-0.221
-673.135	114.548	-0.190	0.233
-672.120	-20.374	-0.254	-0.158
-671.105	91.497	-0.218	-0.247
-670.091	800.000	0.113	0.349
-669.076	-200.000	0.091	0.532
-668.062	20.454	0.180	-0.147
-667.047	-180.207	0.289	-0.006
-666.032	150.840	0.046	-0.063
-665.018	-200.000	0.010	0.155
-664.003	800.000	0.160	-0.530
-662.989	406.524	-0.155	-0.331
-661.974	-200.000	-0.013	-0.333
-660.959	-200.000	-0.020	-0.163
-659.945	-27.662	-0.197	-0.115
-658.930	174.656	-0.028	0.041
-657.916	-200.000	0.008	0.067
-656.901	-127.125	-0.235	0.035
-655.886	-82.800	-0.335	-0.109
-654.872	-200.000	-0.016	-0.290
-653.857	294.381	0.165	-0.303
-652.843	-61.141	-0.291	-0.124
-651.828	800.000	0.079	-0.245
-650.814	-200.000	0.039	-0.205
-649.799	479.910	-0.095	-0.217
-648.784	-76.907	0.240	-0.085
-647.770	-84.526	0.264	0.084
-646.755	67.728	0.058	0.059
-645.741	79.848	0.162	0.176
-644.726	-6.281	-0.138	-0.095
-643.711	-27.261	0.060	0.035
-642.697	3.473	-0.253	-0.186
-641.682	-117.724	0.218	0.040
-640.668	-83.072	0.067	0.022
-639.653	-93.187	-0.118	0.033
-638.638	-29.033	0.260	0.151
-637.624	40.731	0.061	0.055
-636.609	800.000	-0.106	-0.333
-635.595	-200.000	0.023	-0.204
-634.580	-94.830	-0.242	0.066
-633.565	-104.761	-0.274	0.064
-632.551	-134.989	0.300	0.036
-631.536	592.817	0.104	0.259
-630.522	71.110	-0.144	0.150
-629.507	-200.000	-0.066	-0.344
-628.492	483.698	0.034	0.078
-627.478	348.716	-0.096	0.191
-626.463	47.168	-0.193	0.181
-625.449	223.429	0.122	-0.197
-624.434	53.601	-0.085	0.082
-623.419	-86.239	0.397	0.123
-622.405	103.809	-0.224	-0.265
-621.390	-64.434	0.296	-0.121
-620.376	168.919	0.121	0.174
-619.361	45.655	-0.124	0.115
-618.346	64.783	0.062	0.063
-617.332	-61.271	0.309	-0.131
-616.317	-32.680	0.273	-0.153
-615.303	-4.258	-0.163	0.113
-614.288	-18.005	-0.277	0.175
-613.273	-28.666	0.219	-0.127
-612.259	-60.027	0.297	-0.127
-611.244	-2.331	-0.304	0.215
-610.230	-32.298	-0.292	0.164
-609.215	-200.000	0.045	-0.237
-608.201	-200.000	-0.021	-0.101
-607.186	-45.514	-0.220	-0.110
-606.171	-30.626	0.260	0.148
-605.157	-51.396	-0.349	0.164
-604.142	-127.993	0.331	0.048
-603.128	800.000	0.086	-0.345
-602.113	-200.000	0.042	0.278
-601.098	49.952	0.258	0.245
-600.084	297.517	-0.035	0.065
-599.069	432.890	-0.056	-0.123
-598.055	-92.388	0.138	-0.039
-597.040	-15.605	-0.481	0.309
-596.025	800.000	0.120	-0.358
-595.011	800.000	-0.091	-0.307
-593.996	-46.718	0.122	-0.060
-592.982	-140.636	-0.098	-0.010
-591.967	-108.182	0.188	-0.041
-590.952	-104.816	-0.182	-0.042
-589.938	296.194	0.024	-0.045
-588.923	-1.558	-0.157	-0.111
-587.909	-2.645	0.177	0.124
-586.894	-190.275	-0.308	-0.003
-585.879	-200.000	-0.022	0.264
-584.865	-54.528	0.456	-0.208
-583.850	-175.215	-0.292	0.008
-582.836	-99.956	0.364	0.091
-581.821	-200.000	-0.011	-0.093
-580.806	195.100	0.235	-0.359
-579.792	-200.000	0.047	-0.238
-578.777	-200.000	-0.009	0.271
-577.763	-6.999	0.345	-0.236
-576.748	82.700	-0.017	0.019
-575.733	182.618	0.300	0.445
-574.719	-158.135	0.191	-0.011
-573.704	185.629	0.068	-0.102
-572.690	65.365	-0.025	0.025
-571.675	-40.247	-0.153	0.080
-570.661	-165.526	-0.312	0.014
-569.646	-74.444	-0.158	0.057
-568.631	-200.000	0.028	0.151
-567.617	62.642	0.156	0.157
-566.602	600.785	-0.101	-0.252
-565.588	-200.000	0.033	0.208
-564.573	95.673	0.079	0.090
-563.558	-200.000	0.013	0.276
-562.544	-200.000	-0.356	-0.001
-561.529	-200.000	-0.005	-0.048
-560.515	-0.183	0.238	-0.170
-559.500	-171.627	0.127	-0.004
-558.485	-86.948	-0.219	-0.067
-557.471	-45.654	-0.133	0.066
-556.456	50.374	0.204	0.193
-555.442	-11.107	-0.251	0.166
-554.427	-200.000	0.032	-0.331
-553.412	57.019	-0.201	-0.197
-552.398	800.000	0.071	0.263
-551.383	-200.000	0.024	-0.204
-550.369	-87.255	0.247	-0.075
-549.354	800.000	0.108	-0.405
-548.339	-32.227	0.250	-0.140
-547.325	374.558	0.054	-0.111
-546.310	-200.000	-0.074	-0.342
-545.296	-14.772	0.078	-0.051
-544.281	-78.751	-0.183	0.063
-543.266	214.271	0.057	0.090
-542.252	-123.454	0.113	0.018
-541.237	-176.152	-0.086	-0.002
-540.223	63.134	-0.075	0.076
-539.208	152.810	-0.099	0.136
-538.193	10.446	-0.151	0.116
-537.179	37.001	-0.420	0.373
-536.164	232.553	-0.061	-0.101
-535.150	276.971	-0.078	-0.139
-534.135	-90.667	0.123	-0.036
-533.121	49.503	-0.157	-0.148
-532.106	299.520	-0.027	0.050
-531.091	139.735	-0.042	0.055
-530.077	-81.890	0.142	0.047
-529.062	-154.597	0.095	0.006
-528.048	-136.941	0.408	0.047
-527.033	46.444	-0.153	-0.142
-526.018	764.656	0.102	0.278
-525.004	-73.082	0.334	0.123
-523.989	306.350	-0.044	0.082
-522.975	-200.000	-0.009	-0.070
-521.960	41.092	-0.169	0.153
-520.945	265.297	-0.060	-0.105
-519.931	-47.426	-0.106	-0.052
-518.916	-76.318	0.127	-0.045
-517.902	144.395	0.023	0.030
-516.887	800.000	-0.080	-0.231
-515.872	104.116	-0.262	-0.308
-514.858	79.923	-0.176	0.189
-513.843	800.000	-0.126	-0.376
-512.829	-200.000	0.008	-0.090
-511.814	-200.000	-0.005	-0.275
-510.799	4.115	-0.323	-0.237
-509.785	-29.439	0.201	-0.116
-508.770	-122.379	0.092	-0.015
-507.756	526.217	0.080	0.188
-506.741	-4.014	-0.328	-0.228
-505.726	83.795	-0.027	0.029
-504.712	-200.000	-0.032	-0.203
-503.697	150.658	0.112	0.153
-502.683	22.601	0.108	0.088
-501.668	-107.239	0.116	-0.026
-500.653	-188.126	-0.178	-0.002
-499.639	46.764	-0.048	0.044
-498.624	-200.000	-0.074	-0.414
-497.610	-200.000	-0.062	0.295
-496.595	-66.717	-0.048	-0.019
-495.581	487.113	-0.032	0.073
-494.566	8.288	-0.307	0.231
-493.551	-200.000	0.055	0.368
-492.537	28.277	0.115	0.098
-491.522	77.978	-0.135	0.144
-490.508	800.000	0.076	-0.227
-489.493	34.670	-0.113	-0.099
-488.478	-99.736	0.254	0.064
-487.464	-200.000	-0.069	0.506
-486.449	-21.121	0.188	0.115
-485.435	800.000	-0.043	-0.163
-484.420	800.000	0.071	-0.295
-483.405	18.136	0.224	0.179
-482.391	200.876	-0.055	-0.084
-481.376	-181.372	0.128	-0.003
-480.362	-18.713	-0.140	-0.088
-479.347	-89.943	0.186	0.055
-478.332	229.978	0.220	0.360
-477.318	-200.000	-0.029	0.164
-476.303	396.324	0.060	-0.124
-475.289	-83.365	-0.317	-0.102
-474.274	800.000	-0.028	-0.104
-473.259	-41.829	0.106	-0.054
-472.245	-200.000	0.013	0.231
-471.230	84.996	-0.151	0.165
-470.216	-158.647	-0.242	0.014
-469.201	48.051	-0.155	0.145
-468.186	-75.876	-0.335	-0.119
-467.172	800.000	0.112	0.387
-466.157	800.000	-0.028	-0.089
-465.143	-71.346	-0.269	-0.101
-464.128	106.070	-0.202	0.240
-463.113	-37.050	-0.015	-0.008
-462.099	67.344	0.251	-0.256
-461.084	-173.015	0.264	-0.008
-460.070	-22.009	-0.193	-0.118
-459.055	-140.157	-0.178	0.019
-458.040	16.184	-0.179	-0.141
-457.026	-47.888	-0.223	0.108
-456.011	96.611	0.061	0.070
-454.997	-86.319	-0.266	0.082
-453.982	273.786	-0.093	0.165
-452.968	800.000	0.065	0.210
-451.953	-200.000	-0.045	0.455
-450.938	255.176	-0.096	0.164
-449.924	-77.538	0.159	0.055
-448.909	-61.361	-0.048	-0.020
-447.895	385.974	-0.047	-0.098
-446.880	800.000	-0.063	-0.211
-445.865	119.117	-0.284	-0.352
-444.851	-29.656	-0.178	0.102
-443.836	299.560	-0.129	0.238
-442.822	-200.000	0.020	0.091
-441.807	-93.601	-0.355	0.098
-440.792	-129.867	-0.200	-0.027
-439.778	-79.100	-0.064	-0.022
-438.763	-165.126	0.175	0.008
-437.749	-89.462	0.249	0.073
-436.734	-115.095	-0.568	-0.108
-435.719	102.753	0.205	-0.240
-434.705	800.000	-0.068	-0.227
-433.690	63.512	0.115	-0.115
-432.676	-116.919	-0.264	-0.048
-431.661	31.124	-0.086	-0.074
-430.646	210.497	-0.034	-0.053
-429.632	214.688	-0.118	-0.187
-428.617	244.178	0.138	-0.232
-427.603	-150.342	0.242	0.019
-426.588	676.039	-0.017	-0.043
-425.573	-88.101	0.221	0.066
-424.559	-200.000	0.008	-0.048
-423.544	31.468	0.326	-0.280
-422.530	-24.867	0.201	-0.119
-421.515	-162.197	-0.292	-0.015
-420.500	236.598	0.075	-0.124
-419.486	-147.701	-0.156	-0.013
-418.471	-45.705	0.165	0.081
-417.457	-47.011	-0.105	-0.051
-416.442	-122.435	-0.264	-0.043
-415.428	-200.000	-0.004	-0.301
-414.413	449.209	0.086	-0.189
-413.398	800.000	-0.041	-0.122
-412.384	-28.843	-0.147	-0.084
-411.369	-200.000	0.013	0.133
-410.355	23.430	-0.291	0.239
-409.340	572.760	0.107	0.261
-408.325	99.934	-0.097	-0.112
-407.311	684.265	0.137	0.356
-406.296	800.000	-0.040	0.170
-405.282	-200.000	-0.031	0.178
-404.267	-124.267	0.223	-0.035
-403.252	126.457	0.320	-0.405
-402.238	-6.691	0.023	0.016
-401.223	-91.571	0.080	-0.023
-400.209	387.019	0.058	-0.120
-399.194	800.000	0.028	0.088
-398.179	-200.000	0.002	0.066
-397.165	-82.893	0.093	-0.030
-396.150	277.257	-0.012	0.022
-395.136	-115.699	0.378	-0.071
-394.121	-95.143	-0.165	-0.044
-393.106	54.313	-0.327	0.314
-392.092	-56.704	-0.392	-0.173
-391.077	97.566	0.020	0.023
-390.063	-63.983	-0.222	-0.091
-389.048	730.502	0.062	-0.166
-388.033	-200.000	0.034	0.160
-387.019	-118.719	0.250	0.044
-386.004	-200.000	0.050	-0.326
-384.990	-53.780	0.086	0.039
-383.975	46.655	0.124	0.115
-382.960	-90.392	-0.362	-0.105
-381.946	-29.051	-0.003	-0.001
-380.931	800.000	0.040	-0.119
-379.917	307.091	0.052	0.096
-378.902	-114.082	-0.157	0.030
-377.888	416.782	0.055	0.117
-376.873	186.246	-0.130	0.193
-375.858	-101.773	0.268	0.065
-374.844	17.464	0.152	0.121
-373.829	-182.159	0.221	-0.004
-372.815	249.103	-0.085	0.144
-371.800	800.000	0.042	0.176
-370.785	200.808	0.043	0.066
-369.771	-74.504	0.457	-0.164
-368.756	260.779	0.128	0.221
-367.742	-125.255	-0.027	0.004
-366.727	-22.059	-0.102	0.062
-365.712	-112.286	0.172	-0.034
-364.698	-81.860	-0.297	0.097
-363.683	-200.000	0.037	-0.165
-362.669	218.998	-0.072	-0.115
-361.654	-50.786	-0.210	0.098
-360.639	300.947	0.225	-0.414
-359.625	-20.641	-0.141	-0.086
-358.610	324.176	-0.165	0.314
-357.596	-200.000	-0.022	0.175
-356.581	69.135	0.117	-0.120
-355.566	321.386	0.078	0.148
-354.552	147.940	-0.259	-0.349
-353.537	800.000	0.037	-0.143
-352.523	87.104	0.324	0.357
-351.508	63.131	-0.031	-0.031
-350.493	-200.000	0.007	-0.069
-349.479	44.320	-0.098	-0.090
-348.464	227.056	-0.118	-0.191
-347.450	-5.613	0.054	0.037
-346.435	-80.560	-0.166	-0.055
-345.420	-43.209	0.250	0.126
-344.406	-200.000	0.008	0.058
-343.391	210.151	-0.162	-0.254
-342.377	-200.000	-0.055	-0.277
-341.362	3.958	-0.151	-0.110
-340.348	800.000	-0.110	0.435
-339.333	0.433	0.118	-0.084
-338.318	-101.622	0.105	0.025
-337.304	330.753	0.068	0.130
-336.289	270.706	0.048	0.084
-335.275	-50.243	0.213	0.100
-334.260	64.095	0.209	-0.210
-333.245	-56.807	-0.235	0.103
-332.231	-92.934	0.211	-0.059
-331.216	247.879	0.164	0.276
-330.202	17.938	-0.139	0.111
-329.187	-200.000	0.022	-0.142
-328.172	-26.028	-0.354	-0.207
-327.158	-200.000	0.243	-0.001
-326.143	-200.000	-0.027	-0.335
-325.129	498.699	-0.099	0.226
-324.114	15.982	0.263	-0.206
-323.099	43.434	0.308	-0.280
-322.085	115.743	0.192	-0.234
-321.070	-134.063	-0.220	-0.027
-320.056	-73.128	0.266	0.097
-319.041	-200.000	-0.018	0.169
-318.026	73.253	-0.309	0.322
-317.012	519.922	-0.145	-0.337
-315.997	-178.652	-0.147	0.003
-314.983	800.000	0.049	-0.155
-313.968	-200.000	-0.013	-0.059
-312.953	-77.242	-0.335	0.116
-311.939	66.509	0.061	0.062
-310.924	-72.046	0.229	-0.085
-309.910	277.142	0.162	-0.286
-308.895	51.684	0.030	-0.028
-307.880	122.624	0.047	-0.059
-306.866	316.187	-0.152	-0.286
-305.851	-61.155	0.190	-0.080
-304.837	-134.779	-0.046	0.006
-303.822	205.907	0.154	-0.238
-302.807	58.097	-0.134	-0.131
-301.793	-200.000	0.064	-0.435
-300.778	-29.858	-0.400	-0.227
-299.764	165.124	-0.068	0.095
-298.749	95.363	-0.066	-0.075
-297.735	-200.000	0.001	-0.012
-296.720	166.647	0.098	0.139
-295.705	-23.113	0.171	0.102
-294.691	281.020	-0.113	-0.202
-293.676	111.210	-0.109	0.131
-292.662	800.000	0.023	-0.084
-291.647	163.913	0.025	-0.036
-290.632	575.857	0.023	0.055
-289.618	788.139	0.041	0.111
-288.603	800.000	-0.075	0.317
-287.589	-5.119	0.098	0.067
-286.574	17.513	0.218	-0.172
-285.559	-165.903	-0.106	-0.005
-284.545	-200.000	0.026	-0.227
-283.530	-60.351	0.407	0.172
-282.516	-76.379	-0.107	-0.038
-281.501	-200.000	-0.032	0.322
-280.486	800.000	-0.045	0.153
-279.472	-200.000	-0.008	0.144
-278.457	13.511	-0.070	0.054
-277.443	97.066	-0.031	0.035
-276.428	-200.000	-0.011	0.059
-275.413	-61.555	-0.174	0.073
-274.399	-51.189	-0.073	0.034
-273.384	38.298	0.109	0.096
-272.370	50.651	-0.119	0.112
-271.355	-200.000	0.014	-0.266
-270.340	-4.953	-0.160	-0.109
-269.326	116.283	-0.057	0.070
-268.311	-102.984	-0.151	-0.036
-267.297	0.934	0.311	0.221
-266.282	-75.720	0.337	0.119
-265.267	91.988	0.128	0.143
-264.253	800.000	0.113	0.326
-263.238	-200.000	-0.039	0.235
-262.224	-200.000	-0.040	0.275
-261.209	-66.265	0.184	0.073
-260.195	800.000	0.053	-0.219
-259.180	18.005	0.160	-0.126
-258.165	-200.000	0.065	-0.467
-257.151	439.868	0.047	-0.102
-256.136	-166.236	-0.177	0.007
-255.122	-200.000	0.068	-0.307
-254.107	103.176	0.137	-0.160
-253.092	800.000	-0.078	-0.310
-252.078	-107.445	-0.227	0.049
-251.063	-38.877	-0.215	0.113
-250.049	-11.319	-0.174	0.113
-249.034	-26.731	0.212	0.123
-248.019	-125.071	-0.275	0.042
-247.005	25.066	0.149	-0.123
-245.990	153.949	0.068	-0.092
-244.976	591.031	-0.107	0.261
-243.961	-39.975	0.192	0.099
-242.946	581.558	-0.135	0.327
-241.932	23.179	0.263	0.214
-240.917	-23.787	-0.339	0.202
-239.903	110.397	0.326	-0.388
-238.888	-23.377	-0.266	-0.159
-237.873	616.897	0.048	0.119
-236.859	78.178	-0.048	0.050
-235.844	72.920	0.294	-0.305
-234.830	86.508	-0.051	-0.056
-233.815	133.962	0.239	-0.307
-232.800	-115.003	-0.171	-0.032
-231.786	-55.403	0.214	0.095
-230.771	-52.871	-0.193	-0.088
-229.757	-200.000	0.002	-0.101
-228.742	-17.326	-0.130	0.081
-227.727	-50.591	0.253	0.118
-226.713	178.664	-0.107	0.156
-225.698	-0.829	-0.188	-0.132
-224.684	-63.928	-0.365	-0.148
-223.669	800.000	-0.040	0.165
-222.655	800.000	-0.039	0.115
-221.640	-110.870	-0.212	0.043
-220.625	800.000	-0.034	-0.144
-219.611	-130.689	-0.274	0.037
-218.596	8.404	0.138	0.103
-217.582	-149.507	0.242	-0.019
-216.567	-113.859	-0.107	-0.021
-215.552	-74.793	-0.056	-0.020
-214.538	-140.857	0.127	-0.013
-213.523	21.406	-0.138	0.111
-212.509	232.387	-0.094	0.154
-211.494	-112.319	-0.112	-0.022
-210.479	-89.587	0.023	0.007
-209.465	-200.000	-0.012	-0.177
-208.450	473.534	-0.131	-0.292
-207.436	33.549	0.140	-0.120
-206.421	-104.953	0.285	-0.065
-205.406	-67.415	0.119	0.046
-204.392	109.159	0.106	-0.126
-203.377	-135.098	0.290	0.035
-202.363	-74.125	0.422	0.151
-201.348	-199.476	0.170	-0.001
-200.333	214.282	0.085	-0.133
-199.319	-124.991	-0.179	0.027
-198.304	-151.791	-0.340	0.025
-197.290	-37.655	0.510	0.269
-196.275	-131.621	-0.098	-0.013
-195.260	-200.000	0.022	-0.206
-194.246	23.360	0.173	-0.141
-193.231	96.783	-0.131	-0.149
-192.217	408.014	-0.066	0.138
-191.202	143.784	0.186	-0.246
-190.187	-19.083	0.165	-0.101
-189.173	112.913	0.214	-0.256
-188.158	-200.000	-0.015	0.074
-187.144	-9.811	-0.098	0.065
-186.129	-57.211	0.102	0.045
-185.114	-200.000	0.022	0.278
-184.100	140.414	0.186	0.243
-183.085	44.339	-0.140	-0.128
-182.071	162.648	0.057	-0.079
-181.056	-200.000	-0.004	0.426
-180.042	-81.274	0.139	0.045
-179.027	121.768	0.186	0.230
-178.012	-6.883	-0.313	0.211
-176.998	328.528	0.074	0.140
-175.983	84.326	0.115	-0.124
-174.969	800.000	-0.058	0.196
-173.954	-114.022	0.229	0.044
-172.939	29.045	0.123	0.104
-171.925	-188.174	0.204	-0.003
-170.910	-200.000	-0.052	0.250
-169.896	-146.446	-0.216	0.019
-168.881	-2.774	-0.129	-0.089
-167.866	135.642	-0.045	-0.058
-166.852	80.891	-0.210	-0.224
-165.837	153.078	-0.092	0.124
-164.823	-43.797	-0.240	-0.120
-163.808	-96.035	0.075	-0.020
-162.793	39.938	0.151	0.134
-161.779	191.565	-0.175	0.260
-160.764	-200.000	-0.065	0.427
-159.750	404.085	-0.099	0.206
-158.735	-138.241	0.210	0.023
-157.720	13.392	-0.390	0.299
-156.706	-85.901	-0.125	0.038
-155.691	30.318	0.018	0.015
-154.677	157.213	0.094	0.128
-153.662	160.771	-0.079	-0.109
-152.647	-58.137	-0.096	-0.041
-151.633	-101.894	0.223	-0.053
-150.618	-122.520	-0.453	-0.073
-149.604	-119.071	0.177	-0.031
-148.589	-39.423	-0.150	0.078
-147.574	-106.673	-0.191	0.042
-146.560	148.041	-0.130	-0.174
-145.545	432.500	0.110	0.236
-144.531	-33.925	0.215	0.117
-143.516	49.097	0.005	0.005
-142.502	37.214	0.185	0.162
-141.487	-95.872	0.249	0.066
-140.472	-200.000	-0.010	-0.151
-139.458	-67.232	0.246	0.096
-138.443	-64.573	0.175	0.070
-137.429	183.841	-0.029	-0.043
-136.414	-34.708	0.088	0.047
-135.399	-1.564	-0.128	-0.089
-134.385	500.687	0.063	0.144
-133.370	-117.845	-0.601	0.107
-132.356	-96.050	-0.375	0.098
-131.341	-65.796	-0.163	0.064
-130.326	298.350	0.187	-0.340
-129.312	-200.000	-0.009	-0.160
-128.297	60.025	0.393	-0.383
-127.283	-112.511	0.415	0.082
-126.268	490.788	-0.127	-0.287
-125.253	454.068	-0.086	-0.188
-124.239	119.935	-0.175	-0.214
-123.224	-200.000	-0.020	0.151
-122.210	-105.921	-0.063	0.014
-121.195	42.491	0.213	0.192
-120.180	-20.899	-0.063	0.038
-119.166	209.534	0.188	0.292
-118.151	-200.000	-0.011	-0.242
-117.137	-56.373	-0.408	0.179
-116.122	112.097	-0.153	-0.182
-115.107	-96.449	-0.053	-0.014
-114.093	-92.642	-0.111	0.031
-113.078	800.000	0.134	0.411
-112.064	-72.946	0.235	0.085
-111.049	-47.909	-0.302	0.144
-110.034	-99.362	0.196	0.049
-109.020	108.825	-0.047	-0.055
-108.005	800.000	0.044	0.140
-106.991	-19.109	0.358	0.219
-105.976	122.041	0.244	0.301
-104.962	-16.732	0.333	0.208
-103.947	800.000	0.068	0.236
-102.932	-19.180	0.232	0.142
-101.918	-137.807	-0.239	0.026
-100.903	-67.119	0.214	-0.083
-99.889	-91.298	-0.240	0.068
-98.874	363.214	-0.136	-0.269
-97.859	-23.125	0.052	-0.031
-96.845	-105.448	-0.284	0.064
-95.830	-113.789	-0.245	0.047
-94.816	89.175	0.180	-0.197
-93.801	131.938	-0.169	0.215
-92.786	800.000	-0.222	-0.629
-91.772	-11.453	-0.167	0.108
-90.757	-63.681	0.261	0.105
-89.743	-133.166	-0.271	0.034
-88.728	-200.000	-0.014	0.089
-87.713	-15.246	-0.159	0.101
-86.699	-200.000	0.002	-0.267
-85.684	118.126	-0.165	-0.201
-84.670	-22.936	0.166	-0.099
-83.655	-68.836	-0.060	0.023
-82.640	598.138	-0.090	-0.221
-81.626	-149.068	-0.452	-0.036
-80.611	-148.536	-0.191	-0.015
-79.597	-59.209	-0.074	-0.032
-78.582	132.912	-0.171	-0.217
-77.567	-174.879	-0.139	-0.004
-76.553	104.167	-0.140	-0.162
-75.538	48.253	0.387	-0.357
-74.524	800.000	-0.041	-0.169
-73.509	-195.960	0.190	-0.001
-72.494	23.558	0.369	0.299
-71.480	600.490	0.064	-0.156
-70.465	81.900	0.277	-0.295
-69.451	-98.297	0.133	-0.034
-68.436	186.072	0.134	0.197
-67.422	52.982	-0.299	0.282
-66.407	324.321	-0.122	0.229
-65.392	-81.261	-0.131	-0.042
-64.378	-200.000	-0.018	0.142
-63.363	-137.539	-0.474	0.053
-62.349	-33.146	-0.022	-0.012
-61.334	27.789	-0.891	-0.739
-60.319	-22.331	0.695	0.415
-59.305	684.991	-0.332	-0.854
-58.290	-200.000	0.275	1.341
-57.276	450.481	0.548	1.192
-56.261	-200.000	95.346	578.636
-55.246	654.939	1373.172	3471.389
-54.232	199.787	2543.168	3842.947
-53.217	121.037	2139.984	2622.102
-52.203	44.532	1605.497	1452.685
-51.188	36.312	1343.348	1166.040
-50.173	32.960	1301.625	1110.118
-49.159	55.043	1347.966	1282.078
-48.144	57.209	1364.372	1310.562
-47.130	36.313	1324.251	1149.287
-46.115	32.747	1307.465	1113.660
-45.100	32.686	1301.979	1108.588
-44.086	32.491	1299.826	1105.564
-43.071	32.489	1297.345	1103.402
-42.057	32.493	1295.436	1101.757
-41.042	32.588	1293.267	1100.423
-40.027	32.530	1291.694	1098.698
-39.013	32.575	1290.101	1097.567
-37.998	32.606	1288.397	1096.249
-36.984	32.612	1286.309	1094.468
-35.969	32.681	1284.926	1093.648
-34.954	32.621	1283.053	1091.661
-33.940	32.821	1281.604	1091.542
-32.925	32.771	1280.347	1090.137
-31.911	32.632	1279.145	1088.270
-30.896	32.705	1277.548	1087.289
-29.881	32.696	1276.363	1086.187
-28.867	32.729	1274.498	1084.745
-27.852	32.819	1273.387	1084.273
-26.838	32.750	1271.829	1082.508
-25.823	32.709	1270.685	1081.259
-24.809	32.630	1269.525	1079.777
-23.794	32.632	1268.010	1078.454
-22.779	32.716	1266.476	1077.588
-21.765	32.720	1265.255	1076.530
-20.750	32.588	1264.081	1074.734
-19.736	32.639	1262.649	1073.763
-18.721	32.600	1261.594	1072.601
-17.706	32.628	1260.481	1071.774
-16.692	32.589	1259.326	1070.526
-15.677	32.553	1258.374	1069.472
-14.663	32.596	1257.052	1068.549
-13.648	32.566	1255.951	1067.400
-12.633	32.482	1255.457	1066.462
-11.619	32.633	1254.271	1066.266
-10.604	32.557	1253.466	1065.111
-9.590	32.574	1252.276	1064.155
-8.575	32.517	1251.277	1062.942
-7.560	32.469	1250.766	1062.191
-6.546	32.540	1249.564	1061.529
-5.531	32.530	1248.935	1060.896
-4.517	32.605	1248.215	1060.665
-3.502	32.627	1247.359	1060.020
-2.487	32.619	1246.467	1059.176
-1.473	32.550	1242.072	1055.013
-0.458	31.078	1227.405	1034.354
0.556	26.821	1208.991	996.635
1.571	23.005	1214.283	979.804
2.586	22.100	1228.912	986.436
3.600	21.447	1217.712	973.725
4.615	16.322	1146.938	890.107
5.629	8.318	1073.011	793.047
6.644	4.899	1052.834	761.379
7.659	4.636	1050.665	758.458
8.673	4.622	1049.875	757.755
9.688	4.644	1048.212	756.593
10.702	4.767	1046.676	756.016
11.717	9.273	1052.538	782.151
12.731	16.416	1062.676	824.590
13.746	19.180	1065.489	840.203
14.761	18.411	1063.396	834.733
15.775	17.346	1061.704	828.150
16.790	16.370	1059.219	821.390
17.804	15.569	1057.955	816.451
18.819	15.159	1056.986	813.636
19.834	14.911	1056.268	811.809
20.848	14.617	1055.354	809.610
21.863	14.472	1054.439	808.130
22.877	14.384	1053.721	807.085
23.892	14.301	1053.170	806.190
24.907	14.335	1052.459	805.735
25.921	14.546	1051.062	805.615
26.936	14.363	1049.966	803.824
27.950	14.465	1048.492	803.114
28.965	14.466	1047.097	801.977
29.980	14.713	1045.484	801.861
30.994	14.683	1044.534	800.916
32.009	14.706	1043.847	800.429
33.023	14.705	1042.481	799.306
34.038	14.610	1041.317	797.886
35.053	14.496	1040.759	796.843
36.067	14.561	1040.008	796.512
37.082	14.586	1039.069	795.837
38.096	14.646	1038.348	795.503
39.111	14.583	1038.049	794.902
40.126	14.641	1035.999	793.540
41.140	14.344	1034.733	791.088
42.155	14.242	1033.805	789.825
43.169	14.251	1032.734	788.980
44.184	14.187	1031.514	787.676
45.199	14.126	1031.115	787.013
46.213	14.359	1029.443	786.768
47.228	14.442	1028.298	786.213
48.242	14.496	1027.485	785.779
49.257	14.395	1026.661	784.600
50.271	14.632	1025.580	784.818
51.286	14.446	1025.182	783.572
52.301	14.471	1023.886	782.632
53.315	14.484	1022.355	781.453
54.330	14.321	1022.046	780.384
55.344	14.351	1021.155	779.775
56.359	14.381	1020.255	779.158
57.374	14.327	1019.205	778.035
58.388	14.197	1018.318	776.683
59.403	14.295	1017.248	776.254
60.417	14.219	1016.479	775.246
61.432	14.282	1015.787	774.939
62.447	14.160	1015.387	774.001
63.461	14.145	1014.228	772.979
64.476	14.103	1013.483	772.145
65.490	14.123	1012.683	771.561
66.505	14.302	1011.487	771.410
67.520	14.241	1011.117	770.781
68.534	14.324	1010.386	770.539
69.549	14.246	1009.496	769.431
70.563	14.112	1008.851	768.251
71.578	14.212	1007.872	767.897
72.593	14.103	1007.276	766.874
73.607	14.022	1006.590	765.911
74.622	14.064	1006.050	765.624
75.636	13.972	1005.886	765.012
76.651	14.054	1004.645	764.377
77.666	14.064	1004.519	764.256
78.680	14.090	1003.649	763.649
79.695	14.062	1002.809	762.812
80.709	14.171	1002.237	762.810
81.724	14.264	1001.548	762.643
82.739	14.376	1001.003	762.672
83.753	14.440	1000.277	762.347
84.768	14.752	998.743	762.534
85.782	14.633	998.368	761.639
86.797	14.668	997.335	760.940
87.812	14.549	996.331	759.567
88.826	14.501	995.321	758.509
89.841	14.502	994.686	757.963
90.855	14.517	993.930	757.388
91.870	14.621	993.087	757.150
92.884	14.651	992.067	756.444
93.899	14.613	991.335	755.647
94.914	14.732	990.626	755.579
95.928	14.737	989.692	754.821
96.943	14.655	988.884	753.768
97.957	14.565	987.777	752.450
98.972	14.677	986.811	752.152
99.987	14.564	986.147	751.071
101.001	14.467	985.557	750.118
102.016	14.495	984.694	749.523
103.030	14.614	983.430	749.029
104.045	14.592	982.879	748.443
105.060	14.476	982.158	747.309
106.074	14.250	981.357	745.620
107.089	14.231	980.072	744.492
108.103	14.211	979.278	743.736
109.118	14.285	978.152	743.143
110.133	14.182	977.535	742.150
111.147	14.128	976.691	741.204
112.162	14.324	975.496	741.104
113.176	14.405	975.048	741.057
114.191	14.515	974.090	740.752
115.206	14.369	973.584	739.655
116.220	14.428	972.518	739.038
117.235	14.407	971.668	738.236
118.249	14.304	970.906	737.134
119.264	14.260	970.377	736.475
120.279	14.312	969.170	735.723
121.293	14.254	968.811	735.129
122.308	14.321	967.482	734.350
123.322	14.176	967.098	733.354
124.337	14.209	965.895	732.522
125.352	14.315	964.512	731.876
126.366	14.241	963.977	731.082
127.381	14.215	962.941	730.114
128.395	14.202	961.828	729.148
129.410	14.199	961.425	728.767
130.424	14.445	960.283	728.912
131.439	14.456	959.633	728.404
132.454	14.410	959.185	727.796
133.468	14.339	958.488	726.895
134.483	14.327	957.763	726.226
135.497	14.543	956.466	726.122
136.512	14.318	955.892	724.640
137.527	14.477	954.943	724.548
138.541	14.542	954.105	724.131
139.556	14.530	953.612	723.643
140.570	14.491	953.454	723.288
141.585	14.732	952.221	723.334
142.600	14.666	951.330	722.304
143.614	14.712	950.742	721.994
144.629	14.622	950.064	721.028
145.643	14.640	948.991	720.225
146.658	14.616	947.515	718.940
147.673	14.613	946.778	718.303
148.687	14.424	945.808	716.691
149.702	14.472	944.855	716.110
150.716	14.430	944.650	715.713
151.731	14.506	943.459	715.072
152.746	14.607	942.602	714.794
153.760	14.666	941.924	714.467
154.775	14.667	941.882	714.379
155.789	14.756	941.161	714.149
156.804	14.813	940.352	713.714
157.819	14.724	939.641	712.734
158.833	14.750	939.208	712.452
159.848	14.819	938.185	711.905
160.862	14.678	937.533	710.749
161.877	14.652	936.255	709.604
162.892	14.599	935.130	708.467
163.906	14.707	934.145	708.114
164.921	14.602	933.702	707.270
165.935	14.676	932.685	706.751
166.950	14.636	931.941	705.958
167.964	14.723	930.794	705.392
168.979	14.639	930.201	704.524
169.994	14.581	929.399	703.610
171.008	14.572	928.764	703.032
172.023	14.811	927.859	703.288
173.037	14.944	927.205	703.290
174.052	14.729	926.919	702.106
175.067	14.767	925.653	701.245
176.081	14.618	925.379	700.352
177.096	14.538	925.089	699.735
178.110	14.671	924.076	699.463
179.125	14.694	923.687	699.203
180.140	14.722	923.118	698.828
181.154	14.922	922.584	699.196
182.169	14.940	922.327	699.016
183.183	14.982	921.379	698.410
184.198	14.950	920.826	697.798
185.213	14.946	920.001	697.095
186.227	15.072	919.267	697.001
187.242	15.061	918.688	696.455
188.256	15.086	918.124	696.070
189.271	15.115	917.399	695.579
190.286	14.972	916.379	694.150
191.300	14.654	916.253	692.673
192.315	14.646	915.111	691.716
193.329	14.699	914.606	691.492
194.344	14.796	914.028	691.396
195.359	14.874	913.604	691.335
196.373	14.947	912.979	691.105
197.388	15.072	912.933	691.522
198.402	15.169	912.068	691.206
199.417	15.172	911.527	690.748
200.432	15.324	910.565	690.584
201.446	15.258	910.672	690.332
202.461	15.264	909.913	689.721
203.475	15.290	909.459	689.421
204.490	15.283	908.178	688.360
205.504	15.291	907.602	687.898
206.519	15.190	906.674	686.720
207.534	15.181	906.293	686.334
208.548	15.170	906.045	686.041
209.563	15.205	905.005	685.336
210.577	15.192	904.633	684.940
211.592	15.358	903.943	685.035
212.607	15.358	903.102	684.336
213.621	15.414	902.235	683.846
214.636	15.312	901.521	682.831
215.650	15.420	901.290	683.033
216.665	15.460	900.321	682.400
217.680	15.432	899.941	681.940
218.694	15.562	898.912	681.628
219.709	15.506	898.551	681.067
220.723	15.552	897.892	680.694
221.738	15.432	897.411	679.783
222.753	15.360	896.743	678.926
223.767	15.512	895.888	678.833
224.782	15.576	895.353	678.626
225.796	15.495	895.184	678.111
226.811	15.468	894.369	677.323
227.826	15.398	893.743	676.508
228.840	15.464	892.693	675.918
229.855	15.502	891.783	675.322
230.869	15.456	891.335	674.737
231.884	15.333	890.985	673.919
232.899	15.485	889.982	673.712
233.913	15.269	889.441	672.376
234.928	15.401	888.183	671.895
235.942	15.229	888.176	671.138
236.957	15.485	887.162	671.336
237.972	15.312	886.838	670.342
238.986	15.475	886.249	670.490
240.001	15.471	885.131	669.566
241.015	15.481	884.972	669.430
242.030	15.528	884.727	669.370
243.045	15.594	883.967	668.998
244.059	15.502	883.346	668.103
245.074	15.575	882.728	667.869
246.088	15.539	882.356	667.382
247.103	15.654	881.639	667.240
248.117	15.838	881.069	667.480
249.132	15.986	880.464	667.546
250.147	16.012	880.013	667.247
251.161	16.019	879.231	666.624
252.176	16.065	878.570	666.248
253.190	16.221	877.895	666.293
254.205	16.067	877.354	665.215
255.220	16.136	876.838	665.038
256.234	16.112	876.146	664.360
257.249	16.147	875.226	663.738
258.263	16.116	874.770	663.214
259.278	16.279	873.851	663.098
260.293	16.288	873.312	662.664
261.307	16.154	873.092	661.916
262.322	16.228	872.489	661.690
263.336	16.317	871.470	661.208
264.351	16.353	870.773	660.762
265.366	16.231	870.287	659.857
266.380	16.384	869.732	659.976
267.395	16.411	868.870	659.365
268.409	16.320	868.212	658.454
269.424	16.167	867.450	657.222
270.439	16.255	866.579	656.846
271.453	16.095	866.276	655.936
272.468	16.292	865.467	656.031
273.482	16.262	865.128	655.600
274.497	16.285	864.574	655.213
275.512	16.384	863.698	654.873
276.526	16.320	863.539	654.446
277.541	16.320	863.126	654.075
278.555	16.454	862.435	654.014
279.570	16.309	861.992	653.058
280.585	16.440	860.908	652.686
281.599	16.486	860.234	652.295
282.614	16.451	859.723	651.716
283.628	16.209	859.673	650.684
284.643	16.326	858.637	650.295
285.657	16.364	858.206	650.057
286.672	16.473	857.427	649.828
287.687	16.520	856.605	649.327
288.701	16.475	856.350	648.904
289.716	16.544	855.708	648.624
290.730	16.405	855.270	647.705
291.745	16.529	854.433	647.486
292.760	16.767	853.801	647.861
293.774	16.730	853.323	647.300
294.789	16.728	852.764	646.812
295.803	16.519	852.093	645.448
296.818	16.534	851.294	644.843
297.833	16.599	850.558	644.473
298.847	16.490	850.119	643.669
299.862	16.529	849.694	643.441
300.876	16.733	848.934	643.584
301.891	16.840	848.228	643.396
302.906	16.781	848.003	642.946
303.920	16.745	847.701	642.523
304.935	16.853	847.134	642.446
305.949	16.904	846.202	641.875
306.964	16.840	845.501	641.046
307.979	16.653	845.398	640.202
308.993	16.941	844.187	640.318
310.008	17.055	843.885	640.462
311.022	16.980	843.106	639.531
312.037	16.790	842.859	638.570
313.052	16.836	841.928	637.982
314.066	16.701	841.747	637.279
315.081	16.810	840.833	636.941
316.095	16.803	840.261	636.425
317.110	16.788	839.805	635.965
318.125	16.839	839.375	635.777
319.139	16.801	839.059	635.340
320.154	16.847	838.323	634.899
321.168	16.881	837.858	634.616
322.183	17.024	837.030	634.468
323.197	16.739	837.117	633.410
324.212	16.867	836.277	633.197
325.227	16.832	835.909	632.732
326.241	16.934	835.139	632.473
327.256	16.938	834.317	631.810
328.270	16.905	833.992	631.388
329.285	16.975	833.267	631.041
330.300	16.882	832.752	630.252
331.314	16.878	832.544	630.023
332.329	16.965	831.959	629.847
333.343	17.000	831.449	629.536
334.358	17.020	831.045	629.248
335.373	17.022	830.845	629.048
336.387	17.214	830.462	629.412
337.402	17.226	830.346	629.315
338.416	17.356	829.572	629.153
339.431	17.469	829.540	629.489
340.446	17.365	829.404	628.948
341.460	17.388	828.799	628.516
342.475	17.462	828.508	628.515
343.489	17.296	828.294	627.683
344.504	17.423	827.493	627.491
345.519	17.555	827.011	627.554
346.533	17.446	826.446	626.668
347.548	17.429	826.004	626.217
348.562	17.251	825.833	625.377
349.577	17.213	824.741	624.353
350.592	17.336	824.032	624.213
351.606	17.361	823.390	623.763
352.621	17.279	822.858	623.007
353.635	17.400	822.295	622.966
354.650	17.344	821.600	622.181
355.665	17.346	820.693	621.447
356.679	17.440	820.390	621.506
357.694	17.452	819.943	621.154
358.708	17.445	819.273	620.567
359.723	17.450	818.786	620.161
360.738	17.457	818.271	619.742
361.752	17.524	817.397	619.270
362.767	17.532	817.160	619.064
363.781	17.534	816.689	618.660
364.796	17.838	816.074	619.242
365.810	17.887	815.425	618.871
366.825	17.757	815.245	618.210
367.840	17.803	814.949	618.098
368.854	17.853	814.193	617.650
369.869	17.718	814.037	616.990
370.883	17.733	813.613	616.667
371.898	17.702	813.624	616.507
372.913	18.003	812.758	616.884
373.927	17.720	812.449	615.575
374.942	17.860	811.649	615.418
375.956	18.019	811.556	615.865
376.971	18.021	811.103	615.475
377.986	17.998	810.369	614.782
379.000	18.058	810.233	614.838
380.015	17.985	809.638	614.070
381.029	17.913	809.271	613.479
382.044	18.052	808.201	613.113
383.059	18.173	807.406	612.891
384.073	17.916	807.292	611.828
385.088	17.919	806.553	611.224
386.102	17.994	805.724	610.809
387.117	17.931	805.301	610.210
388.132	17.914	805.075	609.923
389.146	17.849	804.454	609.168
390.161	18.141	803.939	609.765
391.175	18.066	804.079	609.552
392.190	18.029	803.352	608.813
393.205	17.858	802.729	607.678
394.219	17.920	802.368	607.571
395.234	17.988	801.932	607.430
396.248	17.939	801.416	606.810
397.263	17.941	800.715	606.235
398.278	18.023	800.208	606.086
399.292	17.842	800.017	605.246
400.307	17.844	799.445	604.768
401.321	17.954	799.038	604.796
402.336	17.996	798.883	604.772
403.350	18.022	798.204	604.297
404.365	18.217	797.720	604.568
405.380	18.336	797.238	604.570
406.394	18.315	796.699	604.031
407.409	18.351	796.419	603.892
408.423	18.561	795.774	604.091
409.438	18.388	795.839	603.477
410.453	18.396	795.316	603.055
411.467	18.485	794.902	603.002
412.482	18.463	794.542	602.599
413.496	18.603	794.371	602.907
414.511	18.576	794.007	602.483
415.526	18.512	793.395	601.741
416.540	18.495	792.638	601.053
417.555	18.543	792.443	601.022
418.569	18.416	792.337	600.442
419.584	18.582	791.535	600.362
420.599	18.533	791.273	599.938
421.613	156.803	1370.697	1795.924
422.628	135.678	1455.134	1796.019
