DTS Sentinel unit serial number:	SN413079Multiplexer serial number:	ORYXHardware model number:	OX4-SRSoftware version number:	ORYX F/W v4.00 Oryx Data Collector v3.7.2.0data status	okinstallation	princeton_trtdifferential loss correction	single-endedforward channel	channel 1reverse channel	N/Adate	2019/09/14time	16:42:35forward acquisition time	60.00reverse acquisition time	0.00gamma	496.2192k internal	0.2295k external	0.2295temperature offset calibration	1.0057default loss term (dB/km)	0.3790temperature slope calibration	1.0000multiplexer offset coefficient	1.0000multiplexer slope coefficient	1.0000fibre end	0.00T internal ref (°C)	38.00T ext. ref 1 (°C)	5.01T ext. ref 2 (°C)	33.71length (m)	temperature (°C)	Stokes	anti-Stokes-747.200	-133.187	-0.104	-0.013
-746.185	-145.153	0.150	0.014
-745.171	-200.000	-0.006	-0.035
-744.156	-2.717	-0.222	0.158
-743.142	738.096	0.111	0.305
-742.127	8.324	0.202	-0.155
-741.112	269.415	-0.112	-0.201
-740.098	-83.158	0.120	-0.039
-739.083	-200.000	-0.000	-0.154
-738.069	177.850	-0.068	-0.102
-737.054	277.658	0.123	0.224
-736.039	268.693	-0.059	0.107
-735.025	70.904	0.145	0.154
-734.010	94.068	0.182	-0.211
-732.996	-58.353	-0.159	-0.071
-731.981	-33.788	0.070	-0.039
-730.966	800.000	0.051	-0.146
-729.952	-18.845	-0.262	0.167
-728.937	-200.000	-0.015	-0.212
-727.923	-114.027	-0.318	-0.063
-726.908	-97.365	-0.309	-0.082
-725.894	-46.482	-0.043	-0.022
-724.879	-200.000	0.036	-0.198
-723.864	800.000	0.084	-0.257
-722.850	-200.000	0.020	-0.278
-721.835	-88.257	0.371	-0.113
-720.821	787.370	0.156	0.437
-719.806	13.270	-0.405	-0.321
-718.791	-63.898	-0.548	-0.229
-717.777	800.000	0.042	-0.159
-716.762	182.837	-0.071	-0.106
-715.748	-155.612	-0.096	0.006
-714.733	-112.043	0.481	-0.099
-713.718	-200.000	0.080	-0.420
-712.704	-200.000	0.057	-0.257
-711.689	-90.943	-0.226	-0.066
-710.675	-200.000	-0.008	0.054
-709.660	-200.000	0.021	-0.137
-708.645	-170.640	-0.343	0.012
-707.631	134.927	-0.134	0.178
-706.616	-46.262	0.115	-0.058
-705.602	23.422	-0.153	0.128
-704.587	-200.000	-0.028	0.302
-703.572	800.000	0.080	-0.269
-702.558	-52.338	0.130	-0.061
-701.543	-139.279	0.126	0.014
-700.529	354.821	-0.094	0.190
-699.514	-129.627	0.183	-0.026
-698.499	276.945	-0.048	0.086
-697.485	249.641	0.169	-0.293
-696.470	800.000	0.031	-0.126
-695.456	187.978	-0.162	0.246
-694.441	677.545	0.066	-0.175
-693.426	-200.000	0.015	-0.288
-692.412	119.759	-0.235	-0.298
-691.397	90.126	-0.164	-0.187
-690.383	-21.221	0.235	-0.146
-689.368	27.024	-0.420	-0.360
-688.354	568.793	0.077	-0.191
-687.339	800.000	0.066	-0.287
-686.324	-200.000	-0.030	-0.135
-685.310	-50.335	-0.018	0.009
-684.295	154.228	-0.103	-0.144
-683.281	24.198	-0.180	0.151
-682.266	254.120	-0.223	0.389
-681.251	-200.000	0.016	-0.234
-680.237	-56.003	-0.122	0.055
-679.222	-95.286	-0.202	-0.055
-678.208	800.000	-0.063	-0.213
-677.193	-167.835	0.235	-0.009
-676.178	-153.393	-0.198	-0.014
-675.164	-200.000	-0.054	0.243
-674.149	-110.900	0.239	0.050
-673.135	-97.304	-0.041	0.011
-672.120	-19.474	-0.190	0.120
-671.105	190.667	-0.071	0.109
-670.091	535.154	-0.021	-0.051
-669.076	138.932	-0.070	0.094
-668.062	800.000	0.036	0.108
-667.047	-111.556	-0.203	0.042
-666.032	-200.000	-0.006	0.174
-665.018	800.000	-0.113	-0.341
-664.003	-16.391	0.169	-0.109
-662.989	-200.000	-0.020	-0.144
-661.974	-122.102	-0.174	0.029
-660.959	-148.030	-0.372	-0.031
-659.945	-82.339	0.299	-0.099
-658.930	159.831	-0.181	0.258
-657.916	27.972	0.059	-0.051
-656.901	-200.000	0.034	0.213
-655.886	207.461	0.117	0.186
-654.872	-200.000	0.106	-0.519
-653.857	-48.364	0.491	0.241
-652.843	73.981	0.138	-0.147
-651.828	-130.718	0.297	-0.041
-650.814	30.667	-0.142	-0.124
-649.799	-94.251	0.030	0.008
-648.784	-150.034	-0.338	-0.027
-647.770	-191.451	-0.048	-0.000
-646.755	-200.000	0.098	0.471
-645.741	102.615	0.145	-0.173
-644.726	-200.000	0.020	0.124
-643.711	49.052	-0.305	-0.292
-642.697	800.000	0.035	0.108
-641.682	290.508	-0.073	-0.135
-640.668	800.000	-0.027	-0.115
-639.653	-40.334	0.170	-0.090
-638.638	138.686	-0.161	-0.216
-637.624	-200.000	-0.004	-0.202
-636.609	639.197	0.103	-0.266
-635.595	37.284	0.332	-0.300
-634.580	21.320	-0.092	-0.076
-633.565	-92.175	-0.262	0.075
-632.551	-200.000	0.026	0.150
-631.536	428.549	-0.116	-0.255
-630.522	-200.000	-0.085	-0.395
-629.507	-200.000	0.013	0.238
-628.492	196.716	-0.230	-0.357
-627.478	800.000	0.101	-0.343
-626.463	-200.000	0.034	0.194
-625.449	-42.839	0.167	-0.086
-624.434	423.356	0.139	-0.305
-623.419	-79.945	-0.031	-0.011
-622.405	-142.379	-0.264	0.027
-621.390	-200.000	-0.028	-0.346
-620.376	-1.560	-0.119	0.086
-619.361	111.362	0.141	0.173
-618.346	-43.497	0.094	-0.049
-617.332	-176.075	0.129	-0.003
-616.317	134.334	-0.136	-0.179
-615.303	31.070	0.050	-0.044
-614.288	149.964	0.082	0.113
-613.273	-128.181	-0.052	0.008
-612.259	800.000	-0.009	-0.037
-611.244	129.541	-0.092	0.119
-610.230	-133.385	0.269	-0.034
-609.215	764.793	-0.160	-0.442
-608.201	-200.000	0.002	-0.199
-607.186	800.000	-0.047	-0.181
-606.171	24.187	0.171	-0.143
-605.157	-200.000	-0.010	-0.113
-604.142	128.769	0.294	-0.381
-603.128	-43.592	-0.245	0.126
-602.113	800.000	-0.079	-0.278
-601.098	157.710	-0.399	-0.562
-600.084	800.000	0.004	0.012
-599.069	-116.668	0.252	0.047
-598.055	341.116	-0.044	0.087
-597.040	160.954	0.066	0.094
-596.025	336.269	-0.144	0.284
-595.011	800.000	0.063	-0.229
-593.996	102.845	0.178	0.212
-592.982	-67.961	0.048	0.019
-591.967	-147.637	-0.199	0.017
-590.952	-35.444	-0.271	-0.150
-589.938	-15.088	0.128	-0.083
-588.923	-200.000	-0.000	0.058
-587.909	325.273	-0.154	-0.299
-586.894	232.100	0.125	-0.209
-585.879	-104.698	-0.188	-0.044
-584.865	76.884	0.180	0.194
-583.850	-19.111	-0.201	-0.127
-582.836	-200.000	0.040	-0.198
-581.821	-200.000	-0.011	-0.147
-580.806	-39.888	-0.196	-0.104
-579.792	578.688	-0.056	0.139
-578.777	-200.000	-0.018	0.081
-577.763	-200.000	0.017	0.245
-576.748	316.849	0.065	0.124
-575.733	-25.209	0.217	-0.131
-574.719	-122.425	-0.110	0.018
-573.704	111.967	0.178	-0.219
-572.690	-132.549	0.247	0.032
-571.675	10.268	-0.217	0.168
-570.661	295.172	0.252	0.468
-569.646	57.339	0.227	0.225
-568.631	-182.231	0.295	0.006
-567.617	-14.528	-0.102	-0.067
-566.602	624.652	-0.056	-0.142
-565.588	379.388	-0.084	-0.175
-564.573	-28.023	0.326	-0.192
-563.558	212.078	0.212	-0.338
-562.544	31.868	-0.163	-0.143
-561.529	-145.416	-0.334	0.031
-560.515	10.389	-0.291	-0.225
-559.500	-51.887	0.285	-0.135
-558.485	800.000	0.070	0.257
-557.471	-103.071	-0.165	0.040
-556.456	225.200	0.029	-0.048
-555.442	-116.863	-0.313	0.058
-554.427	63.864	-0.038	0.039
-553.412	118.028	0.122	-0.152
-552.398	-200.000	0.028	0.313
-551.383	-109.035	-0.246	0.053
-550.369	331.563	0.133	-0.260
-549.354	-80.306	-0.232	-0.079
-548.339	-141.413	-0.317	0.033
-547.325	-200.000	-0.073	0.423
-546.310	-17.643	0.195	-0.124
-545.296	-200.000	0.028	-0.312
-544.281	173.274	0.083	-0.121
-543.266	-41.780	-0.158	0.082
-542.252	690.640	-0.101	0.267
-541.237	-200.000	-0.019	0.126
-540.223	-58.522	-0.439	-0.193
-539.208	800.000	0.066	0.203
-538.193	800.000	-0.039	-0.122
-537.179	-200.000	-0.017	0.179
-536.164	-200.000	0.007	0.157
-535.150	-42.451	-0.269	-0.139
-534.135	-145.067	-0.204	0.019
-533.121	-200.000	0.027	-0.157
-532.106	154.654	-0.106	-0.148
-531.091	-76.724	0.296	-0.105
-530.077	-35.791	0.121	-0.067
-529.062	272.415	0.108	-0.194
-528.048	-72.863	0.105	0.039
-527.033	117.598	0.078	-0.097
-526.018	40.252	0.219	-0.200
-525.004	348.488	-0.033	0.065
-523.989	-4.541	0.320	0.224
-522.975	-37.648	0.268	-0.145
-521.960	-200.000	0.004	-0.256
-520.945	-14.905	-0.131	-0.085
-519.931	-200.000	0.004	0.232
-518.916	-102.347	-0.442	0.107
-517.902	-76.647	-0.185	0.066
-516.887	-195.137	-0.050	-0.000
-515.872	-26.633	0.247	0.147
-514.858	223.042	0.117	-0.190
-513.843	800.000	0.054	0.167
-512.829	225.512	-0.159	-0.261
-511.814	99.496	0.050	-0.059
-510.799	-200.000	-0.012	-0.067
-509.785	-60.022	0.053	-0.023
-508.770	130.282	0.134	-0.174
-507.756	57.104	0.221	-0.218
-506.741	-76.075	0.219	0.079
-505.726	800.000	-0.023	0.076
-504.712	-21.643	0.171	0.105
-503.697	0.878	-0.127	-0.092
-502.683	53.721	0.195	0.190
-501.668	-153.879	-0.203	0.014
-500.653	119.926	0.114	0.143
-499.639	-80.685	-0.220	0.074
-498.624	282.451	0.098	0.178
-497.610	800.000	-0.057	-0.193
-496.595	-159.772	-0.244	-0.014
-495.581	800.000	0.046	0.160
-494.566	120.992	-0.213	0.268
-493.551	176.213	0.125	0.184
-492.537	-41.917	-0.148	0.077
-491.522	-200.000	0.070	0.388
-490.508	-31.558	-0.208	-0.119
-489.493	-84.309	-0.140	0.045
-488.478	-110.794	-0.129	0.027
-487.464	414.845	-0.079	0.169
-486.449	-200.000	0.020	0.310
-485.435	-40.051	-0.285	-0.150
-484.420	800.000	-0.068	-0.260
-483.405	-9.757	-0.094	-0.063
-482.391	-102.243	-0.228	-0.055
-481.376	-37.434	0.184	-0.099
-480.362	25.629	0.124	-0.104
-479.347	222.241	0.087	-0.141
-478.332	-200.000	0.004	-0.035
-477.318	-73.041	-0.216	0.080
-476.303	-200.000	0.024	-0.228
-475.289	-174.227	-0.474	0.014
-474.274	-44.518	-0.274	-0.139
-473.259	641.592	-0.081	0.208
-472.245	-22.955	0.069	0.042
-471.230	141.258	0.151	0.202
-470.216	765.738	0.116	-0.318
-469.201	-200.000	-0.002	0.047
-468.186	126.067	-0.137	-0.175
-467.172	157.422	-0.161	-0.225
-466.157	152.103	-0.153	0.211
-465.143	50.994	0.047	-0.045
-464.128	9.636	-0.029	0.022
-463.113	32.791	0.077	0.067
-462.099	456.417	-0.058	0.131
-461.084	317.397	0.044	0.085
-460.070	136.685	0.200	0.263
-459.055	229.702	-0.162	-0.267
-458.040	-102.692	-0.214	0.052
-457.026	55.239	0.196	0.192
-456.011	-108.070	-0.174	-0.038
-454.997	-117.700	-0.108	0.020
-453.982	-56.583	0.194	0.087
-452.968	-27.383	0.089	0.053
-451.953	-197.804	-0.233	-0.001
-450.938	800.000	0.039	-0.117
-449.924	-59.636	0.331	0.144
-448.909	338.463	0.116	-0.228
-447.895	-200.000	0.049	-0.232
-446.880	-200.000	-0.011	0.080
-445.865	658.796	-0.130	0.337
-444.851	93.279	0.076	0.087
-443.836	-121.485	-0.059	-0.010
-442.822	346.954	0.108	0.216
-441.807	360.531	-0.108	0.218
-440.792	-14.280	-0.175	0.114
-439.778	131.476	-0.167	0.217
-438.763	205.719	0.129	0.202
-437.749	-200.000	0.013	0.184
-436.734	800.000	-0.016	-0.056
-435.719	-52.286	0.164	-0.077
-434.705	-200.000	0.014	-0.369
-433.690	-105.158	-0.198	0.046
-432.676	-34.966	-0.208	-0.115
-431.661	800.000	0.081	0.252
-430.646	-115.454	0.317	-0.060
-429.632	-157.810	0.411	-0.025
-428.617	-8.556	-0.123	0.083
-427.603	-200.000	0.025	0.155
-426.588	278.765	-0.199	-0.358
-425.573	141.641	0.023	-0.031
-424.559	-200.000	-0.021	0.402
-423.544	-140.525	-0.276	-0.029
-422.530	-200.000	0.003	0.215
-421.515	800.000	0.052	-0.180
-420.500	-145.296	0.170	-0.016
-419.486	45.360	-0.177	0.165
-418.471	129.125	-0.128	0.165
-417.457	-77.198	0.313	0.110
-416.442	188.646	-0.109	-0.164
-415.428	800.000	0.074	0.209
-414.413	-108.464	0.335	0.073
-413.398	-200.000	0.023	0.138
-412.384	222.050	0.103	0.167
-411.369	-200.000	-0.013	-0.093
-410.355	-82.449	0.154	0.050
-409.340	31.013	0.182	-0.157
-408.325	-187.653	0.171	-0.002
-407.311	-200.000	-0.017	-0.079
-406.296	142.868	-0.168	0.225
-405.282	261.441	0.133	-0.233
-404.267	-200.000	0.026	0.115
-403.252	21.056	0.225	0.184
-402.238	-0.969	-0.110	-0.078
-401.223	-82.721	0.100	-0.033
-400.209	-200.000	-0.044	0.220
-399.194	800.000	0.089	0.341
-398.179	-200.000	0.010	0.102
-397.165	40.889	-0.122	0.111
-396.150	237.378	-0.179	0.300
-395.136	584.408	-0.085	0.210
-394.121	112.096	-0.220	0.268
-393.106	-107.594	-0.128	0.028
-392.092	721.653	-0.055	0.147
-391.077	-82.296	-0.102	-0.033
-390.063	-162.282	0.029	0.001
-389.048	268.977	0.123	-0.217
-388.033	-200.000	-0.013	0.124
-387.019	-200.000	-0.040	0.363
-386.004	198.930	-0.036	0.056
-384.990	527.980	0.079	-0.188
-383.975	-200.000	0.011	-0.208
-382.960	288.649	0.072	0.131
-381.946	800.000	0.003	0.012
-380.931	14.989	0.224	0.176
-379.917	-61.420	0.108	-0.046
-378.902	145.381	-0.019	0.025
-377.888	67.090	-0.223	-0.229
-376.873	-200.000	0.026	-0.193
-375.858	29.138	0.274	0.234
-374.844	800.000	-0.095	-0.383
-373.829	284.060	-0.134	0.243
-372.815	-200.000	0.024	0.207
-371.800	-196.762	0.208	-0.001
-370.785	71.737	-0.088	0.093
-369.771	-72.659	-0.345	0.128
-368.756	57.010	-0.122	-0.120
-367.742	-200.000	-0.004	-0.100
-366.727	58.805	0.197	0.195
-365.712	99.090	-0.201	-0.234
-364.698	-37.500	0.166	-0.089
-363.683	260.469	-0.074	-0.129
-362.669	86.853	0.101	-0.112
-361.654	-200.000	-0.053	-0.335
-360.639	-163.636	-0.161	0.008
-359.625	-185.467	0.258	0.004
-358.610	-89.773	0.170	0.050
-357.596	429.141	0.014	0.031
-356.581	-161.275	0.234	0.012
-355.566	-200.000	0.032	0.206
-354.552	119.889	0.172	0.214
-353.537	-34.329	0.109	0.060
-352.523	10.080	-0.060	-0.046
-351.508	21.939	-0.266	0.219
-350.493	-200.000	0.006	0.156
-349.479	0.080	-0.177	0.127
-348.464	-146.194	0.254	0.023
-347.450	486.577	0.048	-0.110
-346.435	800.000	0.024	-0.094
-345.420	7.032	-0.296	-0.222
-344.406	122.302	-0.085	0.107
-343.391	800.000	-0.056	-0.237
-342.377	-200.000	-0.003	-0.027
-341.362	-31.415	0.065	-0.037
-340.348	586.241	0.134	0.332
-339.333	210.411	0.223	0.353
-338.318	-154.005	0.053	-0.004
-337.304	40.799	0.087	-0.079
-336.289	-75.628	0.336	-0.120
-335.275	-200.000	-0.019	0.337
-334.260	109.318	-0.143	-0.173
-333.245	47.242	0.245	-0.229
-332.231	149.471	-0.032	0.044
-331.216	278.894	-0.202	-0.362
-330.202	-200.000	-0.017	-0.335
-329.187	-116.846	-0.106	0.020
-328.172	-143.728	-0.302	-0.029
-327.158	-57.135	0.357	0.158
-326.143	82.931	-0.132	0.144
-325.129	7.671	0.182	-0.137
-324.114	172.059	0.124	-0.180
-323.099	-196.297	-0.251	0.002
-322.085	42.695	0.112	0.102
-321.070	-167.991	-0.131	0.005
-320.056	-100.394	0.094	0.023
-319.041	-22.996	0.363	-0.220
-318.026	-85.570	-0.290	-0.091
-317.012	-76.166	-0.066	0.023
-315.997	-200.000	0.024	0.281
-314.983	286.612	0.123	0.224
-313.968	6.026	-0.139	-0.104
-312.953	-137.977	0.210	0.024
-311.939	-94.304	0.299	0.082
-310.924	-121.141	0.216	-0.036
-309.910	27.321	-0.125	-0.106
-308.895	-30.081	-0.128	0.073
-307.880	-169.628	-0.165	0.006
-306.866	193.424	-0.084	-0.127
-305.851	-170.593	-0.228	0.008
-304.837	0.374	0.277	0.199
-303.822	79.124	0.093	-0.100
-302.807	-200.000	0.049	-0.221
-301.793	60.797	-0.192	-0.192
-300.778	280.124	-0.187	-0.337
-299.764	110.365	-0.045	-0.055
-298.749	169.082	0.117	0.168
-297.735	76.242	0.235	-0.250
-296.720	-45.787	-0.414	0.205
-295.705	-20.764	0.106	0.065
-294.691	640.352	-0.119	0.305
-293.676	-200.000	-0.002	-0.097
-292.662	-200.000	-0.082	-0.372
-291.647	-141.422	-0.262	0.027
-290.632	-144.746	0.194	0.018
-289.618	784.617	0.122	-0.337
-288.603	365.164	-0.172	-0.348
-287.589	-152.109	0.496	0.036
-286.574	-15.831	-0.212	0.135
-285.559	187.812	0.183	0.275
-284.545	-200.000	-0.008	0.119
-283.530	-96.471	-0.202	-0.054
-282.516	105.530	-0.112	0.132
-281.501	5.256	0.222	-0.164
-280.486	-200.000	0.005	0.152
-279.472	144.793	-0.041	0.055
-278.457	-130.308	0.139	0.019
-277.443	800.000	-0.055	-0.216
-276.428	78.221	0.154	-0.165
-275.413	99.317	0.351	-0.408
-274.399	-200.000	0.005	-0.061
-273.384	57.953	-0.117	-0.115
-272.370	-117.798	0.290	-0.052
-271.355	192.272	-0.287	0.435
-270.340	-6.000	0.127	-0.087
-269.326	13.362	-0.228	-0.178
-268.311	15.378	0.172	0.135
-267.297	-200.000	-0.076	0.466
-266.282	800.000	0.044	-0.169
-265.267	181.976	0.181	0.268
-264.253	-42.444	0.397	-0.203
-263.238	-200.000	0.049	0.269
-262.224	240.504	-0.139	-0.233
-261.209	-16.642	0.440	-0.279
-260.195	-22.337	0.186	0.113
-259.180	153.898	-0.269	-0.370
-258.165	-39.781	-0.132	-0.069
-257.151	-64.573	0.118	-0.048
-256.136	69.844	0.207	-0.215
-255.122	-147.091	-0.086	0.007
-254.107	-108.775	0.129	0.028
-253.092	182.391	-0.107	0.159
-252.078	98.245	0.122	0.141
-251.063	-28.541	0.145	0.084
-250.049	24.994	-0.180	0.150
-249.034	800.000	-0.040	0.111
-248.019	-84.631	0.147	-0.046
-247.005	-200.000	0.007	-0.050
-245.990	373.503	0.116	0.237
-244.976	130.250	0.183	0.235
-243.961	141.110	-0.130	0.173
-242.946	204.942	0.215	0.335
-241.932	800.000	0.076	0.224
-240.917	97.054	-0.107	-0.124
-239.903	-18.915	-0.081	-0.051
-238.888	-83.660	-0.369	0.118
-237.873	272.737	0.083	0.147
-236.859	-147.494	0.076	-0.006
-235.844	-4.060	-0.126	0.087
-234.830	103.446	0.061	-0.071
-233.815	-110.664	-0.265	0.055
-232.800	-122.284	-0.201	-0.033
-231.786	-33.422	0.102	0.056
-230.771	-200.000	-0.022	-0.127
-229.757	800.000	-0.030	0.098
-228.742	148.024	0.089	0.120
-227.727	-200.000	-0.013	0.130
-226.713	800.000	-0.045	0.172
-225.698	-20.091	-0.404	0.249
-224.684	-0.429	0.419	-0.298
-223.669	-95.371	-0.161	-0.043
-222.655	287.015	0.023	-0.041
-221.640	-190.177	-0.277	0.003
-220.625	-147.578	-0.438	-0.037
-219.611	-67.260	0.144	0.057
-218.596	54.713	-0.267	0.258
-217.582	-59.886	-0.101	0.043
-216.567	-145.216	0.230	0.021
-215.552	94.014	-0.055	0.062
-214.538	92.483	-0.075	-0.085
-213.523	-37.291	-0.137	-0.073
-212.509	-149.524	0.185	-0.015
-211.494	7.978	0.270	-0.203
-210.479	-200.000	0.013	0.125
-209.465	-200.000	0.096	0.504
-208.450	-200.000	0.018	0.195
-207.436	-135.843	0.185	-0.022
-206.421	800.000	0.076	0.278
-205.406	-83.068	0.069	0.022
-204.392	-200.000	-0.023	-0.202
-203.377	-172.454	0.100	-0.003
-202.363	-44.822	-0.206	0.103
-201.348	-55.351	0.167	-0.075
-200.333	83.504	-0.128	-0.140
-199.319	-37.016	-0.256	-0.137
-198.304	258.053	0.060	-0.103
-197.290	323.960	0.100	-0.191
-196.275	230.250	0.070	0.115
-195.260	12.345	-0.172	-0.133
-194.246	-200.000	-0.012	0.196
-193.231	214.020	-0.176	0.278
-192.217	-200.000	0.022	-0.169
-191.202	800.000	0.037	-0.154
-190.187	-159.082	0.319	0.018
-189.173	786.357	0.043	0.119
-188.158	-160.827	0.251	0.013
-187.144	-200.000	-0.004	-0.114
-186.129	-68.963	0.156	-0.060
-185.114	-156.611	0.148	0.009
-184.100	-6.926	-0.219	-0.149
-183.085	30.882	0.114	0.098
-182.071	55.723	0.218	-0.211
-181.056	188.544	0.156	-0.234
-180.042	662.935	0.063	0.164
-179.027	-14.671	-0.165	-0.106
-178.012	-30.187	0.124	-0.071
-176.998	86.606	-0.092	-0.101
-175.983	28.920	-0.190	0.161
-174.969	-200.000	-0.041	0.280
-173.954	176.487	-0.131	-0.190
-172.939	-123.106	0.299	0.048
-171.925	108.141	-0.146	0.174
-170.910	-160.239	0.112	0.006
-169.896	-40.451	-0.134	-0.070
-168.881	187.576	-0.041	0.060
-167.866	58.566	-0.117	-0.115
-166.852	-200.000	-0.064	-0.378
-165.837	33.857	-0.305	-0.265
-164.823	-200.000	-0.011	0.081
-163.808	800.000	0.023	0.092
-162.793	-102.524	-0.276	0.066
-161.779	432.677	-0.075	0.163
-160.764	-134.452	0.096	-0.012
-159.750	-80.910	-0.141	-0.047
-158.735	58.912	-0.067	0.066
-157.720	-72.216	0.159	-0.059
-156.706	-200.000	-0.037	0.290
-155.691	-200.000	0.035	0.289
-154.677	274.527	-0.141	0.250
-153.662	-131.417	0.529	0.070
-152.647	596.016	0.043	-0.105
-151.633	-200.000	-0.012	0.166
-150.618	165.188	-0.134	-0.189
-149.604	142.658	0.141	-0.187
-148.589	122.873	0.186	0.233
-147.574	-200.000	-0.019	0.168
-146.560	403.679	-0.102	-0.214
-145.545	145.011	0.164	-0.219
-144.531	404.327	0.131	-0.276
-143.516	-200.000	-0.009	-0.058
-142.502	800.000	-0.116	0.393
-141.487	-200.000	0.036	0.183
-140.472	62.694	0.068	0.068
-139.458	-48.171	0.383	-0.185
-138.443	12.604	0.373	0.288
-137.429	37.466	-0.092	-0.081
-136.414	-200.000	-0.032	-0.187
-135.399	164.989	0.263	0.370
-134.385	148.490	-0.231	-0.311
-133.370	2.416	0.291	-0.210
-132.356	-200.000	0.025	0.212
-131.341	-92.603	-0.167	-0.047
-130.326	-200.000	-0.035	0.178
-129.312	-119.080	0.339	-0.059
-128.297	-78.204	0.121	0.041
-127.283	91.031	0.030	0.033
-126.268	74.542	0.217	0.228
-125.253	800.000	0.044	-0.175
-124.239	35.704	0.073	0.064
-123.224	-41.607	-0.155	-0.080
-122.210	239.453	-0.066	-0.109
-121.195	800.000	0.095	0.337
-120.180	333.100	-0.148	0.286
-119.166	39.949	0.172	-0.154
-118.151	-200.000	0.018	0.324
-117.137	226.422	0.302	-0.490
-116.122	-87.108	-0.212	-0.064
-115.107	-12.322	-0.195	0.127
-114.093	-92.477	-0.042	0.012
-113.078	-65.260	-0.126	-0.051
-112.064	-16.521	0.120	-0.076
-111.049	-11.488	-0.023	-0.015
-110.034	-200.000	-0.074	-0.353
-109.020	167.131	-0.073	-0.103
-108.005	67.133	-0.108	0.110
-106.991	800.000	0.091	0.299
-105.976	181.149	-0.101	0.147
-104.962	705.314	0.060	0.159
-103.947	-99.739	0.353	0.088
-102.932	180.296	-0.245	-0.359
-101.918	-85.417	-0.052	-0.016
-100.903	-200.000	-0.017	0.267
-99.889	-200.000	-0.022	0.408
-98.874	-118.758	0.036	0.006
-97.859	-69.537	-0.271	0.104
-96.845	187.982	-0.157	0.233
-95.830	-31.110	0.067	-0.038
-94.816	44.105	0.209	0.191
-93.801	1.884	0.136	-0.098
-92.786	-112.299	-0.256	-0.051
-91.772	-200.000	-0.012	0.151
-90.757	54.070	-0.032	0.030
-89.743	-200.000	-0.010	-0.244
-88.728	-200.000	-0.053	-0.330
-87.713	41.813	0.143	-0.129
-86.699	31.735	-0.128	0.110
-85.684	62.235	0.071	0.070
-84.670	-110.990	-0.175	-0.036
-83.655	-59.074	0.406	-0.174
-82.640	-200.000	-0.020	0.380
-81.626	302.260	0.212	0.390
-80.611	-200.000	-0.008	0.231
-79.597	332.653	0.065	0.125
-78.582	-200.000	-0.007	-0.096
-77.567	48.328	0.272	-0.254
-76.553	-200.000	0.019	-0.161
-75.538	-105.998	-0.125	0.028
-74.524	-44.385	0.218	0.109
-73.509	0.683	0.061	-0.043
-72.494	-200.000	-0.011	-0.192
-71.480	112.336	0.049	-0.059
-70.465	2.497	-0.107	-0.078
-69.451	800.000	0.057	0.193
-68.436	-200.000	0.032	0.541
-67.422	-70.665	0.218	-0.082
-66.407	242.151	-0.072	-0.121
-65.392	800.000	-0.089	0.333
-64.378	-200.000	-0.039	-0.461
-63.363	-200.000	0.005	-0.214
-62.349	-44.695	-0.184	0.091
-61.334	129.741	-0.656	-0.835
-60.319	39.519	0.551	0.491
-59.305	-200.000	-0.011	-0.626
-58.290	-19.050	0.575	0.356
-57.276	400.340	0.764	1.594
-56.261	-200.000	85.619	497.078
-55.246	528.734	1381.367	3244.182
-54.232	183.900	2596.745	3823.340
-53.217	118.357	2220.535	2725.951
-52.203	48.634	1669.863	1557.588
-51.188	41.309	1402.044	1261.589
-50.173	38.038	1357.966	1201.772
-49.159	56.537	1400.577	1355.443
-48.144	61.558	1419.512	1405.085
-47.130	41.830	1377.858	1242.867
-46.115	38.115	1360.169	1204.011
-45.100	37.860	1355.714	1198.449
-44.086	37.902	1352.592	1195.897
-43.071	37.768	1350.578	1193.253
-42.057	37.684	1348.367	1190.739
-41.042	37.794	1346.655	1189.849
-40.027	37.887	1345.263	1189.142
-39.013	37.906	1343.075	1187.272
-37.998	37.859	1341.660	1185.691
-36.984	37.913	1339.512	1184.075
-35.969	37.959	1337.788	1182.783
-34.954	38.152	1335.943	1182.270
-33.940	37.972	1334.532	1179.886
-32.925	38.048	1332.994	1178.942
-31.911	38.057	1331.692	1177.793
-30.896	38.081	1330.108	1176.495
-29.881	38.072	1329.557	1175.902
-28.867	38.152	1327.690	1174.689
-27.852	38.108	1325.770	1172.677
-26.838	38.097	1324.960	1171.850
-25.823	38.229	1323.063	1170.916
-24.809	38.096	1321.821	1168.973
-23.794	38.154	1320.249	1167.882
-22.779	38.047	1319.164	1166.239
-21.765	38.189	1317.459	1165.530
-20.750	38.003	1316.798	1163.794
-19.736	38.080	1315.216	1162.804
-18.721	37.899	1314.408	1160.966
-17.706	37.955	1313.039	1160.047
-16.692	37.887	1311.527	1158.259
-15.677	37.913	1310.568	1157.520
-14.663	37.988	1309.454	1156.938
-13.648	37.938	1308.531	1155.779
-12.633	37.946	1307.152	1154.562
-11.619	38.038	1306.069	1154.105
-10.604	37.942	1305.501	1152.991
-9.590	37.927	1304.651	1152.102
-8.575	38.016	1303.043	1151.164
-7.560	37.955	1302.367	1150.158
-6.546	37.884	1301.857	1149.244
-5.531	37.790	1301.097	1147.975
-4.517	37.893	1300.214	1147.758
-3.502	37.954	1298.889	1146.902
-2.487	37.929	1297.909	1145.841
-1.473	37.946	1294.175	1142.602
-0.458	36.689	1279.065	1121.933
0.556	33.241	1258.559	1079.697
1.571	28.933	1262.784	1058.494
2.586	27.577	1276.600	1062.085
3.600	26.037	1264.796	1043.275
4.615	19.451	1188.941	944.685
5.629	9.646	1108.409	830.335
6.644	5.182	1085.876	790.810
7.659	4.798	1083.464	787.042
8.673	5.042	1082.439	787.458
9.688	5.028	1080.477	785.893
10.702	5.214	1079.460	786.017
11.717	10.443	1087.557	818.302
12.731	18.824	1099.005	869.435
13.746	20.997	1100.674	881.679
14.761	19.588	1097.520	871.965
15.775	18.310	1096.020	864.247
16.790	17.303	1093.444	857.067
17.804	16.498	1092.146	851.918
18.819	16.259	1090.816	849.605
19.834	15.848	1090.086	846.892
20.848	15.686	1089.087	845.226
21.863	15.511	1088.326	843.682
22.877	15.449	1087.660	842.782
23.892	15.386	1086.803	841.728
24.907	15.464	1086.240	841.605
25.921	15.378	1085.117	840.229
26.936	15.348	1083.699	838.909
27.950	15.437	1082.428	838.295
28.965	15.532	1080.621	837.293
29.980	15.614	1079.269	836.581
30.994	15.700	1077.991	835.943
32.009	15.724	1076.927	835.165
33.023	15.606	1075.900	833.707
34.038	15.610	1074.620	832.662
35.053	15.528	1073.944	831.659
36.067	15.486	1073.409	830.965
37.082	15.593	1072.258	830.530
38.096	15.667	1071.568	830.287
39.111	15.702	1070.628	829.656
40.126	15.522	1069.610	827.905
41.140	15.279	1068.107	825.474
42.155	15.192	1067.207	824.279
43.169	15.177	1065.927	823.144
44.184	15.191	1065.006	822.428
45.199	15.253	1063.816	821.738
46.213	15.461	1062.326	821.534
47.228	15.518	1061.490	821.096
48.242	15.493	1060.542	820.164
49.257	15.540	1059.330	819.384
50.271	15.568	1058.638	818.914
51.286	15.491	1058.033	818.001
52.301	15.499	1057.262	817.370
53.315	15.414	1056.059	815.954
54.330	15.339	1054.788	814.534
55.344	15.353	1053.767	813.741
56.359	15.436	1052.761	813.296
57.374	15.209	1052.095	811.609
58.388	15.216	1051.043	810.762
59.403	15.228	1050.212	810.108
60.417	15.257	1049.643	809.733
61.432	15.105	1048.837	808.307
62.447	15.083	1047.735	807.281
63.461	15.052	1047.152	806.611
64.476	15.067	1046.266	805.927
65.490	15.212	1045.129	805.679
66.505	15.166	1044.709	805.060
67.520	15.168	1043.917	804.389
68.534	15.166	1043.433	803.938
69.549	15.069	1043.148	803.183
70.563	15.149	1041.331	802.095
71.578	15.172	1040.254	801.304
72.593	15.015	1039.995	800.284
73.607	15.034	1038.976	799.519
74.622	14.961	1039.019	799.130
75.636	15.054	1037.616	798.426
76.651	15.248	1036.546	798.457
77.666	15.090	1036.398	797.520
78.680	15.146	1035.615	797.114
79.695	15.056	1035.251	796.333
80.709	15.225	1034.261	796.304
81.724	15.193	1033.848	795.765
82.739	15.248	1032.832	795.173
83.753	15.492	1032.386	795.916
84.768	15.592	1031.474	795.615
85.782	15.671	1030.740	795.354
86.797	15.602	1029.872	794.287
87.812	15.466	1029.008	792.906
88.826	15.502	1027.704	792.001
89.841	15.572	1026.672	791.470
90.855	15.592	1025.930	790.917
91.870	15.576	1025.216	790.223
92.884	15.691	1024.131	789.859
93.899	15.719	1023.463	789.402
94.914	15.845	1022.681	789.323
95.928	15.769	1021.541	788.017
96.943	15.621	1020.968	786.814
97.957	15.583	1020.013	785.831
98.972	15.657	1019.044	785.357
99.987	15.649	1018.322	784.696
101.001	15.689	1016.973	783.772
102.016	15.651	1015.915	782.713
103.030	15.626	1015.659	782.326
104.045	15.638	1014.666	781.551
105.060	15.577	1013.773	780.509
106.074	15.363	1013.104	778.930
107.089	15.292	1011.422	777.243
108.103	15.285	1010.922	776.757
109.118	15.339	1009.643	775.954
110.133	15.263	1008.508	774.661
111.147	15.301	1007.673	774.129
112.162	15.292	1007.365	773.781
113.176	15.375	1006.598	773.506
114.191	15.437	1005.839	773.137
115.206	15.418	1005.139	772.444
116.220	15.378	1004.502	771.702
117.235	15.247	1003.225	770.052
118.249	15.309	1002.414	769.644
119.264	15.298	1001.524	768.846
120.279	15.227	1001.190	768.195
121.293	15.157	1000.015	766.905
122.308	15.201	998.804	766.109
123.322	15.164	998.062	765.305
124.337	15.170	997.152	764.563
125.352	15.147	996.065	763.561
126.366	15.209	994.799	762.805
127.381	15.082	993.958	761.514
128.395	15.159	993.153	761.181
129.410	15.273	992.125	760.842
130.424	15.303	991.139	760.152
131.439	15.311	990.512	759.641
132.454	15.401	989.945	759.549
133.468	15.346	989.165	758.635
134.483	15.323	988.200	757.723
135.497	15.391	987.397	757.348
136.512	15.508	986.345	757.001
137.527	15.434	985.589	756.018
138.541	15.447	984.838	755.437
139.556	15.548	984.242	755.364
140.570	15.656	983.405	755.142
141.585	15.800	982.471	755.004
142.600	15.728	981.541	753.901
143.614	15.773	980.897	753.537
144.629	15.746	980.335	752.921
145.643	15.783	979.232	752.169
146.658	15.677	977.862	750.577
147.673	15.527	977.021	749.198
148.687	15.461	976.412	748.370
149.702	15.384	975.374	747.166
150.716	15.485	974.341	746.760
151.731	15.521	973.890	746.507
152.746	15.602	972.929	746.064
153.760	15.577	972.150	745.287
154.775	15.653	971.793	745.287
155.789	15.609	971.606	744.882
156.804	15.654	970.873	744.453
157.819	15.713	969.697	743.745
158.833	15.808	969.281	743.782
159.848	15.763	968.421	742.859
160.862	15.690	967.237	741.560
161.877	15.704	966.254	740.804
162.892	15.539	965.341	739.314
163.906	15.554	964.021	738.301
164.921	15.649	963.597	738.328
165.935	15.681	962.759	737.761
166.950	15.536	961.968	736.456
167.964	15.621	960.834	735.894
168.979	15.493	960.239	734.814
169.994	15.650	959.462	734.840
171.008	15.769	958.764	734.759
172.023	15.684	957.994	733.735
173.037	15.848	957.110	733.707
174.052	15.847	956.536	733.199
175.067	15.677	955.909	731.914
176.081	15.608	955.634	731.339
177.096	15.526	954.859	730.323
178.110	15.578	954.220	729.996
179.125	15.560	953.628	729.398
180.140	15.786	952.888	729.748
181.154	15.761	952.496	729.278
182.169	15.839	952.232	729.348
183.183	15.914	951.242	728.848
184.198	15.970	950.438	728.412
185.213	15.883	949.556	727.293
186.227	15.871	949.196	726.903
187.242	16.025	948.529	726.991
188.256	16.106	948.036	726.901
189.271	15.881	947.461	725.426
190.286	15.804	946.461	724.265
191.300	15.725	945.503	723.124
192.315	15.630	944.541	721.919
193.329	15.578	944.609	721.683
194.344	15.707	943.657	721.444
195.359	15.752	943.116	721.163
196.373	15.968	942.485	721.542
197.388	16.071	942.105	721.626
198.402	16.180	941.739	721.747
199.417	16.268	940.603	721.189
200.432	16.187	940.430	720.649
201.446	16.169	940.070	720.233
202.461	16.281	939.718	720.378
203.475	16.218	939.120	719.584
204.490	16.174	937.951	718.438
205.504	16.047	936.863	717.002
206.519	16.065	936.547	716.772
207.534	16.090	935.489	716.006
208.548	16.006	934.938	715.164
209.563	16.119	934.266	715.067
210.577	16.164	933.255	714.419
211.592	16.295	932.587	714.400
212.607	16.302	932.039	713.946
213.621	16.204	931.642	713.166
214.636	16.337	930.559	712.832
215.650	16.353	929.807	712.262
216.665	16.476	929.279	712.313
217.680	16.392	928.755	711.494
218.694	16.453	928.264	711.313
219.709	16.396	927.399	710.346
220.723	16.494	926.321	709.871
221.738	16.407	925.829	709.065
222.753	16.466	925.041	708.644
223.767	16.565	924.593	708.656
224.782	16.532	924.348	708.267
225.796	16.572	923.657	707.839
226.811	16.539	922.849	707.022
227.826	16.376	922.714	706.174
228.840	16.405	921.237	705.102
229.855	16.485	920.076	704.483
230.869	16.521	919.632	704.230
231.884	16.280	919.062	702.729
232.899	16.419	918.234	702.611
233.913	16.275	917.816	701.630
234.928	16.335	916.952	701.159
235.942	16.275	916.241	700.303
236.957	16.360	915.780	700.241
237.972	16.403	915.249	699.952
238.986	16.321	914.818	699.222
240.001	16.468	913.794	698.986
241.015	16.366	913.374	698.179
242.030	16.623	912.542	698.544
243.045	16.492	912.183	697.667
244.059	16.409	911.847	697.003
245.074	16.606	911.068	697.158
246.088	16.663	909.932	696.464
247.103	16.694	909.591	696.268
248.117	16.770	909.115	696.155
249.132	16.844	908.770	696.134
250.147	16.976	908.142	696.132
251.161	17.063	907.451	695.897
252.176	17.129	906.608	695.460
253.190	17.093	906.035	694.810
254.205	17.172	905.457	694.629
255.220	17.170	904.703	693.980
256.234	17.178	903.922	693.353
257.249	17.171	903.208	692.718
258.263	17.131	902.573	692.006
259.278	17.090	902.164	691.463
260.293	17.243	901.464	691.486
261.307	17.258	901.022	691.149
262.322	17.342	900.085	690.712
263.336	17.265	899.437	689.840
264.351	17.377	898.896	689.819
265.366	17.310	898.429	689.128
266.380	17.237	897.932	688.387
267.395	17.341	896.739	687.834
268.409	17.186	896.023	686.596
269.424	17.223	895.202	686.055
270.439	17.235	894.635	685.610
271.453	17.214	894.135	685.080
272.468	17.155	893.373	684.199
273.482	17.132	893.186	683.904
274.497	17.105	892.470	683.186
275.512	17.166	891.753	682.823
276.526	17.286	891.218	682.834
277.541	17.173	890.864	682.046
278.555	17.339	889.944	681.948
279.570	17.411	889.734	682.017
280.585	17.418	888.693	681.184
281.599	17.432	887.933	680.601
282.614	17.362	886.979	679.528
283.628	17.480	886.312	679.426
284.643	17.354	885.856	678.514
285.657	17.389	885.393	678.240
286.672	17.387	884.732	677.666
287.687	17.442	884.001	677.267
288.701	17.305	883.831	676.529
289.716	17.469	882.848	676.371
290.730	17.464	882.311	675.878
291.745	17.468	881.929	675.543
292.760	17.574	881.083	675.256
293.774	17.622	880.710	675.100
294.789	17.521	880.196	674.246
295.803	17.567	879.150	673.565
296.818	17.385	878.406	672.218
297.833	17.589	877.660	672.391
298.847	17.436	877.368	671.505
299.862	17.595	876.659	671.531
300.876	17.485	876.184	670.673
301.891	17.782	875.357	671.151
302.906	17.696	875.098	670.553
303.920	17.860	874.433	670.630
304.935	17.780	874.081	669.984
305.949	17.960	872.932	669.750
306.964	17.828	872.385	668.756
307.979	17.858	872.021	668.537
308.993	17.882	871.724	668.342
310.008	17.927	870.940	667.858
311.022	17.881	870.202	667.052
312.037	17.768	869.566	666.064
313.052	17.664	868.737	664.967
314.066	17.696	868.151	664.584
315.081	17.618	868.210	664.266
316.095	17.891	866.796	664.186
317.110	17.774	866.714	663.609
318.125	17.801	866.437	663.444
319.139	17.746	865.947	662.797
320.154	17.741	865.330	662.245
321.168	17.694	864.750	661.562
322.183	17.809	863.725	661.166
323.197	17.732	863.836	660.892
324.212	17.842	863.183	660.762
325.227	17.768	862.483	659.880
326.241	17.794	862.117	659.641
327.256	17.864	861.181	659.139
328.270	17.814	860.857	658.637
329.285	17.788	860.269	658.030
330.300	17.736	859.525	657.201
331.314	17.799	858.970	656.961
332.329	17.885	858.918	657.197
333.343	17.870	858.480	656.745
334.358	18.017	858.107	656.966
335.373	18.082	857.417	656.629
336.387	18.011	857.109	656.065
337.402	18.021	857.039	655.990
338.416	18.206	856.966	656.588
339.431	18.259	856.042	656.025
340.446	18.353	855.680	656.047
341.460	18.428	855.153	655.872
342.475	18.295	855.141	655.298
343.489	18.308	854.573	654.853
344.504	18.423	853.929	654.740
345.519	18.449	853.312	654.309
346.533	18.455	853.084	654.098
347.548	18.331	852.542	653.152
348.562	18.269	851.498	652.060
349.577	17.992	851.266	650.769
350.592	18.230	850.242	650.834
351.606	18.393	849.204	650.601
352.621	18.272	848.593	649.614
353.635	18.250	848.330	649.274
354.650	18.346	847.853	649.216
355.665	18.371	846.911	648.530
356.679	18.446	846.335	648.317
357.694	18.358	845.985	647.657
358.708	18.557	844.891	647.516
359.723	18.450	844.560	646.801
360.738	18.411	844.143	646.276
361.752	18.532	843.294	646.024
362.767	18.587	843.196	646.099
363.781	18.531	842.739	645.482
364.796	18.666	842.050	645.406
365.810	18.667	841.518	644.944
366.825	18.743	841.565	645.207
367.840	18.813	840.797	644.826
368.854	18.748	839.919	643.852
369.869	18.685	840.109	643.702
370.883	18.716	839.531	643.320
371.898	18.792	839.265	643.345
372.913	18.813	838.967	643.138
373.927	18.794	838.052	642.307
374.942	18.746	837.630	641.748
375.956	18.763	837.320	641.518
376.971	18.999	836.608	641.796
377.986	19.014	836.377	641.619
379.000	19.054	835.475	641.019
380.015	18.993	835.068	640.422
381.029	18.920	834.805	639.891
382.044	18.951	833.973	639.313
383.059	19.062	833.311	639.160
384.073	18.829	833.252	638.195
385.088	18.819	832.240	637.326
386.102	18.937	831.336	637.013
387.117	18.808	831.232	636.401
388.132	18.817	830.459	635.784
389.146	19.026	829.887	636.065
390.161	18.964	829.741	635.666
391.175	18.974	829.159	635.201
392.190	18.970	828.494	634.619
393.205	18.988	828.016	634.264
394.219	18.992	827.906	634.137
395.234	18.862	827.441	633.247
396.248	18.864	826.605	632.559
397.263	18.791	826.084	631.837
398.278	18.735	825.902	631.434
399.292	18.827	825.545	631.443
400.307	18.844	825.147	631.148
401.321	18.833	824.482	630.540
402.336	18.929	824.274	630.679
403.350	18.927	823.885	630.318
404.365	19.118	822.760	630.101
405.380	19.096	822.956	630.113
406.394	19.176	822.416	629.938
407.409	19.323	821.669	629.849
408.423	19.372	821.619	629.932
409.438	19.307	821.186	629.305
410.453	19.350	820.902	629.191
411.467	19.546	819.902	629.081
412.482	19.429	820.067	628.727
413.496	19.526	819.806	628.823
414.511	19.367	819.186	627.715
415.526	19.330	818.781	627.213
416.540	19.458	817.931	626.972
417.555	19.354	817.826	626.460
418.569	19.486	816.924	626.194
419.584	19.698	816.589	626.648
420.599	19.470	816.365	625.595
421.613	151.432	1368.454	1776.222
422.628	131.695	1448.895	1776.318
