DTS Sentinel unit serial number:	SN413079Multiplexer serial number:	ORYXHardware model number:	OX4-SRSoftware version number:	ORYX F/W v4.00 Oryx Data Collector v3.7.2.0data status	okinstallation	princeton_trtdifferential loss correction	single-endedforward channel	channel 1reverse channel	N/Adate	2019/09/19time	09:30:35forward acquisition time	60.00reverse acquisition time	0.00gamma	496.2192k internal	0.2341k external	0.2341temperature offset calibration	1.0003default loss term (dB/km)	0.3790temperature slope calibration	1.0000multiplexer offset coefficient	1.0000multiplexer slope coefficient	1.0000fibre end	0.00T internal ref (°C)	22.80T ext. ref 1 (°C)	0.62T ext. ref 2 (°C)	19.27length (m)	temperature (°C)	Stokes	anti-Stokes-747.200	153.374	-0.148	-0.204
-746.185	195.393	-0.118	-0.180
-745.171	-43.871	0.214	0.108
-744.156	800.000	-0.074	0.303
-743.142	76.787	0.175	-0.187
-742.127	329.924	-0.110	0.213
-741.112	800.000	0.070	-0.261
-740.098	-200.000	-0.047	0.447
-739.083	800.000	-0.060	0.220
-738.069	192.498	-0.116	-0.175
-737.054	-83.524	-0.339	-0.109
-736.039	-173.558	-0.078	-0.002
-735.025	-68.022	0.126	0.049
-734.010	-200.000	-0.038	0.267
-732.996	800.000	-0.111	-0.385
-731.981	-91.839	0.188	-0.053
-730.966	30.472	-0.124	-0.107
-729.952	76.764	-0.168	-0.179
-728.937	-200.000	0.026	-0.191
-727.923	-138.812	-0.331	0.036
-726.908	356.010	0.021	0.042
-725.894	-200.000	0.011	-0.163
-724.879	121.056	0.204	0.254
-723.864	800.000	0.051	-0.176
-722.850	-91.227	-0.219	0.063
-721.835	-117.025	0.199	0.036
-720.821	438.870	-0.023	-0.051
-719.806	46.096	0.299	-0.277
-718.791	-96.912	-0.374	-0.098
-717.777	-76.515	0.248	-0.087
-716.762	-92.695	0.274	0.077
-715.748	-7.554	0.214	0.145
-714.733	696.501	-0.033	0.087
-713.718	-108.730	-0.427	0.092
-712.704	-33.567	0.176	-0.097
-711.689	44.515	0.153	-0.140
-710.675	164.778	0.028	-0.040
-709.660	-70.253	0.039	0.015
-708.645	2.173	-0.256	-0.185
-707.631	289.306	0.116	0.210
-706.616	-200.000	0.016	0.169
-705.602	204.437	-0.121	-0.187
-704.587	-127.671	-0.273	0.039
-703.572	-135.863	0.094	0.011
-702.558	461.724	0.091	-0.203
-701.543	144.795	0.114	-0.153
-700.529	-16.651	0.087	0.055
-699.514	-200.000	0.028	0.307
-698.499	227.073	0.098	0.159
-697.485	-107.333	0.117	0.026
-696.470	25.068	0.111	0.093
-695.456	-18.494	-0.095	-0.060
-694.441	39.988	0.205	-0.184
-693.426	343.280	0.169	0.331
-692.412	193.425	-0.060	-0.091
-691.397	141.260	0.080	0.105
-690.383	-142.120	-0.372	0.037
-689.368	-184.059	0.189	0.003
-688.354	-102.598	-0.237	0.057
-687.339	800.000	0.125	-0.384
-686.324	69.165	0.296	-0.304
-685.310	-138.444	0.209	-0.023
-684.295	363.587	0.086	-0.174
-683.281	29.021	-0.212	-0.180
-682.266	108.376	0.008	0.010
-681.251	-71.449	-0.255	-0.095
-680.237	347.940	-0.175	-0.345
-679.222	-61.884	-0.191	-0.080
-678.208	139.287	0.045	-0.059
-677.193	-79.480	-0.101	0.034
-676.178	25.290	0.277	-0.230
-675.164	448.908	0.063	-0.139
-674.149	800.000	0.043	-0.145
-673.135	-4.761	-0.067	0.046
-672.120	800.000	0.166	-0.503
-671.105	742.023	0.042	-0.112
-670.091	-140.625	-0.461	-0.048
-669.076	800.000	0.040	0.133
-668.062	60.476	-0.317	0.314
-667.047	-72.922	-0.129	0.047
-666.032	800.000	-0.065	-0.200
-665.018	-7.054	-0.153	0.103
-664.003	-21.611	0.064	-0.039
-662.989	-200.000	0.034	-0.226
-661.974	145.304	0.068	0.090
-660.959	16.791	-0.148	-0.117
-659.945	800.000	0.028	-0.082
-658.930	69.319	-0.261	0.268
-657.916	-4.653	-0.249	-0.172
-656.901	800.000	-0.034	-0.114
-655.886	800.000	0.116	-0.434
-654.872	-125.509	-0.258	-0.039
-653.857	366.363	0.155	-0.312
-652.843	-200.000	0.016	0.222
-651.828	198.912	0.131	0.201
-650.814	-80.392	-0.281	-0.094
-649.799	338.447	-0.103	-0.200
-648.784	-75.524	0.063	-0.022
-647.770	726.604	0.042	0.113
-646.755	42.668	-0.089	0.081
-645.741	-84.539	0.162	0.051
-644.726	-43.363	0.243	0.122
-643.711	-7.262	0.114	-0.077
-642.697	-79.397	-0.408	0.138
-641.682	-200.000	-0.001	-0.105
-640.668	-153.008	0.277	0.020
-639.653	-121.236	0.343	-0.057
-638.638	-87.441	0.061	0.018
-637.624	-96.390	-0.338	-0.089
-636.609	-60.738	-0.134	-0.057
-635.595	-200.000	0.003	0.098
-634.580	800.000	0.085	0.288
-633.565	-200.000	0.007	0.185
-632.551	58.908	0.231	-0.227
-631.536	-169.590	0.242	-0.009
-630.522	478.223	0.063	-0.142
-629.507	800.000	0.032	0.112
-628.492	800.000	-0.021	-0.075
-627.478	232.816	0.065	0.107
-626.463	-172.300	-0.143	-0.005
-625.449	800.000	0.021	-0.061
-624.434	-200.000	-0.016	0.099
-623.419	105.470	-0.032	0.037
-622.405	-40.382	0.167	0.087
-621.390	368.713	0.074	-0.150
-620.376	323.607	-0.148	0.282
-619.361	27.365	0.074	-0.062
-618.346	800.000	0.032	0.094
-617.332	800.000	-0.068	-0.211
-616.317	-161.725	-0.186	-0.009
-615.303	-81.966	0.300	-0.098
-614.288	334.454	0.051	-0.098
-613.273	-140.232	0.258	-0.027
-612.259	-143.195	0.067	0.006
-611.244	198.756	-0.027	0.041
-610.230	2.263	-0.259	0.187
-609.215	112.722	0.104	0.125
-608.201	60.473	-0.319	-0.315
-607.186	-188.613	-0.448	-0.006
-606.171	58.191	0.119	-0.116
-605.157	-166.299	-0.197	0.008
-604.142	-200.000	-0.002	0.016
-603.128	-200.000	0.034	-0.313
-602.113	36.558	-0.058	-0.051
-601.098	-84.721	-0.224	0.070
-600.084	29.937	-0.137	-0.116
-599.069	211.297	-0.094	0.147
-598.055	71.056	-0.102	0.106
-597.040	-138.329	-0.203	-0.022
-596.025	800.000	0.068	0.214
-595.011	-16.763	-0.168	-0.106
-593.996	-41.677	-0.482	-0.246
-592.982	-113.685	-0.119	-0.023
-591.967	-105.517	-0.163	-0.037
-590.952	-200.000	-0.040	-0.198
-589.938	800.000	-0.071	0.242
-588.923	79.274	-0.345	0.368
-587.909	56.262	-0.217	0.210
-586.894	800.000	0.082	0.278
-585.879	-144.716	0.174	0.016
-584.865	-3.275	-0.066	-0.046
-583.850	216.912	0.120	-0.190
-582.836	-127.509	0.251	0.036
-581.821	-22.322	0.075	0.045
-580.806	-115.479	-0.040	-0.007
-579.792	-43.414	0.191	-0.096
-578.777	-200.000	0.024	-0.106
-577.763	-87.321	-0.292	0.088
-576.748	-200.000	-0.029	-0.176
-575.733	-200.000	0.045	-0.229
-574.719	800.000	0.063	0.237
-573.704	-61.665	-0.353	-0.148
-572.690	-57.448	0.316	0.138
-571.675	-200.000	-0.037	0.269
-570.661	486.085	-0.069	-0.157
-569.646	800.000	-0.053	0.230
-568.631	-95.033	-0.161	-0.043
-567.617	-200.000	0.051	0.470
-566.602	-33.963	-0.209	0.114
-565.588	-200.000	0.029	0.152
-564.573	-48.057	0.307	0.148
-563.558	685.784	-0.160	0.417
-562.544	-32.472	-0.385	-0.214
-561.529	148.785	0.205	-0.275
-560.515	800.000	0.083	-0.304
-559.500	800.000	-0.039	-0.116
-558.485	133.936	0.088	0.113
-557.471	275.284	-0.100	0.177
-556.456	-32.297	-0.190	-0.106
-555.442	34.042	-0.302	-0.262
-554.427	45.655	-0.091	-0.084
-553.412	800.000	-0.091	0.276
-552.398	98.966	-0.184	-0.212
-551.383	41.150	0.074	-0.067
-550.369	-200.000	0.029	-0.278
-549.354	30.137	-0.157	-0.133
-548.339	-200.000	0.038	0.180
-547.325	-200.000	-0.000	-0.022
-546.310	19.048	-0.134	-0.107
-545.296	-200.000	0.000	0.207
-544.281	800.000	-0.071	-0.285
-543.266	9.190	-0.027	0.020
-542.252	-156.185	-0.360	0.023
-541.237	147.770	-0.184	0.246
-540.223	800.000	-0.056	0.226
-539.208	-101.478	0.233	-0.056
-538.193	3.197	0.260	-0.188
-537.179	800.000	0.101	0.327
-536.164	-139.906	-0.303	-0.032
-535.150	786.930	0.006	0.017
-534.135	-47.657	0.167	-0.081
-533.121	-200.000	-0.037	0.259
-532.106	368.388	0.131	0.263
-531.091	-107.086	0.244	0.054
-530.077	-80.682	-0.357	-0.118
-529.062	-200.000	0.027	0.261
-528.048	-163.488	-0.139	-0.007
-527.033	233.534	0.208	-0.339
-526.018	332.237	0.066	-0.127
-525.004	-68.334	0.117	-0.045
-523.989	-127.881	-0.457	0.065
-522.975	30.287	-0.171	-0.145
-521.960	386.000	0.025	-0.052
-520.945	800.000	-0.062	0.269
-519.931	232.190	0.090	-0.147
-518.916	267.398	0.128	-0.222
-517.902	204.959	-0.044	0.068
-516.887	-135.014	0.269	-0.032
-515.872	-200.000	-0.030	0.145
-514.858	-33.838	0.024	-0.013
-513.843	21.046	0.093	-0.075
-512.829	-200.000	0.009	-0.274
-511.814	64.436	0.230	-0.230
-510.799	62.786	-0.098	0.098
-509.785	-147.569	-0.135	-0.011
-508.770	-116.462	0.083	-0.015
-507.756	-13.025	0.140	0.091
-506.741	53.046	0.067	-0.064
-505.726	50.697	0.230	-0.216
-504.712	530.131	-0.087	-0.203
-503.697	437.273	-0.124	-0.269
-502.683	429.918	-0.105	-0.226
-501.668	-200.000	-0.011	0.091
-500.653	10.885	-0.083	0.063
-499.639	-26.532	-0.341	0.198
-498.624	193.521	0.160	0.241
-497.610	-24.516	-0.113	0.067
-496.595	433.863	-0.111	-0.239
-495.581	-200.000	-0.041	0.360
-494.566	-67.775	0.329	0.128
-493.551	-200.000	-0.012	-0.110
-492.537	617.148	-0.053	0.132
-491.522	-132.902	-0.254	-0.032
-490.508	-200.000	-0.039	0.222
-489.493	46.392	0.198	0.182
-488.478	-70.682	-0.268	-0.100
-487.464	191.659	-0.034	0.050
-486.449	800.000	0.072	-0.247
-485.435	-117.594	0.155	-0.028
-484.420	-11.239	-0.206	-0.135
-483.405	-200.000	-0.004	0.341
-482.391	800.000	-0.041	0.153
-481.376	41.066	-0.172	0.155
-480.362	-34.439	-0.339	0.184
-479.347	800.000	-0.083	-0.245
-478.332	96.386	-0.165	0.187
-477.318	47.498	0.181	-0.168
-476.303	142.515	0.218	0.287
-475.289	-77.314	0.234	0.081
-474.274	-200.000	-0.001	-0.048
-473.259	-33.369	-0.364	0.200
-472.245	264.018	-0.053	0.091
-471.230	-125.376	-0.112	0.017
-470.216	-159.149	0.193	-0.011
-469.201	243.279	0.207	0.345
-468.186	800.000	-0.039	-0.124
-467.172	261.054	-0.099	0.170
-466.157	-143.859	0.187	-0.017
-465.143	58.741	0.088	0.086
-464.128	44.680	-0.245	-0.223
-463.113	-200.000	0.024	-0.152
-462.099	-98.500	0.418	-0.106
-461.084	800.000	0.109	0.341
-460.070	-200.000	0.022	0.298
-459.055	130.700	0.261	0.332
-458.040	-150.254	0.251	0.019
-457.026	-23.668	-0.116	0.069
-456.011	800.000	0.049	0.186
-454.997	800.000	0.017	0.072
-453.982	-18.586	0.172	-0.106
-452.968	-64.372	0.447	-0.180
-451.953	-45.262	0.228	0.112
-450.938	800.000	-0.067	-0.225
-449.924	-84.548	0.167	-0.052
-448.909	172.075	-0.070	0.099
-447.895	-52.950	0.181	0.083
-446.880	317.582	-0.094	-0.177
-445.865	476.421	0.129	0.288
-444.851	-200.000	0.036	-0.302
-443.836	800.000	0.064	-0.247
-442.822	800.000	0.026	-0.102
-441.807	-200.000	0.026	-0.695
-440.792	-175.073	-0.188	0.005
-439.778	-111.317	-0.161	-0.032
-438.763	-200.000	0.010	-0.141
-437.749	-85.729	0.193	0.059
-436.734	-125.487	-0.092	-0.014
-435.719	701.959	-0.100	-0.261
-434.705	-101.289	-0.081	-0.019
-433.690	800.000	0.031	0.122
-432.676	-90.469	-0.135	-0.039
-431.661	6.757	0.292	-0.215
-430.646	800.000	-0.072	0.205
-429.632	3.402	-0.306	-0.220
-428.617	-87.312	-0.189	-0.057
-427.603	14.369	-0.089	-0.068
-426.588	569.705	0.030	-0.072
-425.573	558.451	-0.035	-0.083
-424.559	-134.915	-0.015	0.002
-423.544	380.720	0.070	-0.142
-422.530	113.119	0.181	-0.217
-421.515	-48.988	-0.371	-0.176
-420.500	2.677	0.237	-0.170
-419.486	800.000	-0.101	-0.429
-418.471	-71.201	0.060	-0.022
-417.457	-51.854	0.173	-0.079
-416.442	-47.771	-0.254	0.122
-415.428	800.000	0.033	0.092
-414.413	-200.000	0.045	-0.367
-413.398	-150.863	0.293	-0.022
-412.384	-200.000	-0.063	0.343
-411.369	-200.000	-0.042	-0.364
-410.355	308.169	-0.073	0.134
-409.340	72.134	0.067	-0.069
-408.325	-97.576	-0.330	0.085
-407.311	-81.508	-0.400	-0.130
-406.296	-63.477	0.089	-0.036
-405.282	152.247	0.231	0.311
-404.267	60.410	0.270	0.265
-403.252	800.000	-0.065	0.201
-402.238	-116.987	0.467	-0.084
-401.223	800.000	-0.058	0.162
-400.209	-98.759	0.062	0.016
-399.194	-200.000	-0.080	-0.385
-398.179	800.000	0.080	0.251
-397.165	-71.028	-0.138	0.051
-396.150	183.147	-0.129	0.188
-395.136	800.000	0.051	0.169
-394.121	-97.529	-0.468	-0.120
-393.106	-25.901	0.143	-0.083
-392.092	468.797	0.078	0.174
-391.077	-111.289	-0.310	-0.063
-390.063	256.393	0.025	-0.042
-389.048	303.493	-0.050	-0.092
-388.033	135.878	-0.163	-0.210
-387.019	-24.916	-0.188	0.110
-386.004	148.669	-0.094	0.126
-384.990	-200.000	-0.016	-0.191
-383.975	-36.165	0.227	-0.121
-382.960	411.427	-0.115	0.240
-381.946	70.978	-0.057	0.059
-380.931	-200.000	0.013	0.078
-379.917	-110.960	0.220	0.045
-378.902	60.565	-0.021	-0.020
-377.888	567.901	-0.008	-0.019
-376.873	-26.781	-0.346	-0.200
-375.858	-66.577	0.187	-0.073
-374.844	-112.582	-0.437	0.086
-373.829	-166.025	0.325	-0.014
-372.815	-200.000	0.003	0.125
-371.800	113.813	-0.148	-0.178
-370.785	709.468	-0.106	-0.276
-369.771	-87.021	0.119	-0.036
-368.756	-98.635	-0.372	0.094
-367.742	-103.398	0.418	-0.097
-366.727	800.000	0.038	0.156
-365.712	-200.000	-0.041	-0.199
-364.698	21.715	0.405	0.325
-363.683	-86.262	0.416	-0.126
-362.669	800.000	-0.098	-0.296
-361.654	286.716	-0.166	-0.296
-360.639	-200.000	0.052	0.226
-359.625	-200.000	-0.018	0.154
-358.610	125.885	-0.126	0.157
-357.596	-26.924	0.131	-0.076
-356.581	219.321	0.110	0.173
-355.566	800.000	-0.012	0.052
-354.552	-21.279	0.115	-0.070
-353.537	-141.563	0.292	0.029
-352.523	45.224	-0.135	-0.123
-351.508	800.000	0.032	0.105
-350.493	544.448	0.145	-0.342
-349.479	-103.105	-0.290	-0.068
-348.464	17.610	0.183	0.143
-347.450	-37.211	0.121	0.064
-346.435	260.479	0.013	0.023
-345.420	-24.648	0.139	-0.081
-344.406	-88.304	0.453	-0.134
-343.391	16.360	-0.160	-0.125
-342.377	800.000	-0.159	0.557
-341.362	-123.820	0.058	0.009
-340.348	181.320	-0.208	-0.302
-339.333	254.087	0.131	0.220
-338.318	-135.884	0.203	-0.024
-337.304	550.713	0.114	0.271
-336.289	209.686	0.166	0.257
-335.275	-11.824	-0.273	0.176
-334.260	110.099	0.116	-0.137
-333.245	32.902	-0.151	-0.129
-332.231	194.168	-0.007	0.011
-331.216	-67.940	0.183	0.070
-330.202	-200.000	-0.009	0.255
-329.187	-16.496	0.331	-0.207
-328.172	-109.324	-0.086	0.018
-327.158	-134.519	0.057	-0.007
-326.143	111.652	0.213	-0.253
-325.129	88.196	0.039	0.042
-324.114	-156.654	-0.382	-0.023
-323.099	-120.599	0.205	-0.034
-322.085	-132.785	0.150	-0.019
-321.070	391.631	-0.116	-0.237
-320.056	-8.831	0.238	-0.157
-319.041	-200.000	-0.017	-0.186
-318.026	124.793	0.101	-0.126
-317.012	37.373	0.139	0.122
-315.997	-74.302	0.119	0.042
-314.983	-65.068	-0.228	-0.091
-313.968	-200.000	0.029	0.126
-312.953	-106.896	0.089	0.019
-311.939	265.579	-0.171	-0.294
-310.924	-200.000	0.044	-0.232
-309.910	178.085	0.189	-0.272
-308.895	1.944	-0.254	-0.180
-307.880	362.407	0.104	-0.205
-306.866	-200.000	0.066	0.373
-305.851	-85.608	-0.546	0.167
-304.837	739.085	0.121	0.319
-303.822	-190.101	0.186	-0.002
-302.807	392.823	0.069	-0.141
-301.793	-11.619	0.271	0.176
-300.778	-200.000	-0.032	0.280
-299.764	215.276	0.120	-0.187
-298.749	-200.000	0.002	-0.122
-297.735	-78.292	-0.263	0.089
-296.720	-109.186	-0.549	0.115
-295.705	189.436	0.038	0.056
-294.691	-79.582	0.390	-0.130
-293.676	7.372	-0.250	-0.184
-292.662	-63.201	0.218	-0.088
-291.647	82.262	0.107	0.115
-290.632	110.162	-0.129	0.153
-289.618	29.765	0.117	0.098
-288.603	-74.283	-0.205	-0.073
-287.589	148.815	-0.015	-0.020
-286.574	101.691	-0.105	0.120
-285.559	-133.521	0.230	-0.028
-284.545	-14.218	0.062	0.039
-283.530	186.125	-0.133	0.194
-282.516	-117.663	0.292	0.052
-281.501	-108.241	-0.125	0.027
-280.486	-200.000	-0.026	0.129
-279.472	-200.000	0.009	0.128
-278.457	106.002	-0.156	-0.181
-277.443	41.049	0.067	-0.060
-276.428	-200.000	-0.102	0.489
-275.413	-9.817	0.066	0.043
-274.399	92.723	0.216	-0.240
-273.384	-199.021	0.326	-0.002
-272.370	-200.000	-0.011	0.103
-271.355	-90.926	0.197	-0.056
-270.340	-200.000	-0.043	0.275
-269.326	115.221	-0.185	0.222
-268.311	-182.096	-0.167	0.003
-267.297	-105.128	0.013	0.003
-266.282	-200.000	-0.018	-0.167
-265.267	-68.211	0.241	-0.092
-264.253	169.647	-0.170	0.239
-263.238	-200.000	0.022	-0.102
-262.224	-200.000	-0.029	0.127
-261.209	-111.358	-0.134	0.027
-260.195	67.930	0.064	0.064
-259.180	331.092	0.057	0.108
-258.165	-123.454	0.155	0.024
-257.151	122.556	0.211	-0.260
-256.136	1.431	0.120	-0.085
-255.122	10.318	0.041	-0.031
-254.107	800.000	0.071	0.243
-253.092	-24.796	0.073	-0.043
-252.078	-147.027	0.067	-0.006
-251.063	72.690	0.141	-0.145
-250.049	-69.742	-0.114	-0.043
-249.034	-148.834	-0.223	0.018
-248.019	14.105	-0.109	0.083
-247.005	800.000	0.112	0.318
-245.990	13.016	-0.177	0.134
-244.976	-63.427	-0.152	-0.061
-243.961	-200.000	-0.034	-0.335
-242.946	-110.572	-0.093	-0.019
-241.932	18.631	-0.199	0.157
-240.917	-29.240	0.215	0.121
-239.903	-13.349	0.044	-0.028
-238.888	39.626	-0.101	-0.089
-237.873	186.236	-0.196	0.287
-236.859	53.010	-0.238	-0.224
-235.844	203.763	-0.056	0.085
-234.830	146.659	0.107	-0.142
-233.815	335.772	-0.156	-0.297
-232.800	209.952	0.094	0.145
-231.786	-200.000	0.339	0.002
-230.771	78.983	0.163	-0.171
-229.757	103.044	0.168	0.193
-228.742	-186.145	0.148	0.002
-227.727	27.332	0.100	-0.082
-226.713	-137.072	-0.381	-0.043
-225.698	301.876	0.139	0.253
-224.684	-179.757	0.355	-0.008
-223.669	-110.384	0.307	-0.063
-222.655	-78.290	-0.203	-0.068
-221.640	-108.775	0.229	-0.048
-220.625	-79.452	0.086	0.028
-219.611	-79.880	0.225	0.074
-218.596	239.214	-0.126	-0.206
-217.582	-106.838	-0.164	0.036
-216.567	-4.655	-0.225	0.152
-215.552	800.000	-0.047	0.162
-214.538	-114.994	-0.183	0.034
-213.523	-149.516	-0.274	-0.021
-212.509	-113.371	-0.114	-0.022
-211.494	-147.273	-0.250	-0.021
-210.479	-51.092	0.087	0.040
-209.465	107.981	-0.105	-0.122
-208.450	184.678	-0.039	-0.057
-207.436	31.797	0.300	-0.253
-206.421	800.000	-0.033	0.099
-205.406	43.484	-0.138	0.124
-204.392	51.462	0.090	0.084
-203.377	4.320	0.210	0.151
-202.363	-12.727	-0.083	0.053
-201.348	-83.481	0.309	-0.097
-200.333	-129.489	0.208	0.028
-199.319	-97.763	0.183	0.046
-198.304	-182.115	0.131	0.002
-197.290	-65.063	0.377	0.149
-196.275	300.426	0.079	-0.144
-195.260	800.000	-0.026	0.102
-194.246	-57.009	-0.362	0.157
-193.231	-81.410	-0.304	-0.098
-192.217	1.343	0.167	0.117
-191.202	800.000	-0.106	-0.293
-190.187	-136.341	-0.110	0.013
-189.173	-25.968	-0.177	-0.102
-188.158	236.876	0.230	-0.373
-187.144	-200.000	-0.046	-0.260
-186.129	-69.139	-0.144	0.054
-185.114	291.706	0.118	-0.210
-184.100	-200.000	0.014	0.113
-183.085	-68.336	0.121	-0.046
-182.071	214.098	-0.047	-0.072
-181.056	-23.192	-0.048	-0.028
-180.042	-200.000	0.024	0.168
-179.027	-0.055	-0.150	0.105
-178.012	800.000	0.032	-0.095
-176.998	197.924	-0.147	0.220
-175.983	-156.669	-0.097	-0.006
-174.969	-32.426	0.364	-0.199
-173.954	800.000	0.016	0.063
-172.939	346.932	-0.013	-0.025
-171.925	9.826	0.083	0.062
-170.910	5.431	0.249	0.180
-169.896	-200.000	-0.023	0.133
-168.881	-200.000	0.036	-0.187
-167.866	800.000	0.012	-0.047
-166.852	800.000	-0.081	0.251
-165.837	-111.001	0.273	0.055
-164.823	-118.886	-0.075	-0.013
-163.808	-200.000	0.018	-0.078
-162.793	18.152	-0.234	0.183
-161.779	39.665	0.284	0.249
-160.764	-200.000	0.007	-0.185
-159.750	-200.000	-0.006	-0.149
-158.735	622.845	-0.102	-0.252
-157.720	303.291	0.093	-0.168
-156.706	-200.000	0.002	0.077
-155.691	-162.697	-0.175	-0.008
-154.677	-19.170	-0.312	-0.190
-153.662	20.447	-0.086	-0.068
-152.647	-36.687	-0.070	-0.037
-151.633	-86.152	-0.123	0.037
-150.618	24.291	0.072	0.058
-149.604	25.354	-0.148	0.120
-148.589	-99.398	0.130	-0.032
-147.574	-200.000	-0.013	0.185
-146.560	270.471	0.089	-0.153
-145.545	-0.518	-0.047	-0.032
-144.531	-200.000	-0.001	0.101
-143.516	-86.544	-0.400	0.120
-142.502	-200.000	-0.016	0.124
-141.487	-60.373	0.130	-0.054
-140.472	-185.979	-0.228	-0.003
-139.458	604.671	0.159	-0.388
-138.443	309.803	-0.119	-0.219
-137.429	120.996	-0.126	-0.153
-136.414	455.480	0.049	0.107
-135.399	-43.722	-0.258	0.127
-134.385	377.223	-0.028	-0.055
-133.370	540.288	0.064	0.149
-132.356	-68.972	0.174	-0.066
-131.341	503.656	-0.063	-0.142
-130.326	290.446	-0.101	-0.179
-129.312	22.735	0.104	0.083
-128.297	45.012	-0.114	0.103
-127.283	306.329	-0.073	-0.132
-126.268	-200.000	-0.017	-0.243
-125.253	800.000	-0.087	0.264
-124.239	0.100	0.069	0.048
-123.224	-122.624	-0.330	-0.052
-122.210	-171.124	0.118	-0.004
-121.195	66.486	-0.163	0.162
-120.180	800.000	-0.051	0.181
-119.166	80.998	0.320	-0.338
-118.151	-171.629	-0.512	-0.017
-117.137	335.685	0.127	0.240
-116.122	-124.391	0.367	0.056
-115.107	-149.469	-0.516	0.040
-114.093	-200.000	0.026	0.155
-113.078	176.798	-0.087	-0.124
-112.064	-5.270	0.036	0.024
-111.049	-200.000	-0.009	-0.070
-110.034	-27.412	0.128	-0.073
-109.020	-200.000	0.036	0.330
-108.005	800.000	-0.064	0.201
-106.991	263.377	0.105	-0.179
-105.976	768.868	0.039	0.104
-104.962	-200.000	-0.002	0.127
-103.947	-21.458	0.232	-0.139
-102.932	112.252	0.073	-0.086
-101.918	171.965	0.099	-0.139
-100.903	-39.668	0.181	0.092
-99.889	27.060	-0.165	-0.135
-98.874	800.000	0.051	0.142
-97.859	-200.000	-0.022	-0.211
-96.845	800.000	0.055	0.159
-95.830	800.000	-0.024	-0.086
-94.816	76.710	-0.002	0.002
-93.801	-82.923	-0.509	0.161
-92.786	-85.137	0.414	-0.127
-91.772	754.945	-0.061	0.161
-90.757	23.746	0.048	-0.038
-89.743	-103.624	-0.143	-0.033
-88.728	71.374	0.026	-0.027
-87.713	-200.000	0.070	0.431
-86.699	800.000	0.061	0.214
-85.684	-200.000	0.010	0.469
-84.670	-138.659	-0.259	0.028
-83.655	-109.115	0.163	-0.034
-82.640	-165.319	0.214	-0.009
-81.626	630.630	0.125	0.309
-80.611	-47.581	-0.213	0.101
-79.597	-59.575	0.246	-0.103
-78.582	-78.167	0.079	-0.027
-77.567	541.110	-0.080	0.187
-76.553	-200.000	-0.017	-0.091
-75.538	-121.943	-0.288	-0.046
-74.524	-135.260	-0.177	-0.021
-73.509	209.507	-0.111	0.170
-72.494	800.000	0.081	0.231
-71.480	-141.457	-0.059	-0.006
-70.465	102.883	-0.062	-0.071
-69.451	-129.335	0.389	-0.053
-68.436	48.812	0.114	0.105
-67.422	-156.115	-0.164	-0.010
-66.407	-181.186	-0.117	0.002
-65.392	-200.000	-0.058	0.365
-64.378	-125.459	0.167	0.025
-63.363	-87.910	0.082	0.024
-62.349	4.443	-0.309	-0.221
-61.334	-6.438	-1.101	-0.732
-60.319	19.701	0.961	0.755
-59.305	800.000	-0.325	-1.091
-58.290	153.513	1.033	1.380
-57.276	399.313	0.715	1.461
-56.261	-200.000	124.074	633.452
-55.246	388.156	1580.138	3189.102
-54.232	139.244	2755.181	3535.194
-53.217	93.847	2183.841	2414.493
-52.203	34.740	1608.187	1371.495
-51.188	26.044	1349.678	1098.318
-50.173	23.373	1312.482	1052.168
-49.159	50.451	1381.403	1273.826
-48.144	47.691	1392.770	1267.425
-47.130	26.222	1340.483	1091.735
-46.115	22.985	1321.326	1056.772
-45.100	22.696	1316.643	1051.261
-44.086	22.752	1313.821	1049.296
-43.071	22.578	1311.771	1046.585
-42.057	22.644	1309.353	1045.004
-41.042	22.600	1307.756	1043.432
-40.027	22.805	1306.528	1043.623
-39.013	22.667	1304.400	1041.066
-37.998	22.712	1302.695	1039.926
-36.984	22.759	1300.596	1038.490
-35.969	22.813	1299.357	1037.778
-34.954	22.843	1297.604	1036.512
-33.940	22.872	1295.995	1035.355
-32.925	22.810	1294.714	1033.924
-31.911	22.810	1293.374	1032.813
-30.896	22.987	1291.449	1032.274
-29.881	22.863	1290.838	1031.016
-28.867	22.973	1288.834	1030.016
-27.852	22.917	1287.753	1028.785
-26.838	22.876	1286.017	1027.117
-25.823	22.963	1285.503	1027.173
-24.809	22.911	1283.563	1025.281
-23.794	22.916	1282.376	1024.322
-22.779	22.821	1280.996	1022.629
-21.765	22.894	1279.507	1021.822
-20.750	22.899	1278.287	1020.839
-19.736	22.766	1277.246	1019.197
-18.721	22.765	1275.969	1018.132
-17.706	22.802	1274.498	1017.128
-16.692	22.745	1273.574	1016.023
-15.677	22.805	1272.143	1015.187
-14.663	22.748	1271.124	1014.004
-13.648	22.726	1270.470	1013.316
-12.633	22.705	1269.668	1012.520
-11.619	22.683	1268.998	1011.815
-10.604	22.734	1267.874	1011.172
-9.590	22.715	1266.870	1010.223
-8.575	22.674	1265.822	1009.115
-7.560	22.715	1264.975	1008.631
-6.546	22.704	1264.295	1007.984
-5.531	22.713	1263.496	1007.364
-4.517	22.714	1262.563	1006.581
-3.502	22.757	1261.883	1006.244
-2.487	22.687	1260.979	1005.084
-1.473	22.776	1256.650	1002.102
-0.458	21.583	1242.452	984.036
0.556	17.556	1227.936	951.297
1.571	14.425	1236.445	940.168
2.586	13.896	1251.780	948.724
3.600	13.618	1239.614	937.847
4.615	10.074	1166.198	863.326
5.629	3.606	1094.648	777.777
6.644	0.807	1077.544	751.662
7.659	0.608	1075.414	749.124
8.673	0.502	1074.564	747.938
9.688	0.583	1073.675	747.653
10.702	0.780	1071.105	746.773
11.717	4.468	1075.415	767.970
12.731	11.080	1084.237	807.073
13.746	15.619	1090.090	833.929
14.761	17.135	1091.299	842.308
15.775	16.350	1089.502	836.954
16.790	15.334	1088.005	830.701
17.804	14.702	1086.578	826.411
18.819	14.409	1084.927	823.636
19.834	14.279	1084.009	822.223
20.848	13.886	1083.540	819.857
21.863	13.790	1082.153	818.259
22.877	13.580	1081.450	816.623
23.892	13.454	1081.116	815.676
24.907	13.394	1080.286	814.681
25.921	13.422	1079.656	814.270
26.936	13.612	1078.286	814.101
27.950	13.489	1077.475	812.812
28.965	13.541	1076.682	812.396
29.980	13.752	1074.672	811.840
30.994	13.628	1073.850	810.544
32.009	13.694	1073.461	810.500
33.023	13.765	1071.735	809.469
34.038	13.736	1070.963	808.676
35.053	13.640	1070.151	807.525
36.067	13.551	1069.316	806.387
37.082	13.623	1068.774	806.261
38.096	13.614	1067.444	805.141
39.111	13.655	1066.736	804.735
40.126	13.647	1065.275	803.524
41.140	13.441	1064.558	801.912
42.155	13.482	1063.437	801.196
43.169	13.567	1062.189	800.595
44.184	13.380	1061.874	799.383
45.199	13.420	1060.505	798.477
46.213	13.584	1059.174	798.195
47.228	13.665	1058.233	797.801
48.242	13.681	1056.607	796.581
49.257	13.563	1055.972	795.467
50.271	13.605	1055.447	795.203
51.286	13.580	1054.483	794.286
52.301	13.631	1053.459	793.689
53.315	13.556	1052.237	792.340
54.330	13.513	1051.377	791.415
55.344	13.484	1050.752	790.739
56.359	13.545	1049.732	790.189
57.374	13.554	1048.583	789.299
58.388	13.620	1047.502	788.730
59.403	13.551	1046.847	787.840
60.417	13.550	1046.149	787.238
61.432	13.431	1045.393	786.035
62.447	13.506	1044.936	785.978
63.461	13.377	1044.119	784.682
64.476	13.415	1043.205	784.104
65.490	13.606	1042.122	784.127
66.505	13.560	1041.500	783.370
67.520	13.491	1040.646	782.335
68.534	13.510	1040.206	782.021
69.549	13.439	1039.666	781.214
70.563	13.499	1038.308	780.405
71.578	13.544	1037.828	780.187
72.593	13.431	1037.283	779.180
73.607	13.400	1036.411	778.307
74.622	13.481	1035.469	777.911
75.636	13.375	1035.173	777.124
76.651	13.385	1034.381	776.504
77.666	13.284	1033.892	775.599
78.680	13.318	1033.019	775.033
79.695	13.426	1032.335	774.958
80.709	13.500	1031.460	774.578
81.724	13.454	1031.228	774.122
82.739	13.478	1030.274	773.448
83.753	13.619	1029.198	773.228
84.768	13.692	1028.286	772.815
85.782	13.637	1027.618	771.990
86.797	13.710	1026.769	771.620
87.812	13.586	1025.873	770.303
88.826	13.603	1024.518	769.297
89.841	13.645	1023.502	768.660
90.855	13.543	1023.418	768.058
91.870	13.526	1022.567	767.272
92.884	13.584	1021.454	766.639
93.899	13.895	1020.003	766.917
94.914	13.811	1019.744	766.269
95.928	13.748	1019.055	765.391
96.943	13.619	1018.091	764.006
97.957	13.703	1017.053	763.546
98.972	13.639	1016.324	762.635
99.987	13.725	1015.382	762.255
101.001	13.712	1014.367	761.366
102.016	13.677	1013.539	760.518
103.030	13.680	1012.772	759.889
104.045	13.742	1011.795	759.374
105.060	13.705	1010.991	758.531
106.074	13.715	1010.040	757.797
107.089	13.641	1009.101	756.688
108.103	13.442	1008.974	755.619
109.118	13.585	1007.426	755.046
110.133	13.628	1005.960	754.076
111.147	13.534	1005.667	753.358
112.162	13.596	1004.887	752.991
113.176	13.762	1003.668	752.762
114.191	13.677	1003.263	752.007
115.206	13.605	1002.491	751.039
116.220	13.588	1001.710	750.307
117.235	13.634	1000.566	749.591
118.249	13.694	999.590	749.065
119.264	13.676	998.972	748.457
120.279	13.607	998.561	747.768
121.293	13.609	997.209	746.703
122.308	13.508	996.737	745.825
123.322	13.723	995.434	745.750
124.337	13.649	994.306	744.507
125.352	13.495	993.732	743.322
126.366	13.831	992.113	743.552
127.381	13.701	991.185	742.207
128.395	13.542	990.525	740.937
129.410	13.658	989.332	740.496
130.424	13.826	988.389	740.476
131.439	13.809	987.522	739.685
132.454	13.582	987.287	738.431
133.468	13.730	986.292	738.281
134.483	13.628	985.771	737.372
135.497	13.619	984.134	736.041
136.512	13.634	983.508	735.573
137.527	13.725	982.382	735.071
138.541	13.671	982.157	734.600
139.556	13.758	981.230	734.224
140.570	13.778	980.556	733.743
141.585	13.783	979.416	732.847
142.600	13.812	978.643	732.333
143.614	13.798	978.015	731.738
144.629	13.815	977.498	731.358
145.643	13.796	976.338	730.345
146.658	13.594	975.364	728.662
147.673	13.703	974.383	728.343
148.687	13.760	973.670	727.998
149.702	13.898	972.500	727.663
150.716	13.782	972.271	726.917
151.731	13.697	971.408	725.837
152.746	13.779	970.396	725.374
153.760	13.848	970.202	725.466
154.775	13.808	969.409	724.636
155.789	13.927	968.565	724.459
156.804	13.961	967.924	724.064
157.819	13.934	966.831	723.065
158.833	13.888	966.594	722.623
159.848	14.129	965.282	722.628
160.862	13.945	964.500	721.177
161.877	13.970	963.499	720.475
162.892	13.948	962.540	719.599
163.906	13.934	961.597	718.768
164.921	13.871	961.259	718.181
165.935	13.904	960.426	717.636
166.950	13.821	959.783	716.735
167.964	13.770	958.872	715.770
168.979	13.894	958.016	715.601
169.994	14.057	956.378	715.015
171.008	14.043	956.152	714.725
172.023	14.046	955.204	713.967
173.037	14.046	954.994	713.747
174.052	14.102	954.015	713.192
175.067	14.142	953.178	712.672
176.081	13.982	952.976	711.775
177.096	13.984	952.401	711.288
178.110	14.108	951.294	710.930
179.125	14.068	951.153	710.591
180.140	14.041	950.451	709.887
181.154	14.133	949.847	709.766
182.169	14.107	949.417	709.271
183.183	14.289	948.194	709.071
184.198	14.099	948.423	708.371
185.213	14.166	947.186	707.667
186.227	14.389	945.958	707.634
187.242	14.296	945.866	707.109
188.256	14.434	944.978	706.969
189.271	14.249	944.208	705.548
190.286	14.194	943.740	704.902
191.300	14.171	942.797	704.038
192.315	14.097	942.214	703.227
193.329	14.212	941.571	703.171
194.344	14.163	941.146	702.584
195.359	14.241	940.105	702.075
196.373	14.313	939.630	701.961
197.388	14.326	939.652	701.967
198.402	14.395	938.651	701.449
199.417	14.507	937.736	701.176
200.432	14.509	937.399	700.869
201.446	14.582	936.780	700.652
202.461	14.420	936.681	699.836
203.475	14.444	936.123	699.455
204.490	14.541	934.961	698.934
205.504	14.445	934.282	697.961
206.519	14.523	933.433	697.593
207.534	14.447	932.732	696.688
208.548	14.558	931.806	696.397
209.563	14.564	931.156	695.875
210.577	14.530	930.708	695.339
211.592	14.543	930.400	695.099
212.607	14.586	929.058	694.215
213.621	14.753	928.107	694.138
214.636	14.698	927.677	693.527
215.650	14.676	926.957	692.837
216.665	14.693	926.331	692.378
217.680	14.597	926.012	691.677
218.694	14.819	925.425	692.097
219.709	14.805	924.371	691.190
220.723	14.750	923.778	690.459
221.738	14.737	923.615	690.222
222.753	14.814	922.299	689.494
223.767	14.885	921.922	689.444
224.782	14.793	921.561	688.736
225.796	14.709	920.855	687.802
226.811	14.823	920.307	687.800
227.826	14.767	919.511	686.912
228.840	14.765	918.774	686.295
229.855	14.846	917.829	685.861
230.869	14.896	916.980	685.372
231.884	14.799	916.576	684.608
232.899	14.924	915.253	684.073
233.913	14.787	914.759	683.082
234.928	14.908	914.228	683.121
235.942	14.932	913.550	682.651
236.957	14.848	912.857	681.729
237.972	15.012	912.184	681.835
238.986	14.801	911.696	680.551
240.001	14.904	910.906	680.321
241.015	14.871	910.469	679.799
242.030	14.957	909.835	679.615
243.045	14.841	909.392	678.752
244.059	15.079	908.355	678.886
245.074	15.021	908.093	678.395
246.088	15.075	907.154	677.851
247.103	15.110	906.598	677.518
248.117	15.092	906.121	677.028
249.132	15.235	905.507	677.086
250.147	15.235	904.419	676.212
251.161	15.245	904.237	676.059
252.176	15.266	903.592	675.599
253.190	15.131	903.009	674.560
254.205	15.143	902.296	674.015
255.220	15.322	901.287	673.924
256.234	15.359	901.266	673.994
257.249	15.459	899.908	673.324
258.263	15.353	899.269	672.358
259.278	15.382	898.938	672.169
260.293	15.431	898.048	671.641
261.307	15.627	897.922	672.270
262.322	15.429	897.152	670.842
263.336	15.485	896.297	670.367
264.351	15.597	895.340	670.040
265.366	15.519	894.935	669.366
266.380	15.644	894.196	669.253
267.395	15.564	893.492	668.349
268.409	15.543	892.680	667.599
269.424	15.565	892.087	667.181
270.439	15.648	891.370	666.916
271.453	15.576	890.711	666.080
272.468	15.604	890.302	665.825
273.482	15.569	889.620	665.119
274.497	15.524	888.861	664.314
275.512	15.650	888.474	664.465
276.526	15.588	887.693	663.575
277.541	15.784	887.310	664.004
278.555	15.786	886.810	663.581
279.570	15.840	885.592	662.822
280.585	15.847	885.337	662.598
281.599	15.822	884.383	661.728
282.614	15.698	883.799	660.748
283.628	15.804	883.468	660.857
284.643	15.707	882.904	659.996
285.657	15.666	882.268	659.301
286.672	15.731	881.586	658.987
287.687	15.799	880.781	658.594
288.701	15.784	880.331	658.140
289.716	15.616	879.958	657.146
290.730	15.925	879.161	657.701
291.745	15.802	878.571	656.723
292.760	15.833	878.011	656.364
293.774	15.946	877.241	656.172
294.789	15.844	876.662	655.285
295.803	16.067	875.678	655.357
296.818	16.054	874.958	654.708
297.833	16.091	874.140	654.184
298.847	16.072	873.869	653.849
299.862	15.993	873.216	652.996
300.876	15.934	873.015	652.557
301.891	16.084	872.173	652.452
302.906	16.090	871.445	651.875
303.920	16.177	871.137	651.923
304.935	16.085	870.679	651.166
305.949	16.088	869.933	650.564
306.964	16.132	869.197	650.126
307.979	16.011	868.748	649.265
308.993	16.184	868.413	649.624
310.008	16.250	867.453	649.099
311.022	16.233	866.929	648.585
312.037	16.202	866.316	647.951
313.052	16.230	865.780	647.598
314.066	16.129	865.609	647.028
315.081	16.246	864.828	646.833
316.095	16.324	863.813	646.318
317.110	16.294	863.054	645.579
318.125	16.087	863.528	645.082
319.139	16.163	862.527	644.568
320.154	16.347	862.010	644.826
321.168	16.142	861.774	643.810
322.183	16.346	860.619	643.671
323.197	16.172	860.405	642.789
324.212	16.475	859.644	643.319
325.227	16.277	859.368	642.302
326.241	16.255	858.751	641.698
327.256	16.487	857.804	641.815
328.270	16.408	857.250	641.043
329.285	16.361	857.052	640.661
330.300	16.527	856.006	640.452
331.314	16.426	855.645	639.740
332.329	16.486	855.085	639.495
333.343	16.588	854.520	639.401
334.358	16.538	854.462	639.111
335.373	16.555	853.986	638.762
336.387	16.477	853.937	638.375
337.402	16.557	853.545	638.325
338.416	16.611	852.811	637.927
339.431	16.537	852.587	637.421
340.446	16.615	851.806	637.078
341.460	16.627	851.725	637.005
342.475	16.590	851.453	636.607
343.489	16.841	850.825	637.024
344.504	16.622	850.636	636.002
345.519	16.725	850.088	635.923
346.533	16.847	849.579	635.944
347.548	16.829	848.715	635.174
348.562	16.763	848.422	634.649
349.577	16.606	848.106	633.769
350.592	16.733	847.104	633.439
351.606	16.756	846.454	632.982
352.621	16.780	845.609	632.386
353.635	16.710	845.547	632.021
354.650	16.845	844.531	631.712
355.665	16.928	843.703	631.345
356.679	16.910	843.425	631.014
357.694	16.893	842.783	630.413
358.708	16.803	842.225	629.607
359.723	16.991	841.321	629.573
360.738	16.881	840.921	628.809
361.752	16.946	840.326	628.550
362.767	16.940	840.213	628.386
363.781	16.903	839.742	627.844
364.796	17.094	838.767	627.763
365.810	17.077	838.606	627.525
366.825	17.168	838.251	627.541
367.840	17.086	837.702	626.769
368.854	17.122	837.436	626.648
369.869	17.022	836.894	625.819
370.883	17.233	836.262	626.070
371.898	17.336	835.657	625.938
372.913	17.286	835.217	625.371
373.927	17.209	834.871	624.775
374.942	17.225	834.225	624.295
375.956	17.320	834.035	624.446
376.971	17.194	833.796	623.748
377.986	17.310	833.146	623.631
379.000	17.221	832.719	622.929
380.015	17.416	831.987	623.043
381.029	17.344	831.767	622.560
382.044	17.334	830.907	621.823
383.059	17.472	830.331	621.844
384.073	17.294	830.028	620.909
385.088	17.376	829.178	620.519
386.102	17.336	828.832	620.058
387.117	17.521	828.501	620.429
388.132	17.368	827.716	619.231
389.146	17.392	827.145	618.838
390.161	17.438	826.595	618.537
391.175	17.536	826.058	618.437
392.190	17.350	825.895	617.585
393.205	17.595	824.699	617.522
394.219	17.519	824.843	617.300
395.234	17.491	824.340	616.767
396.248	17.397	824.237	616.296
397.263	17.493	823.389	615.955
398.278	17.489	823.591	616.038
399.292	17.591	822.743	615.716
400.307	17.408	822.398	614.744
401.321	17.584	821.584	614.715
402.336	17.593	821.152	614.371
403.350	17.638	820.583	614.052
404.365	17.626	820.032	613.543
405.380	17.658	819.812	613.438
406.394	17.614	819.054	612.659
407.409	17.704	818.948	612.848
408.423	17.715	818.752	612.689
409.438	17.733	818.361	612.406
410.453	17.840	817.586	612.156
411.467	17.800	817.087	611.585
412.482	17.889	816.557	611.454
413.496	17.851	816.528	611.242
414.511	17.879	816.357	611.157
415.526	17.941	815.395	610.606
416.540	17.910	815.198	610.293
417.555	18.040	814.436	610.134
418.569	17.964	814.033	609.508
419.584	17.960	813.640	609.143
420.599	17.947	812.967	608.539
421.613	114.877	1298.779	1488.150
422.628	99.467	1369.514	1488.231
