DTS Sentinel unit serial number:	SN413079Multiplexer serial number:	ORYXHardware model number:	OX4-SRSoftware version number:	ORYX F/W v4.00 Oryx Data Collector v3.7.2.0data status	okinstallation	princeton_trtdifferential loss correction	single-endedforward channel	channel 1reverse channel	N/Adate	2019/09/11time	21:44:11forward acquisition time	60.00reverse acquisition time	0.00gamma	496.2192k internal	0.2312k external	0.2312temperature offset calibration	1.0048default loss term (dB/km)	0.3790temperature slope calibration	1.0000multiplexer offset coefficient	1.0000multiplexer slope coefficient	1.0000fibre end	0.00T internal ref (°C)	35.78T ext. ref 1 (°C)	1.68T ext. ref 2 (°C)	30.13length (m)	temperature (°C)	Stokes	anti-Stokes-747.200	800.000	0.034	-0.109
-746.185	56.902	-0.151	0.149
-745.171	-27.061	-0.156	0.092
-744.156	75.990	-0.123	0.132
-743.142	-139.663	-0.345	0.037
-742.127	-159.647	0.255	0.014
-741.112	15.689	0.211	0.168
-740.098	257.011	0.038	-0.067
-739.083	-63.736	-0.112	0.046
-738.069	416.339	-0.023	-0.050
-737.054	-123.673	0.188	-0.030
-736.039	-200.000	-0.148	-0.000
-735.025	-127.909	0.463	-0.068
-734.010	6.553	-0.187	-0.141
-732.996	-4.004	-0.259	0.182
-731.981	-123.490	-0.256	0.041
-730.966	-166.044	-0.297	0.013
-729.952	73.811	0.235	0.250
-728.937	-92.242	-0.312	0.089
-727.923	-53.023	0.168	0.078
-726.908	44.791	0.134	-0.125
-725.894	137.209	-0.361	0.479
-724.879	-101.491	0.167	0.041
-723.864	-15.885	-0.161	0.104
-722.850	412.079	-0.111	-0.240
-721.835	-19.826	-0.126	-0.079
-720.821	-96.873	0.082	-0.022
-719.806	-4.520	-0.392	-0.275
-718.791	647.943	-0.083	-0.214
-717.777	-96.440	-0.228	0.061
-716.762	-47.209	-0.323	-0.159
-715.748	-86.737	0.130	-0.040
-714.733	510.911	-0.099	-0.233
-713.718	-141.237	0.051	0.005
-712.704	-62.190	0.230	0.097
-711.689	1.392	-0.092	-0.067
-710.675	-49.408	0.081	0.039
-709.660	800.000	0.053	-0.229
-708.645	-200.000	-0.025	0.212
-707.631	-200.000	0.009	0.096
-706.616	239.124	-0.037	-0.063
-705.602	-200.000	0.010	-0.128
-704.587	570.272	0.084	0.208
-703.572	373.780	0.123	0.254
-702.558	100.946	0.176	0.208
-701.543	-54.513	0.309	0.142
-700.529	253.774	-0.176	-0.305
-699.514	-84.785	-0.480	0.153
-698.499	-14.101	0.311	-0.204
-697.485	543.702	-0.099	-0.239
-696.470	201.576	-0.153	-0.239
-695.456	-155.671	-0.264	-0.017
-694.441	-155.572	-0.206	0.013
-693.426	-200.000	-0.014	0.146
-692.412	-120.709	0.400	-0.069
-691.397	-158.499	-0.153	-0.009
-690.383	-200.000	0.005	0.050
-689.368	-168.273	-0.291	0.011
-688.354	-41.814	0.258	-0.134
-687.339	800.000	-0.066	-0.226
-686.324	241.820	0.011	-0.019
-685.310	-200.000	-0.055	0.248
-684.295	-7.677	0.416	-0.285
-683.281	-200.000	0.037	-0.234
-682.266	-8.132	-0.127	0.087
-681.251	658.107	-0.016	0.043
-680.237	-33.151	0.143	-0.080
-679.222	34.179	-0.177	-0.157
-678.208	-200.000	-0.029	-0.398
-677.193	800.000	0.068	0.204
-676.178	-200.000	-0.198	0.000
-675.164	-91.821	0.285	-0.082
-674.149	800.000	0.031	0.122
-673.135	-200.000	-0.002	-0.114
-672.120	580.574	0.076	-0.189
-671.105	-9.377	0.114	-0.077
-670.091	-12.325	0.103	-0.068
-669.076	-106.998	0.331	0.074
-668.062	-200.000	-0.004	0.213
-667.047	293.032	0.162	-0.300
-666.032	-29.864	0.102	0.059
-665.018	800.000	-0.059	-0.243
-664.003	-92.022	-0.177	-0.051
-662.989	-75.370	-0.257	0.093
-661.974	7.534	0.231	-0.175
-660.959	-33.384	0.053	0.030
-659.945	22.159	0.354	0.292
-658.930	-52.818	-0.331	-0.154
-657.916	-177.025	0.043	0.001
-656.901	618.888	-0.065	0.166
-655.886	574.905	-0.105	-0.259
-654.872	217.034	-0.101	-0.162
-653.857	-200.000	-0.041	0.183
-652.843	-200.000	0.034	0.396
-651.828	-200.000	0.088	-0.416
-650.814	-60.980	0.157	-0.067
-649.799	-75.912	-0.140	0.050
-648.784	67.553	0.120	0.124
-647.770	-74.370	0.053	0.020
-646.755	67.296	-0.359	-0.370
-645.741	497.488	0.043	-0.100
-644.726	-108.863	0.285	-0.062
-643.711	-200.000	-0.002	-0.010
-642.697	-200.000	-0.065	-0.351
-641.682	-139.432	0.046	-0.005
-640.668	119.798	0.135	-0.169
-639.653	-120.433	-0.167	-0.029
-638.638	-82.111	-0.075	-0.025
-637.624	-200.000	-0.029	-0.183
-636.609	340.827	-0.169	-0.333
-635.595	800.000	0.036	-0.154
-634.580	600.530	-0.055	-0.139
-633.565	231.108	-0.063	-0.104
-632.551	800.000	0.056	0.233
-631.536	-146.732	-0.225	-0.020
-630.522	-200.000	-0.041	-0.202
-629.507	-25.873	-0.193	0.115
-628.492	-31.649	0.366	0.207
-627.478	-194.553	-0.451	0.004
-626.463	-200.000	-0.050	0.313
-625.449	11.364	-0.127	-0.098
-624.434	-83.984	-0.055	-0.018
-623.419	-200.000	-0.004	-0.119
-622.405	-23.945	0.246	0.148
-621.390	308.302	-0.039	0.073
-620.376	-116.165	-0.132	0.025
-619.361	-129.094	0.107	-0.015
-618.346	19.639	0.219	0.178
-617.332	-200.000	-0.011	-0.182
-616.317	27.144	0.283	0.240
-615.303	-105.350	0.082	0.019
-614.288	-19.924	-0.173	-0.108
-613.273	-200.000	-0.006	0.213
-612.259	-60.341	0.206	-0.089
-611.244	66.317	-0.137	-0.140
-610.230	-3.016	0.260	-0.183
-609.215	-47.910	-0.201	-0.098
-608.201	-200.000	-0.043	0.286
-607.186	-57.671	0.222	-0.098
-606.171	450.484	-0.011	-0.024
-605.157	262.874	-0.047	0.083
-604.142	262.122	-0.041	-0.072
-603.128	-90.617	-0.191	-0.056
-602.113	23.716	0.210	-0.175
-601.098	201.934	0.090	-0.140
-600.084	504.080	-0.095	-0.221
-599.069	90.122	0.106	-0.120
-598.055	-200.000	-0.058	-0.312
-597.040	-180.397	-0.245	-0.005
-596.025	647.142	0.153	-0.395
-595.011	-88.691	0.446	0.134
-593.996	-56.511	0.091	-0.041
-592.982	29.298	-0.277	0.237
-591.967	-130.754	-0.218	0.029
-590.952	-76.497	-0.304	-0.108
-589.938	-77.029	0.313	-0.110
-588.923	43.152	-0.191	0.175
-587.909	392.754	0.126	0.265
-586.894	-200.000	0.013	0.078
-585.879	-36.928	-0.126	0.068
-584.865	-10.214	0.165	-0.110
-583.850	-119.714	0.172	-0.030
-582.836	800.000	-0.060	-0.170
-581.821	800.000	-0.058	-0.218
-580.806	-115.971	-0.195	0.037
-579.792	129.203	-0.076	0.098
-578.777	69.251	-0.308	0.320
-577.763	-200.000	0.035	0.220
-576.748	-46.357	-0.171	0.085
-575.733	83.892	-0.310	0.341
-574.719	-84.004	-0.471	0.151
-573.704	-60.917	-0.134	-0.057
-572.690	-118.406	-0.209	-0.037
-571.675	40.399	-0.114	-0.104
-570.661	-200.000	0.072	-0.381
-569.646	9.035	0.102	-0.078
-568.631	-79.942	-0.017	0.006
-567.617	-12.619	0.247	-0.163
-566.602	-110.933	-0.168	-0.035
-565.588	-74.790	-0.360	0.130
-564.573	5.708	0.106	0.079
-563.558	62.726	-0.052	0.052
-562.544	-20.833	-0.295	0.182
-561.529	800.000	0.067	-0.198
-560.515	-198.317	-0.553	-0.003
-559.500	105.371	0.104	-0.124
-558.485	-15.926	-0.057	-0.037
-557.471	-14.297	-0.133	-0.087
-556.456	-68.955	0.282	-0.109
-555.442	-146.036	0.209	0.019
-554.427	516.084	0.194	0.456
-553.412	-21.113	-0.310	-0.191
-552.398	21.982	0.299	-0.245
-551.383	-200.000	0.022	-0.114
-550.369	124.091	0.207	0.262
-549.354	162.219	-0.314	0.443
-548.339	13.889	0.188	0.147
-547.325	73.480	0.047	0.050
-546.310	11.030	0.154	0.118
-545.296	-200.000	-0.027	0.194
-544.281	-200.000	-0.026	-0.173
-543.266	23.875	0.195	-0.162
-542.252	-60.156	0.243	-0.104
-541.237	-25.047	-0.091	-0.054
-540.223	642.267	-0.085	0.218
-539.208	218.421	0.048	0.077
-538.193	147.397	0.146	0.198
-537.179	-43.487	0.069	-0.035
-536.164	800.000	0.041	-0.132
-535.150	-51.096	-0.241	0.114
-534.135	800.000	0.065	-0.257
-533.121	224.021	-0.167	-0.272
-532.106	-18.727	-0.200	0.125
-531.091	737.104	-0.056	0.151
-530.077	60.410	-0.059	-0.058
-529.062	365.247	-0.187	-0.379
-528.048	800.000	0.101	-0.433
-527.033	104.894	0.188	-0.223
-526.018	800.000	0.052	-0.164
-525.004	-200.000	-0.001	-0.232
-523.989	236.788	0.100	0.167
-522.975	-112.851	0.029	0.006
-521.960	396.125	-0.157	-0.331
-520.945	122.525	0.095	-0.120
-519.931	56.305	-0.065	0.063
-518.916	450.377	-0.168	0.373
-517.902	126.484	-0.084	-0.107
-516.887	800.000	0.098	-0.407
-515.872	-22.913	-0.089	0.054
-514.858	56.473	-0.117	0.114
-513.843	47.216	0.251	0.235
-512.829	-0.541	-0.178	-0.127
-511.814	-200.000	-0.061	-0.285
-510.799	45.671	-0.362	-0.336
-509.785	-46.634	-0.160	0.079
-508.770	473.031	0.132	0.299
-507.756	-91.022	-0.212	0.061
-506.741	23.320	-0.158	-0.131
-505.726	12.336	-0.060	0.046
-504.712	-166.858	0.106	0.004
-503.697	-17.268	-0.151	-0.096
-502.683	14.224	0.208	-0.163
-501.668	-200.000	-0.039	-0.441
-500.653	-9.200	-0.380	0.256
-499.639	-74.395	0.211	0.076
-498.624	-200.000	0.023	-0.182
-497.610	-59.425	-0.294	-0.127
-496.595	-121.395	0.270	0.045
-495.581	-157.383	-0.332	0.020
-494.566	-200.000	0.018	0.088
-493.551	-61.914	-0.193	0.081
-492.537	-200.000	-0.032	-0.253
-491.522	19.559	0.048	0.039
-490.508	464.405	-0.017	-0.039
-489.493	60.962	0.176	0.175
-488.478	-200.000	0.041	-0.218
-487.464	-88.399	0.168	0.050
-486.449	800.000	-0.037	0.152
-485.435	-9.925	0.228	-0.152
-484.420	800.000	0.055	0.165
-483.405	800.000	0.041	0.167
-482.391	800.000	-0.011	0.041
-481.376	86.681	-0.250	-0.277
-480.362	-200.000	0.001	-0.197
-479.347	-200.000	0.023	0.194
-478.332	56.679	0.163	0.160
-477.318	635.754	-0.071	0.180
-476.303	137.062	0.044	-0.058
-475.289	-22.021	-0.029	-0.018
-474.274	31.343	-0.237	0.204
-473.259	-166.928	-0.304	0.013
-472.245	-136.640	0.153	-0.018
-471.230	-200.000	-0.010	0.096
-470.216	-23.590	-0.086	-0.052
-469.201	-50.864	-0.086	0.041
-468.186	95.702	0.212	0.243
-467.172	341.704	0.208	0.409
-466.157	-200.000	0.015	-0.174
-465.143	-16.116	-0.385	-0.246
-464.128	174.115	0.210	-0.305
-463.113	-72.928	-0.175	-0.065
-462.099	648.713	0.157	-0.402
-461.084	-148.049	-0.048	-0.004
-460.070	-127.609	-0.180	-0.026
-459.055	279.998	-0.122	-0.218
-458.040	18.159	-0.255	-0.204
-457.026	800.000	0.117	-0.390
-456.011	-200.000	-0.005	-0.211
-454.997	-28.898	0.288	-0.166
-453.982	32.889	-0.074	0.064
-452.968	592.772	-0.053	0.131
-451.953	-89.099	0.161	-0.048
-450.938	-21.486	0.288	0.176
-449.924	70.183	-0.213	0.221
-448.909	-118.462	-0.434	-0.077
-447.895	800.000	-0.104	-0.423
-446.880	47.754	0.210	-0.197
-445.865	800.000	0.056	0.167
-444.851	22.753	-0.105	-0.087
-443.836	-136.878	0.149	-0.017
-442.822	595.087	-0.138	0.341
-441.807	55.143	0.163	0.158
-440.792	-24.910	-0.231	-0.137
-439.778	206.961	0.066	-0.104
-438.763	-3.491	0.337	0.235
-437.749	34.180	-0.049	-0.043
-436.734	-63.512	-0.120	0.050
-435.719	800.000	-0.026	0.097
-434.705	126.873	-0.176	0.224
-433.690	800.000	0.011	-0.049
-432.676	-64.474	-0.162	0.066
-431.661	-66.005	0.396	-0.159
-430.646	159.057	0.220	0.307
-429.632	782.674	-0.081	-0.223
-428.617	800.000	-0.068	-0.295
-427.603	-30.545	-0.191	0.109
-426.588	-200.000	-0.021	-0.094
-425.573	-107.546	-0.251	-0.055
-424.559	-42.526	-0.107	0.055
-423.544	-37.473	0.260	-0.139
-422.530	-160.845	0.210	-0.011
-421.515	-200.000	0.014	-0.255
-420.500	-7.978	0.266	-0.180
-419.486	82.729	-0.066	0.072
-418.471	-37.882	-0.226	0.120
-417.457	321.429	0.090	-0.171
-416.442	-12.283	0.206	0.135
-415.428	12.377	-0.237	0.183
-414.413	800.000	-0.060	-0.259
-413.398	439.565	-0.095	0.209
-412.384	751.563	-0.015	0.041
-411.369	-200.000	-0.070	0.307
-410.355	800.000	0.138	0.384
-409.340	8.871	-0.154	0.116
-408.325	49.908	-0.130	-0.123
-407.311	800.000	-0.022	0.094
-406.296	-200.000	0.015	-0.086
-405.282	631.908	0.080	0.204
-404.267	-7.418	0.201	-0.136
-403.252	199.065	0.099	0.152
-402.238	378.476	-0.009	0.019
-401.223	-47.195	-0.111	-0.054
-400.209	55.078	0.148	0.144
-399.194	800.000	-0.045	0.148
-398.179	800.000	-0.072	0.238
-397.165	-28.313	-0.197	0.114
-396.150	22.499	0.180	0.147
-395.136	-126.836	0.290	0.043
-394.121	68.947	0.439	-0.451
-393.106	26.430	-0.315	-0.263
-392.092	-172.030	0.157	0.005
-391.077	-65.756	-0.074	0.030
-390.063	-83.200	0.004	-0.001
-389.048	-17.539	-0.146	-0.092
-388.033	106.207	-0.114	0.135
-387.019	-46.980	-0.124	0.061
-386.004	-163.074	-0.228	0.011
-384.990	-163.687	-0.354	-0.017
-383.975	50.054	0.191	0.180
-382.960	491.266	0.149	0.341
-381.946	-115.127	0.041	0.008
-380.931	-165.218	-0.119	-0.005
-379.917	508.247	0.110	-0.256
-378.902	671.595	-0.070	-0.181
-377.888	-171.043	-0.281	0.010
-376.873	-49.093	0.164	-0.078
-375.858	800.000	-0.068	0.273
-374.844	-63.125	-0.154	0.063
-373.829	-53.256	0.206	0.095
-372.815	511.995	0.034	0.080
-371.800	800.000	-0.021	0.072
-370.785	87.465	-0.152	-0.169
-369.771	800.000	-0.146	0.490
-368.756	46.348	-0.031	-0.029
-367.742	-200.000	0.015	0.151
-366.727	707.679	0.162	0.427
-365.712	106.922	-0.128	0.153
-364.698	-106.866	-0.120	-0.027
-363.683	800.000	0.172	0.477
-362.669	-13.701	0.214	-0.139
-361.654	-89.013	0.300	0.089
-360.639	176.090	0.030	-0.044
-359.625	265.246	0.121	0.211
-358.610	72.721	0.173	0.180
-357.596	-200.000	-0.068	0.381
-356.581	-28.246	-0.270	0.156
-355.566	502.480	0.029	-0.068
-354.552	800.000	-0.078	-0.279
-353.537	-98.120	0.098	-0.025
-352.523	78.613	0.051	0.054
-351.508	-200.000	0.012	0.108
-350.493	-13.269	0.210	0.136
-349.479	-200.000	-0.009	-0.203
-348.464	-200.000	-0.031	-0.336
-347.450	-92.823	0.299	-0.084
-346.435	-40.950	-0.059	0.031
-345.420	22.001	0.171	-0.139
-344.406	60.679	-0.111	-0.110
-343.391	-116.165	-0.272	0.051
-342.377	-153.827	0.259	-0.018
-341.362	-129.878	0.295	-0.040
-340.348	-200.000	0.003	-0.072
-339.333	0.802	0.103	0.074
-338.318	85.839	0.189	0.207
-337.304	-200.000	-0.003	0.209
-336.289	-121.949	-0.162	-0.027
-335.275	45.033	0.099	-0.091
-334.260	-200.000	-0.009	-0.117
-333.245	209.523	-0.078	0.121
-332.231	-200.000	-0.032	0.247
-331.216	-200.000	0.028	-0.320
-330.202	-143.726	0.073	-0.007
-329.187	80.732	-0.137	-0.147
-328.172	148.678	0.117	-0.158
-327.158	-16.239	0.238	-0.151
-326.143	382.855	-0.156	-0.320
-325.129	334.060	-0.109	-0.210
-324.114	-16.172	0.277	-0.176
-323.099	-133.988	-0.247	0.030
-322.085	800.000	0.029	0.114
-321.070	-200.000	0.034	0.178
-320.056	-200.000	0.042	-0.390
-319.041	71.001	-0.131	0.135
-318.026	800.000	-0.086	0.352
-317.012	-200.000	-0.057	0.270
-315.997	-200.000	-0.029	0.169
-314.983	-29.458	-0.100	0.057
-313.968	-151.313	0.057	0.004
-312.953	-61.496	0.483	-0.202
-311.939	-56.964	-0.213	-0.094
-310.924	-137.810	0.103	0.011
-309.910	800.000	0.018	0.070
-308.895	-68.119	0.314	0.122
-307.880	-69.424	-0.439	-0.168
-306.866	800.000	-0.049	-0.175
-305.851	-60.056	-0.104	-0.044
-304.837	304.090	-0.045	-0.084
-303.822	800.000	-0.030	-0.088
-302.807	-112.756	0.103	-0.020
-301.793	-200.000	-0.027	0.334
-300.778	58.428	0.084	-0.082
-299.764	-95.140	-0.390	0.105
-298.749	142.456	-0.323	-0.428
-297.735	233.913	0.112	0.185
-296.720	-61.984	-0.136	-0.057
-295.705	-67.658	-0.107	0.042
-294.691	-200.000	0.001	0.292
-293.676	634.892	-0.055	0.139
-292.662	800.000	0.111	-0.452
-291.647	-200.000	0.033	0.174
-290.632	-200.000	0.027	0.210
-289.618	-200.000	-0.004	-0.027
-288.603	3.384	0.348	0.253
-287.589	-128.276	-0.107	-0.015
-286.574	-46.454	0.162	0.079
-285.559	-124.131	-0.180	-0.028
-284.545	-92.609	0.714	-0.200
-283.530	34.562	-0.089	0.077
-282.516	-120.824	0.110	-0.019
-281.501	47.017	0.319	-0.296
-280.486	-200.000	0.028	-0.221
-279.472	180.302	-0.131	-0.192
-278.457	-200.000	0.026	-0.149
-277.443	-184.832	0.164	0.003
-276.428	499.086	0.068	0.156
-275.413	-145.252	0.315	-0.028
-274.399	-48.444	0.244	-0.117
-273.384	-94.142	-0.614	0.168
-272.370	-101.735	0.297	0.072
-271.355	486.581	0.103	0.235
-270.340	-93.724	-0.355	-0.098
-269.326	800.000	0.059	0.228
-268.311	67.576	0.235	0.239
-267.297	44.128	0.068	-0.062
-266.282	52.174	0.233	-0.221
-265.267	14.578	0.207	0.161
-264.253	800.000	-0.008	-0.031
-263.238	22.491	-0.137	0.112
-262.224	-82.394	-0.109	-0.035
-261.209	-94.685	0.180	0.049
-260.195	800.000	-0.030	0.083
-259.180	-113.741	-0.072	-0.014
-258.165	388.971	-0.158	0.325
-257.151	-135.094	-0.169	0.020
-256.136	-88.160	0.494	0.148
-255.122	-2.799	0.304	0.212
-254.107	800.000	0.038	0.151
-253.092	-47.374	0.438	0.212
-252.078	-61.981	-0.242	-0.101
-251.063	175.318	-0.157	0.226
-250.049	-74.932	-0.242	-0.086
-249.034	-27.721	-0.192	-0.111
-248.019	-60.588	-0.287	-0.121
-247.005	79.818	-0.141	0.151
-245.990	34.016	-0.027	-0.024
-244.976	-41.927	-0.336	-0.171
-243.961	-119.706	0.145	0.025
-242.946	-200.000	-0.009	0.312
-241.932	-9.924	-0.317	0.210
-240.917	-154.547	0.455	-0.030
-239.903	-200.000	-0.003	0.070
-238.888	-182.110	0.266	0.005
-237.873	-200.000	-0.008	0.106
-236.859	-176.208	0.202	0.005
-235.844	303.744	-0.070	0.129
-234.830	279.353	-0.052	-0.093
-233.815	17.534	-0.230	0.182
-232.800	-43.989	0.424	0.212
-231.786	-10.200	0.319	-0.211
-230.771	800.000	-0.026	-0.071
-229.757	428.621	0.217	-0.467
-228.742	-70.006	-0.122	-0.046
-227.727	131.389	0.136	-0.173
-226.713	-73.346	0.288	0.105
-225.698	-51.446	-0.108	0.050
-224.684	-17.761	0.269	-0.168
-223.669	-110.148	0.228	0.047
-222.655	-102.867	0.298	-0.070
-221.640	32.123	-0.262	0.225
-220.625	-200.000	0.015	-0.183
-219.611	-49.214	0.216	-0.103
-218.596	800.000	0.059	0.163
-217.582	-200.000	-0.063	0.286
-216.567	-43.312	0.176	-0.088
-215.552	-118.155	0.138	-0.024
-214.538	-5.698	0.277	0.188
-213.523	-200.000	-0.045	0.253
-212.509	-200.000	-0.010	-0.134
-211.494	-99.141	0.062	0.016
-210.479	-200.000	0.026	0.182
-209.465	800.000	0.095	-0.403
-208.450	-142.639	0.098	-0.010
-207.436	-122.700	0.243	-0.039
-206.421	445.764	-0.164	0.359
-205.406	-200.000	0.010	0.208
-204.392	36.780	0.123	-0.108
-203.377	-113.154	0.130	0.025
-202.363	-75.564	-0.167	-0.059
-201.348	-78.858	-0.083	0.028
-200.333	21.487	-0.192	0.155
-199.319	800.000	-0.043	-0.168
-198.304	-145.701	-0.461	0.041
-197.290	-8.301	-0.240	0.161
-196.275	-26.573	0.435	0.253
-195.260	-4.012	0.203	0.140
-194.246	-159.299	0.129	-0.007
-193.231	520.167	0.096	-0.224
-192.217	-48.492	0.179	0.086
-191.202	219.056	-0.149	0.236
-190.187	-124.521	-0.147	0.023
-189.173	315.203	-0.156	-0.293
-188.158	-137.956	0.289	0.032
-187.144	176.955	0.218	-0.315
-186.129	-16.914	0.069	-0.043
-185.114	-94.198	-0.077	-0.021
-184.100	406.717	-0.175	0.366
-183.085	273.520	0.178	0.313
-182.071	-117.487	-0.302	0.054
-181.056	454.649	-0.196	-0.432
-180.042	-132.666	-0.301	0.038
-179.027	199.483	0.087	0.133
-178.012	-3.031	-0.310	-0.215
-176.998	455.259	-0.108	-0.238
-175.983	-200.000	-0.093	0.510
-174.969	320.543	0.038	-0.071
-173.954	-82.351	-0.119	-0.038
-172.939	-125.269	0.190	0.029
-171.925	-193.351	0.403	0.003
-170.910	499.700	0.064	0.147
-169.896	178.303	0.187	0.271
-168.881	76.031	0.061	0.064
-167.866	-105.792	-0.400	0.090
-166.852	-8.387	0.115	-0.077
-165.837	800.000	0.051	-0.211
-164.823	173.712	0.058	-0.083
-163.808	-200.000	-0.004	-0.207
-162.793	800.000	-0.072	-0.251
-161.779	46.661	-0.149	0.137
-160.764	-200.000	-0.052	-0.256
-159.750	-117.544	0.333	-0.060
-158.735	-200.000	-0.020	-0.223
-157.720	800.000	0.052	0.211
-156.706	328.190	-0.249	0.475
-155.691	25.081	-0.088	-0.072
-154.677	204.195	-0.148	-0.227
-153.662	129.938	0.192	-0.243
-152.647	-38.371	-0.135	-0.071
-151.633	-200.000	-0.012	0.058
-150.618	-84.884	0.130	0.041
-149.604	112.547	0.122	-0.146
-148.589	-200.000	-0.043	0.212
-147.574	-91.782	0.243	0.068
-146.560	-200.000	-0.002	0.146
-145.545	800.000	-0.033	0.121
-144.531	-192.334	0.085	0.001
-143.516	-18.623	0.179	-0.111
-142.502	-200.000	-0.009	0.331
-141.487	38.328	0.215	0.190
-140.472	-147.934	-0.256	0.021
-139.458	141.106	-0.145	0.190
-138.443	-65.643	0.182	0.072
-137.429	294.013	0.152	0.275
-136.414	181.585	0.078	-0.114
-135.399	253.192	0.191	-0.322
-134.385	113.863	0.191	0.230
-133.370	-200.000	0.058	0.319
-132.356	22.098	0.179	-0.145
-131.341	800.000	-0.070	0.231
-130.326	-31.162	-0.056	-0.031
-129.312	-71.141	0.088	0.033
-128.297	11.844	-0.212	-0.162
-127.283	754.570	-0.114	0.305
-126.268	89.852	0.159	-0.176
-125.253	-113.549	0.193	0.037
-124.239	16.906	-0.276	0.217
-123.224	-172.073	0.053	0.002
-122.210	232.507	-0.080	-0.130
-121.195	800.000	-0.094	0.335
-120.180	95.163	-0.171	0.193
-119.166	137.740	-0.189	-0.246
-118.151	485.302	-0.005	0.012
-117.137	108.644	-0.079	0.093
-116.122	-111.216	-0.041	0.008
-115.107	-200.000	0.001	-0.099
-114.093	240.415	-0.031	-0.051
-113.078	-200.000	0.002	-0.043
-112.064	-200.000	0.009	-0.212
-111.049	189.953	0.252	0.375
-110.034	-167.392	-0.382	0.015
-109.020	-200.000	0.001	-0.008
-108.005	-200.000	-0.003	-0.196
-106.991	510.768	-0.056	-0.130
-105.976	794.178	-0.027	0.074
-104.962	-35.219	-0.140	-0.075
-103.947	68.962	0.278	0.283
-102.932	800.000	0.069	0.202
-101.918	138.763	-0.196	-0.254
-100.903	138.895	-0.092	-0.119
-99.889	312.006	0.074	0.138
-98.874	-100.361	-0.086	0.021
-97.859	194.102	-0.105	-0.157
-96.845	112.316	0.069	-0.082
-95.830	-200.000	-0.006	0.249
-94.816	-183.356	0.099	0.002
-93.801	-200.000	-0.008	0.099
-92.786	-200.000	-0.010	0.460
-91.772	-200.000	-0.045	0.232
-90.757	171.172	0.182	-0.258
-89.743	342.360	-0.076	0.147
-88.728	-200.000	-0.009	-0.057
-87.713	-77.838	-0.083	-0.028
-86.699	106.813	0.068	-0.080
-85.684	-99.853	0.240	-0.059
-84.670	-78.240	0.180	0.061
-83.655	9.144	-0.116	-0.087
-82.640	-200.000	0.027	0.163
-81.626	-156.508	0.307	0.019
-80.611	597.119	0.066	0.163
-79.597	-200.000	-0.015	-0.367
-78.582	-200.000	-0.016	-0.239
-77.567	570.326	0.067	0.162
-76.553	156.371	0.160	0.219
-75.538	-70.941	-0.071	-0.026
-74.524	-200.000	-0.002	0.163
-73.509	-200.000	-0.058	-0.346
-72.494	796.558	0.129	-0.352
-71.480	71.784	-0.044	0.045
-70.465	195.057	0.141	0.211
-69.451	-200.000	-0.047	-0.202
-68.436	69.382	-0.282	0.287
-67.422	-200.000	-0.011	0.277
-66.407	7.372	0.066	-0.049
-65.392	450.581	0.169	-0.370
-64.378	363.187	0.059	0.117
-63.363	-200.000	-0.002	-0.014
-62.349	-76.119	0.134	-0.047
-61.334	80.809	-0.976	-1.041
-60.319	6.582	0.499	0.366
-59.305	709.370	-0.288	-0.752
-58.290	19.135	0.732	0.580
-57.276	552.137	0.682	1.619
-56.261	-200.000	93.407	561.843
-55.246	556.767	1364.028	3247.101
-54.232	153.962	2573.696	3485.937
-53.217	117.151	2164.545	2627.384
-52.203	47.662	1624.604	1497.235
-51.188	39.458	1361.300	1204.618
-50.173	36.047	1318.589	1146.521
-49.159	57.609	1367.356	1319.998
-48.144	62.224	1385.629	1365.486
-47.130	39.623	1339.937	1186.521
-46.115	35.937	1322.128	1148.762
-45.100	35.684	1317.731	1143.393
-44.086	35.702	1314.702	1140.827
-43.071	35.508	1312.912	1138.077
-42.057	35.594	1310.864	1136.765
-41.042	35.623	1309.082	1135.345
-40.027	35.759	1307.524	1134.750
-39.013	35.718	1305.278	1132.514
-37.998	35.745	1303.320	1130.931
-36.984	35.803	1301.704	1129.826
-35.969	35.776	1300.332	1128.429
-34.954	35.741	1298.543	1126.631
-33.940	35.732	1297.655	1125.763
-32.925	35.975	1295.488	1125.254
-31.911	35.859	1294.698	1123.847
-30.896	35.915	1292.490	1122.211
-29.881	35.887	1291.818	1121.424
-28.867	35.912	1290.110	1120.040
-27.852	36.012	1288.211	1118.926
-26.838	35.996	1286.935	1117.682
-25.823	35.926	1285.890	1116.327
-24.809	35.913	1284.458	1114.960
-23.794	35.827	1283.277	1113.394
-22.779	35.837	1281.485	1111.856
-21.765	35.924	1280.303	1111.286
-20.750	35.844	1279.395	1109.991
-19.736	35.681	1278.397	1108.143
-18.721	35.621	1276.809	1106.375
-17.706	35.768	1275.191	1105.778
-16.692	35.744	1274.105	1104.654
-15.677	35.742	1272.843	1103.503
-14.663	35.708	1271.952	1102.495
-13.648	35.694	1270.876	1101.436
-12.633	35.779	1269.975	1101.097
-11.619	35.718	1269.227	1100.055
-10.604	35.716	1268.311	1099.204
-9.590	35.733	1267.276	1098.366
-8.575	35.636	1266.400	1097.010
-7.560	35.696	1265.169	1096.240
-6.546	35.603	1265.070	1095.579
-5.531	35.613	1263.714	1094.422
-4.517	35.765	1262.362	1094.069
-3.502	35.737	1261.612	1093.217
-2.487	35.737	1260.868	1092.532
-1.473	35.798	1256.943	1089.429
-0.458	34.351	1241.665	1068.041
0.556	30.863	1224.156	1030.314
1.571	27.078	1229.180	1013.384
2.586	26.102	1244.392	1020.320
3.600	25.358	1233.383	1007.029
4.615	18.515	1158.887	909.932
5.629	7.233	1079.032	791.101
6.644	2.079	1056.791	749.472
7.659	1.667	1054.007	745.418
8.673	1.447	1053.053	743.597
9.688	1.539	1051.557	742.925
10.702	2.035	1050.286	744.381
11.717	8.820	1060.567	784.935
12.731	19.198	1075.494	847.216
13.746	23.854	1080.667	874.169
14.761	24.583	1081.171	878.087
15.775	24.469	1080.804	877.150
16.790	24.406	1079.775	875.926
17.804	24.115	1080.085	874.673
18.819	24.258	1079.408	874.747
19.834	24.439	1078.762	875.035
20.848	24.562	1078.137	875.052
21.863	24.514	1077.416	874.157
22.877	24.469	1076.841	873.390
23.892	24.470	1076.011	872.647
24.907	24.571	1075.208	872.413
25.921	24.542	1073.971	871.189
26.936	24.285	1073.099	869.151
27.950	24.406	1071.406	868.292
28.965	24.332	1069.418	866.246
29.980	24.406	1067.787	865.206
30.994	24.484	1067.352	865.153
32.009	24.479	1066.467	864.337
33.023	24.209	1065.348	862.047
34.038	24.325	1064.617	861.941
35.053	24.464	1064.024	862.057
36.067	24.459	1062.982	861.111
37.082	24.614	1061.939	860.940
38.096	24.759	1061.463	861.172
39.111	24.804	1060.835	860.806
40.126	24.538	1059.642	858.481
41.140	24.270	1057.439	855.337
42.155	23.913	1056.418	852.720
43.169	24.200	1054.984	852.863
44.184	24.243	1053.982	852.185
45.199	24.092	1053.412	850.925
46.213	24.071	1052.054	849.651
47.228	24.184	1052.008	850.078
48.242	24.246	1050.981	849.470
49.257	24.467	1049.778	849.475
50.271	24.513	1049.408	849.321
51.286	24.661	1048.548	849.252
52.301	24.576	1047.478	847.908
53.315	24.497	1046.496	846.661
54.330	24.388	1045.562	845.314
55.344	24.478	1044.757	845.015
56.359	24.410	1044.149	844.126
57.374	24.326	1042.807	842.572
58.388	24.275	1042.233	841.791
59.403	24.188	1041.785	840.946
60.417	24.076	1040.328	839.166
61.432	24.112	1040.417	839.335
62.447	24.279	1039.236	839.093
63.461	24.312	1038.367	838.473
64.476	24.122	1037.312	836.654
65.490	24.040	1037.126	836.046
66.505	24.100	1036.075	835.405
67.520	24.204	1035.243	835.149
68.534	23.919	1033.900	832.654
69.549	23.655	1033.090	830.695
70.563	23.770	1032.122	830.378
71.578	23.738	1031.448	829.612
72.593	23.526	1030.652	827.913
73.607	23.710	1029.937	828.123
74.622	23.967	1029.489	828.885
75.636	24.002	1028.772	828.398
76.651	23.907	1027.998	827.261
77.666	23.745	1027.271	825.849
78.680	23.918	1026.013	825.566
79.695	24.027	1025.686	825.736
80.709	23.936	1025.396	825.006
81.724	24.067	1024.049	824.458
82.739	24.099	1023.403	824.015
83.753	24.519	1023.269	825.773
84.768	24.762	1022.204	825.966
85.782	24.774	1021.275	825.196
86.797	24.675	1020.333	823.905
87.812	24.656	1018.586	822.337
88.826	24.623	1018.405	821.965
89.841	24.765	1017.543	821.847
90.855	24.713	1016.785	820.924
91.870	24.770	1015.588	820.149
92.884	24.489	1014.720	818.089
93.899	24.493	1013.538	817.079
94.914	24.728	1012.713	817.419
95.928	24.505	1011.621	815.446
96.943	24.348	1010.512	813.764
97.957	24.059	1009.662	811.687
98.972	23.962	1007.995	809.833
99.987	24.185	1007.799	810.621
101.001	24.429	1006.787	810.845
102.016	24.346	1006.184	809.907
103.030	24.262	1005.338	808.775
104.045	24.135	1004.327	807.315
105.060	24.054	1003.337	806.079
106.074	24.250	1002.440	806.177
107.089	24.529	1002.097	807.089
108.103	24.354	1000.870	805.242
109.118	24.098	999.701	803.073
110.133	24.190	998.676	802.593
111.147	24.012	997.687	800.926
112.162	23.918	996.642	799.595
113.176	24.144	996.091	800.096
114.191	24.004	995.241	798.714
115.206	23.724	994.042	796.425
116.220	23.784	993.446	796.148
117.235	23.934	992.330	795.855
118.249	23.837	991.522	794.702
119.264	23.743	990.898	793.710
120.279	23.865	989.985	793.453
121.293	23.885	989.432	793.031
122.308	23.911	988.251	792.131
123.322	23.820	987.225	790.834
124.337	23.753	985.797	789.320
125.352	23.099	984.566	785.360
126.366	23.085	983.708	784.548
127.381	23.830	983.507	787.619
128.395	24.393	982.760	789.445
129.410	24.315	982.390	788.732
130.424	24.539	981.061	788.585
131.439	24.342	980.437	787.144
132.454	24.360	979.722	786.580
133.468	24.397	978.158	785.415
134.483	24.490	978.192	785.785
135.497	24.584	977.188	785.320
136.512	24.621	976.700	785.023
137.527	24.773	975.177	784.396
138.541	24.721	975.034	783.983
139.556	24.509	974.212	782.324
140.570	24.705	973.105	782.221
141.585	24.690	972.336	781.470
142.600	24.587	971.231	780.062
143.614	24.924	970.117	780.567
144.629	25.049	969.471	780.526
145.643	24.763	968.421	778.366
146.658	24.543	967.303	776.442
147.673	24.624	965.909	775.605
148.687	24.470	965.244	774.334
149.702	24.294	964.580	772.971
150.716	24.411	962.752	771.945
151.731	24.490	962.865	772.307
152.746	24.666	962.159	772.435
153.760	24.841	961.042	772.225
154.775	24.796	960.913	771.859
155.789	24.689	960.139	770.709
156.804	24.714	958.744	769.626
157.819	24.832	958.370	769.765
158.833	24.881	957.786	769.437
159.848	24.795	956.675	768.108
160.862	24.656	955.486	766.491
161.877	24.887	954.159	766.346
162.892	24.822	953.544	765.509
163.906	24.665	952.338	763.802
164.921	24.754	951.431	763.387
165.935	24.775	950.621	762.757
166.950	24.711	949.899	761.837
167.964	24.700	949.235	761.193
168.979	24.603	948.007	759.728
169.994	24.606	946.993	758.861
171.008	24.783	946.513	759.161
172.023	24.901	945.457	758.745
173.037	24.536	944.635	756.472
174.052	24.515	943.405	755.331
175.067	24.506	943.064	754.952
176.081	24.729	942.210	755.144
177.096	24.628	941.397	754.001
178.110	24.207	940.943	751.797
179.125	23.971	939.996	749.976
180.140	24.117	940.055	750.575
181.154	24.224	939.416	750.447
182.169	24.623	939.428	752.070
183.183	24.886	938.844	752.644
184.198	24.761	937.665	751.104
185.213	24.692	936.727	749.998
186.227	24.797	936.140	749.903
187.242	24.765	935.446	749.144
188.256	24.638	935.233	748.376
189.271	24.920	934.358	748.791
190.286	24.659	932.726	746.325
191.300	23.968	931.723	742.575
192.315	23.090	930.110	737.564
193.329	23.171	929.695	737.507
194.344	24.034	930.623	741.774
195.359	24.612	930.386	743.931
196.373	24.778	929.583	743.910
197.388	24.687	929.175	743.142
198.402	24.660	928.835	742.690
199.417	24.611	928.245	741.952
200.432	24.404	926.808	739.878
201.446	24.147	926.449	738.461
202.461	24.207	925.696	738.045
203.475	23.442	923.652	733.185
204.490	22.643	922.831	729.165
205.504	23.634	922.618	733.028
206.519	24.199	922.708	735.366
207.534	24.201	922.475	735.123
208.548	24.785	921.622	736.786
209.563	24.510	921.010	735.098
210.577	24.547	920.189	734.531
211.592	24.867	920.067	735.687
212.607	24.821	919.138	734.688
213.621	24.974	918.683	734.887
214.636	24.856	918.035	733.820
215.650	24.805	916.810	732.568
216.665	24.906	916.669	732.802
217.680	24.824	915.804	731.712
218.694	24.420	914.516	728.967
219.709	24.352	913.778	728.036
220.723	24.550	913.852	728.841
221.738	24.602	913.128	728.412
222.753	24.661	912.180	727.830
223.767	24.687	912.206	727.892
224.782	24.911	911.919	728.510
225.796	24.919	911.072	727.800
226.811	24.282	909.574	723.956
227.826	23.681	908.132	720.307
228.840	23.933	907.670	720.897
229.855	23.942	907.045	720.374
230.869	23.483	906.042	717.657
231.884	24.003	906.052	719.704
232.899	24.611	905.989	722.048
233.913	24.753	905.090	721.840
234.928	24.640	905.133	721.356
235.942	24.520	904.334	720.171
236.957	24.224	903.324	718.111
237.972	24.301	902.662	717.829
238.986	24.283	902.546	717.602
240.001	24.314	901.562	716.882
241.015	24.429	901.239	717.022
242.030	24.669	900.473	717.311
243.045	24.577	900.424	716.842
244.059	24.807	899.781	717.189
245.074	24.608	898.925	715.644
246.088	24.198	897.936	713.153
247.103	24.613	897.352	714.288
248.117	24.988	897.988	716.229
249.132	25.337	897.280	716.997
250.147	25.532	896.553	717.127
251.161	25.514	896.599	717.030
252.176	25.491	896.045	716.431
253.190	25.593	895.210	716.106
254.205	25.717	894.623	716.068
255.220	25.716	893.910	715.428
256.234	25.413	893.071	713.492
257.249	25.474	892.358	713.101
258.263	25.447	891.917	712.580
259.278	25.544	890.952	712.130
260.293	25.515	890.665	711.723
261.307	25.666	889.547	711.361
262.322	25.285	888.796	709.195
263.336	24.516	886.975	704.644
264.351	23.507	885.100	699.117
265.366	23.705	884.890	699.669
266.380	24.821	885.514	704.496
267.395	24.961	885.483	704.962
268.409	25.152	884.657	704.992
269.424	25.283	884.063	704.973
270.439	25.284	883.593	704.540
271.453	25.448	883.423	704.985
272.468	25.651	882.577	705.042
273.482	25.878	881.999	705.409
274.497	25.234	881.088	702.097
275.512	24.728	880.376	699.489
276.526	25.255	880.369	701.481
277.541	25.537	879.689	701.978
278.555	25.145	879.101	699.919
279.570	25.121	877.813	698.737
280.585	25.257	877.266	698.771
281.599	25.290	876.270	698.042
282.614	24.476	875.359	694.090
283.628	24.503	875.118	693.943
284.643	25.006	874.655	695.471
285.657	24.558	873.466	692.725
286.672	24.313	872.662	691.077
287.687	24.847	873.012	693.363
288.701	24.947	872.812	693.528
289.716	24.465	871.566	690.613
290.730	24.569	870.666	690.239
291.745	24.270	869.575	688.161
292.760	24.641	869.816	689.724
293.774	25.540	870.009	693.281
294.789	25.839	870.044	694.401
295.803	25.912	869.296	694.024
296.818	26.064	868.610	694.002
297.833	25.600	867.169	691.006
298.847	25.358	866.854	689.765
299.862	25.697	866.358	690.612
300.876	25.823	866.465	691.117
301.891	25.898	865.483	690.560
302.906	25.351	864.297	687.458
303.920	25.620	864.099	688.272
304.935	25.924	863.972	689.270
305.949	25.836	863.401	688.416
306.964	25.642	862.444	686.854
307.979	25.564	862.178	686.284
308.993	26.017	862.230	687.992
310.008	26.139	861.420	687.751
311.022	25.673	860.756	685.383
312.037	25.689	859.757	684.589
313.052	25.333	858.993	682.567
314.066	24.468	857.596	678.114
315.081	24.160	856.905	676.338
316.095	25.080	856.857	679.730
317.110	25.401	856.969	680.977
318.125	24.655	855.095	676.602
319.139	23.696	853.738	671.843
320.154	23.628	853.564	671.389
321.168	24.538	853.956	675.080
322.183	25.217	854.335	677.887
323.197	25.602	853.726	678.798
324.212	25.611	853.507	678.597
325.227	25.661	852.986	678.311
326.241	25.615	851.874	677.195
327.256	25.340	851.472	675.778
328.270	25.359	850.554	675.062
329.285	25.256	849.737	673.966
330.300	24.920	849.220	672.238
331.314	25.283	848.821	673.221
332.329	25.523	848.803	674.051
333.343	25.716	848.485	674.459
334.358	25.731	848.111	674.158
335.373	25.771	847.497	673.763
336.387	26.043	847.854	675.003
337.402	26.152	847.793	675.304
338.416	26.212	847.262	675.045
339.431	26.201	846.732	674.521
340.446	26.356	846.022	674.473
341.460	26.171	846.077	673.769
342.475	25.955	845.507	672.449
343.489	26.137	844.746	672.464
344.504	26.524	844.771	673.865
345.519	26.539	844.458	673.611
346.533	26.559	843.919	673.197
347.548	26.549	843.483	672.752
348.562	26.438	842.867	671.789
349.577	26.478	842.139	671.295
350.592	26.454	841.351	670.519
351.606	26.408	840.602	669.693
352.621	26.435	839.880	669.158
353.635	26.345	839.187	668.216
354.650	25.623	837.470	664.123
355.665	24.801	836.030	659.893
356.679	25.143	835.851	660.955
357.694	25.581	835.748	662.427
358.708	25.364	835.428	661.316
359.723	25.928	834.870	662.893
360.738	26.123	834.380	663.160
361.752	26.140	834.352	663.141
362.767	26.688	833.876	664.716
363.781	26.560	833.788	664.118
364.796	26.833	833.259	664.639
365.810	26.897	832.747	664.405
366.825	27.061	832.253	664.553
367.840	26.485	831.772	662.003
368.854	26.156	830.755	659.934
369.869	26.304	830.106	659.898
370.883	26.259	829.712	659.362
371.898	26.176	829.204	658.598
372.913	26.231	829.296	658.815
373.927	26.245	828.643	658.289
374.942	26.390	828.350	658.526
375.956	26.467	828.238	658.659
376.971	26.819	827.036	658.924
377.986	26.922	826.915	659.143
379.000	26.913	826.231	658.507
380.015	26.774	825.522	657.378
381.029	26.762	825.225	657.041
382.044	26.780	824.967	656.842
383.059	26.888	824.039	656.436
384.073	26.894	823.404	655.895
385.088	26.766	823.149	655.171
386.102	26.485	822.406	653.506
387.117	26.582	821.857	653.362
388.132	26.158	820.458	650.666
389.146	25.602	820.001	648.240
390.161	26.111	819.684	649.766
391.175	26.588	819.457	651.245
392.190	26.274	818.199	649.059
393.205	24.888	816.257	642.490
394.219	23.437	814.384	635.761
395.234	23.247	814.543	635.148
396.248	24.897	815.864	642.042
397.263	26.391	816.734	648.029
398.278	26.524	816.131	647.970
399.292	26.070	815.642	645.901
400.307	26.066	815.240	645.510
401.321	26.286	814.648	645.772
402.336	26.712	814.311	646.968
403.350	26.947	814.428	647.844
404.365	27.437	813.957	649.156
405.380	27.483	814.189	649.450
406.394	27.618	813.464	649.297
407.409	27.418	812.819	648.012
408.423	27.526	812.621	648.179
409.438	27.691	811.783	648.042
410.453	27.620	811.572	647.564
411.467	27.459	811.235	646.663
412.482	27.513	810.769	646.426
413.496	27.623	810.705	646.711
414.511	27.597	809.933	645.945
415.526	27.596	809.477	645.519
416.540	27.448	808.808	644.406
417.555	27.090	808.138	642.547
418.569	27.313	807.619	642.868
419.584	27.372	806.913	642.456
420.599	27.038	806.879	641.195
421.613	106.625	1279.767	1437.868
422.628	92.020	1348.656	1437.990
