DTS Sentinel unit serial number:	SN413079Multiplexer serial number:	ORYXHardware model number:	OX4-SRSoftware version number:	ORYX F/W v4.00 Oryx Data Collector v3.7.2.0data status	okinstallation	princeton_trtdifferential loss correction	single-endedforward channel	channel 1reverse channel	N/Adate	2019/09/18time	13:34:35forward acquisition time	60.00reverse acquisition time	0.00gamma	496.2192k internal	0.2312k external	0.2312temperature offset calibration	0.9986default loss term (dB/km)	0.3790temperature slope calibration	1.0000multiplexer offset coefficient	1.0000multiplexer slope coefficient	1.0000fibre end	0.00T internal ref (°C)	34.31T ext. ref 1 (°C)	0.62T ext. ref 2 (°C)	30.45length (m)	temperature (°C)	Stokes	anti-Stokes-747.200	59.768	0.125	0.125
-746.185	-181.890	0.039	-0.001
-745.171	-24.998	0.267	0.160
-744.156	-200.000	0.047	0.266
-743.142	-200.000	-0.072	-0.499
-742.127	-84.012	-0.237	-0.076
-741.112	-65.188	0.083	-0.034
-740.098	-31.437	-0.307	0.175
-739.083	12.562	-0.112	0.088
-738.069	369.014	-0.137	0.282
-737.054	-200.000	-0.002	-0.240
-736.039	-74.439	-0.117	-0.043
-735.025	227.776	0.138	0.228
-734.010	30.105	-0.047	0.040
-732.996	-200.000	-0.029	-0.360
-731.981	-200.000	0.026	-0.260
-730.966	-17.485	0.153	0.098
-729.952	-20.158	-0.088	0.055
-728.937	28.866	0.103	0.089
-727.923	102.039	-0.128	0.152
-726.908	800.000	0.047	-0.174
-725.894	334.977	-0.098	-0.192
-724.879	-105.341	-0.103	-0.024
-723.864	146.475	-0.081	-0.111
-722.850	-200.000	0.013	0.135
-721.835	-200.000	0.006	0.128
-720.821	-82.024	0.239	0.079
-719.806	143.921	0.155	0.209
-718.791	274.592	0.063	-0.113
-717.777	-109.009	-0.167	0.036
-716.762	76.486	0.250	-0.269
-715.748	10.147	-0.128	-0.099
-714.733	313.015	0.193	-0.367
-713.718	800.000	-0.066	-0.271
-712.704	205.718	0.103	-0.162
-711.689	36.392	-0.120	-0.107
-710.675	-200.000	-0.010	-0.254
-709.660	176.464	-0.058	-0.086
-708.645	397.989	0.070	0.148
-707.631	153.413	0.043	0.060
-706.616	-119.196	0.224	-0.040
-705.602	-120.093	-0.051	0.009
-704.587	-48.816	0.160	-0.078
-703.572	-151.646	0.063	0.005
-702.558	79.392	-0.247	-0.269
-701.543	-45.148	0.254	0.128
-700.529	13.023	-0.121	0.095
-699.514	-200.000	-0.014	-0.318
-698.499	5.383	-0.218	-0.163
-697.485	-98.720	-0.145	0.037
-696.470	698.343	-0.009	-0.023
-695.456	800.000	0.066	-0.203
-694.441	-45.683	-0.206	0.103
-693.426	-200.000	-0.014	-0.155
-692.412	119.918	-0.138	0.173
-691.397	194.531	-0.026	-0.040
-690.383	220.374	-0.091	-0.148
-689.368	-200.000	0.060	-0.278
-688.354	-120.079	0.172	0.030
-687.339	-200.000	0.002	-0.204
-686.324	222.524	0.209	-0.340
-685.310	-200.000	0.007	0.108
-684.295	-200.000	-0.076	-0.449
-683.281	-61.612	-0.070	0.030
-682.266	-150.155	-0.173	-0.014
-681.251	-50.716	0.184	-0.088
-680.237	-200.000	0.005	0.116
-679.222	181.491	0.009	0.014
-678.208	146.535	-0.010	-0.014
-677.193	-143.027	-0.294	0.029
-676.178	-68.604	0.074	-0.029
-675.164	-26.114	0.453	-0.269
-674.149	-113.318	-0.183	-0.036
-673.135	360.864	0.035	0.072
-672.120	23.011	0.212	0.176
-671.105	-200.000	-0.004	0.084
-670.091	-200.000	0.042	-0.247
-669.076	-26.057	-0.155	0.092
-668.062	-171.483	-0.091	0.003
-667.047	-141.599	0.365	0.037
-666.032	272.538	-0.071	-0.127
-665.018	-146.843	0.271	0.024
-664.003	76.995	-0.299	-0.322
-662.989	-52.688	0.076	0.035
-661.974	-24.066	0.214	0.129
-660.959	-168.257	-0.038	0.001
-659.945	471.520	-0.075	0.172
-658.930	29.394	0.256	0.220
-657.916	533.248	0.138	-0.331
-656.901	-7.078	0.058	-0.040
-655.886	55.948	0.207	0.203
-654.872	-200.000	-0.049	0.469
-653.857	-200.000	0.028	0.583
-652.843	271.546	0.243	0.434
-651.828	-132.991	0.405	-0.052
-650.814	184.673	0.048	-0.072
-649.799	-144.531	-0.125	0.012
-648.784	0.733	0.022	0.016
-647.770	-200.000	0.015	0.147
-646.755	60.418	0.106	-0.106
-645.741	800.000	-0.049	-0.140
-644.726	-127.824	0.125	0.018
-643.711	-5.394	0.185	0.128
-642.697	-83.267	0.307	-0.099
-641.682	90.507	0.217	0.246
-640.668	158.125	-0.096	0.135
-639.653	-200.000	0.014	-0.195
-638.638	-9.126	0.154	-0.104
-637.624	-65.175	-0.077	-0.031
-636.609	-84.218	-0.168	0.054
-635.595	117.374	0.035	-0.044
-634.580	69.020	-0.284	-0.294
-633.565	-139.277	-0.159	0.017
-632.551	-200.000	0.013	-0.179
-631.536	800.000	0.034	0.106
-630.522	-101.369	-0.129	-0.032
-629.507	-200.000	0.034	0.268
-628.492	255.021	-0.104	0.180
-627.478	398.439	0.137	0.290
-626.463	-131.559	-0.251	-0.033
-625.449	-48.077	0.100	0.049
-624.434	182.812	0.031	-0.046
-623.419	-45.942	-0.401	-0.200
-622.405	-138.219	-0.301	0.034
-621.390	19.597	-0.093	-0.075
-620.376	110.381	0.245	0.297
-619.361	313.443	0.117	0.222
-618.346	-116.394	-0.102	0.019
-617.332	-107.560	-0.121	-0.027
-616.317	-200.000	-0.088	0.438
-615.303	255.279	0.117	0.202
-614.288	147.643	-0.263	0.358
-613.273	21.618	0.159	-0.131
-612.259	-101.130	0.144	0.035
-611.244	-146.359	0.179	0.016
-610.230	-56.372	-0.116	-0.052
-609.215	-168.234	0.287	-0.011
-608.201	-200.000	0.004	-0.028
-607.186	723.954	-0.095	0.255
-606.171	-129.121	-0.193	-0.027
-605.157	588.777	-0.037	-0.093
-604.142	58.698	-0.174	0.172
-603.128	-200.000	0.006	0.111
-602.113	87.763	-0.142	0.159
-601.098	214.053	0.096	0.153
-600.084	88.351	0.210	-0.235
-599.069	-51.586	0.112	-0.053
-598.055	-200.000	-0.027	-0.220
-597.040	-57.762	0.095	0.042
-596.025	-3.748	-0.151	-0.106
-595.011	43.056	-0.112	0.103
-593.996	237.515	0.110	0.183
-592.982	-51.702	0.147	0.069
-591.967	-68.405	0.306	0.120
-590.952	-115.849	0.121	-0.023
-589.938	800.000	0.058	-0.165
-588.923	-111.639	0.187	-0.038
-587.909	8.665	-0.034	0.026
-586.894	-86.645	0.111	-0.034
-585.879	-5.251	-0.088	0.061
-584.865	61.203	-0.070	0.070
-583.850	-55.069	-0.213	-0.097
-582.836	-42.031	-0.172	0.089
-581.821	456.568	0.191	0.428
-580.806	180.815	-0.151	-0.223
-579.792	142.183	-0.153	0.205
-578.777	-124.438	-0.380	-0.060
-577.763	-173.858	-0.200	-0.006
-576.748	47.938	-0.128	-0.121
-575.733	800.000	0.123	-0.387
-574.719	-115.864	-0.331	-0.062
-573.704	353.180	0.182	-0.365
-572.690	-200.000	0.007	-0.187
-571.675	-25.904	-0.237	-0.140
-570.661	800.000	0.047	-0.195
-569.646	183.324	0.194	-0.289
-568.631	800.000	-0.054	-0.211
-567.617	134.555	-0.100	-0.131
-566.602	38.769	0.229	-0.206
-565.588	-200.000	-0.008	0.186
-564.573	535.984	0.071	0.171
-563.558	105.666	0.084	0.100
-562.544	331.463	-0.088	-0.172
-561.529	683.812	-0.155	-0.407
-560.515	-8.293	-0.115	0.078
-559.500	800.000	-0.017	-0.059
-558.485	800.000	-0.088	-0.251
-557.471	338.992	-0.081	0.158
-556.456	-137.549	0.348	-0.040
-555.442	-200.000	-0.048	0.335
-554.427	-150.390	0.246	-0.019
-553.412	-98.244	0.107	-0.028
-552.398	222.488	0.122	-0.198
-551.383	-52.364	0.528	-0.246
-550.369	-91.506	-0.085	0.024
-549.354	800.000	-0.029	0.095
-548.339	-200.000	-0.009	0.101
-547.325	-9.535	0.079	-0.053
-546.310	-200.000	0.419	0.001
-545.296	90.059	-0.204	0.229
-544.281	179.206	-0.088	-0.130
-543.266	-65.164	0.203	-0.082
-542.252	138.714	0.081	0.107
-541.237	94.809	0.240	0.274
-540.223	-46.450	-0.200	-0.099
-539.208	434.308	0.042	0.093
-538.193	-26.940	0.229	0.135
-537.179	-200.000	0.046	-0.302
-536.164	-200.000	-0.069	-0.338
-535.150	-67.039	0.298	-0.118
-534.135	-91.515	-0.133	0.038
-533.121	37.353	0.100	-0.089
-532.106	-198.677	0.118	-0.001
-531.091	41.354	-0.177	0.161
-530.077	153.846	0.269	-0.371
-529.062	7.126	0.093	0.070
-528.048	43.086	0.128	0.117
-527.033	800.000	0.021	0.065
-526.018	-156.743	0.207	-0.013
-525.004	177.267	0.045	0.066
-523.989	-0.634	0.095	0.068
-522.975	176.295	0.039	0.057
-521.960	31.021	-0.082	0.071
-520.945	-56.486	-0.163	-0.073
-519.931	83.528	-0.305	0.334
-518.916	-14.574	0.141	-0.091
-517.902	51.316	-0.040	-0.039
-516.887	-60.212	-0.193	-0.083
-515.872	-113.541	0.286	0.056
-514.858	437.967	-0.050	0.110
-513.843	115.299	-0.103	-0.127
-512.829	166.399	-0.110	0.157
-511.814	-200.000	0.013	0.146
-510.799	-47.614	-0.307	0.150
-509.785	322.847	-0.122	-0.233
-508.770	-39.985	-0.249	-0.131
-507.756	-112.559	-0.399	0.080
-506.741	407.348	0.244	0.519
-505.726	-59.962	0.254	-0.109
-504.712	54.929	0.195	0.190
-503.697	-31.020	0.550	0.312
-502.683	206.342	-0.109	0.171
-501.668	7.650	0.071	-0.054
-500.653	-131.984	0.180	-0.024
-499.639	389.433	0.144	-0.301
-498.624	800.000	-0.076	-0.306
-497.610	-88.973	0.378	-0.112
-496.595	-200.000	0.066	0.302
-495.581	-68.199	-0.361	0.141
-494.566	800.000	-0.060	0.233
-493.551	-55.510	-0.168	0.076
-492.537	-200.000	0.004	-0.083
-491.522	78.852	0.149	-0.160
-490.508	14.460	-0.090	-0.071
-489.493	-200.000	-0.014	0.116
-488.478	-200.000	-0.003	0.189
-487.464	87.214	-0.198	-0.220
-486.449	-93.305	0.140	-0.039
-485.435	170.592	-0.122	-0.176
-484.420	-1.489	0.069	0.049
-483.405	-200.000	0.028	0.199
-482.391	800.000	-0.064	0.273
-481.376	293.795	-0.191	0.351
-480.362	92.702	0.077	-0.087
-479.347	-200.000	-0.004	-0.097
-478.332	561.939	0.076	-0.186
-477.318	309.395	0.128	0.240
-476.303	-100.998	-0.242	-0.060
-475.289	-103.762	0.246	-0.058
-474.274	-200.000	0.007	-0.169
-473.259	25.252	-0.216	0.180
-472.245	265.803	-0.040	0.070
-471.230	-122.576	0.362	-0.059
-470.216	491.134	0.054	-0.124
-469.201	-68.220	0.116	-0.045
-468.186	-81.123	-0.223	0.074
-467.172	-57.833	-0.473	0.208
-466.157	204.534	0.065	-0.101
-465.143	-51.822	-0.350	-0.164
-464.128	-30.700	-0.246	-0.140
-463.113	800.000	0.029	0.102
-462.099	86.794	-0.056	-0.062
-461.084	628.127	-0.076	0.193
-460.070	24.590	0.231	-0.192
-459.055	274.244	0.117	0.208
-458.040	112.580	0.189	-0.230
-457.026	338.200	0.106	-0.206
-456.011	-6.328	-0.219	-0.150
-454.997	314.509	0.190	0.360
-453.982	179.717	0.252	-0.371
-452.968	88.035	0.138	-0.153
-451.953	471.399	0.052	-0.117
-450.938	-56.614	0.192	0.085
-449.924	-136.312	-0.245	0.029
-448.909	800.000	-0.045	-0.183
-447.895	28.417	-0.041	0.035
-446.880	-42.614	-0.107	0.055
-445.865	-200.000	-0.027	-0.205
-444.851	-200.000	-0.004	-0.256
-443.836	-65.757	0.194	0.078
-442.822	-153.205	0.297	-0.021
-441.807	239.243	-0.122	0.203
-440.792	-77.116	0.123	0.043
-439.778	61.396	-0.245	0.244
-438.763	73.463	-0.299	-0.314
-437.749	-200.000	0.064	-0.364
-436.734	216.152	-0.060	-0.096
-435.719	-112.818	0.401	-0.080
-434.705	22.085	-0.194	0.159
-433.690	248.205	-0.031	-0.052
-432.676	137.762	0.143	-0.188
-431.661	454.502	-0.159	-0.352
-430.646	-84.076	0.387	0.123
-429.632	-200.000	0.027	0.300
-428.617	-200.000	0.025	0.241
-427.603	800.000	-0.057	0.197
-426.588	6.906	0.187	0.139
-425.573	-34.517	-0.081	0.045
-424.559	800.000	-0.036	0.132
-423.544	204.066	0.235	-0.365
-422.530	41.927	-0.079	-0.071
-421.515	384.088	0.170	-0.352
-420.500	170.766	0.228	0.328
-419.486	-45.556	-0.189	-0.094
-418.471	-200.000	-0.005	-0.204
-417.457	40.256	0.213	-0.192
-416.442	-143.351	-0.200	0.019
-415.428	-159.382	0.268	-0.015
-414.413	-200.000	-0.044	0.292
-413.398	107.230	-0.224	0.267
-412.384	641.835	-0.041	-0.104
-411.369	72.740	-0.314	0.328
-410.355	-148.345	0.091	-0.007
-409.340	121.748	-0.056	0.070
-408.325	423.980	-0.179	-0.386
-407.311	800.000	0.043	-0.156
-406.296	-200.000	0.068	0.382
-405.282	465.724	0.039	0.087
-404.267	494.221	-0.096	-0.221
-403.252	361.305	-0.187	0.376
-402.238	-164.143	0.204	0.009
-401.223	-47.266	0.167	0.081
-400.209	151.061	-0.282	0.384
-399.194	312.590	-0.128	0.241
-398.179	353.660	0.046	-0.092
-397.165	-109.428	-0.138	-0.029
-396.150	119.068	-0.065	-0.081
-395.136	380.909	-0.212	-0.436
-394.121	800.000	-0.074	-0.304
-393.106	339.910	-0.060	0.118
-392.092	43.364	0.193	0.177
-391.077	-200.000	0.065	0.483
-390.063	17.612	0.107	-0.085
-389.048	-200.000	0.032	0.237
-388.033	194.717	-0.069	-0.104
-387.019	71.112	-0.075	-0.078
-386.004	-102.732	-0.153	-0.036
-384.990	308.003	0.166	0.310
-383.975	-26.372	-0.140	0.082
-382.960	338.074	-0.146	0.283
-381.946	-200.000	0.001	0.312
-380.931	-55.711	0.221	-0.099
-379.917	-184.351	0.421	0.007
-378.902	163.008	0.081	0.114
-377.888	358.252	0.048	0.096
-376.873	-20.114	-0.262	-0.162
-375.858	-74.410	0.112	0.040
-374.844	-200.000	-0.016	0.158
-373.829	238.424	0.014	0.023
-372.815	-125.957	0.191	-0.029
-371.800	378.960	-0.132	0.271
-370.785	-34.405	-0.061	0.033
-369.771	361.663	-0.119	-0.239
-368.756	-200.000	-0.034	-0.190
-367.742	298.838	0.223	-0.411
-366.727	-94.339	-0.153	0.042
-365.712	-32.609	0.098	0.055
-364.698	251.793	0.070	0.119
-363.683	-164.655	-0.439	0.020
-362.669	-200.000	0.002	0.021
-361.654	-82.322	-0.353	0.115
-360.639	-14.370	-0.139	0.090
-359.625	-32.358	0.149	0.083
-358.610	-29.795	0.251	0.143
-357.596	-62.395	0.085	-0.035
-356.581	800.000	-0.042	-0.139
-355.566	138.686	-0.157	-0.206
-354.552	-59.879	-0.281	0.120
-353.537	221.647	-0.129	-0.208
-352.523	-200.000	-0.048	0.311
-351.508	31.395	-0.163	-0.140
-350.493	272.251	-0.086	0.152
-349.479	-200.000	0.029	0.350
-348.464	152.825	0.114	-0.156
-347.450	195.862	0.131	0.199
-346.435	-31.329	-0.053	0.030
-345.420	-169.770	0.196	-0.007
-344.406	8.079	-0.115	0.086
-343.391	-153.681	-0.107	-0.007
-342.377	186.383	-0.074	-0.110
-341.362	64.664	-0.015	-0.015
-340.348	28.691	0.042	0.036
-339.333	195.898	0.102	-0.155
-338.318	95.618	0.223	-0.254
-337.304	672.829	0.066	-0.172
-336.289	-173.272	0.127	-0.004
-335.275	-71.578	0.117	-0.044
-334.260	558.171	0.058	0.140
-333.245	-38.857	-0.114	0.060
-332.231	598.925	0.058	-0.144
-331.216	-94.720	-0.055	0.015
-330.202	-154.866	-0.167	-0.011
-329.187	-70.266	0.246	0.093
-328.172	-79.378	0.054	0.018
-327.158	102.434	-0.138	0.161
-326.143	-200.000	0.019	-0.165
-325.129	-200.000	-0.039	0.236
-324.114	153.431	-0.067	0.091
-323.099	-200.000	-0.065	0.444
-322.085	-135.111	-0.262	0.031
-321.070	70.588	-0.072	-0.075
-320.056	-52.483	-0.334	0.154
-319.041	-200.000	-0.000	0.073
-318.026	-25.085	-0.151	-0.089
-317.012	-35.578	-0.126	-0.068
-315.997	98.247	-0.159	-0.183
-314.983	-13.492	-0.398	0.258
-313.968	-200.000	-0.321	-0.001
-312.953	518.804	0.144	0.335
-311.939	320.502	0.089	-0.170
-310.924	-73.121	0.373	0.136
-309.910	-84.898	-0.157	-0.049
-308.895	428.422	0.109	-0.234
-307.880	372.692	-0.218	-0.442
-306.866	-54.478	-0.195	0.088
-305.851	86.168	0.002	0.002
-304.837	135.917	0.113	0.147
-303.822	-121.852	-0.111	0.018
-302.807	-1.279	0.246	-0.173
-301.793	130.986	0.058	-0.074
-300.778	91.572	-0.049	-0.055
-299.764	89.047	-0.252	0.279
-298.749	800.000	0.036	-0.099
-297.735	-43.930	-0.348	0.175
-296.720	-93.643	-0.126	-0.035
-295.705	372.821	0.037	-0.076
-294.691	-7.607	-0.180	0.121
-293.676	-92.573	0.234	0.065
-292.662	79.723	0.290	0.310
-291.647	-150.541	-0.309	0.024
-290.632	-150.698	-0.277	-0.021
-289.618	27.231	0.395	-0.331
-288.603	-35.154	-0.153	-0.083
-287.589	800.000	-0.099	0.281
-286.574	-82.509	-0.066	-0.021
-285.559	-116.338	0.235	-0.043
-284.545	-43.329	-0.190	-0.096
-283.530	-69.220	0.157	-0.060
-282.516	-7.901	-0.026	0.017
-281.501	99.979	0.102	0.118
-280.486	-200.000	-0.089	-0.410
-279.472	552.311	0.062	-0.149
-278.457	25.175	-0.142	-0.118
-277.443	-68.172	0.195	0.076
-276.428	-83.223	-0.087	0.028
-275.413	-132.728	0.141	0.018
-274.399	-92.735	-0.256	-0.071
-273.384	-44.161	0.225	-0.113
-272.370	783.362	0.067	-0.182
-271.355	-140.411	0.167	0.017
-270.340	-37.539	-0.341	0.181
-269.326	-101.786	0.115	-0.028
-268.311	192.935	0.067	-0.100
-267.297	-5.018	0.143	-0.098
-266.282	-200.000	0.055	-0.498
-265.267	-0.072	0.097	0.069
-264.253	-178.469	0.189	-0.004
-263.238	151.786	0.149	0.203
-262.224	42.693	0.112	0.102
-261.209	441.119	0.082	-0.179
-260.195	-200.000	0.013	0.221
-259.180	3.798	-0.225	0.163
-258.165	-50.066	-0.272	-0.128
-257.151	-200.000	-0.021	0.146
-256.136	-10.886	-0.098	0.064
-255.122	-120.532	0.435	-0.074
-254.107	-200.000	-0.016	-0.148
-253.092	67.114	-0.109	0.111
-252.078	-72.008	-0.351	0.130
-251.063	143.697	-0.127	-0.169
-250.049	19.722	-0.246	-0.197
-249.034	100.052	0.134	0.155
-248.019	-200.000	0.076	-0.444
-247.005	44.288	0.150	0.137
-245.990	214.303	-0.176	0.278
-244.976	-200.000	0.062	0.276
-243.961	16.099	0.354	0.278
-242.946	326.191	0.043	0.082
-241.932	-200.000	-0.009	-0.118
-240.917	-200.000	0.005	0.032
-239.903	800.000	0.165	0.515
-238.888	-200.000	0.026	-0.222
-237.873	-200.000	-0.020	-0.092
-236.859	156.378	-0.164	-0.225
-235.844	-10.710	-0.084	0.055
-234.830	-21.134	0.143	0.087
-233.815	-55.058	0.222	0.100
-232.800	-88.350	0.430	-0.128
-231.786	243.039	0.065	0.109
-230.771	-15.702	-0.151	0.096
-229.757	-12.860	-0.083	0.054
-228.742	104.408	0.086	-0.100
-227.727	62.691	0.197	0.196
-226.713	-200.000	0.042	-0.492
-225.698	14.544	0.082	-0.064
-224.684	-15.117	-0.348	0.221
-223.669	133.272	0.221	0.283
-222.655	120.647	0.067	-0.083
-221.640	-22.305	-0.157	-0.095
-220.625	-135.590	-0.074	-0.009
-219.611	667.753	-0.028	-0.071
-218.596	-138.509	0.325	0.035
-217.582	-200.000	-0.033	0.215
-216.567	20.851	-0.109	-0.088
-215.552	-200.000	-0.040	-0.235
-214.538	209.858	0.093	0.145
-213.523	-200.000	-0.065	0.377
-212.509	35.307	-0.348	0.303
-211.494	-112.417	-0.252	-0.050
-210.479	555.821	0.125	0.298
-209.465	588.863	-0.099	-0.242
-208.450	-108.930	-0.195	0.041
-207.436	-200.000	-0.029	-0.248
-206.421	-82.416	-0.173	-0.056
-205.406	-63.674	-0.229	-0.093
-204.392	505.140	-0.064	-0.148
-203.377	12.499	-0.204	-0.156
-202.363	51.678	-0.381	-0.360
-201.348	60.118	-0.092	0.091
-200.333	144.454	-0.110	-0.147
-199.319	108.368	-0.107	-0.127
-198.304	-200.000	0.014	0.275
-197.290	18.690	0.160	-0.127
-196.275	176.020	0.199	-0.288
-195.260	-147.052	-0.598	-0.051
-194.246	-40.621	0.253	0.130
-193.231	606.014	-0.089	0.220
-192.217	-76.818	0.338	-0.118
-191.202	454.418	-0.062	0.136
-190.187	288.965	0.114	-0.206
-189.173	-16.632	-0.098	-0.061
-188.158	-82.329	0.400	0.129
-187.144	240.336	-0.061	-0.100
-186.129	327.129	-0.109	-0.208
-185.114	-200.000	0.002	-0.239
-184.100	-74.979	0.077	-0.027
-183.085	-109.405	-0.253	-0.053
-182.071	-64.066	0.183	-0.074
-181.056	188.933	-0.023	0.033
-180.042	-200.000	-0.046	-0.384
-179.027	-123.124	0.272	-0.043
-178.012	-68.235	-0.164	0.063
-176.998	-23.314	0.196	-0.117
-175.983	800.000	-0.048	-0.155
-174.969	-68.000	0.110	0.043
-173.954	-200.000	0.035	-0.183
-172.939	-200.000	-0.005	0.160
-171.925	-21.392	-0.088	0.053
-170.910	222.329	0.078	-0.124
-169.896	4.456	0.224	0.163
-168.881	5.023	0.189	0.138
-167.866	-92.017	0.100	0.028
-166.852	-71.359	0.138	-0.051
-165.837	668.246	0.082	-0.211
-164.823	95.054	0.160	-0.181
-163.808	6.015	-0.202	0.148
-162.793	-49.650	0.027	0.013
-161.779	-26.168	-0.202	-0.118
-160.764	-200.000	0.013	-0.094
-159.750	749.693	0.098	-0.263
-158.735	663.839	-0.160	-0.409
-157.720	-200.000	-0.013	0.381
-156.706	-77.038	0.091	0.032
-155.691	794.027	-0.061	-0.165
-154.677	-65.492	0.251	-0.100
-153.662	-90.223	0.231	0.066
-152.647	-200.000	0.027	-0.274
-151.633	10.572	0.128	0.097
-150.618	-147.310	0.428	0.036
-149.604	216.263	-0.085	0.134
-148.589	211.005	-0.196	-0.306
-147.574	-200.000	-0.010	0.238
-146.560	69.863	-0.153	0.156
-145.545	544.445	0.027	0.065
-144.531	-200.000	0.028	-0.196
-143.516	800.000	-0.043	-0.156
-142.502	101.444	-0.129	-0.149
-141.487	561.821	-0.031	-0.074
-140.472	-27.244	-0.023	-0.013
-139.458	37.017	0.039	-0.034
-138.443	199.025	0.201	0.305
-137.429	800.000	0.107	-0.444
-136.414	-200.000	-0.031	0.229
-135.399	-158.042	-0.280	0.016
-134.385	-73.488	0.193	0.070
-133.370	-43.459	0.197	0.099
-132.356	-162.552	0.409	-0.020
-131.341	800.000	0.025	0.099
-130.326	-137.176	0.226	-0.025
-129.312	-102.171	0.212	0.051
-128.297	-22.774	0.215	0.128
-127.283	17.408	0.099	-0.078
-126.268	-38.783	-0.101	0.053
-125.253	-10.439	-0.187	-0.123
-124.239	800.000	-0.054	-0.169
-123.224	38.716	-0.208	-0.184
-122.210	800.000	-0.081	-0.222
-121.195	0.008	0.069	-0.049
-120.180	-200.000	0.040	0.175
-119.166	481.088	-0.107	-0.240
-118.151	293.691	0.087	-0.158
-117.137	-148.778	-0.270	-0.022
-116.122	-200.000	-0.015	0.355
-115.107	120.505	0.207	-0.255
-114.093	479.281	-0.146	0.328
-113.078	194.223	-0.035	0.053
-112.064	10.488	-0.199	0.150
-111.049	94.596	0.227	-0.256
-110.034	-59.593	-0.112	0.048
-109.020	72.473	0.215	0.222
-108.005	-158.805	0.067	0.004
-106.991	-57.098	0.143	0.062
-105.976	4.161	0.224	0.162
-104.962	-200.000	0.039	-0.233
-103.947	34.486	-0.249	0.215
-102.932	121.801	-0.204	-0.252
-101.918	-200.000	-0.002	-0.231
-100.903	595.177	0.099	-0.243
-99.889	-200.000	-0.016	0.138
-98.874	-200.000	0.023	0.442
-97.859	-104.469	0.339	0.078
-96.845	18.286	-0.163	-0.129
-95.830	-14.946	0.408	0.259
-94.816	-19.025	0.298	0.183
-93.801	-136.557	0.277	0.032
-92.786	295.767	0.217	-0.393
-91.772	-58.940	-0.188	0.080
-90.757	701.276	0.027	-0.071
-89.743	222.931	-0.046	-0.073
-88.728	45.615	-0.205	-0.187
-87.713	-200.000	-0.008	-0.370
-86.699	-63.921	0.212	-0.086
-85.684	800.000	-0.075	0.288
-84.670	-124.485	0.175	0.027
-83.655	-200.000	0.017	-0.306
-82.640	51.035	0.083	0.077
-81.626	-200.000	0.023	-0.259
-80.611	-91.649	0.259	-0.073
-79.597	14.393	-0.201	-0.155
-78.582	-102.121	0.350	0.083
-77.567	9.433	0.211	0.158
-76.553	475.145	0.175	-0.390
-75.538	-200.000	-0.008	-0.290
-74.524	-29.996	0.193	0.109
-73.509	-140.964	0.326	-0.033
-72.494	-56.564	-0.379	-0.166
-71.480	94.757	0.051	0.057
-70.465	-200.000	-0.040	0.271
-69.451	-200.000	-0.001	-0.204
-68.436	-200.000	0.003	-0.013
-67.422	-200.000	-0.038	0.185
-66.407	-52.150	0.386	0.177
-65.392	141.490	0.111	-0.145
-64.378	84.636	0.055	0.059
-63.363	800.000	0.134	0.403
-62.349	225.829	-0.156	0.250
-61.334	94.849	-0.836	-0.940
-60.319	29.554	0.403	0.339
-59.305	481.406	-0.471	-1.055
-58.290	212.997	0.627	0.978
-57.276	-200.000	0.239	1.651
-56.261	-200.000	96.025	546.209
-55.246	499.445	1423.538	3240.831
-54.232	144.626	2647.755	3493.381
-53.217	110.478	2224.911	2640.871
-52.203	45.861	1663.844	1519.646
-51.188	37.738	1394.399	1222.786
-50.173	34.345	1352.054	1164.903
-49.159	54.886	1400.195	1334.605
-48.144	58.222	1417.783	1372.055
-47.130	38.072	1372.682	1205.610
-46.115	34.478	1355.093	1168.150
-45.100	34.261	1350.423	1162.754
-44.086	34.165	1348.346	1160.337
-43.071	34.125	1346.204	1158.203
-42.057	34.117	1343.641	1155.903
-41.042	34.228	1342.001	1155.121
-40.027	34.275	1340.626	1154.175
-39.013	34.211	1338.574	1151.977
-37.998	34.161	1336.667	1149.988
-36.984	34.259	1334.965	1149.068
-35.969	34.312	1333.165	1147.793
-34.954	34.361	1331.384	1146.510
-33.940	34.283	1330.365	1145.119
-32.925	34.431	1328.763	1144.579
-31.911	34.454	1327.466	1143.555
-30.896	34.426	1325.577	1141.717
-29.881	34.441	1324.398	1140.747
-28.867	34.451	1323.395	1139.896
-27.852	34.519	1321.791	1138.873
-26.838	34.532	1319.709	1137.111
-25.823	34.369	1319.147	1135.615
-24.809	34.387	1317.218	1134.017
-23.794	34.484	1315.368	1132.951
-22.779	34.407	1314.761	1131.925
-21.765	34.434	1313.252	1130.746
-20.750	34.324	1312.123	1129.076
-19.736	34.240	1310.845	1127.436
-18.721	34.253	1309.556	1126.354
-17.706	34.150	1308.529	1124.819
-16.692	34.264	1306.868	1124.018
-15.677	34.249	1305.887	1123.042
-14.663	34.295	1304.398	1121.990
-13.648	34.316	1303.488	1121.285
-12.633	34.329	1302.216	1120.223
-11.619	34.267	1301.881	1119.526
-10.604	34.237	1301.206	1118.727
-9.590	34.234	1300.406	1117.976
-8.575	34.265	1298.687	1116.632
-7.560	34.155	1298.014	1115.370
-6.546	34.166	1297.174	1114.666
-5.531	34.185	1296.616	1114.255
-4.517	34.290	1295.241	1113.639
-3.502	34.387	1293.953	1113.055
-2.487	34.310	1293.288	1111.992
-1.473	34.251	1289.490	1108.337
-0.458	33.001	1275.098	1088.727
0.556	28.054	1256.766	1047.960
1.571	23.779	1261.814	1027.417
2.586	22.382	1276.466	1031.080
3.600	21.213	1265.258	1015.142
4.615	15.722	1188.572	923.462
5.629	5.885	1108.107	810.284
6.644	0.943	1086.342	769.234
7.659	0.687	1083.586	765.916
8.673	0.393	1082.492	763.586
9.688	0.478	1081.458	763.220
10.702	0.812	1079.693	763.592
11.717	6.223	1087.088	796.203
12.731	14.824	1098.864	848.603
13.746	17.998	1101.195	866.450
14.761	17.237	1100.129	861.675
15.775	16.481	1098.308	856.349
16.790	15.522	1095.776	849.448
17.804	14.821	1094.644	844.953
18.819	14.337	1093.452	841.514
19.834	14.113	1092.603	839.653
20.848	13.805	1091.450	837.138
21.863	13.612	1090.320	835.225
22.877	13.500	1089.921	834.281
23.892	13.438	1089.123	833.286
24.907	13.398	1088.093	832.226
25.921	13.438	1087.384	831.811
26.936	13.448	1086.958	831.460
27.950	13.458	1085.871	830.604
28.965	13.443	1084.771	829.612
29.980	13.642	1083.032	829.205
30.994	13.602	1082.137	828.247
32.009	13.637	1080.901	827.402
33.023	13.539	1080.288	826.373
34.038	13.567	1079.319	825.699
35.053	13.664	1078.022	825.115
36.067	13.584	1077.584	824.306
37.082	13.544	1076.507	823.214
38.096	13.582	1075.992	822.935
39.111	13.494	1075.456	822.017
40.126	13.538	1073.775	820.876
41.140	13.443	1072.822	819.604
42.155	13.411	1071.503	818.365
43.169	13.395	1070.682	817.587
44.184	13.354	1069.068	816.082
45.199	13.412	1068.315	815.718
46.213	13.556	1066.985	815.343
47.228	13.511	1066.466	814.650
48.242	13.455	1065.036	813.213
49.257	13.439	1063.837	812.142
50.271	13.608	1062.911	812.195
51.286	13.614	1062.026	811.475
52.301	13.581	1061.205	810.615
53.315	13.534	1060.173	809.523
54.330	13.430	1059.276	808.260
55.344	13.359	1058.270	807.074
56.359	13.378	1057.484	806.500
57.374	13.362	1056.618	805.686
58.388	13.378	1055.300	804.690
59.403	13.258	1055.190	803.952
60.417	13.284	1054.056	803.140
61.432	13.309	1053.584	802.832
62.447	13.281	1052.279	801.630
63.461	13.385	1051.629	801.568
64.476	13.415	1050.412	800.714
65.490	13.308	1049.731	799.609
66.505	13.328	1049.086	799.144
67.520	13.500	1048.193	799.223
68.534	13.375	1047.851	798.286
69.549	13.317	1047.233	797.465
70.563	13.465	1045.886	797.082
71.578	13.338	1045.500	796.107
72.593	13.450	1043.909	795.364
73.607	13.367	1044.186	795.106
74.622	13.324	1043.416	794.242
75.636	13.337	1042.736	793.716
76.651	13.191	1042.088	792.451
77.666	13.175	1041.841	792.120
78.680	13.290	1040.528	791.600
79.695	13.471	1039.664	791.737
80.709	13.396	1039.300	791.031
81.724	13.507	1038.801	791.112
82.739	13.391	1037.811	789.735
83.753	13.386	1037.108	789.108
84.768	13.542	1035.855	788.825
85.782	13.555	1035.344	788.429
86.797	13.462	1034.177	787.027
87.812	13.537	1033.046	786.453
88.826	13.540	1032.077	785.665
89.841	13.511	1031.301	784.863
90.855	13.651	1030.223	784.639
91.870	13.663	1029.400	783.997
92.884	13.659	1028.638	783.332
93.899	13.605	1027.901	782.444
94.914	13.664	1027.072	782.023
95.928	13.645	1026.316	781.288
96.943	13.494	1025.733	780.062
97.957	13.662	1024.417	779.784
98.972	13.609	1023.409	778.699
99.987	13.593	1022.524	777.880
101.001	13.605	1021.735	777.267
102.016	13.654	1020.827	776.738
103.030	13.722	1019.858	776.248
104.045	13.612	1019.375	775.301
105.060	13.649	1018.162	774.480
106.074	13.482	1017.696	773.277
107.089	13.457	1016.465	772.156
108.103	13.355	1016.028	771.281
109.118	13.424	1014.755	770.568
110.133	13.527	1013.907	770.334
111.147	13.514	1012.957	769.487
112.162	13.419	1012.291	768.469
113.176	13.475	1011.475	768.044
114.191	13.527	1010.749	767.662
115.206	13.474	1010.193	766.930
116.220	13.531	1009.306	766.453
117.235	13.524	1008.355	765.631
118.249	13.559	1007.307	764.928
119.264	13.590	1006.189	764.152
120.279	13.518	1006.145	763.720
121.293	13.609	1004.921	763.142
122.308	13.607	1003.612	762.070
123.322	13.648	1002.336	761.223
124.337	13.545	1002.129	760.529
125.352	13.592	1001.111	759.905
126.366	13.729	999.834	759.492
127.381	13.533	999.003	757.899
128.395	13.498	998.237	757.088
129.410	13.580	997.019	756.472
130.424	13.537	996.464	755.790
131.439	13.651	995.727	755.682
132.454	13.671	994.621	754.866
133.468	13.727	993.629	754.303
134.483	13.743	993.029	753.853
135.497	13.745	992.098	753.091
136.512	13.689	991.328	752.186
137.527	13.700	990.347	751.423
138.541	13.647	989.660	750.594
139.556	13.669	989.001	750.127
140.570	13.705	988.326	749.715
141.585	13.796	987.303	749.281
142.600	13.792	986.391	748.507
143.614	13.745	985.624	747.645
144.629	13.805	985.169	747.506
145.643	13.834	983.892	746.601
146.658	13.787	982.986	745.634
147.673	13.698	982.085	744.487
148.687	13.670	981.395	743.770
149.702	13.796	980.079	743.272
150.716	13.625	979.731	742.176
151.731	13.755	978.509	741.768
152.746	13.721	978.021	741.179
153.760	13.842	977.242	741.063
154.775	13.729	977.104	740.389
155.789	13.795	975.999	739.781
156.804	13.888	974.965	739.347
157.819	13.909	974.518	739.037
158.833	13.941	973.369	738.241
159.848	13.910	972.434	737.327
160.862	13.784	972.127	736.471
161.877	13.837	971.063	735.835
162.892	13.811	969.785	734.685
163.906	13.739	969.452	734.051
164.921	13.861	968.300	733.652
165.935	13.873	967.094	732.726
166.950	13.776	967.020	732.178
167.964	13.646	966.022	730.784
168.979	13.928	965.038	731.215
169.994	13.917	963.999	730.316
171.008	13.938	963.388	729.880
172.023	13.877	962.680	729.011
173.037	13.957	962.074	728.839
174.052	13.984	961.337	728.336
175.067	13.987	960.896	727.949
176.081	13.833	960.279	726.746
177.096	13.932	959.511	726.532
178.110	13.904	958.948	725.919
179.125	14.023	958.014	725.666
180.140	14.021	957.532	725.231
181.154	13.974	957.560	724.982
182.169	14.124	956.539	724.797
183.183	14.048	956.026	724.016
184.198	14.233	955.061	724.023
185.213	14.219	954.100	723.172
186.227	14.215	953.704	722.791
187.242	14.167	952.710	721.764
188.256	14.182	952.409	721.536
189.271	14.158	951.784	720.894
190.286	14.030	951.395	719.985
191.300	14.071	950.706	719.577
192.315	14.101	949.392	718.647
193.329	14.052	949.148	718.188
194.344	14.021	948.346	717.380
195.359	14.196	947.704	717.587
196.373	14.272	946.645	717.050
197.388	14.308	946.457	716.997
198.402	14.256	946.289	716.584
199.417	14.304	945.682	716.266
200.432	14.380	944.645	715.745
201.446	14.501	944.165	715.837
202.461	14.451	943.369	714.956
203.475	14.430	942.987	714.515
204.490	14.410	942.335	713.872
205.504	14.371	941.663	713.131
206.519	14.328	940.980	712.368
207.534	14.442	939.811	711.906
208.548	14.322	938.953	710.680
209.563	14.423	938.760	710.903
210.577	14.398	938.038	710.188
211.592	14.591	936.764	709.981
212.607	14.602	936.286	709.605
213.621	14.647	935.555	709.175
214.636	14.402	935.114	707.741
215.650	14.533	934.330	707.639
216.665	14.574	933.690	707.266
217.680	14.582	933.104	706.795
218.694	14.575	932.205	706.019
219.709	14.623	931.539	705.659
220.723	14.849	930.904	706.068
221.738	14.636	930.087	704.487
222.753	14.721	929.682	704.477
223.767	14.726	928.602	703.618
224.782	14.673	928.459	703.220
225.796	14.805	927.875	703.275
226.811	14.680	926.945	701.981
227.826	14.604	926.631	701.361
228.840	14.782	925.528	701.212
229.855	14.817	924.619	700.609
230.869	14.730	923.775	699.543
231.884	14.705	922.674	698.541
232.899	14.788	922.671	698.824
233.913	14.625	922.363	697.848
234.928	14.692	921.194	697.184
235.942	14.741	920.592	696.869
236.957	14.769	920.017	696.490
237.972	14.699	919.439	695.697
238.986	14.680	919.247	695.412
240.001	14.794	918.177	695.015
241.015	14.761	917.308	694.161
242.030	14.779	916.733	693.738
243.045	14.681	916.260	692.910
244.059	14.826	915.246	692.683
245.074	14.977	914.711	692.845
246.088	15.061	913.763	692.413
247.103	14.936	913.483	691.620
248.117	14.989	913.164	691.536
249.132	15.003	912.546	691.067
250.147	14.989	911.518	690.169
251.161	15.125	911.242	690.458
252.176	15.058	910.582	689.623
253.190	15.199	909.600	689.397
254.205	15.177	908.815	688.650
255.220	15.216	908.495	688.508
256.234	15.275	907.648	688.048
257.249	15.251	906.943	687.355
258.263	15.108	906.669	686.499
259.278	15.281	905.447	686.222
260.293	15.130	905.412	685.517
261.307	15.248	905.126	685.721
262.322	15.324	904.043	685.150
263.336	15.399	902.909	684.535
264.351	15.400	902.417	684.107
265.366	15.441	901.544	683.551
266.380	15.401	901.284	683.132
267.395	15.433	900.599	682.681
268.409	15.536	899.453	682.171
269.424	15.496	899.044	681.639
270.439	15.421	898.413	680.795
271.453	15.489	897.387	680.235
272.468	15.300	897.398	679.416
273.482	15.464	896.579	679.398
274.497	15.437	896.452	679.131
275.512	15.378	895.602	678.190
276.526	15.509	895.140	678.310
277.541	15.524	894.592	677.897
278.555	15.615	893.734	677.553
279.570	15.558	893.326	676.953
280.585	15.532	891.973	675.762
281.599	15.620	891.347	675.584
282.614	15.632	890.673	675.061
283.628	15.734	890.107	674.981
284.643	15.676	889.575	674.284
285.657	15.698	888.889	673.792
286.672	15.640	888.379	673.118
287.687	15.728	887.512	672.750
288.701	15.833	886.738	672.526
289.716	15.770	886.456	671.998
290.730	15.672	886.062	671.250
291.745	15.816	885.124	671.056
292.760	15.800	884.554	670.501
293.774	15.841	883.921	670.124
294.789	15.854	883.585	669.862
295.803	15.799	882.485	668.749
296.818	15.842	881.963	668.466
297.833	15.863	881.124	667.855
298.847	15.840	880.538	667.260
299.862	15.914	880.035	667.111
300.876	15.961	879.581	666.895
301.891	15.961	878.726	666.188
302.906	15.989	878.380	665.978
303.920	15.988	877.885	665.539
304.935	16.164	877.015	665.516
305.949	16.045	876.239	664.398
306.964	16.132	875.502	664.124
307.979	16.075	875.242	663.645
308.993	16.203	874.594	663.598
310.008	16.298	873.896	663.381
311.022	16.168	873.210	662.293
312.037	16.108	872.579	661.519
313.052	16.088	872.033	660.968
314.066	16.121	871.652	660.750
315.081	16.081	871.252	660.234
316.095	15.960	870.787	659.347
317.110	16.148	869.733	659.225
318.125	16.200	869.575	659.252
319.139	16.152	869.489	658.941
320.154	16.137	868.821	658.316
321.168	16.161	868.063	657.778
322.183	16.158	867.308	657.135
323.197	16.303	866.835	657.283
324.212	16.257	866.101	656.490
325.227	16.225	865.498	655.851
326.241	16.234	865.100	655.528
327.256	16.165	864.303	654.596
328.270	16.271	863.903	654.646
329.285	16.243	863.387	654.091
330.300	16.175	862.895	653.397
331.314	16.213	862.184	652.948
332.329	16.389	861.924	653.373
333.343	16.389	861.349	652.880
334.358	16.330	860.952	652.291
335.373	16.401	860.456	652.132
336.387	16.462	860.605	652.424
337.402	16.329	860.212	651.556
338.416	16.511	859.450	651.621
339.431	16.615	859.283	651.838
340.446	16.496	858.642	650.836
341.460	16.399	858.331	650.168
342.475	16.621	857.825	650.582
343.489	16.627	857.496	650.297
344.504	16.697	856.705	649.910
345.519	16.742	856.309	649.724
346.533	16.643	855.983	649.039
347.548	16.565	855.556	648.357
348.562	16.762	854.526	648.276
349.577	16.579	854.317	647.359
350.592	16.552	853.697	646.728
351.606	16.622	852.813	646.269
352.621	16.485	852.408	645.383
353.635	16.649	851.680	645.399
354.650	16.659	850.911	644.797
355.665	16.705	850.288	644.444
356.679	16.678	849.694	643.833
357.694	16.695	848.759	643.131
358.708	16.847	848.146	643.187
359.723	16.722	847.923	642.487
360.738	16.858	847.240	642.427
361.752	16.753	846.622	641.504
362.767	16.868	845.910	641.344
363.781	16.968	845.103	641.053
364.796	16.968	845.086	640.985
365.810	17.052	844.693	640.946
366.825	16.983	844.164	640.227
367.840	17.030	843.996	640.223
368.854	16.923	843.190	639.150
369.869	17.004	842.584	638.938
370.883	17.107	842.040	638.860
371.898	17.173	841.903	638.944
372.913	17.143	841.862	638.746
373.927	17.117	841.292	638.158
374.942	17.115	840.562	637.539
375.956	17.123	840.407	637.398
376.971	17.193	839.811	637.150
377.986	17.264	839.006	636.751
379.000	17.283	838.698	636.533
380.015	17.308	838.043	636.073
381.029	17.318	837.573	635.694
382.044	17.344	836.488	634.913
383.059	17.421	836.147	634.885
384.073	17.291	835.591	633.920
385.088	17.193	835.705	633.585
386.102	17.122	834.800	632.582
387.117	17.179	834.373	632.414
388.132	17.329	833.617	632.342
389.146	17.196	833.586	631.767
390.161	17.445	832.388	631.727
391.175	17.329	832.268	631.149
392.190	17.353	831.627	630.699
393.205	17.260	831.523	630.218
394.219	17.227	830.410	629.195
395.234	17.374	830.307	629.608
396.248	17.316	829.946	629.065
397.263	17.288	829.404	628.495
398.278	17.318	829.039	628.271
399.292	17.410	828.573	628.204
400.307	17.140	828.450	627.057
401.321	17.368	827.752	627.315
402.336	17.365	827.304	626.907
403.350	17.379	826.837	626.549
404.365	17.487	826.409	626.568
405.380	17.560	825.608	626.175
406.394	17.454	825.423	625.588
407.409	17.588	824.806	625.559
408.423	17.556	824.596	625.226
409.438	17.605	824.050	624.936
410.453	17.712	823.580	624.916
411.467	17.601	823.195	624.162
412.482	17.652	822.827	624.013
413.496	17.785	822.255	624.013
414.511	17.730	822.315	623.800
415.526	17.884	821.589	623.758
416.540	17.892	820.666	623.032
417.555	17.914	820.429	622.878
418.569	17.793	820.222	622.223
419.584	17.918	819.558	622.120
420.599	17.842	819.363	621.641
421.613	104.910	1286.455	1445.365
422.628	90.666	1354.513	1445.475
