DTS Sentinel unit serial number:	SN413079Multiplexer serial number:	ORYXHardware model number:	OX4-SRSoftware version number:	ORYX F/W v4.00 Oryx Data Collector v3.7.2.0data status	okinstallation	princeton_trtdifferential loss correction	single-endedforward channel	channel 1reverse channel	N/Adate	2019/09/13time	05:54:35forward acquisition time	60.00reverse acquisition time	0.00gamma	496.2192k internal	0.2335k external	0.2335temperature offset calibration	1.0157default loss term (dB/km)	0.3790temperature slope calibration	1.0000multiplexer offset coefficient	1.0000multiplexer slope coefficient	1.0000fibre end	0.00T internal ref (°C)	26.17T ext. ref 1 (°C)	4.06T ext. ref 2 (°C)	20.95length (m)	temperature (°C)	Stokes	anti-Stokes-747.200	-0.346	0.264	-0.188
-746.185	153.152	0.108	-0.149
-745.171	701.385	-0.075	0.198
-744.156	-200.000	-0.004	0.297
-743.142	-153.101	-0.228	0.016
-742.127	244.655	0.121	0.204
-741.112	8.472	0.031	0.023
-740.098	101.543	-0.032	-0.037
-739.083	-24.008	-0.219	0.131
-738.069	-200.000	-0.016	0.070
-737.054	56.161	-0.121	0.118
-736.039	27.197	-0.360	0.304
-735.025	-67.434	-0.078	-0.031
-734.010	-200.000	0.004	-0.337
-732.996	52.626	-0.117	-0.112
-731.981	-200.000	-0.035	-0.168
-730.966	323.426	-0.047	0.090
-729.952	-142.407	-0.179	-0.018
-728.937	-107.279	-0.297	0.066
-727.923	313.684	-0.128	0.242
-726.908	646.156	0.106	-0.273
-725.894	-178.183	0.045	-0.001
-724.879	-170.657	-0.254	-0.009
-723.864	800.000	0.028	0.103
-722.850	-107.751	0.149	0.033
-721.835	34.545	-0.262	-0.230
-720.821	800.000	-0.071	-0.259
-719.806	-141.187	-0.560	-0.057
-718.791	709.514	0.041	-0.110
-717.777	-95.930	0.030	-0.008
-716.762	-142.844	-0.291	-0.028
-715.748	800.000	0.032	-0.102
-714.733	-27.086	-0.241	-0.141
-713.718	-91.814	0.201	-0.057
-712.704	-134.274	0.379	0.047
-711.689	168.369	0.199	-0.285
-710.675	-168.720	-0.072	-0.003
-709.660	24.034	0.108	-0.089
-708.645	-8.983	-0.108	-0.072
-707.631	134.810	-0.045	-0.058
-706.616	800.000	0.050	-0.147
-705.602	-134.954	-0.107	0.013
-704.587	-200.000	0.046	-0.397
-703.572	24.281	-0.103	-0.085
-702.558	419.299	-0.196	-0.420
-701.543	314.729	-0.139	-0.263
-700.529	-93.633	0.200	0.055
-699.514	122.208	0.035	-0.044
-698.499	79.986	0.158	-0.170
-697.485	-104.180	-0.182	-0.042
-696.470	91.019	-0.171	-0.192
-695.456	-200.000	0.010	0.049
-694.441	237.848	-0.165	0.275
-693.426	-128.547	-0.193	-0.027
-692.412	-200.000	0.017	0.316
-691.397	798.643	0.074	0.204
-690.383	-200.000	0.004	-0.039
-689.368	104.131	-0.212	0.250
-688.354	529.374	0.016	-0.038
-687.339	19.217	-0.161	0.130
-686.324	-89.011	-0.166	-0.049
-685.310	452.022	-0.044	-0.098
-684.295	337.370	-0.068	-0.133
-683.281	676.284	0.054	0.141
-682.266	-200.000	0.005	-0.096
-681.251	800.000	0.034	0.128
-680.237	71.410	-0.210	-0.218
-679.222	-200.000	0.031	-0.389
-678.208	-200.000	0.020	0.336
-677.193	-165.138	-0.385	-0.017
-676.178	57.618	-0.124	0.121
-675.164	262.045	-0.214	-0.372
-674.149	-112.969	-0.053	0.010
-673.135	567.507	-0.072	-0.175
-672.120	-145.208	0.352	0.032
-671.105	-81.752	-0.347	-0.114
-670.091	286.749	-0.099	-0.178
-669.076	-61.000	0.118	-0.050
-668.062	-143.676	-0.268	-0.025
-667.047	37.988	-0.152	0.136
-666.032	-200.000	0.010	-0.055
-665.018	-89.902	-0.318	0.093
-664.003	-200.000	-0.003	0.130
-662.989	554.511	-0.198	0.478
-661.974	56.983	-0.075	-0.073
-660.959	800.000	-0.117	0.390
-659.945	141.037	-0.016	0.022
-658.930	-146.219	0.377	0.033
-657.916	-130.797	-0.090	-0.012
-656.901	-200.000	-0.000	-0.266
-655.886	-200.000	0.015	-0.138
-654.872	92.969	-0.069	0.078
-653.857	-200.000	0.023	-0.135
-652.843	18.797	-0.123	-0.099
-651.828	-169.340	-0.147	-0.005
-650.814	23.783	0.184	0.152
-649.799	10.450	0.129	-0.098
-648.784	264.481	0.196	-0.341
-647.770	-141.085	0.433	0.044
-646.755	-121.278	-0.089	0.015
-645.741	188.163	0.295	-0.441
-644.726	-200.000	0.015	-0.453
-643.711	419.011	0.037	0.078
-642.697	183.150	0.043	0.064
-641.682	1.373	0.082	0.059
-640.668	152.613	-0.168	-0.230
-639.653	216.618	-0.168	-0.267
-638.638	-47.815	0.061	-0.030
-637.624	-200.000	0.008	0.067
-636.609	31.551	0.103	0.089
-635.595	800.000	0.097	-0.356
-634.580	-63.657	-0.147	0.060
-633.565	100.202	0.115	-0.133
-632.551	-19.073	0.211	0.131
-631.536	-45.893	0.087	0.043
-630.522	87.680	0.142	-0.157
-629.507	-200.000	-0.026	0.133
-628.492	-200.000	0.025	-0.335
-627.478	800.000	-0.117	0.347
-626.463	800.000	-0.092	-0.296
-625.449	32.174	0.086	-0.074
-624.434	-61.289	0.313	-0.132
-623.419	26.335	0.151	-0.126
-622.405	-200.000	-0.016	0.075
-621.390	-200.000	-0.002	0.086
-620.376	-8.802	-0.205	0.137
-619.361	116.489	-0.261	0.320
-618.346	-92.561	-0.034	-0.010
-617.332	-2.804	0.120	-0.084
-616.317	-200.000	-0.015	-0.213
-615.303	32.971	-0.165	0.143
-614.288	259.870	-0.095	0.164
-613.273	231.856	0.296	0.485
-612.259	75.866	-0.081	0.085
-611.244	319.591	0.165	0.312
-610.230	37.491	0.031	-0.028
-609.215	-7.356	0.286	0.194
-608.201	24.058	0.114	0.094
-607.186	-163.053	-0.346	-0.017
-606.171	-72.178	-0.076	0.028
-605.157	-159.780	0.466	-0.026
-604.142	49.424	-0.064	-0.060
-603.128	72.486	-0.220	-0.229
-602.113	-200.000	-0.008	-0.154
-601.098	-115.560	-0.376	0.071
-600.084	-38.438	-0.077	-0.041
-599.069	-113.855	0.227	0.044
-598.055	217.827	0.276	-0.439
-597.040	800.000	-0.046	-0.149
-596.025	-108.989	0.098	-0.021
-595.011	28.905	0.041	-0.035
-593.996	101.015	-0.159	0.184
-592.982	-79.245	-0.205	-0.070
-591.967	51.919	0.134	0.127
-590.952	52.226	0.015	0.014
-589.938	7.206	0.171	-0.127
-588.923	-21.125	0.241	0.147
-587.909	104.433	-0.155	0.183
-586.894	78.612	0.108	-0.115
-585.879	544.586	-0.110	-0.263
-584.865	-200.000	0.020	-0.134
-583.850	42.289	0.089	0.080
-582.836	-119.114	0.216	0.038
-581.821	-139.029	0.286	-0.031
-580.806	-200.000	0.020	-0.172
-579.792	-86.397	-0.145	0.044
-578.777	800.000	0.040	0.143
-577.763	-73.167	0.184	-0.067
-576.748	119.289	-0.191	-0.236
-575.733	3.634	-0.493	0.359
-574.719	484.027	-0.127	0.289
-573.704	68.106	-0.144	0.147
-572.690	179.025	-0.179	-0.261
-571.675	-104.366	-0.061	0.014
-570.661	8.412	0.155	-0.116
-569.646	800.000	0.042	-0.116
-568.631	-200.000	0.021	-0.158
-567.617	528.442	-0.039	-0.092
-566.602	-49.700	-0.319	-0.151
-565.588	800.000	0.075	-0.208
-564.573	800.000	-0.014	0.042
-563.558	-86.992	-0.350	-0.106
-562.544	-200.000	0.027	0.134
-561.529	-55.665	0.203	0.091
-560.515	123.775	0.022	-0.027
-559.500	186.160	0.081	0.120
-558.485	800.000	0.026	-0.096
-557.471	696.949	0.155	-0.406
-556.456	-200.000	0.002	-0.129
-555.442	252.325	0.198	0.336
-554.427	-200.000	0.009	-0.083
-553.412	800.000	-0.073	-0.288
-552.398	800.000	-0.047	-0.132
-551.383	-162.372	0.065	0.003
-550.369	-95.938	-0.229	-0.061
-549.354	800.000	0.122	0.348
-548.339	143.448	0.042	-0.056
-547.325	71.165	-0.278	-0.288
-546.310	-32.936	-0.222	0.123
-545.296	-106.391	0.396	0.088
-544.281	800.000	0.079	-0.306
-543.266	-11.512	-0.076	-0.050
-542.252	-139.278	0.365	0.039
-541.237	627.608	-0.148	0.373
-540.223	-200.000	-0.022	-0.132
-539.208	99.627	-0.213	-0.246
-538.193	194.299	0.020	-0.031
-537.179	-17.911	-0.128	-0.080
-536.164	-74.746	-0.078	0.028
-535.150	538.991	0.200	0.474
-534.135	-70.514	-0.217	0.082
-533.121	-52.315	-0.375	0.173
-532.106	800.000	0.033	-0.115
-531.091	155.583	-0.142	-0.194
-530.077	14.509	0.031	-0.024
-529.062	169.362	-0.102	0.144
-528.048	58.419	0.065	0.063
-527.033	-200.000	0.170	0.001
-526.018	171.888	-0.199	-0.284
-525.004	-200.000	0.023	0.146
-523.989	-200.000	0.011	0.089
-522.975	-87.803	0.071	0.021
-521.960	645.154	-0.089	0.227
-520.945	-105.647	0.391	0.088
-519.931	-151.209	0.246	-0.018
-518.916	484.236	-0.144	0.326
-517.902	467.678	-0.211	0.472
-516.887	-161.277	0.296	-0.015
-515.872	483.468	0.094	-0.213
-514.858	-17.720	0.160	-0.100
-513.843	800.000	-0.012	-0.035
-512.829	-200.000	0.020	0.122
-511.814	-28.638	0.302	-0.173
-510.799	178.231	0.061	-0.089
-509.785	132.558	0.325	0.417
-508.770	-200.000	0.015	-0.218
-507.756	10.997	-0.125	0.095
-506.741	-57.318	-0.296	-0.129
-505.726	35.642	0.177	-0.155
-504.712	189.292	0.170	0.254
-503.697	-164.541	-0.182	-0.008
-502.683	134.324	-0.214	0.276
-501.668	-100.671	-0.038	-0.009
-500.653	16.146	0.077	-0.060
-499.639	800.000	-0.032	-0.111
-498.624	324.315	0.047	0.089
-497.610	-200.000	-0.015	0.231
-496.595	-26.069	0.201	0.118
-495.581	-21.505	0.098	-0.059
-494.566	78.573	0.080	-0.085
-493.551	-200.000	-0.028	-0.174
-492.537	-157.550	-0.083	-0.005
-491.522	35.286	0.156	-0.136
-490.508	-200.000	0.052	-0.318
-489.493	-188.184	0.357	-0.005
-488.478	800.000	-0.036	0.133
-487.464	47.621	-0.130	-0.120
-486.449	-200.000	0.004	-0.083
-485.435	336.547	0.054	-0.105
-484.420	-200.000	-0.002	-0.192
-483.405	51.692	0.222	-0.210
-482.391	-110.011	-0.651	-0.136
-481.376	198.665	0.104	0.158
-480.362	-200.000	0.062	0.482
-479.347	800.000	0.042	0.180
-478.332	34.836	-0.087	0.076
-477.318	-200.000	0.014	-0.079
-476.303	-34.696	-0.324	0.176
-475.289	-98.448	-0.314	0.080
-474.274	-63.537	-0.072	0.029
-473.259	-74.423	-0.184	0.066
-472.245	-200.000	-0.002	-0.204
-471.230	-200.000	-0.009	0.163
-470.216	327.866	0.055	0.105
-469.201	628.959	-0.065	-0.162
-468.186	-15.491	-0.205	0.130
-467.172	800.000	0.062	0.199
-466.157	-37.817	-0.193	-0.102
-465.143	800.000	0.029	-0.116
-464.128	269.322	-0.128	0.223
-463.113	106.375	-0.197	0.232
-462.099	-101.044	-0.191	-0.047
-461.084	-133.155	-0.181	0.023
-460.070	499.042	-0.062	-0.141
-459.055	-197.566	-0.617	0.004
-458.040	-120.776	0.228	-0.038
-457.026	-159.298	0.177	0.010
-456.011	-38.301	-0.220	0.116
-454.997	764.619	0.118	0.318
-453.982	114.572	-0.286	-0.346
-452.968	-144.620	-0.095	-0.009
-451.953	-58.777	-0.307	-0.132
-450.938	-98.532	0.075	-0.019
-449.924	-75.721	-0.059	-0.021
-448.909	-31.497	-0.255	0.142
-447.895	-62.147	-0.210	0.087
-446.880	-200.000	-0.025	-0.146
-445.865	221.144	0.193	0.308
-444.851	-117.930	0.107	-0.019
-443.836	292.541	0.039	0.071
-442.822	96.640	0.195	0.222
-441.807	313.981	0.047	0.087
-440.792	-47.446	-0.140	-0.068
-439.778	-52.054	0.222	0.103
-438.763	255.643	-0.120	-0.204
-437.749	-163.149	0.114	0.005
-436.734	-121.545	-0.407	0.067
-435.719	-58.233	-0.132	0.057
-434.705	132.177	-0.054	0.069
-433.690	164.771	0.089	-0.124
-432.676	-200.000	0.013	-0.299
-431.661	-147.051	0.283	-0.024
-430.646	106.600	0.081	0.095
-429.632	56.005	0.102	0.098
-428.617	88.130	-0.213	0.234
-427.603	-50.553	0.216	-0.101
-426.588	422.448	-0.104	0.221
-425.573	70.955	0.205	0.211
-424.559	124.106	0.266	-0.332
-423.544	-67.573	-0.101	-0.039
-422.530	-71.590	-0.146	-0.054
-421.515	-44.147	0.301	0.150
-420.500	241.904	-0.153	0.253
-419.486	800.000	0.108	-0.411
-418.471	-91.899	0.265	0.075
-417.457	44.687	-0.256	-0.234
-416.442	-58.326	0.040	-0.017
-415.428	6.659	-0.045	-0.033
-414.413	50.669	-0.131	-0.123
-413.398	198.941	0.059	0.090
-412.384	800.000	0.102	0.289
-411.369	800.000	0.019	-0.061
-410.355	-37.593	0.305	-0.161
-409.340	76.884	0.030	0.032
-408.325	223.662	-0.169	0.270
-407.311	-200.000	0.003	-0.020
-406.296	95.702	0.072	0.082
-405.282	310.019	0.063	0.117
-404.267	35.247	-0.088	0.076
-403.252	6.377	0.238	-0.175
-402.238	175.315	-0.046	0.065
-401.223	-200.000	-0.018	-0.161
-400.209	-199.818	-0.103	0.001
-399.194	772.634	0.120	0.324
-398.179	79.725	-0.071	0.076
-397.165	171.477	-0.097	-0.138
-396.150	75.014	0.044	-0.046
-395.136	-102.632	0.362	-0.086
-394.121	-102.634	-0.090	0.021
-393.106	-146.759	-0.113	-0.010
-392.092	-143.145	-0.131	0.013
-391.077	-5.067	-0.167	-0.114
-390.063	-139.590	0.317	-0.033
-389.048	-102.638	0.110	-0.026
-388.033	-200.000	0.494	0.002
-387.019	-8.118	-0.053	-0.036
-386.004	-15.601	-0.196	0.124
-384.990	2.940	-0.165	-0.119
-383.975	-200.000	-0.012	0.110
-382.960	800.000	-0.105	-0.432
-381.946	585.731	0.146	-0.356
-380.931	-142.735	-0.098	0.009
-379.917	50.591	-0.189	-0.177
-378.902	-147.514	-0.146	-0.012
-377.888	245.521	0.085	-0.142
-376.873	800.000	-0.024	0.075
-375.858	683.978	0.120	0.309
-374.844	53.711	-0.065	-0.062
-373.829	-143.090	-0.173	-0.017
-372.815	218.262	0.031	-0.050
-371.800	-166.533	-0.052	0.002
-370.785	532.709	-0.119	0.279
-369.771	161.361	-0.212	-0.294
-368.756	298.661	0.161	-0.294
-367.742	293.216	0.139	0.251
-366.727	494.350	-0.070	0.158
-365.712	-70.907	0.139	0.052
-364.698	497.843	0.107	-0.244
-363.683	-56.250	-0.136	0.060
-362.669	-200.000	-0.086	0.472
-361.654	249.654	0.205	0.344
-360.639	-64.006	0.233	-0.094
-359.625	47.687	0.128	0.118
-358.610	-154.334	-0.289	0.019
-357.596	-189.416	-0.032	0.000
-356.581	208.205	0.140	-0.217
-355.566	-200.000	0.061	0.316
-354.552	-87.165	-0.102	-0.031
-353.537	255.540	0.118	-0.200
-352.523	-11.005	-0.153	-0.100
-351.508	-200.000	0.011	-0.144
-350.493	387.949	0.075	0.154
-349.479	113.775	-0.180	0.217
-348.464	401.904	-0.013	0.027
-347.450	343.407	-0.038	-0.073
-346.435	-41.743	-0.323	0.164
-345.420	-18.641	-0.183	-0.113
-344.406	-35.845	0.327	-0.175
-343.391	248.167	-0.098	-0.165
-342.377	-83.758	-0.363	-0.115
-341.362	21.311	0.044	-0.035
-340.348	191.642	-0.177	0.264
-339.333	-82.697	0.168	0.054
-338.318	66.666	0.140	0.141
-337.304	-18.105	0.177	0.110
-336.289	23.862	0.092	0.075
-335.275	-200.000	0.040	0.213
-334.260	7.874	0.308	0.228
-333.245	65.493	0.232	0.232
-332.231	800.000	0.032	-0.129
-331.216	154.652	-0.249	-0.338
-330.202	800.000	-0.091	0.296
-329.187	-187.540	0.197	0.003
-328.172	274.639	0.198	0.346
-327.158	-143.453	0.067	-0.006
-326.143	-92.214	-0.221	0.062
-325.129	-200.000	-0.010	-0.099
-324.114	111.956	-0.099	0.118
-323.099	123.767	0.093	0.115
-322.085	-134.773	-0.281	0.034
-321.070	-200.000	0.017	-0.127
-320.056	-200.000	-0.001	0.212
-319.041	38.630	0.217	0.191
-318.026	-34.867	-0.243	-0.131
-317.012	-100.919	-0.305	-0.074
-315.997	104.624	0.139	-0.161
-314.983	62.172	0.112	-0.110
-313.968	132.760	0.171	-0.218
-312.953	40.644	0.030	-0.026
-311.939	-8.699	-0.156	-0.103
-310.924	-89.359	0.359	-0.104
-309.910	104.892	0.287	0.334
-308.895	59.461	0.196	-0.190
-307.880	-142.665	-0.362	-0.035
-306.866	106.741	-0.080	0.094
-305.851	60.121	-0.120	0.117
-304.837	-200.000	-0.030	-0.239
-303.822	-148.453	-0.127	-0.010
-302.807	578.188	-0.108	-0.262
-301.793	-63.662	0.099	0.040
-300.778	18.336	-0.331	0.261
-299.764	-200.000	0.037	0.219
-298.749	219.630	-0.237	-0.375
-297.735	207.153	-0.095	-0.147
-296.720	-200.000	0.013	0.090
-295.705	-200.000	-0.049	0.315
-294.691	-27.127	0.190	0.109
-293.676	72.801	0.093	-0.096
-292.662	716.154	0.079	-0.206
-291.647	-92.892	0.120	-0.033
-290.632	51.829	-0.145	-0.136
-289.618	-200.000	0.014	-0.423
-288.603	642.091	0.072	0.180
-287.589	7.902	0.191	0.141
-286.574	23.379	-0.172	-0.140
-285.559	183.158	0.017	0.025
-284.545	134.491	0.150	-0.192
-283.530	-150.478	-0.128	-0.010
-282.516	48.513	0.033	0.031
-281.501	-158.357	0.155	0.009
-280.486	-200.000	-0.024	-0.145
-279.472	-200.000	0.040	0.376
-278.457	-78.450	0.267	0.090
-277.443	-179.444	0.313	0.007
-276.428	101.474	-0.145	-0.167
-275.413	-89.815	0.063	-0.018
-274.399	-200.000	-0.020	0.317
-273.384	-87.097	-0.334	0.100
-272.370	-200.000	-0.035	-0.269
-271.355	737.046	-0.092	-0.242
-270.340	159.438	-0.080	-0.110
-269.326	-76.731	-0.032	-0.011
-268.311	-26.974	0.106	-0.061
-267.297	-95.682	-0.027	-0.007
-266.282	-80.892	0.118	0.039
-265.267	-200.000	-0.002	-0.078
-264.253	137.801	0.110	-0.142
-263.238	441.305	0.079	-0.171
-262.224	623.293	-0.190	-0.473
-261.209	425.649	0.127	0.269
-260.195	-30.193	0.109	0.061
-259.180	-155.544	-0.045	-0.003
-258.165	-25.658	0.203	0.118
-257.151	-75.760	-0.147	0.051
-256.136	-200.000	-0.006	0.213
-255.122	-120.242	-0.257	-0.043
-254.107	260.565	0.074	-0.127
-253.092	800.000	-0.094	0.256
-252.078	8.547	-0.013	0.010
-251.063	677.885	-0.077	0.197
-250.049	-104.705	0.227	-0.052
-249.034	7.547	0.104	0.077
-248.019	218.436	-0.123	-0.194
-247.005	-200.000	-0.064	-0.284
-245.990	800.000	-0.105	-0.408
-244.976	-48.928	-0.068	-0.032
-243.961	-163.556	0.358	-0.017
-242.946	-200.000	-0.002	-0.072
-241.932	13.239	0.190	0.145
-240.917	-154.174	-0.291	0.019
-239.903	53.085	-0.196	0.185
-238.888	-200.000	0.014	0.254
-237.873	291.880	-0.054	-0.096
-236.859	-66.315	-0.270	0.106
-235.844	-116.962	-0.233	-0.042
-234.830	88.392	0.179	-0.196
-233.815	193.242	-0.231	0.344
-232.800	-200.000	-0.007	0.065
-231.786	-107.254	-0.032	-0.007
-230.771	-115.028	0.072	0.013
-229.757	-40.307	0.047	-0.024
-228.742	-200.000	-0.039	0.290
-227.727	-200.000	-0.008	0.175
-226.713	-116.527	0.357	0.065
-225.698	-31.499	0.241	-0.134
-224.684	120.360	-0.042	-0.052
-223.669	-200.000	0.045	0.349
-222.655	-122.767	-0.149	0.024
-221.640	800.000	0.095	-0.288
-220.625	-37.311	0.187	-0.098
-219.611	12.284	-0.261	-0.198
-218.596	-139.888	0.163	-0.017
-217.582	-185.963	-0.240	0.003
-216.567	-200.000	0.013	0.127
-215.552	-200.000	0.047	0.275
-214.538	800.000	0.013	-0.038
-213.523	61.458	-0.174	-0.170
-212.509	-29.022	0.293	-0.165
-211.494	127.221	0.138	0.172
-210.479	153.648	0.096	-0.129
-209.465	38.954	0.151	0.133
-208.450	800.000	-0.050	-0.143
-207.436	382.704	-0.060	-0.122
-206.421	-141.826	-0.085	-0.008
-205.406	93.529	-0.108	-0.120
-204.392	8.422	0.184	-0.136
-203.377	-1.204	-0.100	-0.069
-202.363	-200.000	0.033	-0.160
-201.348	-200.000	-0.025	0.327
-200.333	-128.931	0.461	0.064
-199.319	-170.207	0.088	-0.003
-198.304	117.693	0.087	0.106
-197.290	-9.039	-0.264	-0.174
-196.275	800.000	-0.061	-0.168
-195.260	-200.000	0.062	0.322
-194.246	183.160	0.168	0.243
-193.231	-105.776	0.067	-0.015
-192.217	302.687	-0.098	0.179
-191.202	99.728	-0.032	0.036
-190.187	289.583	0.115	-0.205
-189.173	-72.655	-0.384	-0.139
-188.158	102.852	-0.079	0.090
-187.144	-15.201	-0.286	0.180
-186.129	95.943	0.177	0.199
-185.114	10.790	-0.179	0.134
-184.100	-200.000	-0.052	0.326
-183.085	-200.000	0.061	0.412
-182.071	357.627	0.093	0.182
-181.056	-19.709	-0.199	0.121
-180.042	378.160	-0.036	-0.073
-179.027	-70.023	0.119	-0.044
-178.012	800.000	-0.052	-0.212
-176.998	-200.000	-0.019	0.413
-175.983	800.000	-0.032	0.132
-174.969	358.281	0.067	0.132
-173.954	-46.454	-0.329	0.159
-172.939	-200.000	0.037	0.382
-171.925	-14.407	0.165	0.104
-170.910	709.405	0.056	-0.146
-169.896	584.199	0.037	-0.089
-168.881	-200.000	0.003	-0.522
-167.866	-200.000	0.065	-0.578
-166.852	12.460	-0.086	0.065
-165.837	70.211	0.290	-0.294
-164.823	-100.285	0.100	0.024
-163.808	474.599	0.104	0.231
-162.793	-130.538	-0.050	-0.007
-161.779	48.373	-0.176	-0.162
-160.764	608.250	-0.041	-0.100
-159.750	800.000	-0.066	-0.182
-158.735	456.158	-0.043	-0.093
-157.720	-27.421	-0.115	-0.066
-156.706	-26.210	0.191	0.110
-155.691	458.756	0.114	-0.249
-154.677	250.862	-0.200	-0.333
-153.662	-35.598	0.137	0.073
-152.647	-174.468	-0.493	0.014
-151.633	-200.000	0.005	-0.028
-150.618	498.000	-0.134	0.302
-149.604	329.758	0.042	0.079
-148.589	92.668	-0.166	0.184
-147.574	-69.340	0.250	-0.094
-146.560	-200.000	-0.016	-0.162
-145.545	38.789	-0.301	-0.264
-144.531	152.960	-0.225	-0.302
-143.516	-157.342	-0.239	-0.014
-142.502	-0.291	0.081	0.056
-141.487	87.072	0.204	0.221
-140.472	58.621	-0.224	0.216
-139.458	50.870	-0.122	-0.113
-138.443	-22.081	0.149	-0.089
-137.429	-165.442	0.288	-0.012
-136.414	-200.000	0.003	0.031
-135.399	431.742	0.037	0.079
-134.385	-200.000	-0.005	-0.184
-133.370	-200.000	-0.034	-0.223
-132.356	-73.661	-0.097	-0.035
-131.341	-200.000	0.001	-0.035
-130.326	10.111	0.107	-0.080
-129.312	329.397	-0.091	0.172
-128.297	800.000	0.074	0.231
-127.283	-200.000	0.005	0.055
-126.268	-162.772	-0.113	-0.005
-125.253	72.937	0.101	0.104
-124.239	-61.980	-0.073	0.030
-123.224	22.777	0.399	0.320
-122.210	555.712	-0.118	0.279
-121.195	-200.000	0.011	0.199
-120.180	547.274	0.114	-0.267
-119.166	8.769	0.045	-0.033
-118.151	106.101	-0.186	0.216
-117.137	-7.873	-0.060	-0.040
-116.122	45.123	-0.088	0.079
-115.107	73.361	-0.166	0.171
-114.093	148.227	-0.252	0.333
-113.078	800.000	-0.009	-0.037
-112.064	-200.000	0.007	-0.220
-111.049	-106.776	0.039	-0.008
-110.034	-153.032	-0.165	0.011
-109.020	-52.576	0.119	-0.054
-108.005	-20.494	0.102	0.061
-106.991	-200.000	0.042	-0.282
-105.976	-200.000	-0.003	-0.302
-104.962	-200.000	-0.011	0.132
-103.947	140.234	0.052	0.068
-102.932	-52.483	-0.111	0.050
-101.918	-36.213	0.320	0.169
-100.903	-61.254	0.071	0.029
-99.889	-182.773	-0.138	-0.002
-98.874	800.000	0.093	-0.269
-97.859	70.992	0.209	-0.212
-96.845	350.133	0.209	-0.404
-95.830	-200.000	0.002	0.166
-94.816	65.859	0.409	0.407
-93.801	275.297	-0.205	0.356
-92.786	91.739	0.150	0.165
-91.772	-84.328	-0.245	-0.076
-90.757	392.189	-0.125	0.255
-89.743	160.506	-0.052	0.071
-88.728	-200.000	-0.029	0.151
-87.713	-185.788	-0.127	-0.002
-86.699	-200.000	-0.140	0.667
-85.684	-39.419	0.253	-0.130
-84.670	-80.402	0.294	-0.096
-83.655	19.803	0.135	0.106
-82.640	23.688	-0.386	0.311
-81.626	-115.710	0.417	0.077
-80.611	-69.929	0.220	-0.082
-79.597	-57.479	0.239	-0.103
-78.582	85.835	0.114	0.122
-77.567	138.536	-0.164	0.210
-76.553	526.193	-0.090	0.207
-75.538	29.077	-0.002	0.002
-74.524	-28.472	0.097	-0.055
-73.509	0.880	-0.204	0.143
-72.494	97.479	-0.202	0.227
-71.480	2.522	-0.014	0.010
-70.465	-72.315	-0.042	-0.015
-69.451	-200.000	-0.011	0.195
-68.436	76.607	0.095	-0.099
-67.422	217.564	0.171	-0.266
-66.407	-49.929	0.698	-0.324
-65.392	-38.943	0.198	-0.102
-64.378	676.621	0.132	0.335
-63.363	613.221	-0.073	0.178
-62.349	89.651	0.187	0.205
-61.334	348.181	-0.730	-1.408
-60.319	119.110	0.666	0.806
-59.305	800.000	-0.447	-1.595
-58.290	329.643	0.713	1.342
-57.276	187.981	0.764	1.116
-56.261	-200.000	117.599	642.141
-55.246	483.069	1551.393	3449.103
-54.232	173.988	2719.080	3840.608
-53.217	103.416	2152.439	2469.264
-52.203	37.689	1584.886	1375.960
-51.188	29.556	1328.553	1104.951
-50.173	26.721	1289.680	1056.083
-49.159	51.983	1349.478	1256.617
-48.144	50.594	1362.499	1260.408
-47.130	29.531	1316.478	1094.584
-46.115	26.281	1298.084	1060.215
-45.100	26.088	1292.896	1054.808
-44.086	26.047	1290.266	1052.382
-43.071	25.950	1288.460	1050.301
-42.057	25.929	1286.415	1048.470
-41.042	26.013	1284.805	1047.600
-40.027	26.061	1283.054	1046.409
-39.013	26.011	1280.968	1044.379
-37.998	26.080	1279.585	1043.607
-36.984	26.157	1277.576	1042.374
-35.969	26.254	1275.392	1041.109
-34.954	26.188	1274.105	1039.638
-33.940	26.126	1272.698	1038.095
-32.925	26.240	1271.429	1037.672
-31.911	26.364	1269.590	1036.840
-30.896	26.258	1268.321	1035.156
-29.881	26.244	1267.313	1034.210
-28.867	26.226	1265.852	1032.877
-27.852	26.269	1265.024	1032.403
-26.838	26.360	1263.055	1031.273
-25.823	26.315	1261.716	1029.882
-24.809	26.183	1260.620	1028.201
-23.794	26.163	1259.221	1026.902
-22.779	26.206	1258.057	1026.156
-21.765	26.331	1256.524	1025.577
-20.750	26.202	1255.665	1024.102
-19.736	26.131	1254.164	1022.434
-18.721	26.092	1252.732	1021.005
-17.706	26.081	1251.521	1019.919
-16.692	26.189	1250.664	1019.785
-15.677	26.180	1249.402	1018.668
-14.663	26.049	1248.504	1017.159
-13.648	26.159	1247.076	1016.574
-12.633	26.081	1246.639	1015.736
-11.619	26.213	1245.112	1015.194
-10.604	26.105	1244.440	1013.998
-9.590	26.135	1243.612	1013.453
-8.575	26.175	1242.746	1012.928
-7.560	26.119	1241.922	1011.905
-6.546	26.154	1241.181	1011.456
-5.531	26.024	1240.665	1010.268
-4.517	26.082	1239.240	1009.393
-3.502	26.037	1238.367	1008.392
-2.487	26.049	1237.381	1007.611
-1.473	26.144	1233.139	1004.648
-0.458	24.719	1217.978	984.420
0.556	22.762	1201.770	947.257
1.571	18.992	1208.648	932.199
2.586	18.272	1223.404	939.547
3.600	18.225	1211.253	929.877
4.615	14.169	1140.614	854.773
5.629	7.262	1070.073	768.441
6.644	4.330	1052.095	741.470
7.659	4.092	1050.186	738.924
8.673	3.886	1048.664	736.805
9.688	3.933	1047.261	735.979
10.702	4.286	1045.346	736.242
11.717	8.684	1051.105	761.185
12.731	16.392	1062.211	806.071
13.746	21.308	1067.849	833.794
14.761	22.218	1068.852	838.847
15.775	21.512	1066.891	833.873
16.790	20.426	1065.808	827.780
17.804	19.961	1063.742	823.891
18.819	19.791	1062.544	822.081
19.834	19.725	1062.322	821.522
20.848	19.649	1061.751	820.649
21.863	19.432	1061.073	819.019
22.877	19.208	1060.550	817.481
23.892	19.294	1059.352	816.894
24.907	19.136	1058.663	815.541
25.921	19.132	1057.942	814.893
26.936	19.210	1056.250	813.890
27.950	19.164	1055.149	812.751
28.965	19.276	1053.733	812.116
29.980	19.346	1052.752	811.616
30.994	19.591	1051.370	811.633
32.009	19.721	1050.281	811.328
33.023	19.564	1049.144	809.644
34.038	19.358	1048.505	808.112
35.053	19.309	1047.577	807.096
36.067	19.256	1046.903	806.258
37.082	19.272	1045.908	805.498
38.096	19.453	1045.183	805.711
39.111	19.486	1044.666	805.394
40.126	19.149	1043.376	802.760
41.140	18.949	1041.296	800.158
42.155	18.732	1040.367	798.363
43.169	18.752	1039.503	797.723
44.184	18.751	1038.734	797.056
45.199	18.702	1037.771	796.019
46.213	19.087	1036.511	796.768
47.228	19.200	1035.968	796.801
48.242	19.289	1035.349	796.665
49.257	19.290	1034.197	795.714
50.271	19.364	1033.355	795.337
51.286	19.389	1032.737	794.907
52.301	19.349	1031.633	793.800
53.315	19.219	1030.453	792.224
54.330	19.159	1029.115	790.850
55.344	18.983	1028.496	789.498
56.359	19.081	1027.854	789.386
57.374	18.925	1026.732	787.737
58.388	18.768	1025.940	786.344
59.403	18.655	1025.140	785.143
60.417	18.750	1024.647	785.130
61.432	18.781	1023.466	784.298
62.447	18.719	1022.360	783.099
63.461	18.522	1021.867	781.752
64.476	18.581	1020.586	780.971
65.490	18.514	1019.731	779.945
66.505	18.660	1018.935	779.929
67.520	18.650	1018.458	779.450
68.534	18.567	1018.266	778.857
69.549	18.498	1017.586	777.954
70.563	18.382	1016.416	776.468
71.578	18.326	1015.626	775.539
72.593	18.170	1014.871	774.188
73.607	18.276	1014.035	773.962
74.622	18.485	1013.337	774.303
75.636	18.352	1013.170	773.507
76.651	18.475	1012.088	773.170
77.666	18.479	1011.596	772.744
78.680	18.586	1010.431	772.265
79.695	18.571	1009.939	771.753
80.709	18.680	1009.524	771.861
81.724	18.729	1009.105	771.690
82.739	18.864	1008.673	771.896
83.753	19.220	1008.084	772.978
84.768	19.668	1007.357	774.362
85.782	19.711	1006.503	773.825
86.797	19.654	1005.793	772.958
87.812	19.301	1005.127	770.801
88.826	19.459	1003.386	770.101
89.841	19.599	1002.852	770.248
90.855	19.685	1002.156	770.029
91.870	19.628	1001.249	769.011
92.884	19.628	1000.425	768.310
93.899	19.660	999.515	767.684
94.914	19.736	998.696	767.322
95.928	19.604	997.925	766.078
96.943	19.376	997.408	764.605
97.957	19.435	995.730	763.513
98.972	19.485	995.300	763.333
99.987	19.421	994.863	762.650
101.001	19.603	993.354	762.226
102.016	19.501	992.071	760.727
103.030	19.461	992.131	760.530
104.045	19.486	991.697	760.240
105.060	19.423	989.841	758.471
106.074	19.091	988.605	756.001
107.089	18.782	987.528	753.755
108.103	18.639	986.664	752.399
109.118	18.595	985.538	751.281
110.133	18.664	984.184	750.487
111.147	18.479	983.880	749.379
112.162	18.733	982.907	749.677
113.176	18.864	982.622	749.969
114.191	18.977	981.637	749.642
115.206	18.843	980.671	748.254
116.220	18.749	980.229	747.440
117.235	18.759	979.458	746.831
118.249	18.667	978.342	745.515
119.264	18.644	977.538	744.736
120.279	18.455	976.902	743.366
121.293	18.376	976.212	742.434
122.308	18.404	974.799	741.415
123.322	18.274	973.979	740.163
124.337	18.366	972.672	739.501
125.352	18.351	971.909	738.792
126.366	18.370	970.890	738.032
127.381	18.363	970.445	737.601
128.395	18.453	969.265	737.024
129.410	18.473	968.334	736.338
130.424	18.591	967.998	736.523
131.439	18.731	967.461	736.648
132.454	18.941	966.191	736.518
133.468	18.889	965.453	735.666
134.483	18.839	964.529	734.686
135.497	18.741	964.027	733.818
136.512	18.779	963.154	733.253
137.527	18.827	962.584	732.955
138.541	18.871	961.766	732.455
139.556	18.961	961.150	732.306
140.570	19.282	960.190	732.873
141.585	19.401	959.577	732.850
142.600	19.430	959.122	732.560
143.614	19.561	958.353	732.461
144.629	19.502	957.733	731.676
145.643	19.405	956.999	730.636
146.658	19.223	955.261	728.476
147.673	19.131	954.073	727.118
148.687	18.916	953.578	725.768
149.702	18.943	952.388	724.912
150.716	18.843	951.643	723.859
151.731	18.941	950.972	723.697
152.746	19.102	950.159	723.692
153.760	18.921	950.082	722.809
154.775	19.244	949.377	723.566
155.789	19.427	948.538	723.631
156.804	19.383	947.856	722.860
157.819	19.377	947.185	722.261
158.833	19.487	946.998	722.514
159.848	19.611	946.272	722.417
160.862	19.417	945.039	720.600
161.877	19.161	943.340	718.172
162.892	19.016	942.253	716.677
163.906	18.860	941.147	715.121
164.921	18.907	940.893	715.062
165.935	19.006	939.846	714.616
166.950	19.083	939.228	714.402
167.964	19.135	938.095	713.693
168.979	19.029	937.080	712.416
169.994	18.983	936.424	711.664
171.008	19.102	935.909	711.702
172.023	19.328	935.656	712.381
173.037	19.428	935.304	712.465
174.052	19.268	933.934	710.697
175.067	19.013	932.862	708.769
176.081	18.744	932.602	707.400
177.096	18.862	932.229	707.539
178.110	19.127	931.240	707.817
179.125	19.017	930.737	706.921
180.140	19.183	930.179	707.113
181.154	19.248	930.633	707.664
182.169	19.518	929.615	707.937
183.183	19.509	929.182	707.507
184.198	19.455	928.407	706.631
185.213	19.477	927.573	706.024
186.227	19.546	926.746	705.615
187.242	19.681	926.168	705.664
188.256	19.872	925.778	706.083
189.271	19.722	925.012	704.825
190.286	19.404	923.448	702.279
191.300	18.759	922.999	699.247
192.315	18.768	922.101	698.544
193.329	18.834	921.661	698.416
194.344	19.127	921.473	699.400
195.359	19.270	920.297	699.026
196.373	19.325	920.306	699.197
197.388	19.513	920.202	699.816
198.402	19.764	919.389	700.152
199.417	19.847	918.932	700.080
200.432	19.960	918.529	700.168
201.446	20.015	918.066	699.972
202.461	20.170	917.699	700.260
203.475	19.920	916.686	698.415
204.490	19.741	915.454	696.692
205.504	19.558	914.680	695.305
206.519	19.535	913.833	694.506
207.534	19.555	913.308	694.127
208.548	19.670	912.762	694.113
209.563	19.648	912.225	693.557
210.577	19.669	911.614	693.115
211.592	19.923	911.219	693.770
212.607	20.064	910.599	693.801
213.621	19.826	909.938	692.284
214.636	19.768	908.720	691.066
215.650	19.874	908.288	691.098
216.665	20.026	907.465	691.018
217.680	20.052	907.347	690.970
218.694	20.155	906.605	690.754
219.709	20.010	905.940	689.608
220.723	19.946	905.542	688.988
221.738	19.964	904.297	688.054
222.753	19.931	904.289	687.854
223.767	20.153	903.602	688.153
224.782	20.227	903.067	687.980
225.796	20.209	902.507	687.420
226.811	20.101	901.540	686.196
227.826	19.907	900.830	684.825
228.840	19.865	900.056	684.012
229.855	19.892	898.992	683.250
230.869	19.850	898.373	682.553
231.884	19.648	898.206	681.566
232.899	19.623	897.080	680.554
233.913	19.661	896.009	679.830
234.928	19.615	895.532	679.229
235.942	19.533	895.506	678.827
236.957	19.535	894.462	677.982
237.972	19.764	893.796	678.317
238.986	19.469	893.917	677.191
240.001	19.612	892.853	676.886
241.015	19.787	892.321	677.109
242.030	19.706	892.388	676.782
243.045	19.750	891.522	676.235
244.059	19.867	890.738	676.038
245.074	20.041	890.239	676.280
246.088	20.121	889.463	675.940
247.103	20.249	889.184	676.168
248.117	20.420	888.942	676.593
249.132	20.627	888.948	677.342
250.147	20.969	888.378	678.181
251.161	20.996	887.846	677.817
252.176	20.936	886.966	676.853
253.190	21.038	886.551	676.871
254.205	21.122	885.824	676.583
255.220	20.890	884.943	674.953
256.234	20.944	884.514	674.774
257.249	21.042	883.641	674.427
258.263	20.816	883.329	673.257
259.278	20.759	882.714	672.508
260.293	21.034	881.850	672.849
261.307	21.172	881.661	673.179
262.322	21.147	881.274	672.727
263.336	21.199	879.812	671.754
264.351	21.097	879.259	670.879
265.366	21.166	879.014	670.899
266.380	21.107	878.336	670.093
267.395	20.979	877.940	669.241
268.409	20.816	876.863	667.738
269.424	20.907	875.835	667.245
270.439	20.723	875.502	666.224
271.453	20.711	874.358	665.250
272.468	20.747	873.497	664.675
273.482	20.716	873.175	664.252
274.497	20.547	873.260	663.614
275.512	20.695	871.934	663.110
276.526	20.756	871.978	663.318
277.541	20.783	871.089	662.686
278.555	21.016	870.896	663.367
279.570	21.233	870.443	663.786
280.585	21.116	869.601	662.642
281.599	20.891	868.287	660.729
282.614	20.728	867.844	659.714
283.628	20.780	867.394	659.514
284.643	20.743	866.361	658.530
285.657	20.895	865.771	658.597
286.672	20.827	865.550	658.114
287.687	20.884	864.738	657.654
288.701	20.812	864.802	657.372
289.716	20.825	863.906	656.683
290.730	20.935	863.107	656.430
291.745	21.076	862.885	656.734
292.760	20.980	862.840	656.280
293.774	21.189	861.904	656.295
294.789	21.207	861.072	655.671
295.803	20.851	860.052	653.502
296.818	20.811	859.553	652.917
297.833	20.827	858.688	652.260
298.847	20.913	858.032	652.026
299.862	21.008	857.614	652.005
300.876	21.166	857.231	652.248
301.891	21.226	857.258	652.436
302.906	21.431	856.740	652.748
303.920	21.665	856.038	653.027
304.935	21.556	855.955	652.499
305.949	21.476	854.976	651.400
306.964	21.216	854.079	649.691
307.979	21.220	853.631	649.307
308.993	21.596	852.959	650.133
310.008	21.450	852.548	649.222
311.022	21.382	851.703	648.268
312.037	21.184	850.917	646.882
313.052	21.010	850.359	645.755
314.066	20.825	849.843	644.619
315.081	20.763	849.605	644.154
316.095	20.939	848.529	643.932
317.110	20.893	848.218	643.467
318.125	20.954	847.261	642.909
319.139	20.872	847.081	642.415
320.154	20.983	846.453	642.291
321.168	21.097	846.122	642.402
322.183	21.064	845.524	641.770
323.197	21.090	845.150	641.524
324.212	21.020	844.591	640.785
325.227	20.971	843.722	639.889
326.241	21.033	843.195	639.662
327.256	20.969	842.749	639.034
328.270	20.949	842.313	638.572
329.285	20.953	841.406	637.843
330.300	20.828	840.934	636.971
331.314	21.102	840.528	637.607
332.329	21.311	840.018	637.929
333.343	21.277	839.665	637.479
334.358	21.219	839.631	637.187
335.373	21.298	839.076	636.996
336.387	21.360	839.039	637.139
337.402	21.513	838.565	637.280
338.416	21.709	838.821	638.130
339.431	21.780	838.178	637.844
340.446	21.909	837.580	637.800
341.460	21.648	837.482	636.719
342.475	21.973	836.911	637.410
343.489	22.049	836.448	637.278
344.504	22.089	835.970	637.003
345.519	22.174	836.051	637.316
346.533	22.068	835.151	636.190
347.548	21.876	834.100	634.637
348.562	21.605	833.473	633.126
349.577	21.501	832.565	632.002
350.592	21.284	832.059	630.779
351.606	21.327	831.579	630.514
352.621	21.575	830.773	630.742
353.635	21.444	830.439	629.962
354.650	21.629	830.061	630.286
355.665	21.654	829.133	629.613
356.679	21.806	828.366	629.520
357.694	21.751	828.035	629.017
358.708	21.787	827.180	628.442
359.723	21.700	826.810	627.794
360.738	21.708	826.056	627.193
361.752	21.912	825.308	627.297
362.767	21.974	825.252	627.423
363.781	22.043	825.206	627.577
364.796	22.291	824.212	627.652
365.810	22.578	823.861	628.355
366.825	22.399	823.920	627.702
367.840	22.280	823.109	626.606
368.854	22.179	822.789	625.948
369.869	22.265	822.045	625.633
370.883	22.207	821.555	625.000
371.898	22.370	821.492	625.473
372.913	22.396	821.122	625.230
373.927	22.203	820.398	623.939
374.942	22.355	819.907	624.049
375.956	22.471	819.696	624.242
376.971	22.548	819.255	624.127
377.986	22.588	818.676	623.769
379.000	22.605	818.411	623.573
380.015	22.573	817.852	622.981
381.029	22.483	817.069	622.011
382.044	22.464	816.726	621.628
383.059	22.662	815.650	621.450
384.073	22.454	815.445	620.506
385.088	22.237	814.589	619.035
386.102	22.155	813.735	618.044
387.117	22.041	813.412	617.344
388.132	22.009	812.473	616.464
389.146	22.154	812.400	616.864
390.161	22.451	812.045	617.579
391.175	22.437	811.339	616.940
392.190	22.133	810.891	615.480
393.205	22.067	810.616	614.985
394.219	22.056	809.828	614.296
395.234	21.906	809.610	613.551
396.248	21.933	809.036	613.156
397.263	21.947	808.213	612.528
398.278	21.921	807.860	612.114
399.292	21.722	807.695	611.241
400.307	21.774	807.251	611.032
401.321	21.922	806.854	611.194
402.336	22.066	806.328	611.241
403.350	22.230	805.847	611.392
404.365	22.465	805.551	611.931
405.380	22.552	805.554	612.182
406.394	22.807	804.636	612.316
407.409	22.791	804.478	612.085
408.423	22.908	804.026	612.094
409.438	22.801	803.794	611.491
410.453	22.964	803.007	611.403
411.467	22.966	803.154	611.468
412.482	22.944	802.810	611.076
413.496	23.033	802.759	611.289
414.511	22.912	802.721	610.787
415.526	22.757	801.770	609.476
416.540	22.913	800.857	609.265
417.555	22.867	800.565	608.830
418.569	23.004	799.941	608.773
419.584	22.936	799.570	608.204
420.599	22.984	798.962	607.854
421.613	165.340	1370.767	1796.613
422.628	143.658	1454.073	1796.693
