DTS Sentinel unit serial number:	SN413079Multiplexer serial number:	ORYXHardware model number:	OX4-SRSoftware version number:	ORYX F/W v4.00 Oryx Data Collector v3.7.2.0data status	okinstallation	princeton_trtdifferential loss correction	single-endedforward channel	channel 1reverse channel	N/Adate	2019/09/16time	13:02:35forward acquisition time	60.00reverse acquisition time	0.00gamma	496.2192k internal	0.2294k external	0.2294temperature offset calibration	0.9949default loss term (dB/km)	0.3790temperature slope calibration	1.0000multiplexer offset coefficient	1.0000multiplexer slope coefficient	1.0000fibre end	0.00T internal ref (°C)	40.64T ext. ref 1 (°C)	13.60T ext. ref 2 (°C)	38.42length (m)	temperature (°C)	Stokes	anti-Stokes-747.200	-95.763	-0.285	-0.078
-746.185	-15.901	0.169	0.110
-745.171	800.000	0.058	0.208
-744.156	-96.933	0.270	0.072
-743.142	-76.387	-0.054	0.019
-742.127	24.465	-0.278	0.235
-741.112	-94.638	-0.269	-0.075
-740.098	-80.227	0.370	0.127
-739.083	471.006	0.104	-0.240
-738.069	-113.695	0.192	-0.038
-737.054	63.236	-0.208	0.213
-736.039	480.238	-0.141	-0.328
-735.025	-200.000	0.019	0.241
-734.010	-108.733	-0.052	-0.011
-732.996	-2.225	-0.090	-0.064
-731.981	-25.956	-0.103	-0.062
-730.966	-64.808	-0.216	0.090
-729.952	65.923	0.017	0.017
-728.937	267.761	0.059	-0.105
-727.923	28.040	0.184	0.159
-726.908	429.461	-0.046	-0.102
-725.894	-35.528	-0.400	-0.222
-724.879	-98.905	-0.422	0.110
-723.864	156.323	-0.149	-0.210
-722.850	485.462	0.148	-0.345
-721.835	-130.030	-0.202	-0.028
-720.821	-93.194	0.240	-0.068
-719.806	-125.656	-0.053	0.008
-718.791	-133.670	-0.200	0.026
-717.777	-200.000	-0.067	0.480
-716.762	-200.000	-0.005	0.301
-715.748	14.260	-0.188	0.150
-714.733	-200.000	-0.044	0.343
-713.718	-200.000	0.005	0.174
-712.704	-200.000	-0.011	-0.056
-711.689	395.678	0.185	-0.394
-710.675	-200.000	-0.023	0.127
-709.660	-200.000	-0.083	0.432
-708.645	-49.114	-0.210	-0.103
-707.631	89.813	-0.170	-0.194
-706.616	-119.122	0.170	-0.030
-705.602	53.690	-0.212	0.208
-704.587	285.672	0.167	0.308
-703.572	-81.314	-0.114	0.038
-702.558	6.946	0.183	-0.139
-701.543	-200.000	-0.034	-0.210
-700.529	210.529	0.137	0.220
-699.514	-121.576	0.139	-0.024
-698.499	-85.471	0.342	0.109
-697.485	778.246	-0.043	-0.119
-696.470	-30.765	0.537	-0.310
-695.456	800.000	0.069	-0.204
-694.441	110.982	-0.198	-0.244
-693.426	800.000	-0.057	-0.225
-692.412	-27.637	-0.291	0.172
-691.397	800.000	-0.022	0.084
-690.383	-7.599	-0.283	-0.195
-689.368	382.221	0.117	0.244
-688.354	-200.000	0.042	0.523
-687.339	156.810	0.116	0.164
-686.324	-54.743	-0.039	-0.018
-685.310	351.675	-0.071	0.143
-684.295	-68.037	-0.428	-0.170
-683.281	553.814	0.036	0.088
-682.266	149.992	-0.185	0.256
-681.251	-114.552	0.307	0.060
-680.237	738.620	-0.065	-0.179
-679.222	-59.391	-0.172	0.075
-678.208	-200.000	0.008	-0.134
-677.193	-200.000	-0.003	-0.089
-676.178	140.647	-0.091	0.122
-675.164	-64.529	0.408	0.169
-674.149	800.000	0.030	-0.126
-673.135	-64.765	-0.073	-0.030
-672.120	59.668	-0.206	-0.207
-671.105	-200.000	-0.018	-0.213
-670.091	137.319	-0.085	-0.114
-669.076	13.230	-0.090	0.071
-668.062	41.683	-0.178	-0.165
-667.047	-119.401	-0.075	-0.013
-666.032	-3.515	-0.189	-0.134
-665.018	99.061	0.143	-0.168
-664.003	-145.200	0.132	-0.012
-662.989	120.935	-0.034	0.043
-661.974	-92.051	0.068	0.019
-660.959	272.689	0.121	0.217
-659.945	44.577	0.062	0.058
-658.930	-52.759	0.042	-0.020
-657.916	767.829	0.105	0.291
-656.901	-25.881	-0.087	-0.052
-655.886	800.000	0.059	-0.250
-654.872	226.755	0.191	-0.315
-653.857	91.312	0.095	0.109
-652.843	800.000	0.043	-0.127
-651.828	-200.000	-0.046	-0.339
-650.814	-137.235	-0.076	-0.009
-649.799	54.551	-0.112	-0.110
-648.784	800.000	0.060	-0.170
-647.770	-200.000	0.019	0.145
-646.755	83.989	-0.194	-0.216
-645.741	403.924	0.215	-0.461
-644.726	-24.458	0.156	-0.095
-643.711	-78.739	-0.029	-0.010
-642.697	-200.000	-0.042	-0.272
-641.682	-200.000	-0.125	-0.000
-640.668	53.592	-0.060	-0.058
-639.653	-200.000	0.003	-0.019
-638.638	-79.560	-0.296	-0.102
-637.624	-101.562	-0.282	-0.070
-636.609	-133.850	-0.093	-0.012
-635.595	242.706	-0.119	0.204
-634.580	-42.745	-0.242	-0.125
-633.565	74.779	0.073	-0.079
-632.551	-8.525	0.160	0.109
-631.536	-123.599	-0.108	0.017
-630.522	-173.840	0.236	0.007
-629.507	-135.321	-0.178	-0.022
-628.492	77.250	-0.137	0.148
-627.478	800.000	0.050	0.185
-626.463	58.745	0.099	0.099
-625.449	-141.177	0.207	-0.022
-624.434	-200.000	-0.009	0.223
-623.419	580.480	-0.043	-0.108
-622.405	-200.000	-0.017	-0.205
-621.390	800.000	-0.064	0.198
-620.376	-31.427	0.138	-0.079
-619.361	-200.000	0.004	0.140
-618.346	-60.674	0.219	0.094
-617.332	-153.310	-0.119	0.008
-616.317	-104.727	-0.313	-0.073
-615.303	102.366	0.176	-0.209
-614.288	-200.000	-0.015	-0.108
-613.273	453.691	0.057	0.129
-612.259	37.882	0.141	0.127
-611.244	-200.000	0.016	-0.189
-610.230	506.818	0.079	-0.187
-609.215	82.888	0.159	0.176
-608.201	-45.156	-0.275	0.139
-607.186	800.000	-0.110	0.317
-606.171	-200.000	0.015	-0.148
-605.157	800.000	-0.122	-0.379
-604.142	-4.271	0.176	-0.124
-603.128	-95.006	-0.180	-0.050
-602.113	800.000	-0.051	-0.157
-601.098	-200.000	-0.012	-0.260
-600.084	-74.618	0.129	0.047
-599.069	800.000	-0.039	0.121
-598.055	-14.803	-0.157	-0.102
-597.040	-131.640	-0.256	0.034
-596.025	240.839	-0.150	-0.254
-595.011	-200.000	-0.018	-0.165
-593.996	-33.113	0.212	0.120
-592.982	258.799	0.059	-0.104
-591.967	-39.537	-0.167	-0.089
-590.952	-24.799	0.157	-0.095
-589.938	3.386	-0.317	-0.235
-588.923	-17.830	0.196	-0.125
-587.909	168.329	0.029	0.042
-586.894	38.989	-0.181	0.164
-585.879	44.652	-0.089	0.083
-584.865	800.000	-0.105	0.412
-583.850	800.000	-0.099	0.371
-582.836	-20.379	0.149	0.093
-581.821	116.412	0.221	0.275
-580.806	-142.304	-0.175	0.018
-579.792	-200.000	0.012	0.241
-578.777	-200.000	0.030	-0.313
-577.763	-200.000	0.059	-0.450
-576.748	421.007	-0.168	-0.365
-575.733	-200.000	-0.010	0.261
-574.719	800.000	-0.029	0.105
-573.704	800.000	-0.054	-0.184
-572.690	-193.546	0.220	-0.002
-571.675	-128.077	0.256	-0.037
-570.661	800.000	-0.020	-0.063
-569.646	734.232	0.049	0.132
-568.631	800.000	-0.080	0.266
-567.617	-90.789	0.155	0.045
-566.602	-131.758	0.222	-0.030
-565.588	800.000	-0.060	-0.203
-564.573	463.700	0.117	-0.265
-563.558	-131.784	-0.204	-0.027
-562.544	59.734	0.113	0.113
-561.529	-63.861	0.050	0.021
-560.515	50.426	0.268	0.258
-559.500	29.881	0.085	-0.073
-558.485	-200.000	0.018	0.233
-557.471	-55.392	-0.231	0.105
-556.456	-148.686	0.070	-0.006
-555.442	-33.084	-0.056	0.032
-554.427	-6.631	-0.148	0.103
-553.412	-1.447	0.279	-0.200
-552.398	-26.077	0.189	-0.113
-551.383	-101.691	-0.454	-0.112
-550.369	-65.758	-0.244	-0.099
-549.354	-141.961	0.059	0.006
-548.339	444.374	-0.024	0.054
-547.325	-200.000	0.007	-0.175
-546.310	157.423	0.088	-0.123
-545.296	-45.777	-0.050	-0.025
-544.281	57.517	0.079	-0.078
-543.266	268.912	-0.075	-0.134
-542.252	-75.191	0.180	0.065
-541.237	-160.159	-0.229	0.013
-540.223	-56.610	-0.025	0.011
-539.208	78.119	-0.067	-0.072
-538.193	101.819	-0.216	-0.255
-537.179	-101.725	0.115	-0.028
-536.164	-127.099	-0.222	-0.033
-535.150	212.159	-0.133	0.213
-534.135	89.883	-0.137	-0.155
-533.121	-72.467	0.315	-0.118
-532.106	-139.117	-0.135	-0.015
-531.091	-67.779	0.121	-0.048
-530.077	155.660	0.163	-0.227
-529.062	-74.297	-0.390	0.143
-528.048	-133.822	0.379	-0.048
-527.033	-41.561	0.171	0.089
-526.018	-53.683	-0.392	-0.182
-525.004	209.141	0.066	-0.105
-523.989	-187.145	-0.256	-0.004
-522.975	88.742	-0.165	-0.186
-521.960	109.407	0.186	-0.226
-520.945	-87.253	0.359	0.111
-519.931	23.784	-0.212	0.177
-518.916	12.087	-0.059	-0.046
-517.902	404.122	0.034	-0.073
-516.887	127.735	-0.190	0.244
-515.872	800.000	-0.061	0.246
-514.858	-28.477	0.108	-0.063
-513.843	18.818	-0.167	0.136
-512.829	136.748	0.063	0.083
-511.814	470.018	-0.039	0.089
-510.799	-34.479	-0.165	-0.092
-509.785	13.784	0.124	0.098
-508.770	800.000	-0.025	-0.111
-507.756	-200.000	-0.005	-0.107
-506.741	-136.061	0.141	0.017
-505.726	-165.281	-0.087	0.004
-504.712	-200.000	0.068	-0.314
-503.697	254.498	0.107	0.185
-502.683	98.737	0.018	0.021
-501.668	-22.799	0.182	0.111
-500.653	-122.763	-0.062	0.010
-499.639	554.898	0.052	0.126
-498.624	218.496	0.101	-0.164
-497.610	-164.019	-0.123	-0.006
-496.595	-17.787	0.102	-0.065
-495.581	800.000	0.028	0.108
-494.566	152.965	-0.157	-0.218
-493.551	-100.328	0.210	-0.053
-492.537	283.387	0.192	0.349
-491.522	800.000	0.051	-0.188
-490.508	449.878	0.050	-0.111
-489.493	-200.000	-0.023	0.249
-488.478	258.001	0.224	0.391
-487.464	-30.001	-0.230	-0.132
-486.449	-142.384	-0.243	-0.024
-485.435	800.000	-0.079	0.262
-484.420	293.828	-0.142	0.262
-483.405	165.881	-0.196	0.281
-482.391	48.141	0.050	-0.047
-481.376	800.000	0.024	-0.071
-480.362	12.476	0.120	-0.093
-479.347	800.000	-0.049	0.201
-478.332	-144.586	0.084	0.008
-477.318	-151.354	-0.049	-0.004
-476.303	-35.251	0.245	-0.135
-475.289	338.842	-0.077	-0.151
-474.274	367.231	0.046	-0.093
-473.259	-200.000	0.021	0.229
-472.245	-200.000	-0.001	-0.314
-471.230	636.830	0.063	-0.162
-470.216	-114.005	0.046	0.009
-469.201	468.550	-0.066	0.151
-468.186	-137.592	-0.152	0.017
-467.172	-150.796	0.226	-0.017
-466.157	512.700	-0.135	-0.318
-465.143	15.024	0.126	-0.100
-464.128	-139.057	-0.148	0.016
-463.113	-10.483	-0.198	-0.133
-462.099	-5.495	-0.191	0.132
-461.084	-54.899	0.201	0.092
-460.070	-200.000	-0.014	-0.129
-459.055	-200.000	0.013	-0.145
-458.040	-156.752	0.202	-0.013
-457.026	-128.294	-0.066	-0.009
-456.011	-200.000	-0.027	0.177
-454.997	173.598	-0.144	0.210
-453.982	-200.000	0.014	0.156
-452.968	507.356	-0.119	-0.280
-451.953	-200.000	-0.032	-0.189
-450.938	134.271	-0.068	-0.089
-449.924	-200.000	-0.019	-0.386
-448.909	-200.000	-0.026	-0.229
-447.895	-68.175	-0.124	-0.049
-446.880	132.407	0.118	-0.154
-445.865	-13.399	0.348	0.228
-444.851	774.987	0.044	-0.121
-443.836	-14.802	0.409	0.266
-442.822	694.235	0.024	-0.063
-441.807	407.374	0.089	0.190
-440.792	-200.000	0.104	0.564
-439.778	-92.585	0.139	0.040
-438.763	800.000	0.051	-0.149
-437.749	-112.803	0.238	-0.048
-436.734	170.203	0.151	0.218
-435.719	-200.000	0.029	-0.144
-434.705	-200.000	0.055	-0.255
-433.690	673.774	0.048	-0.126
-432.676	-111.695	0.181	-0.037
-431.661	-12.986	-0.148	0.097
-430.646	41.540	0.128	-0.117
-429.632	-5.369	-0.162	-0.112
-428.617	-139.365	-0.149	-0.016
-427.603	103.601	0.153	0.181
-426.588	-200.000	-0.012	0.113
-425.573	-56.508	-0.255	-0.114
-424.559	-132.518	0.217	0.028
-423.544	-11.500	0.236	0.157
-422.530	106.639	-0.024	0.028
-421.515	-21.089	-0.109	0.067
-420.500	106.559	0.167	-0.200
-419.486	-25.966	0.113	-0.067
-418.471	533.099	-0.066	0.158
-417.457	360.788	-0.098	0.198
-416.442	800.000	-0.085	-0.373
-415.428	-192.940	-0.180	-0.002
-414.413	228.156	-0.036	-0.060
-413.398	383.218	-0.013	0.027
-412.384	-118.506	0.187	-0.033
-411.369	282.170	-0.124	-0.225
-410.355	800.000	0.013	0.050
-409.340	13.439	-0.120	-0.094
-408.325	-75.278	0.220	-0.079
-407.311	97.634	-0.036	0.042
-406.296	-200.000	-0.046	0.295
-405.282	-135.118	0.103	-0.012
-404.267	-117.340	-0.241	-0.044
-403.252	-200.000	-0.019	-0.256
-402.238	-116.220	0.163	0.030
-401.223	179.624	0.162	0.239
-400.209	7.409	0.246	0.186
-399.194	215.339	0.026	0.042
-398.179	-154.478	-0.130	-0.009
-397.165	800.000	0.052	0.228
-396.150	115.198	-0.151	0.186
-395.136	-36.258	-0.309	0.168
-394.121	-78.704	-0.295	-0.102
-393.106	190.766	0.118	-0.179
-392.092	-85.293	0.313	0.098
-391.077	-45.457	-0.053	-0.027
-390.063	-200.000	0.007	0.224
-389.048	90.931	0.274	0.309
-388.033	-200.000	-0.001	0.105
-387.019	8.342	-0.324	0.246
-386.004	231.648	0.165	0.273
-384.990	-87.198	-0.170	0.052
-383.975	-200.000	-0.019	-0.164
-382.960	735.555	0.085	-0.231
-381.946	800.000	0.025	-0.081
-380.931	-200.000	0.004	0.085
-379.917	800.000	0.081	-0.258
-378.902	17.603	-0.105	-0.084
-377.888	-73.299	-0.273	0.101
-376.873	-137.245	-0.078	0.009
-375.858	778.295	0.127	0.350
-374.844	-42.607	-0.364	0.187
-373.829	-33.383	0.115	-0.064
-372.815	100.984	-0.176	0.206
-371.800	-23.259	0.134	-0.081
-370.785	-171.543	0.258	-0.009
-369.771	56.984	0.331	-0.326
-368.756	143.626	0.030	-0.040
-367.742	-101.312	0.127	-0.031
-366.727	-56.419	-0.313	0.140
-365.712	-200.000	0.074	0.353
-364.698	-200.000	-0.049	0.325
-363.683	-200.000	0.081	-0.377
-362.669	-200.000	0.008	0.311
-361.654	41.549	-0.388	-0.354
-360.639	-5.919	0.097	0.067
-359.625	43.381	0.122	0.112
-358.610	-200.000	0.009	0.257
-357.596	-200.000	-0.005	-0.099
-356.581	800.000	-0.066	0.245
-355.566	272.189	-0.072	0.129
-354.552	-200.000	-0.029	-0.261
-353.537	-200.000	0.044	-0.245
-352.523	-10.053	0.309	-0.207
-351.508	-31.024	-0.317	-0.180
-350.493	136.812	-0.190	-0.250
-349.479	402.346	0.176	0.372
-348.464	29.824	-0.083	0.071
-347.450	39.771	-0.301	0.272
-346.435	-29.057	0.098	0.057
-345.420	-132.201	-0.337	-0.044
-344.406	60.227	-0.073	-0.072
-343.391	-200.000	0.066	0.302
-342.377	-200.000	0.015	0.115
-341.362	-89.597	0.139	0.041
-340.348	-137.210	-0.057	-0.007
-339.333	800.000	0.111	0.368
-338.318	-200.000	-0.004	-0.089
-337.304	14.506	0.136	-0.107
-336.289	288.057	-0.187	-0.340
-335.275	-55.807	-0.042	-0.019
-334.260	-75.663	0.290	0.104
-333.245	-34.371	-0.071	0.039
-332.231	165.057	-0.090	0.127
-331.216	-33.784	0.146	0.081
-330.202	-157.660	0.280	-0.017
-329.187	412.986	-0.141	-0.301
-328.172	11.760	0.207	-0.160
-327.158	-200.000	0.001	-0.020
-326.143	-105.369	0.122	0.028
-325.129	139.496	0.150	-0.199
-324.114	-152.562	0.206	-0.015
-323.099	2.162	0.159	-0.115
-322.085	-52.681	0.147	0.068
-321.070	-77.810	-0.177	0.062
-320.056	418.433	0.040	0.085
-319.041	161.668	0.160	0.226
-318.026	-90.379	0.594	-0.173
-317.012	-200.000	-0.050	0.308
-315.997	-200.000	0.037	0.392
-314.983	186.175	-0.210	-0.314
-313.968	245.690	0.100	-0.169
-312.953	-29.900	-0.219	-0.126
-311.939	68.840	-0.050	0.051
-310.924	-71.419	0.280	0.105
-309.910	256.965	0.170	-0.294
-308.895	135.058	0.161	0.210
-307.880	-34.906	-0.193	-0.106
-306.866	177.045	0.198	-0.290
-305.851	-200.000	-0.030	-0.143
-304.837	-81.116	-0.229	0.076
-303.822	-200.000	0.032	-0.179
-302.807	-90.828	0.380	-0.110
-301.793	-200.000	0.017	-0.385
-300.778	604.492	0.098	0.245
-299.764	-143.239	0.295	-0.029
-298.749	-101.057	0.059	-0.015
-297.735	239.924	-0.084	0.141
-296.720	-200.000	0.052	0.367
-295.705	114.529	-0.129	0.158
-294.691	-148.083	0.137	-0.011
-293.676	626.033	-0.161	-0.407
-292.662	-2.629	0.258	0.181
-291.647	66.625	0.082	0.084
-290.632	230.091	-0.183	0.300
-289.618	-99.912	-0.255	0.064
-288.603	295.480	-0.122	0.224
-287.589	18.899	0.180	0.145
-286.574	-200.000	-0.022	-0.195
-285.559	-135.331	0.174	0.021
-284.545	302.482	-0.136	0.254
-283.530	-114.375	-0.400	0.077
-282.516	-154.217	-0.173	0.012
-281.501	495.009	0.071	0.163
-280.486	-43.907	-0.077	-0.039
-279.472	11.688	0.162	0.125
-278.457	800.000	0.078	-0.334
-277.443	-82.259	0.146	-0.048
-276.428	-200.000	0.025	0.382
-275.413	-96.264	0.143	0.038
-274.399	241.323	-0.123	-0.206
-273.384	16.661	0.148	-0.118
-272.370	800.000	0.016	0.069
-271.355	-200.000	-0.006	-0.148
-270.340	800.000	0.096	-0.284
-269.326	112.432	-0.163	0.198
-268.311	-11.871	-0.234	-0.154
-267.297	-200.000	-0.007	0.058
-266.282	-50.976	0.068	0.032
-265.267	-200.000	0.018	0.175
-264.253	38.710	-0.149	0.133
-263.238	735.760	-0.116	-0.311
-262.224	-109.777	0.115	-0.024
-261.209	-77.830	-0.466	0.162
-260.195	-138.350	0.089	0.010
-259.180	88.389	-0.115	-0.129
-258.165	-200.000	-0.005	0.323
-257.151	-57.877	-0.068	-0.030
-256.136	-71.333	-0.069	-0.026
-255.122	58.140	-0.211	0.207
-254.107	800.000	0.085	0.244
-253.092	-200.000	0.040	-0.207
-252.078	-200.000	0.022	-0.157
-251.063	185.275	0.200	-0.298
-250.049	-200.000	0.016	-0.082
-249.034	-200.000	-0.022	0.280
-248.019	6.714	-0.367	-0.274
-247.005	800.000	0.033	-0.130
-245.990	-53.198	-0.336	0.155
-244.976	-176.818	0.198	0.005
-243.961	-56.917	-0.426	-0.188
-242.946	77.677	0.140	-0.150
-241.932	800.000	-0.025	-0.083
-240.917	-200.000	-0.012	-0.157
-239.903	-200.000	0.018	-0.408
-238.888	262.818	-0.117	-0.203
-237.873	-88.067	0.282	-0.085
-236.859	-94.674	0.233	0.064
-235.844	-99.721	-0.035	-0.009
-234.830	229.138	0.174	0.285
-233.815	800.000	-0.032	-0.092
-232.800	-55.355	0.243	-0.109
-231.786	-200.000	0.009	-0.151
-230.771	520.685	0.045	0.106
-229.757	-200.000	0.044	0.210
-228.742	-64.208	0.213	0.087
-227.727	732.509	0.087	0.233
-226.713	-86.952	-0.570	0.174
-225.698	-200.000	-0.044	-0.351
-224.684	66.344	0.058	0.059
-223.669	-20.213	-0.183	0.113
-222.655	-161.305	0.134	-0.007
-221.640	196.641	-0.118	-0.180
-220.625	-89.750	0.095	-0.028
-219.611	800.000	0.102	-0.285
-218.596	56.227	-0.083	0.081
-217.582	-64.714	0.399	0.162
-216.567	-200.000	-0.012	-0.125
-215.552	-112.786	0.205	-0.041
-214.538	-87.217	0.343	-0.104
-213.523	-146.100	-0.229	0.020
-212.509	10.244	-0.081	-0.061
-211.494	-200.000	0.026	-0.118
-210.479	179.562	-0.116	0.170
-209.465	-200.000	0.006	0.138
-208.450	800.000	0.090	0.267
-207.436	-67.057	0.211	0.083
-206.421	329.277	0.137	-0.263
-205.406	6.068	0.247	0.183
-204.392	261.387	-0.083	0.143
-203.377	800.000	-0.111	-0.355
-202.363	-58.037	0.167	0.073
-201.348	54.529	0.120	0.116
-200.333	-13.565	-0.339	0.220
-199.319	-29.113	-0.293	0.168
-198.304	-95.866	-0.312	0.083
-197.290	91.079	-0.086	-0.097
-196.275	-130.721	0.266	-0.036
-195.260	407.546	-0.062	-0.130
-194.246	-177.537	-0.152	0.004
-193.231	-200.000	0.012	0.091
-192.217	241.519	0.033	-0.054
-191.202	-39.605	-0.310	0.163
-190.187	214.186	-0.125	-0.199
-189.173	290.559	-0.055	0.101
-188.158	-134.370	-0.168	0.021
-187.144	-126.206	0.056	0.008
-186.129	88.451	-0.076	0.084
-185.114	-136.737	0.147	-0.017
-184.100	126.977	0.098	-0.124
-183.085	-155.764	0.179	-0.011
-182.071	448.581	-0.094	0.207
-181.056	204.136	-0.068	-0.105
-180.042	20.634	0.179	-0.145
-179.027	-200.000	0.058	-0.260
-178.012	-200.000	-0.035	0.491
-176.998	-121.678	-0.227	0.038
-175.983	-127.618	-0.299	-0.043
-174.969	1.440	-0.232	0.167
-173.954	-103.292	-0.351	-0.083
-172.939	255.202	0.116	0.199
-171.925	-200.000	0.000	-0.187
-170.910	-91.634	0.281	-0.080
-169.896	-28.515	-0.080	0.046
-168.881	-29.176	0.115	-0.066
-167.866	268.082	0.169	0.296
-166.852	-10.616	-0.042	-0.028
-165.837	-76.758	-0.421	0.147
-164.823	114.981	0.267	-0.325
-163.808	-7.447	0.133	0.090
-162.793	-119.628	-0.080	-0.014
-161.779	-200.000	-0.019	-0.183
-160.764	242.239	-0.112	0.188
-159.750	-63.828	0.315	0.129
-158.735	-84.073	-0.069	0.022
-157.720	800.000	-0.039	0.123
-156.706	-96.696	-0.259	-0.068
-155.691	182.834	-0.131	0.193
-154.677	800.000	0.045	-0.160
-153.662	795.679	-0.044	0.121
-152.647	800.000	0.100	0.332
-151.633	29.090	0.053	-0.045
-150.618	-168.163	0.406	-0.016
-149.604	-200.000	-0.004	0.153
-148.589	85.683	0.175	-0.192
-147.574	190.853	-0.210	-0.315
-146.560	-200.000	0.082	-0.466
-145.545	54.993	0.088	0.085
-144.531	110.272	-0.059	-0.071
-143.516	-98.848	-0.215	-0.055
-142.502	-200.000	-0.036	0.223
-141.487	239.314	-0.056	-0.094
-140.472	0.361	-0.093	0.066
-139.458	41.708	0.173	-0.157
-138.443	800.000	-0.071	-0.199
-137.429	247.521	-0.030	0.051
-136.414	406.239	-0.094	0.198
-135.399	-51.454	0.089	0.041
-134.385	36.782	-0.040	-0.035
-133.370	-164.139	0.222	-0.010
-132.356	-76.576	0.230	0.081
-131.341	800.000	0.062	-0.198
-130.326	234.515	-0.093	-0.153
-129.312	-81.171	0.302	0.100
-128.297	-200.000	-0.080	0.435
-127.283	-200.000	-0.009	-0.064
-126.268	153.070	0.255	-0.348
-125.253	136.581	0.111	0.145
-124.239	-200.000	0.004	-0.126
-123.224	-200.000	0.021	-0.333
-122.210	-18.802	0.202	0.126
-121.195	-72.780	0.316	0.116
-120.180	422.938	-0.053	0.113
-119.166	-49.772	0.175	-0.083
-118.151	-200.000	0.063	0.281
-117.137	280.852	-0.049	0.087
-116.122	-63.150	-0.170	0.070
-115.107	285.899	0.088	-0.158
-114.093	-119.119	0.397	-0.069
-113.078	800.000	-0.074	-0.240
-112.064	-66.639	-0.054	-0.022
-111.049	-200.000	0.014	-0.060
-110.034	-0.886	0.108	-0.076
-109.020	-31.157	0.110	0.062
-108.005	247.928	0.118	-0.199
-106.991	-65.880	0.121	-0.048
-105.976	-149.891	0.068	-0.005
-104.962	-76.433	-0.187	0.066
-103.947	417.188	-0.068	-0.144
-102.932	-200.000	0.018	-0.249
-101.918	109.028	-0.137	-0.164
-100.903	-200.000	0.025	0.242
-99.889	323.547	-0.053	-0.101
-98.874	9.160	-0.236	-0.178
-97.859	-200.000	-0.045	-0.228
-96.845	777.343	-0.158	0.430
-95.830	-16.550	-0.191	-0.121
-94.816	333.396	0.154	-0.296
-93.801	475.947	-0.052	-0.118
-92.786	-2.711	0.105	-0.074
-91.772	284.119	0.050	-0.090
-90.757	336.165	-0.193	0.374
-89.743	242.781	0.050	0.083
-88.728	-200.000	-0.023	-0.307
-87.713	-150.726	-0.184	0.014
-86.699	81.236	-0.147	-0.158
-85.684	602.395	-0.034	0.085
-84.670	94.395	0.142	-0.161
-83.655	-57.427	-0.096	0.042
-82.640	-74.195	-0.175	-0.063
-81.626	-95.795	0.188	-0.050
-80.611	-60.807	0.142	-0.060
-79.597	-200.000	-0.014	-0.210
-78.582	-200.000	0.008	0.417
-77.567	-200.000	-0.022	0.204
-76.553	47.481	0.481	-0.447
-75.538	-200.000	0.006	-0.121
-74.524	-200.000	0.002	-0.198
-73.509	-118.576	0.223	0.039
-72.494	-120.246	0.110	0.019
-71.480	-200.000	0.017	0.175
-70.465	68.859	0.358	0.367
-69.451	-113.755	0.358	-0.070
-68.436	-99.344	0.191	0.048
-67.422	589.576	0.105	-0.259
-66.407	-127.429	0.256	-0.037
-65.392	402.066	0.054	-0.114
-64.378	643.064	0.066	0.168
-63.363	-200.000	-0.013	-0.287
-62.349	76.769	0.155	0.164
-61.334	-22.445	-0.960	-0.579
-60.319	50.062	0.369	0.347
-59.305	-200.000	-0.054	-0.492
-58.290	529.152	0.360	0.847
-57.276	435.179	0.743	1.608
-56.261	-200.000	76.329	514.062
-55.246	505.644	1342.226	3095.774
-54.232	141.977	2593.866	3423.412
-53.217	115.724	2256.125	2746.698
-52.203	52.458	1693.498	1608.932
-51.188	44.289	1414.448	1292.087
-50.173	40.846	1368.298	1228.634
-49.159	58.751	1404.340	1373.167
-48.144	65.381	1422.091	1431.786
-47.130	44.793	1384.880	1268.015
-46.115	40.755	1368.462	1228.028
-45.100	40.461	1363.663	1221.856
-44.086	40.378	1361.436	1219.304
-43.071	40.360	1358.789	1216.772
-42.057	40.273	1356.975	1214.567
-41.042	40.348	1355.082	1213.288
-40.027	40.522	1353.173	1212.594
-39.013	40.498	1351.176	1210.606
-37.998	40.529	1349.605	1209.339
-36.984	40.576	1348.124	1208.254
-35.969	40.733	1346.041	1207.294
-34.954	40.779	1343.891	1205.593
-33.940	40.705	1342.993	1204.295
-32.925	40.701	1341.584	1202.957
-31.911	40.807	1340.351	1202.447
-30.896	40.777	1338.533	1200.589
-29.881	40.725	1337.009	1198.860
-28.867	40.706	1335.603	1197.433
-27.852	40.732	1334.311	1196.383
-26.838	40.711	1332.935	1194.980
-25.823	40.651	1331.609	1193.383
-24.809	40.658	1330.323	1192.224
-23.794	40.713	1328.468	1190.841
-22.779	40.669	1327.241	1189.433
-21.765	40.695	1325.692	1188.150
-20.750	40.759	1324.468	1187.391
-19.736	40.692	1322.739	1185.395
-18.721	40.531	1322.002	1183.726
-17.706	40.676	1321.086	1183.722
-16.692	40.584	1319.497	1181.707
-15.677	40.609	1318.453	1180.874
-14.663	40.568	1317.286	1179.535
-13.648	40.544	1316.016	1178.206
-12.633	40.602	1314.847	1177.457
-11.619	40.635	1314.133	1176.972
-10.604	40.635	1313.284	1176.160
-9.590	40.603	1312.197	1174.954
-8.575	40.556	1311.079	1173.625
-7.560	40.503	1310.530	1172.778
-6.546	40.569	1309.499	1172.197
-5.531	40.599	1308.768	1171.674
-4.517	40.583	1308.002	1170.844
-3.502	40.602	1307.160	1170.158
-2.487	40.617	1305.780	1168.963
-1.473	40.665	1302.322	1166.102
-0.458	39.848	1287.780	1148.287
0.556	34.698	1269.463	1109.694
1.571	30.739	1273.810	1090.256
2.586	29.216	1288.428	1093.640
3.600	27.181	1276.897	1071.771
4.615	23.100	1204.980	988.560
5.629	17.101	1128.838	894.504
6.644	13.887	1107.115	860.577
7.659	13.573	1104.518	856.859
8.673	13.572	1102.963	855.572
9.688	13.389	1101.731	853.597
10.702	13.729	1100.648	854.435
11.717	17.679	1106.203	879.081
12.731	21.759	1111.221	904.080
13.746	20.367	1107.463	893.786
14.761	17.759	1103.215	876.887
15.775	16.443	1100.941	868.243
16.790	15.288	1098.814	860.565
17.804	14.609	1097.108	855.671
18.819	14.054	1095.813	851.744
19.834	13.901	1094.474	849.846
20.848	13.595	1093.670	847.579
21.863	13.284	1092.882	845.305
22.877	13.235	1091.912	844.230
23.892	13.252	1091.140	843.645
24.907	13.209	1090.654	842.976
25.921	13.284	1089.308	842.240
26.936	13.335	1088.158	841.537
27.950	13.367	1086.963	840.701
28.965	13.439	1085.199	839.630
29.980	13.431	1083.761	838.400
30.994	13.577	1082.040	837.734
32.009	13.559	1081.149	836.879
33.023	13.367	1079.939	834.900
34.038	13.294	1079.705	834.275
35.053	13.336	1078.240	833.280
36.067	13.292	1077.401	832.341
37.082	13.321	1077.002	832.102
38.096	13.375	1075.994	831.520
39.111	13.437	1075.330	831.245
40.126	13.366	1073.939	829.742
41.140	13.304	1072.603	828.324
42.155	13.136	1071.711	826.724
43.169	13.270	1069.696	825.764
44.184	13.163	1069.098	824.694
45.199	13.162	1068.074	823.827
46.213	13.177	1067.024	823.020
47.228	13.299	1065.835	822.638
48.242	13.378	1064.132	821.644
49.257	13.312	1063.852	821.025
50.271	13.359	1062.743	820.331
51.286	13.462	1061.502	819.809
52.301	13.283	1061.019	818.478
53.315	13.309	1059.625	817.460
54.330	13.249	1058.874	816.510
55.344	13.383	1057.463	816.012
56.359	13.190	1057.266	814.837
57.374	13.194	1056.224	813.978
58.388	13.160	1055.213	812.961
59.403	13.061	1054.988	812.228
60.417	13.177	1053.896	811.884
61.432	13.136	1052.678	810.675
62.447	13.164	1051.776	810.045
63.461	13.150	1050.691	809.072
64.476	13.077	1050.048	808.148
65.490	12.986	1049.578	807.268
66.505	13.151	1048.637	807.279
67.520	13.209	1047.471	806.593
68.534	13.089	1047.616	806.045
69.549	13.073	1046.459	805.008
70.563	13.155	1045.592	804.671
71.578	13.008	1044.905	803.355
72.593	13.085	1043.777	802.791
73.607	13.019	1043.638	802.292
74.622	13.035	1042.665	801.549
75.636	12.983	1042.142	800.827
76.651	13.060	1041.203	800.407
77.666	12.971	1040.529	799.387
78.680	13.016	1040.006	799.129
79.695	13.119	1039.025	798.804
80.709	13.055	1038.578	798.080
81.724	13.097	1038.034	797.794
82.739	13.176	1037.286	797.534
83.753	13.262	1036.507	797.277
84.768	13.386	1035.203	796.799
85.782	13.422	1034.514	796.373
86.797	13.339	1034.027	795.530
87.812	13.300	1032.919	794.418
88.826	13.346	1031.424	793.419
89.841	13.386	1030.700	792.985
90.855	13.344	1029.966	792.145
91.870	13.437	1028.870	791.678
92.884	13.387	1027.936	790.651
93.899	13.397	1027.459	790.261
94.914	13.556	1026.323	790.077
95.928	13.505	1025.506	789.134
96.943	13.457	1024.771	788.270
97.957	13.461	1024.086	787.691
98.972	13.359	1023.009	786.309
99.987	13.485	1022.040	786.094
101.001	13.407	1021.121	784.947
102.016	13.446	1020.070	784.254
103.030	13.374	1019.582	783.468
104.045	13.370	1018.894	782.853
105.060	13.313	1017.715	781.607
106.074	13.208	1016.684	780.250
107.089	13.165	1015.902	779.379
108.103	13.301	1014.496	778.874
109.118	13.105	1013.551	777.154
110.133	13.169	1013.101	777.041
111.147	13.194	1011.890	776.163
112.162	13.178	1010.886	775.247
113.176	13.199	1010.616	775.072
114.191	13.202	1009.634	774.264
115.206	13.245	1008.840	773.786
116.220	13.305	1007.965	773.331
117.235	13.320	1006.864	772.486
118.249	13.364	1006.012	771.969
119.264	13.320	1005.153	771.036
120.279	13.149	1004.739	769.853
121.293	13.226	1003.629	769.292
122.308	13.169	1002.957	768.446
123.322	13.104	1001.892	767.258
124.337	13.184	1000.686	766.642
125.352	13.347	999.309	766.274
126.366	13.237	998.250	764.883
127.381	13.112	997.341	763.541
128.395	13.224	996.828	763.597
129.410	13.341	995.673	763.185
130.424	13.304	994.802	762.279
131.439	13.509	993.630	762.260
132.454	13.428	993.192	761.481
133.468	13.429	992.564	760.936
134.483	13.514	991.270	760.270
135.497	13.468	990.836	759.659
136.512	13.380	990.101	758.622
137.527	13.386	989.174	757.876
138.541	13.429	988.394	757.405
139.556	13.384	987.654	756.567
140.570	13.546	986.718	756.522
141.585	13.591	986.116	756.199
142.600	13.693	984.674	755.491
143.614	13.549	984.023	754.270
144.629	13.522	983.622	753.773
145.643	13.560	982.777	753.231
146.658	13.554	981.395	752.079
147.673	13.448	980.601	750.923
148.687	13.480	979.740	750.340
149.702	13.337	978.922	749.001
150.716	13.408	978.213	748.713
151.731	13.456	977.191	748.082
152.746	13.466	976.527	747.552
153.760	13.481	975.885	747.063
154.775	13.567	975.195	746.856
155.789	13.506	974.719	746.150
156.804	13.521	973.609	745.304
157.819	13.591	973.015	745.096
158.833	13.802	972.200	745.353
159.848	13.665	971.932	744.468
160.862	13.626	970.996	743.510
161.877	13.600	969.814	742.422
162.892	13.543	968.904	741.405
163.906	13.429	967.719	739.922
164.921	13.458	967.209	739.597
165.935	13.468	966.269	738.857
166.950	13.447	965.374	738.014
167.964	13.549	964.555	737.777
168.979	13.611	963.482	737.169
169.994	13.624	962.695	736.557
171.008	13.531	962.073	735.604
172.023	13.526	961.209	734.855
173.037	13.643	960.748	734.956
174.052	13.756	959.941	734.776
175.067	13.649	959.260	733.717
176.081	13.381	958.955	732.230
177.096	13.658	957.833	732.535
178.110	13.599	957.587	732.019
179.125	13.570	957.066	731.428
180.140	13.572	956.561	730.985
181.154	13.759	955.767	731.139
182.169	13.820	955.240	730.940
183.183	13.910	954.492	730.700
184.198	13.818	953.580	729.531
185.213	13.755	952.811	728.603
186.227	13.904	952.401	728.881
187.242	13.781	951.634	727.687
188.256	13.966	950.697	727.719
189.271	13.906	949.899	726.779
190.286	13.811	948.947	725.570
191.300	13.695	948.413	724.592
192.315	13.594	948.088	723.839
193.329	13.676	947.358	723.578
194.344	13.690	947.107	723.379
195.359	13.700	945.913	722.449
196.373	13.827	945.590	722.691
197.388	14.025	945.011	723.047
198.402	13.880	944.475	721.943
199.417	13.958	944.146	721.964
200.432	14.099	943.009	721.645
201.446	14.168	942.578	721.547
202.461	14.209	942.277	721.435
203.475	14.201	941.572	720.792
204.490	14.118	940.736	719.731
205.504	14.046	940.009	718.802
206.519	14.072	939.568	718.514
207.534	14.173	938.594	718.138
208.548	14.009	938.162	717.038
209.563	14.188	937.636	717.346
210.577	14.214	936.584	716.586
211.592	14.316	935.780	716.347
212.607	14.290	935.130	715.677
213.621	14.065	934.831	714.418
214.636	14.039	934.059	713.650
215.650	14.105	933.496	713.441
216.665	14.344	932.301	713.488
217.680	14.401	931.705	713.214
218.694	14.408	930.787	712.478
219.709	14.282	930.567	711.707
220.723	14.373	929.693	711.366
221.738	14.327	929.332	710.831
222.753	14.265	928.374	709.769
223.767	14.381	927.768	709.738
224.782	14.446	927.475	709.727
225.796	14.420	926.725	708.981
226.811	14.514	925.863	708.659
227.826	14.538	924.950	707.997
228.840	14.308	924.496	706.612
229.855	14.392	923.263	705.964
230.869	14.433	922.680	705.629
231.884	14.424	922.176	705.142
232.899	14.315	921.981	704.472
233.913	14.345	920.744	703.587
234.928	14.415	920.122	703.348
235.942	14.418	919.804	703.056
236.957	14.333	919.219	702.187
237.972	14.327	918.416	701.485
238.986	14.348	918.051	701.231
240.001	14.369	917.002	700.458
241.015	14.533	916.401	700.624
242.030	14.515	916.034	700.206
243.045	14.490	915.473	699.613
244.059	14.510	914.903	699.198
245.074	14.609	913.902	698.788
246.088	14.603	913.363	698.286
247.103	14.782	912.286	698.150
248.117	14.796	912.015	697.941
249.132	14.781	911.570	697.475
250.147	14.860	910.817	697.168
251.161	14.886	909.936	696.537
252.176	14.895	909.361	696.073
253.190	14.946	908.921	695.889
254.205	15.011	908.003	695.393
255.220	15.032	907.442	694.991
256.234	14.952	906.625	693.971
257.249	14.936	906.100	693.440
258.263	15.000	905.408	693.116
259.278	14.863	904.788	692.012
260.293	15.079	904.055	692.282
261.307	15.136	903.556	692.074
262.322	15.042	902.991	691.191
263.336	15.123	902.040	690.738
264.351	15.080	901.707	690.243
265.366	15.285	900.520	690.119
266.380	15.079	900.173	688.947
267.395	15.163	899.527	688.736
268.409	15.113	898.756	687.876
269.424	15.162	897.745	687.246
270.439	15.206	896.635	686.515
271.453	15.097	896.279	685.735
272.468	15.225	895.633	685.701
273.482	15.149	895.449	685.189
274.497	15.041	894.948	684.307
275.512	15.236	894.096	684.390
276.526	15.232	893.574	683.912
277.541	15.330	892.769	683.637
278.555	15.251	892.767	683.254
279.570	15.353	891.738	682.819
280.585	15.515	890.819	682.715
281.599	15.404	890.345	681.839
282.614	15.305	889.674	680.862
283.628	15.303	889.334	680.534
284.643	15.375	888.321	679.993
285.657	15.465	887.294	679.508
286.672	15.329	887.203	678.828
287.687	15.294	886.843	678.352
288.701	15.480	886.019	678.411
289.716	15.432	885.251	677.573
290.730	15.402	884.763	677.016
291.745	15.483	884.177	676.835
292.760	15.540	883.556	676.528
293.774	15.542	883.001	676.051
294.789	15.448	882.363	675.128
295.803	15.488	881.553	674.606
296.818	15.575	880.502	674.091
297.833	15.543	880.102	673.599
298.847	15.640	879.215	673.248
299.862	15.462	879.307	672.546
300.876	15.502	878.640	672.137
301.891	15.603	877.736	671.788
302.906	15.566	877.286	671.237
303.920	15.728	876.865	671.505
304.935	15.794	876.301	671.275
305.949	15.837	875.393	670.693
306.964	15.653	875.161	669.723
307.979	15.621	874.400	668.954
308.993	15.813	873.705	669.124
310.008	15.866	873.202	668.891
311.022	15.820	872.373	668.013
312.037	15.795	872.148	667.683
313.052	15.695	871.147	666.461
314.066	15.856	870.892	666.847
315.081	15.693	870.300	665.687
316.095	15.600	869.755	664.844
317.110	15.664	869.031	664.485
318.125	15.673	868.336	663.931
319.139	15.731	867.881	663.751
320.154	15.891	867.497	664.030
321.168	15.832	866.849	663.245
322.183	15.844	866.529	662.986
323.197	15.877	865.921	662.592
324.212	15.949	865.530	662.519
325.227	15.937	864.400	661.548
326.241	15.821	864.388	661.026
327.256	15.821	863.684	660.431
328.270	15.911	862.893	660.117
329.285	15.958	862.338	659.818
330.300	15.953	861.641	659.207
331.314	16.011	861.007	658.891
332.329	16.000	860.616	658.492
333.343	15.939	860.389	658.022
334.358	16.012	859.927	657.896
335.373	15.989	859.350	657.304
336.387	16.072	859.338	657.562
337.402	16.081	858.931	657.225
338.416	16.203	858.237	657.111
339.431	16.187	858.458	657.159
340.446	16.333	857.505	656.941
341.460	16.155	856.923	655.746
342.475	16.255	856.847	656.018
343.489	16.375	856.116	655.868
344.504	16.283	855.949	655.324
345.519	16.285	855.657	655.051
346.533	16.257	855.032	654.404
347.548	16.361	854.096	654.033
348.562	16.341	853.838	653.699
349.577	16.309	853.438	653.213
350.592	16.205	852.906	652.343
351.606	16.241	851.811	651.588
352.621	16.223	851.006	650.846
353.635	16.372	850.045	650.628
354.650	16.289	850.060	650.261
355.665	16.326	849.138	649.642
356.679	16.352	848.950	649.538
357.694	16.282	848.267	648.692
358.708	16.464	847.317	648.604
359.723	16.428	846.643	647.893
360.738	16.363	846.221	647.264
361.752	16.501	845.510	647.191
362.767	16.574	845.124	647.117
363.781	16.621	844.402	646.690
364.796	16.591	844.226	646.381
365.810	16.760	843.489	646.405
366.825	16.733	843.149	645.986
367.840	16.753	842.883	645.800
368.854	16.631	842.641	645.091
369.869	16.560	841.953	644.238
370.883	16.717	841.601	644.510
371.898	16.745	840.727	643.888
372.913	16.811	840.345	643.792
373.927	16.829	840.055	643.578
374.942	16.643	839.655	642.511
375.956	16.705	839.391	642.486
376.971	16.981	838.722	642.963
377.986	16.894	838.617	642.497
379.000	16.964	837.907	642.159
380.015	16.944	837.398	641.637
381.029	16.981	836.636	641.138
382.044	16.972	836.066	640.609
383.059	17.023	835.472	640.292
384.073	16.951	835.333	639.855
385.088	16.920	834.201	638.816
386.102	16.912	834.027	638.595
387.117	16.887	833.364	637.937
388.132	17.049	832.624	637.924
389.146	17.032	832.017	637.337
390.161	16.940	832.201	637.076
391.175	17.127	831.246	636.991
392.190	16.940	830.615	635.749
393.205	17.101	829.673	635.577
394.219	17.105	829.706	635.559
395.234	17.022	829.517	635.048
396.248	16.878	829.316	634.298
397.263	16.991	828.195	633.810
398.278	16.928	828.102	633.445
399.292	16.846	827.988	632.996
400.307	16.998	827.318	632.996
401.321	17.002	826.736	632.509
402.336	16.961	826.095	631.808
403.350	17.046	825.886	631.908
404.365	17.110	825.593	631.869
405.380	17.265	824.698	631.702
406.394	17.279	824.106	631.244
407.409	17.262	823.671	630.796
408.423	17.312	823.566	630.844
409.438	17.155	823.616	630.242
410.453	17.309	822.696	630.055
411.467	17.436	822.156	630.057
412.482	17.517	821.815	630.039
413.496	17.390	821.569	629.323
414.511	17.448	821.272	629.256
415.526	17.559	820.329	628.885
416.540	17.459	820.107	628.290
417.555	17.364	819.948	627.763
418.569	17.532	819.163	627.727
419.584	17.458	818.945	627.232
420.599	17.546	818.362	627.054
421.613	91.988	1267.511	1375.349
422.628	78.986	1332.972	1375.469
