DTS Sentinel unit serial number:	SN413079Multiplexer serial number:	ORYXHardware model number:	OX4-SRSoftware version number:	ORYX F/W v4.00 Oryx Data Collector v3.7.2.0data status	okinstallation	princeton_trtdifferential loss correction	single-endedforward channel	channel 1reverse channel	N/Adate	2019/09/12time	19:05:34forward acquisition time	15.00reverse acquisition time	0.00gamma	496.2192k internal	0.2320k external	0.2320temperature offset calibration	1.0104default loss term (dB/km)	0.3790temperature slope calibration	1.0000multiplexer offset coefficient	1.0000multiplexer slope coefficient	1.0000fibre end	0.00T internal ref (°C)	32.69T ext. ref 1 (°C)	3.04T ext. ref 2 (°C)	27.17length (m)	temperature (°C)	Stokes	anti-Stokes-747.200	-18.447	-0.169	0.107
-746.185	-107.083	0.864	-0.193
-745.171	-45.975	-0.901	-0.450
-744.156	-200.000	-0.531	0.003
-743.142	-140.559	-0.667	0.070
-742.127	-200.000	-0.026	0.495
-741.112	-30.505	-0.153	-0.087
-740.098	-54.637	-0.331	-0.151
-739.083	800.000	0.170	0.656
-738.069	-139.058	-0.038	-0.004
-737.054	-88.045	-0.640	0.194
-736.039	-142.870	-0.966	0.095
-735.025	376.039	0.407	0.840
-734.010	81.282	0.298	-0.325
-732.996	-166.595	-0.677	-0.028
-731.981	-200.000	-0.048	-0.315
-730.966	61.566	0.370	-0.372
-729.952	800.000	-0.150	0.598
-728.937	800.000	0.062	0.198
-727.923	317.337	-0.358	-0.685
-726.908	-163.023	1.060	-0.052
-725.894	225.429	0.031	0.051
-724.879	-200.000	0.061	-0.307
-723.864	658.876	0.195	-0.507
-722.850	243.822	-0.414	0.701
-721.835	139.126	0.470	-0.625
-720.821	-70.188	-0.336	-0.129
-719.806	29.024	-0.389	0.333
-718.791	-131.969	-0.431	0.057
-717.777	469.331	0.123	-0.279
-716.762	-200.000	-0.019	-0.634
-715.748	-90.087	-0.709	-0.209
-714.733	-130.486	0.379	-0.052
-713.718	-200.000	0.009	0.561
-712.704	50.136	-0.577	-0.550
-711.689	651.334	0.177	0.458
-710.675	-35.199	0.607	-0.334
-709.660	-51.460	-0.331	-0.156
-708.645	-29.661	0.271	0.156
-707.631	10.440	-0.349	-0.268
-706.616	-60.181	-0.574	0.247
-705.602	196.831	0.189	-0.292
-704.587	8.484	-0.488	-0.371
-703.572	15.774	1.079	0.857
-702.558	32.162	-0.031	0.027
-701.543	164.472	0.079	0.113
-700.529	8.736	-0.276	-0.210
-699.514	-200.000	0.057	-0.491
-698.499	-200.000	0.026	0.121
-697.485	-196.877	-0.091	0.001
-696.470	261.131	0.147	-0.257
-695.456	800.000	0.127	-0.378
-694.441	-147.516	-0.655	0.056
-693.426	-200.000	0.026	0.141
-692.412	-200.000	0.001	0.231
-691.397	307.175	0.104	-0.196
-690.383	173.255	0.213	0.310
-689.368	-11.455	0.138	-0.091
-688.354	449.285	0.088	0.197
-687.339	-157.899	0.422	0.025
-686.324	49.959	-0.340	0.323
-685.310	800.000	0.175	0.516
-684.295	217.554	-0.435	0.699
-683.281	-173.742	-0.418	0.013
-682.266	-143.849	-0.741	-0.071
-681.251	227.995	-0.185	0.304
-680.237	-31.164	-0.510	0.290
-679.222	31.886	-0.390	-0.339
-678.208	62.028	0.134	0.135
-677.193	95.695	-0.252	0.290
-676.178	-81.979	-0.373	0.123
-675.164	-72.308	-0.255	-0.095
-674.149	16.642	0.342	-0.273
-673.135	-200.000	0.007	0.338
-672.120	259.839	-0.256	-0.446
-671.105	-14.248	-0.200	-0.130
-670.091	800.000	0.169	0.592
-669.076	-200.000	-0.046	0.519
-668.062	0.584	0.510	-0.368
-667.047	152.766	-0.675	-0.930
-666.032	2.486	-0.196	-0.143
-665.018	284.278	0.228	-0.414
-664.003	270.363	0.323	-0.572
-662.989	800.000	-0.119	0.379
-661.974	-200.000	-0.035	0.368
-660.959	800.000	0.082	-0.245
-659.945	110.163	-0.218	0.264
-658.930	-13.845	0.817	-0.533
-657.916	366.797	-0.381	0.774
-656.901	-138.942	0.357	-0.039
-655.886	58.982	-0.619	0.614
-654.872	417.037	-0.151	0.325
-653.857	-110.740	-0.430	-0.089
-652.843	-88.173	-0.722	0.218
-651.828	-57.291	-0.475	-0.211
-650.814	800.000	0.145	-0.478
-649.799	-76.358	0.664	-0.236
-648.784	-92.687	-0.453	-0.128
-647.770	-66.263	-0.526	0.211
-646.755	-107.450	0.809	0.179
-645.741	-57.476	0.500	0.221
-644.726	220.491	-0.545	-0.881
-643.711	-124.750	0.231	-0.036
-642.697	-200.000	-0.077	-0.475
-641.682	-200.000	-0.036	0.533
-640.668	0.218	-0.571	0.410
-639.653	508.314	0.287	-0.672
-638.638	38.660	-0.579	0.521
-637.624	228.928	-0.282	0.464
-636.609	-200.000	-0.050	-0.477
-635.595	47.571	0.406	0.382
-634.580	11.101	-0.341	-0.263
-633.565	749.301	-0.126	0.342
-632.551	-15.286	0.402	-0.259
-631.536	-200.000	-0.144	0.997
-630.522	-158.914	0.585	0.034
-629.507	707.977	-0.234	0.622
-628.492	-200.000	0.042	-0.867
-627.478	515.286	-0.251	-0.590
-626.463	-200.000	0.072	1.242
-625.449	507.267	-0.232	0.542
-624.434	57.102	-0.490	0.481
-623.419	-16.050	0.237	0.151
-622.405	275.283	-0.338	0.603
-621.390	-79.689	-0.197	-0.067
-620.376	49.592	0.338	-0.320
-619.361	800.000	-0.164	-0.497
-618.346	233.882	0.148	-0.245
-617.332	-200.000	-0.010	0.336
-616.317	-200.000	0.080	-0.615
-615.303	-200.000	-0.075	-0.516
-614.288	-14.721	0.410	-0.265
-613.273	62.301	0.155	-0.156
-612.259	-191.924	0.999	-0.010
-611.244	800.000	-0.093	-0.301
-610.230	-178.689	0.796	0.018
-609.215	224.609	-0.331	0.538
-608.201	54.760	-0.461	0.447
-607.186	336.909	0.276	-0.539
-606.171	-109.774	-0.396	-0.084
-605.157	455.056	0.179	0.399
-604.142	204.664	0.209	0.327
-603.128	-31.260	0.531	0.301
-602.113	-25.158	-0.464	0.277
-601.098	82.697	-0.621	0.679
-600.084	520.332	0.150	0.354
-599.069	100.118	0.166	0.194
-598.055	-12.030	0.551	-0.363
-597.040	-200.000	-0.094	-0.581
-596.025	100.294	-0.063	0.074
-595.011	65.375	0.135	0.138
-593.996	-56.498	0.833	0.371
-592.982	-200.000	0.031	0.987
-591.967	-200.000	-0.124	-1.109
-590.952	-189.772	-0.642	0.007
-589.938	-190.397	-0.230	-0.003
-588.923	-51.515	-0.365	-0.171
-587.909	774.339	0.173	-0.475
-586.894	53.371	0.429	-0.413
-585.879	-82.213	-1.025	-0.336
-584.865	102.936	-0.222	0.261
-583.850	70.633	0.561	-0.583
-582.836	-61.847	-0.854	-0.359
-581.821	800.000	-0.092	0.387
-580.806	-200.000	-0.085	-0.378
-579.792	52.686	-0.438	-0.421
-578.777	-120.551	0.522	0.089
-577.763	14.334	0.323	-0.253
-576.748	-47.550	-0.490	-0.239
-575.733	-133.691	1.209	-0.152
-574.719	169.296	-0.484	0.694
-573.704	668.532	0.088	0.228
-572.690	-90.204	-0.219	0.064
-571.675	218.479	-0.349	-0.560
-570.661	216.143	-0.410	-0.655
-569.646	170.657	0.470	-0.676
-568.631	559.668	-0.449	-1.090
-567.617	210.237	0.354	-0.558
-566.602	-17.325	0.482	-0.305
-565.588	-1.970	0.166	0.117
-564.573	-3.190	-0.450	0.315
-563.558	41.392	0.059	0.053
-562.544	-121.620	0.549	-0.091
-561.529	-5.275	0.611	0.422
-560.515	800.000	-0.111	0.387
-559.500	-200.000	-0.096	0.519
-558.485	383.551	0.312	-0.645
-557.471	-153.692	0.541	0.037
-556.456	-9.111	0.594	0.399
-555.442	-200.000	-0.082	0.604
-554.427	-103.591	-0.204	-0.048
-553.412	200.071	0.327	-0.505
-552.398	87.830	-0.420	0.467
-551.383	50.412	-0.370	0.351
-550.369	-2.385	-0.445	-0.313
-549.354	-78.875	0.381	-0.130
-548.339	-82.337	0.414	0.135
-547.325	-8.398	0.516	-0.348
-546.310	-99.655	-0.424	-0.107
-545.296	-25.864	0.256	0.151
-544.281	-200.000	0.040	0.223
-543.266	5.412	0.551	0.408
-542.252	800.000	-0.035	-0.104
-541.237	-124.334	-0.553	-0.087
-540.223	-26.449	-0.611	-0.359
-539.208	-26.689	-0.652	0.383
-538.193	97.090	-0.152	-0.175
-537.179	84.675	-0.358	-0.394
-536.164	-200.000	0.051	-0.664
-535.150	22.853	-0.403	-0.331
-534.135	349.302	0.234	-0.464
-533.121	280.027	0.130	0.233
-532.106	35.332	0.759	-0.667
-531.091	-200.000	-0.024	0.219
-530.077	800.000	-0.223	-0.659
-529.062	274.234	0.294	-0.521
-528.048	-22.381	0.469	-0.285
-527.033	-200.000	0.177	-0.796
-526.018	800.000	-0.174	0.579
-525.004	72.796	0.917	0.960
-523.989	108.165	0.189	0.226
-522.975	-151.873	0.360	0.026
-521.960	56.782	0.308	0.300
-520.945	-13.531	0.105	-0.068
-519.931	-142.749	-0.333	0.033
-518.916	-148.011	-0.723	0.060
-517.902	16.141	-0.804	0.635
-516.887	-49.324	0.508	0.243
-515.872	-97.083	0.396	0.104
-514.858	-200.000	0.072	-0.564
-513.843	60.662	0.296	-0.295
-512.829	320.911	-0.383	-0.730
-511.814	51.588	0.208	-0.198
-510.799	115.965	-0.169	0.207
-509.785	39.097	0.061	-0.055
-508.770	42.073	0.972	-0.884
-507.756	-96.722	0.183	0.048
-506.741	242.370	-0.244	-0.409
-505.726	-82.774	-0.451	0.146
-504.712	800.000	-0.119	0.357
-503.697	-9.751	-0.339	0.226
-502.683	-109.890	-0.081	-0.017
-501.668	36.985	0.104	0.092
-500.653	-200.000	-0.082	0.626
-499.639	-148.169	1.099	0.091
-498.624	800.000	-0.071	0.218
-497.610	-200.000	0.041	-0.385
-496.595	-119.721	0.022	-0.004
-495.581	-79.209	-0.485	0.165
-494.566	-155.033	-0.444	-0.029
-493.551	783.376	0.086	-0.235
-492.537	96.463	-0.441	-0.505
-491.522	151.647	0.491	0.670
-490.508	-18.418	0.571	-0.357
-489.493	-64.658	-0.233	0.095
-488.478	272.245	-0.277	0.489
-487.464	-105.274	-0.192	0.044
-486.449	202.739	0.305	-0.472
-485.435	-121.106	0.538	-0.090
-484.420	800.000	0.381	1.172
-483.405	-141.851	0.189	-0.019
-482.391	-200.000	-0.053	-0.478
-481.376	30.381	-0.813	0.695
-480.362	58.432	0.262	0.258
-479.347	800.000	-0.230	0.641
-478.332	-200.000	0.075	0.660
-477.318	11.064	0.632	0.484
-476.303	-109.874	-0.360	-0.076
-475.289	-101.857	-0.627	-0.152
-474.274	-84.159	-0.152	-0.048
-473.259	800.000	0.219	0.793
-472.245	-200.000	-0.036	-0.615
-471.230	800.000	-0.205	-0.834
-470.216	37.694	-0.301	0.268
-469.201	-34.856	1.221	-0.667
-468.186	-92.663	-0.279	-0.078
-467.172	-200.000	-0.017	0.780
-466.157	759.197	-0.101	0.274
-465.143	-33.377	0.460	0.254
-464.128	317.656	0.154	-0.292
-463.113	51.449	0.574	0.545
-462.099	79.630	0.181	-0.194
-461.084	450.353	0.080	0.176
-460.070	-200.000	0.120	-0.760
-459.055	-128.447	0.428	0.061
-458.040	551.220	-0.575	1.380
-457.026	124.132	-0.455	0.571
-456.011	-13.645	0.184	-0.119
-454.997	-100.237	1.075	-0.267
-453.982	-58.108	-0.581	-0.253
-452.968	800.000	-0.155	-0.459
-451.953	-200.000	-0.067	-0.608
-450.938	-63.807	0.415	-0.170
-449.924	-200.000	0.048	0.528
-448.909	-200.000	-0.019	-0.286
-447.895	-91.496	-0.546	-0.156
-446.880	-200.000	-0.012	0.428
-445.865	16.325	-0.105	-0.083
-444.851	-37.612	0.745	-0.397
-443.836	409.836	0.266	0.564
-442.822	800.000	-0.180	-0.754
-441.807	-102.679	0.226	-0.054
-440.792	-15.759	-1.073	-0.683
-439.778	-200.000	0.025	0.143
-438.763	234.674	-0.454	0.749
-437.749	-6.026	0.198	0.135
-436.734	-84.974	-0.701	0.220
-435.719	356.103	-0.232	0.461
-434.705	277.879	-0.222	-0.396
-433.690	-126.065	0.315	0.047
-432.676	169.119	-0.259	0.370
-431.661	-4.202	0.387	-0.268
-430.646	504.728	0.194	-0.450
-429.632	170.352	0.389	0.556
-428.617	-175.953	-0.761	0.020
-427.603	800.000	-0.126	-0.389
-426.588	234.144	-0.714	-1.176
-425.573	-200.000	0.083	-0.829
-424.559	317.723	0.113	-0.214
-423.544	-172.828	0.604	0.019
-422.530	140.362	0.495	-0.652
-421.515	240.199	-0.339	0.564
-420.500	19.067	0.186	-0.149
-419.486	-7.937	-0.410	-0.276
-418.471	42.321	0.322	0.292
-417.457	-55.890	0.768	-0.342
-416.442	-123.303	-0.418	-0.067
-415.428	-115.239	-0.660	0.125
-414.413	-200.000	0.056	-1.396
-413.398	800.000	-0.123	0.516
-412.384	-116.855	0.140	-0.026
-411.369	23.514	0.048	0.039
-410.355	-31.669	0.220	0.123
-409.340	29.425	-0.287	0.243
-408.325	8.984	-0.250	-0.188
-407.311	256.050	0.168	0.287
-406.296	53.062	0.847	0.809
-405.282	-96.675	-0.331	0.087
-404.267	165.535	-0.440	-0.621
-403.252	12.950	-0.684	0.528
-402.238	26.365	-0.302	0.252
-401.223	-200.000	0.081	0.606
-400.209	146.346	0.139	0.187
-399.194	800.000	0.242	0.722
-398.179	101.248	0.329	-0.382
-397.165	15.257	0.236	0.185
-396.150	195.713	0.422	-0.640
-395.136	-200.000	-0.291	-1.328
-394.121	-88.002	0.457	0.137
-393.106	102.159	-0.708	-0.825
-392.092	-32.582	-0.213	-0.118
-391.077	390.014	0.492	1.017
-390.063	-200.000	0.175	-1.023
-389.048	120.935	-0.098	-0.121
-388.033	-200.000	-0.109	-1.023
-387.019	-200.000	-0.113	-0.703
-386.004	800.000	0.155	0.606
-384.990	-189.942	-0.473	-0.005
-383.975	-105.721	-0.428	-0.097
-382.960	-101.576	-0.647	0.157
-381.946	-168.522	-0.604	0.023
-380.931	-116.735	0.308	-0.056
-379.917	55.622	0.676	-0.653
-378.902	800.000	0.240	0.741
-377.888	-200.000	-0.011	0.253
-376.873	-100.843	0.611	0.150
-375.858	294.637	-0.094	0.171
-374.844	-16.837	-0.203	-0.128
-373.829	-13.778	0.512	0.330
-372.815	177.570	0.401	-0.583
-371.800	-28.013	0.479	-0.276
-370.785	158.403	0.235	-0.325
-369.771	510.835	0.090	0.208
-368.756	-156.365	0.108	0.007
-367.742	-159.142	-0.465	-0.026
-366.727	-30.240	-0.469	0.266
-365.712	363.499	0.196	0.393
-364.698	181.670	-0.507	-0.743
-363.683	800.000	-0.150	0.586
-362.669	-52.506	0.559	-0.258
-361.654	-200.000	0.025	0.628
-360.639	8.734	0.315	-0.236
-359.625	-124.671	0.057	0.009
-358.610	7.851	0.345	-0.258
-357.596	-30.818	0.700	0.394
-356.581	-200.000	-0.120	-0.876
-355.566	-55.513	-0.442	0.197
-354.552	-125.173	0.278	0.042
-353.537	-90.637	0.551	-0.159
-352.523	453.753	0.243	0.536
-351.508	-200.000	-0.093	0.967
-350.493	42.699	0.120	-0.109
-349.479	74.722	-0.277	0.290
-348.464	800.000	0.241	-0.867
-347.450	-139.272	0.117	-0.013
-346.435	-200.000	-0.021	-1.064
-345.420	453.512	-0.354	-0.781
-344.406	800.000	-0.108	-0.425
-343.391	93.356	0.385	0.433
-342.377	-127.927	-0.559	0.080
-341.362	-200.000	0.069	0.654
-340.348	800.000	-0.117	0.416
-339.333	-200.000	0.157	1.228
-338.318	-29.932	-0.297	0.168
-337.304	153.256	-0.178	0.243
-336.289	-200.000	-0.073	1.201
-335.275	343.725	0.153	-0.298
-334.260	116.024	-0.316	-0.385
-333.245	223.273	-0.464	-0.745
-332.231	-125.747	-1.039	0.156
-331.216	190.206	-0.315	-0.471
-330.202	360.735	-0.388	-0.774
-329.187	-98.211	-0.111	-0.028
-328.172	3.437	-0.804	-0.583
-327.158	-200.000	-0.041	1.157
-326.143	344.995	0.157	-0.307
-325.129	-200.000	-0.021	-0.132
-324.114	407.831	0.392	0.824
-323.099	-147.179	0.388	-0.033
-322.085	-149.704	0.029	0.002
-321.070	-200.000	-0.019	-0.330
-320.056	487.638	0.201	-0.456
-319.041	-58.895	0.618	-0.266
-318.026	-83.805	0.640	-0.203
-317.012	-140.799	0.708	0.073
-315.997	66.328	-0.483	0.488
-314.983	-32.639	0.517	-0.286
-313.968	-32.059	0.405	0.226
-312.953	-13.802	0.423	-0.272
-311.939	-200.000	-0.011	0.335
-310.924	-108.001	-0.408	0.088
-309.910	-1.039	0.308	-0.217
-308.895	454.118	-0.097	-0.213
-307.880	-200.000	-0.064	0.808
-306.866	-92.486	0.224	-0.063
-305.851	17.373	-0.854	0.674
-304.837	-200.000	0.127	0.829
-303.822	800.000	-0.192	0.760
-302.807	-22.485	-0.524	0.315
-301.793	-105.504	-0.391	0.088
-300.778	35.781	0.196	0.171
-299.764	245.417	-0.501	0.839
-298.749	-123.338	-0.266	-0.042
-297.735	-37.091	-0.555	-0.295
-296.720	-106.943	-0.331	-0.073
-295.705	-200.000	-0.010	0.374
-294.691	-54.217	-0.169	-0.076
-293.676	187.345	0.408	0.604
-292.662	-22.115	0.394	-0.237
-291.647	-56.931	-0.560	0.246
-290.632	-200.000	-0.006	-0.262
-289.618	-28.065	-0.777	0.447
-288.603	-200.000	-0.025	-0.438
-287.589	-104.613	-0.450	0.103
-286.574	-10.397	0.577	0.380
-285.559	-14.895	-0.739	0.471
-284.545	216.445	0.054	0.086
-283.530	410.280	0.264	-0.555
-282.516	22.895	0.386	0.314
-281.501	358.928	-0.153	-0.303
-280.486	9.524	-0.510	-0.384
-279.472	800.000	-0.149	0.620
-278.457	800.000	-0.229	-0.738
-277.443	800.000	-0.058	-0.199
-276.428	-92.346	-0.449	-0.126
-275.413	109.215	-0.092	-0.109
-274.399	-200.000	-0.002	0.271
-273.384	-60.498	0.531	-0.224
-272.370	-155.216	-0.967	0.063
-271.355	14.167	-0.267	-0.206
-270.340	161.555	0.346	-0.481
-269.326	134.439	0.203	-0.262
-268.311	800.000	0.140	-0.563
-267.297	-7.047	0.590	-0.398
-266.282	24.412	0.502	0.412
-265.267	148.658	0.108	-0.145
-264.253	501.100	0.404	-0.925
-263.238	-200.000	-0.052	0.279
-262.224	1.735	-0.784	0.560
-261.209	101.949	0.018	-0.021
-260.195	-74.473	-0.539	-0.193
-259.180	411.718	0.146	0.307
-258.165	-93.162	-0.426	-0.118
-257.151	183.725	0.485	0.711
-256.136	153.445	-0.152	-0.207
-255.122	20.786	0.347	-0.279
-254.107	-68.256	-0.233	-0.090
-253.092	-200.000	-0.013	-0.215
-252.078	800.000	0.189	-0.558
-251.063	-41.920	0.238	-0.121
-250.049	-142.393	0.683	-0.067
-249.034	-1.965	0.738	-0.515
-248.019	39.848	-0.291	0.259
-247.005	-156.722	0.935	-0.057
-245.990	-68.121	0.551	0.213
-244.976	113.176	-0.019	0.022
-243.961	-200.000	0.066	-0.391
-242.946	27.771	-0.588	0.491
-241.932	-29.816	0.625	-0.354
-240.917	-60.597	0.555	0.234
-239.903	112.246	-0.394	0.472
-238.888	800.000	0.097	0.334
-237.873	-36.737	0.975	-0.519
-236.859	-19.345	0.150	-0.093
-235.844	-200.000	0.107	-0.571
-234.830	-43.920	0.232	0.116
-233.815	-108.884	0.205	-0.043
-232.800	-41.965	0.238	0.121
-231.786	-200.000	0.039	0.239
-230.771	800.000	-0.286	-0.819
-229.757	-138.728	0.159	-0.017
-228.742	-166.178	-0.871	0.037
-227.727	-110.090	-1.025	0.212
-226.713	477.730	-0.217	-0.487
-225.698	31.084	-0.201	-0.171
-224.684	320.514	-0.099	-0.187
-223.669	-94.896	0.504	-0.135
-222.655	-199.826	0.724	0.004
-221.640	800.000	-0.225	0.902
-220.625	-20.807	-0.570	-0.347
-219.611	2.808	0.609	0.438
-218.596	-200.000	-0.032	0.198
-217.582	38.382	-0.458	-0.405
-216.567	-37.756	-0.301	0.159
-215.552	-100.489	0.660	-0.162
-214.538	-110.234	-0.019	0.004
-213.523	251.724	-0.294	-0.497
-212.509	-90.317	-0.205	0.059
-211.494	-30.576	-0.249	0.140
-210.479	-57.993	1.374	-0.594
-209.465	128.570	-0.212	0.268
-208.450	249.416	0.337	0.565
-207.436	-200.000	0.003	-0.372
-206.421	-17.567	0.687	0.428
-205.406	-20.455	-1.219	0.742
-204.392	-176.972	-1.029	-0.026
-203.377	-163.968	0.366	-0.017
-202.363	403.628	-0.156	-0.325
-201.348	344.945	0.201	0.391
-200.333	-200.000	0.014	0.656
-199.319	800.000	0.295	1.127
-198.304	-200.000	-0.078	-0.412
-197.290	-71.633	-1.216	0.450
-196.275	-89.634	0.342	0.099
-195.260	-172.735	-0.123	-0.004
-194.246	-102.300	0.936	0.223
-193.231	-200.000	-0.052	0.432
-192.217	800.000	0.274	-0.781
-191.202	350.065	-0.119	-0.233
-190.187	800.000	0.121	0.418
-189.173	-6.978	-0.231	-0.155
-188.158	392.922	0.365	-0.752
-187.144	-144.771	0.518	-0.047
-186.129	-200.000	0.055	0.790
-185.114	-62.954	-0.705	0.288
-184.100	-200.000	0.017	-0.392
-183.085	382.060	-0.067	0.137
-182.071	-200.000	-0.042	-0.231
-181.056	-10.637	-0.143	-0.093
-180.042	-200.000	0.011	0.923
-179.027	-132.188	0.541	-0.069
-178.012	364.187	-0.666	1.326
-176.998	-200.000	0.154	-0.712
-175.983	213.079	0.330	0.515
-174.969	-200.000	0.170	0.880
-173.954	698.050	-0.199	0.516
-172.939	-134.833	0.534	-0.064
-171.925	-200.000	-0.161	-0.779
-170.910	38.751	-0.279	0.247
-169.896	-200.000	-0.666	-0.003
-168.881	-128.112	-0.981	0.139
-167.866	-200.000	-0.025	0.529
-166.852	-56.152	-0.181	-0.080
-165.837	55.271	-0.809	0.774
-164.823	-9.186	-0.315	-0.209
-163.808	-66.985	-1.233	0.481
-162.793	-172.038	-0.304	-0.010
-161.779	346.780	-0.032	0.063
-160.764	-60.656	0.202	-0.085
-159.750	-155.888	0.111	0.007
-158.735	15.492	0.762	-0.592
-157.720	-200.000	-0.085	-0.518
-156.706	800.000	0.027	0.084
-155.691	99.911	-0.085	-0.097
-154.677	800.000	-0.058	0.188
-153.662	114.025	-0.432	-0.519
-152.647	-79.783	-0.380	-0.127
-151.633	-200.000	0.137	-0.688
-150.618	-200.000	0.152	1.281
-149.604	800.000	-0.222	-0.645
-148.589	627.414	-0.292	-0.728
-147.574	-140.600	-0.309	0.032
-146.560	-200.000	-0.084	-0.829
-145.545	18.527	0.248	0.196
-144.531	51.419	0.183	0.172
-143.516	77.234	0.475	0.499
-142.502	12.074	0.136	-0.104
-141.487	-61.174	0.916	-0.382
-140.472	319.129	-0.190	-0.356
-139.458	-46.160	1.161	-0.564
-138.443	-200.000	0.033	0.347
-137.429	-85.995	-0.260	0.079
-136.414	-111.016	0.500	-0.101
-135.399	-35.465	-0.185	-0.099
-134.385	30.332	0.458	0.386
-133.370	800.000	-0.206	-0.870
-132.356	595.902	0.065	0.158
-131.341	-200.000	-0.093	-0.707
-130.326	-39.924	0.248	-0.128
-129.312	-142.417	-0.465	-0.045
-128.297	-200.000	-0.064	-0.662
-127.283	-139.678	-0.025	0.003
-126.268	33.905	-0.357	-0.307
-125.253	-200.000	0.036	0.183
-124.239	186.995	0.502	0.738
-123.224	-200.000	-0.007	0.546
-122.210	-61.509	0.739	-0.306
-121.195	800.000	-0.060	-0.168
-120.180	-200.000	-0.016	-0.596
-119.166	-99.246	0.635	0.158
-118.151	-200.000	0.034	-0.256
-117.137	-200.000	0.938	-0.003
-116.122	244.846	-0.770	-1.278
-115.107	-82.451	0.821	-0.263
-114.093	-200.000	0.100	0.560
-113.078	82.065	-0.288	-0.308
-112.064	200.999	0.459	-0.697
-111.049	54.577	0.477	-0.454
-110.034	-61.535	0.639	-0.265
-109.020	-54.185	0.366	0.164
-108.005	35.576	0.212	-0.184
-106.991	272.803	0.172	0.300
-105.976	800.000	-0.076	0.269
-104.962	75.783	0.677	0.706
-103.947	-57.703	0.405	0.175
-102.932	99.055	-0.107	-0.122
-101.918	133.503	-0.288	0.367
-100.903	-200.000	0.115	-0.538
-99.889	16.793	0.727	-0.568
-98.874	91.599	0.613	0.679
-97.859	-117.882	-0.541	0.096
-96.845	-77.062	0.170	0.059
-95.830	112.670	-0.471	0.562
-94.816	11.147	-0.467	-0.352
-93.801	75.671	0.341	0.355
-92.786	-167.434	-0.270	-0.011
-91.772	315.953	0.304	0.565
-90.757	97.996	0.456	-0.517
-89.743	356.174	0.290	0.569
-88.728	-146.049	-0.451	0.039
-87.713	-200.000	0.032	0.151
-86.699	800.000	-0.110	-0.417
-85.684	102.675	0.362	-0.418
-84.670	-134.820	1.021	0.122
-83.655	-200.000	-0.047	-0.637
-82.640	-200.000	-0.101	0.663
-81.626	-200.000	-0.018	-0.131
-80.611	-148.502	-0.486	-0.039
-79.597	-77.790	0.173	-0.059
-78.582	296.529	-0.206	-0.373
-77.567	-24.591	0.628	-0.368
-76.553	-57.539	0.399	0.173
-75.538	38.999	-0.056	-0.049
-74.524	14.481	-0.721	0.555
-73.509	104.637	-0.211	-0.245
-72.494	-200.000	-0.049	-0.378
-71.480	-74.156	-0.976	-0.348
-70.465	-80.255	-0.279	0.092
-69.451	291.016	-0.219	0.393
-68.436	315.459	-0.207	0.384
-67.422	-72.810	-0.316	-0.115
-66.407	367.958	0.074	0.147
-65.392	-200.000	-0.003	0.337
-64.378	-114.116	0.330	-0.063
-63.363	-89.076	-0.440	0.128
-62.349	-200.000	0.003	-0.255
-61.334	21.667	-1.024	-0.820
-60.319	800.000	0.176	0.539
-59.305	612.757	-0.413	-1.017
-58.290	161.551	1.035	1.426
-57.276	-200.000	0.207	1.930
-56.261	-200.000	95.219	587.926
-55.246	670.167	1356.705	3458.518
-54.232	203.867	2518.140	3838.356
-53.217	119.291	2121.103	2583.721
-52.203	44.722	1592.677	1442.024
-51.188	36.125	1333.963	1156.449
-50.173	32.994	1292.872	1102.537
-49.159	56.281	1342.607	1283.899
-48.144	56.964	1359.414	1303.974
-47.130	36.121	1317.674	1142.121
-46.115	32.784	1300.034	1107.239
-45.100	32.659	1294.369	1101.637
-44.086	32.441	1292.408	1098.655
-43.071	32.665	1288.739	1096.797
-42.057	32.394	1288.586	1095.043
-41.042	32.542	1286.328	1093.942
-40.027	32.681	1284.137	1092.839
-39.013	32.680	1282.047	1091.014
-37.998	32.280	1281.421	1088.121
-36.984	32.772	1277.983	1087.999
-35.969	32.771	1276.608	1086.780
-34.954	32.708	1275.839	1085.721
-33.940	32.574	1274.535	1083.795
-32.925	32.552	1272.469	1081.871
-31.911	32.870	1271.683	1082.982
-30.896	32.789	1270.379	1081.366
-29.881	32.765	1268.294	1079.413
-28.867	32.831	1267.429	1079.011
-27.852	32.937	1264.836	1077.364
-26.838	32.668	1264.585	1075.572
-25.823	32.783	1263.539	1075.294
-24.809	32.946	1260.803	1073.853
-23.794	32.812	1259.779	1072.175
-22.779	32.756	1258.518	1070.741
-21.765	32.868	1258.229	1071.090
-20.750	32.863	1254.975	1068.249
-19.736	32.573	1255.251	1066.800
-18.721	32.829	1254.588	1067.644
-17.706	32.434	1254.264	1065.089
-16.692	32.808	1251.545	1064.851
-15.677	32.534	1251.078	1062.861
-14.663	32.845	1249.477	1063.212
-13.648	32.566	1248.335	1060.631
-12.633	32.690	1247.320	1060.424
-11.619	32.678	1246.235	1059.389
-10.604	32.745	1244.734	1058.448
-9.590	32.409	1245.796	1057.419
-8.575	32.333	1243.893	1055.337
-7.560	32.759	1243.569	1057.408
-6.546	32.546	1242.015	1054.853
-5.531	32.628	1242.056	1055.307
-4.517	32.741	1240.324	1054.426
-3.502	32.430	1240.023	1052.385
-2.487	32.634	1238.822	1052.469
-1.473	32.617	1234.924	1049.018
-0.458	31.080	1218.982	1026.978
0.556	28.294	1202.205	988.876
1.571	24.385	1206.361	970.982
2.586	23.482	1219.955	976.866
3.600	22.996	1208.901	965.274
4.615	16.884	1138.601	877.523
5.629	7.402	1062.513	772.803
6.644	3.462	1043.087	739.736
7.659	3.028	1040.117	735.486
8.673	2.865	1038.487	733.487
9.688	2.807	1036.591	731.808
10.702	3.168	1035.584	732.751
11.717	9.043	1044.792	767.362
12.731	18.766	1058.173	823.995
13.746	23.551	1064.193	851.641
14.761	24.319	1063.911	855.022
15.775	24.104	1062.917	853.121
16.790	23.607	1062.098	850.006
17.804	23.690	1061.436	849.798
18.819	23.567	1060.819	848.642
19.834	23.537	1060.996	848.562
20.848	23.638	1060.455	848.538
21.863	23.607	1059.937	847.900
22.877	23.766	1058.666	847.571
23.892	23.826	1057.922	847.182
24.907	23.585	1057.574	845.682
25.921	23.520	1055.515	843.653
26.936	23.436	1055.265	842.978
27.950	23.308	1052.972	840.463
28.965	23.682	1051.316	840.841
29.980	23.586	1050.524	839.678
30.994	23.857	1048.628	839.368
32.009	23.725	1047.902	838.091
33.023	23.431	1047.397	836.225
34.038	23.787	1046.036	836.742
35.053	23.497	1045.582	834.937
36.067	23.407	1044.855	833.860
37.082	23.650	1043.597	833.925
38.096	23.393	1044.016	832.977
39.111	23.816	1043.582	834.544
40.126	23.344	1041.958	830.956
41.140	23.207	1039.121	827.981
42.155	23.427	1038.671	828.581
43.169	23.170	1037.567	826.426
44.184	22.914	1036.763	824.517
45.199	22.896	1036.212	823.923
46.213	23.037	1035.830	824.203
47.228	23.553	1035.139	825.981
48.242	23.703	1033.708	825.467
49.257	23.965	1032.604	825.726
50.271	24.001	1031.984	825.326
51.286	24.085	1030.863	824.746
52.301	23.742	1031.133	823.299
53.315	23.697	1029.609	821.801
54.330	23.304	1029.009	819.429
55.344	23.508	1027.388	819.010
56.359	23.402	1027.972	818.912
57.374	23.241	1027.111	817.409
58.388	23.285	1025.775	816.476
59.403	23.047	1025.253	814.893
60.417	23.086	1024.656	814.525
61.432	23.003	1023.679	813.294
62.447	23.050	1022.393	812.420
63.461	23.126	1021.816	812.238
64.476	23.057	1020.836	811.070
65.490	22.897	1020.370	809.894
66.505	23.089	1019.715	810.183
67.520	23.143	1019.300	810.028
68.534	23.133	1017.669	808.612
69.549	22.922	1016.945	807.002
70.563	22.978	1015.874	806.338
71.578	22.682	1013.991	803.422
72.593	22.363	1013.277	801.336
73.607	22.690	1013.132	802.635
74.622	22.580	1014.033	802.777
75.636	22.793	1012.516	802.475
76.651	22.681	1011.935	801.437
77.666	22.807	1011.845	801.865
78.680	22.656	1011.079	800.502
79.695	22.570	1010.880	799.884
80.709	23.137	1009.009	800.902
81.724	23.000	1008.993	800.195
82.739	23.319	1007.117	800.077
83.753	23.458	1007.957	801.303
84.768	23.768	1008.294	802.900
85.782	24.113	1006.705	803.121
86.797	23.998	1004.895	801.091
87.812	23.760	1005.483	800.413
88.826	23.809	1003.381	798.889
89.841	24.149	1002.398	799.564
90.855	24.193	1001.229	798.759
91.870	24.019	1000.477	797.310
92.884	23.874	1000.368	796.502
93.899	23.996	998.513	795.497
94.914	23.949	998.842	795.480
95.928	23.852	997.417	793.843
96.943	23.626	996.407	791.959
97.957	23.525	994.722	790.099
98.972	23.634	994.947	790.697
99.987	23.931	993.196	790.552
101.001	23.666	992.467	788.729
102.016	23.532	992.742	788.279
103.030	23.670	991.353	787.720
104.045	23.753	991.467	788.108
105.060	23.516	990.210	785.991
106.074	23.428	988.206	783.939
107.089	23.548	987.896	784.154
108.103	23.441	986.072	782.165
109.118	23.174	985.855	780.748
110.133	23.161	982.891	778.274
111.147	23.132	983.347	778.439
112.162	22.880	982.002	776.199
113.176	23.271	981.080	777.115
114.191	23.079	981.217	776.315
115.206	23.264	979.769	775.911
116.220	23.308	978.407	774.956
117.235	22.893	977.862	772.640
118.249	22.651	978.212	771.787
119.264	22.779	976.837	771.195
120.279	22.836	975.884	770.621
121.293	22.718	974.621	769.041
122.308	22.743	974.020	768.610
123.322	22.868	972.390	767.800
124.337	22.648	971.357	765.959
125.352	22.444	971.128	764.827
126.366	22.459	970.700	764.488
127.381	22.844	969.548	765.181
128.395	23.149	969.603	766.477
129.410	23.448	968.496	766.830
130.424	23.357	967.440	765.533
131.439	23.374	966.786	765.021
132.454	23.457	966.319	764.939
133.468	23.407	965.285	763.838
134.483	23.475	964.359	763.330
135.497	23.539	963.727	763.037
136.512	23.451	963.097	762.095
137.527	23.334	961.382	760.169
138.541	23.077	961.973	759.463
139.556	23.348	961.518	760.202
140.570	23.636	960.608	760.648
141.585	24.103	958.551	760.949
142.600	23.847	959.292	760.373
143.614	23.929	957.820	759.491
144.629	24.052	957.393	759.609
145.643	24.084	955.532	758.203
146.658	23.615	954.930	755.661
147.673	23.466	953.258	753.636
148.687	23.195	953.747	752.805
149.702	23.526	950.936	751.922
150.716	23.548	951.194	752.154
151.731	23.672	949.532	751.297
152.746	23.477	949.611	750.468
153.760	23.700	948.392	750.381
154.775	24.073	948.634	752.081
155.789	23.756	947.797	750.013
156.804	23.563	947.351	748.782
157.819	23.679	946.203	748.294
158.833	23.562	946.745	748.164
159.848	23.760	945.465	747.919
160.862	24.048	943.622	747.606
161.877	23.318	942.931	743.926
162.892	23.328	942.070	743.226
163.906	23.245	940.619	741.665
164.921	23.471	939.126	741.368
165.935	23.416	939.049	741.014
166.950	23.809	937.072	741.028
167.964	24.013	936.273	741.177
168.979	23.666	935.209	738.829
169.994	23.439	935.627	738.146
171.008	23.598	935.022	738.263
172.023	24.026	933.559	738.820
173.037	24.226	933.782	739.764
174.052	23.895	932.370	737.209
175.067	23.473	931.470	734.681
176.081	23.407	931.204	734.136
177.096	23.246	929.522	732.076
178.110	23.199	930.005	732.201
179.125	22.915	928.603	729.857
180.140	23.162	928.476	730.714
181.154	23.572	927.720	731.744
182.169	23.514	928.992	732.443
183.183	23.524	928.865	732.321
184.198	24.117	925.878	732.341
185.213	24.129	925.383	731.932
186.227	23.744	924.517	729.601
187.242	24.199	924.880	731.695
188.256	24.220	923.953	730.979
189.271	24.049	924.081	730.314
190.286	23.864	922.015	727.862
191.300	23.129	922.253	724.974
192.315	22.581	920.528	721.312
193.329	22.597	920.350	721.173
194.344	23.312	919.517	723.377
195.359	23.478	919.925	724.312
196.373	23.609	918.849	723.936
197.388	23.951	918.754	725.191
198.402	23.972	918.615	725.104
199.417	24.313	917.699	725.703
200.432	24.356	917.265	725.471
201.446	24.312	916.588	724.695
202.461	24.118	916.823	724.027
203.475	23.585	915.829	721.011
204.490	23.344	913.651	718.257
205.504	23.475	913.126	718.310
206.519	23.625	913.512	719.160
207.534	23.794	912.599	719.060
208.548	23.965	911.913	719.146
209.563	23.662	911.498	717.531
210.577	23.987	910.422	717.934
211.592	24.188	910.187	718.496
212.607	24.305	909.558	718.408
213.621	24.255	908.010	716.920
214.636	24.038	908.550	716.411
215.650	23.966	908.395	715.935
216.665	24.008	907.278	715.158
217.680	24.190	905.964	714.792
218.694	23.912	905.535	713.276
219.709	23.536	904.938	711.235
220.723	24.175	903.242	712.394
221.738	23.768	903.850	711.181
222.753	24.023	902.103	710.764
223.767	23.825	901.859	709.717
224.782	23.980	902.304	710.624
225.796	24.117	901.730	710.655
226.811	24.150	900.001	709.361
227.826	23.656	898.836	706.417
228.840	23.752	899.031	706.887
229.855	23.708	897.722	705.622
230.869	23.644	897.892	705.438
231.884	24.002	897.027	706.118
232.899	23.608	897.183	704.614
233.913	23.777	895.435	703.848
234.928	23.617	894.923	702.751
235.942	23.429	893.446	700.786
236.957	23.219	893.117	699.635
237.972	23.280	894.102	700.586
238.986	23.366	892.244	699.407
240.001	23.426	890.860	698.497
241.015	23.871	890.502	699.908
242.030	23.615	891.310	699.471
243.045	23.706	889.938	698.690
244.059	23.296	890.834	697.718
245.074	23.949	889.744	699.370
246.088	23.692	889.022	697.730
247.103	23.943	889.832	699.291
248.117	24.384	888.534	699.941
249.132	24.729	888.531	701.229
250.147	25.325	886.914	702.225
251.161	25.145	887.511	701.928
252.176	24.875	887.210	700.572
253.190	25.013	886.775	700.706
254.205	25.158	885.261	700.014
255.220	24.858	884.600	698.258
256.234	24.918	883.052	697.209
257.249	24.676	883.922	696.890
258.263	24.823	882.620	696.374
259.278	24.677	881.862	695.149
260.293	24.596	882.162	695.007
261.307	25.030	880.950	695.676
262.322	24.620	880.641	693.778
263.336	24.651	880.309	693.577
264.351	24.425	878.977	691.590
265.366	24.636	877.379	691.088
266.380	24.819	878.366	692.513
267.395	25.035	877.295	692.443
268.409	24.655	877.205	690.840
269.424	24.769	875.316	689.731
270.439	24.936	875.408	690.387
271.453	24.562	874.567	688.222
272.468	24.454	874.077	687.359
273.482	24.605	874.312	688.064
274.497	24.539	873.434	687.060
275.512	24.678	871.999	686.403
276.526	24.309	872.767	685.530
277.541	24.860	871.207	686.357
278.555	24.747	871.700	686.251
279.570	25.076	870.931	686.846
280.585	24.831	869.923	685.054
281.599	24.668	868.823	683.503
282.614	24.423	868.120	681.951
283.628	24.306	867.768	681.168
284.643	24.332	867.580	681.059
285.657	24.258	866.135	679.584
286.672	24.098	866.386	679.109
287.687	24.569	865.364	680.042
288.701	24.680	864.480	679.709
289.716	24.678	864.180	679.408
290.730	24.956	862.740	679.270
291.745	24.735	863.064	678.627
292.760	24.674	862.397	677.810
293.774	25.456	861.221	679.783
294.789	25.266	861.391	679.141
295.803	24.840	861.185	677.305
296.818	24.877	859.775	676.274
297.833	24.401	859.584	674.266
298.847	24.567	858.870	674.274
299.862	24.606	858.816	674.320
300.876	24.651	858.587	674.251
301.891	24.861	857.866	674.416
302.906	25.503	856.090	675.374
303.920	25.104	856.245	673.936
304.935	25.724	855.655	675.740
305.949	25.216	855.102	673.339
306.964	24.666	853.911	670.277
307.979	24.695	854.466	670.764
308.993	24.919	853.726	670.963
310.008	25.135	853.408	671.461
311.022	25.221	852.196	670.772
312.037	24.994	851.029	668.946
313.052	24.357	851.109	666.567
314.066	24.040	850.255	664.659
315.081	24.255	849.440	664.765
316.095	24.451	849.280	665.311
317.110	24.590	848.454	665.124
318.125	24.218	848.035	663.348
319.139	23.794	847.321	661.155
320.154	24.027	846.566	661.373
321.168	24.211	846.398	661.869
322.183	24.441	846.026	662.371
323.197	24.480	845.858	662.327
324.212	24.768	845.145	662.778
325.227	24.353	844.142	660.394
326.241	24.298	843.820	659.882
327.256	24.326	842.950	659.247
328.270	24.524	842.299	659.411
329.285	24.072	841.932	657.397
330.300	23.898	840.709	655.742
331.314	24.055	840.930	656.437
332.329	24.433	840.397	657.355
333.343	24.631	839.991	657.708
334.358	24.543	840.091	657.404
335.373	24.661	839.600	657.397
336.387	24.983	838.917	657.983
337.402	24.989	839.758	658.607
338.416	25.381	838.045	658.644
339.431	25.006	839.366	658.247
340.446	25.602	838.274	659.519
341.460	25.485	837.992	658.808
342.475	25.715	837.360	659.096
343.489	25.579	837.253	658.457
344.504	25.771	836.762	658.714
345.519	25.498	836.551	657.492
346.533	25.760	835.187	657.315
347.548	25.443	835.312	656.198
348.562	25.106	834.430	654.219
349.577	25.346	833.564	654.358
350.592	24.782	832.926	651.744
351.606	24.966	832.542	652.056
352.621	24.948	832.430	651.847
353.635	25.174	831.172	651.624
354.650	24.640	829.571	648.374
355.665	24.698	828.956	648.045
356.679	25.137	828.851	649.497
357.694	25.135	827.853	648.651
358.708	25.158	826.732	647.798
359.723	24.931	826.802	646.977
360.738	24.966	826.194	646.567
361.752	24.823	826.601	646.313
362.767	25.543	825.110	647.685
363.781	25.704	825.756	648.715
364.796	25.758	825.223	648.433
365.810	26.221	823.857	648.967
366.825	26.022	823.986	648.296
367.840	25.791	823.092	646.707
368.854	25.409	823.567	645.649
369.869	25.332	822.029	644.110
370.883	25.169	822.082	643.508
371.898	25.680	821.637	644.938
372.913	25.990	820.946	645.445
373.927	25.601	820.441	643.600
374.942	25.284	820.220	642.237
375.956	25.452	820.229	642.789
376.971	25.548	820.528	643.309
377.986	25.533	819.565	642.443
379.000	25.897	818.652	642.970
380.015	25.727	818.052	641.836
381.029	26.006	817.263	642.153
382.044	26.176	816.578	642.165
383.059	25.520	817.111	640.191
384.073	26.094	815.231	640.698
385.088	25.441	815.007	638.147
386.102	25.023	813.861	635.710
387.117	25.047	813.798	635.691
388.132	25.290	812.279	635.308
389.146	25.119	812.840	635.084
390.161	25.530	812.274	636.041
391.175	25.809	811.718	636.536
392.190	25.445	812.144	635.527
393.205	24.969	810.341	632.378
394.219	24.127	810.127	629.180
395.234	24.689	809.075	630.293
396.248	24.736	808.999	630.343
397.263	25.508	808.075	632.282
398.278	24.493	808.401	628.910
399.292	24.386	808.239	628.350
400.307	24.522	806.900	627.734
401.321	24.784	806.840	628.550
402.336	24.829	806.510	628.397
403.350	25.686	806.473	631.318
404.365	25.418	807.007	630.742
405.380	26.141	806.350	632.705
406.394	26.247	805.177	632.101
407.409	26.350	804.943	632.221
408.423	26.014	804.614	630.732
409.438	26.095	804.973	631.240
410.453	26.366	803.010	630.591
411.467	26.033	803.172	629.502
412.482	26.213	802.804	629.784
413.496	26.281	801.926	629.276
414.511	26.076	801.617	628.265
415.526	26.054	800.995	627.646
416.540	25.949	801.612	627.709
417.555	26.359	800.199	627.970
418.569	25.954	800.440	626.698
419.584	26.291	799.778	627.293
420.599	26.195	799.198	626.448
421.613	159.847	1370.616	1791.946
422.628	138.684	1453.905	1791.974
