DTS Sentinel unit serial number:	SN413079Multiplexer serial number:	ORYXHardware model number:	OX4-SRSoftware version number:	ORYX F/W v4.00 Oryx Data Collector v3.7.2.0data status	okinstallation	princeton_trtdifferential loss correction	single-endedforward channel	channel 1reverse channel	N/Adate	2019/09/12time	19:52:34forward acquisition time	15.00reverse acquisition time	0.00gamma	496.2192k internal	0.2322k external	0.2322temperature offset calibration	1.0139default loss term (dB/km)	0.3790temperature slope calibration	1.0000multiplexer offset coefficient	1.0000multiplexer slope coefficient	1.0000fibre end	0.00T internal ref (°C)	31.87T ext. ref 1 (°C)	3.43T ext. ref 2 (°C)	26.38length (m)	temperature (°C)	Stokes	anti-Stokes-747.200	800.000	-0.163	-0.687
-746.185	-94.259	-0.874	0.242
-745.171	223.967	0.525	0.856
-744.156	-57.954	0.229	-0.101
-743.142	-200.000	-0.067	0.697
-742.127	-200.000	0.069	0.898
-741.112	26.686	-0.291	-0.246
-740.098	153.045	0.089	0.123
-739.083	-200.000	-0.068	-0.663
-738.069	277.832	0.324	-0.583
-737.054	-35.529	0.245	-0.134
-736.039	18.443	-0.512	0.413
-735.025	37.390	-0.327	0.293
-734.010	72.136	-0.507	-0.533
-732.996	-83.562	0.178	0.058
-731.981	-39.133	0.369	0.196
-730.966	-200.000	0.009	0.078
-729.952	702.619	-0.067	0.178
-728.937	-30.652	0.180	0.103
-727.923	-80.049	-0.608	0.206
-726.908	-200.000	-0.058	-0.737
-725.894	-98.102	-0.894	0.232
-724.879	-71.599	0.529	-0.199
-723.864	-82.837	-0.698	0.228
-722.850	-200.000	-0.006	-0.500
-721.835	147.548	-0.078	-0.106
-720.821	-124.072	0.254	-0.040
-719.806	147.138	-0.741	1.007
-718.791	-28.599	-0.146	0.085
-717.777	449.615	-0.139	0.310
-716.762	-200.000	0.070	0.680
-715.748	-144.171	-0.952	-0.090
-714.733	-200.000	0.085	-0.733
-713.718	-200.000	0.023	0.282
-712.704	174.901	-0.407	0.595
-711.689	77.043	0.265	0.284
-710.675	-92.874	-0.797	0.225
-709.660	-21.334	-0.298	-0.184
-708.645	47.952	0.241	-0.227
-707.631	421.839	-0.318	-0.688
-706.616	55.614	-0.172	0.168
-705.602	141.781	0.396	0.530
-704.587	301.934	-0.220	-0.411
-703.572	800.000	-0.170	-0.587
-702.558	-200.000	0.084	0.683
-701.543	12.886	0.565	0.441
-700.529	87.683	-0.431	0.481
-699.514	800.000	0.079	0.334
-698.499	388.203	0.425	-0.887
-697.485	800.000	0.217	-0.678
-696.470	-45.786	0.436	0.217
-695.456	-182.415	0.152	0.003
-694.441	800.000	0.286	0.914
-693.426	151.403	-0.583	0.800
-692.412	-200.000	0.044	0.428
-691.397	-200.000	-0.017	-0.927
-690.383	-200.000	0.010	-0.762
-689.368	-42.752	-0.717	0.368
-688.354	-200.000	0.019	0.155
-687.339	-76.158	0.446	0.159
-686.324	-42.079	0.357	0.184
-685.310	-78.584	0.775	0.267
-684.295	6.915	-0.237	-0.178
-683.281	38.924	-0.154	-0.138
-682.266	800.000	0.041	0.114
-681.251	325.847	-0.535	1.032
-680.237	-200.000	-0.013	-0.230
-679.222	104.585	-0.245	0.290
-678.208	341.078	0.262	0.515
-677.193	-200.000	-0.058	-0.615
-676.178	800.000	-0.050	-0.199
-675.164	7.920	0.388	-0.293
-674.149	-102.156	0.936	-0.227
-673.135	-112.614	-0.792	0.159
-672.120	-200.000	-0.036	0.484
-671.105	-56.073	0.723	0.325
-670.091	-43.030	-0.338	-0.172
-669.076	147.788	0.447	-0.607
-668.062	88.699	-0.306	-0.343
-667.047	264.992	-0.173	-0.303
-666.032	-65.328	0.350	-0.142
-665.018	-65.163	-0.128	-0.052
-664.003	-88.914	0.213	-0.064
-662.989	658.978	-0.220	0.570
-661.974	-52.922	-0.091	-0.042
-660.959	800.000	0.098	0.385
-659.945	507.262	-0.258	0.602
-658.930	167.839	0.308	0.441
-657.916	-37.853	0.250	0.134
-656.901	115.112	-0.076	-0.093
-655.886	800.000	0.060	0.233
-654.872	40.123	-0.419	0.379
-653.857	197.613	-0.254	0.390
-652.843	800.000	0.189	-0.586
-651.828	-94.495	0.414	0.113
-650.814	-99.857	-0.732	0.184
-649.799	-200.000	-0.040	0.510
-648.784	800.000	0.220	-0.667
-647.770	94.691	0.531	0.607
-646.755	-200.000	0.033	0.439
-645.741	-200.000	0.078	-0.369
-644.726	634.691	-0.205	-0.523
-643.711	-30.290	-0.362	-0.207
-642.697	7.912	-0.595	0.449
-641.682	-87.922	0.580	-0.175
-640.668	-200.000	-0.035	0.251
-639.653	459.356	0.175	-0.391
-638.638	1.845	0.597	-0.433
-637.624	800.000	-0.104	-0.385
-636.609	-37.368	-0.569	0.306
-635.595	-103.439	-0.185	-0.044
-634.580	-200.000	0.060	-0.670
-633.565	-12.189	0.517	-0.340
-632.551	676.192	-0.079	0.207
-631.536	94.414	0.197	0.226
-630.522	-200.000	0.060	0.314
-629.507	-155.908	-0.320	-0.020
-628.492	-26.602	-0.679	0.400
-627.478	-94.465	-0.830	0.228
-626.463	-114.195	-0.488	-0.095
-625.449	2.473	0.272	-0.198
-624.434	685.401	-0.184	-0.483
-623.419	-9.521	0.116	-0.078
-622.405	-76.417	-0.444	-0.157
-621.390	44.261	0.925	-0.854
-620.376	160.502	0.367	-0.515
-619.361	800.000	0.285	-0.832
-618.346	-114.766	1.387	0.266
-617.332	-123.860	-0.467	0.074
-616.317	760.121	-0.291	0.792
-615.303	-100.739	0.229	0.057
-614.288	-200.000	-0.011	0.296
-613.273	-101.365	-0.439	0.108
-612.259	-32.455	-0.466	-0.261
-611.244	110.672	-0.486	-0.587
-610.230	36.875	-0.421	0.374
-609.215	33.112	0.134	-0.116
-608.201	-155.196	-0.394	0.026
-607.186	-200.000	0.021	-0.236
-606.171	667.381	-0.194	-0.505
-605.157	-109.015	0.105	0.023
-604.142	110.280	0.028	-0.033
-603.128	106.454	-0.512	-0.610
-602.113	670.155	-0.183	-0.475
-601.098	423.487	-0.161	0.347
-600.084	-200.000	-0.045	1.036
-599.069	188.589	-0.167	0.251
-598.055	-100.964	-0.253	0.062
-597.040	118.561	0.195	-0.242
-596.025	70.015	-0.429	0.444
-595.011	-196.402	0.565	0.004
-593.996	-118.689	0.535	0.095
-592.982	-59.482	0.549	0.237
-591.967	-81.592	-1.271	0.419
-590.952	-21.138	-0.286	0.176
-589.938	-66.805	-0.225	0.089
-588.923	130.548	0.411	0.529
-587.909	585.671	0.052	0.129
-586.894	-186.733	-0.266	0.004
-585.879	-200.000	-0.012	-0.066
-584.865	-56.398	-0.536	-0.239
-583.850	-90.227	0.658	-0.192
-582.836	-68.711	-0.270	-0.105
-581.821	-77.639	0.711	-0.247
-580.806	-25.256	0.278	0.165
-579.792	-82.060	-0.349	-0.114
-578.777	430.808	0.327	-0.710
-577.763	-85.672	-0.057	0.018
-576.748	-41.123	-0.551	-0.286
-575.733	531.646	0.190	-0.451
-574.719	-200.000	-0.045	-0.829
-573.704	96.405	0.320	0.368
-572.690	262.060	-0.455	0.792
-571.675	-200.000	-0.142	0.771
-570.661	800.000	0.213	-0.929
-569.646	77.801	-0.100	0.107
-568.631	800.000	-0.124	0.358
-567.617	-200.000	0.323	1.552
-566.602	-54.598	-0.417	-0.189
-565.588	-54.950	-0.337	0.152
-564.573	43.891	-0.471	0.433
-563.558	-151.391	0.440	-0.033
-562.544	-90.387	-1.640	-0.477
-561.529	188.127	0.114	-0.171
-560.515	-29.438	0.965	-0.554
-559.500	46.897	-0.876	-0.817
-558.485	-25.595	-0.303	0.179
-557.471	-200.000	-0.069	0.858
-556.456	-200.000	0.096	0.436
-555.442	-200.000	-0.023	0.544
-554.427	-200.000	0.031	0.306
-553.412	24.627	-0.475	0.395
-552.398	-107.757	-0.676	-0.148
-551.383	-63.825	-0.874	0.359
-550.369	63.663	-0.336	-0.339
-549.354	41.404	-0.220	-0.199
-548.339	-200.000	0.087	-0.508
-547.325	272.279	0.442	0.781
-546.310	-200.000	0.008	0.624
-545.296	-200.000	0.070	0.550
-544.281	-200.000	-0.007	0.495
-543.266	124.455	-0.288	0.364
-542.252	-200.000	-0.118	0.911
-541.237	-200.000	0.003	0.217
-540.223	23.013	-0.326	0.268
-539.208	1.099	-0.339	-0.244
-538.193	-118.493	-0.588	0.104
-537.179	3.304	0.531	-0.388
-536.164	55.135	0.680	0.659
-535.150	615.548	-0.203	-0.509
-534.135	256.450	0.244	-0.420
-533.121	205.644	-0.069	-0.108
-532.106	-200.000	0.070	0.645
-531.091	800.000	0.179	0.627
-530.077	-116.055	0.344	-0.064
-529.062	-200.000	-0.012	0.171
-528.048	105.737	0.431	0.511
-527.033	-91.009	0.499	-0.144
-526.018	-200.000	0.069	-0.341
-525.004	84.606	0.173	-0.190
-523.989	129.855	0.054	0.069
-522.975	87.442	-0.196	-0.217
-521.960	219.000	0.163	0.260
-520.945	-106.885	-0.356	0.079
-519.931	511.855	-0.154	-0.359
-518.916	67.091	-0.583	-0.595
-517.902	70.116	0.345	0.356
-516.887	-93.926	-0.401	0.110
-515.872	-19.999	-0.330	-0.204
-514.858	800.000	-0.090	0.282
-513.843	-48.507	0.434	0.209
-512.829	-200.000	-0.037	0.387
-511.814	-90.768	0.609	0.176
-510.799	-200.000	-0.061	0.427
-509.785	-80.112	-0.642	-0.216
-508.770	409.295	-0.443	0.938
-507.756	65.774	-0.442	0.448
-506.741	166.332	-0.249	0.354
-505.726	-62.490	0.325	-0.135
-504.712	-55.226	-0.484	0.218
-503.697	-187.543	-0.349	0.005
-502.683	-107.436	0.585	-0.128
-501.668	-153.339	-0.257	0.018
-500.653	7.432	0.679	-0.508
-499.639	-95.663	0.882	-0.236
-498.624	-47.271	-0.108	-0.053
-497.610	-200.000	-0.008	0.402
-496.595	299.910	-0.222	-0.409
-495.581	-89.925	0.139	0.041
-494.566	277.790	-0.338	0.601
-493.551	-23.451	0.667	-0.401
-492.537	-200.000	-0.032	-0.691
-491.522	587.899	-0.201	0.495
-490.508	417.537	0.099	-0.212
-489.493	-24.864	0.727	-0.432
-488.478	-115.694	-0.143	-0.027
-487.464	101.732	0.414	0.483
-486.449	-129.313	-0.642	-0.089
-485.435	37.673	0.140	0.124
-484.420	-49.283	0.840	-0.401
-483.405	44.240	-0.131	0.120
-482.391	176.340	-0.275	0.400
-481.376	-41.312	0.559	0.288
-480.362	-64.891	0.250	0.101
-479.347	-200.000	0.121	1.048
-478.332	800.000	-0.194	-0.702
-477.318	-118.516	0.152	0.027
-476.303	107.597	0.341	0.405
-475.289	-200.000	0.061	0.369
-474.274	-157.365	0.171	0.010
-473.259	-102.404	0.595	-0.143
-472.245	197.382	0.272	0.415
-471.230	-41.186	0.195	0.101
-470.216	-46.325	0.166	-0.081
-469.201	-200.000	0.031	0.444
-468.186	328.540	0.248	-0.475
-467.172	-57.672	-0.575	-0.252
-466.157	-200.000	-0.047	0.255
-465.143	-28.033	-0.585	0.338
-464.128	-134.889	-0.447	-0.054
-463.113	253.303	0.277	0.473
-462.099	26.137	0.748	0.624
-461.084	-131.303	0.478	-0.063
-460.070	-1.072	0.554	-0.391
-459.055	-115.493	0.676	0.127
-458.040	193.167	-0.149	-0.225
-457.026	724.221	-0.013	0.035
-456.011	-25.572	-0.677	-0.399
-454.997	-107.610	0.226	0.049
-453.982	417.165	-0.190	0.406
-452.968	-146.650	-0.759	-0.066
-451.953	-200.000	-0.037	0.353
-450.938	57.139	-0.660	-0.643
-449.924	-11.044	0.305	-0.201
-448.909	800.000	0.155	0.486
-447.895	-83.021	1.077	-0.346
-446.880	-116.643	0.112	-0.021
-445.865	-200.000	-0.104	-0.667
-444.851	-200.000	-0.006	-0.802
-443.836	630.379	-0.157	-0.396
-442.822	-46.297	0.571	-0.280
-441.807	-200.000	0.094	0.432
-440.792	230.142	-0.105	0.171
-439.778	355.361	0.237	-0.471
-438.763	-5.985	0.444	0.303
-437.749	-18.272	0.858	-0.535
-436.734	118.181	0.522	-0.642
-435.719	-76.260	0.482	-0.169
-434.705	-200.000	0.071	0.884
-433.690	603.164	-0.182	-0.452
-432.676	-92.191	-0.236	-0.066
-431.661	-153.997	-0.694	-0.047
-430.646	-200.000	-0.047	0.693
-429.632	-50.888	-0.296	0.139
-428.617	167.783	0.513	-0.727
-427.603	7.740	0.726	0.543
-426.588	120.581	0.521	-0.645
-425.573	-59.689	0.578	-0.247
-424.559	-200.000	-0.121	-1.050
-423.544	373.718	0.301	0.611
-422.530	512.517	-0.079	-0.184
-421.515	-200.000	-0.019	-0.271
-420.500	-62.184	-0.237	0.098
-419.486	800.000	0.128	-0.507
-418.471	-65.455	0.557	0.223
-417.457	-200.000	0.020	-0.103
-416.442	-200.000	-0.038	-0.242
-415.428	-113.291	0.372	0.073
-414.413	76.038	-0.544	-0.574
-413.398	333.276	0.271	-0.523
-412.384	131.671	-0.381	-0.488
-411.369	37.890	0.406	-0.360
-410.355	-65.365	0.081	0.033
-409.340	194.416	0.258	-0.391
-408.325	800.000	0.171	0.737
-407.311	-95.957	-0.497	0.132
-406.296	464.105	0.179	0.398
-405.282	800.000	0.078	0.219
-404.267	-200.000	-0.033	0.262
-403.252	-200.000	0.091	1.081
-402.238	800.000	-0.187	0.712
-401.223	-200.000	0.008	0.077
-400.209	-11.840	-0.864	0.565
-399.194	-200.000	-0.143	0.692
-398.179	-50.543	-0.278	0.131
-397.165	-119.738	0.304	-0.052
-396.150	73.325	-0.428	-0.446
-395.136	73.246	0.286	-0.299
-394.121	-10.716	-0.366	0.241
-393.106	800.000	0.028	-0.086
-392.092	-122.136	-0.503	-0.082
-391.077	800.000	0.267	1.015
-390.063	53.651	-0.832	0.796
-389.048	-200.000	-0.020	0.538
-388.033	84.784	0.270	0.295
-387.019	26.288	-0.427	-0.355
-386.004	21.657	-0.475	0.385
-384.990	42.676	0.402	-0.365
-383.975	616.005	-0.198	-0.494
-382.960	-109.208	0.366	0.077
-381.946	-200.000	-0.062	0.422
-380.931	800.000	0.256	-0.745
-379.917	-69.560	-1.044	0.398
-378.902	-128.442	-0.413	0.058
-377.888	-166.478	-0.759	-0.032
-376.873	-200.000	0.014	-0.078
-375.858	-200.000	0.029	-0.280
-374.844	-37.640	0.239	-0.127
-373.829	-4.496	-0.469	-0.323
-372.815	56.336	-0.162	-0.157
-371.800	50.899	0.257	-0.242
-370.785	88.923	-0.637	-0.706
-369.771	20.734	0.345	0.278
-368.756	-183.409	-0.307	-0.005
-367.742	-150.590	0.661	0.050
-366.727	52.762	0.406	0.386
-365.712	291.338	0.073	0.132
-364.698	-200.000	0.138	-1.190
-363.683	124.205	0.164	0.205
-362.669	429.614	0.265	0.571
-361.654	-14.096	-0.764	-0.491
-360.639	58.552	-0.338	0.330
-359.625	115.016	0.242	0.293
-358.610	406.099	-0.389	-0.817
-357.596	615.102	-0.217	0.541
-356.581	177.450	0.157	-0.228
-355.566	51.452	0.305	0.289
-354.552	39.535	-0.367	0.327
-353.537	800.000	-0.075	0.304
-352.523	384.930	0.238	0.488
-351.508	-17.997	0.789	0.492
-350.493	-109.451	-0.371	-0.078
-349.479	310.070	-0.150	-0.279
-348.464	800.000	0.270	0.826
-347.450	-200.000	-0.084	0.487
-346.435	780.100	0.082	0.224
-345.420	35.526	0.507	0.442
-344.406	228.868	0.102	0.166
-343.391	7.393	-0.174	0.129
-342.377	800.000	-0.215	0.914
-341.362	-200.000	0.100	-0.868
-340.348	-33.179	0.527	-0.290
-339.333	800.000	-0.110	0.439
-338.318	168.913	-0.378	-0.536
-337.304	168.173	-0.041	-0.059
-336.289	227.136	0.273	-0.440
-335.275	77.148	-0.186	-0.196
-334.260	800.000	-0.228	0.691
-333.245	-128.914	0.674	-0.094
-332.231	387.705	0.157	0.322
-331.216	-78.854	0.085	-0.029
-330.202	-48.521	0.848	0.405
-329.187	35.646	0.138	-0.120
-328.172	-54.683	0.196	-0.088
-327.158	-200.000	0.148	-0.762
-326.143	-159.942	0.496	0.027
-325.129	-90.131	0.406	0.118
-324.114	92.262	-0.389	-0.436
-323.099	297.675	0.298	-0.543
-322.085	105.094	-0.294	-0.345
-321.070	-75.926	-0.089	0.031
-320.056	35.764	0.280	-0.244
-319.041	-35.449	0.404	-0.218
-318.026	227.458	-0.290	-0.468
-317.012	-52.226	0.470	0.217
-315.997	-157.121	-1.240	-0.075
-314.983	-141.233	-0.457	-0.046
-313.968	68.031	-0.319	-0.324
-312.953	735.546	0.410	-1.092
-311.939	355.319	0.157	-0.310
-310.924	-36.930	-0.564	0.301
-309.910	-89.546	0.328	-0.096
-308.895	-112.876	-0.500	0.098
-307.880	-111.570	-0.937	0.189
-306.866	-12.955	-0.931	0.602
-305.851	800.000	0.247	1.021
-304.837	-49.022	0.203	0.096
-303.822	12.607	0.234	-0.179
-302.807	800.000	-0.093	-0.306
-301.793	103.202	-0.302	0.352
-300.778	37.911	-0.172	0.152
-299.764	-119.815	1.313	-0.225
-298.749	-72.986	-0.961	-0.351
-297.735	189.065	-0.574	0.854
-296.720	-200.000	-0.000	-0.080
-295.705	167.774	0.362	0.512
-294.691	-73.275	-0.459	0.167
-293.676	800.000	-0.224	-0.624
-292.662	735.205	-0.229	0.610
-291.647	208.790	-0.294	0.456
-290.632	-22.565	0.822	-0.493
-289.618	-68.382	-0.338	-0.130
-288.603	508.367	-0.157	-0.361
-287.589	550.160	0.255	-0.607
-286.574	-17.202	0.499	-0.312
-285.559	267.962	-0.247	0.429
-284.545	297.250	0.270	-0.492
-283.530	164.087	0.151	-0.212
-282.516	118.022	0.442	0.541
-281.501	-155.672	1.083	-0.069
-280.486	-200.000	0.008	-0.486
-279.472	458.082	0.090	-0.198
-278.457	-150.607	-1.129	-0.086
-277.443	-200.000	0.045	0.238
-276.428	302.217	-0.496	-0.909
-275.413	-18.898	-0.619	-0.382
-274.399	-89.758	-0.530	0.154
-273.384	405.143	-0.432	0.903
-272.370	-100.245	-0.051	0.013
-271.355	179.287	0.254	0.368
-270.340	-41.244	0.407	0.208
-269.326	800.000	-0.346	-0.960
-268.311	-200.000	-0.041	0.456
-267.297	-103.025	-0.542	-0.127
-266.282	190.032	0.117	0.173
-265.267	106.451	-0.089	0.104
-264.253	-122.715	-0.189	-0.030
-263.238	-137.873	-0.967	-0.107
-262.224	360.276	0.299	-0.594
-261.209	-62.618	1.150	-0.473
-260.195	188.956	-0.122	-0.181
-259.180	-105.506	0.155	0.035
-258.165	-200.000	0.058	-0.255
-257.151	800.000	0.090	0.304
-256.136	184.796	-0.101	0.148
-255.122	178.734	0.573	-0.829
-254.107	45.878	-0.234	0.214
-253.092	-55.158	-0.377	-0.168
-252.078	70.026	0.275	-0.281
-251.063	208.065	0.274	0.424
-250.049	-74.562	0.606	-0.216
-249.034	-154.902	0.121	-0.008
-248.019	134.999	0.270	-0.348
-247.005	800.000	0.234	0.710
-245.990	-200.000	-0.057	0.268
-244.976	554.417	0.162	-0.385
-243.961	133.577	0.274	-0.351
-242.946	-13.651	-0.460	0.295
-241.932	-68.349	0.145	0.056
-240.917	-159.828	-0.475	0.026
-239.903	-105.454	-0.340	-0.077
-238.888	296.940	0.415	0.753
-237.873	800.000	-0.056	-0.205
-236.859	-79.363	0.306	-0.103
-235.844	-69.880	0.676	-0.255
-234.830	12.169	-0.325	0.248
-233.815	-0.607	0.464	-0.326
-232.800	-200.000	-0.067	0.542
-231.786	284.487	-0.229	-0.408
-230.771	75.714	-0.404	-0.423
-229.757	-113.945	-0.814	-0.156
-228.742	-200.000	0.053	0.487
-227.727	570.204	0.313	-0.753
-226.713	-125.271	-0.208	0.031
-225.698	120.183	0.344	-0.422
-224.684	411.961	0.350	-0.736
-223.669	-97.421	0.228	-0.059
-222.655	-63.261	-1.185	-0.483
-221.640	-200.000	-0.136	1.598
-220.625	-108.099	0.492	0.106
-219.611	640.956	-0.145	0.365
-218.596	325.667	0.411	-0.777
-217.582	-200.000	-0.108	-0.810
-216.567	137.376	-0.555	0.718
-215.552	127.593	0.168	0.211
-214.538	-132.322	0.631	-0.081
-213.523	364.937	0.153	-0.305
-212.509	-108.489	0.301	0.064
-211.494	-200.000	0.156	0.857
-210.479	-86.437	0.588	-0.179
-209.465	100.002	0.114	0.131
-208.450	-143.911	-0.327	0.031
-207.436	787.106	0.226	-0.614
-206.421	-67.528	-0.688	-0.267
-205.406	231.587	-0.417	-0.676
-204.392	-37.948	0.122	-0.064
-203.377	-200.000	0.119	0.657
-202.363	587.143	-0.316	0.768
-201.348	-154.908	-0.208	-0.014
-200.333	-51.573	0.704	-0.325
-199.319	177.348	0.158	0.228
-198.304	-96.711	-0.324	-0.084
-197.290	65.726	0.616	0.618
-196.275	-200.000	0.123	-1.192
-195.260	-98.254	0.519	-0.132
-194.246	164.324	0.039	0.055
-193.231	183.475	0.221	0.323
-192.217	332.515	-0.254	-0.485
-191.202	452.083	0.231	-0.504
-190.187	164.806	-0.238	0.333
-189.173	-46.757	-0.557	-0.269
-188.158	5.636	0.157	-0.115
-187.144	-105.244	-0.278	0.063
-186.129	-200.000	-0.045	0.582
-185.114	-70.731	-0.172	-0.064
-184.100	-200.000	0.079	-0.367
-183.085	-89.678	0.541	-0.157
-182.071	724.361	-0.213	-0.561
-181.056	-200.000	0.047	1.199
-180.042	-200.000	-0.113	-0.539
-179.027	21.101	-0.152	-0.122
-178.012	-113.047	-0.091	-0.018
-176.998	444.812	-0.140	0.304
-175.983	60.997	0.614	-0.602
-174.969	19.812	-0.768	-0.611
-173.954	-88.420	-0.366	0.108
-172.939	-138.664	-0.968	0.105
-171.925	-134.347	0.904	0.110
-170.910	-170.347	-0.424	0.015
-169.896	-6.707	0.526	0.354
-168.881	-113.155	0.680	0.132
-167.866	-24.050	-0.641	0.378
-166.852	14.731	0.619	-0.478
-165.837	-200.000	-0.069	-0.456
-164.823	-109.256	-0.358	0.075
-163.808	-60.980	1.338	-0.558
-162.793	176.841	0.300	0.431
-161.779	-200.000	0.065	-0.286
-160.764	53.225	-0.636	-0.601
-159.750	-116.557	-0.809	-0.147
-158.735	-61.265	0.308	-0.128
-157.720	-1.838	0.150	0.104
-156.706	72.126	0.487	0.500
-155.691	800.000	0.150	-0.489
-154.677	-155.936	0.181	0.011
-153.662	555.281	-0.182	-0.432
-152.647	281.559	-0.078	0.138
-151.633	800.000	0.190	-0.518
-150.618	-17.507	-0.356	0.221
-149.604	23.623	-0.601	-0.488
-148.589	-103.512	0.146	-0.034
-147.574	424.537	-0.301	0.638
-146.560	-200.000	-0.153	0.695
-145.545	-25.963	0.701	-0.407
-144.531	-33.270	0.642	0.351
-143.516	800.000	-0.134	-0.416
-142.502	-90.427	-0.427	-0.122
-141.487	56.364	-0.245	0.235
-140.472	-200.000	0.077	0.381
-139.458	-136.867	-0.440	-0.050
-138.443	-200.000	-0.143	1.229
-137.429	-33.444	-0.393	0.214
-136.414	800.000	-0.164	-0.541
-135.399	-200.000	0.024	0.293
-134.385	-71.377	0.926	-0.342
-133.370	95.198	0.278	0.313
-132.356	180.988	-0.570	0.825
-131.341	208.224	-0.064	0.099
-130.326	-61.339	0.187	-0.077
-129.312	-200.000	0.003	0.181
-128.297	96.190	0.633	0.713
-127.283	-60.542	0.520	-0.218
-126.268	800.000	0.080	-0.217
-125.253	-25.631	0.452	0.263
-124.239	-91.350	-0.309	-0.087
-123.224	409.091	-0.261	0.544
-122.210	-200.000	0.117	0.540
-121.195	27.460	-0.396	-0.328
-120.180	190.225	-0.392	-0.581
-119.166	-154.993	-0.314	0.020
-118.151	-125.028	0.151	0.023
-117.137	450.859	-0.062	-0.135
-116.122	531.814	0.082	-0.192
-115.107	-200.000	0.071	-1.283
-114.093	-69.228	0.120	-0.046
-113.078	7.512	0.693	0.511
-112.064	800.000	0.325	1.000
-111.049	-115.319	-0.872	0.162
-110.034	-83.402	0.708	-0.224
-109.020	-200.000	-0.187	0.961
-108.005	-145.336	0.736	0.065
-106.991	94.020	-0.236	-0.264
-105.976	-200.000	-0.140	-0.606
-104.962	-141.153	-0.727	0.073
-103.947	-133.381	-0.346	0.043
-102.932	-82.944	0.269	-0.085
-101.918	-89.966	-0.629	-0.181
-100.903	800.000	0.142	-0.410
-99.889	-200.000	0.032	-0.528
-98.874	-48.716	-0.080	-0.038
-97.859	391.132	0.261	0.533
-96.845	800.000	-0.165	0.496
-95.830	34.911	0.956	0.824
-94.816	800.000	-0.144	0.560
-93.801	-2.732	-0.448	-0.309
-92.786	742.754	0.169	0.448
-91.772	-200.000	0.199	1.058
-90.757	-115.329	-0.456	-0.085
-89.743	393.890	-0.102	0.210
-88.728	-200.000	0.055	0.295
-87.713	800.000	0.061	0.168
-86.699	-200.000	0.032	0.371
-85.684	297.851	-0.105	-0.189
-84.670	800.000	0.099	-0.361
-83.655	-67.162	0.203	0.079
-82.640	-111.175	-0.536	-0.108
-81.626	-200.000	-0.028	-0.192
-80.611	-93.147	0.236	0.065
-79.597	-71.731	0.528	0.194
-78.582	181.319	-0.339	-0.490
-77.567	28.344	0.175	-0.146
-76.553	-104.636	-0.395	-0.090
-75.538	-134.637	0.247	0.030
-74.524	-152.021	0.320	0.023
-73.509	-200.000	-0.040	-0.174
-72.494	-68.680	0.250	-0.095
-71.480	10.571	0.211	0.158
-70.465	125.069	0.126	0.156
-69.451	146.529	0.313	0.413
-68.436	-8.392	-0.662	0.438
-67.422	-99.532	-0.684	-0.169
-66.407	-79.011	-0.856	0.286
-65.392	-18.145	-0.548	-0.338
-64.378	800.000	-0.221	-0.712
-63.363	108.355	0.287	0.337
-62.349	-200.000	0.011	0.097
-61.334	154.974	-0.657	-0.889
-60.319	263.212	-0.269	0.460
-59.305	-200.000	-0.097	-0.893
-58.290	588.303	0.904	2.190
-57.276	528.165	0.688	1.595
-56.261	-200.000	96.736	609.479
-55.246	648.618	1366.584	3436.724
-54.232	202.585	2529.507	3839.970
-53.217	120.102	2116.832	2581.946
-52.203	44.098	1583.534	1427.525
-51.188	35.622	1326.104	1145.170
-50.173	32.129	1284.821	1089.261
-49.159	56.609	1336.178	1278.030
-48.144	57.647	1350.986	1298.256
-47.130	35.690	1309.122	1130.725
-46.115	31.796	1292.784	1093.894
-45.100	31.831	1286.662	1088.871
-44.086	31.714	1285.277	1086.979
-43.071	31.633	1282.549	1084.160
-42.057	31.967	1278.705	1082.793
-41.042	31.763	1278.034	1081.007
-40.027	31.902	1275.715	1079.801
-39.013	31.992	1274.427	1079.190
-37.998	32.017	1272.655	1077.788
-36.984	32.093	1270.582	1076.424
-35.969	31.946	1269.118	1074.301
-34.954	31.824	1268.827	1073.313
-33.940	31.991	1266.786	1072.501
-32.925	32.049	1264.205	1070.603
-31.911	31.610	1264.231	1068.080
-30.896	31.923	1262.323	1068.206
-29.881	32.073	1259.916	1066.981
-28.867	32.047	1260.095	1066.942
-27.852	32.092	1258.508	1065.808
-26.838	32.056	1257.422	1064.646
-25.823	32.058	1255.454	1062.947
-24.809	31.762	1254.450	1060.382
-23.794	31.516	1254.061	1058.617
-22.779	31.962	1251.230	1058.704
-21.765	31.976	1249.884	1057.600
-20.750	31.948	1249.461	1057.042
-19.736	31.958	1247.901	1055.737
-18.721	31.933	1244.776	1052.909
-17.706	31.904	1245.480	1053.301
-16.692	31.679	1244.723	1051.357
-15.677	31.838	1243.501	1051.173
-14.663	31.668	1242.632	1049.447
-13.648	31.864	1241.361	1049.426
-12.633	31.545	1240.539	1046.906
-11.619	31.776	1239.182	1047.012
-10.604	31.894	1238.805	1047.311
-9.590	31.887	1236.962	1045.674
-8.575	31.949	1235.752	1044.950
-7.560	31.782	1235.748	1043.978
-6.546	31.546	1235.200	1042.160
-5.531	31.819	1233.766	1042.426
-4.517	31.734	1234.072	1042.170
-3.502	31.847	1232.549	1041.468
-2.487	32.099	1230.577	1041.160
-1.473	31.579	1228.114	1036.157
-0.458	30.225	1211.825	1014.971
0.556	28.130	1194.715	977.192
1.571	24.101	1200.771	960.374
2.586	23.138	1215.318	966.664
3.600	22.603	1203.981	954.666
4.615	16.791	1133.786	869.196
5.629	7.645	1059.641	768.242
6.644	3.753	1038.863	734.636
7.659	3.550	1036.439	731.893
8.673	3.240	1035.364	729.601
9.688	3.178	1033.121	727.662
10.702	3.631	1031.917	728.887
11.717	9.469	1039.427	761.825
12.731	19.103	1052.109	816.996
13.746	23.871	1058.169	844.334
14.761	24.353	1059.309	847.459
15.775	23.875	1058.320	844.320
16.790	23.473	1057.028	841.308
17.804	23.239	1056.441	839.660
18.819	23.164	1055.129	838.185
19.834	23.262	1054.560	838.126
20.848	23.425	1053.736	838.165
21.863	23.135	1054.838	837.596
22.877	23.118	1053.733	836.565
23.892	23.195	1052.424	835.813
24.907	22.910	1051.552	833.702
25.921	22.782	1050.539	832.224
26.936	22.864	1048.336	830.788
27.950	22.963	1047.594	830.592
28.965	22.618	1047.157	828.553
29.980	22.982	1045.642	828.986
30.994	23.332	1044.342	829.522
32.009	23.247	1043.111	828.072
33.023	23.160	1042.881	827.411
34.038	22.703	1042.405	824.823
35.053	23.034	1039.942	824.344
36.067	22.891	1039.571	823.314
37.082	22.934	1038.631	822.695
38.096	22.867	1038.172	821.947
39.111	23.328	1036.655	822.814
40.126	22.760	1036.444	819.939
41.140	22.546	1034.420	817.273
42.155	22.500	1032.447	815.428
43.169	22.299	1031.877	813.976
44.184	22.586	1030.868	814.433
45.199	21.984	1031.234	811.865
46.213	22.493	1030.105	813.256
47.228	23.050	1028.892	814.794
48.242	22.776	1029.400	813.860
49.257	22.957	1027.267	812.934
50.271	23.125	1027.264	813.636
51.286	23.115	1026.756	813.115
52.301	23.368	1025.174	812.948
53.315	23.320	1023.993	811.722
54.330	22.959	1023.935	809.947
55.344	22.808	1022.560	808.099
56.359	22.936	1021.551	807.815
57.374	22.745	1020.475	806.019
58.388	22.704	1019.659	805.119
59.403	22.526	1019.595	804.181
60.417	22.327	1018.222	802.121
61.432	22.358	1018.131	802.121
62.447	22.710	1016.969	802.735
63.461	22.302	1016.173	800.184
64.476	22.283	1014.458	798.677
65.490	22.350	1013.934	798.495
66.505	22.077	1013.952	797.202
67.520	22.387	1013.776	798.399
68.534	22.343	1011.826	796.593
69.549	22.106	1011.467	795.168
70.563	22.242	1009.906	794.484
71.578	21.637	1009.701	791.519
72.593	21.746	1008.158	790.732
73.607	21.770	1008.083	790.711
74.622	21.682	1007.082	789.456
75.636	21.830	1006.778	789.816
76.651	21.873	1005.907	789.258
77.666	21.964	1006.044	789.704
78.680	21.900	1004.424	788.077
79.695	22.262	1003.424	788.847
80.709	21.953	1004.049	787.877
81.724	22.139	1003.938	788.559
82.739	22.391	1001.912	788.023
83.753	23.033	1002.854	791.573
84.768	23.575	1002.390	793.562
85.782	23.806	1001.347	793.695
86.797	23.596	999.755	791.425
87.812	23.225	999.110	789.193
88.826	23.236	998.604	788.772
89.841	23.149	998.036	787.868
90.855	23.237	996.707	787.138
91.870	23.111	996.309	786.194
92.884	23.202	995.339	785.766
93.899	23.027	993.223	783.250
94.914	22.998	992.871	782.776
95.928	23.315	992.079	783.481
96.943	23.305	991.034	782.543
97.957	23.107	989.483	780.377
98.972	23.117	989.371	780.262
99.987	23.376	988.395	780.566
101.001	23.249	986.891	778.751
102.016	22.980	986.789	777.417
103.030	23.270	986.775	778.614
104.045	23.454	985.294	778.183
105.060	23.144	984.411	776.060
106.074	22.857	984.173	774.542
107.089	22.875	982.556	773.281
108.103	22.543	981.427	770.873
109.118	22.174	980.460	768.429
110.133	22.039	979.410	766.948
111.147	22.075	977.748	765.738
112.162	22.194	977.682	766.139
113.176	22.384	976.830	766.228
114.191	22.490	976.693	766.516
115.206	22.580	974.408	765.044
116.220	22.510	973.640	764.069
117.235	22.378	973.565	763.373
118.249	22.185	972.239	761.427
119.264	22.057	971.735	760.411
120.279	22.290	969.566	759.654
121.293	21.810	970.461	758.211
122.308	21.772	969.081	756.902
123.322	21.848	967.802	756.164
124.337	22.082	966.129	755.797
125.352	21.619	966.333	753.899
126.366	21.980	964.104	753.643
127.381	22.176	964.321	754.588
128.395	22.337	964.191	755.109
129.410	22.127	963.007	753.216
130.424	22.362	962.506	753.761
131.439	22.416	962.448	753.883
132.454	22.704	961.083	753.976
133.468	22.471	960.998	752.848
134.483	22.676	959.781	752.702
135.497	22.467	958.930	751.075
136.512	22.386	957.558	749.591
137.527	22.496	957.444	749.904
138.541	22.694	957.394	750.641
139.556	23.368	954.905	751.484
140.570	23.419	954.353	751.201
141.585	23.327	954.899	751.170
142.600	23.132	954.850	750.239
143.614	23.591	953.267	750.873
144.629	23.540	952.236	749.779
145.643	23.520	950.676	748.400
146.658	23.074	949.853	745.806
147.673	23.001	949.559	745.202
148.687	22.716	948.597	743.177
149.702	22.564	946.754	741.031
150.716	22.550	946.033	740.343
151.731	22.553	945.283	739.703
152.746	23.146	944.334	741.378
153.760	22.882	945.093	740.804
154.775	22.918	944.534	740.451
155.789	22.997	944.034	740.322
156.804	23.497	941.354	740.242
157.819	23.093	942.159	739.124
158.833	23.350	942.303	740.244
159.848	23.520	940.742	739.660
160.862	23.273	940.164	738.113
161.877	23.313	936.561	735.387
162.892	22.721	936.779	733.034
163.906	22.429	936.375	731.436
164.921	22.849	933.875	731.160
165.935	22.733	933.505	730.326
166.950	22.950	933.845	731.426
167.964	23.076	932.427	730.770
168.979	22.656	932.332	728.895
169.994	22.706	930.494	727.599
171.008	22.839	930.554	728.132
172.023	23.446	928.749	729.153
173.037	23.290	929.469	729.010
174.052	22.969	929.335	727.520
175.067	22.890	927.740	725.884
176.081	22.305	926.936	722.785
177.096	22.485	925.258	722.151
178.110	22.398	925.083	721.597
179.125	22.384	924.699	721.175
180.140	22.212	925.532	721.055
181.154	22.730	924.671	722.444
182.169	23.005	924.267	723.189
183.183	23.120	923.609	723.079
184.198	23.232	922.281	722.431
185.213	22.823	922.518	720.885
186.227	23.123	921.708	721.413
187.242	23.336	920.975	721.640
188.256	23.292	920.555	721.071
189.271	23.287	919.809	720.403
190.286	23.220	918.761	719.245
191.300	22.602	916.582	714.968
192.315	22.260	915.686	712.822
193.329	22.112	915.967	712.377
194.344	22.685	915.624	714.368
195.359	22.618	915.255	713.745
196.373	23.095	914.423	714.961
197.388	23.635	913.679	716.498
198.402	23.825	914.376	717.751
199.417	23.985	913.945	717.992
200.432	23.739	912.898	716.117
201.446	23.871	912.350	716.153
202.461	23.990	911.522	715.918
203.475	23.645	911.029	714.082
204.490	22.624	911.094	709.960
205.504	23.070	909.479	710.432
206.519	23.220	908.542	710.238
207.534	23.098	907.678	709.009
208.548	23.344	907.445	709.752
209.563	23.439	906.238	709.125
210.577	23.281	906.820	708.884
211.592	23.584	906.592	709.856
212.607	23.993	904.925	710.119
213.621	23.657	904.428	708.329
214.636	23.660	903.427	707.492
215.650	23.618	902.179	706.285
216.665	23.365	902.613	705.557
217.680	23.692	901.404	705.848
218.694	23.397	901.220	704.470
219.709	23.465	900.656	704.237
220.723	23.163	900.919	703.182
221.738	23.253	899.858	702.645
222.753	23.125	898.519	701.033
223.767	23.287	899.070	702.042
224.782	23.506	898.428	702.347
225.796	23.620	897.183	701.759
226.811	23.556	895.315	699.984
227.826	23.074	894.940	697.728
228.840	23.004	894.488	697.037
229.855	22.803	895.029	696.605
230.869	22.941	894.450	696.638
231.884	22.970	892.473	695.150
232.899	23.186	891.923	695.509
233.913	23.033	891.375	694.421
234.928	22.933	890.539	693.313
235.942	22.330	890.399	690.776
236.957	22.324	889.853	690.271
237.972	23.113	887.956	691.825
238.986	22.452	887.931	689.157
240.001	22.608	887.905	689.686
241.015	22.644	887.618	689.543
242.030	22.747	886.831	689.273
243.045	22.925	887.009	690.047
244.059	22.842	886.318	689.123
245.074	22.974	885.797	689.171
246.088	23.226	885.020	689.489
247.103	23.732	884.388	690.903
248.117	23.870	884.344	691.344
249.132	24.250	884.483	692.867
250.147	24.754	883.828	694.252
251.161	24.591	884.154	693.813
252.176	24.584	884.123	693.700
253.190	24.173	883.697	691.708
254.205	24.200	882.964	691.180
255.220	24.246	881.093	689.830
256.234	24.420	880.268	689.799
257.249	24.317	879.605	688.818
258.263	24.182	878.614	687.460
259.278	24.159	878.471	687.198
260.293	24.613	877.563	688.177
261.307	24.257	877.816	686.943
262.322	24.676	876.020	687.088
263.336	24.353	876.575	686.222
264.351	23.880	875.317	683.356
265.366	24.315	874.293	684.168
266.380	24.427	873.674	684.052
267.395	24.570	873.071	684.067
268.409	24.112	872.230	681.594
269.424	24.423	871.027	681.783
270.439	24.293	871.474	681.575
271.453	24.187	870.619	680.440
272.468	23.757	870.289	678.480
273.482	23.914	869.897	678.716
274.497	23.861	869.538	678.173
275.512	24.318	867.699	678.417
276.526	24.496	867.402	678.802
277.541	24.055	867.855	677.420
278.555	24.186	867.827	677.835
279.570	24.683	867.442	679.363
280.585	24.642	865.970	677.994
281.599	24.294	864.949	675.816
282.614	24.130	864.350	674.669
283.628	23.939	863.742	673.409
284.643	23.749	863.057	672.098
285.657	23.841	862.850	672.224
286.672	23.694	861.865	670.845
287.687	23.819	861.706	671.133
288.701	24.162	860.917	671.753
289.716	24.100	859.879	670.649
290.730	24.164	859.822	670.788
291.745	24.301	858.962	670.572
292.760	24.222	859.811	670.876
293.774	24.462	859.205	671.246
294.789	24.639	858.498	671.300
295.803	24.268	857.276	668.895
296.818	24.418	856.462	668.763
297.833	23.931	855.659	666.252
298.847	24.092	854.477	665.875
299.862	24.341	854.430	666.710
300.876	24.536	854.442	667.388
301.891	24.526	853.935	666.897
302.906	24.804	853.753	667.735
303.920	24.963	853.079	667.741
304.935	24.848	852.478	666.782
305.949	24.564	852.523	665.700
306.964	24.278	850.751	663.194
307.979	24.357	849.822	662.705
308.993	24.897	849.404	664.326
310.008	24.604	849.332	663.121
311.022	24.457	848.499	661.868
312.037	24.300	847.913	660.772
313.052	24.169	847.449	659.866
314.066	23.569	847.309	657.474
315.081	23.629	846.624	657.107
316.095	23.817	845.724	657.047
317.110	24.004	845.408	657.434
318.125	23.603	844.308	655.040
319.139	23.336	844.127	653.857
320.154	23.355	843.071	653.050
321.168	24.022	842.612	655.095
322.183	24.020	842.001	654.554
323.197	23.785	842.132	653.734
324.212	23.827	842.816	654.361
325.227	24.173	840.618	653.866
326.241	23.871	839.707	651.994
327.256	23.842	839.638	651.775
328.270	23.778	839.110	651.071
329.285	23.727	838.378	650.261
330.300	23.197	837.879	647.878
331.314	23.616	837.211	648.834
332.329	24.201	836.782	650.583
333.343	24.392	836.115	650.702
334.358	24.550	835.991	651.123
335.373	24.058	836.360	649.560
336.387	24.705	835.443	651.145
337.402	24.826	834.464	650.767
338.416	24.988	835.030	651.740
339.431	24.511	836.272	650.911
340.446	25.214	834.309	651.882
341.460	25.257	834.757	652.332
342.475	25.015	834.360	651.084
343.489	25.319	833.131	651.169
344.504	25.437	833.818	652.079
345.519	25.372	833.212	651.309
346.533	25.318	832.307	650.348
347.548	24.856	831.454	647.953
348.562	24.929	830.719	647.588
349.577	24.844	830.057	646.706
350.592	24.532	829.322	644.952
351.606	24.456	828.104	643.672
352.621	24.286	828.067	642.974
353.635	24.469	827.583	643.199
354.650	24.509	827.273	643.046
355.665	24.419	826.285	641.897
356.679	24.763	825.671	642.598
357.694	24.804	824.736	641.963
358.708	24.601	823.407	640.143
359.723	24.528	823.326	639.762
360.738	24.611	823.016	639.762
361.752	24.812	822.447	639.982
362.767	24.924	822.925	640.700
363.781	25.012	822.418	640.562
364.796	25.277	821.589	640.807
365.810	25.672	820.332	641.176
366.825	25.185	821.294	640.135
367.840	25.333	819.528	639.229
368.854	24.952	819.117	637.495
369.869	25.208	818.273	637.693
370.883	25.158	818.073	637.302
371.898	25.311	818.417	638.058
372.913	25.181	818.162	637.341
373.927	24.932	817.268	635.704
374.942	24.740	816.918	634.695
375.956	25.320	816.700	636.525
376.971	25.242	816.130	635.749
377.986	25.349	816.207	636.132
379.000	25.625	815.047	636.148
380.015	25.605	814.500	635.594
381.029	25.451	813.812	634.456
382.044	25.599	813.619	634.773
383.059	25.657	812.924	634.379
384.073	25.205	812.812	632.643
385.088	25.326	810.801	631.445
386.102	24.745	810.412	629.044
387.117	24.691	809.457	628.058
388.132	24.648	808.859	627.386
389.146	24.800	808.641	627.695
390.161	25.103	809.468	629.344
391.175	25.478	808.653	629.970
392.190	25.236	807.076	627.840
393.205	24.782	807.168	626.266
394.219	24.283	806.439	623.901
395.234	23.928	806.111	622.350
396.248	24.535	805.620	624.039
397.263	24.742	805.115	624.315
398.278	24.301	804.244	622.045
399.292	24.241	804.257	621.792
400.307	24.053	803.330	620.365
401.321	24.503	803.608	622.091
402.336	24.778	803.627	623.008
403.350	24.598	804.139	622.723
404.365	25.644	802.117	624.736
405.380	25.845	802.569	625.733
406.394	26.140	801.514	625.878
407.409	26.071	801.172	625.316
408.423	26.172	801.712	626.030
409.438	26.145	800.678	625.076
410.453	25.873	800.104	623.632
411.467	26.026	799.468	623.607
412.482	25.754	799.754	622.837
413.496	25.992	799.643	623.517
414.511	25.930	799.117	622.838
415.526	25.808	798.538	621.910
416.540	25.496	797.995	620.354
417.555	25.809	796.772	620.427
418.569	25.682	796.937	620.063
419.584	25.924	796.201	620.270
420.599	26.054	794.869	619.624
421.613	161.874	1370.695	1793.119
422.628	140.400	1454.563	1793.244
