DTS Sentinel unit serial number:	SN413079Multiplexer serial number:	ORYXHardware model number:	OX4-SRSoftware version number:	ORYX F/W v4.00 Oryx Data Collector v3.7.2.0data status	okinstallation	princeton_trtdifferential loss correction	single-endedforward channel	channel 1reverse channel	N/Adate	2019/09/14time	04:50:35forward acquisition time	60.00reverse acquisition time	0.00gamma	496.2192k internal	0.2334k external	0.2334temperature offset calibration	1.0080default loss term (dB/km)	0.3790temperature slope calibration	1.0000multiplexer offset coefficient	1.0000multiplexer slope coefficient	1.0000fibre end	0.00T internal ref (°C)	26.83T ext. ref 1 (°C)	3.35T ext. ref 2 (°C)	21.97length (m)	temperature (°C)	Stokes	anti-Stokes-747.200	372.003	-0.055	-0.113
-746.185	-186.059	-0.156	-0.002
-745.171	-188.116	0.060	0.001
-744.156	21.656	-0.103	0.084
-743.142	319.272	-0.075	0.142
-742.127	88.659	-0.053	0.059
-741.112	-83.251	0.161	-0.052
-740.098	-200.000	0.006	-0.166
-739.083	-101.301	0.404	0.099
-738.069	238.273	0.080	0.133
-737.054	-166.297	0.099	0.004
-736.039	-69.105	-0.176	0.068
-735.025	800.000	-0.062	0.239
-734.010	109.718	-0.351	-0.423
-732.996	0.322	-0.393	-0.282
-731.981	800.000	-0.109	0.398
-730.966	-200.000	-0.007	0.195
-729.952	93.753	0.120	0.136
-728.937	115.521	-0.126	-0.154
-727.923	97.817	-0.057	-0.066
-726.908	201.177	-0.226	-0.349
-725.894	37.053	-0.205	-0.182
-724.879	-170.139	-0.546	-0.019
-723.864	-200.000	0.007	-0.044
-722.850	1.350	-0.201	0.145
-721.835	15.026	0.117	0.092
-720.821	-200.000	-0.006	-0.033
-719.806	-9.115	-0.151	-0.101
-718.791	66.528	0.103	0.105
-717.777	-200.000	0.017	0.111
-716.762	574.185	0.161	-0.395
-715.748	205.805	0.132	-0.206
-714.733	800.000	-0.128	0.388
-713.718	800.000	-0.027	-0.097
-712.704	-20.373	0.114	0.070
-711.689	111.208	-0.117	0.141
-710.675	-200.000	0.007	0.251
-709.660	800.000	0.059	0.164
-708.645	800.000	0.049	-0.186
-707.631	800.000	-0.024	0.077
-706.616	-200.000	-0.053	0.245
-705.602	-200.000	0.006	-0.152
-704.587	104.885	-0.110	-0.130
-703.572	-200.000	0.084	0.425
-702.558	-200.000	-0.027	-0.197
-701.543	33.557	-0.323	-0.282
-700.529	-2.278	0.122	-0.086
-699.514	-46.921	-0.069	-0.034
-698.499	-200.000	-0.013	0.337
-697.485	489.716	-0.135	0.309
-696.470	161.522	-0.356	0.499
-695.456	370.605	0.055	0.111
-694.441	-45.336	0.044	0.022
-693.426	-6.423	0.184	-0.126
-692.412	-136.920	0.079	0.009
-691.397	-118.850	-0.210	-0.037
-690.383	-200.000	-0.047	-0.225
-689.368	-26.529	-0.326	0.191
-688.354	37.293	0.345	0.306
-687.339	222.546	-0.058	-0.094
-686.324	-200.000	-0.352	-0.001
-685.310	-75.359	-0.206	-0.074
-684.295	-200.000	-0.006	0.284
-683.281	-200.000	-0.009	0.300
-682.266	-103.988	0.160	0.037
-681.251	-45.198	-0.276	0.138
-680.237	9.210	0.067	-0.051
-679.222	-200.000	0.012	0.052
-678.208	-163.048	-0.165	-0.008
-677.193	711.449	-0.025	0.066
-676.178	7.466	0.182	-0.136
-675.164	800.000	0.033	0.101
-674.149	-16.102	-0.064	-0.041
-673.135	100.037	0.090	0.105
-672.120	-73.261	0.298	-0.109
-671.105	-79.492	0.403	0.137
-670.091	101.124	0.127	-0.148
-669.076	-80.908	0.083	-0.028
-668.062	506.026	0.154	0.357
-667.047	-34.799	-0.064	-0.035
-666.032	-68.134	0.136	0.053
-665.018	-11.777	-0.134	-0.088
-664.003	-27.246	-0.137	-0.080
-662.989	139.792	0.078	-0.103
-661.974	-145.157	0.075	-0.007
-660.959	-71.617	-0.194	0.072
-659.945	200.634	0.126	0.195
-658.930	418.516	-0.142	0.304
-657.916	62.204	-0.286	0.286
-656.901	94.256	-0.125	-0.142
-655.886	-16.256	0.116	-0.074
-654.872	-129.575	0.156	0.022
-653.857	37.586	0.167	-0.148
-652.843	-78.691	0.242	0.083
-651.828	800.000	-0.044	0.140
-650.814	-200.000	0.030	0.144
-649.799	-171.301	0.251	-0.008
-648.784	510.512	-0.216	0.504
-647.770	-200.000	-0.075	-0.363
-646.755	-200.000	-0.022	0.142
-645.741	294.721	-0.092	0.168
-644.726	124.088	-0.077	-0.097
-643.711	35.512	0.174	0.153
-642.697	-4.061	-0.120	0.083
-641.682	223.853	0.048	-0.078
-640.668	-158.901	0.095	0.005
-639.653	59.966	0.153	0.152
-638.638	-149.321	0.154	-0.012
-637.624	-35.214	0.287	0.157
-636.609	56.630	-0.174	-0.169
-635.595	-200.000	-0.026	0.119
-634.580	159.831	-0.118	-0.165
-633.565	334.903	0.004	-0.008
-632.551	441.245	0.056	0.123
-631.536	-73.049	0.226	0.083
-630.522	-88.883	-0.517	0.154
-629.507	550.075	0.032	-0.078
-628.492	-200.000	-0.004	-0.437
-627.478	-200.000	0.166	0.000
-626.463	-20.323	-0.176	-0.108
-625.449	1.496	-0.287	-0.206
-624.434	-200.000	-0.009	0.106
-623.419	-93.894	-0.201	-0.055
-622.405	151.513	0.208	-0.283
-621.390	-108.707	-0.164	0.035
-620.376	-19.807	0.059	-0.036
-619.361	800.000	0.061	0.194
-618.346	-121.049	-0.040	-0.007
-617.332	71.772	-0.146	0.152
-616.317	-184.684	0.060	0.001
-615.303	795.740	0.049	0.135
-614.288	45.659	0.175	-0.162
-613.273	800.000	-0.106	-0.330
-612.259	200.392	0.044	-0.068
-611.244	-53.536	0.162	-0.074
-610.230	-64.793	0.330	0.134
-609.215	-200.000	-0.010	0.091
-608.201	-148.987	0.178	-0.014
-607.186	-41.376	0.243	0.125
-606.171	96.985	-0.168	0.193
-605.157	236.382	0.090	0.149
-604.142	-161.080	0.291	-0.015
-603.128	800.000	-0.110	0.409
-602.113	6.934	0.057	0.043
-601.098	-192.962	-0.301	0.003
-600.084	-145.594	0.099	0.009
-599.069	40.239	0.128	-0.115
-598.055	-107.000	0.239	0.053
-597.040	-105.391	-0.092	-0.021
-596.025	174.382	-0.130	0.188
-595.011	236.204	0.079	-0.131
-593.996	-7.080	-0.347	-0.236
-592.982	-200.000	0.045	0.333
-591.967	11.211	-0.131	0.101
-590.952	140.412	0.207	0.273
-589.938	34.785	0.029	-0.025
-588.923	800.000	0.048	0.174
-587.909	-42.259	0.338	-0.172
-586.894	72.394	-0.175	-0.183
-585.879	-64.553	0.355	-0.144
-584.865	197.461	-0.221	0.336
-583.850	195.432	-0.173	0.262
-582.836	-118.653	-0.352	0.062
-581.821	4.618	0.089	0.065
-580.806	-52.670	0.107	0.049
-579.792	-200.000	0.011	-0.126
-578.777	800.000	-0.067	0.257
-577.763	-80.876	0.185	-0.061
-576.748	-200.000	0.006	-0.191
-575.733	275.918	0.175	-0.310
-574.719	330.228	-0.148	-0.285
-573.704	800.000	0.049	-0.214
-572.690	-200.000	-0.017	-0.252
-571.675	-10.801	-0.112	-0.074
-570.661	-200.000	-0.059	0.306
-569.646	344.841	-0.178	-0.348
-568.631	142.320	0.066	0.087
-567.617	800.000	0.045	-0.185
-566.602	43.379	-0.178	-0.162
-565.588	-200.000	-0.027	0.121
-564.573	-185.555	0.263	-0.004
-563.558	103.455	0.168	-0.197
-562.544	764.689	0.076	0.206
-561.529	-190.552	0.462	-0.005
-560.515	-52.585	-0.220	-0.101
-559.500	800.000	-0.025	0.087
-558.485	598.848	-0.055	-0.137
-557.471	229.164	0.239	0.389
-556.456	-27.435	0.078	0.045
-555.442	-89.514	0.069	-0.020
-554.427	-149.837	-0.206	0.016
-553.412	482.422	0.065	-0.147
-552.398	-96.342	0.259	0.068
-551.383	-101.764	-0.297	-0.072
-550.369	-145.024	-0.237	0.022
-549.354	-200.000	-0.030	-0.191
-548.339	-156.856	-0.249	-0.015
-547.325	-200.000	0.025	-0.230
-546.310	-6.777	-0.106	-0.072
-545.296	-164.723	0.296	0.013
-544.281	57.357	0.104	0.102
-543.266	-134.795	0.304	-0.037
-542.252	800.000	0.061	0.193
-541.237	800.000	-0.049	0.214
-540.223	-103.065	0.120	-0.028
-539.208	25.204	0.236	-0.196
-538.193	-200.000	0.017	-0.130
-537.179	-15.836	-0.115	-0.073
-536.164	-187.858	0.185	0.002
-535.150	800.000	-0.082	-0.330
-534.135	-9.517	0.120	-0.080
-533.121	-86.697	0.380	-0.116
-532.106	-69.891	0.127	-0.048
-531.091	800.000	-0.069	-0.267
-530.077	-79.733	0.261	-0.088
-529.062	162.625	0.058	0.081
-528.048	-140.550	-0.148	-0.015
-527.033	-96.624	0.297	0.078
-526.018	-79.318	0.102	-0.035
-525.004	201.952	-0.204	-0.314
-523.989	90.959	0.089	-0.099
-522.975	-200.000	0.032	-0.268
-521.960	-21.498	0.577	-0.351
-520.945	-42.980	0.212	-0.107
-519.931	91.976	-0.193	-0.216
-518.916	-200.000	-0.026	-0.119
-517.902	168.757	-0.099	0.141
-516.887	-95.156	-0.253	0.068
-515.872	-140.998	-0.178	0.018
-514.858	-108.834	-0.253	0.054
-513.843	-97.143	0.151	0.039
-512.829	-6.188	0.071	0.048
-511.814	210.761	0.251	0.393
-510.799	130.585	0.114	0.145
-509.785	24.689	-0.287	0.237
-508.770	58.589	-0.296	-0.290
-507.756	800.000	-0.059	-0.189
-506.741	-38.394	-0.232	0.122
-505.726	-200.000	0.002	-0.118
-504.712	-200.000	-0.056	0.252
-503.697	-62.305	0.060	-0.025
-502.683	18.022	-0.108	-0.086
-501.668	-96.431	0.059	0.016
-500.653	-74.015	-0.116	0.042
-499.639	181.299	0.164	0.239
-498.624	37.029	-0.301	-0.265
-497.610	-198.179	0.072	-0.000
-496.595	800.000	-0.033	0.123
-495.581	777.923	0.015	-0.039
-494.566	-88.901	0.156	-0.046
-493.551	21.963	-0.431	0.349
-492.537	138.565	-0.135	0.176
-491.522	32.472	-0.182	-0.156
-490.508	-64.988	0.184	0.074
-489.493	-39.510	-0.098	0.051
-488.478	404.384	-0.101	-0.213
-487.464	-200.000	0.001	0.319
-486.449	196.563	0.092	-0.139
-485.435	-197.834	-0.426	0.003
-484.420	543.081	-0.200	-0.474
-483.405	54.112	-0.178	-0.170
-482.391	-117.160	0.493	-0.089
-481.376	-34.121	-0.169	-0.092
-480.362	148.805	0.171	0.230
-479.347	140.864	0.046	-0.061
-478.332	-44.963	-0.268	0.133
-477.318	-99.650	0.169	0.042
-476.303	800.000	-0.036	-0.105
-475.289	-108.174	0.253	0.055
-474.274	-36.296	0.176	-0.094
-473.259	800.000	-0.039	-0.118
-472.245	116.247	-0.107	-0.130
-471.230	98.970	0.111	0.127
-470.216	800.000	-0.064	0.253
-469.201	-40.615	0.052	-0.027
-468.186	673.717	-0.048	0.124
-467.172	800.000	-0.043	-0.150
-466.157	800.000	-0.060	0.237
-465.143	-77.416	0.216	-0.074
-464.128	-162.732	0.191	-0.009
-463.113	-43.886	-0.200	-0.100
-462.099	-200.000	0.024	0.110
-461.084	129.062	0.230	0.291
-460.070	245.392	-0.032	-0.053
-459.055	-38.737	-0.147	0.077
-458.040	139.353	-0.260	0.340
-457.026	-200.000	-0.025	0.309
-456.011	412.323	-0.136	0.287
-454.997	75.262	0.142	-0.149
-453.982	21.432	0.124	-0.100
-452.968	203.494	0.049	-0.075
-451.953	-57.839	-0.144	0.062
-450.938	-200.000	0.066	0.378
-449.924	125.736	-0.168	0.210
-448.909	316.562	0.009	0.016
-447.895	800.000	-0.035	-0.114
-446.880	87.934	0.167	-0.184
-445.865	-79.776	-0.245	-0.082
-444.851	-84.205	-0.177	0.056
-443.836	-200.000	0.028	-0.375
-442.822	2.497	-0.175	-0.126
-441.807	-200.000	0.020	-0.157
-440.792	625.707	-0.078	0.196
-439.778	-143.588	-0.122	-0.012
-438.763	-85.740	0.067	-0.021
-437.749	80.249	-0.038	-0.041
-436.734	-200.000	0.021	0.445
-435.719	800.000	0.057	0.193
-434.705	-200.000	0.009	-0.062
-433.690	-64.581	0.322	0.130
-432.676	10.952	-0.188	-0.143
-431.661	267.989	-0.015	-0.026
-430.646	-82.713	-0.102	-0.033
-429.632	-183.085	0.342	0.006
-428.617	136.940	-0.177	0.230
-427.603	-13.109	0.159	0.102
-426.588	-75.930	-0.633	-0.222
-425.573	800.000	-0.075	-0.311
-424.559	800.000	-0.073	0.310
-423.544	590.335	0.086	0.211
-422.530	-144.086	-0.278	-0.026
-421.515	591.521	-0.178	-0.437
-420.500	235.437	0.050	0.082
-419.486	168.309	0.058	-0.083
-418.471	-32.692	-0.115	0.064
-417.457	-200.000	-0.031	0.197
-416.442	176.289	0.220	-0.317
-415.428	106.649	-0.167	0.197
-414.413	-150.459	-0.147	0.011
-413.398	526.802	-0.036	0.084
-412.384	-200.000	0.035	0.163
-411.369	-78.959	0.165	-0.056
-410.355	12.434	-0.221	0.169
-409.340	-29.603	0.076	-0.043
-408.325	142.486	-0.084	0.111
-407.311	-73.248	0.119	0.043
-406.296	278.070	-0.138	0.244
-405.282	-200.000	0.022	-0.181
-404.267	6.093	-0.329	-0.242
-403.252	-35.179	0.187	-0.101
-402.238	153.011	0.241	-0.327
-401.223	-200.000	0.021	0.275
-400.209	-49.476	-0.230	-0.109
-399.194	213.054	0.124	-0.194
-398.179	282.949	-0.100	-0.179
-397.165	-61.188	0.135	-0.057
-396.150	-69.557	0.382	-0.145
-395.136	-23.560	0.070	-0.042
-394.121	101.745	0.266	0.307
-393.106	246.710	-0.149	0.249
-392.092	-141.708	-0.391	-0.039
-391.077	474.980	-0.156	0.348
-390.063	-30.010	0.309	-0.174
-389.048	218.197	-0.144	0.228
-388.033	-26.394	0.158	-0.092
-387.019	132.277	0.117	-0.150
-386.004	800.000	0.081	-0.285
-384.990	-96.876	-0.396	-0.103
-383.975	-99.727	0.089	0.022
-382.960	-200.000	-0.075	0.408
-381.946	71.402	0.122	0.126
-380.931	800.000	-0.059	0.229
-379.917	639.586	0.085	0.214
-378.902	251.872	-0.111	0.188
-377.888	508.646	-0.042	0.097
-376.873	137.696	0.189	-0.245
-375.858	180.780	-0.056	-0.082
-374.844	-200.000	-0.235	-0.000
-373.829	-95.854	0.263	0.070
-372.815	-12.521	-0.394	0.255
-371.800	-2.583	0.141	0.098
-370.785	69.943	-0.161	0.165
-369.771	-200.000	0.007	-0.198
-368.756	800.000	0.042	0.138
-367.742	-29.007	0.228	-0.129
-366.727	184.699	0.028	0.042
-365.712	181.192	-0.321	-0.467
-364.698	30.434	-0.257	-0.217
-363.683	-126.407	-0.202	0.030
-362.669	-112.426	0.256	-0.051
-361.654	194.535	-0.215	0.322
-360.639	394.831	0.124	0.256
-359.625	-21.197	0.111	0.067
-358.610	-200.000	0.074	-0.398
-357.596	-97.329	0.235	-0.061
-356.581	-87.724	0.245	-0.073
-355.566	286.368	0.181	-0.323
-354.552	-200.000	0.003	0.141
-353.537	-200.000	0.080	-0.428
-352.523	78.889	0.221	-0.235
-351.508	216.701	0.122	0.193
-350.493	72.220	-0.322	0.332
-349.479	-143.046	-0.107	-0.010
-348.464	800.000	0.046	0.194
-347.450	-53.928	0.149	0.067
-346.435	-72.462	-0.183	0.067
-345.420	47.660	-0.235	-0.217
-344.406	-158.719	0.308	0.017
-343.391	-76.922	0.350	0.121
-342.377	-98.413	-0.081	0.020
-341.362	800.000	0.033	-0.140
-340.348	513.252	0.070	-0.162
-339.333	547.833	-0.036	0.086
-338.318	389.897	-0.069	-0.142
-337.304	-154.497	0.172	-0.011
-336.289	-200.000	0.043	0.383
-335.275	99.542	-0.139	-0.159
-334.260	369.045	0.041	0.083
-333.245	248.384	-0.180	-0.301
-332.231	-155.076	-0.171	-0.011
-331.216	350.015	0.082	0.160
-330.202	11.767	-0.329	0.250
-329.187	-48.464	-0.176	0.084
-328.172	-44.920	-0.383	-0.189
-327.158	-134.426	0.082	0.010
-326.143	95.343	-0.021	0.023
-325.129	8.567	0.175	-0.131
-324.114	-156.331	0.028	-0.002
-323.099	-154.533	0.302	0.020
-322.085	647.716	0.089	-0.224
-321.070	800.000	0.029	-0.095
-320.056	-200.000	0.034	-0.336
-319.041	496.244	-0.073	0.166
-318.026	-44.146	-0.280	0.139
-317.012	40.265	-0.095	0.085
-315.997	-200.000	-0.022	0.408
-314.983	-78.781	-0.278	0.094
-313.968	-200.000	-0.034	-0.218
-312.953	-200.000	0.040	-0.187
-311.939	5.166	0.070	0.051
-310.924	61.802	-0.070	-0.069
-309.910	82.493	0.297	-0.318
-308.895	-18.076	-0.210	0.130
-307.880	-200.000	0.018	0.205
-306.866	42.523	-0.035	0.032
-305.851	-200.000	-0.022	-0.128
-304.837	-149.209	0.114	-0.009
-303.822	-29.732	-0.201	-0.113
-302.807	381.256	0.125	-0.253
-301.793	-162.844	-0.443	0.021
-300.778	-13.840	0.224	0.143
-299.764	800.000	-0.041	0.138
-298.749	-200.000	0.000	0.098
-297.735	347.211	-0.047	-0.091
-296.720	-101.609	0.090	-0.022
-295.705	27.620	0.159	-0.132
-294.691	800.000	0.090	0.290
-293.676	17.400	-0.276	0.216
-292.662	-200.000	-0.024	0.275
-291.647	142.973	0.240	0.316
-290.632	-156.198	-0.110	0.007
-289.618	768.718	0.143	0.385
-288.603	-4.043	0.401	0.274
-287.589	21.589	0.269	0.216
-286.574	148.679	0.115	0.153
-285.559	438.820	-0.109	0.236
-284.545	60.996	0.336	-0.329
-283.530	261.974	0.095	-0.162
-282.516	331.328	-0.045	0.086
-281.501	-167.440	0.201	0.008
-280.486	14.702	0.132	-0.102
-279.472	164.280	-0.045	-0.063
-278.457	-200.000	0.019	-0.150
-277.443	-200.000	-0.004	-0.146
-276.428	32.866	-0.196	0.167
-275.413	-200.000	-0.015	-0.131
-274.399	275.832	-0.079	-0.139
-273.384	-200.000	0.025	-0.202
-272.370	48.818	0.146	-0.135
-271.355	-165.640	-0.272	-0.012
-270.340	411.341	0.070	-0.147
-269.326	36.783	0.044	0.038
-268.311	129.976	0.258	-0.326
-267.297	361.895	-0.100	0.197
-266.282	-95.638	0.120	-0.032
-265.267	-3.980	-0.082	-0.056
-264.253	3.647	0.051	0.036
-263.238	-141.534	0.216	0.021
-262.224	38.846	0.090	-0.079
-261.209	-137.423	0.404	-0.045
-260.195	-200.000	0.087	-0.505
-259.180	-26.964	-0.146	-0.084
-258.165	620.954	0.164	-0.408
-257.151	-88.749	0.297	-0.087
-256.136	184.877	-0.107	-0.156
-255.122	293.817	-0.120	0.216
-254.107	800.000	0.045	-0.169
-253.092	-46.006	0.049	-0.024
-252.078	167.385	-0.120	-0.169
-251.063	800.000	0.046	-0.137
-250.049	-200.000	-0.008	-0.468
-249.034	20.409	0.037	-0.029
-248.019	17.540	-0.081	-0.064
-247.005	-137.743	0.449	0.050
-245.990	-200.000	-0.015	0.088
-244.976	-200.000	0.008	0.380
-243.961	29.903	0.236	0.198
-242.946	-200.000	-0.047	-0.274
-241.932	486.931	0.057	-0.128
-240.917	-200.000	-0.053	-0.241
-239.903	-83.918	-0.372	-0.117
-238.888	-16.416	-0.070	0.044
-237.873	-90.771	0.108	-0.031
-236.859	-133.125	0.070	0.009
-235.844	-32.998	0.246	-0.134
-234.830	-26.805	0.360	0.207
-233.815	-200.000	-0.027	0.205
-232.800	-91.007	0.127	0.036
-231.786	-156.298	-0.080	0.005
-230.771	-150.827	-0.128	0.010
-229.757	-200.000	-0.025	-0.183
-228.742	86.706	-0.163	-0.177
-227.727	-200.000	0.001	0.100
-226.713	92.311	-0.276	-0.306
-225.698	162.747	-0.126	-0.175
-224.684	-200.000	0.008	0.122
-223.669	548.920	0.073	0.171
-222.655	-151.498	-0.469	0.034
-221.640	800.000	0.032	-0.117
-220.625	-150.338	-0.154	-0.012
-219.611	-200.000	-0.044	-0.197
-218.596	-119.121	0.278	0.048
-217.582	712.134	0.024	-0.061
-216.567	-182.372	0.020	-0.000
-215.552	151.753	-0.061	-0.081
-214.538	-26.082	-0.083	0.048
-213.523	-21.886	0.068	0.040
-212.509	6.623	0.120	0.088
-211.494	126.391	-0.229	0.285
-210.479	-29.663	-0.144	-0.081
-209.465	95.853	-0.222	-0.250
-208.450	800.000	-0.041	-0.174
-207.436	-62.129	0.138	0.057
-206.421	-200.000	0.043	0.331
-205.406	-63.195	-0.194	0.079
-204.392	-1.027	-0.023	0.016
-203.377	-200.000	-0.020	0.129
-202.363	-87.665	0.317	-0.094
-201.348	166.098	-0.151	-0.210
-200.333	-127.964	-0.289	-0.041
-199.319	800.000	0.104	0.327
-198.304	-123.227	0.285	-0.045
-197.290	-200.000	-0.007	-0.210
-196.275	-91.146	0.127	0.036
-195.260	800.000	0.032	0.106
-194.246	18.432	-0.152	0.120
-193.231	-142.792	0.112	0.011
-192.217	-64.789	-0.498	0.198
-191.202	-130.661	-0.160	-0.021
-190.187	-37.110	0.142	-0.075
-189.173	-166.762	0.233	-0.009
-188.158	800.000	-0.064	-0.216
-187.144	155.571	-0.072	0.098
-186.129	0.517	0.277	0.195
-185.114	44.280	-0.081	-0.074
-184.100	548.565	-0.025	0.060
-183.085	-24.961	0.158	0.092
-182.071	-200.000	0.026	-0.167
-181.056	-65.591	0.152	0.060
-180.042	-200.000	-0.018	0.122
-179.027	77.973	-0.314	0.329
-178.012	-66.850	-0.066	0.026
-176.998	-200.000	0.009	0.156
-175.983	-50.119	-0.301	0.140
-174.969	-79.319	-0.324	0.108
-173.954	55.280	-0.166	0.158
-172.939	-168.347	-0.211	-0.008
-171.925	229.078	-0.031	0.050
-170.910	-80.293	0.358	-0.118
-169.896	-200.000	-0.012	0.414
-168.881	709.395	-0.115	0.298
-167.866	-57.671	-0.244	-0.105
-166.852	-98.100	0.027	0.007
-165.837	2.783	0.204	0.146
-164.823	-200.000	0.024	-0.275
-163.808	-147.028	-0.269	-0.023
-162.793	-112.047	-0.276	-0.055
-161.779	-200.000	0.034	-0.384
-160.764	800.000	-0.108	0.427
-159.750	2.232	0.226	-0.160
-158.735	48.373	-0.233	0.214
-157.720	-55.760	0.088	0.039
-156.706	-104.931	0.377	0.085
-155.691	-91.068	-0.198	-0.056
-154.677	91.615	-0.242	-0.267
-153.662	-200.000	-0.020	0.127
-152.647	-129.979	-0.138	-0.019
-151.633	-2.815	0.219	0.150
-150.618	614.290	-0.106	0.260
-149.604	319.062	-0.090	0.168
-148.589	151.446	0.178	-0.238
-147.574	95.855	0.267	0.299
-146.560	-200.000	0.040	0.388
-145.545	-200.000	0.030	-0.138
-144.531	497.680	0.134	0.302
-143.516	486.866	0.282	0.632
-142.502	-0.485	0.080	0.056
-141.487	10.052	-0.245	0.183
-140.472	-60.859	-0.154	0.064
-139.458	-170.027	0.367	-0.013
-138.443	234.340	-0.023	0.037
-137.429	-50.292	0.493	0.229
-136.414	-44.708	-0.169	0.083
-135.399	32.934	0.231	0.197
-134.385	19.799	0.268	0.212
-133.370	-35.826	0.059	0.031
-132.356	-141.159	-0.150	0.015
-131.341	800.000	0.090	-0.310
-130.326	-200.000	-0.107	-0.477
-129.312	0.684	0.148	-0.104
-128.297	-50.763	0.119	0.055
-127.283	-189.329	-0.342	0.004
-126.268	66.727	0.135	0.134
-125.253	-27.638	0.093	-0.053
-124.239	-112.797	0.245	-0.048
-123.224	107.823	-0.150	0.176
-122.210	342.554	0.096	-0.184
-121.195	718.809	-0.090	-0.234
-120.180	189.471	-0.203	-0.298
-119.166	-40.690	0.116	0.059
-118.151	-93.751	0.279	0.076
-117.137	-144.571	0.271	0.025
-116.122	-9.972	0.023	0.015
-115.107	800.000	-0.020	0.069
-114.093	320.713	0.096	0.178
-113.078	498.293	-0.059	0.134
-112.064	-21.973	-0.169	-0.101
-111.049	78.963	0.325	0.341
-110.034	43.187	0.117	0.104
-109.020	161.270	0.226	-0.310
-108.005	10.111	0.098	-0.073
-106.991	800.000	-0.050	0.202
-105.976	126.628	-0.111	0.138
-104.962	630.389	-0.062	-0.153
-103.947	-200.000	0.001	0.014
-102.932	168.314	0.256	-0.357
-101.918	-200.000	0.015	0.475
-100.903	-200.000	-0.016	0.233
-99.889	203.129	0.249	0.377
-98.874	778.383	0.061	0.163
-97.859	-44.987	0.326	-0.159
-96.845	-60.727	-0.221	-0.092
-95.830	-89.315	-0.207	0.060
-94.816	583.922	0.077	0.186
-93.801	-102.587	0.099	-0.023
-92.786	-200.000	-0.004	-0.155
-91.772	800.000	-0.113	0.419
-90.757	800.000	-0.094	0.261
-89.743	-200.000	-0.034	0.327
-88.728	800.000	-0.146	0.433
-87.713	-161.270	-0.287	0.015
-86.699	448.690	0.116	0.250
-85.684	-148.766	0.167	0.013
-84.670	800.000	-0.041	0.136
-83.655	-116.349	-0.192	0.035
-82.640	-33.259	0.226	0.123
-81.626	-53.802	-0.322	0.144
-80.611	-1.573	-0.328	-0.227
-79.597	-44.681	0.231	0.113
-78.582	-200.000	-0.062	0.287
-77.567	5.335	-0.070	0.050
-76.553	85.220	0.237	0.254
-75.538	-88.308	-0.278	-0.082
-74.524	-200.000	0.054	-0.446
-73.509	229.465	0.121	-0.194
-72.494	211.423	0.038	-0.058
-71.480	136.820	-0.078	0.100
-70.465	-158.193	0.128	-0.007
-69.451	65.028	0.225	-0.222
-68.436	-200.000	0.026	0.157
-67.422	96.957	0.065	0.073
-66.407	107.728	-0.074	-0.086
-65.392	-118.789	0.334	0.058
-64.378	41.200	-0.371	0.328
-63.363	-200.000	-0.021	-0.114
-62.349	5.062	0.207	-0.149
-61.334	36.543	-1.126	-0.972
-60.319	84.197	0.463	0.495
-59.305	-200.000	-0.205	-0.998
-58.290	632.470	0.353	0.875
-57.276	258.589	0.798	1.346
-56.261	-200.000	116.544	660.430
-55.246	526.506	1535.753	3539.595
-54.232	175.757	2707.295	3842.207
-53.217	108.509	2160.190	2523.092
-52.203	38.960	1596.448	1395.575
-51.188	30.123	1340.725	1118.925
-50.173	27.361	1302.115	1070.444
-49.159	55.363	1360.430	1287.362
-48.144	53.102	1374.129	1286.732
-47.130	30.420	1328.558	1110.376
-46.115	26.987	1310.598	1075.033
-45.100	26.765	1305.526	1069.516
-44.086	26.712	1302.891	1067.007
-43.071	26.602	1300.747	1064.560
-42.057	26.765	1298.346	1063.506
-41.042	26.779	1296.836	1062.312
-40.027	26.767	1295.424	1061.045
-39.013	26.760	1293.432	1059.331
-37.998	26.791	1291.496	1057.884
-36.984	26.793	1289.990	1056.618
-35.969	26.832	1287.894	1055.088
-34.954	26.939	1286.374	1054.421
-33.940	26.740	1285.212	1052.273
-32.925	26.912	1283.504	1051.827
-31.911	26.858	1282.518	1050.667
-30.896	26.904	1280.648	1049.356
-29.881	26.925	1279.688	1048.652
-28.867	26.932	1278.302	1047.514
-27.852	26.907	1277.081	1046.326
-26.838	26.921	1275.389	1044.979
-25.823	26.866	1274.098	1043.563
-24.809	26.873	1273.018	1042.680
-23.794	26.812	1271.428	1040.984
-22.779	26.921	1269.796	1040.232
-21.765	26.914	1268.866	1039.388
-20.750	26.957	1267.461	1038.442
-19.736	26.871	1266.262	1036.927
-18.721	26.812	1265.372	1035.819
-17.706	26.873	1263.932	1034.952
-16.692	26.820	1262.702	1033.598
-15.677	26.811	1262.031	1032.957
-14.663	26.785	1260.764	1031.731
-13.648	26.738	1259.183	1030.127
-12.633	26.717	1258.863	1029.705
-11.619	26.825	1257.767	1029.381
-10.604	26.847	1257.005	1028.843
-9.590	26.787	1255.852	1027.521
-8.575	26.723	1255.345	1026.703
-7.560	26.687	1254.584	1025.836
-6.546	26.776	1253.060	1025.050
-5.531	26.749	1252.300	1024.234
-4.517	26.793	1251.349	1023.664
-3.502	26.964	1250.245	1023.686
-2.487	26.842	1249.436	1022.296
-1.473	26.860	1244.945	1018.685
-0.458	25.409	1230.615	998.855
0.556	22.341	1213.929	962.253
1.571	18.789	1220.087	947.490
2.586	18.125	1234.922	955.212
3.600	17.554	1223.174	942.885
4.615	13.176	1151.264	864.514
5.629	6.269	1080.107	776.999
6.644	3.510	1062.665	750.966
7.659	3.247	1060.173	747.858
8.673	3.324	1059.413	747.633
9.688	3.319	1058.024	746.560
10.702	3.541	1055.456	745.756
11.717	7.308	1060.943	767.840
12.731	14.534	1071.410	810.584
13.746	19.017	1076.011	835.822
14.761	19.454	1076.670	838.383
15.775	18.709	1074.807	833.246
16.790	17.711	1073.114	827.018
17.804	17.072	1071.350	822.493
18.819	16.747	1070.339	820.069
19.834	16.539	1069.776	818.557
20.848	16.462	1068.562	817.186
21.863	16.295	1067.753	815.686
22.877	16.153	1066.926	814.298
23.892	16.193	1066.178	813.851
24.907	16.010	1065.800	812.602
25.921	16.199	1064.650	812.564
26.936	16.057	1063.674	811.065
27.950	16.142	1062.080	810.187
28.965	16.086	1060.835	808.896
29.980	16.310	1059.013	808.508
30.994	16.366	1057.854	807.822
32.009	16.392	1056.921	807.163
33.023	16.380	1055.551	805.989
34.038	16.312	1054.821	805.032
35.053	16.181	1054.011	803.720
36.067	16.188	1052.704	802.688
37.082	16.287	1052.033	802.573
38.096	16.407	1051.741	802.852
39.111	16.241	1051.116	801.516
40.126	16.175	1049.379	799.806
41.140	15.929	1047.981	797.506
42.155	15.887	1046.789	796.327
43.169	15.862	1045.627	795.257
44.184	15.905	1044.680	794.667
45.199	15.912	1043.403	793.661
46.213	16.003	1042.945	793.667
47.228	16.149	1042.012	793.577
48.242	16.126	1041.195	792.776
49.257	16.212	1039.869	792.100
50.271	16.193	1039.194	791.428
51.286	16.220	1038.189	790.720
52.301	16.241	1037.380	790.130
53.315	16.098	1036.144	788.451
54.330	16.030	1034.985	787.182
55.344	15.991	1034.623	786.653
56.359	16.047	1033.454	785.957
57.374	16.048	1032.509	785.172
58.388	15.985	1031.582	784.105
59.403	15.870	1030.668	782.804
60.417	15.887	1029.846	782.189
61.432	15.837	1029.103	781.329
62.447	15.803	1028.290	780.480
63.461	15.829	1027.158	779.672
64.476	15.687	1026.281	778.282
65.490	15.719	1025.589	777.837
66.505	15.797	1024.979	777.666
67.520	15.788	1024.319	777.055
68.534	15.894	1023.120	776.563
69.549	15.809	1022.262	775.453
70.563	15.796	1021.810	774.982
71.578	15.731	1020.737	773.800
72.593	15.574	1020.142	772.562
73.607	15.636	1019.578	772.349
74.622	15.714	1018.386	771.734
75.636	15.612	1018.226	771.080
76.651	15.667	1017.903	771.015
77.666	15.656	1017.115	770.304
78.680	15.788	1016.357	770.262
79.695	15.734	1015.641	769.404
80.709	15.880	1014.826	769.390
81.724	15.790	1014.792	768.881
82.739	15.950	1013.775	768.774
83.753	16.067	1012.715	768.436
84.768	16.211	1012.289	768.702
85.782	16.421	1011.142	768.715
86.797	16.409	1010.015	767.737
87.812	16.128	1009.332	765.873
88.826	16.219	1008.394	765.509
89.841	16.251	1007.328	764.774
90.855	16.399	1006.477	764.732
91.870	16.348	1006.042	764.105
92.884	16.234	1005.004	762.735
93.899	16.348	1004.229	762.590
94.914	16.392	1003.031	761.814
95.928	16.425	1002.480	761.477
96.943	16.245	1001.664	759.977
97.957	16.274	1000.490	759.151
98.972	16.414	999.766	759.165
99.987	16.264	999.109	757.921
101.001	16.323	997.985	757.270
102.016	16.258	997.080	756.225
103.030	16.412	996.077	756.086
104.045	16.316	995.957	755.497
105.060	16.166	994.476	753.639
106.074	16.071	993.723	752.577
107.089	15.766	992.747	750.408
108.103	15.801	991.886	749.846
109.118	15.819	990.888	749.107
110.133	15.802	990.044	748.330
111.147	15.937	988.933	748.022
112.162	16.003	988.059	747.589
113.176	15.993	987.213	746.836
114.191	16.172	986.910	747.335
115.206	15.997	986.482	746.169
116.220	15.890	985.391	744.804
117.235	15.993	984.252	744.334
118.249	15.976	983.401	743.550
119.264	15.951	982.621	742.785
120.279	15.671	982.349	741.277
121.293	15.850	981.038	741.010
122.308	15.816	980.020	740.027
123.322	15.764	979.054	739.004
124.337	15.671	977.852	737.621
125.352	15.792	976.819	737.308
126.366	15.716	975.960	736.263
127.381	15.802	974.883	735.761
128.395	15.814	974.234	735.256
129.410	15.861	973.300	734.693
130.424	16.012	972.538	734.713
131.439	15.940	971.938	733.881
132.454	16.102	970.886	733.726
133.468	16.001	970.092	732.620
134.483	16.075	969.149	732.164
135.497	15.933	968.553	731.033
136.512	16.023	967.250	730.374
137.527	16.020	966.740	729.915
138.541	16.043	965.989	729.382
139.556	16.222	965.107	729.426
140.570	16.181	964.655	728.840
141.585	16.278	964.094	728.773
142.600	16.293	962.820	727.808
143.614	16.447	962.393	728.083
144.629	16.427	961.761	727.455
145.643	16.425	960.553	726.471
146.658	16.212	959.592	724.764
147.673	16.180	958.833	723.990
148.687	16.179	957.569	722.966
149.702	15.975	956.819	721.463
150.716	16.153	955.771	721.368
151.731	16.073	955.110	720.466
152.746	16.113	954.427	720.058
153.760	16.188	953.711	719.775
154.775	16.261	953.202	719.636
155.789	16.258	952.976	719.388
156.804	16.283	952.119	718.783
157.819	16.442	951.004	718.557
158.833	16.586	950.519	718.736
159.848	16.570	950.101	718.288
160.862	16.428	948.877	716.700
161.877	16.130	947.998	714.711
162.892	16.180	946.875	714.011
163.906	16.132	945.548	712.745
164.921	16.179	945.140	712.571
165.935	16.332	943.748	712.106
166.950	16.215	943.290	711.204
167.964	16.217	942.542	710.586
168.979	16.271	941.504	709.967
169.994	16.328	940.295	709.233
171.008	16.282	939.687	708.518
172.023	16.486	939.100	708.869
173.037	16.472	938.465	708.267
174.052	16.448	937.974	707.734
175.067	16.381	936.833	706.527
176.081	16.212	936.314	705.369
177.096	16.133	936.099	704.813
178.110	16.329	935.481	705.103
179.125	16.389	934.426	704.495
180.140	16.390	934.367	704.393
181.154	16.359	933.885	703.839
182.169	16.623	933.359	704.480
183.183	16.583	932.342	703.482
184.198	16.512	931.436	702.444
185.213	16.496	931.601	702.438
186.227	16.540	930.802	701.957
187.242	16.760	929.794	702.047
188.256	16.784	929.120	701.576
189.271	16.650	928.757	700.687
190.286	16.443	927.649	698.933
191.300	16.291	926.548	697.411
192.315	16.121	926.006	696.238
193.329	16.150	925.884	696.205
194.344	16.284	925.150	696.146
195.359	16.392	924.453	696.005
196.373	16.579	923.848	696.257
197.388	16.658	923.883	696.547
198.402	16.813	923.045	696.491
199.417	16.911	922.365	696.320
200.432	17.009	922.025	696.402
201.446	16.980	921.840	696.081
202.461	17.073	921.269	695.970
203.475	17.011	920.118	694.784
204.490	16.842	919.419	693.504
205.504	16.751	918.206	692.156
206.519	16.695	917.914	691.645
207.534	16.835	916.944	691.425
208.548	16.738	916.739	690.814
209.563	16.775	915.579	690.028
210.577	16.760	915.458	689.818
211.592	17.078	914.636	690.431
212.607	17.030	913.984	689.681
213.621	16.969	912.926	688.576
214.636	16.924	912.767	688.211
215.650	16.929	911.987	687.583
216.665	17.019	911.353	687.409
217.680	17.091	910.513	687.005
218.694	17.204	910.057	687.056
219.709	17.036	909.303	685.748
220.723	17.099	908.846	685.595
221.738	17.030	907.816	684.480
222.753	17.005	907.462	684.055
223.767	17.133	906.580	683.844
224.782	17.157	906.762	684.017
225.796	17.294	905.819	683.796
226.811	17.206	904.902	682.688
227.826	17.135	904.255	681.855
228.840	17.142	903.376	681.161
229.855	17.078	902.698	680.335
230.869	16.939	902.461	679.536
231.884	16.872	901.486	678.474
232.899	16.864	900.545	677.675
233.913	16.957	899.770	677.403
234.928	16.992	898.897	676.826
235.942	16.931	898.147	675.956
236.957	16.841	898.079	675.488
237.972	16.946	897.760	675.606
238.986	16.954	896.756	674.823
240.001	16.985	896.189	674.460
241.015	17.103	895.474	674.330
242.030	17.086	895.085	673.909
243.045	17.082	894.864	673.668
244.059	17.037	894.030	672.803
245.074	17.216	893.119	672.765
246.088	17.220	892.813	672.491
247.103	17.326	892.325	672.486
248.117	17.515	891.619	672.637
249.132	17.590	891.106	672.487
250.147	17.806	890.633	672.925
251.161	17.692	890.182	672.077
252.176	17.746	889.533	671.736
253.190	17.796	889.222	671.639
254.205	17.761	888.481	670.883
255.220	17.914	887.408	670.616
256.234	17.863	887.194	670.192
257.249	17.807	886.307	669.244
258.263	17.927	885.307	668.899
259.278	17.822	884.796	668.043
260.293	17.910	884.353	667.997
261.307	17.892	884.085	667.663
262.322	17.970	883.222	667.259
263.336	17.941	882.430	666.485
264.351	18.182	881.394	666.585
265.366	17.975	881.094	665.494
266.380	17.864	880.785	664.767
267.395	17.938	879.570	664.080
268.409	17.923	878.723	663.324
269.424	17.991	877.955	662.948
270.439	17.933	877.420	662.261
271.453	17.836	876.819	661.374
272.468	17.845	876.432	661.060
273.482	17.790	876.064	660.508
274.497	17.809	875.662	660.222
275.512	17.931	874.631	659.857
276.526	17.885	874.462	659.493
277.541	17.896	874.039	659.159
278.555	17.997	873.204	658.858
279.570	18.095	872.607	658.726
280.585	18.023	872.086	658.000
281.599	17.971	870.880	656.832
282.614	17.965	870.630	656.560
283.628	17.978	869.913	656.013
284.643	17.911	869.277	655.218
285.657	17.902	868.831	654.788
286.672	18.087	867.489	654.427
287.687	18.202	867.144	654.552
288.701	18.052	866.617	653.522
289.716	18.082	866.061	653.159
290.730	17.959	865.617	652.295
291.745	18.097	865.121	652.391
292.760	18.165	864.497	652.121
293.774	18.393	863.733	652.357
294.789	18.310	862.998	651.430
295.803	17.937	862.627	649.669
296.818	18.085	862.090	649.772
297.833	18.132	861.312	649.306
298.847	18.240	860.259	648.863
299.862	18.141	860.326	648.481
300.876	18.280	859.753	648.520
301.891	18.375	859.158	648.373
302.906	18.420	858.404	647.917
303.920	18.422	858.290	647.781
304.935	18.692	857.362	648.044
305.949	18.656	856.577	647.258
306.964	18.671	855.649	646.556
307.979	18.510	855.513	645.789
308.993	18.526	854.929	645.349
310.008	18.550	854.485	645.049
311.022	18.591	853.522	644.419
312.037	18.421	853.125	643.424
313.052	18.202	852.468	642.051
314.066	18.287	851.817	641.821
315.081	18.287	851.364	641.423
316.095	18.243	850.950	640.889
317.110	18.296	850.343	640.573
318.125	18.334	849.667	640.149
319.139	18.361	848.872	639.597
320.154	18.364	848.944	639.606
321.168	18.424	848.523	639.453
322.183	18.328	847.963	638.617
323.197	18.372	847.848	638.637
324.212	18.439	846.772	638.020
325.227	18.408	846.102	637.343
326.241	18.411	845.623	636.938
327.256	18.281	844.920	635.869
328.270	18.420	844.295	635.858
329.285	18.354	844.063	635.382
330.300	18.373	843.163	634.720
331.314	18.486	842.547	634.619
332.329	18.733	842.442	635.397
333.343	18.655	841.881	634.628
334.358	18.604	841.600	634.173
335.373	18.563	841.028	633.533
336.387	18.679	840.914	633.822
337.402	18.855	840.730	634.276
338.416	18.974	840.072	634.163
339.431	18.984	839.748	633.898
340.446	18.934	839.659	633.590
341.460	18.997	839.080	633.330
342.475	19.092	838.766	633.387
343.489	19.083	837.887	632.632
344.504	19.210	837.586	632.816
345.519	19.020	837.265	631.820
346.533	19.210	836.291	631.727
347.548	18.881	836.167	630.369
348.562	18.881	835.281	629.645
349.577	18.822	835.160	629.284
350.592	18.815	834.126	628.424
351.606	18.733	833.258	627.413
352.621	18.931	832.568	627.561
353.635	18.809	832.145	626.742
354.650	18.846	831.731	626.510
355.665	18.975	831.331	626.623
356.679	19.076	830.504	626.311
357.694	19.006	829.820	625.485
358.708	18.956	828.852	624.520
359.723	19.066	828.563	624.646
360.738	18.973	828.328	624.075
361.752	19.048	827.703	623.821
362.767	19.230	827.140	624.001
363.781	19.303	826.501	623.728
364.796	19.264	826.378	623.439
365.810	19.430	825.707	623.478
366.825	19.503	825.433	623.481
367.840	19.433	824.734	622.646
368.854	19.371	824.483	622.178
369.869	19.384	824.077	621.862
370.883	19.459	823.338	621.518
371.898	19.545	823.064	621.567
372.913	19.309	823.131	620.713
373.927	19.377	822.407	620.354
374.942	19.470	821.421	619.892
375.956	19.492	821.342	619.854
376.971	19.735	820.884	620.327
377.986	19.739	820.542	620.029
379.000	19.668	820.312	619.544
380.015	19.674	819.552	618.937
381.029	19.614	818.525	617.893
382.044	19.846	818.092	618.343
383.059	19.763	817.876	617.828
384.073	19.562	816.994	616.387
385.088	19.462	816.349	615.489
386.102	19.619	815.521	615.372
387.117	19.507	815.501	614.902
388.132	19.375	814.492	613.616
389.146	19.603	814.063	614.051
390.161	19.546	814.017	613.758
391.175	19.582	813.401	613.367
392.190	19.458	813.009	612.580
393.205	19.600	812.272	612.473
394.219	19.517	812.251	612.108
395.234	19.554	811.847	611.881
396.248	19.448	811.431	611.137
397.263	19.258	810.821	609.949
398.278	19.361	810.272	609.848
399.292	19.388	809.421	609.249
400.307	19.421	809.197	609.145
401.321	19.468	808.936	609.061
402.336	19.619	808.415	609.143
403.350	19.698	807.521	608.696
404.365	19.596	807.594	608.337
405.380	19.947	806.982	609.057
406.394	19.847	806.549	608.324
407.409	19.960	806.038	608.285
408.423	20.071	806.116	608.680
409.438	20.020	805.667	608.106
410.453	20.071	804.913	607.661
411.467	20.120	804.581	607.530
412.482	20.146	804.385	607.419
413.496	20.135	804.161	607.156
414.511	20.227	803.301	606.775
415.526	20.165	802.953	606.242
416.540	20.184	802.273	605.743
417.555	20.328	801.870	605.886
418.569	20.222	801.768	605.387
419.584	20.164	801.368	604.829
420.599	20.237	800.835	604.627
421.613	161.858	1371.896	1796.242
422.628	140.554	1455.091	1796.325
