DTS Sentinel unit serial number:	SN413079Multiplexer serial number:	ORYXHardware model number:	OX4-SRSoftware version number:	ORYX F/W v4.00 Oryx Data Collector v3.7.2.0data status	okinstallation	princeton_trtdifferential loss correction	single-endedforward channel	channel 1reverse channel	N/Adate	2019/09/12time	05:56:11forward acquisition time	60.00reverse acquisition time	0.00gamma	496.2192k internal	0.2320k external	0.2320temperature offset calibration	1.0044default loss term (dB/km)	0.3790temperature slope calibration	1.0000multiplexer offset coefficient	1.0000multiplexer slope coefficient	1.0000fibre end	0.00T internal ref (°C)	32.06T ext. ref 1 (°C)	1.55T ext. ref 2 (°C)	27.43length (m)	temperature (°C)	Stokes	anti-Stokes-747.200	-98.736	0.161	0.042
-746.185	-10.890	-0.165	0.110
-745.171	-30.636	0.125	-0.072
-744.156	-200.000	-0.004	0.290
-743.142	202.495	-0.223	0.349
-742.127	130.477	-0.152	0.197
-741.112	800.000	-0.068	-0.263
-740.098	133.482	-0.421	0.550
-739.083	73.401	0.137	-0.145
-738.069	-200.000	0.048	0.649
-737.054	-200.000	0.057	0.286
-736.039	-11.208	-0.165	0.110
-735.025	22.597	-0.070	0.058
-734.010	208.521	-0.073	-0.115
-732.996	109.214	0.152	0.183
-731.981	-44.240	0.270	-0.137
-730.966	-97.473	-0.018	-0.005
-729.952	207.214	0.179	0.282
-728.937	-144.443	-0.160	0.015
-727.923	800.000	0.050	-0.206
-726.908	193.276	-0.107	-0.164
-725.894	72.676	-0.182	0.192
-724.879	-200.000	0.021	0.181
-723.864	-177.669	0.334	0.008
-722.850	23.560	0.203	-0.169
-721.835	420.372	-0.200	-0.434
-720.821	800.000	0.100	0.281
-719.806	-96.116	-0.244	0.066
-718.791	681.320	0.092	-0.242
-717.777	-200.000	0.001	0.123
-716.762	-200.000	-0.001	-0.069
-715.748	603.010	0.102	-0.256
-714.733	-200.000	-0.069	-0.352
-713.718	800.000	0.078	-0.262
-712.704	-200.000	-0.012	-0.090
-711.689	365.232	-0.061	0.124
-710.675	-31.426	-0.093	0.053
-709.660	-200.000	0.003	0.099
-708.645	75.662	-0.289	-0.309
-707.631	-169.719	-0.167	0.006
-706.616	-183.725	0.311	-0.005
-705.602	-50.901	-0.296	0.140
-704.587	-98.241	-0.219	-0.057
-703.572	-200.000	0.055	0.380
-702.558	73.605	0.327	0.345
-701.543	76.746	-0.337	-0.361
-700.529	800.000	0.046	0.194
-699.514	-200.000	0.026	0.135
-698.499	-92.276	0.386	0.110
-697.485	114.756	0.315	0.387
-696.470	364.462	0.063	-0.127
-695.456	8.965	0.330	-0.251
-694.441	191.973	0.099	-0.150
-693.426	-155.627	-0.229	-0.015
-692.412	-122.058	0.037	0.006
-691.397	74.154	-0.231	-0.245
-690.383	800.000	0.084	0.314
-689.368	218.263	0.076	-0.122
-688.354	362.087	0.030	-0.061
-687.339	800.000	-0.015	-0.044
-686.324	258.231	0.273	-0.474
-685.310	-13.585	0.220	0.144
-684.295	-76.357	-0.572	-0.203
-683.281	-156.080	-0.100	-0.006
-682.266	-4.412	-0.171	0.119
-681.251	56.246	-0.267	0.261
-680.237	612.513	-0.095	0.240
-679.222	800.000	-0.056	0.238
-678.208	-103.133	-0.254	-0.061
-677.193	275.215	0.098	-0.175
-676.178	-87.368	0.064	0.020
-675.164	-200.000	0.040	-0.205
-674.149	800.000	0.090	-0.301
-673.135	183.026	-0.147	0.219
-672.120	-98.035	-0.226	-0.059
-671.105	-200.000	-0.027	0.122
-670.091	-170.064	-0.133	-0.005
-669.076	-200.000	0.013	-0.111
-668.062	-200.000	-0.047	-0.268
-667.047	800.000	0.066	-0.226
-666.032	-31.399	0.115	-0.065
-665.018	-90.741	0.147	-0.043
-664.003	-200.000	-0.014	-0.132
-662.989	-10.331	-0.068	-0.046
-661.974	418.481	0.178	0.383
-660.959	154.059	0.055	-0.076
-659.945	144.998	-0.176	0.238
-658.930	-49.624	0.057	-0.027
-657.916	205.663	0.118	-0.185
-656.901	-118.467	0.250	-0.045
-655.886	-200.000	0.015	0.284
-654.872	-200.000	0.034	-0.176
-653.857	-102.458	0.236	0.057
-652.843	-105.366	-0.120	-0.028
-651.828	-147.412	-0.141	-0.012
-650.814	-200.000	0.029	-0.147
-649.799	-100.112	-0.183	0.046
-648.784	-54.409	-0.275	-0.126
-647.770	-53.557	-0.090	0.041
-646.755	12.314	0.191	-0.148
-645.741	-52.571	0.214	0.099
-644.726	-65.675	0.186	0.075
-643.711	-113.895	0.334	-0.065
-642.697	-200.000	-0.022	-0.162
-641.682	800.000	0.065	0.256
-640.668	-99.901	-0.479	0.121
-639.653	157.312	-0.223	-0.310
-638.638	-189.019	0.063	0.001
-637.624	-51.134	-0.352	-0.166
-636.609	-104.305	-0.308	0.072
-635.595	-21.410	0.053	-0.033
-634.580	48.517	-0.116	0.109
-633.565	-117.539	-0.251	-0.046
-632.551	259.547	0.164	-0.286
-631.536	-13.248	0.272	-0.178
-630.522	71.269	0.072	-0.075
-629.507	116.541	0.009	0.011
-628.492	175.993	0.290	0.424
-627.478	53.964	0.125	-0.121
-626.463	3.644	0.149	-0.110
-625.449	-11.928	-0.375	-0.247
-624.434	800.000	-0.057	-0.241
-623.419	-18.716	-0.203	0.127
-622.405	-140.894	0.327	0.034
-621.390	143.203	0.136	0.182
-620.376	17.452	-0.215	-0.172
-619.361	-26.181	-0.106	0.063
-618.346	77.569	0.150	0.161
-617.332	431.857	-0.063	0.138
-616.317	-200.000	-0.021	0.138
-615.303	-116.889	0.367	0.067
-614.288	-200.000	-0.006	-0.039
-613.273	-13.349	0.204	-0.133
-612.259	130.853	-0.132	0.170
-611.244	65.807	-0.205	-0.209
-610.230	-200.000	-0.042	-0.319
-609.215	-48.891	0.319	0.154
-608.201	-175.935	-0.343	-0.009
-607.186	657.180	0.091	-0.235
-606.171	410.710	0.062	0.132
-605.157	-200.000	0.030	-0.168
-604.142	-77.740	-0.028	-0.010
-603.128	-76.957	0.174	-0.061
-602.113	40.129	-0.226	-0.205
-601.098	122.092	0.051	0.064
-600.084	-98.814	-0.419	-0.107
-599.069	-91.114	-0.444	-0.128
-598.055	632.228	0.073	0.186
-597.040	61.250	-0.140	-0.140
-596.025	-158.114	0.373	0.022
-595.011	-200.000	0.026	-0.162
-593.996	722.410	-0.106	-0.285
-592.982	13.463	-0.114	0.089
-591.967	-27.009	0.175	-0.103
-590.952	276.357	0.093	-0.165
-589.938	16.009	0.057	-0.045
-588.923	-40.712	0.222	0.116
-587.909	-132.461	0.179	0.023
-586.894	-200.000	0.004	0.284
-585.879	-10.682	0.179	-0.119
-584.865	342.204	-0.158	0.311
-583.850	-200.000	0.086	0.472
-582.836	12.482	0.160	-0.124
-581.821	83.184	-0.120	0.131
-580.806	800.000	-0.034	-0.119
-579.792	-143.458	-0.053	0.005
-578.777	-200.000	0.062	-0.306
-577.763	28.659	-0.112	-0.095
-576.748	446.902	0.077	0.170
-575.733	204.282	-0.109	0.170
-574.719	-143.875	-0.315	0.030
-573.704	-79.092	-0.534	0.182
-572.690	9.557	-0.241	0.184
-571.675	191.240	-0.038	-0.058
-570.661	-91.610	0.284	-0.081
-569.646	-200.000	0.052	-0.418
-568.631	-200.000	-0.012	-0.202
-567.617	-123.112	-0.342	-0.055
-566.602	-200.000	-0.010	-0.053
-565.588	661.274	0.116	0.300
-564.573	-161.681	0.139	-0.007
-563.558	800.000	-0.073	-0.251
-562.544	-200.000	-0.040	-0.209
-561.529	-71.898	0.361	0.135
-560.515	-78.153	-0.046	-0.016
-559.500	-142.120	0.055	0.006
-558.485	-173.552	0.044	0.001
-557.471	-162.843	0.097	0.005
-556.456	368.081	0.040	0.081
-555.442	-104.976	0.386	-0.089
-554.427	-62.522	-0.087	0.036
-553.412	124.417	-0.102	0.129
-552.398	-34.603	0.417	-0.229
-551.383	181.458	-0.084	-0.123
-550.369	-122.270	0.225	0.037
-549.354	39.752	0.049	0.045
-548.339	686.359	-0.117	-0.308
-547.325	26.669	-0.073	0.061
-546.310	18.368	0.096	-0.077
-545.296	374.500	-0.040	-0.082
-544.281	-162.424	0.308	-0.015
-543.266	17.502	-0.156	-0.124
-542.252	-124.014	-0.320	-0.050
-541.237	163.480	0.098	-0.138
-540.223	-69.585	0.127	-0.049
-539.208	-30.464	0.155	0.088
-538.193	-130.177	-0.288	0.039
-537.179	-112.879	0.440	-0.088
-536.164	-77.908	-0.129	-0.045
-535.150	81.275	0.227	-0.246
-534.135	-200.000	-0.013	0.112
-533.121	88.519	0.212	-0.237
-532.106	117.018	0.231	0.284
-531.091	800.000	-0.091	-0.303
-530.077	-27.380	0.133	0.077
-529.062	-200.000	0.002	-0.092
-528.048	800.000	0.013	0.040
-527.033	19.762	-0.169	-0.136
-526.018	18.790	-0.242	-0.194
-525.004	-114.221	0.077	-0.015
-523.989	-96.650	-0.280	0.074
-522.975	-128.826	-0.100	-0.014
-521.960	-200.000	0.018	-0.178
-520.945	75.542	0.379	-0.401
-519.931	-30.938	-0.186	-0.105
-518.916	22.551	0.139	0.114
-517.902	-128.564	-0.121	0.017
-516.887	745.007	-0.063	-0.170
-515.872	-88.124	0.241	-0.072
-514.858	-200.000	0.003	-0.013
-513.843	158.169	-0.207	-0.288
-512.829	316.201	0.094	0.177
-511.814	-174.617	-0.141	-0.004
-510.799	-200.000	-0.024	-0.184
-509.785	-56.502	-0.140	-0.062
-508.770	-117.899	0.179	0.032
-507.756	-129.046	0.257	0.036
-506.741	-128.405	-0.203	-0.029
-505.726	398.282	0.176	-0.369
-504.712	-200.000	0.021	0.199
-503.697	-137.269	0.112	-0.013
-502.683	-109.882	-0.262	-0.055
-501.668	-26.725	0.136	-0.080
-500.653	-44.448	-0.334	-0.167
-499.639	-93.086	-0.328	-0.091
-498.624	-104.200	0.401	0.093
-497.610	800.000	-0.022	0.080
-496.595	-80.750	0.142	-0.047
-495.581	-177.261	0.240	-0.006
-494.566	29.045	-0.379	-0.321
-493.551	-88.750	-0.291	0.086
-492.537	44.317	0.144	-0.132
-491.522	459.967	-0.115	0.257
-490.508	-200.000	-0.014	0.088
-489.493	145.886	-0.107	-0.144
-488.478	-132.340	0.201	0.026
-487.464	800.000	0.058	0.230
-486.449	111.483	-0.142	0.172
-485.435	800.000	0.021	0.062
-484.420	-29.025	0.212	-0.122
-483.405	59.986	-0.072	0.071
-482.391	70.113	-0.324	-0.335
-481.376	-116.380	0.197	0.036
-480.362	-200.000	-0.071	-0.413
-479.347	182.713	0.194	0.287
-478.332	62.156	-0.040	0.039
-477.318	800.000	-0.114	0.428
-476.303	39.851	0.161	-0.144
-475.289	124.084	0.168	-0.211
-474.274	-200.000	0.021	0.130
-473.259	-200.000	-0.043	-0.193
-472.245	-200.000	-0.005	-0.245
-471.230	-200.000	-0.014	-0.224
-470.216	-66.643	0.235	-0.093
-469.201	-200.000	-0.055	0.248
-468.186	800.000	-0.079	0.259
-467.172	-4.236	-0.083	0.057
-466.157	-102.285	0.209	-0.050
-465.143	0.106	-0.217	0.155
-464.128	153.878	0.040	-0.055
-463.113	-200.000	0.012	-0.091
-462.099	-39.788	0.176	-0.092
-461.084	800.000	0.128	-0.477
-460.070	535.780	-0.047	0.111
-459.055	-4.625	-0.226	0.156
-458.040	-149.212	-0.182	-0.015
-457.026	34.075	0.178	0.155
-456.011	72.937	0.136	-0.142
-454.997	198.729	0.122	0.186
-453.982	209.017	0.145	-0.226
-452.968	472.048	0.061	0.138
-451.953	-112.239	-0.335	-0.067
-450.938	-97.353	-0.452	0.118
-449.924	800.000	0.021	-0.085
-448.909	97.613	0.270	0.310
-447.895	-54.964	0.155	-0.070
-446.880	3.774	-0.329	-0.240
-445.865	800.000	-0.091	-0.259
-444.851	2.594	-0.090	0.065
-443.836	-123.168	0.257	-0.041
-442.822	-107.955	-0.286	-0.062
-441.807	-123.794	-0.083	-0.013
-440.792	-200.000	-0.033	-0.266
-439.778	-34.637	-0.006	0.003
-438.763	-107.150	-0.055	-0.012
-437.749	128.251	0.096	0.122
-436.734	-80.246	-0.118	-0.039
-435.719	136.320	-0.211	-0.275
-434.705	-31.812	0.251	0.141
-433.690	145.446	0.145	-0.194
-432.676	-150.513	0.190	0.015
-431.661	-82.932	-0.102	-0.033
-430.646	-127.889	-0.339	-0.049
-429.632	121.915	-0.206	-0.256
-428.617	-39.347	0.141	-0.074
-427.603	89.271	-0.202	0.225
-426.588	-200.000	-0.158	0.000
-425.573	306.036	-0.063	0.116
-424.559	-33.040	0.095	0.053
-423.544	279.063	0.114	0.204
-422.530	-52.248	-0.103	0.048
-421.515	-16.960	-0.116	0.073
-420.500	-82.046	0.182	0.059
-419.486	166.058	0.193	-0.272
-418.471	-151.345	-0.191	0.014
-417.457	160.495	0.086	0.120
-416.442	11.665	0.342	-0.262
-415.428	-119.122	-0.289	0.050
-414.413	-200.000	0.003	-0.335
-413.398	-15.829	0.180	0.114
-412.384	687.163	0.083	0.215
-411.369	662.413	0.100	0.258
-410.355	-200.000	0.016	-0.399
-409.340	-158.206	0.303	0.018
-408.325	6.305	0.470	0.348
-407.311	-135.346	-0.219	0.026
-406.296	225.097	-0.114	-0.184
-405.282	-62.231	-0.269	0.112
-404.267	161.656	0.147	0.205
-403.252	-44.261	-0.092	-0.046
-402.238	-200.000	0.037	-0.258
-401.223	11.982	-0.227	-0.174
-400.209	800.000	0.018	-0.061
-399.194	-143.404	0.243	0.023
-398.179	-119.029	-0.104	0.018
-397.165	-90.048	-0.218	-0.063
-396.150	-161.739	0.058	0.003
-395.136	113.612	-0.204	0.247
-394.121	34.590	-0.102	-0.089
-393.106	202.468	-0.109	-0.168
-392.092	138.794	0.094	-0.123
-391.077	-130.652	0.360	0.048
-390.063	17.392	0.114	0.090
-389.048	-200.000	0.019	0.261
-388.033	-73.187	0.074	-0.027
-387.019	-20.587	0.106	-0.065
-386.004	800.000	0.067	0.279
-384.990	800.000	-0.062	0.192
-383.975	-40.489	0.264	-0.136
-382.960	-3.935	0.157	-0.109
-381.946	126.206	-0.158	0.200
-380.931	-200.000	-0.006	-0.139
-379.917	296.982	-0.164	0.300
-378.902	-84.976	0.136	0.042
-377.888	286.255	-0.102	0.184
-376.873	-10.782	-0.340	0.224
-375.858	800.000	-0.094	0.275
-374.844	800.000	0.045	0.136
-373.829	800.000	-0.014	-0.051
-372.815	-200.000	0.009	-0.093
-371.800	-24.548	-0.211	-0.125
-370.785	0.768	-0.188	0.134
-369.771	189.192	0.006	-0.010
-368.756	36.491	0.234	-0.205
-367.742	-127.710	-0.204	0.029
-366.727	-200.000	-0.003	0.013
-365.712	-166.520	0.090	-0.004
-364.698	512.006	-0.076	-0.177
-363.683	107.653	-0.329	0.391
-362.669	13.657	-0.061	0.047
-361.654	-200.000	-0.050	-0.293
-360.639	-200.000	-0.036	-0.305
-359.625	-142.002	-0.133	-0.013
-358.610	800.000	0.074	0.275
-357.596	-92.458	0.335	0.094
-356.581	-115.870	-0.070	0.013
-355.566	800.000	-0.112	0.431
-354.552	-65.809	-0.191	-0.076
-353.537	-16.929	0.413	0.260
-352.523	-134.209	0.105	-0.013
-351.508	-200.000	0.007	-0.136
-350.493	112.944	-0.017	-0.020
-349.479	136.665	-0.086	0.112
-348.464	82.324	-0.103	0.111
-347.450	-200.000	0.018	-0.121
-346.435	-64.520	-0.230	-0.093
-345.420	-65.776	0.089	-0.036
-344.406	128.039	0.154	0.195
-343.391	-5.813	-0.073	0.050
-342.377	-116.212	-0.254	-0.047
-341.362	30.405	-0.076	-0.064
-340.348	-87.313	0.101	0.030
-339.333	530.278	-0.136	-0.319
-338.318	-35.712	0.320	0.173
-337.304	350.048	-0.108	-0.213
-336.289	43.261	0.095	0.086
-335.275	26.627	0.054	0.045
-334.260	129.835	-0.058	-0.074
-333.245	-52.867	0.183	0.084
-332.231	124.506	0.108	0.136
-331.216	276.888	0.040	-0.072
-330.202	800.000	-0.082	0.282
-329.187	7.599	0.398	-0.296
-328.172	115.327	0.147	-0.178
-327.158	370.591	0.108	-0.219
-326.143	344.166	-0.088	-0.172
-325.129	-200.000	0.063	-0.287
-324.114	134.557	0.190	-0.246
-323.099	212.565	-0.062	0.098
-322.085	181.419	0.077	0.113
-321.070	-46.251	-0.195	0.096
-320.056	-200.000	-0.023	0.248
-319.041	-99.338	0.423	-0.106
-318.026	-200.000	0.045	0.374
-317.012	0.913	0.219	0.156
-315.997	-182.664	-0.237	-0.004
-314.983	800.000	-0.012	0.046
-313.968	-45.617	-0.253	0.125
-312.953	-181.527	-0.239	-0.005
-311.939	-152.360	-0.307	0.022
-310.924	-80.511	0.285	-0.094
-309.910	800.000	0.058	-0.195
-308.895	-112.881	0.622	-0.122
-307.880	-93.598	0.193	0.053
-306.866	-200.000	0.015	0.166
-305.851	329.080	-0.097	-0.184
-304.837	191.962	0.052	0.078
-303.822	40.557	0.308	-0.276
-302.807	186.690	-0.138	0.204
-301.793	-20.200	-0.312	0.191
-300.778	-200.000	-0.020	0.432
-299.764	-52.330	0.056	0.026
-298.749	-87.657	-0.146	-0.044
-297.735	-17.272	0.092	0.057
-296.720	-143.419	-0.315	0.030
-295.705	800.000	0.041	0.150
-294.691	493.061	0.088	-0.201
-293.676	408.640	-0.071	0.149
-292.662	126.416	0.179	-0.225
-291.647	-14.333	0.243	-0.156
-290.632	800.000	0.128	0.361
-289.618	757.510	-0.035	-0.094
-288.603	-200.000	0.013	-0.259
-287.589	-185.873	0.112	0.002
-286.574	-105.083	0.228	0.052
-285.559	364.370	0.044	0.088
-284.545	-49.236	-0.226	-0.107
-283.530	232.722	0.073	-0.119
-282.516	-200.000	0.010	-0.170
-281.501	-193.457	0.278	0.002
-280.486	40.069	-0.211	0.189
-279.472	-135.986	-0.522	0.061
-278.457	800.000	0.053	0.146
-277.443	-17.907	-0.278	0.173
-276.428	642.372	0.034	0.085
-275.413	85.755	0.108	0.118
-274.399	800.000	-0.065	-0.253
-273.384	-4.946	0.145	-0.099
-272.370	-25.020	-0.169	0.100
-271.355	208.771	-0.240	0.372
-270.340	-200.000	0.039	0.228
-269.326	201.185	-0.128	0.195
-268.311	317.204	-0.112	-0.210
-267.297	34.345	0.241	-0.208
-266.282	-14.841	-0.301	0.192
-265.267	-18.569	0.172	-0.106
-264.253	-66.860	-0.375	-0.147
-263.238	269.726	0.181	0.316
-262.224	-116.613	0.331	0.061
-261.209	-23.354	-0.010	0.006
-260.195	-42.235	-0.161	-0.082
-259.180	108.403	0.100	-0.118
-258.165	800.000	-0.022	-0.061
-257.151	-47.994	0.158	0.076
-256.136	-200.000	0.042	-0.274
-255.122	-126.499	0.240	-0.035
-254.107	-200.000	0.052	0.263
-253.092	800.000	-0.029	0.119
-252.078	800.000	0.125	0.357
-251.063	-200.000	0.014	0.082
-250.049	800.000	0.075	-0.317
-249.034	438.208	0.138	0.298
-248.019	-74.228	-0.112	-0.040
-247.005	305.890	0.137	-0.252
-245.990	157.407	-0.065	0.089
-244.976	92.288	0.188	0.210
-243.961	-19.928	-0.500	0.306
-242.946	-200.000	0.024	0.106
-241.932	-118.000	-0.191	-0.034
-240.917	-8.796	-0.392	-0.261
-239.903	158.140	0.301	-0.414
-238.888	-124.494	-0.165	-0.025
-237.873	-122.908	0.113	-0.018
-236.859	116.188	-0.233	0.283
-235.844	-200.000	0.038	0.238
-234.830	-89.228	0.082	0.024
-233.815	800.000	-0.045	-0.187
-232.800	-200.000	-0.007	-0.232
-231.786	-97.634	-0.439	-0.113
-230.771	-105.972	0.344	0.077
-229.757	-12.825	-0.158	0.102
-228.742	260.321	-0.081	-0.139
-227.727	191.316	-0.156	-0.232
-226.713	773.304	-0.112	-0.302
-225.698	-164.489	-0.497	-0.022
-224.684	183.483	0.052	0.076
-223.669	257.432	0.059	0.101
-222.655	-107.222	0.278	-0.061
-221.640	22.265	0.052	-0.042
-220.625	394.665	-0.110	-0.227
-219.611	-106.501	-0.032	-0.007
-218.596	-2.433	0.194	0.135
-217.582	-84.945	0.317	0.099
-216.567	-20.308	-0.468	0.286
-215.552	174.931	0.201	0.287
-214.538	-148.925	-0.202	-0.016
-213.523	10.755	-0.141	0.107
-212.509	800.000	-0.059	0.215
-211.494	394.619	0.105	-0.216
-210.479	-50.667	-0.436	-0.203
-209.465	-40.753	0.188	-0.097
-208.450	45.843	0.359	0.329
-207.436	99.880	-0.170	-0.195
-206.421	-83.523	0.332	0.105
-205.406	-41.335	0.193	0.098
-204.392	101.486	-0.125	-0.144
-203.377	-21.351	-0.095	0.058
-202.363	45.014	0.249	-0.227
-201.348	-38.582	0.256	0.134
-200.333	-17.261	-0.185	-0.115
-199.319	366.505	0.006	-0.012
-198.304	6.510	0.078	-0.057
-197.290	92.884	-0.151	-0.169
-196.275	-76.771	0.080	-0.028
-195.260	-200.000	-0.025	0.160
-194.246	-0.522	0.258	0.181
-193.231	-185.047	-0.056	0.001
-192.217	-124.658	0.289	0.044
-191.202	119.273	0.281	0.344
-190.187	-200.000	0.046	0.310
-189.173	-14.571	0.061	0.039
-188.158	-8.249	-0.320	0.213
-187.144	-13.028	-0.187	-0.120
-186.129	257.401	0.081	0.138
-185.114	-59.355	0.186	-0.079
-184.100	-38.175	-0.143	-0.075
-183.085	-44.419	0.256	0.127
-182.071	127.882	0.270	0.339
-181.056	-200.000	-0.001	-0.007
-180.042	-175.727	-0.307	0.008
-179.027	800.000	0.134	0.371
-178.012	-122.652	0.327	0.052
-176.998	-123.033	-0.043	-0.007
-175.983	-200.000	-0.143	0.000
-174.969	18.423	-0.048	0.038
-173.954	-141.275	-0.284	-0.029
-172.939	-159.091	-0.107	-0.006
-171.925	30.796	-0.201	-0.170
-170.910	-95.296	0.134	-0.036
-169.896	159.921	-0.223	0.307
-168.881	-84.504	0.252	-0.078
-167.866	-200.000	-0.057	0.421
-166.852	-155.567	-0.322	-0.020
-165.837	-200.000	-0.036	0.342
-164.823	-200.000	-0.037	0.244
-163.808	65.246	-0.152	-0.152
-162.793	-142.447	-0.105	0.010
-161.779	-128.365	0.043	0.006
-160.764	-164.927	0.293	-0.013
-159.750	34.401	0.276	0.238
-158.735	294.475	-0.086	0.155
-157.720	-200.000	-0.006	-0.092
-156.706	-41.535	-0.009	-0.004
-155.691	800.000	0.100	0.335
-154.677	339.001	-0.173	0.332
-153.662	-51.519	-0.167	-0.077
-152.647	1.341	0.192	-0.136
-151.633	-125.505	-0.379	-0.057
-150.618	-60.150	0.350	0.148
-149.604	262.317	-0.132	-0.226
-148.589	-159.221	0.150	-0.008
-147.574	173.030	-0.123	0.175
-146.560	-200.000	0.172	-0.000
-145.545	-70.423	0.209	0.078
-144.531	61.720	0.084	-0.083
-143.516	173.196	0.142	0.203
-142.502	456.977	0.031	-0.067
-141.487	-172.252	0.271	-0.009
-140.472	-110.598	0.086	0.018
-139.458	-126.611	0.101	-0.015
-138.443	294.434	-0.139	0.251
-137.429	-0.441	0.385	-0.270
-136.414	716.702	0.065	-0.170
-135.399	800.000	0.081	-0.235
-134.385	503.372	0.174	0.397
-133.370	800.000	-0.094	0.316
-132.356	-144.382	0.183	0.017
-131.341	-92.770	-0.349	0.096
-130.326	-131.728	-0.298	0.039
-129.312	-200.000	0.008	0.074
-128.297	-31.041	-0.208	-0.116
-127.283	-125.786	0.287	-0.043
-126.268	366.632	-0.030	0.060
-125.253	800.000	-0.112	0.471
-124.239	52.008	-0.228	0.215
-123.224	-96.625	0.181	0.047
-122.210	62.109	-0.200	0.197
-121.195	-91.938	0.489	-0.137
-120.180	-200.000	-0.033	0.205
-119.166	-54.330	0.349	-0.156
-118.151	24.206	-0.175	0.143
-117.137	-200.000	0.015	0.242
-116.122	-79.886	0.146	0.048
-115.107	-136.179	0.094	0.011
-114.093	-126.129	0.526	-0.078
-113.078	-49.369	0.062	-0.029
-112.064	-200.000	-0.036	-0.316
-111.049	49.086	-0.143	-0.132
-110.034	-200.000	-0.045	0.211
-109.020	-39.201	0.044	0.023
-108.005	335.072	-0.093	-0.177
-106.991	-38.105	-0.117	0.061
-105.976	208.909	-0.111	-0.172
-104.962	238.943	-0.081	-0.132
-103.947	77.714	0.120	-0.126
-102.932	800.000	0.007	0.022
-101.918	516.702	-0.118	-0.272
-100.903	189.714	-0.037	0.055
-99.889	800.000	0.089	0.256
-98.874	-102.350	-0.213	-0.050
-97.859	-176.932	0.178	0.004
-96.845	-200.000	0.023	-0.156
-95.830	690.007	0.058	-0.148
-94.816	197.547	-0.089	-0.134
-93.801	106.319	0.159	-0.186
-92.786	-81.253	0.091	-0.030
-91.772	20.273	-0.189	0.150
-90.757	-18.562	0.269	-0.166
-89.743	681.675	-0.115	0.295
-88.728	800.000	0.053	0.186
-87.713	17.033	-0.414	-0.323
-86.699	353.357	-0.074	0.144
-85.684	49.936	-0.290	-0.270
-84.670	68.935	-0.089	-0.090
-83.655	-3.777	0.227	0.155
-82.640	374.834	-0.164	0.329
-81.626	-4.973	-0.163	0.110
-80.611	25.516	0.181	0.148
-79.597	-147.155	-0.316	0.027
-78.582	296.048	-0.053	0.096
-77.567	800.000	0.088	0.339
-76.553	93.626	0.165	0.184
-75.538	-200.000	0.008	-0.104
-74.524	433.017	0.059	0.126
-73.509	-132.949	-0.119	-0.015
-72.494	-166.278	0.183	0.008
-71.480	-200.000	-0.064	0.316
-70.465	-200.000	0.002	-0.025
-69.451	654.132	0.091	0.230
-68.436	-89.234	-0.314	-0.091
-67.422	-118.794	-0.436	-0.076
-66.407	124.420	-0.128	-0.159
-65.392	161.791	-0.120	0.165
-64.378	-143.380	0.217	-0.020
-63.363	326.507	-0.068	-0.128
-62.349	-63.859	0.198	0.080
-61.334	39.595	-1.006	-0.888
-60.319	0.662	0.616	0.433
-59.305	-200.000	-0.171	-0.820
-58.290	418.789	0.601	1.266
-57.276	241.224	0.970	1.594
-56.261	-200.000	96.072	595.307
-55.246	564.804	1371.461	3271.057
-54.232	161.278	2549.119	3507.445
-53.217	113.520	2141.926	2559.281
-52.203	44.015	1603.777	1446.450
-51.188	35.611	1341.353	1159.286
-50.173	32.314	1299.809	1104.018
-49.159	54.244	1347.335	1275.889
-48.144	56.789	1363.480	1306.308
-47.130	35.835	1322.410	1144.066
-46.115	32.203	1305.624	1108.127
-45.100	32.092	1300.166	1102.800
-44.086	32.068	1297.179	1100.082
-43.071	31.878	1295.123	1097.185
-42.057	31.776	1292.994	1094.741
-41.042	31.923	1291.877	1094.607
-40.027	31.921	1289.923	1092.899
-39.013	31.973	1288.266	1091.751
-37.998	31.972	1286.254	1089.997
-36.984	32.109	1284.675	1089.412
-35.969	32.033	1282.851	1087.384
-34.954	32.144	1280.919	1086.345
-33.940	32.148	1279.251	1084.908
-32.925	32.120	1278.248	1083.853
-31.911	32.105	1276.840	1082.533
-30.896	32.236	1275.233	1081.878
-29.881	32.261	1273.898	1080.846
-28.867	32.158	1272.804	1079.283
-27.852	32.158	1271.243	1077.921
-26.838	32.260	1269.350	1076.856
-25.823	32.116	1268.315	1075.108
-24.809	32.160	1266.815	1074.045
-23.794	32.117	1266.113	1073.163
-22.779	32.228	1264.432	1072.332
-21.765	32.194	1263.219	1071.065
-20.750	32.067	1262.136	1069.382
-19.736	32.095	1260.397	1068.025
-18.721	32.033	1259.749	1067.082
-17.706	32.003	1258.720	1065.999
-16.692	32.058	1257.003	1064.814
-15.677	31.914	1256.243	1063.308
-14.663	31.966	1255.170	1062.651
-13.648	32.037	1253.514	1061.609
-12.633	31.829	1252.960	1059.924
-11.619	31.948	1252.276	1059.978
-10.604	32.005	1251.239	1059.376
-9.590	31.978	1250.262	1058.354
-8.575	31.881	1249.252	1056.913
-7.560	32.064	1248.039	1056.874
-6.546	31.968	1247.818	1056.103
-5.531	32.006	1246.254	1054.954
-4.517	31.889	1245.908	1053.962
-3.502	31.972	1245.046	1053.654
-2.487	31.976	1243.849	1052.625
-1.473	31.951	1239.779	1048.994
-0.458	30.622	1224.804	1028.938
0.556	27.287	1207.394	993.177
1.571	23.561	1213.997	978.021
2.586	22.870	1229.094	986.238
3.600	22.269	1218.079	973.988
4.615	15.928	1144.732	882.148
5.629	6.044	1068.005	774.427
6.644	1.891	1048.168	739.853
7.659	1.487	1046.010	736.309
8.673	1.535	1044.358	735.312
9.688	1.308	1043.291	733.396
10.702	1.635	1041.811	733.872
11.717	7.686	1050.045	768.952
12.731	17.974	1064.645	829.801
13.746	23.527	1072.125	862.647
14.761	24.802	1073.309	869.726
15.775	24.839	1072.611	869.261
16.790	24.675	1071.496	867.484
17.804	24.451	1071.379	866.225
18.819	24.718	1070.919	867.074
19.834	24.851	1070.805	867.550
20.848	24.845	1070.366	867.088
21.863	24.767	1069.750	866.134
22.877	24.836	1069.189	865.935
23.892	24.766	1068.180	864.705
24.907	24.851	1067.509	864.495
25.921	24.935	1066.090	863.676
26.936	24.813	1065.093	862.204
27.950	24.531	1063.804	859.725
28.965	24.558	1061.772	858.139
29.980	24.730	1060.185	857.605
30.994	24.942	1059.057	857.631
32.009	24.877	1058.091	856.464
33.023	24.573	1057.161	854.181
34.038	24.766	1056.469	854.465
35.053	24.768	1055.863	853.912
36.067	24.770	1055.469	853.525
37.082	24.890	1054.220	853.014
38.096	25.099	1053.637	853.459
39.111	25.185	1052.865	853.167
40.126	24.922	1051.703	850.900
41.140	24.694	1049.906	848.291
42.155	24.492	1048.430	846.067
43.169	24.536	1047.302	845.291
44.184	24.566	1046.470	844.684
45.199	24.363	1045.644	842.986
46.213	24.399	1045.112	842.653
47.228	24.675	1044.456	843.352
48.242	24.727	1043.728	842.931
49.257	24.727	1042.769	842.083
50.271	24.894	1042.028	842.195
51.286	24.966	1041.130	841.734
52.301	24.927	1040.199	840.724
53.315	24.933	1038.966	839.681
54.330	24.841	1038.239	838.588
55.344	24.776	1037.958	837.984
56.359	24.813	1036.722	837.083
57.374	24.592	1036.105	835.478
58.388	24.576	1035.128	834.541
59.403	24.552	1033.781	833.268
60.417	24.374	1033.268	831.952
61.432	24.507	1032.933	832.231
62.447	24.668	1032.210	832.322
63.461	24.558	1031.529	831.187
64.476	24.489	1030.488	829.956
65.490	24.407	1029.528	828.726
66.505	24.450	1029.286	828.660
67.520	24.670	1028.273	828.790
68.534	24.388	1026.980	826.368
69.549	24.264	1025.482	824.515
70.563	23.947	1025.260	822.799
71.578	24.070	1024.227	822.466
72.593	23.727	1023.820	820.483
73.607	24.057	1022.924	821.215
74.622	24.405	1022.458	822.371
75.636	24.306	1022.456	821.842
76.651	24.208	1021.141	820.259
77.666	24.200	1020.632	819.741
78.680	24.226	1019.731	819.065
79.695	24.356	1019.356	819.290
80.709	24.457	1018.522	819.009
81.724	24.346	1017.628	817.708
82.739	24.414	1017.140	817.555
83.753	24.792	1016.744	818.899
84.768	25.070	1016.364	819.789
85.782	25.372	1014.707	819.762
86.797	25.019	1014.235	817.697
87.812	24.931	1012.976	816.206
88.826	25.060	1011.861	815.822
89.841	25.069	1011.241	815.294
90.855	25.239	1010.159	815.119
91.870	24.998	1009.461	813.391
92.884	24.989	1008.281	812.328
93.899	24.926	1007.501	811.341
94.914	25.105	1006.795	811.512
95.928	24.848	1005.523	809.254
96.943	24.630	1004.301	807.213
97.957	24.434	1003.430	805.558
98.972	24.250	1002.378	803.812
99.987	24.637	1001.189	804.528
101.001	24.860	1000.802	805.150
102.016	24.866	1000.101	804.540
103.030	24.697	999.287	803.056
104.045	24.588	998.351	801.746
105.060	24.446	997.343	800.229
106.074	24.582	996.900	800.411
107.089	25.023	995.745	801.384
108.103	24.940	994.830	800.208
109.118	24.615	993.288	797.444
110.133	24.589	992.594	796.702
111.147	24.298	991.584	794.527
112.162	24.273	990.528	793.499
113.176	24.513	990.332	794.337
114.191	24.478	989.253	793.247
115.206	24.209	988.171	791.115
116.220	24.066	987.538	789.904
117.235	24.233	986.559	789.793
118.249	24.246	985.743	789.124
119.264	24.068	985.171	787.809
120.279	24.271	984.119	787.795
121.293	24.323	983.653	787.582
122.308	24.310	982.702	786.694
123.322	24.065	982.189	785.134
124.337	24.047	980.287	783.463
125.352	23.523	978.997	780.060
126.366	23.564	977.653	779.100
127.381	24.267	978.398	782.714
128.395	24.722	977.817	784.175
129.410	24.780	977.053	783.750
130.424	24.781	975.878	782.739
131.439	24.781	974.687	781.714
132.454	24.747	973.979	780.929
133.468	24.602	972.992	779.436
134.483	24.910	972.130	780.019
135.497	25.015	971.566	779.955
136.512	24.970	970.755	779.042
137.527	24.952	969.844	778.160
138.541	25.030	969.263	777.965
139.556	24.928	968.552	776.881
140.570	25.055	968.063	776.974
141.585	25.219	966.222	776.136
142.600	25.199	965.045	775.037
143.614	25.225	965.235	775.231
144.629	25.374	964.365	775.108
145.643	25.112	963.260	773.021
146.658	24.957	961.604	770.956
147.673	24.929	960.867	770.176
148.687	24.748	959.889	768.549
149.702	24.774	958.630	767.584
150.716	24.744	957.763	766.694
151.731	24.776	957.517	766.567
152.746	25.143	956.821	767.510
153.760	25.034	956.637	766.830
154.775	25.206	955.699	766.744
155.789	25.193	954.496	765.656
156.804	25.215	953.764	765.095
157.819	25.248	952.549	764.193
158.833	25.345	952.067	764.153
159.848	25.325	950.983	763.128
160.862	25.163	949.743	761.377
161.877	25.050	949.322	760.495
162.892	25.160	947.870	759.729
163.906	25.201	946.936	759.086
164.921	25.117	946.442	758.268
165.935	25.199	945.641	757.909
166.950	25.184	944.200	756.621
167.964	25.194	943.265	755.847
168.979	25.043	942.492	754.524
169.994	25.070	941.476	753.757
171.008	25.169	941.121	753.826
172.023	25.206	940.284	753.243
173.037	24.986	939.089	751.296
174.052	24.962	938.022	750.277
175.067	24.827	938.077	749.689
176.081	24.931	937.430	749.538
177.096	24.895	936.703	748.739
178.110	24.575	935.440	746.331
179.125	24.359	935.363	745.301
180.140	24.539	934.869	745.590
181.154	24.731	934.183	745.779
182.169	24.986	934.170	746.765
183.183	25.169	933.493	746.919
184.198	25.174	932.541	746.114
185.213	25.109	931.784	745.173
186.227	25.165	931.471	745.088
187.242	25.272	930.321	744.546
188.256	25.357	929.943	744.529
189.271	25.262	929.233	743.502
190.286	24.850	928.505	741.149
191.300	24.263	926.622	737.153
192.315	23.465	925.057	732.549
193.329	23.455	924.838	732.267
194.344	24.428	925.460	736.716
195.359	25.076	925.217	739.130
196.373	25.052	924.738	738.582
197.388	24.883	924.151	737.353
198.402	25.085	923.319	737.453
199.417	25.117	922.802	737.109
200.432	24.777	921.639	734.718
201.446	24.690	921.145	733.899
202.461	24.683	920.734	733.480
203.475	23.764	918.867	728.161
204.490	23.168	916.720	723.960
205.504	24.189	917.484	728.678
206.519	24.772	917.413	730.940
207.534	24.690	917.367	730.504
208.548	25.084	917.152	731.877
209.563	24.866	916.096	730.080
210.577	24.851	915.504	729.483
211.592	25.321	915.215	731.100
212.607	25.343	914.167	730.289
213.621	25.223	913.724	729.383
214.636	25.378	913.035	729.398
215.650	25.171	912.555	728.110
216.665	25.363	911.693	728.135
217.680	25.278	910.777	726.996
218.694	24.818	909.747	724.247
219.709	24.797	908.832	723.371
220.723	25.106	908.701	724.450
221.738	25.076	908.158	723.834
222.753	24.994	907.798	723.151
223.767	25.136	907.505	723.428
224.782	25.411	906.764	723.880
225.796	25.346	906.202	723.106
226.811	24.721	904.593	719.246
227.826	24.089	903.335	715.642
228.840	24.190	903.002	715.719
229.855	24.390	902.067	715.719
230.869	24.038	901.105	713.482
231.884	24.422	901.114	714.964
232.899	25.089	901.256	717.684
233.913	24.929	900.637	716.489
234.928	24.872	900.214	715.862
235.942	24.897	899.222	715.108
236.957	24.559	898.858	713.406
237.972	24.688	897.848	713.057
238.986	24.660	897.748	712.803
240.001	24.764	897.000	712.560
241.015	24.917	896.388	712.616
242.030	24.897	896.034	712.196
243.045	25.109	895.462	712.519
244.059	25.241	895.295	712.849
245.074	24.952	894.377	710.907
246.088	24.670	893.180	708.773
247.103	24.871	892.833	709.234
248.117	25.550	892.865	711.883
249.132	25.722	892.622	712.307
250.147	25.873	892.143	712.462
251.161	26.000	891.489	712.375
252.176	25.987	890.668	711.605
253.190	26.028	890.522	711.590
254.205	26.131	890.210	711.684
255.220	26.151	889.497	711.129
256.234	26.019	888.687	709.899
257.249	25.969	887.522	708.706
258.263	25.757	887.359	707.681
259.278	25.879	886.483	707.400
260.293	26.019	886.197	707.657
261.307	25.753	885.609	706.082
262.322	25.593	884.449	704.470
263.336	24.959	882.332	700.241
264.351	23.938	880.762	694.948
265.366	24.171	880.259	695.399
266.380	25.321	881.103	700.494
267.395	25.643	880.657	701.335
268.409	25.533	880.178	700.463
269.424	25.654	879.742	700.523
270.439	25.762	879.077	700.352
271.453	25.892	878.073	699.997
272.468	25.915	878.555	700.407
273.482	25.938	877.781	699.817
274.497	25.592	876.435	697.339
275.512	25.218	875.647	695.204
276.526	25.611	875.512	696.555
277.541	25.957	875.254	697.629
278.555	25.721	874.183	695.803
279.570	25.487	873.706	694.457
280.585	25.681	873.223	694.759
281.599	25.606	872.190	693.587
282.614	25.077	870.974	690.521
283.628	25.038	870.521	689.952
284.643	25.377	870.189	690.931
285.657	24.934	869.306	688.466
286.672	24.750	868.428	687.002
287.687	25.272	868.596	689.081
288.701	25.389	867.708	688.765
289.716	25.085	866.703	686.742
290.730	24.793	866.374	685.300
291.745	24.631	865.664	684.056
292.760	25.074	865.313	685.415
293.774	26.053	865.752	689.447
294.789	26.470	865.188	690.528
295.803	26.321	864.855	689.632
296.818	26.314	864.317	689.116
297.833	25.870	863.081	686.379
298.847	25.810	862.342	685.501
299.862	26.023	862.454	686.340
300.876	26.383	861.647	687.005
301.891	26.373	860.893	686.305
302.906	25.876	860.219	683.820
303.920	25.861	860.026	683.552
304.935	26.262	859.498	684.591
305.949	26.286	858.819	684.079
306.964	25.941	858.304	682.303
307.979	26.021	857.855	682.191
308.993	26.446	857.533	683.479
310.008	26.430	857.094	683.008
311.022	26.074	856.540	681.164
312.037	25.872	855.692	679.664
313.052	25.749	854.662	678.326
314.066	24.876	853.378	673.961
315.081	24.648	852.331	672.218
316.095	25.347	853.034	675.343
317.110	25.885	852.673	677.017
318.125	25.021	851.133	672.493
319.139	23.955	849.829	667.406
320.154	24.055	849.596	667.538
321.168	25.136	849.306	671.300
322.183	25.820	849.635	674.061
323.197	25.780	849.815	673.998
324.212	26.000	849.336	674.379
325.227	25.948	848.625	673.560
326.241	25.893	847.585	672.469
327.256	25.853	847.103	671.881
328.270	25.688	846.783	670.953
329.285	25.664	845.590	669.858
330.300	25.257	845.233	668.000
331.314	25.550	845.255	669.049
332.329	26.017	844.730	670.311
333.343	26.156	844.350	670.464
334.358	26.191	844.110	670.348
335.373	26.267	843.413	670.015
336.387	26.373	843.880	670.720
337.402	26.498	843.824	671.079
338.416	26.625	842.774	670.654
339.431	26.664	842.882	670.827
340.446	26.859	842.451	671.147
341.460	26.725	841.656	669.960
342.475	26.345	841.406	668.295
343.489	26.586	841.204	668.966
344.504	26.848	840.770	669.530
345.519	26.974	840.375	669.620
346.533	27.104	839.800	669.580
347.548	27.071	839.238	668.955
348.562	26.995	838.660	668.152
349.577	26.875	838.354	667.408
350.592	27.007	837.015	666.769
351.606	26.911	836.858	666.234
352.621	26.781	835.601	664.695
353.635	26.745	834.931	663.971
354.650	26.010	833.542	660.120
355.665	25.146	832.180	655.824
356.679	25.561	832.052	657.183
357.694	25.933	831.617	658.138
358.708	26.054	830.718	657.810
359.723	26.292	831.124	658.942
360.738	26.563	830.742	659.568
361.752	26.782	830.072	659.776
362.767	27.073	830.018	660.732
363.781	27.276	829.687	661.151
364.796	27.350	829.543	661.246
365.810	27.386	829.238	661.073
366.825	27.308	828.326	660.006
367.840	27.001	827.459	658.142
368.854	26.552	826.910	656.024
369.869	26.673	826.714	656.247
370.883	26.621	825.866	655.329
371.898	26.649	825.601	655.161
372.913	26.773	825.229	655.256
373.927	26.794	824.710	654.860
374.942	27.031	824.141	655.207
375.956	27.159	823.582	655.165
376.971	27.224	823.705	655.441
377.986	27.366	822.961	655.302
379.000	27.224	822.425	654.305
380.015	27.104	822.089	653.548
381.029	27.282	821.030	653.289
382.044	27.396	820.692	653.371
383.059	27.272	820.400	652.637
384.073	27.515	819.613	652.821
385.088	27.143	819.520	651.359
386.102	27.070	818.649	650.348
387.117	26.832	817.774	648.743
388.132	26.576	816.662	646.888
389.146	26.264	815.575	644.855
390.161	26.668	815.725	646.360
391.175	26.873	815.940	647.204
392.190	26.681	814.730	645.503
393.205	25.215	812.765	638.673
394.219	23.843	810.801	632.198
395.234	23.805	810.232	631.563
396.248	25.462	811.543	638.424
397.263	26.872	812.919	644.464
398.278	26.873	812.413	644.010
399.292	26.589	811.619	642.316
400.307	26.675	811.212	642.241
401.321	26.681	810.717	641.814
402.336	27.040	810.969	643.226
403.350	27.376	810.848	644.265
404.365	27.801	810.499	645.433
405.380	28.003	810.288	645.922
406.394	28.167	809.839	646.084
407.409	27.988	809.283	644.955
408.423	27.914	808.728	644.193
409.438	27.998	808.394	644.167
410.453	28.069	808.188	644.195
411.467	28.013	807.429	643.335
412.482	27.954	807.026	642.749
413.496	28.163	806.455	642.972
414.511	27.982	806.317	642.169
415.526	28.169	805.583	642.184
416.540	27.874	805.161	640.758
417.555	27.491	804.828	639.091
418.569	27.547	804.511	638.981
419.584	27.585	803.736	638.441
420.599	27.565	802.908	637.658
421.613	110.454	1286.652	1459.473
422.628	95.312	1357.121	1459.581
