DTS Sentinel unit serial number:	SN413079Multiplexer serial number:	ORYXHardware model number:	OX4-SRSoftware version number:	ORYX F/W v4.00 Oryx Data Collector v3.7.2.0data status	okinstallation	princeton_trtdifferential loss correction	single-endedforward channel	channel 1reverse channel	N/Adate	2019/09/18time	13:50:35forward acquisition time	60.00reverse acquisition time	0.00gamma	496.2192k internal	0.2312k external	0.2312temperature offset calibration	0.9986default loss term (dB/km)	0.3790temperature slope calibration	1.0000multiplexer offset coefficient	1.0000multiplexer slope coefficient	1.0000fibre end	0.00T internal ref (°C)	34.50T ext. ref 1 (°C)	0.64T ext. ref 2 (°C)	29.92length (m)	temperature (°C)	Stokes	anti-Stokes-747.200	-62.767	-0.168	-0.071
-746.185	-200.000	-0.004	-0.044
-745.171	-200.000	-0.045	0.333
-744.156	280.923	0.187	0.339
-743.142	-145.292	0.257	-0.024
-742.127	-83.986	0.175	-0.056
-741.112	-133.209	0.373	0.048
-740.098	-69.741	0.150	0.058
-739.083	42.456	-0.106	-0.098
-738.069	192.240	-0.180	0.276
-737.054	10.108	-0.281	-0.217
-736.039	676.061	-0.121	-0.320
-735.025	800.000	-0.090	0.351
-734.010	-104.085	-0.329	-0.078
-732.996	-70.496	-0.395	-0.152
-731.981	-128.328	0.201	-0.029
-730.966	55.191	0.282	0.276
-729.952	-94.177	-0.134	-0.037
-728.937	169.400	-0.171	-0.248
-727.923	98.356	-0.200	-0.234
-726.908	-138.385	-0.122	-0.014
-725.894	-98.817	-0.430	-0.111
-724.879	86.213	0.285	-0.319
-723.864	-2.139	-0.377	0.269
-722.850	27.580	0.157	0.134
-721.835	-200.000	-0.024	-0.125
-720.821	-188.560	-0.351	-0.004
-719.806	800.000	0.047	0.133
-718.791	336.059	-0.171	0.336
-717.777	-200.000	-0.038	0.321
-716.762	41.085	0.201	0.184
-715.748	-15.824	-0.152	-0.098
-714.733	614.941	0.118	0.300
-713.718	29.957	-0.091	-0.079
-712.704	-53.183	-0.308	-0.143
-711.689	124.939	0.111	-0.141
-710.675	-200.000	0.009	-0.097
-709.660	-71.776	-0.405	0.153
-708.645	-8.581	-0.110	0.075
-707.631	-95.084	-0.268	-0.073
-706.616	238.345	-0.095	-0.160
-705.602	41.681	0.083	0.076
-704.587	-113.806	-0.495	-0.098
-703.572	122.698	0.166	0.211
-702.558	-131.205	0.142	-0.019
-701.543	800.000	0.120	0.442
-700.529	-130.418	-0.155	-0.021
-699.514	203.980	-0.072	0.112
-698.499	370.694	-0.138	-0.283
-697.485	426.301	-0.024	-0.053
-696.470	-68.618	-0.244	-0.096
-695.456	-200.000	0.036	-0.255
-694.441	-47.473	-0.102	-0.050
-693.426	-200.000	0.062	0.307
-692.412	-3.292	-0.125	0.088
-691.397	-109.668	-0.146	-0.031
-690.383	-132.985	0.188	-0.024
-689.368	391.490	0.017	-0.036
-688.354	800.000	-0.100	-0.351
-687.339	-93.733	-0.217	-0.060
-686.324	58.264	0.211	-0.210
-685.310	800.000	-0.046	-0.147
-684.295	442.716	0.190	0.422
-683.281	456.303	-0.051	0.115
-682.266	-200.000	0.042	-0.244
-681.251	-125.317	0.186	0.029
-680.237	-200.000	-0.043	0.320
-679.222	-19.197	-0.209	-0.132
-678.208	-200.000	-0.027	-0.211
-677.193	-100.596	-0.362	-0.091
-676.178	-77.754	-0.331	0.116
-675.164	0.401	0.091	-0.066
-674.149	-69.937	0.297	0.115
-673.135	-73.024	-0.288	-0.107
-672.120	-200.000	-0.021	0.182
-671.105	271.726	-0.044	0.078
-670.091	39.120	-0.011	-0.010
-669.076	-137.157	-0.152	-0.018
-668.062	-37.846	-0.272	-0.146
-667.047	-137.907	0.325	-0.037
-666.032	-33.411	-0.590	-0.330
-665.018	237.198	-0.077	-0.129
-664.003	-171.960	0.159	0.005
-662.989	-128.359	-0.157	-0.023
-661.974	-200.000	0.063	0.393
-660.959	-39.440	0.085	0.045
-659.945	800.000	-0.019	-0.059
-658.930	194.858	-0.058	-0.089
-657.916	444.952	-0.064	0.141
-656.901	10.780	0.009	0.007
-655.886	625.790	-0.132	-0.337
-654.872	-83.102	0.340	-0.111
-653.857	800.000	-0.083	0.348
-652.843	-97.770	-0.082	0.021
-651.828	-30.503	0.078	0.044
-650.814	661.905	0.088	0.231
-649.799	-200.000	-0.018	0.084
-648.784	800.000	0.033	0.111
-647.770	786.521	-0.111	-0.308
-646.755	325.259	0.123	-0.237
-645.741	-74.761	0.161	-0.059
-644.726	-200.000	0.072	-0.401
-643.711	271.514	-0.203	0.361
-642.697	-200.000	-0.015	0.162
-641.682	-200.000	0.019	-0.260
-640.668	-200.000	0.051	-0.317
-639.653	-5.838	0.211	0.146
-638.638	144.681	-0.078	-0.105
-637.624	56.549	0.135	-0.133
-636.609	479.575	-0.230	-0.526
-635.595	600.730	-0.069	0.174
-634.580	-200.000	-0.012	0.121
-633.565	399.932	0.104	0.221
-632.551	-185.267	0.152	-0.002
-631.536	-194.581	0.292	-0.002
-630.522	-91.571	0.160	-0.046
-629.507	-49.337	-0.086	-0.041
-628.492	800.000	-0.079	0.292
-627.478	26.152	-0.286	-0.241
-626.463	-53.452	-0.076	-0.035
-625.449	-138.846	-0.233	-0.026
-624.434	68.910	-0.374	-0.388
-623.419	-7.905	0.182	-0.124
-622.405	-161.353	-0.154	0.008
-621.390	800.000	-0.088	0.359
-620.376	-200.000	0.002	-0.033
-619.361	-63.701	0.168	-0.070
-618.346	327.492	0.012	0.023
-617.332	-61.125	-0.202	0.086
-616.317	395.998	-0.022	-0.047
-615.303	-200.000	0.009	-0.417
-614.288	106.792	-0.082	-0.098
-613.273	-137.681	0.243	-0.028
-612.259	-200.000	0.027	-0.280
-611.244	-200.000	-0.024	-0.174
-610.230	-150.784	-0.366	0.028
-609.215	-158.226	0.177	0.010
-608.201	-150.767	-0.473	-0.036
-607.186	11.715	0.350	0.271
-606.171	125.266	0.140	-0.178
-605.157	-61.870	0.134	0.057
-604.142	-200.000	-0.016	0.095
-603.128	-73.247	-0.370	0.137
-602.113	158.922	-0.080	-0.112
-601.098	-200.000	0.075	0.343
-600.084	225.142	-0.038	-0.062
-599.069	89.359	0.081	0.091
-598.055	-200.000	0.045	-0.281
-597.040	-91.906	0.316	0.090
-596.025	-11.218	-0.054	0.036
-595.011	-134.271	0.078	0.010
-593.996	-101.968	0.152	0.037
-592.982	32.671	-0.021	-0.019
-591.967	800.000	-0.058	-0.168
-590.952	-167.029	-0.407	-0.017
-589.938	-88.695	-0.177	0.053
-588.923	-86.524	-0.022	-0.007
-587.909	-137.784	-0.493	0.056
-586.894	32.016	-0.307	0.267
-585.879	26.170	-0.154	0.130
-584.865	0.383	-0.136	-0.098
-583.850	146.056	-0.218	0.295
-582.836	-61.042	-0.236	0.100
-581.821	-49.815	-0.243	-0.116
-580.806	800.000	-0.087	-0.289
-579.792	-200.000	-0.000	-0.086
-578.777	-127.200	-0.212	-0.031
-577.763	-200.000	-0.131	-0.673
-576.748	341.775	-0.107	0.210
-575.733	3.585	-0.082	-0.060
-574.719	-200.000	-0.011	0.221
-573.704	54.029	-0.061	-0.059
-572.690	50.555	0.149	-0.142
-571.675	-97.332	0.083	-0.022
-570.661	-155.156	-0.178	-0.012
-569.646	-28.656	0.383	0.222
-568.631	800.000	0.109	0.357
-567.617	-3.977	0.173	0.121
-566.602	123.805	0.119	-0.150
-565.588	-10.287	0.248	-0.166
-564.573	-200.000	-0.041	0.229
-563.558	-200.000	0.005	0.225
-562.544	156.803	-0.124	-0.172
-561.529	367.079	-0.101	-0.204
-560.515	-200.000	0.009	-0.289
-559.500	-200.000	0.046	-0.428
-558.485	-107.582	0.246	0.054
-557.471	-200.000	-0.017	0.107
-556.456	-86.832	0.520	0.160
-555.442	322.775	0.032	-0.061
-554.427	314.034	-0.074	-0.141
-553.412	-82.287	0.176	0.058
-552.398	92.789	0.319	-0.363
-551.383	182.966	-0.163	-0.242
-550.369	66.279	0.234	0.240
-549.354	800.000	-0.053	0.186
-548.339	382.972	-0.056	-0.116
-547.325	-200.000	0.014	0.117
-546.310	-200.000	0.023	0.344
-545.296	-54.150	0.038	-0.017
-544.281	-23.140	0.252	-0.153
-543.266	-165.918	-0.345	0.015
-542.252	-114.575	-0.245	0.047
-541.237	800.000	-0.116	-0.412
-540.223	-2.501	-0.138	-0.097
-539.208	-200.000	-0.041	0.270
-538.193	-105.845	-0.197	0.045
-537.179	-34.078	-0.183	-0.101
-536.164	280.722	0.030	0.055
-535.150	194.737	0.029	0.044
-534.135	-80.347	0.400	-0.134
-533.121	-34.097	-0.142	0.078
-532.106	-200.000	0.006	-0.087
-531.091	-200.000	-0.001	-0.135
-530.077	-87.680	0.030	0.009
-529.062	27.562	-0.136	0.115
-528.048	76.603	-0.223	-0.238
-527.033	-151.151	0.201	0.015
-526.018	69.617	0.208	0.215
-525.004	-129.464	0.278	0.039
-523.989	637.497	-0.113	0.288
-522.975	382.605	0.154	0.318
-521.960	-69.907	0.447	-0.171
-520.945	-7.829	-0.086	-0.059
-519.931	69.922	0.109	-0.113
-518.916	42.425	0.135	-0.124
-517.902	-143.983	0.238	-0.023
-516.887	800.000	0.023	-0.064
-515.872	-136.402	-0.149	-0.017
-514.858	-28.110	-0.371	0.216
-513.843	800.000	-0.005	0.018
-512.829	113.347	0.253	-0.309
-511.814	29.590	0.184	0.157
-510.799	23.817	-0.277	-0.230
-509.785	-7.348	0.268	-0.183
-508.770	-162.131	-0.291	-0.015
-507.756	-51.610	-0.193	0.091
-506.741	-200.000	-0.033	-0.315
-505.726	356.081	0.140	0.279
-504.712	60.296	0.016	-0.015
-503.697	39.729	-0.087	0.079
-502.683	800.000	-0.080	0.286
-501.668	-200.000	0.003	0.062
-500.653	-52.582	0.114	0.053
-499.639	700.137	-0.169	0.446
-498.624	557.713	-0.163	0.396
-497.610	222.163	0.079	0.127
-496.595	-68.464	0.180	0.070
-495.581	-200.000	-0.018	-0.113
-494.566	-200.000	-0.378	0.001
-493.551	-200.000	0.066	0.324
-492.537	-48.213	-0.116	-0.056
-491.522	-19.485	-0.154	-0.096
-490.508	-149.423	0.398	-0.032
-489.493	-105.679	-0.424	-0.096
-488.478	10.019	0.231	-0.176
-487.464	465.497	-0.073	-0.164
-486.449	-60.532	-0.137	0.059
-485.435	-123.247	0.226	0.036
-484.420	112.735	0.109	0.132
-483.405	-96.362	0.096	0.026
-482.391	19.326	0.404	-0.326
-481.376	537.801	-0.159	0.380
-480.362	41.524	0.291	-0.265
-479.347	113.333	-0.156	-0.190
-478.332	93.721	-0.031	-0.035
-477.318	167.028	0.079	0.113
-476.303	-44.762	0.096	-0.048
-475.289	-95.325	0.199	0.054
-474.274	-43.821	-0.207	-0.105
-473.259	-90.379	-0.304	-0.089
-472.245	-147.411	0.021	0.002
-471.230	113.707	-0.330	0.402
-470.216	31.596	0.162	0.140
-469.201	121.004	-0.130	-0.162
-468.186	-52.137	-0.088	-0.041
-467.172	-149.347	0.358	0.029
-466.157	423.310	0.116	-0.251
-465.143	25.077	0.181	0.151
-464.128	800.000	-0.032	0.126
-463.113	-26.784	0.147	-0.086
-462.099	42.890	0.022	-0.020
-461.084	-73.302	-0.288	-0.106
-460.070	94.707	0.067	0.076
-459.055	64.153	0.069	-0.070
-458.040	163.642	-0.146	0.207
-457.026	-200.000	-0.009	0.110
-456.011	800.000	0.039	0.168
-454.997	146.410	0.066	-0.089
-453.982	229.970	0.036	-0.060
-452.968	-200.000	-0.002	-0.082
-451.953	800.000	0.029	-0.086
-450.938	165.080	-0.149	-0.211
-449.924	52.500	-0.104	0.099
-448.909	333.478	-0.226	-0.438
-447.895	471.978	-0.056	0.127
-446.880	-93.439	0.038	-0.011
-445.865	-88.168	-0.196	0.059
-444.851	800.000	-0.010	0.038
-443.836	-144.109	-0.288	0.027
-442.822	668.533	0.060	0.155
-441.807	510.979	-0.044	-0.103
-440.792	-118.457	-0.119	-0.021
-439.778	-200.000	0.022	0.267
-438.763	30.429	-0.254	0.218
-437.749	800.000	-0.040	0.161
-436.734	-75.575	-0.079	-0.028
-435.719	166.259	0.169	0.240
-434.705	800.000	-0.099	0.390
-433.690	-21.013	-0.325	-0.199
-432.676	39.136	0.155	-0.139
-431.661	-23.867	0.271	-0.163
-430.646	-200.000	-0.013	0.119
-429.632	-4.232	0.446	0.310
-428.617	-200.000	-0.003	-0.159
-427.603	800.000	0.035	0.110
-426.588	-119.796	0.031	0.005
-425.573	492.595	0.031	0.071
-424.559	-119.124	-0.127	0.022
-423.544	-128.333	-0.198	0.028
-422.530	623.343	0.108	-0.274
-421.515	476.630	0.034	-0.077
-420.500	25.700	0.253	0.211
-419.486	-121.429	-0.294	-0.049
-418.471	-16.980	-0.393	-0.249
-417.457	-139.176	-0.239	0.026
-416.442	309.072	0.099	0.185
-415.428	-54.289	0.209	0.095
-414.413	94.746	-0.126	-0.143
-413.398	-29.139	-0.307	-0.176
-412.384	226.519	-0.151	0.245
-411.369	-200.000	0.087	0.468
-410.355	-188.600	0.176	-0.002
-409.340	800.000	-0.061	-0.179
-408.325	369.269	0.052	-0.106
-407.311	431.867	-0.170	0.370
-406.296	-47.882	-0.287	0.139
-405.282	33.315	0.201	-0.174
-404.267	154.003	0.205	0.282
-403.252	70.123	0.436	0.451
-402.238	800.000	0.080	-0.329
-401.223	422.253	0.097	0.209
-400.209	-102.997	-0.344	0.082
-399.194	-200.000	-0.027	0.178
-398.179	-65.863	0.027	-0.011
-397.165	111.801	0.348	-0.421
-396.150	114.447	-0.179	-0.219
-395.136	27.096	-0.317	-0.266
-394.121	-136.392	-0.241	-0.028
-393.106	-88.830	-0.144	0.043
-392.092	329.658	-0.079	0.152
-391.077	42.227	-0.193	-0.175
-390.063	-162.613	-0.056	-0.003
-389.048	39.899	0.115	-0.104
-388.033	437.581	0.085	0.186
-387.019	-22.900	0.253	0.152
-386.004	-171.684	-0.021	-0.001
-384.990	-53.670	0.211	0.096
-383.975	-20.769	0.372	-0.228
-382.960	-38.245	0.149	0.079
-381.946	-176.229	0.075	0.002
-380.931	-200.000	0.063	0.445
-379.917	56.807	0.330	0.321
-378.902	-12.592	0.171	0.112
-377.888	800.000	0.063	0.199
-376.873	85.738	0.154	0.169
-375.858	-200.000	0.100	0.000
-374.844	800.000	0.017	-0.061
-373.829	30.654	0.294	-0.252
-372.815	-79.499	0.142	-0.048
-371.800	-173.703	0.063	-0.002
-370.785	-77.720	0.230	0.080
-369.771	-61.940	-0.171	-0.072
-368.756	126.348	-0.102	-0.129
-367.742	324.334	-0.092	-0.176
-366.727	252.298	0.023	0.039
-365.712	130.760	-0.049	-0.063
-364.698	-11.997	0.264	0.173
-363.683	177.916	0.058	0.085
-362.669	13.125	0.154	0.119
-361.654	-188.885	-0.609	-0.007
-360.639	-27.012	-0.373	-0.217
-359.625	800.000	-0.086	-0.318
-358.610	-46.233	0.077	0.038
-357.596	404.855	-0.129	-0.272
-356.581	-107.920	0.117	-0.025
-355.566	-15.533	0.198	-0.126
-354.552	-135.662	0.277	-0.033
-353.537	-200.000	0.014	-0.091
-352.523	-98.517	0.063	-0.016
-351.508	-200.000	0.048	-0.406
-350.493	-41.923	-0.236	-0.121
-349.479	247.767	0.149	0.252
-348.464	-96.967	-0.099	0.026
-347.450	620.079	-0.079	0.199
-346.435	800.000	0.047	0.190
-345.420	800.000	0.077	-0.279
-344.406	54.543	-0.066	0.064
-343.391	-63.888	0.090	-0.037
-342.377	-170.247	0.215	-0.008
-341.362	-129.778	-0.117	0.016
-340.348	-45.463	-0.219	0.108
-339.333	-123.908	0.160	0.025
-338.318	-42.206	0.137	-0.070
-337.304	-200.000	0.008	-0.069
-336.289	-154.132	0.167	-0.011
-335.275	147.072	-0.189	0.254
-334.260	-170.366	-0.267	0.009
-333.245	-200.000	-0.046	0.241
-332.231	-23.710	-0.068	0.040
-331.216	136.539	-0.152	-0.198
-330.202	-77.524	-0.143	-0.050
-329.187	33.312	0.078	0.067
-328.172	206.937	0.093	-0.144
-327.158	19.097	-0.165	-0.132
-326.143	-103.552	0.430	-0.101
-325.129	158.164	0.069	0.096
-324.114	452.195	0.019	0.041
-323.099	-77.474	-0.077	-0.027
-322.085	-45.291	0.194	-0.096
-321.070	-200.000	-0.039	0.173
-320.056	404.919	-0.133	0.280
-319.041	-82.680	0.069	0.022
-318.026	-38.002	0.241	0.128
-317.012	-154.404	-0.265	0.018
-315.997	26.913	-0.108	0.090
-314.983	800.000	-0.055	-0.160
-313.968	47.945	-0.106	0.099
-312.953	-63.230	0.225	0.092
-311.939	800.000	0.085	-0.253
-310.924	-39.604	-0.149	0.078
-309.910	-89.648	-0.155	0.045
-308.895	472.938	-0.042	0.094
-307.880	800.000	0.026	-0.108
-306.866	-173.886	0.163	0.005
-305.851	800.000	-0.063	-0.186
-304.837	-114.154	0.218	0.042
-303.822	-23.432	-0.314	0.188
-302.807	-72.759	-0.329	0.121
-301.793	800.000	0.027	-0.081
-300.778	320.326	-0.241	0.456
-299.764	47.888	0.142	-0.133
-298.749	14.862	0.457	-0.357
-297.735	-158.058	0.375	0.022
-296.720	-0.657	0.162	0.114
-295.705	-69.811	0.150	-0.057
-294.691	-200.000	-0.003	-0.229
-293.676	-161.953	-0.245	-0.012
-292.662	203.280	0.082	-0.126
-291.647	-200.000	0.019	0.137
-290.632	-149.314	0.091	-0.007
-289.618	-29.403	0.061	0.035
-288.603	-86.814	-0.222	-0.068
-287.589	-87.353	0.157	-0.048
-286.574	-152.958	0.238	-0.017
-285.559	-108.140	0.255	0.055
-284.545	-81.512	0.263	-0.086
-283.530	718.661	-0.139	0.367
-282.516	-117.270	-0.045	0.008
-281.501	-143.901	-0.188	-0.018
-280.486	-62.708	-0.234	0.097
-279.472	-200.000	0.004	0.023
-278.457	33.095	0.144	0.124
-277.443	-76.695	-0.132	-0.046
-276.428	-90.548	0.160	0.046
-275.413	-69.610	0.175	0.067
-274.399	357.158	0.067	0.132
-273.384	138.474	-0.249	-0.326
-272.370	-200.000	-0.013	0.245
-271.355	800.000	0.072	0.226
-270.340	-200.000	0.013	0.444
-269.326	43.338	0.273	-0.249
-268.311	-151.319	0.173	0.013
-267.297	139.355	-0.116	0.152
-266.282	625.043	0.143	-0.360
-265.267	-200.000	-0.040	-0.275
-264.253	479.355	-0.144	0.324
-263.238	214.736	-0.135	-0.214
-262.224	-136.899	-0.182	-0.021
-261.209	230.459	-0.103	-0.168
-260.195	-20.003	0.025	0.015
-259.180	-200.000	0.045	-0.279
-258.165	-90.415	0.020	0.006
-257.151	257.721	-0.210	0.360
-256.136	-178.499	0.404	-0.009
-255.122	-200.000	-0.001	-0.333
-254.107	442.571	0.131	-0.286
-253.092	-200.000	-0.029	0.163
-252.078	729.778	-0.081	0.215
-251.063	-120.232	-0.354	-0.060
-250.049	-20.453	-0.306	-0.187
-249.034	800.000	0.059	0.243
-248.019	-78.418	-0.544	0.186
-247.005	21.111	-0.050	-0.040
-245.990	-25.370	0.287	-0.169
-244.976	162.822	-0.195	0.273
-243.961	-176.687	-0.191	-0.005
-242.946	-118.319	-0.196	0.035
-241.932	-200.000	-0.036	-0.309
-240.917	-51.283	0.416	-0.194
-239.903	-200.000	0.019	-0.341
-238.888	-83.589	0.132	0.042
-237.873	328.407	0.091	0.175
-236.859	32.728	-0.212	0.182
-235.844	81.319	-0.216	0.233
-234.830	540.152	-0.099	0.234
-233.815	553.602	0.042	0.100
-232.800	71.360	0.112	-0.116
-231.786	259.828	0.121	-0.209
-230.771	96.966	-0.286	0.326
-229.757	136.616	-0.119	0.154
-228.742	-200.000	-0.016	-0.111
-227.727	-155.378	-0.246	-0.016
-226.713	51.294	-0.076	-0.072
-225.698	-200.000	0.071	-0.548
-224.684	-72.268	0.371	-0.137
-223.669	-200.000	-0.011	0.162
-222.655	-103.371	0.079	0.019
-221.640	-200.000	-0.021	-0.231
-220.625	800.000	0.062	-0.239
-219.611	-122.820	-0.539	0.087
-218.596	561.269	-0.070	0.167
-217.582	-200.000	0.030	-0.197
-216.567	371.630	0.067	0.135
-215.552	144.000	-0.121	-0.161
-214.538	-65.218	0.229	0.092
-213.523	204.887	0.095	-0.146
-212.509	17.690	-0.206	-0.163
-211.494	17.128	0.150	-0.118
-210.479	-152.834	0.194	0.014
-209.465	-200.000	0.007	0.206
-208.450	-48.403	0.396	0.190
-207.436	-69.813	-0.129	0.049
-206.421	-200.000	0.100	0.506
-205.406	231.862	-0.077	0.125
-204.392	-60.741	0.258	-0.109
-203.377	-166.705	0.201	-0.008
-202.363	-88.782	-0.224	-0.066
-201.348	-46.919	0.240	-0.117
-200.333	-200.000	-0.024	0.163
-199.319	-200.000	0.060	-0.301
-198.304	176.608	-0.063	0.091
-197.290	-84.736	0.396	-0.124
-196.275	-25.316	-0.298	-0.175
-195.260	195.496	-0.036	-0.054
-194.246	-114.465	0.374	0.071
-193.231	-53.739	0.247	-0.112
-192.217	-174.778	-0.191	0.005
-191.202	-3.333	0.280	-0.194
-190.187	-55.899	-0.052	0.023
-189.173	9.960	0.123	-0.093
-188.158	37.432	-0.203	-0.179
-187.144	-124.337	-0.047	0.007
-186.129	-35.694	0.150	0.081
-185.114	174.906	-0.083	-0.120
-184.100	-200.000	-0.050	0.326
-183.085	-119.546	0.196	-0.034
-182.071	-90.313	-0.076	0.022
-181.056	-79.472	0.128	0.043
-180.042	2.068	0.202	0.145
-179.027	-74.081	-0.271	-0.098
-178.012	356.068	0.185	0.366
-176.998	404.731	-0.064	0.134
-175.983	-200.000	0.034	0.168
-174.969	-13.848	0.234	-0.150
-173.954	-42.721	0.222	-0.112
-172.939	167.620	0.142	-0.200
-171.925	-76.662	0.133	-0.046
-170.910	-35.601	-0.544	-0.293
-169.896	17.059	-0.041	0.033
-168.881	-200.000	0.012	0.260
-167.866	463.131	-0.133	-0.294
-166.852	637.658	-0.031	0.079
-165.837	243.407	-0.040	-0.066
-164.823	660.736	-0.137	0.350
-163.808	34.949	0.134	0.116
-162.793	-99.393	-0.165	-0.041
-161.779	-68.017	0.180	-0.070
-160.764	8.804	0.227	0.170
-159.750	-137.217	-0.139	-0.016
-158.735	-200.000	0.060	0.266
-157.720	-50.870	0.045	-0.021
-156.706	-116.390	-0.273	0.050
-155.691	-23.157	-0.087	-0.052
-154.677	800.000	0.058	-0.159
-153.662	300.405	-0.046	-0.084
-152.647	0.429	-0.284	-0.201
-151.633	800.000	-0.012	0.053
-150.618	800.000	0.061	0.203
-149.604	19.771	0.094	0.075
-148.589	-143.816	-0.532	0.050
-147.574	0.856	-0.188	-0.134
-146.560	-200.000	0.017	-0.197
-145.545	800.000	0.064	-0.276
-144.531	-60.304	-0.280	-0.118
-143.516	-68.481	-0.216	0.083
-142.502	-14.777	-0.280	-0.178
-141.487	55.097	-0.143	-0.137
-140.472	-65.897	0.204	0.081
-139.458	-54.206	0.309	0.139
-138.443	-200.000	-0.011	-0.341
-137.429	163.839	0.089	-0.124
-136.414	-38.107	0.220	0.116
-135.399	247.453	-0.072	0.121
-134.385	-30.416	0.329	-0.185
-133.370	-200.000	-0.002	-0.215
-132.356	-91.948	0.332	-0.093
-131.341	28.055	-0.189	0.158
-130.326	-200.000	0.004	-0.279
-129.312	480.760	-0.093	-0.209
-128.297	-106.771	-0.227	0.050
-127.283	-106.907	0.242	-0.053
-126.268	-60.012	0.273	-0.116
-125.253	358.402	-0.172	-0.340
-124.239	-91.461	-0.120	0.034
-123.224	800.000	-0.100	-0.373
-122.210	-99.537	0.145	0.036
-121.195	-104.703	0.141	0.032
-120.180	161.623	-0.151	0.210
-119.166	138.546	0.195	0.254
-118.151	-200.000	-0.011	0.094
-117.137	-200.000	0.005	-0.165
-116.122	107.095	0.078	0.091
-115.107	-71.575	0.176	-0.065
-114.093	106.897	-0.239	0.281
-113.078	-153.052	-0.120	0.008
-112.064	90.191	-0.186	-0.205
-111.049	-131.375	0.476	0.062
-110.034	100.269	-0.117	-0.134
-109.020	-200.000	0.004	0.240
-108.005	-49.265	-0.255	0.121
-106.991	800.000	-0.080	-0.245
-105.976	-22.060	0.227	-0.137
-104.962	-200.000	-0.020	-0.132
-103.947	302.405	-0.130	-0.237
-102.932	800.000	0.131	-0.430
-101.918	-68.876	-0.235	0.090
-100.903	-200.000	0.021	0.251
-99.889	134.461	0.241	0.310
-98.874	-107.973	0.229	-0.049
-97.859	-20.619	0.202	-0.123
-96.845	-196.427	0.155	0.001
-95.830	-200.000	0.004	-0.179
-94.816	-133.434	-0.214	-0.027
-93.801	-64.088	0.204	0.083
-92.786	770.299	0.089	0.240
-91.772	800.000	0.026	0.073
-90.757	800.000	0.023	-0.068
-89.743	-45.371	0.140	0.069
-88.728	-50.192	0.122	0.057
-87.713	287.979	0.134	0.240
-86.699	800.000	0.045	-0.183
-85.684	-95.963	-0.260	-0.069
-84.670	-191.029	0.072	-0.001
-83.655	800.000	-0.053	-0.176
-82.640	-140.742	-0.199	0.020
-81.626	13.685	-0.072	0.055
-80.611	-98.521	-0.103	0.026
-79.597	-116.179	0.240	-0.044
-78.582	26.584	-0.329	-0.272
-77.567	102.788	0.292	-0.338
-76.553	800.000	0.045	0.186
-75.538	800.000	0.035	-0.100
-74.524	-41.075	0.382	-0.195
-73.509	-152.656	-0.294	-0.021
-72.494	-32.994	0.225	0.124
-71.480	205.441	-0.085	0.130
-70.465	-200.000	-0.027	0.129
-69.451	35.642	0.039	-0.034
-68.436	-73.715	0.187	0.067
-67.422	32.279	0.319	0.272
-66.407	-100.325	-0.059	-0.015
-65.392	54.360	-0.014	0.014
-64.378	-200.000	0.003	-0.104
-63.363	800.000	0.060	0.171
-62.349	-200.000	0.001	0.319
-61.334	209.397	-0.712	-1.102
-60.319	-10.271	0.417	0.273
-59.305	326.596	-0.409	-0.774
-58.290	163.543	0.781	1.085
-57.276	263.950	0.852	1.464
-56.261	-200.000	96.068	547.867
-55.246	503.162	1420.396	3244.599
-54.232	144.887	2645.653	3494.227
-53.217	110.504	2223.012	2639.629
-52.203	46.018	1662.690	1520.207
-51.188	37.899	1394.079	1223.874
-50.173	34.753	1350.460	1166.371
-49.159	54.687	1398.565	1332.224
-48.144	57.952	1416.702	1369.741
-47.130	38.232	1371.944	1206.310
-46.115	34.621	1354.641	1168.983
-45.100	34.467	1349.398	1163.476
-44.086	34.552	1346.769	1161.681
-43.071	34.461	1344.713	1159.304
-42.057	34.265	1342.999	1156.590
-41.042	34.402	1340.948	1155.610
-40.027	34.373	1339.645	1154.267
-39.013	34.384	1337.714	1152.624
-37.998	34.351	1335.726	1150.664
-36.984	34.484	1333.908	1149.853
-35.969	34.537	1332.313	1148.757
-34.954	34.592	1330.158	1147.182
-33.940	34.588	1329.243	1146.324
-32.925	34.549	1328.351	1145.271
-31.911	34.738	1326.328	1144.617
-30.896	34.644	1325.224	1143.054
-29.881	34.687	1323.309	1141.619
-28.867	34.593	1322.554	1140.358
-27.852	34.653	1320.525	1138.923
-26.838	34.640	1319.201	1137.656
-25.823	34.622	1318.336	1136.756
-24.809	34.629	1316.622	1135.279
-23.794	34.577	1314.784	1133.336
-22.779	34.549	1314.075	1132.518
-21.765	34.636	1312.327	1131.481
-20.750	34.551	1311.275	1130.024
-19.736	34.484	1309.975	1128.464
-18.721	34.510	1308.458	1127.263
-17.706	34.423	1307.299	1125.707
-16.692	34.397	1306.179	1124.545
-15.677	34.548	1305.132	1124.491
-14.663	34.326	1304.001	1122.162
-13.648	34.331	1302.983	1121.274
-12.633	34.405	1301.760	1120.612
-11.619	34.409	1301.217	1120.125
-10.604	34.401	1300.484	1119.399
-9.590	34.502	1298.880	1118.568
-8.575	34.330	1298.329	1117.038
-7.560	34.387	1297.186	1116.348
-6.546	34.372	1296.658	1115.759
-5.531	34.410	1295.568	1115.002
-4.517	34.571	1294.481	1114.961
-3.502	34.560	1293.601	1114.094
-2.487	34.407	1293.060	1112.689
-1.473	34.508	1288.810	1109.580
-0.458	33.033	1273.310	1087.708
0.556	27.937	1254.042	1045.245
1.571	23.656	1259.007	1024.641
2.586	22.006	1273.786	1026.934
3.600	20.996	1262.042	1011.519
4.615	15.342	1186.518	919.976
5.629	5.752	1106.094	808.294
6.644	1.025	1083.687	767.929
7.659	0.512	1081.230	763.525
8.673	0.464	1080.437	762.657
9.688	0.581	1078.758	761.996
10.702	0.747	1077.216	761.675
11.717	6.148	1084.631	794.192
12.731	14.751	1095.752	846.008
13.746	17.804	1098.446	863.488
14.761	17.292	1097.593	860.151
15.775	16.359	1095.876	854.016
16.790	15.427	1093.763	847.586
17.804	14.783	1091.805	842.749
18.819	14.301	1091.079	839.682
19.834	14.185	1089.391	837.724
20.848	13.723	1089.330	835.276
21.863	13.571	1088.089	833.488
22.877	13.484	1087.537	832.555
23.892	13.415	1086.567	831.393
24.907	13.416	1086.284	831.108
25.921	13.450	1085.147	830.332
26.936	13.387	1084.718	829.615
27.950	13.560	1083.294	829.319
28.965	13.439	1082.371	827.934
29.980	13.670	1080.550	827.623
30.994	13.663	1079.557	826.754
32.009	13.580	1079.021	825.855
33.023	13.561	1077.949	824.868
34.038	13.572	1076.841	824.001
35.053	13.528	1076.476	823.429
36.067	13.544	1074.972	822.288
37.082	13.701	1073.643	821.973
38.096	13.598	1073.749	821.475
39.111	13.527	1072.529	820.116
40.126	13.562	1071.508	819.436
41.140	13.371	1070.545	817.680
42.155	13.383	1069.502	816.873
43.169	13.383	1067.926	815.595
44.184	13.481	1066.882	815.211
45.199	13.463	1065.616	814.084
46.213	13.483	1064.826	813.502
47.228	13.465	1063.892	812.631
48.242	13.282	1062.961	810.952
49.257	13.474	1061.485	810.695
50.271	13.403	1061.031	809.928
51.286	13.539	1059.780	809.567
52.301	13.560	1058.684	808.759
53.315	13.526	1057.600	807.694
54.330	13.385	1056.925	806.417
55.344	13.429	1055.582	805.536
56.359	13.530	1054.947	805.473
57.374	13.380	1054.465	804.303
58.388	13.251	1053.593	802.939
59.403	13.399	1052.139	802.478
60.417	13.525	1051.097	802.225
61.432	13.276	1051.080	800.933
62.447	13.334	1049.882	800.232
63.461	13.380	1049.059	799.754
64.476	13.368	1047.760	798.635
65.490	13.210	1047.720	797.771
66.505	13.328	1046.823	797.588
67.520	13.439	1045.443	797.003
68.534	13.447	1045.098	796.705
69.549	13.296	1044.526	795.473
70.563	13.435	1043.575	795.345
71.578	13.449	1042.787	794.742
72.593	13.365	1041.913	793.605
73.607	13.279	1041.552	792.845
74.622	13.370	1040.924	792.732
75.636	13.326	1040.113	791.836
76.651	13.274	1039.660	791.173
77.666	13.276	1038.813	790.464
78.680	13.362	1038.035	790.214
79.695	13.443	1037.408	790.056
80.709	13.443	1036.603	789.370
81.724	13.426	1036.004	788.767
82.739	13.384	1035.532	788.134
83.753	13.528	1034.488	787.956
84.768	13.620	1033.257	787.388
85.782	13.544	1032.483	786.367
86.797	13.485	1031.664	785.391
87.812	13.473	1030.677	784.515
88.826	13.408	1029.690	783.386
89.841	13.588	1028.297	783.106
90.855	13.526	1027.624	782.232
91.870	13.604	1026.783	781.893
92.884	13.551	1026.445	781.316
93.899	13.659	1025.185	780.798
94.914	13.691	1024.584	780.421
95.928	13.645	1023.878	779.597
96.943	13.663	1022.965	778.917
97.957	13.505	1021.823	777.236
98.972	13.549	1021.144	776.860
99.987	13.604	1020.316	776.415
101.001	13.473	1019.419	775.054
102.016	13.618	1018.071	774.637
103.030	13.661	1017.443	774.291
104.045	13.710	1016.532	773.757
105.060	13.524	1015.855	772.307
106.074	13.572	1014.808	771.665
107.089	13.434	1014.082	770.405
108.103	13.441	1012.886	769.461
109.118	13.605	1011.440	769.055
110.133	13.526	1010.931	768.235
111.147	13.396	1010.351	767.122
112.162	13.591	1009.236	767.111
113.176	13.675	1008.097	766.566
114.191	13.520	1008.130	765.806
115.206	13.540	1006.893	764.890
116.220	13.596	1005.795	764.245
117.235	13.530	1005.098	763.344
118.249	13.553	1004.117	762.638
119.264	13.503	1003.937	762.206
120.279	13.573	1002.903	761.672
121.293	13.428	1002.188	760.396
122.308	13.416	1001.269	759.580
123.322	13.516	999.916	758.941
124.337	13.522	998.506	757.831
125.352	13.566	997.661	757.327
126.366	13.634	996.791	756.910
127.381	13.550	996.095	755.931
128.395	13.581	995.112	755.259
129.410	13.512	994.005	754.037
130.424	13.606	993.253	753.826
131.439	13.737	992.018	753.417
132.454	13.645	991.529	752.562
133.468	13.594	990.838	751.743
134.483	13.692	989.833	751.357
135.497	13.683	988.657	750.358
136.512	13.571	988.091	749.355
137.527	13.637	986.956	748.727
138.541	13.594	987.007	748.503
139.556	13.541	985.729	747.229
140.570	13.695	984.810	747.158
141.585	13.679	984.097	746.482
142.600	13.729	983.357	746.078
143.614	13.710	982.915	745.593
144.629	13.787	981.592	744.869
145.643	13.793	980.751	744.189
146.658	13.723	980.033	743.264
147.673	13.625	978.721	741.768
148.687	13.585	978.388	741.270
149.702	13.624	977.047	740.360
150.716	13.688	976.191	739.932
151.731	13.671	975.359	739.162
152.746	13.705	974.641	738.705
153.760	13.648	974.362	738.173
154.775	13.697	973.823	737.916
155.789	13.826	973.089	737.869
156.804	13.799	972.242	737.040
157.819	13.797	971.652	736.522
158.833	13.762	971.061	735.853
159.848	13.839	970.146	735.437
160.862	13.914	968.856	734.722
161.877	13.827	968.201	733.777
162.892	13.774	967.542	732.979
163.906	13.829	966.226	732.162
164.921	13.705	965.900	731.301
165.935	13.864	964.392	730.794
166.950	13.843	963.627	730.058
167.964	13.836	962.965	729.463
168.979	13.827	962.196	728.777
169.994	13.773	961.495	727.942
171.008	13.859	960.593	727.574
172.023	13.973	959.487	727.169
173.037	13.888	959.243	726.548
174.052	13.918	958.579	726.114
175.067	13.946	957.443	725.309
176.081	13.908	957.143	724.850
177.096	13.994	956.697	724.824
178.110	13.970	955.711	723.910
179.125	13.869	955.413	723.182
180.140	13.845	954.663	722.443
181.154	14.079	953.719	722.684
182.169	13.969	953.884	722.264
183.183	13.974	952.947	721.515
184.198	14.149	952.195	721.641
185.213	14.327	950.600	721.138
186.227	14.227	950.542	720.597
187.242	14.051	950.150	719.476
188.256	14.156	949.569	719.426
189.271	14.197	948.537	718.759
190.286	13.974	948.264	717.522
191.300	13.944	947.475	716.734
192.315	13.966	946.509	716.032
193.329	14.008	945.934	715.718
194.344	13.985	945.519	715.239
195.359	14.068	944.746	714.950
196.373	14.039	944.137	714.300
197.388	14.236	943.294	714.447
198.402	14.321	942.868	714.424
199.417	14.328	942.325	713.981
200.432	14.345	941.519	713.380
201.446	14.409	941.297	713.421
202.461	14.418	940.694	712.938
203.475	14.333	940.415	712.301
204.490	14.415	939.032	711.539
205.504	14.349	938.564	710.841
206.519	14.262	938.535	710.386
207.534	14.482	937.131	710.199
208.548	14.483	936.325	709.530
209.563	14.390	935.793	708.665
210.577	14.450	935.012	708.265
211.592	14.344	934.654	707.485
212.607	14.474	933.907	707.406
213.621	14.409	932.867	706.281
214.636	14.579	932.235	706.460
215.650	14.530	931.665	705.756
216.665	14.498	930.938	705.010
217.680	14.608	929.812	704.560
218.694	14.640	929.083	704.077
219.709	14.666	928.615	703.773
220.723	14.639	928.087	703.195
221.738	14.574	927.077	702.096
222.753	14.673	926.447	701.974
223.767	14.560	926.105	701.176
224.782	14.715	925.323	701.172
225.796	14.671	924.909	700.610
226.811	14.823	924.096	700.570
227.826	14.689	923.730	699.670
228.840	14.624	922.627	698.501
229.855	14.724	921.809	698.239
230.869	14.752	921.095	697.753
231.884	14.671	920.299	696.751
232.899	14.602	919.537	695.823
233.913	14.581	919.396	695.565
234.928	14.750	918.051	695.191
235.942	14.740	917.670	694.801
236.957	14.819	917.250	694.749
237.972	14.703	916.660	693.759
238.986	14.702	915.602	692.891
240.001	14.783	915.447	693.050
241.015	14.818	914.576	692.475
242.030	14.783	914.252	692.021
243.045	14.925	913.411	691.911
244.059	14.898	912.943	691.384
245.074	14.913	912.184	690.812
246.088	14.950	911.405	690.313
247.103	14.897	911.081	689.786
248.117	14.970	910.438	689.542
249.132	14.991	909.764	689.057
250.147	15.096	908.913	688.781
251.161	15.147	908.431	688.567
252.176	15.083	907.591	687.607
253.190	15.203	906.776	687.421
254.205	15.143	906.417	686.841
255.220	15.179	905.489	686.226
256.234	15.241	905.201	686.198
257.249	15.256	904.413	685.602
258.263	15.438	903.408	685.521
259.278	15.227	903.023	684.309
260.293	15.344	902.700	684.480
261.307	15.308	902.132	683.844
262.322	15.334	901.356	683.299
263.336	15.448	900.277	682.885
264.351	15.568	899.424	682.667
265.366	15.438	899.061	681.802
266.380	15.466	898.642	681.539
267.395	15.468	898.331	681.250
268.409	15.529	897.369	680.707
269.424	15.448	896.556	679.703
270.439	15.424	895.778	678.954
271.453	15.403	895.404	678.525
272.468	15.484	894.798	678.334
273.482	15.429	893.848	677.334
274.497	15.600	893.116	677.406
275.512	15.365	893.162	676.435
276.526	15.483	892.316	676.208
277.541	15.554	891.793	676.040
278.555	15.558	891.515	675.784
279.570	15.598	890.591	675.186
280.585	15.567	889.789	674.394
281.599	15.530	889.262	673.784
282.614	15.636	888.440	673.528
283.628	15.705	887.455	672.997
284.643	15.651	886.922	672.319
285.657	15.666	886.407	671.929
286.672	15.704	885.862	671.608
287.687	15.723	885.279	671.183
288.701	15.597	885.009	670.413
289.716	15.766	884.298	670.490
290.730	15.703	883.865	669.851
291.745	15.754	883.175	669.471
292.760	15.770	882.464	668.939
293.774	15.869	881.783	668.757
294.789	15.771	881.375	667.996
295.803	15.769	880.399	667.192
296.818	15.822	879.631	666.762
297.833	15.811	879.000	666.179
298.847	15.909	878.382	666.040
299.862	15.851	878.016	665.474
300.876	15.885	877.319	665.019
301.891	15.927	876.531	664.531
302.906	15.902	876.113	664.055
303.920	15.999	875.772	664.121
304.935	16.078	875.314	664.025
305.949	16.137	874.230	663.378
306.964	16.001	873.658	662.348
307.979	16.024	873.345	662.145
308.993	16.013	873.055	661.824
310.008	16.139	871.965	661.434
311.022	15.863	871.728	660.112
312.037	15.990	871.176	660.135
313.052	15.961	870.495	659.446
314.066	15.983	870.242	659.281
315.081	15.914	869.606	658.472
316.095	16.080	868.742	658.405
317.110	16.145	867.939	657.992
318.125	16.109	867.397	657.384
319.139	16.213	866.953	657.396
320.154	16.205	866.694	657.110
321.168	16.207	865.912	656.466
322.183	16.179	865.006	655.610
323.197	16.114	864.798	655.145
324.212	16.133	864.630	655.032
325.227	16.206	863.404	654.328
326.241	16.210	863.093	654.051
327.256	16.319	862.112	653.671
328.270	16.315	861.773	653.342
329.285	16.280	861.207	652.720
330.300	16.169	860.653	651.814
331.314	16.262	860.028	651.643
332.329	16.346	859.765	651.708
333.343	16.290	859.471	651.212
334.358	16.348	858.691	650.787
335.373	16.399	858.306	650.633
336.387	16.388	857.958	650.271
337.402	16.302	857.774	649.741
338.416	16.467	857.778	650.323
339.431	16.289	857.437	649.323
340.446	16.370	856.373	648.769
341.460	16.635	855.884	649.359
342.475	16.538	855.634	648.739
343.489	16.526	855.482	648.521
344.504	16.552	854.709	647.977
345.519	16.667	854.402	648.127
346.533	16.637	853.522	647.285
347.548	16.581	853.268	646.823
348.562	16.550	852.696	646.214
349.577	16.636	852.121	646.050
350.592	16.608	851.739	645.595
351.606	16.500	851.187	644.707
352.621	16.554	850.313	644.195
353.635	16.725	849.681	644.309
354.650	16.568	849.030	643.161
355.665	16.688	848.225	642.949
356.679	16.636	847.826	642.393
357.694	16.669	847.180	641.974
358.708	16.810	846.126	641.652
359.723	16.589	845.699	640.436
360.738	16.735	845.173	640.532
361.752	16.886	844.314	640.396
362.767	16.891	843.815	639.978
363.781	16.838	843.617	639.572
364.796	16.931	843.231	639.575
365.810	16.764	842.952	638.676
366.825	16.895	842.138	638.495
367.840	17.004	841.643	638.474
368.854	16.871	841.513	637.817
369.869	16.935	841.088	637.680
370.883	16.958	840.522	637.283
371.898	17.060	840.353	637.481
372.913	17.150	839.689	637.260
373.927	16.986	839.099	636.138
374.942	16.906	838.574	635.386
375.956	17.011	838.417	635.603
376.971	17.201	837.526	635.583
377.986	17.093	837.454	635.066
379.000	17.211	836.790	634.949
380.015	17.160	835.981	634.090
381.029	17.122	835.694	633.671
382.044	17.306	834.860	633.668
383.059	17.304	834.375	633.237
384.073	17.219	833.916	632.518
385.088	17.242	833.139	631.959
386.102	17.397	832.545	632.026
387.117	17.184	832.440	631.099
388.132	17.268	831.723	630.812
389.146	17.356	830.851	630.420
390.161	17.352	830.576	630.143
391.175	17.415	830.065	629.932
392.190	17.334	829.629	629.245
393.205	17.357	829.083	628.861
394.219	17.375	828.754	628.623
395.234	17.197	828.741	627.900
396.248	17.287	827.952	627.578
397.263	17.247	827.550	627.069
398.278	17.208	827.381	626.741
399.292	17.359	826.789	626.797
400.307	17.252	826.838	626.382
401.321	17.259	825.978	625.702
402.336	17.334	825.386	625.472
403.350	17.363	824.931	625.181
404.365	17.491	824.194	625.036
405.380	17.554	823.988	625.055
406.394	17.603	823.506	624.814
407.409	17.616	823.197	624.573
408.423	17.657	822.504	624.143
409.438	17.495	822.215	623.275
410.453	17.740	821.658	623.692
411.467	17.616	821.242	622.869
412.482	17.668	820.948	622.781
413.496	17.832	820.310	622.840
414.511	17.782	819.895	622.288
415.526	17.702	819.905	621.947
416.540	17.703	819.092	621.280
417.555	17.735	818.669	621.021
418.569	17.723	818.353	620.682
419.584	17.770	817.661	620.273
420.599	17.817	817.205	620.042
421.613	105.158	1285.814	1446.195
422.628	90.848	1354.080	1446.306
