DTS Sentinel unit serial number:	SN413079Multiplexer serial number:	ORYXHardware model number:	OX4-SRSoftware version number:	ORYX F/W v4.00 Oryx Data Collector v3.7.2.0data status	okinstallation	princeton_trtdifferential loss correction	single-endedforward channel	channel 1reverse channel	N/Adate	2019/09/18time	04:22:35forward acquisition time	60.00reverse acquisition time	0.00gamma	496.2192k internal	0.2339k external	0.2339temperature offset calibration	0.9979default loss term (dB/km)	0.3790temperature slope calibration	1.0000multiplexer offset coefficient	1.0000multiplexer slope coefficient	1.0000fibre end	0.00T internal ref (°C)	23.37T ext. ref 1 (°C)	0.18T ext. ref 2 (°C)	17.57length (m)	temperature (°C)	Stokes	anti-Stokes-747.200	146.486	-0.044	0.059
-746.185	-65.379	-0.179	-0.072
-745.171	76.788	0.227	0.242
-744.156	43.999	-0.125	0.115
-743.142	243.499	0.085	0.142
-742.127	262.757	-0.061	-0.106
-741.112	-100.739	-0.384	0.095
-740.098	-52.921	0.057	0.026
-739.083	-86.631	0.121	-0.037
-738.069	-65.282	-0.292	-0.118
-737.054	-200.000	-0.015	-0.075
-736.039	-57.991	-0.253	-0.111
-735.025	-139.121	0.249	-0.027
-734.010	-200.000	0.014	-0.195
-732.996	113.604	-0.205	0.250
-731.981	427.452	0.157	-0.339
-730.966	-200.000	-0.005	-0.369
-729.952	800.000	0.117	-0.357
-728.937	-61.021	-0.158	-0.067
-727.923	-200.000	-0.017	0.193
-726.908	-200.000	0.058	-0.381
-725.894	-200.000	0.005	-0.434
-724.879	800.000	0.101	0.319
-723.864	69.091	-0.144	0.148
-722.850	-25.040	0.082	-0.049
-721.835	-74.478	-0.328	-0.119
-720.821	57.332	0.137	-0.134
-719.806	40.335	-0.153	-0.138
-718.791	38.115	-0.273	-0.243
-717.777	341.860	0.058	-0.113
-716.762	118.620	-0.372	-0.461
-715.748	588.481	-0.236	-0.581
-714.733	-200.000	0.023	-0.134
-713.718	607.153	0.091	0.227
-712.704	800.000	-0.061	-0.176
-711.689	170.491	-0.167	-0.239
-710.675	321.019	0.066	-0.126
-709.660	10.840	-0.006	0.005
-708.645	-81.010	0.493	-0.164
-707.631	-132.622	0.291	0.037
-706.616	800.000	-0.131	-0.417
-705.602	-103.306	-0.068	0.016
-704.587	-95.890	0.197	-0.052
-703.572	-30.936	0.348	0.197
-702.558	-102.364	0.140	0.034
-701.543	-22.926	0.168	0.102
-700.529	-71.298	0.269	-0.101
-699.514	586.023	0.099	0.244
-698.499	-82.180	0.232	0.076
-697.485	9.591	-0.134	0.102
-696.470	340.492	0.125	-0.245
-695.456	69.242	0.100	-0.103
-694.441	516.606	-0.053	-0.124
-693.426	-200.000	-0.007	-0.226
-692.412	766.508	-0.087	-0.237
-691.397	240.973	0.035	0.058
-690.383	-38.027	0.087	0.046
-689.368	800.000	0.066	-0.190
-688.354	800.000	-0.064	-0.219
-687.339	333.799	0.152	-0.295
-686.324	800.000	0.018	0.071
-685.310	-21.329	-0.195	0.119
-684.295	-200.000	-0.009	-0.163
-683.281	54.801	0.148	0.143
-682.266	-27.102	-0.080	0.047
-681.251	-200.000	0.062	-0.312
-680.237	-111.145	0.222	0.045
-679.222	13.053	-0.151	-0.117
-678.208	-142.029	0.286	-0.028
-677.193	800.000	0.065	-0.185
-676.178	-200.000	-0.012	-0.180
-675.164	-200.000	-0.025	0.149
-674.149	-21.790	0.155	-0.094
-673.135	-87.776	-0.233	0.070
-672.120	8.224	0.205	0.154
-671.105	493.833	-0.063	0.144
-670.091	-200.000	0.004	-0.383
-669.076	-178.738	0.394	-0.009
-668.062	161.148	-0.220	-0.308
-667.047	-200.000	-0.053	0.270
-666.032	74.781	-0.103	-0.109
-665.018	475.597	-0.177	-0.400
-664.003	107.648	-0.212	0.253
-662.989	-120.973	0.122	-0.020
-661.974	-200.000	-0.044	-0.277
-660.959	323.168	-0.127	-0.242
-659.945	-73.837	-0.185	-0.067
-658.930	-19.600	-0.239	0.148
-657.916	800.000	-0.053	0.195
-656.901	-40.321	-0.177	-0.092
-655.886	-31.582	0.124	-0.070
-654.872	129.642	-0.120	0.154
-653.857	800.000	0.050	0.209
-652.843	25.370	0.117	-0.098
-651.828	-54.763	-0.111	-0.050
-650.814	606.106	0.094	0.234
-649.799	-106.450	-0.165	-0.037
-648.784	104.943	-0.222	-0.261
-647.770	254.609	0.161	0.275
-646.755	131.999	-0.144	-0.186
-645.741	30.940	-0.287	0.245
-644.726	-1.816	-0.208	-0.146
-643.711	44.838	-0.076	-0.070
-642.697	-25.255	-0.148	0.088
-641.682	36.704	0.193	-0.170
-640.668	-200.000	-0.015	-0.329
-639.653	-137.876	0.124	-0.014
-638.638	800.000	0.084	-0.247
-637.624	800.000	-0.060	0.200
-636.609	-47.179	-0.150	0.073
-635.595	100.250	-0.055	-0.063
-634.580	261.287	0.095	0.164
-633.565	-118.378	0.462	0.082
-632.551	37.803	0.107	-0.094
-631.536	70.149	0.084	0.086
-630.522	-112.511	0.403	-0.080
-629.507	800.000	0.083	-0.243
-628.492	-57.735	0.053	0.023
-627.478	169.277	0.220	0.314
-626.463	-147.614	0.269	0.023
-625.449	635.315	-0.035	0.090
-624.434	-120.708	0.525	0.089
-623.419	18.760	-0.354	0.283
-622.405	800.000	-0.100	0.310
-621.390	-91.591	-0.316	-0.090
-620.376	-136.840	0.239	-0.027
-619.361	-75.612	-0.310	0.110
-618.346	-103.417	0.244	0.057
-617.332	19.922	-0.138	0.111
-616.317	637.475	-0.020	-0.051
-615.303	348.387	0.083	-0.163
-614.288	800.000	0.077	-0.227
-613.273	177.138	-0.051	0.074
-612.259	279.493	-0.051	0.091
-611.244	627.738	0.105	0.264
-610.230	-174.307	-0.276	-0.008
-609.215	190.295	-0.092	-0.137
-608.201	-76.737	0.304	0.106
-607.186	-91.787	0.088	-0.025
-606.171	-71.877	-0.198	0.074
-605.157	32.104	-0.166	0.143
-604.142	-137.031	0.383	0.044
-603.128	-88.268	-0.349	-0.104
-602.113	-28.744	0.209	-0.120
-601.098	-200.000	-0.024	-0.158
-600.084	-40.627	0.184	-0.095
-599.069	19.105	0.299	-0.239
-598.055	-200.000	0.010	-0.196
-597.040	-200.000	-0.004	0.143
-596.025	-18.534	0.096	-0.060
-595.011	3.422	0.301	-0.219
-593.996	-71.223	0.080	-0.030
-592.982	381.561	0.024	0.049
-591.967	-62.147	0.333	-0.138
-590.952	800.000	-0.054	-0.165
-589.938	800.000	-0.055	-0.165
-588.923	32.488	0.301	0.259
-587.909	-200.000	-0.014	0.366
-586.894	-18.339	-0.334	-0.208
-585.879	73.043	0.162	0.169
-584.865	51.875	-0.159	0.151
-583.850	598.622	0.090	0.223
-582.836	800.000	0.049	-0.155
-581.821	-200.000	-0.030	-0.481
-580.806	800.000	0.034	0.130
-579.792	423.791	0.123	-0.264
-578.777	-183.603	-0.127	-0.002
-577.763	-105.642	-0.383	0.087
-576.748	553.937	0.071	-0.171
-575.733	-103.403	-0.119	0.028
-574.719	-71.277	-0.195	-0.073
-573.704	-142.165	-0.205	-0.020
-572.690	-112.013	-0.095	-0.019
-571.675	-3.607	-0.083	0.057
-570.661	-174.259	-0.081	-0.002
-569.646	-200.000	0.000	0.030
-568.631	-146.133	0.296	0.026
-567.617	552.835	-0.109	0.262
-566.602	7.738	-0.118	0.088
-565.588	800.000	0.010	0.035
-564.573	-24.115	0.194	-0.116
-563.558	31.799	0.250	0.214
-562.544	-77.198	-0.165	-0.057
-561.529	709.028	0.090	-0.238
-560.515	-87.038	-0.255	-0.077
-559.500	-4.019	0.249	-0.172
-558.485	51.017	0.139	0.131
-557.471	-146.491	-0.130	-0.011
-556.456	800.000	-0.077	0.215
-555.442	-54.518	0.301	0.136
-554.427	-174.251	-0.096	-0.003
-553.412	-118.041	-0.268	-0.048
-552.398	-32.000	-0.395	-0.220
-551.383	58.498	-0.156	-0.153
-550.369	-39.708	0.154	-0.080
-549.354	116.900	0.061	0.075
-548.339	-26.194	-0.426	0.249
-547.325	171.798	-0.041	0.059
-546.310	-41.467	0.115	0.059
-545.296	800.000	0.051	-0.197
-544.281	-92.736	0.192	0.054
-543.266	-200.000	-0.005	-0.102
-542.252	519.800	0.056	-0.130
-541.237	63.929	-0.041	0.041
-540.223	-83.103	-0.363	0.116
-539.208	-200.000	-0.072	-0.372
-538.193	-71.501	0.386	0.144
-537.179	112.767	0.099	0.119
-536.164	-109.787	-0.403	0.084
-535.150	-90.625	0.049	0.014
-534.135	-127.972	0.226	-0.032
-533.121	-102.679	-0.459	0.109
-532.106	-162.643	-0.400	-0.020
-531.091	21.527	-0.125	-0.101
-530.077	-19.610	0.217	0.134
-529.062	-68.523	-0.133	-0.051
-528.048	-33.516	0.181	0.100
-527.033	62.215	0.201	0.200
-526.018	-176.174	-0.087	0.002
-525.004	800.000	-0.090	0.334
-523.989	-190.262	0.145	-0.002
-522.975	-200.000	0.022	0.215
-521.960	-13.580	-0.223	0.144
-520.945	-131.892	0.397	-0.052
-519.931	381.619	-0.105	-0.214
-518.916	133.816	-0.097	0.125
-517.902	-200.000	0.050	-0.275
-516.887	-39.863	-0.285	0.148
-515.872	-90.739	-0.223	-0.064
-514.858	-200.000	-0.001	0.204
-513.843	-200.000	-0.023	0.253
-512.829	260.738	0.131	0.225
-511.814	-77.636	0.116	-0.040
-510.799	80.962	-0.076	0.081
-509.785	-28.217	0.137	0.079
-508.770	-200.000	0.037	-0.207
-507.756	800.000	0.074	-0.208
-506.741	-64.781	0.278	-0.112
-505.726	800.000	0.042	-0.179
-504.712	-11.308	0.128	0.084
-503.697	-200.000	0.012	0.136
-502.683	59.918	-0.090	-0.089
-501.668	800.000	-0.086	0.374
-500.653	141.112	0.109	-0.143
-499.639	170.687	0.080	0.114
-498.624	25.556	-0.216	-0.178
-497.610	-98.788	0.039	-0.010
-496.595	-200.000	0.065	0.298
-495.581	-70.095	-0.200	-0.075
-494.566	-18.978	-0.063	0.039
-493.551	631.160	-0.062	-0.156
-492.537	-31.742	-0.052	-0.029
-491.522	587.273	-0.098	-0.239
-490.508	179.843	0.122	0.177
-489.493	-58.547	-0.363	0.157
-488.478	-19.748	-0.117	0.072
-487.464	-200.000	-0.021	0.313
-486.449	-41.610	0.092	0.047
-485.435	800.000	-0.113	0.415
-484.420	-172.017	0.181	0.006
-483.405	-200.000	-0.047	-0.257
-482.391	-13.532	0.208	-0.134
-481.376	-41.388	-0.214	-0.109
-480.362	-157.983	-0.121	-0.007
-479.347	-55.116	0.240	0.107
-478.332	737.380	0.065	0.172
-477.318	353.630	-0.083	-0.164
-476.303	-101.825	0.312	0.075
-475.289	-200.000	-0.019	-0.086
-474.274	54.882	-0.263	-0.252
-473.259	77.095	0.142	-0.149
-472.245	187.684	-0.024	-0.035
-471.230	265.199	0.165	0.285
-470.216	800.000	-0.023	-0.072
-469.201	-200.000	0.004	-0.218
-468.186	116.140	0.363	-0.441
-467.172	-30.063	-0.203	0.115
-466.157	-50.369	0.126	0.059
-465.143	-176.704	0.306	0.008
-464.128	-43.412	-0.306	-0.153
-463.113	-26.864	0.319	-0.185
-462.099	-200.000	-0.022	0.302
-461.084	-35.774	-0.120	-0.064
-460.070	-127.482	-0.464	-0.067
-459.055	70.327	0.203	-0.208
-458.040	427.964	0.084	0.179
-457.026	-200.000	-0.069	-0.485
-456.011	12.454	0.291	0.222
-454.997	-39.252	0.174	-0.090
-453.982	-36.366	-0.260	-0.139
-452.968	-60.147	-0.339	0.143
-451.953	8.806	0.332	0.248
-450.938	30.391	0.355	-0.301
-449.924	-67.568	-0.171	0.067
-448.909	46.356	0.241	-0.221
-447.895	38.324	0.162	-0.143
-446.880	10.465	-0.141	-0.106
-445.865	321.053	0.113	0.214
-444.851	800.000	-0.015	-0.044
-443.836	-200.000	0.023	-0.187
-442.822	-176.724	0.063	-0.002
-441.807	-119.536	-0.177	0.030
-440.792	-200.000	0.050	-0.220
-439.778	-114.148	0.455	-0.087
-438.763	99.587	-0.129	0.148
-437.749	157.807	-0.130	-0.178
-436.734	800.000	-0.111	-0.349
-435.719	-127.440	-0.079	0.011
-434.705	381.525	-0.100	-0.204
-433.690	238.683	0.062	0.103
-432.676	34.903	-0.315	-0.273
-431.661	800.000	0.023	0.092
-430.646	23.451	0.235	0.191
-429.632	-49.429	-0.276	0.130
-428.617	118.061	0.113	0.138
-427.603	-200.000	-0.041	0.194
-426.588	-32.205	0.070	-0.039
-425.573	-84.082	-0.129	-0.040
-424.559	-137.878	0.119	-0.013
-423.544	-200.000	0.055	0.327
-422.530	800.000	0.220	-0.656
-421.515	13.795	0.082	0.063
-420.500	-16.993	-0.344	-0.215
-419.486	70.081	0.107	-0.109
-418.471	290.092	-0.055	-0.098
-417.457	800.000	-0.116	-0.339
-416.442	87.757	0.050	0.055
-415.428	800.000	-0.098	0.295
-414.413	-159.201	0.226	-0.013
-413.398	173.339	-0.110	0.157
-412.384	-100.983	0.422	-0.102
-411.369	58.974	-0.106	0.103
-410.355	-28.581	0.188	-0.107
-409.340	800.000	-0.064	0.199
-408.325	13.584	-0.150	0.116
-407.311	415.450	0.088	-0.186
-406.296	-91.973	-0.186	0.052
-405.282	-46.690	0.060	-0.029
-404.267	73.888	0.116	0.120
-403.252	800.000	-0.078	-0.235
-402.238	-200.000	0.101	0.585
-401.223	-19.424	0.234	-0.144
-400.209	-167.036	-0.142	-0.006
-399.194	-200.000	-0.001	0.142
-398.179	32.260	-0.122	0.104
-397.165	-70.328	-0.271	-0.102
-396.150	-102.203	0.595	0.141
-395.136	-13.924	-0.271	0.173
-394.121	586.834	0.049	0.119
-393.106	-200.000	-0.015	-0.083
-392.092	111.295	-0.059	0.070
-391.077	52.414	-0.108	0.102
-390.063	44.842	0.299	0.272
-389.048	-116.991	-0.174	-0.031
-388.033	-200.000	0.038	0.352
-387.019	-2.966	-0.312	-0.216
-386.004	-39.299	-0.179	-0.093
-384.990	184.649	0.154	-0.225
-383.975	800.000	-0.018	-0.064
-382.960	-66.710	-0.122	-0.048
-381.946	-91.504	-0.101	-0.029
-380.931	-53.046	-0.117	-0.053
-379.917	-200.000	0.013	0.075
-378.902	-4.783	-0.160	-0.109
-377.888	-41.317	-0.222	-0.113
-376.873	-200.000	0.011	0.096
-375.858	43.264	0.211	0.191
-374.844	3.177	-0.092	-0.066
-373.829	717.806	-0.076	0.201
-372.815	-200.000	-0.006	-0.181
-371.800	288.003	0.099	0.178
-370.785	-200.000	-0.029	0.169
-369.771	-200.000	-0.013	-0.097
-368.756	-7.578	0.131	-0.088
-367.742	800.000	0.023	-0.095
-366.727	-27.792	-0.061	-0.035
-365.712	29.217	0.241	0.202
-364.698	-81.066	-0.291	0.095
-363.683	-116.764	-0.149	-0.027
-362.669	-135.898	0.130	0.015
-361.654	-200.000	-0.071	0.374
-360.639	-8.245	0.288	-0.192
-359.625	24.335	0.148	-0.121
-358.610	-200.000	-0.027	-0.198
-357.596	147.955	0.054	-0.072
-356.581	-82.007	0.108	0.035
-355.566	-200.000	0.014	-0.566
-354.552	511.564	-0.119	0.274
-353.537	-135.905	0.124	0.014
-352.523	-120.440	-0.168	0.028
-351.508	-27.329	-0.256	-0.147
-350.493	-147.283	0.223	0.019
-349.479	800.000	0.058	0.244
-348.464	388.587	0.047	-0.097
-347.450	353.952	0.111	-0.217
-346.435	64.961	0.056	-0.055
-345.420	772.625	0.074	-0.198
-344.406	27.985	0.200	-0.167
-343.391	-200.000	0.037	-0.166
-342.377	800.000	-0.115	0.356
-341.362	126.370	0.091	0.114
-340.348	118.585	0.250	-0.305
-339.333	-190.537	0.269	0.003
-338.318	-200.000	-0.007	0.045
-337.304	-6.202	0.123	-0.083
-336.289	-88.820	-0.173	0.051
-335.275	-10.549	-0.058	-0.038
-334.260	-154.689	-0.081	-0.005
-333.245	-56.434	-0.102	0.045
-332.231	11.132	0.058	0.044
-331.216	-200.000	0.048	-0.273
-330.202	-200.000	-0.020	-0.151
-329.187	104.581	0.170	0.197
-328.172	-22.341	0.367	-0.219
-327.158	-200.000	-0.043	0.307
-326.143	800.000	-0.003	0.010
-325.129	800.000	-0.054	0.149
-324.114	115.257	0.240	-0.290
-323.099	203.604	0.056	0.086
-322.085	68.116	0.173	0.175
-321.070	64.261	0.054	0.054
-320.056	-20.600	-0.201	0.122
-319.041	-30.858	-0.167	-0.093
-318.026	-200.000	0.006	0.183
-317.012	-38.360	0.237	0.124
-315.997	151.876	-0.042	-0.056
-314.983	-115.196	0.142	0.026
-313.968	40.438	0.179	-0.159
-312.953	117.010	0.105	-0.127
-311.939	248.024	-0.185	0.308
-310.924	-158.115	-0.201	0.012
-309.910	109.325	-0.154	-0.182
-308.895	104.596	0.117	-0.135
-307.880	71.460	0.044	-0.045
-306.866	35.789	0.059	-0.051
-305.851	76.724	-0.005	-0.005
-304.837	461.520	0.101	-0.222
-303.822	800.000	-0.098	0.324
-302.807	800.000	-0.039	0.151
-301.793	472.739	0.126	0.280
-300.778	-175.505	-0.142	-0.004
-299.764	-47.716	0.122	-0.058
-298.749	-51.684	-0.131	-0.060
-297.735	-200.000	0.003	-0.384
-296.720	80.189	0.056	-0.060
-295.705	-200.000	0.010	-0.093
-294.691	800.000	0.028	0.102
-293.676	-200.000	-0.002	0.143
-292.662	113.129	-0.136	0.162
-291.647	86.988	0.066	0.072
-290.632	-200.000	0.026	0.395
-289.618	-200.000	0.007	0.115
-288.603	32.013	-0.144	0.123
-287.589	-96.481	-0.221	-0.058
-286.574	76.211	0.038	-0.039
-285.559	-42.664	-0.304	0.152
-284.545	-20.927	0.094	-0.056
-283.530	-24.087	-0.101	-0.059
-282.516	-112.260	-0.259	-0.051
-281.501	100.298	0.090	-0.103
-280.486	133.861	-0.052	0.067
-279.472	-33.672	0.092	0.050
-278.457	-62.478	-0.157	-0.064
-277.443	101.058	0.215	-0.246
-276.428	-44.504	0.151	0.074
-275.413	-121.098	0.066	0.011
-274.399	-121.579	-0.226	0.037
-273.384	133.297	-0.056	0.071
-272.370	655.525	0.109	0.275
-271.355	-67.995	0.038	0.015
-270.340	-164.981	0.140	0.006
-269.326	-51.048	0.113	0.052
-268.311	800.000	0.088	0.360
-267.297	-126.503	0.101	-0.015
-266.282	-95.748	-0.336	0.088
-265.267	800.000	0.083	0.297
-264.253	-57.469	-0.420	-0.182
-263.238	800.000	0.030	0.098
-262.224	52.942	-0.230	-0.216
-261.209	98.064	0.056	0.064
-260.195	-41.534	0.363	0.184
-259.180	-93.021	-0.328	-0.090
-258.165	137.416	0.117	0.150
-257.151	-89.621	-0.449	0.130
-256.136	-32.818	0.210	0.115
-255.122	27.560	0.164	-0.136
-254.107	-83.985	0.159	0.050
-253.092	800.000	-0.106	-0.383
-252.078	166.527	0.113	-0.158
-251.063	-48.065	-0.246	-0.117
-250.049	800.000	-0.005	-0.017
-249.034	-200.000	0.038	0.192
-248.019	-83.730	-0.191	-0.060
-247.005	800.000	-0.063	-0.198
-245.990	449.444	-0.162	-0.352
-244.976	-60.839	-0.300	-0.125
-243.961	285.359	0.134	0.237
-242.946	-140.200	0.202	0.021
-241.932	5.498	-0.372	0.270
-240.917	425.611	0.064	0.135
-239.903	800.000	-0.077	-0.235
-238.888	429.101	-0.051	-0.109
-237.873	-89.569	0.334	0.096
-236.859	-35.774	0.147	0.078
-235.844	-200.000	0.017	0.128
-234.830	64.069	0.209	0.207
-233.815	-43.200	-0.152	0.076
-232.800	-108.210	0.122	-0.026
-231.786	-36.794	0.120	0.063
-230.771	-134.631	0.426	-0.051
-229.757	512.899	0.053	0.122
-228.742	44.230	-0.105	-0.095
-227.727	-116.989	0.018	-0.003
-226.713	-103.264	-0.064	-0.015
-225.698	-108.116	0.148	-0.032
-224.684	-200.000	-0.044	-0.199
-223.669	220.183	0.198	0.311
-222.655	-200.000	-0.031	0.135
-221.640	-159.863	-0.109	-0.006
-220.625	800.000	0.020	-0.061
-219.611	31.043	-0.259	-0.219
-218.596	-90.423	-0.552	-0.157
-217.582	497.414	0.151	-0.342
-216.567	-101.353	-0.326	-0.078
-215.552	395.606	-0.165	0.337
-214.538	-200.000	-0.077	0.681
-213.523	800.000	-0.083	-0.338
-212.509	-137.729	0.189	0.021
-211.494	-83.470	0.276	-0.087
-210.479	-200.000	-0.020	0.216
-209.465	-200.000	-0.018	0.422
-208.450	361.164	0.123	0.241
-207.436	-200.000	0.031	-0.191
-206.421	-55.277	-0.288	-0.127
-205.406	-129.914	0.113	0.015
-204.392	800.000	0.083	-0.353
-203.377	800.000	-0.058	0.224
-202.363	-54.406	-0.192	-0.085
-201.348	-200.000	0.010	-0.101
-200.333	-200.000	0.019	0.171
-199.319	314.964	-0.190	0.352
-198.304	87.327	-0.086	-0.093
-197.290	-200.000	-0.081	-0.439
-196.275	-117.541	-0.094	0.017
-195.260	-125.167	-0.151	-0.023
-194.246	800.000	-0.078	-0.216
-193.231	-49.176	0.490	-0.230
-192.217	0.774	-0.542	0.381
-191.202	800.000	0.124	-0.385
-190.187	-26.265	0.366	0.211
-189.173	800.000	-0.094	-0.315
-188.158	138.677	0.130	0.168
-187.144	-163.179	0.134	-0.006
-186.129	-63.132	-0.107	-0.043
-185.114	800.000	-0.075	0.236
-184.100	228.060	-0.149	0.237
-183.085	3.612	-0.210	0.150
-182.071	31.185	0.054	-0.045
-181.056	275.635	-0.067	-0.116
-180.042	-200.000	0.022	-0.190
-179.027	75.478	0.146	-0.151
-178.012	57.699	-0.203	0.195
-176.998	630.297	0.124	-0.307
-175.983	-55.048	0.058	-0.025
-174.969	-200.000	0.024	0.195
-173.954	-26.067	0.377	-0.217
-172.939	-41.305	-0.222	-0.112
-171.925	531.848	-0.079	0.183
-170.910	-141.765	0.281	0.028
-169.896	397.042	-0.092	-0.188
-168.881	800.000	-0.124	-0.504
-167.866	-134.865	-0.018	-0.002
-166.852	-23.274	-0.179	-0.105
-165.837	-200.000	-0.417	-0.002
-164.823	-200.000	-0.008	0.073
-163.808	456.865	-0.091	0.197
-162.793	-33.180	-0.267	0.145
-161.779	-21.237	0.332	-0.199
-160.764	-124.013	0.416	-0.064
-159.750	-15.480	0.213	0.133
-158.735	111.300	-0.270	0.319
-157.720	800.000	-0.054	0.196
-156.706	-5.209	0.275	0.185
-155.691	232.612	0.322	-0.519
-154.677	-49.685	-0.172	0.080
-153.662	-148.787	-0.257	-0.020
-152.647	30.238	-0.185	-0.155
-151.633	-125.960	-0.072	0.011
-150.618	188.676	-0.054	0.080
-149.604	800.000	-0.107	0.334
-148.589	278.126	-0.069	0.121
-147.574	18.579	0.127	-0.099
-146.560	139.911	-0.202	0.261
-145.545	119.595	-0.078	0.095
-144.531	-16.298	-0.014	-0.008
-143.516	37.352	0.226	-0.197
-142.502	-200.000	0.013	0.097
-141.487	-200.000	-0.023	-0.181
-140.472	-133.443	0.317	-0.039
-139.458	-2.750	0.193	0.132
-138.443	-200.000	0.002	0.139
-137.429	82.191	-0.138	-0.146
-136.414	-50.662	0.083	-0.038
-135.399	-86.088	0.387	-0.117
-134.385	-200.000	-0.015	0.305
-133.370	-66.269	0.117	0.046
-132.356	194.299	-0.202	-0.299
-131.341	53.089	0.082	0.077
-130.326	-164.273	0.189	0.009
-129.312	-187.604	-0.209	0.003
-128.297	10.108	0.196	0.146
-127.283	-67.142	0.324	0.125
-126.268	90.322	-0.039	0.043
-125.253	-61.635	0.474	0.195
-124.239	232.338	-0.161	-0.258
-123.224	-9.021	0.304	0.199
-122.210	-200.000	0.019	-0.149
-121.195	-20.759	0.128	0.077
-120.180	54.117	-0.244	-0.230
-119.166	-88.723	-0.075	0.022
-118.151	18.246	0.202	-0.158
-117.137	-192.705	-0.244	-0.002
-116.122	-35.288	-0.058	0.031
-115.107	174.593	0.110	-0.155
-114.093	215.492	0.107	0.166
-113.078	187.803	0.152	0.222
-112.064	800.000	0.070	-0.197
-111.049	-35.292	0.061	0.033
-110.034	109.862	-0.088	-0.103
-109.020	-79.488	0.182	0.060
-108.005	-53.963	0.417	0.186
-106.991	800.000	0.020	-0.055
-105.976	800.000	-0.013	-0.054
-104.962	-52.968	0.205	0.092
-103.947	-49.584	-0.299	0.139
-102.932	-111.526	0.083	-0.016
-101.918	175.241	0.173	-0.244
-100.903	800.000	-0.061	0.174
-99.889	204.088	-0.024	-0.037
-98.874	800.000	0.064	0.195
-97.859	205.763	-0.109	-0.166
-96.845	800.000	0.131	-0.359
-95.830	18.061	-0.099	0.077
-94.816	129.040	0.119	-0.148
-93.801	74.897	0.038	0.039
-92.786	800.000	-0.045	0.132
-91.772	13.565	0.317	0.240
-90.757	559.356	0.193	-0.456
-89.743	-200.000	0.021	-0.096
-88.728	-200.000	0.010	0.070
-87.713	-3.792	0.088	0.059
-86.699	800.000	0.075	0.231
-85.684	-200.000	-0.004	-0.074
-84.670	-110.352	0.468	0.095
-83.655	-136.176	-0.399	-0.046
-82.640	24.727	-0.203	0.164
-81.626	-81.023	-0.102	-0.033
-80.611	218.954	0.089	0.138
-79.597	-65.333	-0.230	-0.091
-78.582	67.132	0.133	0.133
-77.567	207.279	-0.068	-0.103
-76.553	6.169	-0.097	-0.070
-75.538	42.018	-0.273	-0.242
-74.524	-142.672	0.112	0.011
-73.509	210.693	-0.140	0.215
-72.494	108.761	-0.119	-0.139
-71.480	-133.581	0.167	0.020
-70.465	-37.736	-0.216	-0.112
-69.451	-39.711	0.224	-0.114
-68.436	-27.967	-0.228	-0.129
-67.422	-200.000	0.007	0.410
-66.407	87.807	0.205	-0.222
-65.392	-3.470	-0.236	-0.161
-64.378	-22.449	0.302	-0.179
-63.363	-107.045	-0.089	-0.019
-62.349	-33.461	-0.053	0.029
-61.334	186.976	-0.847	-1.232
-60.319	-15.391	0.891	0.556
-59.305	386.326	-0.749	-1.511
-58.290	205.634	0.691	1.049
-57.276	355.958	0.862	1.676
-56.261	-200.000	123.642	638.663
-55.246	410.975	1561.296	3233.414
-54.232	143.210	2721.391	3534.801
-53.217	95.626	2163.086	2409.041
-52.203	35.061	1595.305	1363.840
-51.188	26.441	1339.114	1092.955
-50.173	24.024	1301.810	1048.249
-49.159	50.863	1370.789	1267.473
-48.144	48.540	1382.341	1264.043
-47.130	26.793	1329.836	1087.322
-46.115	23.450	1311.012	1052.086
-45.100	23.346	1305.829	1047.269
-44.086	23.384	1303.111	1045.268
-43.071	23.182	1301.100	1042.424
-42.057	23.174	1299.199	1040.815
-41.042	23.219	1297.524	1039.696
-40.027	23.235	1296.111	1038.616
-39.013	23.290	1294.074	1037.264
-37.998	23.330	1292.266	1036.010
-36.984	23.263	1290.626	1034.263
-35.969	23.316	1288.642	1032.939
-34.954	23.296	1287.197	1031.621
-33.940	23.505	1285.472	1031.416
-32.925	23.335	1285.098	1030.088
-31.911	23.439	1283.216	1029.141
-30.896	23.493	1281.602	1028.120
-29.881	23.424	1280.818	1027.050
-28.867	23.440	1279.201	1025.806
-27.852	23.529	1278.068	1025.369
-26.838	23.480	1276.807	1024.033
-25.823	23.481	1275.060	1022.600
-24.809	23.455	1273.914	1021.488
-23.794	23.433	1272.457	1020.151
-22.779	23.459	1271.005	1019.099
-21.765	23.536	1269.705	1018.459
-20.750	23.461	1268.458	1016.985
-19.736	23.349	1267.403	1015.457
-18.721	23.342	1266.303	1014.499
-17.706	23.390	1265.064	1013.740
-16.692	23.345	1264.223	1012.765
-15.677	23.403	1262.543	1011.712
-14.663	23.321	1261.550	1010.412
-13.648	23.270	1260.879	1009.541
-12.633	23.342	1259.619	1008.901
-11.619	23.381	1258.765	1008.401
-10.604	23.344	1258.189	1007.687
-9.590	23.285	1257.213	1006.529
-8.575	23.339	1255.961	1005.793
-7.560	23.331	1255.288	1005.171
-6.546	23.299	1254.488	1004.308
-5.531	23.276	1253.678	1003.491
-4.517	23.305	1253.062	1003.120
-3.502	23.343	1252.345	1002.721
-2.487	23.312	1251.536	1001.861
-1.473	23.339	1247.242	998.538
-0.458	21.848	1232.050	978.026
0.556	16.983	1216.765	942.463
1.571	13.431	1225.009	928.864
2.586	12.863	1239.925	936.862
3.600	12.855	1228.160	927.843
4.615	9.530	1155.855	855.507
5.629	3.256	1084.692	771.403
6.644	0.331	1068.002	745.026
7.659	0.111	1065.932	742.428
8.673	0.089	1065.105	741.682
9.688	0.179	1063.862	741.191
10.702	0.278	1061.834	740.200
11.717	4.275	1065.730	762.528
12.731	11.240	1075.432	803.854
13.746	15.812	1080.466	830.151
14.761	16.741	1081.616	835.549
15.775	15.842	1080.482	830.166
16.790	14.991	1078.323	824.244
17.804	14.343	1076.620	819.678
18.819	14.018	1075.561	817.205
19.834	13.800	1074.818	815.494
20.848	13.632	1073.885	813.893
21.863	13.381	1072.655	811.657
22.877	13.285	1071.844	810.502
23.892	13.188	1071.236	809.490
24.907	13.148	1070.700	808.818
25.921	13.204	1069.994	808.488
26.936	13.270	1068.640	807.717
27.950	13.325	1067.603	807.132
28.965	13.270	1066.857	806.226
29.980	13.355	1065.317	805.408
30.994	13.380	1064.148	804.571
32.009	13.448	1063.548	804.378
33.023	13.443	1062.525	803.508
34.038	13.310	1061.686	802.157
35.053	13.314	1060.618	801.297
36.067	13.336	1059.961	800.840
37.082	13.360	1058.983	800.146
38.096	13.289	1058.487	799.355
39.111	13.361	1057.443	798.843
40.126	13.306	1056.279	797.628
41.140	13.300	1054.860	796.457
42.155	13.142	1054.013	794.990
43.169	13.203	1052.795	794.293
44.184	13.146	1051.664	793.096
45.199	13.195	1050.943	792.715
46.213	13.122	1049.916	791.522
47.228	13.192	1049.135	791.199
48.242	13.308	1047.347	790.332
49.257	13.157	1046.979	789.268
50.271	13.327	1045.757	789.084
51.286	13.307	1044.820	788.215
52.301	13.335	1043.872	787.561
53.315	13.174	1043.020	786.082
54.330	13.295	1041.683	785.580
55.344	13.300	1040.727	784.816
56.359	13.249	1039.976	783.935
57.374	13.168	1039.458	783.094
58.388	13.113	1038.488	782.033
59.403	13.218	1037.328	781.588
60.417	13.096	1036.866	780.590
61.432	13.186	1035.594	779.990
62.447	13.197	1034.947	779.488
63.461	13.138	1034.156	778.543
64.476	13.179	1033.316	778.034
65.490	13.081	1032.777	777.098
66.505	13.160	1031.838	776.695
67.520	13.186	1030.759	775.936
68.534	13.262	1030.297	775.879
69.549	13.200	1029.621	775.009
70.563	13.095	1029.224	774.150
71.578	13.066	1028.198	773.172
72.593	13.122	1027.512	772.851
73.607	13.063	1026.883	772.031
74.622	12.948	1026.212	770.923
75.636	13.148	1025.096	770.950
76.651	13.074	1024.546	770.122
77.666	13.161	1024.269	770.250
78.680	13.153	1023.179	769.327
79.695	13.045	1022.652	768.360
80.709	13.081	1022.029	767.991
81.724	13.124	1021.642	767.833
82.739	13.196	1020.800	767.466
83.753	13.217	1019.660	766.638
84.768	13.365	1018.740	766.565
85.782	13.407	1017.519	765.772
86.797	13.355	1017.227	765.244
87.812	13.262	1016.319	764.063
88.826	13.169	1015.455	762.918
89.841	13.307	1014.596	762.840
90.855	13.458	1013.106	762.351
91.870	13.418	1012.754	761.831
92.884	13.494	1011.743	761.355
93.899	13.519	1010.864	760.742
94.914	13.419	1010.191	759.705
95.928	13.449	1009.606	759.338
96.943	13.329	1008.658	758.010
97.957	13.547	1007.859	758.336
98.972	13.337	1006.928	756.608
99.987	13.545	1005.834	756.671
101.001	13.442	1004.699	755.279
102.016	13.401	1004.367	754.776
103.030	13.522	1003.067	754.286
104.045	13.400	1002.810	753.467
105.060	13.303	1002.323	752.597
106.074	13.261	1001.147	751.454
107.089	13.285	1000.187	750.775
108.103	13.136	999.655	749.633
109.118	13.392	998.016	749.497
110.133	13.291	997.275	748.420
111.147	13.274	996.587	747.760
112.162	13.321	995.643	747.195
113.176	13.413	994.348	746.577
114.191	13.346	994.247	746.130
115.206	13.386	993.288	745.525
116.220	13.239	993.003	744.582
117.235	13.325	991.816	744.013
118.249	13.346	990.906	743.361
119.264	13.341	990.155	742.707
120.279	13.332	989.102	741.813
121.293	13.259	988.198	740.741
122.308	13.278	987.329	740.109
123.322	13.349	986.658	739.861
124.337	13.287	985.563	738.697
125.352	13.245	984.335	737.521
126.366	13.319	983.390	737.078
127.381	13.148	982.878	735.870
128.395	13.314	981.724	735.676
129.410	13.366	980.670	735.054
130.424	13.261	980.007	734.028
131.439	13.217	979.556	733.429
132.454	13.358	978.094	732.895
133.468	13.438	977.395	732.660
134.483	13.359	976.371	731.477
135.497	13.374	975.558	730.871
136.512	13.371	974.826	730.245
137.527	13.175	974.508	729.075
138.541	13.390	973.372	729.109
139.556	13.368	973.030	728.690
140.570	13.376	972.002	727.893
141.585	13.476	970.891	727.436
142.600	13.525	970.166	727.041
143.614	13.471	969.686	726.383
144.629	13.604	968.692	726.156
145.643	13.513	967.727	724.968
146.658	13.513	966.169	723.738
147.673	13.463	965.858	723.221
148.687	13.372	965.161	722.241
149.702	13.384	964.068	721.410
150.716	13.470	963.522	721.313
151.731	13.599	962.133	720.771
152.746	13.297	962.559	719.710
153.760	13.567	961.311	719.887
154.775	13.533	960.772	719.274
155.789	13.469	960.553	718.767
156.804	13.647	959.112	718.397
157.819	13.645	958.913	718.176
158.833	13.611	958.520	717.672
159.848	13.758	957.211	717.261
160.862	13.616	956.625	716.148
161.877	13.602	955.759	715.373
162.892	13.603	954.668	714.500
163.906	13.648	953.455	713.721
164.921	13.430	953.027	712.398
165.935	13.632	951.905	712.367
166.950	13.819	950.683	712.191
167.964	13.777	950.087	711.503
168.979	13.606	949.541	710.297
169.994	13.720	948.380	709.851
171.008	13.656	948.393	709.524
172.023	13.676	947.500	708.880
173.037	13.583	946.588	707.739
174.052	13.783	945.801	707.940
175.067	13.679	945.293	707.055
176.081	13.673	944.657	706.491
177.096	13.770	943.878	706.259
178.110	13.733	943.352	705.647
179.125	13.685	942.891	705.035
180.140	13.615	942.531	704.405
181.154	13.795	942.131	704.808
182.169	13.836	941.753	704.638
183.183	13.837	940.420	703.583
184.198	13.906	939.557	703.165
185.213	13.932	939.038	702.824
186.227	13.928	938.367	702.244
187.242	14.093	937.484	702.216
188.256	13.987	937.215	701.505
189.271	13.918	936.148	700.355
190.286	13.741	935.623	699.156
191.300	13.906	934.681	699.085
192.315	13.561	934.544	697.465
193.329	13.753	933.818	697.670
194.344	13.905	933.131	697.736
195.359	13.885	932.663	697.238
196.373	13.925	932.155	696.964
197.388	13.871	931.838	696.439
198.402	14.160	930.861	696.858
199.417	14.188	929.963	696.241
200.432	14.071	929.526	695.366
201.446	14.041	929.739	695.336
202.461	14.122	929.020	695.077
203.475	14.245	928.015	694.776
204.490	14.222	927.273	694.064
205.504	14.213	926.457	693.354
206.519	14.095	926.078	692.516
207.534	14.032	925.245	691.571
208.548	14.181	924.600	691.645
209.563	14.188	923.836	691.043
210.577	14.148	923.474	690.546
211.592	14.216	922.723	690.204
212.607	14.318	921.989	690.018
213.621	14.266	921.074	689.054
214.636	14.216	920.326	688.228
215.650	14.307	919.843	688.182
216.665	14.456	918.817	687.970
217.680	14.434	918.185	687.343
218.694	14.367	917.674	686.626
219.709	14.394	917.091	686.241
220.723	14.278	916.554	685.299
221.738	14.418	915.590	685.094
222.753	14.476	914.696	684.602
223.767	14.562	914.083	684.435
224.782	14.410	914.292	683.906
225.796	14.537	913.375	683.681
226.811	14.634	912.462	683.334
227.826	14.488	912.000	682.331
228.840	14.521	911.203	681.810
229.855	14.424	910.356	680.720
230.869	14.453	909.556	680.180
231.884	14.355	909.139	679.409
232.899	14.406	908.461	679.047
233.913	14.405	907.440	678.221
234.928	14.412	906.714	677.648
235.942	14.610	906.263	678.053
236.957	14.430	905.656	676.807
237.972	14.479	904.888	676.375
238.986	14.692	904.243	676.698
240.001	14.637	903.808	676.088
241.015	14.579	903.439	675.518
242.030	14.642	902.711	675.165
243.045	14.589	902.137	674.465
244.059	14.705	901.565	674.445
245.074	14.605	900.750	673.372
246.088	14.704	899.947	673.113
247.103	14.772	899.287	672.834
248.117	14.948	898.821	673.134
249.132	14.873	898.297	672.379
250.147	14.920	897.779	672.121
251.161	14.989	896.906	671.686
252.176	15.021	895.995	671.073
253.190	14.888	895.568	670.158
254.205	14.943	895.202	670.048
255.220	15.012	894.464	669.712
256.234	15.053	893.924	669.410
257.249	15.055	892.890	668.585
258.263	15.120	892.017	668.132
259.278	14.930	891.745	667.112
260.293	15.064	890.949	666.990
261.307	15.228	890.365	667.146
262.322	15.046	890.037	666.117
263.336	15.037	889.225	665.418
264.351	15.168	888.229	665.134
265.366	15.333	887.225	664.977
266.380	15.231	887.047	664.379
267.395	15.228	886.093	663.594
268.409	15.218	885.923	663.367
269.424	15.195	884.918	662.467
270.439	15.295	884.156	662.234
271.453	15.234	883.463	661.413
272.468	15.087	883.257	660.622
273.482	15.102	882.516	660.067
274.497	15.295	881.814	660.244
275.512	15.261	881.424	659.758
276.526	15.272	880.853	659.319
277.541	15.228	880.902	659.121
278.555	15.340	880.004	658.834
279.570	15.334	878.952	657.961
280.585	15.433	878.011	657.588
281.599	15.418	877.192	656.857
282.614	15.386	876.837	656.411
283.628	15.384	876.238	655.897
284.643	15.391	876.020	655.700
285.657	15.520	874.967	655.357
286.672	15.363	874.787	654.551
287.687	15.471	874.012	654.334
288.701	15.550	873.104	653.906
289.716	15.508	872.387	653.146
290.730	15.727	871.888	653.566
291.745	15.606	871.319	652.612
292.760	15.572	871.178	652.317
293.774	15.618	870.189	651.699
294.789	15.674	869.809	651.573
295.803	15.544	869.154	650.520
296.818	15.642	868.138	650.081
297.833	15.567	867.506	649.262
298.847	15.665	866.968	649.180
299.862	15.606	866.508	648.550
300.876	15.742	865.496	648.258
301.891	15.675	865.284	647.785
302.906	15.701	864.677	647.373
303.920	15.867	863.909	647.382
304.935	15.825	863.631	646.954
305.949	15.935	862.638	646.575
306.964	15.872	862.246	645.982
307.979	16.052	861.888	646.347
308.993	15.853	861.403	645.162
310.008	15.817	861.030	644.688
311.022	15.957	860.309	644.626
312.037	15.799	859.700	643.508
313.052	15.711	859.136	642.693
314.066	15.874	858.487	642.775
315.081	15.747	858.329	642.114
316.095	15.941	857.082	641.865
317.110	15.892	856.646	641.295
318.125	16.032	856.174	641.417
319.139	15.800	856.054	640.389
320.154	15.836	855.576	640.111
321.168	15.887	854.913	639.750
322.183	16.019	854.210	639.670
323.197	16.048	853.583	639.254
324.212	15.985	853.043	638.554
325.227	16.212	852.171	638.702
326.241	16.003	851.792	637.571
327.256	16.012	851.194	637.102
328.270	16.050	850.563	636.719
329.285	16.158	850.146	636.757
330.300	16.097	849.591	636.055
331.314	16.055	849.003	635.400
332.329	16.073	848.542	635.065
333.343	16.251	848.016	635.288
334.358	16.085	847.880	634.505
335.373	16.130	847.450	634.295
336.387	16.129	846.903	633.825
337.402	16.247	847.012	634.294
338.416	16.383	846.498	634.365
339.431	16.198	846.110	633.323
340.446	16.200	845.412	632.753
341.460	16.359	844.783	632.819
342.475	16.394	844.761	632.880
343.489	16.303	844.164	632.036
344.504	16.485	843.537	632.189
345.519	16.437	843.116	631.641
346.533	16.387	842.643	631.043
347.548	16.530	841.918	630.977
348.562	16.414	841.780	630.385
349.577	16.327	841.272	629.626
350.592	16.322	840.575	629.030
351.606	16.395	839.172	628.194
352.621	16.460	838.728	628.047
353.635	16.628	838.201	628.221
354.650	16.447	837.840	627.225
355.665	16.550	836.997	626.921
356.679	16.518	836.710	626.532
357.694	16.376	836.056	625.459
358.708	16.514	835.421	625.439
359.723	16.571	834.765	625.103
360.738	16.735	833.959	625.052
361.752	16.678	833.229	624.236
362.767	16.711	832.996	624.131
363.781	16.509	832.634	623.058
364.796	16.672	832.019	623.145
365.810	16.831	831.643	623.393
366.825	16.842	831.234	623.071
367.840	16.822	830.454	622.356
368.854	16.866	830.391	622.416
369.869	16.959	829.837	622.288
370.883	16.825	829.145	621.223
371.898	16.888	829.057	621.332
372.913	16.793	828.781	620.723
373.927	16.903	827.928	620.432
374.942	16.900	827.598	620.120
375.956	17.096	826.873	620.236
376.971	17.003	826.705	619.714
377.986	17.075	826.287	619.608
379.000	16.948	826.092	618.945
380.015	17.138	825.061	618.811
381.029	17.108	824.551	618.264
382.044	17.123	823.984	617.839
383.059	17.147	823.555	617.552
384.073	17.203	823.048	617.317
385.088	17.056	822.462	616.291
386.102	17.003	822.125	615.792
387.117	16.989	821.638	615.323
388.132	17.123	820.736	615.078
389.146	17.027	820.395	614.419
390.161	17.214	819.760	614.564
391.175	17.179	819.298	614.038
392.190	17.158	818.703	613.461
393.205	17.103	818.672	613.185
394.219	16.990	818.429	612.544
395.234	17.132	817.881	612.589
396.248	17.168	816.929	611.954
397.263	17.108	816.966	611.708
398.278	17.045	816.394	611.001
399.292	17.167	815.636	610.820
400.307	17.099	815.880	610.702
401.321	17.066	815.463	610.218
402.336	17.298	814.092	609.969
403.350	17.350	814.324	610.277
404.365	17.204	813.692	609.224
405.380	17.287	813.358	609.219
406.394	17.300	812.300	608.418
407.409	17.343	811.916	608.230
408.423	17.503	811.870	608.713
409.438	17.377	811.405	607.863
410.453	17.510	811.285	608.193
411.467	17.355	810.861	607.270
412.482	17.476	809.955	606.968
413.496	17.517	809.916	607.032
414.511	17.492	809.340	606.455
415.526	17.678	808.750	606.624
416.540	17.556	808.756	606.140
417.555	17.538	808.054	605.496
418.569	17.529	807.701	605.147
419.584	17.541	807.480	604.967
420.599	17.706	806.865	605.041
421.613	113.796	1298.963	1487.773
422.628	98.286	1370.607	1487.848
