DTS Sentinel unit serial number:	SN413079Multiplexer serial number:	ORYXHardware model number:	OX4-SRSoftware version number:	ORYX F/W v4.00 Oryx Data Collector v3.7.2.0data status	okinstallation	princeton_trtdifferential loss correction	single-endedforward channel	channel 1reverse channel	N/Adate	2019/09/14time	07:26:36forward acquisition time	60.00reverse acquisition time	0.00gamma	496.2192k internal	0.2336k external	0.2336temperature offset calibration	1.0077default loss term (dB/km)	0.3790temperature slope calibration	1.0000multiplexer offset coefficient	1.0000multiplexer slope coefficient	1.0000fibre end	0.00T internal ref (°C)	26.19T ext. ref 1 (°C)	3.44T ext. ref 2 (°C)	21.08length (m)	temperature (°C)	Stokes	anti-Stokes-747.200	800.000	-0.125	-0.351
-746.185	43.114	-0.238	0.218
-745.171	67.319	-0.110	-0.112
-744.156	-142.999	-0.298	0.029
-743.142	3.119	0.273	0.199
-742.127	-3.577	-0.221	0.154
-741.112	-200.000	-0.023	-0.123
-740.098	-184.546	-0.076	0.001
-739.083	188.520	0.127	0.191
-738.069	82.969	-0.178	0.194
-737.054	-95.657	0.287	0.077
-736.039	-149.041	-0.267	0.022
-735.025	-65.844	0.209	0.084
-734.010	-118.357	-0.381	0.068
-732.996	-106.313	0.382	-0.086
-731.981	-47.464	-0.089	-0.044
-730.966	-107.735	0.209	-0.046
-729.952	-28.427	-0.316	0.183
-728.937	800.000	0.022	-0.067
-727.923	132.733	-0.166	0.215
-726.908	800.000	-0.075	-0.232
-725.894	155.309	0.095	-0.132
-724.879	-93.816	-0.132	-0.036
-723.864	-200.000	-0.009	-0.084
-722.850	-200.000	-0.025	-0.144
-721.835	-89.152	-0.169	0.050
-720.821	30.333	0.058	-0.050
-719.806	-68.280	-0.106	0.041
-718.791	164.181	0.108	0.153
-717.777	155.144	-0.215	-0.296
-716.762	-200.000	0.006	0.125
-715.748	118.769	0.067	-0.083
-714.733	-200.000	-0.001	0.036
-713.718	-81.484	0.200	0.066
-712.704	-163.186	-0.168	-0.008
-711.689	-132.676	-0.122	-0.016
-710.675	-93.527	-0.423	-0.117
-709.660	-200.000	-0.034	-0.337
-708.645	-200.000	0.033	-0.232
-707.631	-53.683	-0.447	-0.205
-706.616	31.232	0.154	-0.132
-705.602	-121.769	0.217	-0.036
-704.587	-135.025	-0.272	-0.033
-703.572	252.119	0.055	-0.093
-702.558	23.102	-0.296	0.243
-701.543	-6.677	0.012	0.008
-700.529	77.719	-0.053	0.056
-699.514	-200.000	-0.015	0.071
-698.499	-200.000	0.028	0.274
-697.485	39.562	-0.130	0.117
-696.470	302.850	-0.084	0.155
-695.456	-200.000	-0.004	-0.185
-694.441	-10.926	0.123	0.081
-693.426	-96.057	-0.256	-0.068
-692.412	800.000	-0.006	-0.018
-691.397	-200.000	-0.021	-0.102
-690.383	-18.400	0.100	0.062
-689.368	-49.816	0.327	-0.156
-688.354	655.725	0.089	0.228
-687.339	-104.870	0.231	-0.053
-686.324	188.546	0.118	-0.177
-685.310	-200.000	-0.018	0.212
-684.295	-94.807	0.190	-0.052
-683.281	97.525	0.119	-0.137
-682.266	-3.099	-0.416	-0.290
-681.251	-70.297	0.151	-0.057
-680.237	0.413	0.225	-0.161
-679.222	-200.000	0.003	-0.243
-678.208	-84.200	-0.332	0.105
-677.193	569.467	0.115	-0.280
-676.178	-164.246	-0.375	0.017
-675.164	-31.665	-0.188	-0.106
-674.149	212.700	-0.190	-0.301
-673.135	-120.410	0.185	0.032
-672.120	-200.000	-0.011	0.240
-671.105	103.855	-0.160	0.188
-670.091	-154.567	-0.139	0.009
-669.076	789.362	0.031	0.087
-668.062	133.948	0.180	-0.233
-667.047	17.624	-0.190	-0.151
-666.032	800.000	-0.077	-0.284
-665.018	197.704	-0.101	-0.154
-664.003	-136.633	-0.231	-0.027
-662.989	-66.744	0.183	0.072
-661.974	-200.000	-0.008	0.247
-660.959	-200.000	0.008	0.138
-659.945	-200.000	-0.011	-0.090
-658.930	-40.964	-0.091	-0.047
-657.916	145.929	0.095	0.128
-656.901	-58.522	-0.066	-0.029
-655.886	406.710	0.077	0.164
-654.872	279.521	-0.113	-0.202
-653.857	-200.000	-0.037	-0.172
-652.843	-109.505	0.335	0.071
-651.828	800.000	-0.015	-0.044
-650.814	149.405	0.063	0.086
-649.799	81.747	0.062	0.067
-648.784	-75.324	-0.563	0.201
-647.770	-200.000	-0.034	-0.238
-646.755	167.632	0.045	-0.063
-645.741	800.000	-0.026	0.103
-644.726	-80.644	-0.089	-0.030
-643.711	709.029	0.114	0.301
-642.697	708.061	0.098	-0.259
-641.682	-74.475	0.134	0.048
-640.668	-119.631	0.034	0.006
-639.653	-91.615	-0.125	-0.036
-638.638	96.103	-0.165	-0.188
-637.624	-123.315	-0.312	0.050
-636.609	-58.950	-0.122	0.053
-635.595	-200.000	-0.015	-0.352
-634.580	-200.000	0.007	-0.240
-633.565	452.048	-0.045	0.100
-632.551	-96.766	0.190	0.050
-631.536	800.000	-0.052	0.190
-630.522	-79.273	0.180	-0.061
-629.507	-200.000	0.001	0.360
-628.492	343.894	-0.060	-0.118
-627.478	-89.789	0.115	-0.034
-626.463	-11.546	0.117	0.077
-625.449	-200.000	0.024	0.120
-624.434	6.833	-0.187	0.139
-623.419	-173.809	0.223	0.007
-622.405	800.000	-0.035	0.098
-621.390	-200.000	0.005	-0.210
-620.376	242.540	0.194	-0.325
-619.361	144.265	-0.118	-0.157
-618.346	-200.000	-0.111	-0.503
-617.332	-121.750	-0.302	0.050
-616.317	38.501	-0.075	-0.067
-615.303	800.000	0.079	0.220
-614.288	67.031	0.076	0.077
-613.273	178.516	0.064	0.093
-612.259	353.400	0.086	0.170
-611.244	800.000	-0.111	0.309
-610.230	-39.793	-0.251	0.131
-609.215	-200.000	0.097	0.431
-608.201	-10.191	-0.214	0.142
-607.186	-106.200	-0.407	0.091
-606.171	31.524	0.178	-0.153
-605.157	56.163	0.094	0.092
-604.142	800.000	-0.066	-0.201
-603.128	-200.000	0.004	-0.204
-602.113	45.767	0.311	0.287
-601.098	-70.422	-0.106	0.040
-600.084	161.979	-0.029	0.040
-599.069	731.358	-0.103	-0.276
-598.055	-13.883	-0.271	-0.175
-597.040	201.690	0.156	0.240
-596.025	-83.152	0.237	0.076
-595.011	800.000	0.005	0.019
-593.996	536.310	0.093	0.220
-592.982	-200.000	0.017	0.170
-591.967	-200.000	-0.018	0.241
-590.952	5.082	0.224	-0.164
-589.938	19.167	-0.255	0.204
-588.923	800.000	-0.082	0.230
-587.909	-63.525	-0.251	0.103
-586.894	253.210	0.032	0.055
-585.879	-200.000	0.033	-0.348
-584.865	-200.000	0.291	0.001
-583.850	-200.000	-0.012	-0.138
-582.836	250.068	-0.096	0.163
-581.821	-200.000	-0.011	-0.183
-580.806	100.921	0.073	-0.085
-579.792	-200.000	-0.024	-0.177
-578.777	800.000	-0.038	0.112
-577.763	-46.347	-0.042	-0.021
-576.748	-28.757	0.204	0.117
-575.733	200.542	-0.119	0.183
-574.719	800.000	-0.039	0.135
-573.704	284.084	0.091	-0.164
-572.690	-144.738	-0.260	0.024
-571.675	-121.851	-0.363	-0.060
-570.661	800.000	-0.036	-0.133
-569.646	697.211	0.057	-0.148
-568.631	-200.000	0.019	0.253
-567.617	800.000	-0.051	0.153
-566.602	5.602	-0.223	0.164
-565.588	210.339	-0.169	-0.265
-564.573	-104.237	0.461	-0.107
-563.558	-155.860	-0.443	-0.028
-562.544	-9.677	0.085	-0.056
-561.529	-65.226	0.129	-0.052
-560.515	-130.591	-0.187	-0.025
-559.500	800.000	-0.080	-0.281
-558.485	-43.356	0.025	-0.012
-557.471	241.146	0.104	0.174
-556.456	-72.749	-0.098	-0.036
-555.442	-29.699	0.198	-0.113
-554.427	741.803	-0.031	-0.084
-553.412	-129.866	-0.102	-0.014
-552.398	621.698	0.033	-0.084
-551.383	-200.000	-0.003	-0.108
-550.369	-128.323	-0.282	0.040
-549.354	-200.000	-0.057	0.280
-548.339	-75.058	-0.348	0.124
-547.325	-81.495	-0.363	0.119
-546.310	-74.411	0.271	-0.098
-545.296	-198.252	-0.172	-0.001
-544.281	-200.000	0.002	-0.124
-543.266	-200.000	-0.019	-0.089
-542.252	-71.117	0.227	-0.085
-541.237	87.736	0.070	0.078
-540.223	7.953	0.204	0.153
-539.208	-200.000	-0.032	-0.269
-538.193	-50.703	-0.382	-0.179
-537.179	-200.000	0.011	-0.204
-536.164	465.493	-0.085	0.190
-535.150	592.762	0.096	-0.237
-534.135	-200.000	-0.054	-0.281
-533.121	227.080	0.094	-0.151
-532.106	121.391	-0.079	0.098
-531.091	23.384	-0.252	-0.207
-530.077	-126.719	0.076	-0.011
-529.062	-189.263	0.110	-0.001
-528.048	800.000	-0.073	-0.213
-527.033	51.625	0.027	0.026
-526.018	-200.000	0.015	0.211
-525.004	-81.034	0.243	0.080
-523.989	53.391	0.121	-0.116
-522.975	-176.972	-0.185	0.005
-521.960	426.814	-0.093	-0.199
-520.945	66.126	-0.225	-0.227
-519.931	-55.599	-0.192	-0.086
-518.916	82.568	0.236	-0.255
-517.902	-15.488	-0.144	-0.092
-516.887	89.127	0.132	0.146
-515.872	5.050	0.116	-0.085
-514.858	14.883	-0.069	-0.053
-513.843	4.791	-0.143	0.104
-512.829	156.545	0.120	0.164
-511.814	64.314	0.127	0.128
-510.799	126.598	0.105	0.132
-509.785	-200.000	-0.069	-0.417
-508.770	149.287	-0.102	0.138
-507.756	-5.413	-0.206	-0.141
-506.741	59.728	0.199	-0.196
-505.726	-200.000	-0.017	-0.198
-504.712	-12.374	0.073	0.047
-503.697	68.739	-0.205	-0.209
-502.683	800.000	0.065	-0.272
-501.668	298.237	-0.102	0.186
-500.653	-63.770	-0.281	-0.115
-499.639	386.272	0.042	-0.086
-498.624	-189.960	0.593	-0.007
-497.610	-200.000	-0.028	-0.329
-496.595	-129.920	0.115	0.016
-495.581	161.929	0.046	0.065
-494.566	-200.000	0.051	-0.482
-493.551	117.642	-0.212	-0.260
-492.537	119.707	0.078	-0.096
-491.522	34.206	0.111	-0.096
-490.508	235.451	-0.107	0.176
-489.493	-200.000	0.065	-0.302
-488.478	-105.497	0.043	-0.010
-487.464	-37.066	0.248	-0.132
-486.449	29.233	0.172	0.145
-485.435	800.000	-0.086	0.243
-484.420	-200.000	-0.022	-0.100
-483.405	-200.000	0.017	-0.220
-482.391	9.786	-0.087	0.065
-481.376	85.099	0.156	-0.170
-480.362	-200.000	0.020	0.182
-479.347	268.299	-0.078	0.136
-478.332	-26.560	-0.252	0.147
-477.318	-65.992	-0.107	-0.042
-476.303	105.040	-0.280	-0.329
-475.289	-200.000	0.009	0.052
-474.274	-183.385	-0.289	-0.005
-473.259	258.437	0.173	-0.296
-472.245	701.866	-0.123	-0.323
-471.230	-105.346	0.337	0.076
-470.216	81.171	0.157	0.168
-469.201	-200.000	0.008	-0.236
-468.186	205.358	-0.053	0.082
-467.172	-7.239	0.190	0.128
-466.157	800.000	-0.016	0.050
-465.143	-137.358	0.202	-0.023
-464.128	68.124	-0.188	0.191
-463.113	800.000	0.060	0.258
-462.099	-200.000	0.011	0.190
-461.084	-0.690	-0.296	-0.209
-460.070	-200.000	-0.005	0.068
-459.055	-200.000	0.085	0.395
-458.040	47.926	0.156	0.144
-457.026	97.726	0.011	-0.013
-456.011	-11.097	0.135	-0.089
-454.997	-109.134	0.071	0.015
-453.982	-16.724	0.136	0.085
-452.968	-128.952	-0.077	0.011
-451.953	315.784	0.149	0.278
-450.938	52.261	-0.173	0.163
-449.924	-37.498	0.251	-0.133
-448.909	-34.984	-0.201	-0.109
-447.895	-81.759	-0.205	-0.067
-446.880	800.000	-0.032	0.109
-445.865	30.589	0.327	0.278
-444.851	-39.322	0.275	0.143
-443.836	800.000	-0.100	-0.369
-442.822	425.988	0.045	-0.097
-441.807	-10.776	0.170	0.112
-440.792	59.194	0.253	0.247
-439.778	-117.953	0.382	0.068
-438.763	-199.327	-0.071	-0.000
-437.749	434.924	-0.127	-0.274
-436.734	-97.053	0.346	0.090
-435.719	263.656	0.061	0.106
-434.705	283.958	0.133	0.236
-433.690	102.650	0.089	-0.104
-432.676	52.366	0.128	-0.121
-431.661	-89.438	0.242	0.071
-430.646	-114.084	-0.453	0.087
-429.632	800.000	-0.045	0.144
-428.617	181.964	-0.156	0.227
-427.603	-34.792	-0.298	-0.161
-426.588	-128.380	0.122	0.017
-425.573	-8.050	0.069	0.046
-424.559	-190.087	-0.248	-0.003
-423.544	-44.480	-0.048	-0.024
-422.530	-200.000	0.003	-0.129
-421.515	-200.000	-0.046	-0.260
-420.500	-80.769	-0.113	0.037
-419.486	-200.000	0.006	-0.125
-418.471	-100.041	0.088	0.022
-417.457	-33.991	0.199	-0.109
-416.442	-138.629	-0.032	-0.003
-415.428	-200.000	-0.050	0.230
-414.413	-132.804	0.357	0.045
-413.398	-37.755	-0.141	-0.074
-412.384	4.195	0.190	0.138
-411.369	-59.326	-0.051	0.022
-410.355	250.418	0.139	-0.234
-409.340	239.880	0.101	-0.167
-408.325	71.557	-0.107	0.110
-407.311	-87.545	0.117	0.035
-406.296	38.033	-0.139	-0.122
-405.282	-29.491	0.427	0.242
-404.267	-200.000	0.021	0.114
-403.252	-200.000	-0.017	-0.338
-402.238	-200.000	0.030	-0.138
-401.223	227.739	0.175	-0.283
-400.209	-105.293	-0.219	-0.049
-399.194	323.805	0.168	-0.317
-398.179	800.000	-0.068	0.240
-397.165	476.631	-0.069	-0.155
-396.150	-200.000	0.023	-0.125
-395.136	-13.988	-0.189	0.121
-394.121	-104.869	-0.289	-0.066
-393.106	44.038	0.072	0.066
-392.092	-62.654	-0.079	0.032
-391.077	48.172	0.187	0.173
-390.063	-127.234	0.304	-0.044
-389.048	-43.125	-0.181	-0.091
-388.033	-87.179	-0.513	-0.154
-387.019	493.683	0.045	0.102
-386.004	408.258	0.104	-0.217
-384.990	16.380	-0.096	-0.075
-383.975	-94.471	0.157	0.042
-382.960	-110.953	0.128	0.026
-381.946	175.837	-0.244	0.350
-380.931	800.000	0.086	0.247
-379.917	-65.269	-0.095	0.038
-378.902	398.715	-0.028	-0.059
-377.888	98.804	0.186	-0.213
-376.873	-37.128	-0.188	-0.099
-375.858	-200.000	-0.006	0.132
-374.844	68.003	0.066	-0.066
-373.829	-24.748	0.088	-0.052
-372.815	243.164	0.164	-0.272
-371.800	-5.097	-0.113	-0.077
-370.785	-64.541	-0.314	-0.126
-369.771	-200.000	-0.009	-0.226
-368.756	800.000	-0.035	0.130
-367.742	-1.627	0.160	-0.112
-366.727	800.000	-0.130	0.455
-365.712	-84.954	0.121	-0.038
-364.698	-200.000	0.058	0.367
-363.683	-200.000	-0.026	0.321
-362.669	-200.000	-0.022	0.104
-361.654	-136.002	-0.232	0.027
-360.639	-90.274	-0.234	0.067
-359.625	800.000	-0.111	0.403
-358.610	-200.000	0.018	0.160
-357.596	-160.493	0.161	0.009
-356.581	-200.000	-0.057	0.249
-355.566	230.025	-0.145	0.234
-354.552	-42.331	-0.161	0.081
-353.537	757.325	0.061	-0.164
-352.523	-91.285	-0.149	-0.042
-351.508	-200.000	0.008	-0.112
-350.493	-29.116	-0.187	0.106
-349.479	-154.441	-0.073	0.005
-348.464	800.000	0.081	-0.293
-347.450	612.191	-0.036	0.089
-346.435	-76.566	0.155	-0.054
-345.420	-109.686	0.131	-0.027
-344.406	550.593	0.007	0.016
-343.391	-162.348	-0.424	-0.021
-342.377	-200.000	-0.042	0.291
-341.362	93.739	0.029	0.033
-340.348	6.026	0.106	-0.077
-339.333	-200.000	-0.007	0.352
-338.318	-147.323	-0.218	0.018
-337.304	142.825	0.187	0.245
-336.289	222.233	-0.038	0.060
-335.275	-51.578	0.200	0.092
-334.260	-200.000	-0.008	0.209
-333.245	573.264	-0.087	-0.209
-332.231	-200.000	0.018	-0.086
-331.216	-7.207	-0.127	0.085
-330.202	139.594	0.153	0.199
-329.187	-12.294	-0.282	0.182
-328.172	-98.322	-0.518	-0.131
-327.158	176.198	-0.067	-0.097
-326.143	-200.000	-0.029	-0.210
-325.129	164.707	0.171	0.238
-324.114	348.438	0.208	-0.405
-323.099	-123.040	0.476	0.076
-322.085	-200.000	0.073	-0.354
-321.070	800.000	-0.120	-0.366
-320.056	-41.829	-0.197	-0.100
-319.041	-15.540	0.144	0.090
-318.026	-116.387	-0.274	-0.050
-317.012	-87.224	0.104	-0.031
-315.997	-92.804	0.362	-0.100
-314.983	202.931	-0.114	-0.175
-313.968	90.229	0.224	0.247
-312.953	26.639	-0.228	0.188
-311.939	-28.887	-0.114	0.065
-310.924	-117.154	-0.164	0.029
-309.910	627.161	0.106	0.264
-308.895	-155.898	0.353	-0.022
-307.880	-35.615	-0.233	0.125
-306.866	629.607	-0.081	-0.203
-305.851	-49.729	-0.083	-0.039
-304.837	66.063	0.077	-0.078
-303.822	2.073	-0.198	-0.141
-302.807	-72.211	-0.318	-0.116
-301.793	-72.029	-0.116	-0.042
-300.778	-52.207	0.238	-0.109
-299.764	248.642	-0.110	0.184
-298.749	-110.027	0.105	-0.022
-297.735	198.246	-0.111	0.168
-296.720	-61.061	0.259	0.108
-295.705	-166.522	0.035	-0.001
-294.691	-200.000	-0.059	0.277
-293.676	51.447	0.132	0.124
-292.662	-200.000	0.029	-0.304
-291.647	295.479	0.102	-0.185
-290.632	396.419	0.097	-0.199
-289.618	-176.799	0.271	-0.007
-288.603	-43.167	0.153	-0.076
-287.589	-64.797	-0.023	0.009
-286.574	-47.376	-0.094	-0.045
-285.559	-18.982	-0.283	0.174
-284.545	-89.374	-0.256	-0.074
-283.530	270.663	0.057	0.098
-282.516	-200.000	-0.041	-0.256
-281.501	800.000	0.051	0.181
-280.486	140.117	-0.109	0.141
-279.472	-51.620	0.014	0.006
-278.457	126.706	0.142	0.177
-277.443	94.131	-0.032	-0.036
-276.428	800.000	0.074	-0.203
-275.413	-200.000	-0.064	0.344
-274.399	147.648	0.135	0.179
-273.384	-78.390	0.376	0.127
-272.370	800.000	-0.037	-0.140
-271.355	97.344	0.126	0.143
-270.340	-91.643	0.162	-0.045
-269.326	-50.548	-0.353	0.164
-268.311	107.782	-0.130	-0.152
-267.297	-6.315	0.117	-0.079
-266.282	-115.308	-0.241	0.045
-265.267	299.566	-0.206	-0.373
-264.253	317.184	0.080	-0.149
-263.238	202.783	-0.198	-0.302
-262.224	721.159	0.051	-0.134
-261.209	-81.599	0.222	-0.072
-260.195	-128.323	0.086	0.012
-259.180	79.115	0.252	0.266
-258.165	-116.103	-0.409	0.075
-257.151	99.179	0.197	0.225
-256.136	214.695	0.131	0.205
-255.122	-123.312	0.156	-0.025
-254.107	-8.892	-0.169	-0.112
-253.092	104.162	0.062	0.072
-252.078	-36.597	0.178	-0.094
-251.063	34.370	0.097	0.083
-250.049	37.115	-0.089	-0.078
-249.034	-132.288	0.225	0.029
-248.019	-55.065	-0.120	0.053
-247.005	481.500	0.099	0.222
-245.990	93.352	0.118	-0.131
-244.976	122.757	-0.126	-0.156
-243.961	-76.036	-0.239	0.083
-242.946	-123.439	0.142	0.022
-241.932	-88.336	0.150	0.044
-240.917	237.635	-0.112	0.183
-239.903	552.733	0.148	-0.350
-238.888	561.004	0.038	0.089
-237.873	800.000	0.060	0.253
-236.859	123.111	-0.046	-0.056
-235.844	191.262	0.237	0.351
-234.830	-122.078	-0.088	0.014
-233.815	800.000	0.017	-0.071
-232.800	-97.908	0.316	0.080
-231.786	800.000	0.069	0.271
-230.771	106.562	0.132	-0.154
-229.757	259.589	0.183	-0.312
-228.742	-14.518	0.168	-0.106
-227.727	333.609	-0.079	0.150
-226.713	-174.276	-0.280	-0.008
-225.698	212.190	0.158	0.246
-224.684	235.422	-0.223	-0.362
-223.669	-181.145	0.080	0.002
-222.655	161.626	-0.149	-0.205
-221.640	155.300	0.072	-0.097
-220.625	-64.632	0.190	0.076
-219.611	24.578	0.117	0.095
-218.596	-53.398	-0.440	0.198
-217.582	-143.442	0.740	0.070
-216.567	297.730	0.175	-0.317
-215.552	-61.955	0.233	-0.096
-214.538	-173.411	0.101	0.003
-213.523	800.000	0.116	-0.483
-212.509	203.799	-0.088	0.133
-211.494	-200.000	-0.015	0.078
-210.479	38.263	0.208	0.182
-209.465	-138.729	-0.121	0.013
-208.450	386.030	0.125	0.254
-207.436	-29.628	-0.215	0.121
-206.421	-67.152	-0.320	0.124
-205.406	79.310	-0.069	-0.073
-204.392	41.110	0.143	-0.127
-203.377	42.052	-0.109	0.097
-202.363	-28.569	0.308	-0.174
-201.348	-156.161	0.325	0.020
-200.333	20.644	0.218	0.173
-199.319	106.792	0.061	0.071
-198.304	800.000	-0.050	-0.145
-197.290	800.000	0.062	-0.248
-196.275	40.407	0.153	-0.135
-195.260	-137.392	-0.406	0.045
-194.246	105.615	-0.155	0.180
-193.231	800.000	-0.083	-0.275
-192.217	-80.792	0.123	0.040
-191.202	-46.576	-0.256	-0.123
-190.187	537.789	-0.062	0.144
-189.173	143.953	-0.148	0.194
-188.158	69.303	0.165	0.167
-187.144	-190.753	-0.050	0.001
-186.129	-86.690	0.242	0.073
-185.114	55.333	0.165	0.157
-184.100	-80.725	0.051	-0.017
-183.085	98.600	0.118	-0.134
-182.071	-86.683	-0.316	0.095
-181.056	-200.000	0.012	0.334
-180.042	-53.294	-0.362	0.163
-179.027	-32.369	-0.191	0.105
-178.012	-74.618	0.062	-0.022
-176.998	-37.007	-0.165	-0.087
-175.983	-123.992	0.091	0.014
-174.969	-131.731	-0.252	-0.032
-173.954	800.000	-0.058	0.178
-172.939	-36.222	0.296	-0.157
-171.925	-107.396	0.384	-0.083
-170.910	180.871	0.201	-0.290
-169.896	-169.575	-0.094	-0.003
-168.881	0.610	-0.251	-0.176
-167.866	420.618	0.044	0.093
-166.852	473.084	-0.072	-0.160
-165.837	516.828	0.100	0.230
-164.823	-33.904	-0.160	0.087
-163.808	-114.222	-0.197	0.037
-162.793	553.679	0.130	0.308
-161.779	154.588	0.128	0.173
-160.764	0.763	-0.212	-0.149
-159.750	765.960	0.052	0.138
-158.735	-143.224	-0.215	0.020
-157.720	-90.507	0.181	-0.051
-156.706	-142.358	0.271	0.026
-155.691	-133.600	-0.102	-0.013
-154.677	309.467	0.051	0.094
-153.662	-200.000	-0.018	0.125
-152.647	-57.495	0.148	-0.064
-151.633	-126.729	-0.326	-0.047
-150.618	-200.000	0.002	-0.178
-149.604	108.674	-0.150	0.176
-148.589	-200.000	0.002	-0.105
-147.574	800.000	-0.060	0.218
-146.560	-33.006	-0.100	-0.054
-145.545	-200.000	-0.037	0.545
-144.531	-177.892	-0.161	0.004
-143.516	18.699	0.206	0.161
-142.502	196.551	0.196	0.293
-141.487	226.733	0.168	0.267
-140.472	-45.033	-0.183	-0.089
-139.458	-107.748	-0.050	-0.011
-138.443	800.000	0.090	-0.300
-137.429	-150.766	-0.130	0.010
-136.414	243.131	0.163	0.268
-135.399	800.000	0.080	0.271
-134.385	478.942	0.085	-0.188
-133.370	441.930	0.104	-0.223
-132.356	-200.000	0.024	0.175
-131.341	800.000	-0.047	0.173
-130.326	-200.000	0.077	-0.337
-129.312	395.250	0.045	-0.092
-128.297	-146.721	0.312	-0.026
-127.283	-200.000	-0.011	0.260
-126.268	-200.000	0.024	0.146
-125.253	-18.118	0.224	0.137
-124.239	-118.760	0.276	0.048
-123.224	-48.959	-0.135	-0.063
-122.210	-200.000	0.166	-0.001
-121.195	-15.779	-0.159	-0.100
-120.180	764.400	0.078	-0.207
-119.166	-200.000	-0.048	0.228
-118.151	-200.000	-0.023	-0.268
-117.137	-3.959	0.237	-0.161
-116.122	-97.449	0.187	0.048
-115.107	-1.658	-0.172	0.119
-114.093	783.463	-0.064	0.171
-113.078	-11.554	0.257	0.166
-112.064	748.369	-0.055	-0.145
-111.049	-41.979	-0.111	0.056
-110.034	-200.000	-0.019	-0.097
-109.020	77.047	-0.034	0.036
-108.005	-144.540	0.129	-0.012
-106.991	-55.365	0.175	-0.077
-105.976	-72.783	-0.348	0.126
-104.962	-113.031	0.153	-0.030
-103.947	-125.315	-0.281	0.042
-102.932	-200.000	-0.006	0.182
-101.918	-151.229	0.248	-0.018
-100.903	-41.646	-0.182	0.091
-99.889	-42.781	-0.181	0.090
-98.874	800.000	-0.038	-0.157
-97.859	-68.041	0.080	0.030
-96.845	13.020	0.255	0.193
-95.830	609.622	-0.240	-0.588
-94.816	81.481	-0.144	-0.152
-93.801	411.707	-0.145	0.302
-92.786	21.636	-0.085	-0.068
-91.772	-141.743	-0.261	-0.026
-90.757	-64.661	0.287	-0.114
-89.743	-200.000	-0.010	-0.140
-88.728	-170.244	0.109	0.004
-87.713	240.987	-0.060	-0.099
-86.699	-85.804	0.042	0.013
-85.684	-69.130	-0.119	-0.045
-84.670	-72.702	0.094	0.034
-83.655	-172.160	0.191	-0.006
-82.640	87.740	-0.277	-0.300
-81.626	-121.326	-0.247	0.040
-80.611	-200.000	-0.019	0.275
-79.597	-200.000	0.033	-0.150
-78.582	-68.410	0.167	-0.063
-77.567	161.829	0.182	-0.249
-76.553	800.000	-0.020	0.067
-75.538	198.060	0.097	0.146
-74.524	-200.000	0.010	-0.148
-73.509	-111.570	-0.384	-0.076
-72.494	-46.050	-0.238	0.115
-71.480	-144.313	0.159	-0.014
-70.465	44.449	0.114	0.102
-69.451	-93.996	0.260	-0.070
-68.436	800.000	-0.056	0.208
-67.422	-200.000	0.007	0.271
-66.407	-155.161	-0.010	0.001
-65.392	-165.240	0.669	-0.029
-64.378	-128.944	-0.208	0.029
-63.363	19.465	0.302	0.237
-62.349	-105.876	0.207	-0.046
-61.334	66.941	-1.080	-1.075
-60.319	56.335	0.729	0.693
-59.305	546.450	-0.483	-1.130
-58.290	233.951	0.827	1.332
-57.276	678.503	0.680	1.730
-56.261	-200.000	116.702	639.381
-55.246	483.115	1552.159	3449.497
-54.232	173.744	2723.409	3842.786
-53.217	105.559	2159.755	2495.154
-52.203	38.113	1590.037	1382.856
-51.188	29.557	1332.041	1107.390
-50.173	26.694	1293.657	1058.739
-49.159	52.508	1352.884	1262.360
-48.144	50.787	1365.816	1264.101
-47.130	29.590	1319.611	1097.081
-46.115	26.290	1301.598	1062.693
-45.100	26.069	1296.293	1057.024
-44.086	25.977	1294.053	1054.615
-43.071	25.935	1291.567	1052.306
-42.057	25.977	1289.495	1050.816
-41.042	25.979	1287.768	1049.380
-40.027	25.979	1286.159	1048.027
-39.013	26.039	1284.261	1046.790
-37.998	26.043	1282.710	1045.508
-36.984	26.097	1281.051	1044.425
-35.969	26.194	1278.833	1043.137
-34.954	26.179	1277.345	1041.796
-33.940	26.203	1275.991	1040.788
-32.925	26.215	1274.259	1039.402
-31.911	26.099	1273.586	1038.145
-30.896	26.231	1271.533	1037.190
-29.881	26.346	1270.154	1036.679
-28.867	26.197	1269.095	1034.920
-27.852	26.282	1267.372	1033.962
-26.838	26.430	1265.655	1033.367
-25.823	26.294	1264.789	1031.839
-24.809	26.254	1263.691	1030.678
-23.794	26.113	1262.455	1028.824
-22.779	26.335	1260.739	1028.650
-21.765	26.297	1259.699	1027.545
-20.750	26.303	1258.079	1026.213
-19.736	26.137	1257.411	1024.684
-18.721	26.224	1255.534	1023.610
-17.706	26.273	1254.808	1023.256
-16.692	26.154	1253.790	1021.710
-15.677	26.170	1252.527	1020.729
-14.663	26.130	1251.555	1019.670
-13.648	26.194	1250.045	1018.763
-12.633	26.129	1249.007	1017.509
-11.619	26.229	1248.367	1017.512
-10.604	26.316	1247.294	1017.085
-9.590	26.124	1246.748	1015.522
-8.575	26.094	1245.540	1014.329
-7.560	26.039	1245.212	1013.709
-6.546	26.151	1243.972	1013.290
-5.531	26.079	1243.183	1012.205
-4.517	26.036	1242.354	1011.249
-3.502	26.187	1241.197	1011.113
-2.487	26.173	1240.080	1010.082
-1.473	26.127	1236.435	1006.818
-0.458	24.715	1221.108	986.511
0.556	21.507	1205.059	950.184
1.571	17.902	1211.776	935.675
2.586	17.115	1226.320	942.457
3.600	16.839	1214.267	931.590
4.615	12.592	1143.004	854.822
5.629	6.283	1072.492	771.178
6.644	3.595	1055.106	745.636
7.659	3.421	1052.830	743.123
8.673	3.361	1052.213	742.333
9.688	3.384	1050.588	741.236
10.702	3.591	1048.834	740.923
11.717	7.292	1053.097	761.680
12.731	14.333	1063.448	803.165
13.746	18.859	1068.144	828.513
14.761	19.438	1069.224	832.066
15.775	18.541	1067.825	826.583
16.790	17.552	1065.667	820.080
17.804	16.906	1063.903	815.543
18.819	16.647	1062.739	813.335
19.834	16.398	1062.313	811.741
20.848	16.216	1061.630	810.275
21.863	16.019	1060.843	808.657
22.877	15.892	1059.796	807.175
23.892	16.006	1059.141	807.152
24.907	15.955	1058.223	806.139
25.921	16.017	1056.915	805.366
26.936	15.991	1056.264	804.675
27.950	16.065	1054.638	803.717
28.965	16.177	1053.158	803.051
29.980	16.225	1051.694	802.092
30.994	16.219	1050.401	801.005
32.009	16.321	1049.573	800.791
33.023	16.334	1048.407	799.890
34.038	16.265	1047.141	798.526
35.053	15.988	1046.861	796.932
36.067	16.118	1045.807	796.675
37.082	16.058	1045.065	795.754
38.096	16.168	1044.442	795.728
39.111	16.233	1043.544	795.279
40.126	16.091	1042.191	793.513
41.140	15.853	1041.140	791.522
42.155	15.798	1039.657	790.065
43.169	15.838	1038.413	789.237
44.184	15.709	1037.550	787.910
45.199	15.775	1036.726	787.524
46.213	15.803	1036.069	787.086
47.228	15.996	1034.854	786.993
48.242	16.001	1033.655	786.037
49.257	16.047	1032.555	785.341
50.271	16.044	1031.927	784.783
51.286	16.172	1031.328	784.852
52.301	16.030	1030.205	783.269
53.315	15.901	1029.131	781.783
54.330	15.859	1028.053	780.703
55.344	15.909	1027.067	780.115
56.359	15.871	1026.230	779.233
57.374	15.803	1025.472	778.276
58.388	15.650	1024.790	776.982
59.403	15.775	1023.690	776.655
60.417	15.773	1022.785	775.891
61.432	15.729	1022.117	775.111
62.447	15.592	1021.462	773.919
63.461	15.647	1020.858	773.643
64.476	15.642	1019.501	772.524
65.490	15.712	1018.521	772.035
66.505	15.598	1018.621	771.520
67.520	15.769	1017.242	771.190
68.534	15.674	1017.261	770.703
69.549	15.801	1015.765	770.082
70.563	15.738	1014.997	769.144
71.578	15.593	1014.289	767.873
72.593	15.502	1013.611	766.878
73.607	15.570	1012.661	766.400
74.622	15.472	1012.526	765.784
75.636	15.458	1011.797	765.103
76.651	15.516	1011.259	764.892
77.666	15.488	1010.498	764.120
78.680	15.358	1010.127	763.182
79.695	15.721	1008.845	763.795
80.709	15.626	1008.754	763.225
81.724	15.750	1008.223	763.318
82.739	15.926	1007.087	763.189
83.753	15.951	1006.701	762.943
84.768	16.152	1005.243	762.677
85.782	16.294	1004.573	762.743
86.797	16.297	1003.524	761.895
87.812	16.144	1002.363	760.256
88.826	16.089	1001.648	759.398
89.841	16.241	1000.777	759.353
90.855	16.256	999.924	758.707
91.870	16.258	998.994	757.944
92.884	16.346	998.260	757.715
93.899	16.226	997.786	756.750
94.914	16.257	996.798	756.074
95.928	16.284	996.052	755.560
96.943	16.163	995.279	754.368
97.957	16.260	994.436	754.094
98.972	16.281	993.505	753.416
99.987	16.189	992.441	752.133
101.001	16.133	992.136	751.586
102.016	16.144	991.546	751.119
103.030	16.213	990.384	750.479
104.045	16.045	989.797	749.221
105.060	16.003	988.660	748.107
106.074	15.876	987.717	746.764
107.089	15.814	986.486	745.497
108.103	15.796	985.500	744.603
109.118	15.806	984.426	743.769
110.133	15.790	983.668	743.061
111.147	15.850	982.750	742.569
112.162	15.794	981.873	741.591
113.176	15.972	981.593	742.101
114.191	15.872	980.985	741.132
115.206	15.818	979.972	740.066
116.220	15.774	979.303	739.299
117.235	15.737	978.108	738.172
118.249	15.777	977.537	737.848
119.264	15.823	976.627	737.302
120.279	15.813	975.598	736.414
121.293	15.787	975.130	735.884
122.308	15.615	974.022	734.229
123.322	15.693	972.648	733.470
124.337	15.604	971.945	732.486
125.352	15.728	970.776	732.081
126.366	15.783	969.388	731.208
127.381	15.631	968.787	730.028
128.395	15.650	968.060	729.500
129.410	15.813	966.895	729.263
130.424	15.884	966.093	728.903
131.439	15.816	965.646	728.204
132.454	15.835	964.684	727.499
133.468	15.893	963.823	727.034
134.483	15.991	962.967	726.748
135.497	15.821	962.202	725.371
136.512	15.960	961.760	725.573
137.527	15.910	960.562	724.391
138.541	15.925	959.742	723.772
139.556	15.901	959.261	723.242
140.570	16.187	958.753	724.023
141.585	16.260	957.812	723.564
142.600	16.086	957.186	722.278
143.614	16.293	956.485	722.573
144.629	16.457	955.404	722.394
145.643	16.265	954.803	721.053
146.658	16.209	952.999	719.389
147.673	16.051	952.642	718.382
148.687	15.910	952.044	717.267
149.702	16.043	951.320	717.224
150.716	16.136	949.847	716.449
151.731	16.061	949.261	715.624
152.746	16.060	948.883	715.271
153.760	16.072	947.975	714.573
154.775	16.201	947.813	714.935
155.789	16.262	946.813	714.377
156.804	16.201	946.451	713.779
157.819	16.151	945.881	713.077
158.833	16.258	945.002	712.803
159.848	16.444	944.308	713.001
160.862	16.361	943.029	711.622
161.877	16.245	941.678	710.054
162.892	16.047	940.977	708.628
163.906	15.906	940.094	707.309
164.921	16.105	939.249	707.446
165.935	16.131	938.479	706.912
166.950	16.187	937.759	706.542
167.964	16.155	936.619	705.486
168.979	16.039	935.697	704.246
169.994	15.978	935.384	703.692
171.008	16.197	934.463	703.849
172.023	16.461	933.583	704.224
173.037	16.388	933.081	703.478
174.052	16.392	932.193	702.764
175.067	16.163	931.749	701.415
176.081	16.211	930.824	700.856
177.096	16.065	930.751	700.136
178.110	16.250	929.740	700.079
179.125	16.224	929.011	699.358
180.140	16.156	928.795	698.853
181.154	16.412	928.615	699.717
182.169	16.437	928.117	699.385
183.183	16.455	927.332	698.805
184.198	16.441	926.577	698.117
185.213	16.497	925.710	697.631
186.227	16.554	925.308	697.503
187.242	16.513	924.876	696.947
188.256	16.672	924.139	696.983
189.271	16.488	923.207	695.463
190.286	16.404	922.122	694.236
191.300	16.112	921.494	692.506
192.315	16.038	920.777	691.601
193.329	16.111	920.528	691.650
194.344	16.256	919.690	691.554
195.359	16.328	919.255	691.462
196.373	16.439	918.678	691.421
197.388	16.524	918.389	691.489
198.402	16.686	917.565	691.471
199.417	16.701	917.117	691.131
200.432	16.761	916.721	691.017
201.446	16.775	916.389	690.765
202.461	16.943	915.392	690.633
203.475	16.758	915.144	689.635
204.490	16.748	913.866	688.567
205.504	16.748	913.331	688.105
206.519	16.702	912.619	687.321
207.534	16.595	912.137	686.462
208.548	16.589	911.129	685.620
209.563	16.699	910.552	685.571
210.577	16.652	909.897	684.826
211.592	16.736	909.363	684.702
212.607	16.894	908.822	684.875
213.621	16.904	907.931	684.181
214.636	16.790	907.548	683.371
215.650	16.845	906.514	682.755
216.665	16.893	906.120	682.589
217.680	17.136	905.522	683.059
218.694	17.088	904.525	682.052
219.709	16.979	903.974	681.138
220.723	17.074	903.424	681.044
221.738	16.959	902.618	679.915
222.753	17.033	901.595	679.381
223.767	16.896	901.741	678.885
224.782	17.241	900.606	679.348
225.796	17.216	900.360	679.003
226.811	17.092	899.836	678.050
227.826	16.941	898.971	676.737
228.840	16.974	898.250	676.268
229.855	17.017	897.423	675.756
230.869	17.089	896.252	675.100
231.884	16.919	895.722	673.966
232.899	16.904	895.244	673.486
233.913	16.991	893.943	672.796
234.928	16.926	893.862	672.415
235.942	16.838	893.297	671.583
236.957	16.961	892.820	671.651
237.972	16.903	892.039	670.776
238.986	16.857	891.424	670.072
240.001	16.829	890.866	669.484
241.015	16.941	889.778	669.048
242.030	17.096	889.275	669.222
243.045	16.992	889.094	668.616
244.059	17.102	888.616	668.631
245.074	17.179	888.034	668.435
246.088	17.108	887.326	667.563
247.103	17.186	887.034	667.593
248.117	17.221	886.592	667.337
249.132	17.413	886.358	667.857
250.147	17.627	885.112	667.698
251.161	17.820	884.352	667.819
252.176	17.538	884.443	666.727
253.190	17.739	883.418	666.681
254.205	17.722	882.939	666.193
255.220	17.755	882.036	665.584
256.234	17.768	881.438	665.121
257.249	17.827	880.732	664.760
258.263	17.708	880.092	663.756
259.278	17.789	879.554	663.607
260.293	17.723	879.264	663.071
261.307	17.768	878.496	662.607
262.322	17.708	878.089	662.011
263.336	17.889	877.042	661.866
264.351	17.871	875.930	660.898
265.366	17.751	875.720	660.215
266.380	17.933	875.233	660.494
267.395	17.793	874.558	659.385
268.409	17.903	873.553	658.995
269.424	17.814	872.736	657.975
270.439	17.720	872.179	657.136
271.453	17.845	871.428	656.994
272.468	17.670	871.157	656.059
273.482	17.854	870.342	656.091
274.497	17.835	869.548	655.363
275.512	17.962	868.811	655.238
276.526	17.814	868.852	654.643
277.541	17.810	868.208	654.085
278.555	18.003	867.571	654.284
279.570	18.198	867.182	654.681
280.585	18.023	866.476	653.419
281.599	17.934	865.541	652.315
282.614	17.961	864.538	651.607
283.628	17.959	864.141	651.244
284.643	17.790	863.962	650.405
285.657	17.941	863.218	650.364
286.672	17.948	862.458	649.758
287.687	18.010	861.858	649.487
288.701	18.095	861.164	649.227
289.716	18.040	860.614	648.547
290.730	18.131	860.056	648.413
291.745	18.010	859.917	647.793
292.760	18.190	858.892	647.647
293.774	18.033	858.970	647.052
294.789	18.179	858.092	646.884
295.803	18.003	857.479	645.700
296.818	17.898	856.750	644.697
297.833	18.047	855.853	644.529
298.847	18.072	855.480	644.284
299.862	18.125	854.581	643.752
300.876	18.259	854.186	643.899
301.891	18.300	853.747	643.667
302.906	18.315	853.081	643.163
303.920	18.516	852.895	643.722
304.935	18.461	852.212	642.942
305.949	18.428	851.470	642.202
306.964	18.469	850.514	641.577
307.979	18.417	850.200	641.089
308.993	18.516	849.598	640.950
310.008	18.477	849.080	640.357
311.022	18.372	848.420	639.408
312.037	18.212	848.044	638.473
313.052	18.315	846.880	637.924
314.066	18.173	846.577	637.112
315.081	18.216	845.708	636.558
316.095	18.238	845.424	636.373
317.110	18.186	844.836	635.679
318.125	18.197	844.165	635.158
319.139	18.299	844.153	635.474
320.154	18.317	843.425	634.936
321.168	18.350	842.758	634.500
322.183	18.328	842.283	634.004
323.197	18.271	842.043	633.558
324.212	18.174	841.668	632.860
325.227	18.426	840.666	632.981
326.241	18.371	840.086	632.286
327.256	18.474	839.473	632.146
328.270	18.225	839.270	631.022
329.285	18.370	838.448	630.882
330.300	18.296	837.893	630.134
331.314	18.455	837.344	630.250
332.329	18.506	837.241	630.303
333.343	18.551	836.813	630.092
334.358	18.565	835.808	629.330
335.373	18.506	835.761	629.023
336.387	18.628	835.566	629.269
337.402	18.736	835.175	629.315
338.416	18.611	835.258	628.862
339.431	18.780	834.539	628.885
340.446	18.994	833.790	629.049
341.460	18.852	834.209	628.790
342.475	19.009	833.264	628.594
343.489	19.178	832.566	628.629
344.504	19.079	832.529	628.185
345.519	18.960	832.327	627.544
346.533	18.951	831.550	626.868
347.548	18.909	830.427	625.812
348.562	18.612	830.394	624.652
349.577	18.622	830.043	624.370
350.592	18.776	828.858	623.980
351.606	18.588	828.284	622.812
352.621	18.757	827.546	622.816
353.635	18.857	826.616	622.422
354.650	18.948	826.385	622.522
355.665	18.863	826.118	621.958
356.679	18.999	824.968	621.531
357.694	19.053	824.371	621.221
358.708	19.020	823.856	620.659
359.723	19.017	823.444	620.282
360.738	18.884	823.170	619.541
361.752	19.122	822.297	619.684
362.767	19.060	821.872	619.087
363.781	19.062	821.245	618.568
364.796	19.412	820.882	619.498
365.810	19.398	820.482	619.090
366.825	19.338	820.467	618.807
367.840	19.168	820.055	617.833
368.854	19.179	819.469	617.376
369.869	19.117	818.947	616.705
370.883	19.315	818.334	616.897
371.898	19.344	818.167	616.821
372.913	19.451	817.513	616.655
373.927	19.417	817.009	616.100
374.942	19.398	816.703	615.747
375.956	19.473	816.208	615.586
376.971	19.453	815.726	615.096
377.986	19.626	815.484	615.477
379.000	19.590	814.762	614.751
380.015	19.624	814.160	614.363
381.029	19.535	813.507	613.500
382.044	19.646	812.877	613.363
383.059	19.613	812.599	612.984
384.073	19.440	811.924	611.807
385.088	19.357	811.495	611.135
386.102	19.416	811.022	610.933
387.117	19.381	810.312	610.219
388.132	19.325	809.659	609.477
389.146	19.387	809.205	609.300
390.161	19.411	809.122	609.267
391.175	19.388	808.466	608.641
392.190	19.583	807.477	608.528
393.205	19.555	807.127	608.113
394.219	19.310	807.266	607.301
395.234	19.456	806.308	607.040
396.248	19.342	805.769	606.180
397.263	19.293	805.497	605.748
398.278	19.375	804.891	605.527
399.292	19.340	804.448	605.017
400.307	19.357	803.968	604.663
401.321	19.489	803.566	604.767
402.336	19.431	803.317	604.325
403.350	19.522	802.772	604.180
404.365	19.512	802.641	603.993
405.380	19.734	802.014	604.244
406.394	19.859	801.499	604.238
407.409	19.871	801.378	604.138
408.423	19.860	801.044	603.790
409.438	19.892	800.495	603.436
410.453	20.003	800.086	603.462
411.467	20.009	799.670	603.116
412.482	20.020	799.215	602.757
413.496	20.178	798.879	602.999
414.511	20.017	799.009	602.483
415.526	20.071	797.851	601.744
416.540	20.048	797.760	601.546
417.555	20.033	796.834	600.739
418.569	20.083	796.660	600.729
419.584	19.966	796.481	600.136
420.599	20.093	795.773	599.990
421.613	162.555	1371.194	1797.648
422.628	141.022	1455.028	1797.729
