DTS Sentinel unit serial number:	SN413079Multiplexer serial number:	ORYXHardware model number:	OX4-SRSoftware version number:	ORYX F/W v4.00 Oryx Data Collector v3.7.2.0data status	okinstallation	princeton_trtdifferential loss correction	single-endedforward channel	channel 1reverse channel	N/Adate	2019/09/17time	15:18:35forward acquisition time	60.00reverse acquisition time	0.00gamma	496.2192k internal	0.2294k external	0.2294temperature offset calibration	0.9969default loss term (dB/km)	0.3790temperature slope calibration	1.0000multiplexer offset coefficient	1.0000multiplexer slope coefficient	1.0000fibre end	0.00T internal ref (°C)	37.87T ext. ref 1 (°C)	0.39T ext. ref 2 (°C)	34.92length (m)	temperature (°C)	Stokes	anti-Stokes-747.200	-32.612	0.161	0.092
-746.185	79.518	-0.279	0.306
-745.171	250.480	0.114	0.199
-744.156	-25.062	-0.239	0.145
-743.142	-145.892	0.311	0.028
-742.127	800.000	-0.106	0.360
-741.112	-200.000	0.034	-0.223
-740.098	-44.605	0.186	-0.095
-739.083	-121.088	-0.414	-0.071
-738.069	68.304	-0.106	0.111
-737.054	800.000	0.056	-0.226
-736.039	-92.422	-0.062	0.018
-735.025	76.617	0.195	0.211
-734.010	-108.375	0.259	0.057
-732.996	78.035	0.186	-0.203
-731.981	-91.828	0.347	0.101
-730.966	-33.143	0.120	0.068
-729.952	-200.000	-0.105	0.475
-728.937	-200.000	0.091	0.416
-727.923	800.000	-0.069	-0.195
-726.908	4.290	-0.043	-0.032
-725.894	-200.000	0.026	0.203
-724.879	105.927	-0.146	0.177
-723.864	74.289	0.272	-0.292
-722.850	-200.000	-0.029	-0.280
-721.835	785.155	-0.035	-0.098
-720.821	-200.000	0.062	0.531
-719.806	282.150	0.185	0.340
-718.791	-75.431	0.218	0.079
-717.777	-131.906	-0.293	0.039
-716.762	63.980	0.147	-0.151
-715.748	800.000	-0.111	-0.388
-714.733	-176.036	-0.298	0.008
-713.718	49.847	0.105	0.101
-712.704	158.318	-0.202	0.287
-711.689	800.000	0.115	0.349
-710.675	-100.443	0.499	-0.126
-709.660	-83.284	-0.168	-0.055
-708.645	-81.235	-0.458	0.154
-707.631	153.312	0.087	0.122
-706.616	-200.000	-0.021	-0.137
-705.602	-200.000	-0.002	-0.096
-704.587	800.000	-0.038	-0.167
-703.572	-152.295	-0.297	-0.022
-702.558	-114.471	0.236	0.046
-701.543	-156.798	-0.196	0.012
-700.529	-200.000	-0.013	-0.211
-699.514	44.174	-0.232	0.217
-698.499	-81.385	0.173	-0.058
-697.485	313.108	-0.128	0.246
-696.470	4.638	-0.329	-0.246
-695.456	-200.000	-0.054	-0.399
-694.441	-200.000	-0.025	-0.149
-693.426	8.334	0.141	0.108
-692.412	266.203	0.131	-0.234
-691.397	-51.520	-0.169	0.081
-690.383	-146.528	-0.231	0.021
-689.368	542.261	0.161	-0.392
-688.354	800.000	-0.043	-0.143
-687.339	-119.876	-0.282	-0.049
-686.324	577.808	-0.088	-0.219
-685.310	800.000	0.029	0.103
-684.295	-85.035	-0.163	-0.052
-683.281	38.939	-0.299	-0.272
-682.266	250.139	-0.161	-0.280
-681.251	329.035	-0.081	0.158
-680.237	-156.673	-0.096	-0.006
-679.222	2.254	0.265	-0.195
-678.208	286.898	0.148	-0.273
-677.193	-77.342	-0.078	-0.028
-676.178	-120.315	-0.277	-0.048
-675.164	-147.276	-0.236	0.020
-674.149	-42.643	-0.168	0.087
-673.135	-105.587	-0.304	0.070
-672.120	-200.000	-0.049	-0.230
-671.105	21.717	0.217	0.180
-670.091	52.047	-0.172	0.167
-669.076	-109.858	-0.508	-0.109
-668.062	-200.000	-0.017	-0.094
-667.047	28.821	0.169	0.146
-666.032	-200.000	-0.026	0.178
-665.018	-200.000	0.011	-0.223
-664.003	-79.910	-0.045	0.015
-662.989	206.091	-0.171	0.270
-661.974	171.468	0.173	0.253
-660.959	-200.000	-0.009	0.097
-659.945	-59.363	-0.260	-0.114
-658.930	-200.000	0.037	-0.185
-657.916	82.662	0.182	0.202
-656.901	369.159	-0.097	0.200
-655.886	-70.661	-0.049	-0.019
-654.872	136.491	0.169	-0.225
-653.857	800.000	0.063	0.204
-652.843	-95.915	-0.175	-0.048
-651.828	396.276	-0.142	0.302
-650.814	-167.392	0.120	-0.005
-649.799	-63.805	0.365	0.152
-648.784	-47.515	-0.159	-0.079
-647.770	-58.976	-0.301	-0.132
-646.755	-120.467	0.377	0.065
-645.741	87.163	0.288	0.324
-644.726	800.000	-0.119	-0.355
-643.711	-132.629	-0.213	0.028
-642.697	408.445	-0.060	-0.130
-641.682	226.232	-0.080	0.133
-640.668	-200.000	-0.042	0.282
-639.653	81.706	-0.437	0.482
-638.638	-6.480	-0.089	-0.062
-637.624	-200.000	0.003	-0.114
-636.609	-200.000	-0.001	-0.115
-635.595	423.039	-0.097	-0.212
-634.580	800.000	-0.023	0.075
-633.565	107.017	-0.115	0.139
-632.551	-200.000	-0.078	0.359
-631.536	45.371	0.250	-0.235
-630.522	740.365	-0.066	0.179
-629.507	-45.783	-0.251	0.126
-628.492	721.988	0.142	0.383
-627.478	20.950	-0.243	0.201
-626.463	31.740	-0.127	-0.111
-625.449	317.998	0.107	-0.206
-624.434	87.661	0.070	-0.079
-623.419	800.000	-0.139	-0.410
-622.405	9.363	-0.139	-0.107
-621.390	800.000	0.068	0.248
-620.376	-200.000	-0.018	-0.107
-619.361	-111.943	-0.240	0.049
-618.346	329.334	0.110	0.216
-617.332	-200.000	-0.058	0.401
-616.317	-200.000	0.009	-0.088
-615.303	-66.240	0.238	0.097
-614.288	800.000	-0.027	0.118
-613.273	-200.000	0.053	-0.263
-612.259	-200.000	-0.010	-0.065
-611.244	419.812	0.049	0.106
-610.230	51.951	0.251	-0.243
-609.215	-138.400	-0.444	0.050
-608.201	-200.000	0.062	0.309
-607.186	115.919	-0.109	-0.136
-606.171	-200.000	0.040	0.297
-605.157	-82.146	0.315	-0.104
-604.142	800.000	-0.055	-0.246
-603.128	-75.098	-0.158	-0.057
-602.113	63.555	-0.249	0.254
-601.098	-119.540	0.324	-0.057
-600.084	800.000	-0.072	-0.286
-599.069	800.000	0.089	-0.271
-598.055	800.000	0.025	0.103
-597.040	34.135	0.176	-0.156
-596.025	-48.413	-0.255	0.125
-595.011	-110.505	-0.153	-0.032
-593.996	-200.000	-0.027	-0.321
-592.982	187.491	0.181	-0.274
-591.967	-200.000	-0.007	0.238
-590.952	12.912	0.085	-0.067
-589.938	28.576	-0.181	0.155
-588.923	-126.663	0.163	-0.024
-587.909	201.802	0.214	-0.336
-586.894	-200.000	-0.024	0.147
-585.879	-200.000	-0.002	-0.239
-584.865	49.226	0.200	-0.191
-583.850	-200.000	-0.004	0.161
-582.836	-200.000	-0.013	0.068
-581.821	401.832	-0.255	-0.544
-580.806	-72.871	-0.116	0.043
-579.792	362.815	0.058	0.119
-578.777	-200.000	0.039	-0.267
-577.763	301.698	-0.067	-0.125
-576.748	22.779	-0.131	-0.109
-575.733	-200.000	-0.000	0.042
-574.719	6.336	0.189	-0.143
-573.704	8.644	0.094	0.072
-572.690	132.641	-0.029	-0.038
-571.675	-157.889	0.311	0.019
-570.661	61.771	0.103	-0.104
-569.646	217.140	-0.264	-0.426
-568.631	-170.487	-0.324	0.011
-567.617	204.237	0.106	-0.167
-566.602	800.000	-0.057	-0.210
-565.588	800.000	-0.051	0.195
-564.573	-68.633	0.303	0.119
-563.558	-200.000	0.037	0.178
-562.544	-200.000	-0.014	-0.120
-561.529	-134.629	-0.097	0.012
-560.515	479.415	-0.020	-0.046
-559.500	458.019	0.066	-0.149
-558.485	-52.496	-0.184	0.086
-557.471	21.918	-0.175	0.145
-556.456	4.642	-0.101	-0.075
-555.442	439.550	0.039	0.086
-554.427	-147.241	-0.182	-0.016
-553.412	-96.644	-0.173	0.046
-552.398	288.429	-0.159	-0.293
-551.383	-32.387	0.246	0.139
-550.369	-115.635	-0.123	-0.023
-549.354	-105.025	-0.359	-0.083
-548.339	-192.892	-0.595	-0.005
-547.325	-120.680	0.126	-0.022
-546.310	-200.000	-0.031	0.203
-545.296	-167.666	0.180	0.007
-544.281	-95.391	-0.260	0.071
-543.266	-69.297	-0.363	-0.141
-542.252	-21.584	0.067	-0.041
-541.237	80.234	-0.157	-0.172
-540.223	75.783	-0.066	0.071
-539.208	765.834	0.122	0.336
-538.193	-19.567	0.124	0.078
-537.179	-200.000	-0.040	-0.193
-536.164	800.000	0.021	-0.078
-535.150	276.552	-0.167	0.301
-534.135	-184.379	0.100	0.002
-533.121	800.000	0.021	-0.073
-532.106	263.821	-0.070	-0.123
-531.091	15.872	-0.183	0.146
-530.077	-117.921	-0.584	-0.106
-529.062	-200.000	-0.005	-0.025
-528.048	-108.789	0.450	-0.098
-527.033	-200.000	0.044	0.261
-526.018	15.128	-0.221	-0.176
-525.004	-26.483	0.113	0.067
-523.989	800.000	0.061	-0.238
-522.975	-108.213	-0.396	-0.087
-521.960	-64.546	-0.178	0.073
-520.945	166.245	-0.032	-0.046
-519.931	391.254	0.091	-0.192
-518.916	193.933	0.252	-0.387
-517.902	53.013	-0.344	-0.334
-516.887	34.149	-0.046	0.041
-515.872	800.000	-0.005	0.019
-514.858	-45.118	0.143	0.072
-513.843	102.503	-0.088	0.105
-512.829	-161.395	0.138	0.007
-511.814	-167.225	-0.184	-0.008
-510.799	-125.055	0.110	-0.017
-509.785	675.659	0.105	-0.277
-508.770	348.753	-0.045	0.090
-507.756	-63.447	0.194	-0.081
-506.741	-129.748	0.298	0.042
-505.726	800.000	-0.074	-0.241
-504.712	268.287	0.042	0.074
-503.697	-4.692	0.077	-0.054
-502.683	-81.065	-0.141	0.047
-501.668	222.826	0.081	-0.132
-500.653	-54.817	0.114	0.052
-499.639	243.883	0.109	0.184
-498.624	-116.014	0.228	-0.043
-497.610	-200.000	0.045	-0.506
-496.595	113.153	0.224	-0.275
-495.581	800.000	-0.053	0.157
-494.566	41.235	-0.228	-0.209
-493.551	800.000	-0.093	0.388
-492.537	577.861	-0.087	0.217
-491.522	349.135	0.165	0.331
-490.508	444.545	0.089	0.197
-489.493	252.259	-0.240	0.414
-488.478	18.843	-0.171	-0.139
-487.464	146.587	-0.029	0.040
-486.449	-57.057	-0.384	0.172
-485.435	-63.787	-0.176	0.073
-484.420	-200.000	-0.001	0.044
-483.405	-14.937	0.221	-0.143
-482.391	-66.949	0.111	0.045
-481.376	-35.273	-0.254	-0.140
-480.362	-161.492	-0.152	-0.008
-479.347	213.776	0.035	0.057
-478.332	-151.351	0.126	0.009
-477.318	726.218	-0.088	0.236
-476.303	-131.521	-0.231	-0.031
-475.289	125.897	-0.013	-0.017
-474.274	-200.000	-0.006	0.143
-473.259	-71.729	-0.283	0.107
-472.245	221.121	-0.176	0.286
-471.230	-200.000	0.000	0.231
-470.216	-200.000	0.004	0.120
-469.201	-134.714	-0.135	0.017
-468.186	56.863	0.172	-0.169
-467.172	-200.000	-0.020	0.208
-466.157	521.592	0.052	-0.124
-465.143	-103.337	0.074	0.018
-464.128	-27.364	0.091	-0.053
-463.113	-124.435	-0.228	0.036
-462.099	-110.922	0.199	-0.041
-461.084	41.499	-0.320	0.293
-460.070	-200.000	0.054	0.268
-459.055	-200.000	-0.010	-0.160
-458.040	-200.000	0.024	-0.201
-457.026	733.728	-0.080	0.217
-456.011	2.974	0.270	0.199
-454.997	242.943	0.062	-0.106
-453.982	-15.028	0.046	-0.030
-452.968	-90.313	0.379	-0.111
-451.953	-144.199	-0.214	-0.020
-450.938	115.342	-0.072	0.089
-449.924	-71.898	0.348	0.131
-448.909	193.528	-0.027	0.042
-447.895	343.478	0.161	-0.318
-446.880	50.221	-0.092	0.088
-445.865	-179.270	0.352	-0.008
-444.851	91.918	0.139	-0.158
-443.836	-80.249	-0.326	-0.110
-442.822	-200.000	0.013	-0.061
-441.807	800.000	-0.061	-0.185
-440.792	187.445	-0.363	0.547
-439.778	-50.102	0.165	-0.079
-438.763	-200.000	0.063	-0.363
-437.749	-200.000	0.015	-0.137
-436.734	769.903	-0.019	0.052
-435.719	224.414	-0.014	-0.023
-434.705	-200.000	0.041	-0.191
-433.690	194.610	-0.157	0.241
-432.676	-20.953	0.339	-0.210
-431.661	305.874	0.059	0.111
-430.646	-91.724	-0.384	-0.110
-429.632	800.000	-0.163	-0.536
-428.617	-12.065	0.080	-0.053
-427.603	-200.000	-0.033	0.190
-426.588	1.423	0.322	0.234
-425.573	-200.000	0.043	0.224
-424.559	-200.000	-0.037	0.315
-423.544	-200.000	0.024	0.185
-422.530	800.000	-0.055	0.162
-421.515	79.462	-0.120	-0.130
-420.500	-81.597	-0.153	-0.051
-419.486	-200.000	-0.011	0.143
-418.471	-160.004	-0.550	0.030
-417.457	43.113	0.039	-0.036
-416.442	-104.752	0.130	0.030
-415.428	49.411	-0.186	-0.177
-414.413	-87.761	0.270	-0.082
-413.398	-107.046	-0.191	0.043
-412.384	-18.659	0.151	0.095
-411.369	14.482	-0.322	-0.254
-410.355	24.619	-0.150	0.125
-409.340	-46.654	0.198	-0.098
-408.325	-97.495	-0.198	0.052
-407.311	-200.000	0.011	0.060
-406.296	112.658	-0.070	0.086
-405.282	-45.530	0.166	0.083
-404.267	-94.566	0.144	0.040
-403.252	284.271	0.049	-0.089
-402.238	-200.000	0.034	-0.344
-401.223	208.236	-0.082	-0.130
-400.209	475.052	-0.031	0.070
-399.194	-63.960	-0.172	0.071
-398.179	11.953	-0.335	0.260
-397.165	-53.591	0.447	0.206
-396.150	-76.465	0.088	0.031
-395.136	800.000	-0.020	-0.070
-394.121	344.903	0.169	0.334
-393.106	28.280	-0.103	-0.088
-392.092	45.758	-0.141	0.131
-391.077	-51.297	0.126	0.059
-390.063	-78.082	0.314	0.109
-389.048	-109.640	0.166	-0.035
-388.033	314.994	-0.068	-0.130
-387.019	-64.427	0.065	0.027
-386.004	301.396	-0.077	-0.143
-384.990	155.048	0.089	-0.123
-383.975	-58.950	0.183	-0.080
-382.960	9.452	-0.350	-0.267
-381.946	-200.000	0.025	0.139
-380.931	800.000	0.041	0.132
-379.917	67.742	-0.110	-0.114
-378.902	-22.485	0.179	-0.109
-377.888	226.288	-0.109	-0.178
-376.873	80.710	0.198	0.216
-375.858	166.432	0.073	-0.105
-374.844	111.527	-0.112	-0.137
-373.829	-148.234	0.011	0.001
-372.815	718.105	-0.102	-0.273
-371.800	-146.310	-0.285	0.025
-370.785	800.000	0.050	0.207
-369.771	118.539	0.124	0.154
-368.756	-200.000	-0.049	0.383
-367.742	-200.000	0.045	0.231
-366.727	88.723	-0.199	-0.223
-365.712	111.920	0.100	-0.122
-364.698	359.317	0.090	0.182
-363.683	-157.650	0.204	-0.012
-362.669	-112.898	-0.277	0.055
-361.654	296.366	0.163	-0.301
-360.639	-122.379	0.376	-0.062
-359.625	223.808	-0.204	-0.332
-358.610	63.953	0.184	0.186
-357.596	106.154	0.072	-0.085
-356.581	-200.000	-0.019	-0.220
-355.566	-41.569	-0.189	0.098
-354.552	-80.264	0.467	0.157
-353.537	-78.482	0.122	-0.042
-352.523	-200.000	0.020	0.506
-351.508	-94.476	0.477	0.131
-350.493	-63.345	0.060	-0.025
-349.479	-97.276	-0.247	-0.065
-348.464	115.774	0.224	0.275
-347.450	34.232	-0.141	0.124
-346.435	-177.324	-0.339	0.008
-345.420	-21.079	-0.104	-0.064
-344.406	800.000	0.037	0.150
-343.391	387.386	0.159	0.330
-342.377	-200.000	-0.039	-0.183
-341.362	313.752	-0.160	-0.304
-340.348	-25.443	0.082	-0.049
-339.333	-20.088	0.344	0.213
-338.318	-131.928	0.206	-0.027
-337.304	604.580	-0.097	0.243
-336.289	-200.000	-0.009	-0.176
-335.275	-136.102	0.122	0.014
-334.260	-83.705	-0.109	0.035
-333.245	9.358	-0.113	0.086
-332.231	111.834	-0.081	0.098
-331.216	68.762	0.259	0.268
-330.202	71.455	-0.082	0.086
-329.187	800.000	-0.106	-0.308
-328.172	-159.437	-0.269	0.015
-327.158	800.000	-0.016	0.045
-326.143	16.043	-0.162	-0.128
-325.129	487.166	0.137	0.315
-324.114	-187.002	0.126	0.002
-323.099	-200.000	0.235	-0.001
-322.085	-200.000	0.032	0.182
-321.070	173.216	0.111	-0.161
-320.056	-31.796	-0.098	0.055
-319.041	-200.000	0.028	-0.254
-318.026	-18.005	-0.101	-0.064
-317.012	-62.231	0.333	0.139
-315.997	140.812	-0.008	0.011
-314.983	-75.210	-0.357	0.128
-313.968	128.523	0.210	0.269
-312.953	-200.000	0.001	0.329
-311.939	40.825	-0.142	-0.129
-310.924	146.857	-0.101	-0.136
-309.910	106.920	0.253	-0.302
-308.895	-100.003	0.188	0.047
-307.880	-38.742	-0.099	-0.052
-306.866	-127.408	-0.229	-0.034
-305.851	800.000	-0.087	-0.267
-304.837	384.332	-0.093	-0.193
-303.822	-57.661	-0.161	0.071
-302.807	-26.864	0.085	0.050
-301.793	-62.636	-0.044	-0.018
-300.778	-85.190	0.346	-0.109
-299.764	89.527	0.205	-0.230
-298.749	-45.084	0.158	-0.079
-297.735	-200.000	-0.023	0.103
-296.720	219.985	0.079	0.126
-295.705	-91.132	0.112	-0.032
-294.691	-200.000	0.025	-0.526
-293.676	-101.088	-0.143	0.035
-292.662	53.732	0.175	0.169
-291.647	-183.530	-0.307	0.005
-290.632	800.000	-0.013	0.042
-289.618	508.834	-0.042	-0.099
-288.603	31.910	-0.112	-0.097
-287.589	-200.000	-0.012	-0.287
-286.574	60.759	0.092	0.092
-285.559	122.841	0.247	-0.310
-284.545	80.427	0.125	0.135
-283.530	6.685	0.075	0.056
-282.516	-93.045	0.291	-0.082
-281.501	92.723	-0.127	-0.144
-280.486	38.309	-0.125	0.112
-279.472	800.000	0.033	0.119
-278.457	-200.000	0.043	0.286
-277.443	-34.610	0.251	0.138
-276.428	545.812	0.046	0.110
-275.413	800.000	0.019	0.077
-274.399	-9.711	-0.209	0.139
-273.384	800.000	-0.031	-0.096
-272.370	-87.380	0.162	0.049
-271.355	-6.833	0.242	-0.165
-270.340	302.421	-0.082	-0.152
-269.326	-134.118	-0.168	-0.021
-268.311	-127.120	0.220	0.032
-267.297	2.294	-0.131	0.095
-266.282	172.919	-0.156	-0.226
-265.267	236.101	-0.141	-0.233
-264.253	-16.902	0.037	-0.023
-263.238	-50.321	0.146	0.069
-262.224	800.000	0.095	0.378
-261.209	-58.807	0.099	-0.043
-260.195	-200.000	0.008	0.040
-259.180	-49.576	0.329	-0.157
-258.165	240.496	0.147	-0.245
-257.151	-200.000	-0.011	0.153
-256.136	82.189	0.041	-0.044
-255.122	-24.603	-0.261	0.156
-254.107	-151.400	-0.376	-0.028
-253.092	52.234	0.209	0.200
-252.078	734.097	0.039	-0.105
-251.063	-61.951	0.123	0.052
-250.049	800.000	-0.103	0.336
-249.034	800.000	0.087	0.279
-248.019	118.245	-0.085	0.105
-247.005	-69.304	-0.507	-0.195
-245.990	11.652	0.317	0.244
-244.976	-53.516	0.335	0.154
-243.961	-104.068	-0.365	-0.085
-242.946	85.622	0.190	-0.209
-241.932	658.186	0.065	-0.169
-240.917	800.000	-0.025	0.089
-239.903	-110.832	0.195	0.040
-238.888	-46.909	-0.182	0.089
-237.873	722.050	-0.055	-0.148
-236.859	-82.734	0.119	0.038
-235.844	464.089	-0.153	-0.343
-234.830	-200.000	0.002	-0.066
-233.815	800.000	-0.100	0.405
-232.800	-109.963	-0.416	0.087
-231.786	712.451	0.045	-0.121
-230.771	-30.104	-0.269	-0.154
-229.757	800.000	-0.066	-0.277
-228.742	74.291	0.143	0.151
-227.727	-200.000	0.001	-0.133
-226.713	-22.208	-0.030	-0.018
-225.698	373.151	-0.122	0.248
-224.684	-200.000	0.009	-0.076
-223.669	-143.707	0.145	-0.014
-222.655	800.000	0.073	-0.214
-221.640	149.626	-0.116	0.158
-220.625	-200.000	0.043	-0.324
-219.611	-22.186	0.078	-0.048
-218.596	800.000	0.073	-0.276
-217.582	800.000	-0.010	-0.031
-216.567	-29.143	0.082	-0.047
-215.552	800.000	0.054	-0.197
-214.538	-200.000	-0.011	0.106
-213.523	49.827	-0.228	-0.215
-212.509	148.495	-0.057	0.077
-211.494	380.842	-0.159	0.327
-210.479	239.491	-0.244	0.406
-209.465	800.000	0.078	0.292
-208.450	413.161	0.118	0.251
-207.436	-157.222	-0.035	0.002
-206.421	-15.724	0.122	0.078
-205.406	31.794	0.020	-0.018
-204.392	68.803	-0.110	0.113
-203.377	165.656	0.144	0.204
-202.363	305.965	0.071	0.133
-201.348	0.056	0.084	0.060
-200.333	550.822	0.034	-0.083
-199.319	767.008	-0.010	0.027
-198.304	-157.771	0.045	-0.003
-197.290	800.000	0.167	-0.465
-196.275	800.000	-0.055	-0.173
-195.260	11.372	0.142	-0.109
-194.246	800.000	0.119	0.500
-193.231	-200.000	0.024	0.147
-192.217	-14.324	0.015	0.009
-191.202	-178.160	0.196	0.005
-190.187	800.000	-0.046	-0.145
-189.173	99.065	-0.153	0.177
-188.158	-189.118	0.184	0.002
-187.144	-200.000	-0.002	-0.129
-186.129	-200.000	0.000	-0.033
-185.114	-11.294	0.182	-0.120
-184.100	-67.986	-0.093	-0.036
-183.085	304.101	0.128	-0.238
-182.071	-22.192	-0.221	0.134
-181.056	72.583	0.222	-0.232
-180.042	-15.871	0.196	-0.125
-179.027	-171.269	0.313	-0.011
-178.012	751.904	0.082	0.221
-176.998	800.000	-0.025	0.078
-175.983	-102.650	-0.241	0.058
-174.969	13.930	0.084	-0.066
-173.954	-119.820	0.200	-0.034
-172.939	-200.000	0.021	0.278
-171.925	121.263	-0.228	-0.284
-170.910	-36.961	0.183	0.098
-169.896	51.698	0.251	-0.239
-168.881	800.000	0.023	-0.081
-167.866	-85.793	-0.211	0.065
-166.852	14.960	-0.073	-0.057
-165.837	-134.367	0.346	0.042
-164.823	800.000	-0.018	-0.069
-163.808	-55.929	0.126	0.056
-162.793	4.479	0.057	0.041
-161.779	-105.771	0.145	0.033
-160.764	-90.311	0.186	0.054
-159.750	112.400	0.111	-0.134
-158.735	-32.303	0.142	0.079
-157.720	268.075	-0.079	-0.138
-156.706	-145.178	0.387	0.035
-155.691	143.135	-0.022	0.029
-154.677	181.724	-0.064	-0.094
-153.662	-80.223	-0.335	0.112
-152.647	800.000	-0.028	-0.099
-151.633	-60.518	-0.269	-0.114
-150.618	-16.038	0.109	0.070
-149.604	5.345	-0.125	0.092
-148.589	94.904	0.003	-0.004
-147.574	97.271	-0.112	-0.128
-146.560	24.655	-0.070	0.058
-145.545	800.000	-0.113	0.337
-144.531	800.000	-0.085	-0.258
-143.516	800.000	0.022	0.087
-142.502	107.773	0.202	0.240
-141.487	-200.000	-0.071	0.406
-140.472	-88.821	-0.113	-0.033
-139.458	-48.280	0.180	-0.087
-138.443	163.048	-0.028	0.039
-137.429	-89.430	-0.256	0.075
-136.414	-59.678	0.162	0.070
-135.399	503.086	-0.155	0.358
-134.385	748.336	0.060	0.161
-133.370	-81.380	0.394	-0.130
-132.356	134.961	0.090	-0.116
-131.341	161.294	0.104	-0.145
-130.326	800.000	-0.077	-0.236
-129.312	43.025	0.086	-0.078
-128.297	800.000	0.028	-0.117
-127.283	176.260	0.146	0.211
-126.268	-28.140	-0.118	0.068
-125.253	-117.098	0.128	0.023
-124.239	30.641	0.243	-0.208
-123.224	-200.000	0.059	-0.348
-122.210	110.818	-0.086	0.104
-121.195	-113.491	-0.137	0.027
-120.180	196.749	-0.084	0.128
-119.166	-200.000	-0.009	0.218
-118.151	-200.000	-0.024	0.148
-117.137	263.082	-0.038	-0.066
-116.122	-200.000	-0.007	0.364
-115.107	26.759	-0.170	-0.142
-114.093	595.617	0.067	0.165
-113.078	-23.794	-0.050	0.030
-112.064	800.000	0.089	-0.286
-111.049	58.244	0.277	0.271
-110.034	661.213	-0.237	0.609
-109.020	69.553	-0.096	0.099
-108.005	800.000	0.041	-0.145
-106.991	554.525	0.071	-0.171
-105.976	373.531	0.119	-0.241
-104.962	8.743	-0.242	-0.182
-103.947	18.658	0.090	-0.072
-102.932	-101.038	0.127	0.031
-101.918	-172.572	0.244	-0.008
-100.903	-36.551	0.184	0.099
-99.889	-200.000	0.002	-0.142
-98.874	-89.070	0.142	0.042
-97.859	193.824	0.085	0.128
-96.845	-131.882	-0.104	0.013
-95.830	-85.523	0.338	0.105
-94.816	693.346	0.109	-0.285
-93.801	86.532	0.149	-0.164
-92.786	-200.000	0.035	-0.288
-91.772	210.434	0.150	-0.235
-90.757	82.921	0.144	-0.156
-89.743	-64.427	0.341	0.138
-88.728	800.000	0.075	0.319
-87.713	-200.000	0.002	0.040
-86.699	-192.190	0.059	0.001
-85.684	113.385	0.316	0.383
-84.670	-41.566	-0.086	-0.044
-83.655	-123.239	-0.204	-0.032
-82.640	-125.419	0.166	-0.025
-81.626	42.546	0.167	-0.152
-80.611	-200.000	0.012	0.226
-79.597	-200.000	0.061	-0.495
-78.582	-36.259	0.160	-0.086
-77.567	10.967	0.177	-0.135
-76.553	-200.000	0.010	0.432
-75.538	-39.499	0.266	0.139
-74.524	-112.676	-0.148	-0.029
-73.509	-200.000	-0.023	0.281
-72.494	166.565	0.065	-0.091
-71.480	-200.000	-0.153	0.001
-70.465	-84.409	0.197	0.062
-69.451	347.506	-0.077	-0.150
-68.436	26.861	0.227	0.189
-67.422	-171.778	0.060	0.002
-66.407	-169.769	0.280	0.010
-65.392	20.257	-0.023	0.019
-64.378	-88.439	0.349	-0.104
-63.363	-200.000	-0.043	-0.199
-62.349	613.151	0.101	0.251
-61.334	107.646	-0.647	-0.767
-60.319	-68.076	0.276	0.107
-59.305	-200.000	-0.012	-1.022
-58.290	121.914	0.517	0.642
-57.276	800.000	0.559	1.591
-56.261	-200.000	83.569	506.331
-55.246	451.733	1392.654	3063.408
-54.232	142.165	2619.984	3459.741
-53.217	108.820	2253.200	2680.582
-52.203	48.451	1695.051	1580.116
-51.188	41.191	1423.614	1280.568
-50.173	38.039	1379.060	1220.769
-49.159	56.278	1420.575	1373.531
-48.144	60.850	1439.789	1421.058
-47.130	41.703	1398.116	1260.666
-46.115	38.090	1380.695	1222.342
-45.100	37.658	1376.488	1215.869
-44.086	37.714	1373.757	1213.758
-43.071	37.741	1371.080	1211.511
-42.057	37.552	1369.346	1208.756
-41.042	37.610	1367.593	1207.524
-40.027	37.786	1365.772	1206.956
-39.013	37.771	1363.856	1205.123
-37.998	37.736	1362.119	1203.324
-36.984	37.782	1360.470	1202.102
-35.969	37.912	1358.281	1200.926
-34.954	37.890	1356.679	1199.326
-33.940	37.879	1355.107	1197.818
-32.925	37.973	1353.431	1196.869
-31.911	37.850	1352.635	1195.362
-30.896	38.067	1350.585	1194.830
-29.881	37.926	1349.466	1192.929
-28.867	37.990	1348.157	1192.120
-27.852	37.986	1346.270	1190.377
-26.838	38.082	1344.844	1189.655
-25.823	38.017	1343.699	1188.199
-24.809	38.012	1341.804	1186.448
-23.794	37.957	1340.864	1185.230
-22.779	37.907	1339.785	1183.927
-21.765	38.020	1338.112	1183.091
-20.750	37.978	1336.608	1181.455
-19.736	37.789	1335.535	1179.316
-18.721	37.838	1333.986	1178.201
-17.706	37.803	1333.397	1177.419
-16.692	37.755	1331.779	1175.655
-15.677	37.894	1330.362	1175.194
-14.663	37.815	1329.423	1173.843
-13.648	37.807	1328.397	1172.845
-12.633	37.709	1327.310	1171.251
-11.619	37.846	1326.114	1170.967
-10.604	37.835	1325.355	1170.185
-9.590	37.869	1324.500	1169.591
-8.575	37.969	1322.797	1168.639
-7.560	37.760	1322.586	1167.151
-6.546	37.824	1321.400	1166.442
-5.531	37.755	1320.581	1165.263
-4.517	37.857	1319.358	1164.748
-3.502	37.814	1318.601	1163.775
-2.487	37.763	1317.932	1162.834
-1.473	37.936	1314.113	1160.447
-0.458	37.115	1299.626	1142.773
0.556	32.368	1280.020	1103.010
1.571	27.844	1283.458	1079.208
2.586	25.925	1297.569	1079.497
3.600	24.780	1285.483	1062.550
4.615	18.043	1206.181	959.228
5.629	6.665	1120.678	831.490
6.644	0.889	1096.502	783.635
7.659	0.278	1094.304	778.839
8.673	0.223	1093.183	777.688
9.688	0.183	1091.832	776.450
10.702	0.474	1090.099	776.647
11.717	6.376	1098.865	813.379
12.731	15.728	1111.164	871.062
13.746	18.522	1113.797	887.535
14.761	17.346	1111.260	879.358
15.775	16.215	1109.302	871.889
16.790	15.043	1107.528	864.365
17.804	14.511	1105.562	860.011
18.819	14.192	1104.274	857.290
19.834	13.778	1103.394	854.404
20.848	13.514	1102.311	852.127
21.863	13.270	1101.429	850.118
22.877	13.133	1101.144	849.117
23.892	13.112	1099.836	847.928
24.907	13.106	1098.938	847.129
25.921	13.114	1098.907	847.070
26.936	13.211	1097.488	846.396
27.950	13.278	1096.413	845.838
28.965	13.294	1095.638	845.244
29.980	13.284	1094.086	843.925
30.994	13.371	1093.215	843.618
32.009	13.360	1092.202	842.709
33.023	13.404	1091.048	841.965
34.038	13.246	1090.138	840.386
35.053	13.353	1089.236	840.161
36.067	13.297	1088.249	839.039
37.082	13.323	1087.692	838.669
38.096	13.240	1087.005	837.644
39.111	13.258	1086.024	836.904
40.126	13.304	1084.586	835.957
41.140	13.100	1083.864	834.293
42.155	13.044	1082.846	833.157
43.169	13.073	1081.575	832.247
44.184	12.972	1080.724	831.013
45.199	13.084	1079.276	830.389
46.213	13.167	1078.295	829.976
47.228	13.342	1076.710	829.563
48.242	13.238	1076.017	828.435
49.257	13.258	1075.189	827.822
50.271	13.223	1074.342	826.920
51.286	13.334	1073.328	826.624
52.301	13.245	1072.577	825.527
53.315	13.210	1071.325	824.317
54.330	13.173	1070.604	823.504
55.344	13.129	1069.616	822.454
56.359	13.217	1068.794	822.185
57.374	13.048	1067.944	820.618
58.388	13.045	1067.237	819.988
59.403	13.116	1065.978	819.300
60.417	13.014	1065.066	818.023
61.432	13.017	1064.311	817.385
62.447	12.991	1063.447	816.519
63.461	12.977	1062.899	815.957
64.476	12.984	1061.688	814.991
65.490	13.136	1060.448	814.716
66.505	13.020	1059.942	813.681
67.520	13.149	1059.495	813.902
68.534	13.016	1058.539	812.440
69.549	12.999	1057.990	811.864
70.563	12.998	1057.401	811.336
71.578	12.921	1056.657	810.318
72.593	13.058	1055.461	810.000
73.607	12.991	1055.007	809.250
74.622	12.942	1054.402	808.475
75.636	13.157	1053.251	808.571
76.651	13.042	1052.803	807.597
77.666	12.929	1052.260	806.556
78.680	12.963	1051.534	806.092
79.695	13.093	1050.682	806.003
80.709	13.117	1050.019	805.537
81.724	13.150	1049.174	804.983
82.739	13.266	1048.583	805.019
83.753	13.348	1047.424	804.460
84.768	13.307	1046.953	803.828
85.782	13.208	1046.030	802.568
86.797	13.261	1044.775	801.787
87.812	13.149	1044.338	800.841
88.826	13.153	1043.303	799.995
89.841	13.147	1042.560	799.323
90.855	13.326	1041.292	799.147
91.870	13.312	1040.394	798.320
92.884	13.275	1039.954	797.735
93.899	13.333	1038.829	797.080
94.914	13.384	1038.083	796.679
95.928	13.429	1037.316	796.241
96.943	13.307	1036.599	795.031
97.957	13.278	1035.666	794.108
98.972	13.414	1034.713	793.959
99.987	13.299	1033.691	792.553
101.001	13.313	1032.334	791.509
102.016	13.346	1031.391	790.872
103.030	13.253	1030.863	789.956
104.045	13.394	1030.124	789.991
105.060	13.257	1029.594	788.861
106.074	13.211	1028.728	787.907
107.089	13.270	1027.144	786.909
108.103	13.157	1026.528	785.830
109.118	13.113	1025.764	784.965
110.133	13.236	1024.193	784.277
111.147	13.212	1023.332	783.436
112.162	13.127	1022.899	782.633
113.176	13.279	1021.839	782.468
114.191	13.238	1021.349	781.831
115.206	13.341	1020.278	781.427
116.220	13.089	1020.070	780.010
117.235	13.152	1018.749	779.227
118.249	13.248	1018.013	779.049
119.264	13.180	1017.100	777.961
120.279	13.218	1016.007	777.235
121.293	13.216	1015.186	776.526
122.308	13.228	1014.457	775.958
123.322	13.155	1013.554	774.857
124.337	13.206	1012.470	774.196
125.352	13.209	1011.302	773.253
126.366	13.128	1010.482	772.176
127.381	13.092	1009.218	770.976
128.395	13.297	1008.147	771.042
129.410	13.336	1007.122	770.372
130.424	13.400	1006.379	770.037
131.439	13.429	1005.329	769.298
132.454	13.437	1004.747	768.824
133.468	13.368	1004.278	768.075
134.483	13.427	1002.950	767.267
135.497	13.454	1002.104	766.677
136.512	13.302	1001.758	765.640
137.527	13.399	1000.724	765.231
138.541	13.469	999.569	764.603
139.556	13.435	998.876	763.849
140.570	13.438	998.199	763.276
141.585	13.401	997.610	762.585
142.600	13.547	996.369	762.242
143.614	13.560	995.857	761.843
144.629	13.489	994.829	760.662
145.643	13.571	993.547	759.994
146.658	13.436	992.299	758.352
147.673	13.494	991.610	758.023
148.687	13.443	990.551	756.913
149.702	13.314	990.086	755.900
150.716	13.244	989.350	754.956
151.731	13.422	988.058	754.714
152.746	13.383	987.619	754.132
153.760	13.452	987.308	754.145
154.775	13.394	986.462	753.168
155.789	13.478	985.897	753.050
156.804	13.485	984.861	752.225
157.819	13.507	984.455	751.946
158.833	13.545	983.659	751.445
159.848	13.596	982.884	751.016
160.862	13.553	981.508	749.705
161.877	13.388	981.056	748.548
162.892	13.478	979.687	747.843
163.906	13.432	978.719	746.831
164.921	13.470	978.020	746.402
165.935	13.523	976.869	745.697
166.950	13.590	976.005	745.274
167.964	13.496	975.691	744.545
168.979	13.605	974.187	743.822
169.994	13.528	973.532	742.908
171.008	13.639	972.881	742.842
172.023	13.722	971.794	742.320
173.037	13.738	971.311	741.959
174.052	13.661	970.277	740.756
175.067	13.550	969.824	739.852
176.081	13.467	969.401	739.090
177.096	13.598	968.884	739.214
178.110	13.537	968.351	738.474
179.125	13.726	967.191	738.364
180.140	13.659	967.136	737.956
181.154	13.750	966.358	737.704
182.169	13.763	965.793	737.263
183.183	13.832	964.988	736.892
184.198	13.774	964.359	736.087
185.213	13.917	963.566	736.053
186.227	13.848	963.092	735.321
187.242	13.906	962.058	734.723
188.256	13.871	961.949	734.416
189.271	13.922	960.819	733.715
190.286	13.707	960.121	732.170
191.300	13.819	959.007	731.747
192.315	13.678	959.049	731.095
193.329	13.701	958.280	730.543
194.344	13.759	957.833	730.396
195.359	13.721	956.972	729.504
196.373	13.907	956.209	729.676
197.388	13.980	955.657	729.513
198.402	13.912	955.353	728.917
199.417	13.953	955.020	728.779
200.432	14.005	954.155	728.281
201.446	14.112	953.397	728.106
202.461	14.131	953.026	727.841
203.475	14.064	952.437	727.035
204.490	14.137	951.376	726.480
205.504	14.104	950.345	725.483
206.519	14.059	949.768	724.785
207.534	13.926	949.400	723.857
208.548	14.048	948.622	723.733
209.563	13.988	948.163	723.059
210.577	14.078	947.140	722.605
211.592	14.187	946.262	722.343
212.607	14.305	945.255	722.022
213.621	14.205	944.610	721.034
214.636	14.104	944.642	720.554
215.650	14.102	943.695	719.761
216.665	14.192	942.729	719.349
217.680	14.145	942.055	718.571
218.694	14.281	941.432	718.617
219.709	14.305	940.655	718.064
220.723	14.327	939.961	717.565
221.738	14.352	939.090	716.946
222.753	14.396	938.315	716.480
223.767	14.404	938.031	716.235
224.782	14.374	937.476	715.617
225.796	14.310	937.406	715.227
226.811	14.326	936.824	714.788
227.826	14.406	935.613	714.142
228.840	14.339	934.763	713.145
229.855	14.319	933.802	712.262
230.869	14.379	933.260	712.043
231.884	14.368	932.367	711.250
232.899	14.435	931.515	710.822
233.913	14.266	930.992	709.640
234.928	14.450	930.159	709.726
235.942	14.342	929.681	708.840
236.957	14.457	929.272	708.955
237.972	14.353	928.556	707.904
238.986	14.496	927.818	707.885
240.001	14.418	927.447	707.209
241.015	14.425	927.030	706.860
242.030	14.541	926.241	706.686
243.045	14.585	925.043	705.896
244.059	14.566	924.723	705.509
245.074	14.492	923.873	704.483
246.088	14.537	923.660	704.449
247.103	14.668	922.707	704.212
248.117	14.578	922.601	703.690
249.132	14.670	921.757	703.371
250.147	14.636	921.073	702.647
251.161	14.736	920.405	702.495
252.176	14.803	919.574	702.079
253.190	14.848	919.057	701.812
254.205	14.979	918.121	701.583
255.220	14.869	917.741	700.768
256.234	14.985	916.900	700.550
257.249	14.955	916.378	699.964
258.263	14.854	915.380	698.717
259.278	14.827	915.112	698.340
260.293	14.981	914.374	698.356
261.307	15.032	913.730	698.016
262.322	15.182	912.744	697.827
263.336	15.057	912.463	697.027
264.351	15.011	911.608	696.125
265.366	15.112	911.000	696.019
266.380	15.132	910.150	695.388
267.395	15.183	909.029	694.681
268.409	15.103	908.607	693.969
269.424	15.102	907.978	693.420
270.439	15.126	906.829	692.582
271.453	15.053	906.795	692.194
272.468	15.099	905.789	691.554
273.482	15.115	905.425	691.280
274.497	15.082	904.902	690.685
275.512	15.231	904.151	690.662
276.526	15.191	903.557	689.983
277.541	15.271	903.145	689.938
278.555	15.190	902.892	689.351
279.570	15.236	902.078	688.858
280.585	15.241	901.151	688.106
281.599	15.269	900.213	687.446
282.614	15.291	899.281	686.761
283.628	15.301	899.072	686.585
284.643	15.226	898.620	685.869
285.657	15.421	897.612	685.839
286.672	15.403	896.936	685.188
287.687	15.266	896.635	684.338
288.701	15.435	895.835	684.353
289.716	15.497	895.155	684.028
290.730	15.558	894.593	683.787
291.745	15.388	894.382	682.874
292.760	15.470	893.316	682.332
293.774	15.501	892.611	681.860
294.789	15.478	892.116	681.325
295.803	15.435	891.424	680.564
296.818	15.384	890.597	679.667
297.833	15.619	889.469	679.695
298.847	15.545	888.988	678.967
299.862	15.475	888.909	678.567
300.876	15.634	888.279	678.667
301.891	15.646	887.732	678.238
302.906	15.658	887.217	677.834
303.920	15.699	886.720	677.559
304.935	15.736	885.922	677.037
305.949	15.625	885.691	676.353
306.964	15.577	884.804	675.425
307.979	15.781	883.990	675.561
308.993	15.794	883.239	674.980
310.008	15.719	882.832	674.307
311.022	15.647	882.033	673.352
312.037	15.855	881.543	673.748
313.052	15.626	881.065	672.410
314.066	15.644	880.582	672.052
315.081	15.751	879.886	671.890
316.095	15.699	879.057	670.988
317.110	15.655	878.574	670.385
318.125	15.825	878.064	670.612
319.139	15.600	877.732	669.404
320.154	15.653	877.178	669.135
321.168	15.803	876.375	669.058
322.183	15.819	876.083	668.841
323.197	15.902	875.135	668.387
324.212	15.865	874.907	668.008
325.227	15.904	874.065	667.461
326.241	15.822	873.751	666.837
327.256	15.697	873.192	665.854
328.270	15.884	872.570	666.062
329.285	15.952	872.012	665.845
330.300	15.878	871.319	664.965
331.314	15.943	870.957	664.887
332.329	16.035	870.106	664.542
333.343	15.950	870.037	664.093
334.358	15.971	869.439	663.664
335.373	15.964	869.061	663.287
336.387	16.112	868.625	663.476
337.402	16.124	868.644	663.481
338.416	16.156	867.912	662.988
339.431	16.199	867.593	662.857
340.446	16.043	867.398	662.035
341.460	16.286	866.816	662.487
342.475	16.257	866.482	662.058
343.489	16.139	866.137	661.274
344.504	16.205	865.240	660.787
345.519	16.255	865.129	660.842
346.533	16.196	864.691	660.217
347.548	16.179	864.008	659.572
348.562	16.240	863.149	659.095
349.577	16.306	862.733	658.977
350.592	16.237	862.217	658.254
351.606	16.211	861.410	657.477
352.621	16.190	860.753	656.837
353.635	16.234	859.889	656.291
354.650	16.256	859.517	656.036
355.665	16.274	858.841	655.533
356.679	16.290	858.402	655.201
357.694	16.286	857.715	654.602
358.708	16.371	856.863	654.223
359.723	16.306	856.167	653.383
360.738	16.372	855.401	652.996
361.752	16.340	855.090	652.575
362.767	16.481	854.380	652.523
363.781	16.545	853.653	652.156
364.796	16.514	853.447	651.820
365.810	16.692	852.795	651.950
366.825	16.693	852.812	651.910
367.840	16.578	852.314	651.030
368.854	16.684	851.285	650.592
369.869	16.493	851.229	649.758
370.883	16.771	850.582	650.273
371.898	16.675	850.430	649.730
372.913	16.745	849.793	649.456
373.927	16.735	849.225	648.928
374.942	16.647	848.969	648.338
375.956	16.682	848.504	648.058
376.971	16.836	847.842	648.085
377.986	16.753	847.562	647.497
379.000	17.039	846.778	647.932
380.015	16.925	846.459	647.193
381.029	16.907	845.810	646.573
382.044	17.034	844.933	646.329
383.059	16.890	844.966	645.748
384.073	16.944	843.959	645.128
385.088	16.977	843.289	644.684
386.102	16.818	842.946	643.758
387.117	16.860	842.286	643.357
388.132	16.911	841.950	643.238
389.146	16.894	841.200	642.542
390.161	16.960	840.792	642.423
391.175	17.005	840.277	642.146
392.190	16.941	839.832	641.506
393.205	16.844	839.368	640.728
394.219	16.859	839.231	640.622
395.234	16.912	838.593	640.279
396.248	16.931	838.021	639.858
397.263	16.813	837.942	639.298
398.278	17.013	837.083	639.338
399.292	16.899	836.748	638.595
400.307	16.956	836.229	638.359
401.321	17.085	835.738	638.412
402.336	16.979	835.373	637.679
403.350	17.066	834.774	637.490
404.365	17.104	834.246	637.173
405.380	17.326	833.449	637.342
406.394	17.148	833.149	636.388
407.409	17.204	832.807	636.281
408.423	17.254	832.579	636.240
409.438	17.269	832.145	635.905
410.453	17.218	831.650	635.282
411.467	17.235	831.223	634.961
412.482	17.363	830.842	635.092
413.496	17.291	830.518	634.521
414.511	17.441	830.177	634.764
415.526	17.372	829.284	633.767
416.540	17.448	828.781	633.611
417.555	17.472	828.542	633.460
418.569	17.514	827.863	633.041
419.584	17.328	827.807	632.252
420.599	17.386	827.264	631.994
421.613	97.344	1278.339	1411.751
422.628	84.017	1344.066	1411.855
