DTS Sentinel unit serial number:	SN413079Multiplexer serial number:	ORYXHardware model number:	OX4-SRSoftware version number:	ORYX F/W v4.00 Oryx Data Collector v3.7.2.0data status	okinstallation	princeton_trtdifferential loss correction	single-endedforward channel	channel 1reverse channel	N/Adate	2019/09/12time	11:56:11forward acquisition time	60.00reverse acquisition time	0.00gamma	496.2192k internal	0.2293k external	0.2293temperature offset calibration	1.0044default loss term (dB/km)	0.3790temperature slope calibration	1.0000multiplexer offset coefficient	1.0000multiplexer slope coefficient	1.0000fibre end	0.00T internal ref (°C)	40.19T ext. ref 1 (°C)	1.99T ext. ref 2 (°C)	38.01length (m)	temperature (°C)	Stokes	anti-Stokes-747.200	587.008	0.100	0.252
-746.185	-200.000	-0.017	0.331
-745.171	-21.960	0.309	0.192
-744.156	800.000	-0.132	0.538
-743.142	-200.000	0.008	0.048
-742.127	-200.000	0.040	0.258
-741.112	-200.000	-0.022	-0.159
-740.098	760.619	-0.128	0.355
-739.083	-6.210	0.169	0.118
-738.069	-87.573	-0.336	0.104
-737.054	-200.000	-0.008	0.191
-736.039	-97.126	-0.187	-0.050
-735.025	-88.861	0.238	0.072
-734.010	-48.756	0.047	0.023
-732.996	-91.706	0.109	-0.032
-731.981	800.000	0.069	0.200
-730.966	-200.000	-0.036	0.358
-729.952	-90.464	-0.472	0.140
-728.937	-56.863	-0.325	-0.147
-727.923	800.000	0.112	0.362
-726.908	84.734	-0.147	-0.165
-725.894	-0.728	0.187	-0.135
-724.879	224.881	-0.134	0.222
-723.864	800.000	0.068	0.200
-722.850	-144.953	-0.223	0.021
-721.835	-7.769	0.039	0.027
-720.821	-18.295	0.306	0.196
-719.806	50.666	0.368	0.356
-718.791	108.042	0.213	0.259
-717.777	-80.344	0.199	0.068
-716.762	-58.515	0.290	0.129
-715.748	-200.000	0.067	-0.392
-714.733	-28.072	-0.066	-0.039
-713.718	-200.000	0.043	0.315
-712.704	800.000	-0.046	-0.182
-711.689	90.093	-0.030	0.034
-710.675	-18.263	-0.202	0.129
-709.660	800.000	0.071	0.282
-708.645	800.000	-0.069	0.202
-707.631	-49.192	0.314	-0.153
-706.616	-119.097	0.156	-0.028
-705.602	-40.360	-0.278	0.148
-704.587	-200.000	-0.033	-0.228
-703.572	28.061	0.226	0.195
-702.558	374.254	-0.071	0.148
-701.543	325.145	-0.130	0.253
-700.529	191.288	-0.098	0.151
-699.514	9.985	-0.316	-0.245
-698.499	377.029	-0.026	0.055
-697.485	-33.205	-0.188	-0.107
-696.470	-100.190	-0.095	-0.024
-695.456	-147.514	-0.168	0.015
-694.441	-77.981	-0.222	-0.078
-693.426	-200.000	-0.028	-0.305
-692.412	42.902	0.071	-0.066
-691.397	-146.217	0.309	-0.028
-690.383	-154.165	-0.160	0.011
-689.368	-130.427	-0.307	-0.042
-688.354	589.513	-0.029	-0.073
-687.339	-97.880	0.191	-0.050
-686.324	-4.675	-0.101	-0.071
-685.310	743.356	0.079	0.217
-684.295	-152.761	-0.173	0.013
-683.281	-200.000	-0.005	-0.360
-682.266	1.926	0.307	0.226
-681.251	800.000	0.061	0.240
-680.237	-158.962	-0.347	0.020
-679.222	358.423	0.107	0.218
-678.208	344.584	0.047	-0.095
-677.193	-16.529	0.122	0.079
-676.178	-200.000	0.014	0.142
-675.164	45.869	0.202	0.191
-674.149	26.679	0.123	-0.105
-673.135	562.665	-0.063	0.156
-672.120	-200.000	0.009	-0.443
-671.105	227.934	-0.063	0.104
-670.091	-200.000	-0.004	0.078
-669.076	-146.705	0.130	-0.011
-668.062	361.094	0.060	0.122
-667.047	93.667	-0.005	-0.006
-666.032	-200.000	0.063	-0.384
-665.018	-36.332	-0.060	0.033
-664.003	-62.176	-0.108	0.046
-662.989	800.000	-0.046	0.190
-661.974	-86.439	0.183	-0.057
-660.959	800.000	0.021	-0.072
-659.945	17.011	0.153	-0.123
-658.930	482.351	-0.016	-0.037
-657.916	329.917	-0.117	-0.229
-656.901	-200.000	-0.007	-0.140
-655.886	147.598	0.224	-0.307
-654.872	288.707	0.099	0.182
-653.857	29.365	-0.140	0.121
-652.843	298.040	-0.029	0.053
-651.828	426.621	-0.097	0.213
-650.814	56.252	-0.177	-0.175
-649.799	132.816	-0.237	-0.312
-648.784	-163.107	0.439	-0.022
-647.770	-98.346	0.246	0.064
-646.755	65.053	0.081	-0.084
-645.741	800.000	0.039	0.130
-644.726	-157.081	0.274	-0.017
-643.711	355.749	-0.189	-0.383
-642.697	334.484	-0.197	-0.390
-641.682	260.425	-0.080	-0.141
-640.668	-20.873	-0.289	-0.181
-639.653	-176.894	0.176	-0.005
-638.638	-75.774	-0.170	0.061
-637.624	-105.086	0.243	-0.057
-636.609	435.136	0.219	-0.486
-635.595	-83.654	-0.212	0.069
-634.580	-95.249	-0.109	0.030
-633.565	800.000	-0.071	-0.232
-632.551	-92.355	-0.103	-0.030
-631.536	0.497	-0.042	-0.031
-630.522	-2.348	-0.065	0.046
-629.507	-117.634	-0.091	-0.017
-628.492	-10.299	0.142	0.096
-627.478	259.123	-0.092	0.162
-626.463	137.190	0.154	-0.205
-625.449	800.000	-0.027	-0.086
-624.434	100.842	0.124	0.147
-623.419	47.608	-0.108	-0.103
-622.405	189.732	0.084	0.129
-621.390	4.668	0.242	-0.181
-620.376	-78.673	0.215	-0.075
-619.361	33.602	-0.072	0.064
-618.346	-129.680	-0.124	-0.017
-617.332	58.329	0.118	-0.118
-616.317	224.699	0.067	0.110
-615.303	755.791	0.097	0.266
-614.288	-53.586	-0.129	-0.060
-613.273	93.939	0.103	-0.119
-612.259	491.460	-0.123	0.288
-611.244	-200.000	-0.005	-0.111
-610.230	-72.413	0.071	-0.027
-609.215	75.484	0.167	0.179
-608.201	-101.216	-0.325	-0.081
-607.186	228.161	0.199	0.329
-606.171	-59.175	0.094	-0.041
-605.157	-138.645	0.205	0.023
-604.142	33.269	-0.223	-0.197
-603.128	-149.577	-0.182	-0.015
-602.113	309.807	0.121	-0.230
-601.098	204.698	-0.027	0.043
-600.084	740.906	0.046	0.125
-599.069	-125.599	-0.072	0.011
-598.055	113.763	-0.095	0.117
-597.040	-200.000	-0.032	0.169
-596.025	9.223	0.250	0.192
-595.011	497.239	-0.096	-0.224
-593.996	-66.914	-0.101	0.041
-592.982	81.082	-0.137	-0.150
-591.967	134.125	0.131	-0.173
-590.952	68.387	-0.121	0.126
-589.938	20.329	0.272	-0.224
-588.923	-107.947	0.133	-0.029
-587.909	376.648	0.135	-0.280
-586.894	66.625	0.080	0.083
-585.879	446.416	0.037	-0.082
-584.865	-13.598	0.033	0.022
-583.850	-200.000	-0.003	0.039
-582.836	467.604	0.022	-0.049
-581.821	494.490	-0.039	0.090
-580.806	-84.859	-0.079	-0.025
-579.792	-200.000	-0.017	0.244
-578.777	-150.910	-0.148	0.011
-577.763	-107.773	-0.367	0.081
-576.748	115.754	-0.181	-0.225
-575.733	70.511	-0.191	0.201
-574.719	196.489	-0.166	0.256
-573.704	64.660	-0.301	0.309
-572.690	134.650	-0.116	-0.153
-571.675	141.891	-0.087	-0.118
-570.661	161.932	0.210	-0.299
-569.646	264.930	0.052	-0.093
-568.631	-200.000	-0.029	0.208
-567.617	306.950	-0.037	-0.069
-566.602	154.828	0.183	0.255
-565.588	800.000	-0.100	0.340
-564.573	-200.000	-0.035	-0.253
-563.558	573.494	0.025	-0.062
-562.544	109.368	-0.159	-0.193
-561.529	-112.065	0.300	0.061
-560.515	368.880	0.099	0.204
-559.500	-36.182	-0.493	0.270
-558.485	-86.806	0.442	0.137
-557.471	17.643	0.226	-0.183
-556.456	-123.428	0.104	-0.017
-555.442	609.440	-0.068	-0.172
-554.427	174.467	-0.101	0.148
-553.412	-200.000	-0.015	0.368
-552.398	250.873	-0.112	0.194
-551.383	60.019	0.332	0.333
-550.369	104.998	-0.107	-0.128
-549.354	-100.009	0.208	-0.053
-548.339	27.499	0.223	0.191
-547.325	88.942	0.064	-0.073
-546.310	-161.764	-0.194	-0.010
-545.296	52.057	-0.293	-0.283
-544.281	800.000	-0.018	-0.061
-543.266	-39.463	0.360	0.191
-542.252	-87.657	-0.201	-0.062
-541.237	-114.768	0.219	-0.042
-540.223	-118.550	-0.035	-0.006
-539.208	-96.795	0.132	-0.035
-538.193	800.000	0.167	-0.471
-537.179	-69.247	-0.096	-0.037
-536.164	-20.973	-0.140	0.087
-535.150	-86.918	0.314	0.097
-534.135	207.312	0.117	0.185
-533.121	224.828	-0.155	0.254
-532.106	282.695	-0.196	0.356
-531.091	-58.240	0.163	0.072
-530.077	-191.070	0.333	-0.004
-529.062	-109.664	0.192	0.041
-528.048	-200.000	0.012	-0.118
-527.033	38.859	-0.015	-0.014
-526.018	800.000	0.040	0.113
-525.004	35.299	-0.373	0.332
-523.989	-88.578	-0.064	-0.019
-522.975	443.218	0.141	-0.312
-521.960	-91.843	-0.146	0.042
-520.945	235.754	0.098	-0.164
-519.931	81.620	-0.066	0.073
-518.916	-125.134	-0.224	-0.035
-517.902	274.458	-0.055	-0.099
-516.887	80.141	-0.327	0.357
-515.872	-38.836	0.161	0.086
-514.858	-200.000	-0.013	-0.169
-513.843	-75.882	-0.289	-0.104
-512.829	-73.893	-0.275	0.101
-511.814	287.903	-0.190	-0.349
-510.799	287.780	-0.130	-0.239
-509.785	30.719	-0.249	-0.216
-508.770	80.868	-0.158	-0.173
-507.756	343.523	0.048	0.095
-506.741	-200.000	0.006	-0.034
-505.726	-200.000	-0.062	-0.282
-504.712	-24.853	0.196	0.118
-503.697	-137.719	0.170	0.019
-502.683	-130.771	-0.353	0.048
-501.668	-39.184	-0.109	0.058
-500.653	187.006	-0.156	-0.235
-499.639	-200.000	-0.033	0.388
-498.624	-18.418	0.118	0.075
-497.610	-200.000	0.045	0.288
-496.595	249.673	-0.076	0.130
-495.581	-103.467	0.106	0.025
-494.566	800.000	0.023	-0.077
-493.551	336.176	-0.202	0.397
-492.537	375.399	0.137	-0.282
-491.522	-151.054	0.090	0.007
-490.508	174.609	-0.192	0.282
-489.493	-200.000	0.048	-0.243
-488.478	-17.422	0.095	-0.061
-487.464	285.291	0.040	-0.073
-486.449	-23.079	-0.082	-0.050
-485.435	316.190	0.063	-0.120
-484.420	141.576	-0.063	0.085
-483.405	-22.816	0.190	0.116
-482.391	-56.049	0.110	-0.050
-481.376	-41.309	0.031	-0.016
-480.362	800.000	-0.030	0.134
-479.347	-67.537	-0.182	-0.072
-478.332	800.000	-0.036	0.137
-477.318	-200.000	-0.029	0.144
-476.303	-77.324	-0.465	-0.164
-475.289	589.930	0.073	0.181
-474.274	469.401	0.120	0.272
-473.259	-200.000	-0.016	-0.106
-472.245	33.814	0.269	0.237
-471.230	-79.862	0.150	0.051
-470.216	37.280	0.234	-0.210
-469.201	-200.000	-0.010	0.487
-468.186	139.045	0.210	0.279
-467.172	-89.064	0.240	0.072
-466.157	-65.814	0.191	0.077
-465.143	-44.960	0.210	-0.106
-464.128	5.505	0.197	-0.147
-463.113	62.613	0.061	-0.061
-462.099	7.763	0.330	0.250
-461.084	-20.551	-0.320	-0.199
-460.070	214.075	-0.212	-0.340
-459.055	75.084	0.201	-0.214
-458.040	-156.272	0.464	-0.029
-457.026	800.000	-0.053	-0.203
-456.011	107.820	0.316	0.381
-454.997	800.000	0.072	0.290
-453.982	-11.473	0.161	-0.107
-452.968	-27.234	0.327	0.193
-451.953	168.402	-0.111	-0.161
-450.938	-200.000	-0.022	-0.137
-449.924	-200.000	-0.027	-0.284
-448.909	-38.596	-0.111	-0.059
-447.895	-110.794	-0.085	0.018
-446.880	98.428	-0.264	0.308
-445.865	800.000	0.088	0.258
-444.851	14.773	0.056	-0.045
-443.836	624.034	0.040	-0.103
-442.822	800.000	-0.075	0.280
-441.807	242.364	0.083	0.141
-440.792	-33.574	0.117	-0.066
-439.778	-139.941	0.130	-0.014
-438.763	235.326	0.079	-0.131
-437.749	114.039	0.219	-0.269
-436.734	112.992	-0.188	0.230
-435.719	-74.046	-0.148	0.054
-434.705	797.584	-0.133	-0.372
-433.690	-115.442	-0.136	0.026
-432.676	-23.543	0.253	-0.154
-431.661	-200.000	0.021	-0.160
-430.646	800.000	0.031	-0.111
-429.632	-15.957	-0.303	0.195
-428.617	-107.437	-0.219	-0.049
-427.603	286.842	0.018	-0.032
-426.588	-84.683	-0.411	-0.131
-425.573	51.273	0.118	0.113
-424.559	406.233	-0.128	0.273
-423.544	-200.000	0.014	-0.147
-422.530	34.408	0.026	-0.023
-421.515	19.636	-0.196	-0.159
-420.500	-36.781	0.174	-0.094
-419.486	198.223	-0.121	-0.187
-418.471	157.852	0.286	0.401
-417.457	-123.747	0.220	-0.035
-416.442	-24.918	0.034	0.021
-415.428	-35.597	0.055	-0.030
-414.413	193.044	-0.148	-0.225
-413.398	89.995	0.148	-0.167
-412.384	59.383	-0.082	0.081
-411.369	-200.000	0.024	-0.162
-410.355	800.000	-0.078	-0.225
-409.340	-200.000	0.003	0.032
-408.325	-200.000	-0.054	0.346
-407.311	220.269	0.057	-0.092
-406.296	-96.087	-0.356	-0.096
-405.282	-8.340	-0.209	0.142
-404.267	-159.196	0.263	0.015
-403.252	163.522	-0.120	-0.170
-402.238	-78.178	-0.073	0.025
-401.223	144.255	-0.125	0.169
-400.209	-200.000	0.053	0.304
-399.194	800.000	0.064	0.259
-398.179	203.061	-0.040	0.063
-397.165	57.991	-0.575	0.568
-396.150	-65.296	0.280	0.114
-395.136	-181.522	0.035	0.001
-394.121	-61.683	0.168	-0.071
-393.106	236.628	-0.231	0.387
-392.092	33.938	0.118	0.104
-391.077	-70.720	-0.357	0.136
-390.063	-200.000	-0.008	0.304
-389.048	590.569	-0.023	0.057
-388.033	800.000	-0.039	-0.131
-387.019	-76.979	-0.023	0.008
-386.004	102.452	0.043	-0.050
-384.990	800.000	0.155	-0.433
-383.975	-128.423	-0.209	-0.030
-382.960	-149.610	0.158	0.013
-381.946	-200.000	-0.024	0.167
-380.931	-58.418	0.266	0.117
-379.917	61.439	0.127	0.127
-378.902	-142.559	-0.339	-0.033
-377.888	-159.056	0.121	-0.007
-376.873	-200.000	-0.047	-0.245
-375.858	800.000	-0.045	0.184
-374.844	54.838	0.208	0.203
-373.829	487.245	0.150	-0.344
-372.815	-200.000	-0.042	-0.309
-371.800	-200.000	0.023	-0.135
-370.785	-75.288	-0.281	-0.101
-369.771	79.515	0.099	-0.108
-368.756	-20.772	0.261	0.161
-367.742	-154.751	0.377	0.025
-366.727	77.082	-0.137	-0.146
-365.712	228.600	-0.153	0.252
-364.698	203.778	0.094	-0.147
-363.683	-93.237	0.187	0.053
-362.669	-32.740	-0.213	-0.119
-361.654	800.000	-0.105	-0.300
-360.639	-200.000	-0.024	0.116
-359.625	195.915	0.046	-0.070
-358.610	255.062	0.128	0.221
-357.596	48.373	-0.275	0.260
-356.581	800.000	0.050	-0.174
-355.566	-175.356	-0.148	-0.004
-354.552	118.815	-0.148	-0.185
-353.537	40.539	0.129	-0.117
-352.523	800.000	0.055	-0.189
-351.508	-109.528	0.344	0.073
-350.493	-39.614	0.240	0.126
-349.479	418.822	0.095	-0.204
-348.464	7.544	-0.334	-0.252
-347.450	529.550	-0.113	-0.269
-346.435	-91.360	-0.250	0.072
-345.420	-181.272	0.116	-0.002
-344.406	4.696	0.289	-0.214
-343.391	-161.517	-0.337	0.017
-342.377	-148.152	-0.105	0.009
-341.362	800.000	0.032	-0.117
-340.348	-200.000	0.018	0.132
-339.333	692.161	0.171	-0.451
-338.318	152.739	0.005	0.007
-337.304	321.354	-0.153	0.294
-336.289	-33.736	0.245	-0.136
-335.275	-200.000	-0.058	-0.268
-334.260	61.989	0.052	-0.053
-333.245	632.342	-0.025	0.065
-332.231	89.798	0.159	0.178
-331.216	-200.000	0.022	0.175
-330.202	-191.532	-0.098	0.001
-329.187	205.374	-0.037	-0.058
-328.172	-199.261	-0.260	-0.001
-327.158	95.569	-0.159	0.182
-326.143	-62.094	0.178	-0.075
-325.129	-200.000	-0.002	0.011
-324.114	-151.371	-0.166	0.012
-323.099	800.000	0.109	0.315
-322.085	-165.904	0.270	-0.012
-321.070	-200.000	0.010	-0.293
-320.056	195.443	0.183	0.280
-319.041	-52.086	-0.404	0.189
-318.026	55.714	-0.216	0.211
-317.012	-200.000	-0.064	0.293
-315.997	-200.000	0.037	0.318
-314.983	-127.193	0.094	-0.014
-313.968	-51.862	0.219	0.102
-312.953	17.847	-0.176	-0.141
-311.939	-90.715	0.129	-0.037
-310.924	-200.000	0.005	-0.067
-309.910	360.880	-0.093	-0.188
-308.895	-200.000	0.038	-0.367
-307.880	-39.565	0.247	-0.130
-306.866	69.065	-0.098	0.102
-305.851	-23.062	-0.146	-0.088
-304.837	-200.000	-0.185	-0.000
-303.822	-200.000	-0.062	0.282
-302.807	6.466	-0.090	-0.067
-301.793	-34.204	-0.090	0.050
-300.778	800.000	0.077	0.233
-299.764	218.497	0.104	-0.166
-298.749	38.537	-0.346	-0.310
-297.735	-89.303	0.392	-0.116
-296.720	-200.000	0.037	-0.357
-295.705	105.194	0.069	-0.081
-294.691	322.680	0.188	0.361
-293.676	59.804	-0.200	0.198
-292.662	-135.383	0.196	0.024
-291.647	21.810	0.074	-0.061
-290.632	438.096	0.151	-0.330
-289.618	-1.647	0.185	-0.131
-288.603	800.000	0.015	0.047
-287.589	646.992	-0.115	0.296
-286.574	-185.537	0.238	0.004
-285.559	800.000	0.113	0.335
-284.545	-27.303	0.071	-0.042
-283.530	-200.000	0.067	-0.324
-282.516	53.056	-0.037	-0.036
-281.501	3.111	0.272	0.199
-280.486	365.630	-0.049	0.100
-279.472	147.439	-0.190	-0.257
-278.457	800.000	-0.024	0.088
-277.443	746.694	-0.085	-0.230
-276.428	47.215	0.072	0.068
-275.413	-44.243	0.094	-0.047
-274.399	800.000	-0.045	0.173
-273.384	-80.082	-0.174	-0.059
-272.370	-200.000	0.037	-0.336
-271.355	231.145	-0.064	0.105
-270.340	6.352	-0.165	0.123
-269.326	-188.583	-0.282	0.004
-268.311	-119.915	-0.404	-0.070
-267.297	4.211	0.126	-0.093
-266.282	254.616	-0.096	-0.165
-265.267	230.312	-0.112	-0.184
-264.253	-55.677	-0.113	-0.051
-263.238	800.000	-0.195	-0.557
-262.224	800.000	-0.060	-0.252
-261.209	-200.000	-0.023	0.117
-260.195	-69.216	-0.088	-0.034
-259.180	566.363	0.072	0.175
-258.165	-130.364	0.104	0.014
-257.151	155.429	-0.138	0.191
-256.136	-128.773	0.347	0.049
-255.122	-12.353	0.066	0.043
-254.107	-200.000	-0.035	0.253
-253.092	-200.000	0.022	0.211
-252.078	49.461	0.092	0.087
-251.063	21.640	0.048	-0.040
-250.049	800.000	0.055	-0.231
-249.034	164.786	-0.123	-0.174
-248.019	-58.755	-0.200	0.087
-247.005	0.687	-0.096	0.069
-245.990	-54.546	-0.085	0.039
-244.976	69.534	-0.180	-0.187
-243.961	-22.209	-0.106	-0.065
-242.946	-200.000	-0.027	0.221
-241.932	-62.142	0.304	0.127
-240.917	127.860	-0.261	-0.333
-239.903	19.701	0.273	0.221
-238.888	409.564	0.142	0.302
-237.873	141.936	-0.208	-0.276
-236.859	156.323	0.152	0.210
-235.844	200.099	-0.169	0.261
-234.830	-176.274	-0.257	-0.007
-233.815	-200.000	0.014	0.144
-232.800	-121.190	-0.297	-0.050
-231.786	345.980	-0.129	-0.253
-230.771	-200.000	0.340	0.001
-229.757	-158.425	0.290	-0.017
-228.742	800.000	0.044	-0.143
-227.727	368.342	-0.149	0.303
-226.713	-200.000	-0.042	-0.238
-225.698	138.035	0.184	0.242
-224.684	-200.000	0.035	0.273
-223.669	-200.000	0.003	0.094
-222.655	21.758	-0.092	-0.075
-221.640	-4.187	0.128	-0.089
-220.625	34.516	-0.070	0.061
-219.611	-200.000	0.067	-0.354
-218.596	-66.151	0.313	0.125
-217.582	513.082	0.136	0.319
-216.567	-86.607	0.084	0.026
-215.552	235.285	-0.066	-0.109
-214.538	-155.987	0.041	-0.003
-213.523	-200.000	0.047	0.239
-212.509	-39.325	-0.199	0.105
-211.494	-138.149	0.142	0.016
-210.479	800.000	0.014	0.046
-209.465	194.569	0.135	-0.205
-208.450	-82.161	0.119	-0.039
-207.436	28.723	-0.149	0.126
-206.421	237.715	0.096	-0.159
-205.406	-110.032	0.169	0.035
-204.392	-200.000	-0.025	0.192
-203.377	-153.273	-0.348	-0.024
-202.363	641.701	0.093	-0.237
-201.348	168.262	-0.145	-0.207
-200.333	178.383	0.044	-0.065
-199.319	-200.000	0.047	0.245
-198.304	-84.102	-0.302	-0.096
-197.290	198.206	0.098	-0.151
-196.275	-200.000	0.066	0.322
-195.260	800.000	-0.046	0.201
-194.246	500.601	0.021	0.048
-193.231	-200.000	-0.038	-0.270
-192.217	-155.286	-0.118	0.008
-191.202	-103.558	0.074	-0.017
-190.187	-200.000	0.013	0.155
-189.173	115.160	-0.237	0.289
-188.158	-48.906	-0.227	0.109
-187.144	-200.000	0.017	-0.120
-186.129	800.000	0.194	-0.578
-185.114	-118.010	-0.193	0.035
-184.100	300.458	-0.185	0.342
-183.085	782.811	0.038	0.104
-182.071	-115.265	-0.334	0.063
-181.056	-54.809	-0.270	0.122
-180.042	118.423	0.054	-0.067
-179.027	-36.956	0.108	0.058
-178.012	-132.609	0.093	0.012
-176.998	-121.859	0.124	0.020
-175.983	-153.628	-0.249	0.017
-174.969	207.476	0.203	-0.316
-173.954	800.000	-0.065	0.224
-172.939	238.241	0.122	0.202
-171.925	71.224	0.140	0.146
-170.910	487.222	-0.192	-0.439
-169.896	119.941	0.163	-0.203
-168.881	-114.445	-0.097	-0.019
-167.866	92.437	0.287	-0.324
-166.852	-53.913	0.195	0.089
-165.837	-95.956	-0.151	0.040
-164.823	-89.600	0.191	0.056
-163.808	237.037	0.038	0.063
-162.793	-36.743	-0.091	0.049
-161.779	-200.000	0.048	-0.295
-160.764	-147.647	0.121	-0.010
-159.750	-62.446	-0.130	-0.054
-158.735	207.665	-0.064	-0.100
-157.720	-49.335	0.200	-0.096
-156.706	335.346	0.107	0.207
-155.691	-78.945	-0.340	0.116
-154.677	742.219	-0.143	-0.385
-153.662	1.028	0.365	0.261
-152.647	46.600	0.207	-0.192
-151.633	-72.674	-0.156	-0.058
-150.618	153.231	-0.131	-0.179
-149.604	-100.041	-0.111	0.028
-148.589	-200.000	0.048	0.226
-147.574	-200.000	-0.026	0.128
-146.560	-114.993	0.212	-0.040
-145.545	-122.566	-0.456	-0.074
-144.531	-200.000	0.004	-0.194
-143.516	520.274	0.049	0.114
-142.502	-153.267	0.224	0.016
-141.487	-200.000	0.171	0.000
-140.472	164.361	0.273	-0.385
-139.458	-64.364	0.132	0.054
-138.443	-177.185	0.134	0.003
-137.429	-200.000	-0.022	0.258
-136.414	120.427	-0.229	0.284
-135.399	800.000	-0.043	-0.180
-134.385	-41.905	0.210	0.108
-133.370	-102.690	-0.200	-0.048
-132.356	679.369	0.142	0.369
-131.341	29.922	-0.215	0.183
-130.326	800.000	-0.167	0.463
-129.312	-105.361	-0.081	-0.018
-128.297	-200.000	0.010	-0.089
-127.283	-139.691	0.037	-0.004
-126.268	800.000	0.106	0.392
-125.253	-21.733	0.368	0.224
-124.239	269.064	-0.074	-0.130
-123.224	-100.497	0.159	0.039
-122.210	800.000	-0.055	-0.239
-121.195	-149.772	0.082	-0.006
-120.180	143.117	-0.162	-0.215
-119.166	-23.781	0.145	-0.087
-118.151	-162.841	0.175	0.009
-117.137	674.023	-0.039	-0.100
-116.122	-27.255	-0.419	0.244
-115.107	-55.770	-0.267	0.119
-114.093	78.283	-0.102	0.109
-113.078	-5.596	-0.205	0.141
-112.064	-103.885	-0.255	0.059
-111.049	-200.000	-0.027	0.269
-110.034	-200.000	0.012	0.092
-109.020	-200.000	0.005	-0.174
-108.005	800.000	0.048	0.168
-106.991	-89.128	0.110	-0.032
-105.976	-200.000	0.073	0.334
-104.962	135.241	0.116	0.150
-103.947	275.454	0.178	0.314
-102.932	-118.866	-0.191	0.034
-101.918	210.797	-0.215	0.336
-100.903	236.260	0.013	-0.022
-99.889	-121.694	-0.261	0.043
-98.874	-62.623	-0.045	0.019
-97.859	800.000	-0.026	-0.109
-96.845	-47.012	0.119	0.058
-95.830	-200.000	0.006	0.108
-94.816	-164.811	0.326	-0.015
-93.801	-129.055	0.373	0.052
-92.786	0.644	-0.031	-0.022
-91.772	123.904	0.037	0.046
-90.757	12.259	-0.289	-0.222
-89.743	-43.020	-0.179	-0.090
-88.728	86.640	0.137	0.151
-87.713	-163.335	0.354	0.017
-86.699	-171.773	0.362	0.012
-85.684	-200.000	0.001	0.241
-84.670	-200.000	0.004	0.077
-83.655	-178.517	0.023	-0.001
-82.640	-200.000	-0.003	0.240
-81.626	800.000	-0.037	-0.118
-80.611	234.938	0.099	-0.162
-79.597	-200.000	0.000	0.403
-78.582	-83.515	0.239	-0.076
-77.567	56.087	-0.241	-0.233
-76.553	748.382	-0.084	0.226
-75.538	-13.133	0.124	0.080
-74.524	-104.917	-0.180	-0.041
-73.509	-51.437	-0.137	-0.064
-72.494	210.267	-0.048	0.075
-71.480	-83.717	-0.128	-0.041
-70.465	0.897	-0.116	0.083
-69.451	-200.000	-0.030	-0.153
-68.436	-200.000	-0.061	-0.329
-67.422	-53.131	-0.105	-0.048
-66.407	26.873	-0.071	0.060
-65.392	800.000	0.054	-0.184
-64.378	800.000	-0.075	0.252
-63.363	-2.572	0.050	-0.035
-62.349	-200.000	-0.054	0.432
-61.334	653.270	-0.325	-0.830
-60.319	-200.000	-0.051	0.381
-59.305	-200.000	0.007	-0.945
-58.290	-1.199	0.699	0.492
-57.276	800.000	0.546	2.020
-56.261	-200.000	76.574	509.869
-55.246	507.266	1342.107	3101.080
-54.232	144.601	2577.359	3428.904
-53.217	115.166	2237.506	2720.341
-52.203	51.732	1682.329	1593.649
-51.188	43.868	1406.386	1282.667
-50.173	40.291	1360.747	1219.025
-49.159	58.538	1395.789	1364.148
-48.144	64.994	1414.355	1422.288
-47.130	44.366	1377.365	1259.090
-46.115	40.362	1360.695	1219.218
-45.100	40.021	1356.462	1213.288
-44.086	39.881	1354.183	1210.341
-43.071	39.921	1351.760	1208.373
-42.057	39.919	1349.479	1206.273
-41.042	40.166	1347.397	1205.871
-40.027	40.096	1345.854	1204.017
-39.013	40.095	1344.109	1202.398
-37.998	40.092	1341.980	1200.431
-36.984	40.151	1340.379	1199.310
-35.969	40.169	1338.799	1197.958
-34.954	40.214	1336.877	1196.460
-33.940	40.220	1335.587	1195.293
-32.925	40.245	1334.437	1194.366
-31.911	40.330	1332.852	1193.414
-30.896	40.350	1331.170	1191.981
-29.881	40.351	1329.677	1190.607
-28.867	40.399	1327.894	1189.248
-27.852	40.277	1327.024	1187.692
-26.838	40.285	1325.129	1185.995
-25.823	40.201	1324.175	1184.592
-24.809	40.258	1322.774	1183.632
-23.794	40.370	1320.791	1182.481
-22.779	40.179	1319.634	1180.260
-21.765	40.310	1318.091	1179.613
-20.750	40.315	1316.955	1178.577
-19.736	40.173	1315.466	1176.354
-18.721	40.129	1314.284	1174.990
-17.706	40.123	1313.262	1173.991
-16.692	40.193	1311.805	1173.058
-15.677	40.227	1310.909	1172.411
-14.663	40.165	1309.914	1171.110
-13.648	40.031	1309.093	1169.538
-12.633	40.003	1308.193	1168.518
-11.619	40.125	1306.561	1167.734
-10.604	40.088	1305.942	1166.915
-9.590	40.095	1304.729	1165.831
-8.575	40.079	1303.997	1165.032
-7.560	40.095	1302.873	1164.075
-6.546	40.128	1301.947	1163.397
-5.531	40.144	1301.060	1162.654
-4.517	40.096	1300.599	1161.913
-3.502	40.108	1299.359	1160.831
-2.487	40.175	1298.139	1160.085
-1.473	40.296	1294.545	1157.535
-0.458	39.304	1280.195	1138.923
0.556	36.041	1261.649	1100.574
1.571	32.168	1265.920	1081.947
2.586	30.829	1280.894	1086.841
3.600	28.777	1268.886	1064.677
4.615	20.366	1189.335	951.940
5.629	7.959	1104.797	820.621
6.644	2.445	1081.009	775.020
7.659	1.935	1078.607	770.653
8.673	1.777	1076.556	768.323
9.688	1.805	1075.179	767.410
10.702	2.025	1074.177	767.734
11.717	9.103	1084.089	810.590
12.731	20.228	1100.614	879.600
13.746	25.053	1106.268	908.569
14.761	25.469	1106.569	910.847
15.775	25.217	1106.413	909.360
16.790	25.149	1105.405	908.105
17.804	25.016	1104.681	906.758
18.819	25.213	1104.337	907.393
19.834	25.250	1103.891	907.133
20.848	25.356	1103.401	907.183
21.863	25.338	1102.630	906.379
22.877	25.243	1102.009	905.309
23.892	25.232	1101.045	904.384
24.907	25.265	1100.700	904.186
25.921	25.340	1099.627	903.600
26.936	25.274	1097.838	901.718
27.950	25.195	1096.476	900.126
28.965	24.998	1094.920	897.780
29.980	25.064	1093.280	896.686
30.994	25.395	1092.492	897.618
32.009	25.336	1091.620	896.524
33.023	25.001	1090.260	893.657
34.038	25.222	1089.443	894.011
35.053	25.269	1088.793	893.635
36.067	25.327	1087.927	893.131
37.082	25.330	1087.381	892.620
38.096	25.462	1086.509	892.482
39.111	25.537	1086.289	892.592
40.126	25.243	1084.901	889.918
41.140	25.116	1082.598	887.321
42.155	24.831	1081.165	884.659
43.169	24.891	1080.369	884.224
44.184	24.908	1079.224	883.295
45.199	24.824	1078.370	882.103
46.213	24.867	1077.361	881.410
47.228	25.114	1076.946	882.206
48.242	25.033	1076.083	881.025
49.257	25.148	1075.000	880.625
50.271	25.235	1074.710	880.734
51.286	25.328	1073.771	880.346
52.301	25.369	1072.983	879.823
53.315	25.274	1072.026	878.495
54.330	25.214	1070.815	877.131
55.344	25.279	1070.095	876.782
56.359	25.128	1069.418	875.410
57.374	24.977	1068.395	873.763
58.388	25.019	1067.732	873.345
59.403	25.003	1066.626	872.284
60.417	24.684	1065.994	870.138
61.432	24.787	1065.224	869.937
62.447	25.046	1064.734	870.718
63.461	24.973	1063.708	869.444
64.476	24.887	1063.100	868.453
65.490	24.858	1061.867	867.230
66.505	24.883	1061.539	867.007
67.520	25.004	1060.744	866.865
68.534	24.717	1059.719	864.562
69.549	24.498	1058.238	862.220
70.563	24.442	1057.633	861.383
71.578	24.459	1056.989	860.866
72.593	24.274	1055.666	858.821
73.607	24.505	1055.202	859.478
74.622	24.811	1054.853	860.587
75.636	24.838	1054.021	859.963
76.651	24.664	1053.657	858.756
77.666	24.645	1052.191	857.395
78.680	24.843	1051.494	857.699
79.695	24.687	1051.451	856.842
80.709	24.817	1050.387	856.520
81.724	24.785	1049.626	855.668
82.739	25.021	1049.084	856.283
83.753	25.206	1048.547	856.650
84.768	25.564	1047.655	857.554
85.782	25.654	1046.785	857.194
86.797	25.505	1045.864	855.656
87.812	25.288	1045.110	853.930
88.826	25.453	1044.054	853.777
89.841	25.559	1042.967	853.312
90.855	25.620	1041.855	852.618
91.870	25.440	1041.317	851.252
92.884	25.352	1040.475	850.071
93.899	25.335	1039.138	848.823
94.914	25.588	1038.555	849.465
95.928	25.296	1037.845	847.433
96.943	25.105	1036.364	845.247
97.957	24.880	1035.217	843.177
98.972	24.792	1033.902	841.616
99.987	24.929	1033.556	841.905
101.001	25.157	1032.811	842.296
102.016	25.330	1031.021	841.569
103.030	25.112	1030.635	840.162
104.045	25.023	1030.082	839.218
105.060	24.855	1028.662	837.199
106.074	24.951	1028.369	837.338
107.089	25.177	1028.334	838.292
108.103	25.211	1026.882	837.193
109.118	24.878	1025.384	834.343
110.133	24.949	1024.635	833.992
111.147	24.703	1023.253	831.651
112.162	24.703	1022.090	830.631
113.176	24.922	1021.869	831.397
114.191	24.827	1020.903	830.092
115.206	24.501	1019.796	827.611
116.220	24.420	1019.379	826.822
117.235	24.571	1018.330	826.596
118.249	24.704	1017.294	826.298
119.264	24.590	1016.756	825.263
120.279	24.603	1016.000	824.633
121.293	24.794	1014.886	824.540
122.308	24.675	1014.278	823.422
123.322	24.615	1012.917	821.970
124.337	24.364	1011.576	819.657
125.352	23.927	1010.206	816.469
126.366	23.855	1009.430	815.440
127.381	24.759	1008.819	819.015
128.395	25.082	1008.771	820.380
129.410	25.178	1008.374	820.427
130.424	25.195	1007.025	819.331
131.439	25.150	1006.516	818.641
132.454	25.190	1005.340	817.794
133.468	24.976	1004.774	816.285
134.483	25.244	1003.791	816.636
135.497	25.356	1003.316	816.687
136.512	25.588	1002.090	816.667
137.527	25.453	1001.542	815.537
138.541	25.412	1000.861	814.726
139.556	25.566	999.545	814.278
140.570	25.566	999.086	813.833
141.585	25.558	998.242	813.039
142.600	25.564	996.988	811.972
143.614	25.752	996.334	812.214
144.629	25.811	995.398	811.646
145.643	25.701	994.163	810.074
146.658	25.474	993.092	808.110
147.673	25.375	991.956	806.667
148.687	25.240	991.115	805.307
149.702	25.279	989.909	804.429
150.716	25.061	988.898	802.560
151.731	25.291	988.229	802.974
152.746	25.433	987.987	803.343
153.760	25.564	987.224	803.235
154.775	25.623	986.392	802.751
155.789	25.489	985.709	801.529
156.804	25.608	984.727	801.190
157.819	25.676	983.749	800.622
158.833	25.662	983.524	800.309
159.848	25.639	982.173	799.036
160.862	25.596	980.676	797.555
161.877	25.567	980.151	796.931
162.892	25.634	979.231	796.409
163.906	25.464	978.175	794.726
164.921	25.525	977.136	794.082
165.935	25.697	976.190	794.004
166.950	25.589	975.379	792.799
167.964	25.569	974.312	791.773
168.979	25.420	973.378	790.286
169.994	25.316	972.388	788.955
171.008	25.617	971.807	789.737
172.023	25.621	970.895	788.943
173.037	25.510	969.558	787.302
174.052	25.229	968.905	785.472
175.067	25.317	968.090	785.123
176.081	25.364	967.993	785.182
177.096	25.350	967.120	784.345
178.110	24.963	966.207	781.846
179.125	24.934	965.221	780.850
180.140	24.932	965.094	780.670
181.154	25.102	964.615	780.955
182.169	25.468	964.465	782.360
183.183	25.669	964.295	783.025
184.198	25.516	962.922	781.178
185.213	25.344	962.637	780.128
186.227	25.588	961.964	780.572
187.242	25.554	961.637	780.090
188.256	25.546	960.962	779.442
189.271	25.614	959.956	778.852
190.286	25.305	958.826	776.529
191.300	24.715	957.060	772.483
192.315	24.002	954.933	767.621
193.329	23.876	954.941	767.015
194.344	24.706	955.749	771.179
195.359	25.407	955.496	773.931
196.373	25.511	955.075	773.966
197.388	25.319	954.647	772.724
198.402	25.477	953.762	772.621
199.417	25.482	953.000	771.957
200.432	25.098	952.428	769.777
201.446	25.039	951.699	768.863
202.461	25.120	950.745	768.374
203.475	24.200	949.458	763.324
204.490	23.509	946.965	758.300
205.504	24.452	947.927	763.036
206.519	24.938	948.128	765.208
207.534	25.177	947.321	765.512
208.548	25.541	947.414	767.072
209.563	25.149	946.410	764.517
210.577	25.353	945.339	764.456
211.592	25.761	945.394	766.168
212.607	25.638	944.703	765.017
213.621	25.847	943.605	764.946
214.636	25.751	943.372	764.283
215.650	25.582	942.728	762.979
216.665	25.642	942.079	762.641
217.680	25.723	940.811	761.887
218.694	25.177	939.784	758.682
219.709	25.041	939.299	757.647
220.723	25.331	938.732	758.349
221.738	25.555	937.788	758.464
222.753	25.447	937.820	757.966
223.767	25.646	937.287	758.306
224.782	25.836	937.176	758.949
225.796	25.793	936.731	758.342
226.811	24.975	935.029	753.460
227.826	24.409	933.692	749.936
228.840	24.504	933.168	749.848
229.855	24.755	932.211	750.066
230.869	24.362	931.186	747.526
231.884	24.694	931.557	749.150
232.899	25.424	931.481	752.082
233.913	25.445	930.812	751.562
234.928	25.478	929.995	750.973
235.942	25.287	929.695	749.866
236.957	24.932	928.677	747.499
237.972	24.891	928.445	747.071
238.986	25.066	927.897	747.298
240.001	25.241	926.893	747.151
241.015	25.185	926.477	746.517
242.030	25.309	926.320	746.840
243.045	25.526	925.385	746.922
244.059	25.558	925.050	746.718
245.074	25.382	924.044	745.108
246.088	25.092	923.133	743.107
247.103	25.382	922.807	743.978
248.117	25.816	923.022	745.887
249.132	26.093	922.641	746.659
250.147	26.284	921.871	746.757
251.161	26.302	921.472	746.444
252.176	26.242	920.944	745.701
253.190	26.419	920.403	745.928
254.205	26.461	919.897	745.623
255.220	26.543	919.617	745.667
256.234	26.375	918.974	744.389
257.249	26.319	917.587	742.972
258.263	26.254	916.857	742.047
259.278	26.279	916.406	741.718
260.293	26.446	915.837	741.878
261.307	26.224	915.301	740.467
262.322	26.055	914.608	739.151
263.336	25.390	912.299	734.501
264.351	24.335	910.621	728.776
265.366	24.418	910.062	728.604
266.380	25.448	911.014	733.507
267.395	25.970	910.310	735.003
268.409	25.809	909.825	733.889
269.424	26.050	909.532	734.572
270.439	26.121	908.895	734.282
271.453	26.233	908.372	734.247
272.468	26.383	907.814	734.344
273.482	26.414	907.623	734.249
274.497	26.017	906.383	731.569
275.512	25.559	905.424	728.877
276.526	26.013	905.570	730.766
277.541	26.077	904.946	730.458
278.555	25.971	904.124	729.302
279.570	25.921	903.511	728.543
280.585	26.061	902.688	728.377
281.599	25.934	901.760	727.053
282.614	25.374	900.746	723.917
283.628	25.252	900.337	723.029
284.643	25.704	899.920	724.452
285.657	25.425	898.466	722.095
286.672	25.229	897.605	720.553
287.687	25.692	897.851	722.547
288.701	25.718	897.515	722.316
289.716	25.277	896.365	719.561
290.730	25.475	895.604	719.678
291.745	25.114	894.660	717.411
292.760	25.323	894.949	718.415
293.774	26.297	895.335	722.560
294.789	26.724	894.787	723.759
295.803	26.750	894.267	723.377
296.818	26.699	893.735	722.680
297.833	26.402	891.812	719.879
298.847	26.239	891.304	718.757
299.862	26.457	891.478	719.701
300.876	26.751	891.322	720.678
301.891	26.440	890.842	718.992
302.906	26.101	889.529	716.524
303.920	26.346	889.432	717.354
304.935	26.702	888.889	718.265
305.949	26.779	887.913	717.715
306.964	26.270	887.245	715.099
307.979	26.435	886.910	715.418
308.993	26.829	886.746	716.779
310.008	26.797	886.266	716.203
311.022	26.612	885.010	714.394
312.037	26.290	884.676	712.790
313.052	26.133	883.625	711.264
314.066	25.324	881.944	706.665
315.081	24.877	881.542	704.519
316.095	25.772	881.464	707.917
317.110	26.329	881.577	710.133
318.125	25.493	879.987	705.509
319.139	24.355	878.391	699.708
320.154	24.471	877.830	699.654
321.168	25.414	878.549	703.861
322.183	26.063	878.666	706.436
323.197	26.195	878.230	706.537
324.212	26.408	877.692	706.874
325.227	26.586	877.078	707.015
326.241	26.259	876.709	705.375
327.256	26.206	875.777	704.358
328.270	26.007	875.355	703.179
329.285	25.923	874.446	702.060
330.300	25.856	873.511	700.989
331.314	26.003	873.183	701.234
332.329	26.305	873.575	702.662
333.343	26.594	872.809	703.103
334.358	26.604	872.341	702.704
335.373	26.633	871.986	702.469
336.387	26.832	872.254	703.394
337.402	26.871	872.123	703.377
338.416	26.840	871.501	702.693
339.431	26.947	871.011	702.653
340.446	27.031	870.919	702.841
341.460	26.992	870.561	702.339
342.475	26.854	869.608	700.974
343.489	27.009	868.993	701.014
344.504	27.161	869.210	701.714
345.519	27.361	868.708	702.018
346.533	27.414	867.993	701.583
347.548	27.405	867.489	701.079
348.562	27.253	867.063	700.085
349.577	27.200	866.453	699.327
350.592	27.219	865.691	698.726
351.606	27.234	864.771	697.976
352.621	27.122	863.945	696.822
353.635	27.122	863.082	696.063
354.650	26.481	861.614	692.365
355.665	25.573	859.640	687.248
356.679	25.844	859.673	688.251
357.694	26.472	859.576	690.508
358.708	26.404	858.911	689.654
359.723	26.732	858.653	690.638
360.738	26.976	858.760	691.591
361.752	27.084	857.836	691.198
362.767	27.387	857.866	692.311
363.781	27.684	857.531	693.111
364.796	27.827	857.195	693.321
365.810	27.699	857.105	692.701
366.825	27.764	856.183	692.141
367.840	27.514	855.560	690.628
368.854	27.067	854.202	687.778
369.869	27.073	854.219	687.752
370.883	27.223	853.384	687.587
371.898	27.001	853.069	686.432
372.913	27.142	852.793	686.684
373.927	27.239	852.564	686.806
374.942	27.333	851.766	686.457
375.956	27.473	851.631	686.816
376.971	27.455	851.642	686.694
377.986	27.716	850.674	686.836
379.000	27.558	850.415	685.971
380.015	27.481	849.829	685.148
381.029	27.485	848.971	684.410
382.044	27.693	848.931	685.098
383.059	27.643	847.923	684.037
384.073	27.713	847.449	683.856
385.088	27.616	846.608	682.755
386.102	27.341	846.390	681.490
387.117	27.249	845.798	680.606
388.132	27.147	843.791	678.553
389.146	26.597	843.282	676.028
390.161	26.921	843.259	677.160
391.175	27.451	843.367	679.164
392.190	27.152	841.828	676.752
393.205	25.730	839.813	669.785
394.219	24.218	838.017	662.678
395.234	24.058	837.744	661.809
396.248	25.637	839.373	668.911
397.263	27.130	840.243	675.099
398.278	27.302	839.684	675.229
399.292	26.907	839.141	673.267
400.307	27.057	838.224	673.025
401.321	27.085	838.099	672.971
402.336	27.393	837.873	673.869
403.350	27.794	838.255	675.602
404.365	28.040	837.902	676.166
405.380	28.461	837.439	677.289
406.394	28.377	837.016	676.576
407.409	28.209	836.627	675.583
408.423	28.323	836.028	675.458
409.438	28.415	835.764	675.525
410.453	28.335	835.401	674.877
411.467	28.222	835.004	674.082
412.482	28.378	834.371	674.085
413.496	28.487	834.040	674.157
414.511	28.346	833.884	673.455
415.526	28.445	833.269	673.263
416.540	28.284	832.389	671.899
417.555	28.158	831.356	670.545
418.569	28.095	831.448	670.329
419.584	28.056	830.379	669.266
420.599	27.891	830.376	668.600
421.613	95.427	1268.019	1380.863
422.628	82.512	1331.785	1380.982
