DTS Sentinel unit serial number:	SN413079Multiplexer serial number:	ORYXHardware model number:	OX4-SRSoftware version number:	ORYX F/W v4.00 Oryx Data Collector v3.7.2.0data status	okinstallation	princeton_trtdifferential loss correction	single-endedforward channel	channel 1reverse channel	N/Adate	2019/09/19time	11:26:35forward acquisition time	60.00reverse acquisition time	0.00gamma	496.2192k internal	0.2338k external	0.2338temperature offset calibration	1.0011default loss term (dB/km)	0.3790temperature slope calibration	1.0000multiplexer offset coefficient	1.0000multiplexer slope coefficient	1.0000fibre end	0.00T internal ref (°C)	25.31T ext. ref 1 (°C)	0.79T ext. ref 2 (°C)	21.13length (m)	temperature (°C)	Stokes	anti-Stokes-747.200	-95.821	-0.246	0.066
-746.185	1.671	0.057	-0.041
-745.171	-42.187	0.176	0.090
-744.156	-145.644	0.112	-0.010
-743.142	800.000	-0.010	-0.044
-742.127	-5.624	-0.204	0.141
-741.112	800.000	0.112	0.384
-740.098	-115.602	-0.415	0.078
-739.083	51.485	0.336	0.320
-738.069	-60.812	-0.484	0.205
-737.054	546.901	-0.022	-0.052
-736.039	137.841	-0.108	-0.141
-735.025	-41.784	0.322	0.166
-734.010	800.000	-0.046	-0.129
-732.996	-71.415	-0.134	0.050
-731.981	800.000	-0.117	0.366
-730.966	268.201	-0.087	0.153
-729.952	177.654	-0.173	-0.254
-728.937	-48.618	-0.112	-0.054
-727.923	-200.000	0.025	-0.344
-726.908	-69.145	-0.026	-0.010
-725.894	-24.170	-0.004	-0.002
-724.879	-200.000	-0.410	-0.001
-723.864	-44.770	-0.132	-0.066
-722.850	32.467	0.165	0.143
-721.835	-43.740	-0.425	-0.215
-720.821	-123.803	0.157	0.025
-719.806	35.928	0.090	-0.079
-718.791	46.658	-0.111	-0.103
-717.777	-200.000	0.003	-0.210
-716.762	-161.969	0.412	0.021
-715.748	-200.000	-0.039	-0.267
-714.733	-108.963	-0.148	0.032
-713.718	800.000	-0.057	-0.166
-712.704	223.157	-0.083	-0.133
-711.689	-51.341	-0.189	-0.089
-710.675	-30.273	-0.138	0.079
-709.660	31.447	-0.179	0.154
-708.645	-200.000	0.000	0.246
-707.631	281.674	0.125	0.225
-706.616	800.000	-0.134	0.470
-705.602	160.399	-0.061	0.085
-704.587	-174.375	-0.193	-0.006
-703.572	401.549	0.212	0.447
-702.558	-200.000	-0.038	-0.168
-701.543	-142.678	0.094	-0.009
-700.529	322.149	0.093	-0.178
-699.514	-82.175	-0.189	-0.062
-698.499	184.129	0.025	-0.037
-697.485	111.417	-0.107	-0.129
-696.470	116.960	0.074	-0.091
-695.456	-200.000	0.061	0.521
-694.441	-7.461	0.152	-0.103
-693.426	-157.334	-0.146	0.009
-692.412	-200.000	-0.031	-0.353
-691.397	-39.947	-0.199	0.104
-690.383	800.000	-0.127	0.415
-689.368	46.367	-0.279	0.259
-688.354	-15.808	-0.265	-0.169
-687.339	74.446	0.063	0.066
-686.324	18.197	-0.140	0.112
-685.310	800.000	0.046	-0.131
-684.295	34.023	0.092	0.081
-683.281	58.780	0.169	-0.166
-682.266	-155.977	0.083	0.005
-681.251	81.999	0.316	-0.343
-680.237	-200.000	-0.012	0.104
-679.222	-200.000	0.003	0.426
-678.208	181.654	-0.085	-0.126
-677.193	124.859	-0.204	-0.257
-676.178	-66.499	-0.184	-0.073
-675.164	-93.871	0.340	-0.094
-674.149	-72.164	0.290	-0.108
-673.135	41.371	-0.079	-0.071
-672.120	-200.000	0.024	-0.220
-671.105	-57.077	0.278	0.123
-670.091	106.433	0.063	-0.074
-669.076	65.266	-0.261	-0.264
-668.062	100.846	-0.043	-0.050
-667.047	-63.121	0.372	-0.154
-666.032	110.274	0.018	-0.022
-665.018	800.000	0.110	0.368
-664.003	-112.905	0.092	0.018
-662.989	-29.537	0.190	0.109
-661.974	-110.055	-0.309	0.065
-660.959	33.766	0.110	0.095
-659.945	141.631	0.019	-0.025
-658.930	-200.000	0.011	0.110
-657.916	409.910	0.209	0.444
-656.901	-79.146	0.215	-0.073
-655.886	-134.043	0.269	0.033
-654.872	-200.000	0.037	-0.206
-653.857	-138.999	-0.050	0.005
-652.843	614.466	0.095	-0.237
-651.828	-107.719	0.095	0.021
-650.814	65.615	-0.041	0.041
-649.799	-85.175	-0.032	-0.010
-648.784	-7.068	0.217	0.148
-647.770	407.688	-0.114	-0.242
-646.755	-18.934	0.170	-0.106
-645.741	153.777	-0.045	0.061
-644.726	-90.101	-0.323	0.094
-643.711	237.593	0.101	-0.168
-642.697	117.799	-0.111	0.136
-641.682	92.438	-0.132	0.149
-640.668	39.106	-0.077	-0.069
-639.653	-106.773	-0.200	-0.044
-638.638	-79.645	0.251	-0.085
-637.624	-151.872	-0.180	-0.013
-636.609	-142.396	-0.035	0.003
-635.595	-45.012	0.260	0.129
-634.580	141.241	-0.161	0.213
-633.565	-135.986	0.034	-0.004
-632.551	-145.196	-0.181	0.016
-631.536	200.835	0.164	0.251
-630.522	-88.441	0.196	-0.058
-629.507	150.918	-0.206	-0.279
-628.492	9.434	0.062	-0.047
-627.478	-200.000	0.055	-0.270
-626.463	692.546	-0.015	0.040
-625.449	62.268	-0.121	-0.121
-624.434	52.566	-0.198	0.189
-623.419	529.986	-0.090	-0.212
-622.405	524.057	0.221	0.520
-621.390	-113.447	-0.148	-0.029
-620.376	-200.000	0.001	-0.042
-619.361	-200.000	-0.034	0.175
-618.346	699.009	-0.119	-0.313
-617.332	800.000	0.065	-0.206
-616.317	243.577	-0.102	-0.171
-615.303	-104.646	-0.143	0.033
-614.288	-200.000	0.031	0.181
-613.273	-200.000	-0.035	-0.165
-612.259	-85.087	-0.267	-0.084
-611.244	-200.000	0.030	0.256
-610.230	197.863	0.175	-0.267
-609.215	800.000	-0.114	-0.487
-608.201	-100.377	0.316	-0.078
-607.186	495.799	0.086	-0.196
-606.171	-13.773	0.081	0.052
-605.157	-200.000	-0.080	-0.425
-604.142	385.045	-0.116	-0.238
-603.128	-200.000	-0.020	-0.201
-602.113	-200.000	-0.027	0.147
-601.098	92.628	0.164	0.185
-600.084	3.638	-0.209	-0.152
-599.069	-200.000	0.072	-0.417
-598.055	3.605	-0.041	0.030
-597.040	-200.000	0.029	0.167
-596.025	-42.040	-0.301	-0.154
-595.011	800.000	-0.115	-0.341
-593.996	140.863	0.133	-0.175
-592.982	675.662	0.059	-0.153
-591.967	-79.846	-0.024	0.008
-590.952	-200.000	0.044	0.250
-589.938	-103.804	-0.251	0.059
-588.923	78.871	-0.135	0.144
-587.909	91.961	-0.208	0.234
-586.894	-37.067	0.328	-0.175
-585.879	-170.369	-0.385	-0.013
-584.865	133.638	-0.089	-0.115
-583.850	202.332	0.143	0.220
-582.836	-57.742	0.307	-0.134
-581.821	734.891	0.093	0.249
-580.806	-200.000	0.012	0.212
-579.792	184.936	-0.092	-0.136
-578.777	69.659	-0.203	-0.209
-577.763	-98.767	0.311	0.079
-576.748	-98.565	-0.288	-0.073
-575.733	46.429	-0.191	-0.177
-574.719	-200.000	0.081	0.391
-573.704	577.433	0.050	0.122
-572.690	-200.000	0.024	0.241
-571.675	354.650	-0.211	0.419
-570.661	-110.316	0.257	-0.053
-569.646	82.246	0.138	-0.150
-568.631	482.116	0.044	-0.100
-567.617	-17.399	0.121	-0.076
-566.602	-76.738	0.123	0.043
-565.588	-11.383	-0.068	-0.044
-564.573	-165.486	-0.042	0.002
-563.558	-36.639	0.079	-0.043
-562.544	16.528	-0.160	-0.126
-561.529	33.865	0.133	0.115
-560.515	800.000	0.051	0.220
-559.500	-55.023	0.342	-0.153
-558.485	-200.000	-0.035	0.237
-557.471	-200.000	0.031	-0.180
-556.456	-162.392	-0.275	-0.014
-555.442	115.524	0.232	-0.282
-554.427	6.130	-0.224	-0.166
-553.412	-105.337	0.270	-0.061
-552.398	420.741	-0.036	0.076
-551.383	-81.004	-0.213	0.070
-550.369	255.446	0.122	-0.208
-549.354	8.943	-0.103	-0.078
-548.339	71.900	-0.130	-0.135
-547.325	-200.000	-0.015	0.082
-546.310	559.238	0.100	-0.241
-545.296	800.000	0.100	0.285
-544.281	244.755	-0.045	-0.076
-543.266	-30.242	0.132	-0.075
-542.252	-152.958	-0.248	-0.017
-541.237	-200.000	-0.010	0.075
-540.223	267.598	-0.165	-0.288
-539.208	595.895	0.029	0.072
-538.193	-94.398	0.169	0.046
-537.179	-35.986	-0.164	0.088
-536.164	38.578	-0.161	0.143
-535.150	-44.390	0.221	-0.110
-534.135	104.091	0.085	0.099
-533.121	-14.291	-0.216	-0.139
-532.106	-71.943	0.088	0.032
-531.091	-200.000	-0.017	-0.091
-530.077	-200.000	-0.016	-0.234
-529.062	-200.000	-0.031	-0.177
-528.048	800.000	0.068	0.241
-527.033	173.551	0.186	-0.267
-526.018	800.000	-0.024	0.085
-525.004	-69.272	-0.195	0.075
-523.989	-100.093	0.037	0.009
-522.975	-200.000	-0.070	0.326
-521.960	-23.195	-0.303	0.182
-520.945	-70.209	0.267	-0.101
-519.931	800.000	-0.028	-0.114
-518.916	-190.492	-0.065	-0.001
-517.902	83.645	0.179	0.195
-516.887	-53.974	0.423	-0.191
-515.872	333.584	0.040	0.076
-514.858	-63.375	0.222	-0.091
-513.843	565.754	0.076	0.183
-512.829	-200.000	-0.009	-0.214
-511.814	442.133	0.124	0.270
-510.799	108.909	0.119	0.141
-509.785	800.000	-0.049	-0.192
-508.770	-91.452	0.392	0.111
-507.756	-58.427	0.185	0.080
-506.741	-120.860	-0.357	-0.060
-505.726	-4.511	0.077	-0.053
-504.712	17.744	-0.324	-0.256
-503.697	-200.000	-0.009	0.227
-502.683	-131.448	0.478	0.063
-501.668	49.011	-0.186	-0.174
-500.653	-43.249	0.083	0.042
-499.639	800.000	-0.010	-0.040
-498.624	730.621	-0.121	-0.322
-497.610	248.235	-0.112	-0.189
-496.595	259.131	0.108	0.185
-495.581	3.276	0.267	-0.193
-494.566	516.541	-0.134	-0.311
-493.551	-167.502	-0.480	-0.019
-492.537	-200.000	-0.005	-0.112
-491.522	-35.943	-0.221	0.119
-490.508	800.000	-0.081	-0.340
-489.493	8.074	-0.385	-0.287
-488.478	-3.754	0.088	-0.061
-487.464	-182.049	-0.304	0.006
-486.449	-8.551	0.123	0.082
-485.435	58.877	-0.118	0.115
-484.420	-172.890	0.117	0.004
-483.405	335.975	-0.099	-0.191
-482.391	-200.000	-0.032	-0.233
-481.376	-138.376	0.182	0.020
-480.362	-114.144	-0.449	-0.086
-479.347	-200.000	0.026	0.248
-478.332	-101.421	-0.298	0.072
-477.318	101.780	-0.054	-0.062
-476.303	88.627	-0.018	0.020
-475.289	791.863	0.069	0.187
-474.274	557.172	0.039	-0.092
-473.259	11.072	-0.426	0.324
-472.245	-144.686	-0.071	-0.006
-471.230	-44.547	0.203	-0.101
-470.216	-89.051	-0.020	0.006
-469.201	800.000	-0.094	0.305
-468.186	-85.359	0.220	-0.068
-467.172	-32.984	-0.186	0.102
-466.157	113.795	0.072	0.087
-465.143	-200.000	-0.041	0.267
-464.128	-200.000	-0.013	-0.075
-463.113	184.691	0.147	-0.216
-462.099	-200.000	0.022	-0.442
-461.084	162.302	0.099	0.138
-460.070	-149.492	0.153	0.012
-459.055	149.651	-0.092	0.124
-458.040	51.410	-0.127	-0.120
-457.026	151.173	0.035	-0.047
-456.011	-17.256	-0.171	0.107
-454.997	-200.000	0.077	-0.433
-453.982	-200.000	-0.040	0.466
-452.968	-91.790	-0.179	0.051
-451.953	-44.118	-0.134	-0.067
-450.938	-96.707	0.340	0.089
-449.924	800.000	0.059	-0.198
-448.909	-46.085	0.157	-0.077
-447.895	229.578	-0.122	-0.197
-446.880	-142.277	0.133	-0.013
-445.865	111.594	-0.123	0.147
-444.851	204.412	0.154	-0.238
-443.836	628.446	0.068	0.171
-442.822	800.000	-0.032	0.115
-441.807	2.002	-0.317	-0.227
-440.792	-104.909	0.386	-0.088
-439.778	-200.000	-0.012	-0.059
-438.763	59.830	-0.217	0.212
-437.749	126.565	0.107	-0.135
-436.734	110.009	-0.150	0.179
-435.719	164.871	0.182	-0.255
-434.705	-53.916	-0.085	0.038
-433.690	429.258	-0.094	0.201
-432.676	18.050	-0.146	-0.116
-431.661	60.043	0.084	-0.082
-430.646	50.763	-0.086	0.081
-429.632	-200.000	0.015	0.227
-428.617	-200.000	0.026	-0.238
-427.603	-200.000	0.029	0.194
-426.588	-104.436	0.332	0.076
-425.573	-83.205	-0.157	-0.050
-424.559	-61.080	-0.273	-0.114
-423.544	-4.819	-0.120	0.082
-422.530	800.000	0.086	0.255
-421.515	-200.000	0.011	-0.306
-420.500	91.571	-0.126	0.140
-419.486	-139.087	0.254	0.027
-418.471	-200.000	0.008	0.233
-417.457	168.150	-0.179	0.252
-416.442	-52.603	0.191	0.087
-415.428	-66.328	0.311	0.122
-414.413	-41.135	-0.286	0.146
-413.398	-121.900	-0.277	-0.045
-412.384	-24.313	0.152	0.090
-411.369	-200.000	0.070	-0.429
-410.355	-137.870	-0.307	0.034
-409.340	171.838	-0.096	0.137
-408.325	-107.897	0.312	-0.067
-407.311	-57.213	-0.341	-0.149
-406.296	-190.664	0.357	0.004
-405.282	-72.602	0.029	-0.011
-404.267	-60.327	0.321	0.135
-403.252	-41.220	-0.293	-0.150
-402.238	-37.472	-0.112	0.059
-401.223	-18.267	0.306	0.189
-400.209	-200.000	0.018	-0.155
-399.194	-200.000	0.017	-0.138
-398.179	-200.000	0.077	-0.418
-397.165	46.176	-0.167	-0.153
-396.150	800.000	0.068	0.249
-395.136	7.790	-0.445	-0.330
-394.121	32.943	-0.213	-0.182
-393.106	35.302	0.239	0.208
-392.092	-131.187	-0.038	-0.005
-391.077	-200.000	0.031	0.236
-390.063	72.761	0.163	0.169
-389.048	247.658	-0.082	0.137
-388.033	-200.000	0.008	0.203
-387.019	68.027	-0.134	0.136
-386.004	101.436	-0.029	-0.033
-384.990	3.308	0.244	-0.176
-383.975	-200.000	-0.033	0.142
-382.960	-58.687	-0.158	-0.068
-381.946	-170.920	0.165	-0.006
-380.931	485.076	-0.106	-0.239
-379.917	800.000	-0.075	-0.284
-378.902	49.812	0.086	0.080
-377.888	-200.000	-0.001	-0.236
-376.873	0.073	0.071	-0.050
-375.858	109.984	-0.035	-0.042
-374.844	-68.540	-0.077	0.030
-373.829	-169.268	-0.250	0.009
-372.815	-65.965	-0.201	0.079
-371.800	-200.000	-0.033	0.507
-370.785	-147.728	-0.176	0.015
-369.771	-200.000	0.008	-0.505
-368.756	-81.399	-0.255	0.083
-367.742	186.601	-0.160	0.235
-366.727	124.287	0.253	0.314
-365.712	-146.504	-0.201	0.017
-364.698	-30.993	-0.153	0.085
-363.683	-184.320	-0.261	-0.004
-362.669	-40.989	-0.221	0.113
-361.654	800.000	0.029	0.107
-360.639	-16.466	0.231	-0.145
-359.625	94.643	-0.241	-0.271
-358.610	-200.000	-0.005	-0.151
-357.596	34.518	-0.316	0.272
-356.581	213.154	-0.170	0.265
-355.566	-143.727	-0.251	0.024
-354.552	126.886	0.145	0.181
-353.537	201.466	0.187	0.284
-352.523	800.000	0.132	0.455
-351.508	-23.495	0.234	0.139
-350.493	-151.920	-0.203	-0.015
-349.479	125.355	0.191	0.238
-348.464	502.765	0.033	-0.076
-347.450	-97.967	0.236	0.060
-346.435	-200.000	0.006	0.367
-345.420	125.082	0.195	0.243
-344.406	-8.217	-0.227	-0.151
-343.391	-168.506	-0.222	0.008
-342.377	-200.000	-0.006	-0.142
-341.362	-200.000	-0.052	0.280
-340.348	800.000	-0.008	0.029
-339.333	-200.000	-0.019	-0.127
-338.318	-200.000	-0.007	0.108
-337.304	-83.398	0.165	0.052
-336.289	-148.013	0.222	-0.018
-335.275	-44.709	0.137	-0.067
-334.260	150.025	0.281	0.377
-333.245	47.303	0.130	-0.120
-332.231	235.009	0.042	-0.069
-331.216	73.032	0.263	-0.272
-330.202	-103.254	0.049	-0.012
-329.187	-38.158	-0.041	-0.021
-328.172	471.495	0.196	-0.435
-327.158	406.239	-0.049	-0.101
-326.143	800.000	0.087	0.328
-325.129	172.888	-0.121	0.172
-324.114	-200.000	0.028	-0.224
-323.099	-74.837	-0.146	-0.052
-322.085	-61.919	-0.233	-0.096
-321.070	-200.000	-0.008	0.171
-320.056	800.000	0.075	0.239
-319.041	-200.000	0.002	0.042
-318.026	-200.000	-0.026	-0.336
-317.012	-200.000	-0.041	0.289
-315.997	54.535	0.030	0.028
-314.983	-200.000	-0.007	-0.267
-313.968	-25.772	0.175	-0.102
-312.953	-176.795	0.275	0.007
-311.939	243.577	-0.044	0.072
-310.924	-200.000	0.040	0.234
-309.910	88.785	0.281	0.308
-308.895	-65.816	0.215	0.085
-307.880	36.535	0.041	0.036
-306.866	687.055	0.078	0.201
-305.851	-49.346	-0.254	0.120
-304.837	-200.000	-0.030	0.162
-303.822	-200.000	0.005	-0.028
-302.807	800.000	0.140	-0.413
-301.793	-200.000	0.004	-0.076
-300.778	800.000	0.042	0.171
-299.764	-200.000	0.050	0.283
-298.749	-10.887	0.164	-0.107
-297.735	-200.000	0.023	0.415
-296.720	4.445	0.167	-0.121
-295.705	176.612	0.080	0.115
-294.691	-51.725	0.017	0.008
-293.676	800.000	0.029	-0.084
-292.662	-21.882	0.045	0.027
-291.647	-145.422	0.332	-0.029
-290.632	693.786	0.138	-0.356
-289.618	2.131	-0.260	-0.185
-288.603	-200.000	0.010	0.305
-287.589	-200.000	-0.081	0.359
-286.574	123.304	-0.135	-0.167
-285.559	-200.000	-0.003	-0.331
-284.545	177.831	-0.065	-0.093
-283.530	-153.395	-0.045	-0.003
-282.516	-19.670	0.137	-0.083
-281.501	-52.673	0.121	-0.055
-280.486	18.304	0.333	0.262
-279.472	-139.706	-0.279	-0.029
-278.457	179.695	-0.055	-0.079
-277.443	-130.767	0.150	-0.020
-276.428	-200.000	-0.020	0.143
-275.413	206.519	-0.166	0.255
-274.399	168.394	0.129	-0.182
-273.384	800.000	0.013	0.045
-272.370	-95.527	-0.218	-0.058
-271.355	-54.305	-0.295	-0.132
-270.340	253.815	0.176	0.297
-269.326	164.210	0.228	0.316
-268.311	-105.913	-0.524	-0.116
-267.297	-5.771	-0.379	-0.256
-266.282	-98.826	0.092	-0.023
-265.267	-54.077	-0.280	0.126
-264.253	-26.141	0.092	0.053
-263.238	-148.655	-0.117	0.009
-262.224	-4.434	-0.219	-0.149
-261.209	29.307	-0.224	0.187
-260.195	-18.205	-0.108	-0.067
-259.180	-170.877	0.148	-0.005
-258.165	477.081	0.174	0.387
-257.151	670.152	0.055	0.141
-256.136	588.261	0.013	0.031
-255.122	116.218	-0.296	-0.357
-254.107	-79.821	0.196	-0.065
-253.092	-200.000	-0.043	-0.213
-252.078	-135.487	-0.228	-0.027
-251.063	-200.000	-0.002	-0.024
-250.049	-82.703	-0.197	0.063
-249.034	-74.968	0.322	-0.114
-248.019	800.000	0.117	-0.364
-247.005	-200.000	0.016	-0.208
-245.990	-14.313	-0.299	-0.190
-244.976	-88.031	-0.134	-0.040
-243.961	-93.951	0.276	-0.075
-242.946	158.579	0.157	0.215
-241.932	-200.000	0.003	-0.137
-240.917	245.260	0.109	-0.181
-239.903	329.329	-0.102	-0.194
-238.888	-200.000	-0.015	-0.169
-237.873	200.273	-0.085	-0.128
-236.859	-101.213	-0.145	-0.035
-235.844	800.000	-0.075	0.283
-234.830	297.613	-0.123	0.221
-233.815	-200.000	-0.017	-0.129
-232.800	-200.000	-0.009	-0.269
-231.786	800.000	-0.033	0.094
-230.771	220.920	-0.135	0.213
-229.757	353.770	-0.056	0.109
-228.742	14.736	0.133	0.103
-227.727	-123.543	0.153	0.024
-226.713	9.369	0.228	-0.170
-225.698	-90.829	-0.147	-0.042
-224.684	800.000	-0.025	0.071
-223.669	173.090	-0.015	0.022
-222.655	209.907	0.216	0.333
-221.640	375.832	-0.092	-0.185
-220.625	800.000	0.025	-0.077
-219.611	7.019	0.281	0.206
-218.596	-200.000	0.007	0.274
-217.582	-200.000	-0.010	0.149
-216.567	800.000	-0.109	-0.326
-215.552	-99.066	0.046	0.011
-214.538	-2.288	0.289	0.199
-213.523	-110.860	-0.173	0.035
-212.509	-26.766	0.193	-0.111
-211.494	-16.847	0.137	0.085
-210.479	-200.000	0.001	0.098
-209.465	-75.006	0.195	0.069
-208.450	647.578	-0.126	0.316
-207.436	727.395	-0.146	-0.382
-206.421	-166.214	0.302	-0.013
-205.406	-100.737	0.266	0.064
-204.392	103.754	0.098	0.114
-203.377	800.000	-0.109	0.371
-202.363	75.653	-0.253	0.262
-201.348	-137.049	-0.174	-0.020
-200.333	118.192	0.046	0.056
-199.319	-200.000	-0.033	-0.239
-198.304	-200.000	0.002	0.118
-197.290	-56.788	0.381	-0.165
-196.275	800.000	0.068	0.209
-195.260	-110.951	0.234	0.047
-194.246	140.260	-0.078	0.102
-193.231	-200.000	0.006	0.032
-192.217	-28.924	-0.097	0.055
-191.202	-123.208	0.085	-0.013
-190.187	0.400	0.201	-0.141
-189.173	-71.334	0.159	0.058
-188.158	32.274	0.222	-0.188
-187.144	-46.435	0.116	-0.056
-186.129	-200.000	-0.008	-0.220
-185.114	-200.000	0.006	-0.097
-184.100	-200.000	-0.051	-0.221
-183.085	-67.545	0.204	-0.079
-182.071	78.038	-0.129	-0.135
-181.056	-106.625	0.195	-0.043
-180.042	290.984	0.105	0.187
-179.027	584.504	0.096	0.233
-178.012	-119.292	-0.225	0.038
-176.998	-75.110	0.203	-0.071
-175.983	-200.000	-0.009	0.307
-174.969	238.487	-0.177	-0.288
-173.954	-200.000	0.022	-0.331
-172.939	78.359	0.073	-0.076
-171.925	2.328	0.143	-0.101
-170.910	-73.210	-0.157	-0.056
-169.896	439.485	0.176	0.378
-168.881	94.381	-0.212	0.236
-167.866	48.048	0.129	0.118
-166.852	265.651	0.091	-0.156
-165.837	77.108	0.145	-0.151
-164.823	-200.000	-0.039	0.241
-163.808	-200.000	0.016	0.361
-162.793	5.925	-0.150	-0.109
-161.779	800.000	-0.048	0.166
-160.764	106.129	0.066	-0.076
-159.750	-200.000	-0.002	-0.366
-158.735	0.904	0.067	-0.047
-157.720	106.831	-0.125	-0.146
-156.706	346.438	0.072	0.139
-155.691	-25.110	-0.241	-0.140
-154.677	668.005	-0.065	0.165
-153.662	-101.684	0.389	-0.093
-152.647	-200.000	0.014	0.208
-151.633	-142.805	0.349	0.033
-150.618	401.222	-0.130	0.269
-149.604	254.055	-0.129	-0.217
-148.589	800.000	-0.034	0.094
-147.574	800.000	-0.062	-0.181
-146.560	23.017	-0.119	0.096
-145.545	-200.000	-0.021	0.182
-144.531	14.473	-0.230	0.176
-143.516	129.670	-0.233	-0.292
-142.502	-200.000	-0.039	-0.168
-141.487	251.754	-0.067	-0.111
-140.472	-172.875	-0.212	0.006
-139.458	-200.000	0.048	0.213
-138.443	-95.172	-0.122	0.032
-137.429	155.613	0.065	-0.087
-136.414	800.000	-0.054	-0.150
-135.399	65.845	-0.012	0.012
-134.385	-16.066	-0.222	-0.138
-133.370	-134.601	-0.160	-0.019
-132.356	-200.000	-0.002	0.139
-131.341	800.000	0.079	0.220
-130.326	-200.000	-0.068	0.367
-129.312	-77.677	-0.348	-0.118
-128.297	-200.000	0.050	-0.231
-127.283	-162.210	0.346	0.017
-126.268	-127.888	0.066	0.009
-125.253	-99.973	-0.159	0.039
-124.239	-38.558	-0.328	0.170
-123.224	-125.633	-0.169	-0.025
-122.210	156.492	0.201	0.272
-121.195	-200.000	0.038	0.333
-120.180	674.339	0.029	0.073
-119.166	-85.874	0.171	0.052
-118.151	-56.621	-0.041	0.018
-117.137	138.991	0.211	-0.271
-116.122	121.172	0.149	0.182
-115.107	19.860	-0.232	0.183
-114.093	-54.530	0.160	-0.071
-113.078	-110.737	0.105	0.021
-112.064	-200.000	-0.028	-0.176
-111.049	-47.937	0.123	0.058
-110.034	176.449	0.186	0.265
-109.020	-200.000	0.042	-0.188
-108.005	436.602	-0.068	0.145
-106.991	422.579	0.050	0.104
-105.976	-200.000	0.022	0.260
-104.962	303.292	0.103	-0.187
-103.947	-11.739	0.243	-0.156
-102.932	-138.403	0.148	-0.016
-101.918	561.514	0.076	-0.181
-100.903	-31.057	-0.085	0.047
-99.889	179.505	-0.039	-0.055
-98.874	-74.471	0.015	-0.005
-97.859	-200.000	-0.008	-0.317
-96.845	-67.536	0.461	-0.177
-95.830	-200.000	-0.038	-0.181
-94.816	-10.870	0.244	-0.158
-93.801	267.888	-0.073	-0.125
-92.786	-200.000	0.024	0.177
-91.772	-85.765	-0.358	0.109
-90.757	-50.876	-0.122	0.056
-89.743	55.777	0.216	0.205
-88.728	44.836	-0.038	0.034
-87.713	800.000	-0.089	-0.255
-86.699	-200.000	-0.726	-0.001
-85.684	13.773	0.253	-0.193
-84.670	-127.327	0.112	-0.016
-83.655	-6.233	0.311	0.208
-82.640	35.168	0.083	0.071
-81.626	1.791	0.324	-0.228
-80.611	145.226	-0.029	-0.038
-79.597	335.788	-0.073	0.138
-78.582	61.384	-0.332	0.323
-77.567	60.446	0.062	-0.060
-76.553	800.000	0.061	0.192
-75.538	-130.751	-0.247	0.032
-74.524	-200.000	0.032	-0.276
-73.509	-56.434	-0.091	-0.039
-72.494	414.678	-0.048	0.100
-71.480	800.000	0.094	0.277
-70.465	3.163	-0.191	-0.135
-69.451	223.611	0.079	0.124
-68.436	74.934	-0.068	0.070
-67.422	-200.000	-0.122	0.696
-66.407	-200.000	0.031	0.181
-65.392	393.146	0.150	-0.304
-64.378	-200.000	-0.035	-0.449
-63.363	92.480	-0.230	-0.254
-62.349	21.023	0.099	0.079
-61.334	210.274	-0.876	-1.344
-60.319	-10.204	0.494	0.320
-59.305	800.000	-0.339	-1.246
-58.290	121.234	0.819	0.996
-57.276	307.757	0.691	1.259
-56.261	-200.000	119.602	617.518
-55.246	391.393	1570.763	3186.374
-54.232	139.278	2750.792	3535.003
-53.217	96.845	2192.019	2453.756
-52.203	36.938	1617.314	1397.138
-51.188	28.608	1357.538	1122.001
-50.173	25.857	1318.361	1073.218
-49.159	51.423	1381.069	1281.221
-48.144	49.647	1393.409	1281.790
-47.130	28.783	1345.173	1112.667
-46.115	25.542	1326.829	1078.052
-45.100	25.172	1322.210	1072.046
-44.086	25.259	1319.179	1070.067
-43.071	25.102	1317.032	1067.345
-42.057	25.181	1315.391	1066.443
-41.042	25.190	1313.144	1064.632
-40.027	25.208	1311.544	1063.399
-39.013	25.167	1309.976	1061.841
-37.998	25.172	1308.216	1060.407
-36.984	25.185	1306.370	1058.942
-35.969	25.239	1304.804	1057.950
-34.954	25.280	1303.116	1056.780
-33.940	25.355	1301.416	1055.801
-32.925	25.382	1299.874	1054.668
-31.911	25.394	1298.212	1053.348
-30.896	25.349	1297.437	1052.414
-29.881	25.442	1295.988	1051.740
-28.867	25.425	1294.409	1050.319
-27.852	25.431	1292.706	1048.931
-26.838	25.451	1291.946	1048.390
-25.823	25.381	1290.290	1046.597
-24.809	25.436	1288.552	1045.462
-23.794	25.327	1287.805	1044.180
-22.779	25.384	1286.333	1043.275
-21.765	25.529	1285.109	1043.087
-20.750	25.421	1284.345	1041.797
-19.736	25.392	1282.357	1039.976
-18.721	25.252	1281.294	1038.260
-17.706	25.335	1280.109	1037.740
-16.692	25.320	1278.713	1036.481
-15.677	25.341	1278.062	1036.032
-14.663	25.272	1276.978	1034.713
-13.648	25.315	1275.400	1033.642
-12.633	25.301	1274.581	1032.857
-11.619	25.186	1273.747	1031.480
-10.604	25.294	1273.279	1031.678
-9.590	25.267	1271.859	1030.333
-8.575	25.198	1270.906	1029.127
-7.560	25.186	1270.226	1028.464
-6.546	25.320	1268.933	1028.147
-5.531	25.113	1268.582	1026.632
-4.517	25.347	1266.979	1026.634
-3.502	25.421	1266.453	1026.591
-2.487	25.273	1265.378	1024.833
-1.473	25.366	1261.567	1022.238
-0.458	24.057	1247.141	1003.137
0.556	19.868	1231.546	967.570
1.571	16.437	1238.770	953.831
2.586	15.548	1254.274	960.599
3.600	15.372	1243.513	951.275
4.615	11.657	1169.410	874.666
5.629	4.407	1096.080	783.275
6.644	1.072	1077.276	753.210
7.659	0.657	1075.623	749.930
8.673	0.675	1074.372	749.083
9.688	0.767	1073.537	748.887
10.702	0.973	1071.056	748.111
11.717	5.269	1076.310	773.007
12.731	12.396	1085.634	815.096
13.746	16.454	1090.419	838.793
14.761	17.238	1091.593	843.519
15.775	16.658	1089.590	839.019
16.790	15.492	1088.168	832.077
17.804	14.959	1085.791	827.547
18.819	14.506	1085.184	824.771
19.834	14.351	1083.825	822.899
20.848	14.142	1083.525	821.568
21.863	13.908	1081.966	819.161
22.877	13.613	1081.703	817.433
23.892	13.601	1080.846	816.655
24.907	13.610	1080.018	816.002
25.921	13.716	1079.218	815.844
26.936	13.631	1078.633	814.914
27.950	13.750	1077.634	814.668
28.965	13.895	1076.211	814.231
29.980	13.851	1074.885	812.945
30.994	13.831	1073.923	812.045
32.009	13.909	1072.768	811.481
33.023	13.971	1071.425	810.698
34.038	13.850	1070.700	809.487
35.053	13.729	1069.902	808.222
36.067	13.871	1068.665	807.906
37.082	13.806	1068.498	807.392
38.096	13.766	1067.621	806.465
39.111	13.784	1066.472	805.615
40.126	13.793	1065.303	804.700
41.140	13.727	1064.313	803.565
42.155	13.604	1063.206	802.061
43.169	13.605	1062.215	801.248
44.184	13.580	1061.656	800.633
45.199	13.565	1060.223	799.408
46.213	13.694	1059.058	799.082
47.228	13.726	1057.673	798.123
48.242	13.726	1056.973	797.523
49.257	13.728	1056.013	796.734
50.271	13.784	1055.087	796.239
51.286	13.756	1054.379	795.498
52.301	13.669	1053.426	794.289
53.315	13.771	1051.984	793.623
54.330	13.727	1051.214	792.760
55.344	13.712	1050.234	791.881
56.359	13.726	1049.296	791.170
57.374	13.696	1048.398	790.280
58.388	13.635	1047.528	789.261
59.403	13.652	1046.559	788.546
60.417	13.528	1046.200	787.615
61.432	13.610	1045.176	787.161
62.447	13.643	1044.334	786.615
63.461	13.604	1043.310	785.591
64.476	13.603	1042.357	784.798
65.490	13.712	1041.218	784.384
66.505	13.599	1040.614	783.329
67.520	13.714	1040.254	783.531
68.534	13.733	1039.593	783.051
69.549	13.623	1038.974	781.999
70.563	13.609	1038.077	781.186
71.578	13.675	1036.516	780.254
72.593	13.619	1036.258	779.726
73.607	13.485	1035.977	778.815
74.622	13.588	1034.977	778.482
75.636	13.523	1034.496	777.747
76.651	13.607	1033.950	777.661
77.666	13.636	1033.143	777.119
78.680	13.579	1032.264	776.125
79.695	13.641	1032.044	776.177
80.709	13.708	1031.441	775.969
81.724	13.756	1030.557	775.461
82.739	13.747	1029.401	774.483
83.753	13.813	1028.615	774.129
84.768	13.883	1027.807	773.781
85.782	13.793	1026.943	772.641
86.797	13.764	1026.169	771.854
87.812	13.646	1025.340	770.616
88.826	13.766	1024.210	770.254
89.841	13.722	1023.605	769.526
90.855	13.767	1022.463	768.809
91.870	14.009	1021.170	768.890
92.884	13.923	1020.301	767.768
93.899	13.976	1019.576	767.400
94.914	13.983	1019.035	766.959
95.928	13.862	1017.876	765.458
96.943	13.886	1017.175	764.973
97.957	13.831	1016.486	764.135
98.972	13.900	1015.535	763.671
99.987	13.833	1014.440	762.473
101.001	13.766	1013.806	761.622
102.016	13.812	1012.817	761.020
103.030	13.850	1011.938	760.467
104.045	13.970	1011.028	760.264
105.060	13.819	1010.264	758.934
106.074	13.781	1009.265	757.940
107.089	13.752	1007.998	756.792
108.103	13.736	1007.324	756.146
109.118	13.913	1006.037	755.920
110.133	13.760	1005.591	754.818
111.147	13.673	1004.660	753.659
112.162	13.737	1003.601	753.089
113.176	13.733	1003.044	752.587
114.191	13.838	1002.227	752.383
115.206	13.831	1001.332	751.611
116.220	13.823	1000.574	750.940
117.235	13.763	999.795	750.016
118.249	13.835	998.628	749.400
119.264	13.796	998.297	748.910
120.279	13.711	997.878	748.145
121.293	13.690	996.750	747.140
122.308	13.842	995.713	746.981
123.322	13.770	994.699	745.832
124.337	13.884	993.388	745.294
125.352	13.900	992.486	744.620
126.366	13.761	991.270	743.020
127.381	13.625	990.597	741.844
128.395	13.674	989.425	741.121
129.410	13.780	988.730	741.004
130.424	13.942	987.244	740.550
131.439	13.863	986.706	739.727
132.454	13.962	985.737	739.377
133.468	13.916	985.243	738.734
134.483	13.826	984.377	737.619
135.497	13.777	983.818	736.920
136.512	13.751	982.700	735.903
137.527	13.864	981.670	735.567
138.541	13.848	980.997	734.926
139.556	13.897	980.281	734.540
140.570	13.932	979.606	734.126
141.585	13.974	978.712	733.574
142.600	14.050	977.253	732.754
143.614	13.989	976.919	732.168
144.629	13.977	976.023	731.380
145.643	14.056	975.267	731.095
146.658	13.967	973.911	729.621
147.673	14.020	972.865	729.007
148.687	14.051	972.129	728.527
149.702	14.011	971.188	727.583
150.716	13.967	970.758	727.003
151.731	13.981	969.747	726.245
152.746	14.011	969.055	725.793
153.760	14.083	968.742	725.806
154.775	14.201	967.802	725.555
155.789	14.035	967.659	724.659
156.804	14.071	966.374	723.788
157.819	14.134	965.791	723.561
158.833	14.164	965.514	723.422
159.848	14.159	964.505	722.580
160.862	14.176	963.419	721.777
161.877	14.125	962.439	720.757
162.892	13.998	961.764	719.639
163.906	14.126	960.988	719.545
164.921	14.187	959.988	718.998
165.935	14.074	959.357	717.974
166.950	14.115	958.236	717.247
167.964	14.171	957.457	716.844
168.979	14.190	956.193	715.913
169.994	14.213	955.551	715.470
171.008	14.086	955.071	714.502
172.023	14.261	954.173	714.516
173.037	14.293	953.377	713.994
174.052	14.409	952.286	713.610
175.067	14.326	952.087	713.044
176.081	14.189	951.446	711.915
177.096	14.171	951.302	711.667
178.110	14.127	950.289	710.658
179.125	14.093	949.674	709.991
180.140	14.281	949.266	710.427
181.154	14.268	948.799	709.956
182.169	14.369	948.274	709.933
183.183	14.471	947.023	709.366
184.198	14.448	946.827	709.058
185.213	14.498	945.840	708.468
186.227	14.485	945.522	708.113
187.242	14.553	944.801	707.799
188.256	14.367	944.909	707.028
189.271	14.508	943.207	706.290
190.286	14.398	942.431	705.181
191.300	14.194	942.058	703.974
192.315	14.354	941.612	704.258
193.329	14.362	940.913	703.706
194.344	14.312	940.100	702.825
195.359	14.301	940.014	702.650
196.373	14.462	939.109	702.592
197.388	14.534	938.458	702.345
198.402	14.538	938.243	702.139
199.417	14.557	937.248	701.410
200.432	14.693	936.577	701.421
201.446	14.524	936.554	700.630
202.461	14.821	935.054	700.690
203.475	14.702	935.008	700.096
204.490	14.607	934.643	699.363
205.504	14.619	933.528	698.516
206.519	14.658	932.778	698.059
207.534	14.681	931.988	697.500
208.548	14.759	931.169	697.150
209.563	14.801	930.446	696.723
210.577	14.762	929.973	696.144
211.592	14.857	929.284	695.963
212.607	14.882	928.574	695.475
213.621	14.837	927.646	694.531
214.636	14.726	927.200	693.676
215.650	14.922	926.240	693.707
216.665	14.847	926.012	693.163
217.680	14.930	924.535	692.340
218.694	14.903	924.251	691.956
219.709	14.895	923.837	691.549
220.723	14.928	923.096	691.071
221.738	14.897	922.148	690.172
222.753	14.918	921.831	689.960
223.767	14.989	920.883	689.483
224.782	15.036	920.362	689.227
225.796	15.017	919.705	688.595
226.811	14.993	919.276	688.116
227.826	15.034	918.472	687.618
228.840	15.079	917.375	686.924
229.855	14.868	916.797	685.561
230.869	15.068	915.852	685.613
231.884	15.112	915.213	685.257
232.899	15.046	914.495	684.388
233.913	15.102	913.921	684.127
234.928	15.085	913.222	683.472
235.942	15.025	912.861	682.900
236.957	15.017	912.034	682.185
237.972	14.984	911.905	681.894
238.986	15.078	910.710	681.321
240.001	15.162	909.919	681.012
241.015	15.075	909.788	680.503
242.030	15.155	909.024	680.194
243.045	15.233	908.133	679.782
244.059	15.117	907.761	678.975
245.074	15.189	907.416	678.949
246.088	15.255	906.225	678.265
247.103	15.167	905.955	677.646
248.117	15.325	905.217	677.673
249.132	15.443	903.881	677.089
250.147	15.371	904.003	676.832
251.161	15.548	903.041	676.761
252.176	15.353	902.474	675.494
253.190	15.444	901.793	675.289
254.205	15.433	900.990	674.585
255.220	15.441	900.533	674.215
256.234	15.511	899.786	673.876
257.249	15.595	898.971	673.541
258.263	15.496	898.199	672.508
259.278	15.719	897.284	672.657
260.293	15.573	897.032	671.824
261.307	15.653	896.218	671.475
262.322	15.564	896.032	670.918
263.336	15.730	895.023	670.767
264.351	15.715	894.106	669.960
265.366	15.838	893.363	669.834
266.380	15.634	893.333	668.939
267.395	15.808	892.252	668.763
268.409	15.714	891.676	667.901
269.424	15.838	890.716	667.614
270.439	15.744	890.219	666.811
271.453	15.694	889.655	666.130
272.468	15.733	889.110	665.817
273.482	15.830	888.298	665.535
274.497	15.868	887.809	665.259
275.512	15.612	887.174	663.714
276.526	15.725	887.141	664.078
277.541	15.785	886.328	663.645
278.555	15.893	885.524	663.410
279.570	16.014	884.403	662.988
280.585	15.927	883.925	662.228
281.599	15.843	883.599	661.596
282.614	15.954	882.578	661.208
283.628	16.035	881.950	660.998
284.643	16.079	881.025	660.418
285.657	16.080	880.993	660.340
286.672	16.073	880.214	659.669
287.687	16.080	879.532	659.126
288.701	15.844	879.111	657.831
289.716	16.025	878.671	658.150
290.730	16.047	877.988	657.665
291.745	16.133	876.792	657.048
292.760	16.138	876.630	656.886
293.774	16.105	875.710	656.011
294.789	16.155	875.163	655.739
295.803	16.053	874.737	654.966
296.818	16.289	873.709	655.052
297.833	16.085	873.104	653.748
298.847	16.244	872.735	654.031
299.862	16.162	872.039	653.137
300.876	16.196	871.751	652.992
301.891	16.165	871.150	652.364
302.906	16.180	870.467	651.854
303.920	16.394	869.701	652.048
304.935	16.343	869.057	651.311
305.949	16.485	868.396	651.306
306.964	16.372	867.754	650.332
307.979	16.303	867.535	649.846
308.993	16.386	866.986	649.694
310.008	16.363	866.166	648.933
311.022	16.434	865.667	648.775
312.037	16.401	865.091	648.160
313.052	16.465	864.170	647.658
314.066	16.525	863.653	647.445
315.081	16.427	863.430	646.845
316.095	16.436	862.725	646.294
317.110	16.400	861.978	645.540
318.125	16.451	861.875	645.599
319.139	16.372	861.638	645.064
320.154	16.494	860.707	644.772
321.168	16.408	860.460	644.202
322.183	16.510	859.887	644.106
323.197	16.478	859.354	643.528
324.212	16.457	858.663	642.875
325.227	16.503	858.125	642.589
326.241	16.464	857.341	641.798
327.256	16.579	856.622	641.640
328.270	16.511	856.463	641.203
329.285	16.526	855.541	640.515
330.300	16.552	854.783	639.988
331.314	16.694	854.162	640.003
332.329	16.622	854.080	639.614
333.343	16.674	853.499	639.319
334.358	16.622	853.224	638.861
335.373	16.625	852.747	638.456
336.387	16.618	852.333	638.064
337.402	16.658	852.274	638.114
338.416	16.665	851.986	637.869
339.431	16.823	851.364	637.940
340.446	16.920	850.979	637.962
341.460	16.865	850.672	637.468
342.475	16.917	850.273	637.308
343.489	16.951	849.583	636.864
344.504	16.922	849.076	636.317
345.519	16.900	848.494	635.741
346.533	17.047	847.768	635.694
347.548	16.972	847.245	634.964
348.562	16.984	847.302	634.996
349.577	16.875	846.667	634.053
350.592	16.895	846.265	633.773
351.606	16.915	844.948	632.805
352.621	16.959	844.505	632.583
353.635	16.945	843.900	632.020
354.650	16.897	843.081	631.172
355.665	16.841	842.635	630.574
356.679	16.949	842.054	630.486
357.694	17.147	841.203	630.527
358.708	16.901	840.970	629.384
359.723	16.963	840.204	628.984
360.738	17.113	839.376	628.865
361.752	17.184	838.622	628.508
362.767	17.079	838.353	627.860
363.781	17.339	837.876	628.409
364.796	17.107	837.210	626.998
365.810	17.355	836.990	627.694
366.825	17.419	836.317	627.370
367.840	17.278	835.895	626.478
368.854	17.261	835.729	626.236
369.869	17.182	835.335	625.592
370.883	17.319	834.756	625.608
371.898	17.302	834.226	625.095
372.913	17.428	833.841	625.214
373.927	17.426	833.300	624.743
374.942	17.349	833.032	624.204
375.956	17.581	832.297	624.451
376.971	17.453	831.918	623.641
377.986	17.415	831.918	623.445
379.000	17.472	831.039	622.942
380.015	17.574	830.528	622.875
381.029	17.604	830.438	622.862
382.044	17.542	829.746	622.062
383.059	17.671	828.504	621.547
384.073	17.607	828.137	620.984
385.088	17.397	827.865	619.961
386.102	17.604	826.884	619.921
387.117	17.596	826.772	619.756
388.132	17.587	826.157	619.205
389.146	17.531	825.753	618.645
390.161	17.730	824.928	618.696
391.175	17.531	824.868	617.873
392.190	17.585	823.689	617.129
393.205	17.616	823.463	617.017
394.219	17.808	823.275	617.518
395.234	17.662	822.951	616.693
396.248	17.574	822.602	616.058
397.263	17.676	821.972	615.901
398.278	17.758	821.449	615.750
399.292	17.629	821.196	615.042
400.307	17.821	820.750	615.346
401.321	17.723	819.868	614.276
402.336	17.712	819.556	613.949
403.350	17.814	819.023	613.863
404.365	17.994	818.617	614.151
405.380	17.876	818.266	613.407
406.394	17.880	817.749	612.981
407.409	17.898	817.132	612.527
408.423	17.896	817.280	612.578
409.438	17.974	816.628	612.314
410.453	18.104	815.899	612.181
411.467	18.022	815.526	611.553
412.482	18.098	815.297	611.599
413.496	18.014	815.135	611.123
414.511	18.125	814.587	611.054
415.526	18.087	814.002	610.426
416.540	18.013	813.649	609.843
417.555	18.150	812.941	609.746
418.569	18.089	812.636	609.245
419.584	18.258	812.024	609.335
420.599	18.201	811.681	608.821
421.613	114.991	1297.112	1487.630
422.628	99.567	1367.770	1487.702
