DTS Sentinel unit serial number:	SN413079Multiplexer serial number:	ORYXHardware model number:	OX4-SRSoftware version number:	ORYX F/W v4.00 Oryx Data Collector v3.7.2.0data status	okinstallation	princeton_trtdifferential loss correction	single-endedforward channel	channel 1reverse channel	N/Adate	2019/09/13time	00:54:35forward acquisition time	60.00reverse acquisition time	0.00gamma	496.2192k internal	0.2330k external	0.2330temperature offset calibration	1.0140default loss term (dB/km)	0.3790temperature slope calibration	1.0000multiplexer offset coefficient	1.0000multiplexer slope coefficient	1.0000fibre end	0.00T internal ref (°C)	28.14T ext. ref 1 (°C)	3.64T ext. ref 2 (°C)	22.61length (m)	temperature (°C)	Stokes	anti-Stokes-747.200	128.019	0.090	-0.115
-746.185	4.796	0.064	0.048
-745.171	76.869	-0.137	0.147
-744.156	382.136	0.044	-0.090
-743.142	-200.000	0.011	0.120
-742.127	318.285	0.063	-0.120
-741.112	5.815	-0.316	0.235
-740.098	-147.359	0.206	0.018
-739.083	800.000	0.141	-0.433
-738.069	6.446	-0.146	0.109
-737.054	800.000	-0.038	0.162
-736.039	-55.510	-0.213	0.096
-735.025	-96.088	-0.189	0.051
-734.010	17.632	-0.180	0.144
-732.996	188.669	0.012	0.019
-731.981	92.953	-0.151	-0.172
-730.966	-111.593	0.148	0.030
-729.952	-108.706	-0.192	-0.041
-728.937	800.000	0.051	-0.178
-727.923	-41.751	-0.174	-0.090
-726.908	-200.000	0.050	-0.240
-725.894	-159.689	-0.301	-0.017
-724.879	197.763	0.171	-0.263
-723.864	800.000	-0.028	0.100
-722.850	201.125	-0.275	-0.426
-721.835	-200.000	-0.047	-0.231
-720.821	800.000	0.025	-0.075
-719.806	-93.351	0.211	0.059
-718.791	54.835	0.050	-0.048
-717.777	-62.906	-0.342	-0.142
-716.762	618.761	-0.052	-0.132
-715.748	634.613	-0.128	-0.327
-714.733	464.543	0.126	-0.284
-713.718	268.204	0.090	0.158
-712.704	-23.953	-0.252	0.152
-711.689	-107.567	-0.151	-0.033
-710.675	-200.000	-0.053	-0.407
-709.660	29.707	0.278	-0.238
-708.645	271.917	-0.153	-0.271
-707.631	-54.724	-0.412	-0.187
-706.616	63.462	-0.100	-0.101
-705.602	-197.258	-0.288	0.002
-704.587	-200.000	0.159	-0.001
-703.572	160.586	-0.114	-0.160
-702.558	-159.880	-0.505	0.028
-701.543	-200.000	0.027	0.159
-700.529	74.884	-0.312	-0.330
-699.514	-200.000	-0.066	0.320
-698.499	-130.363	-0.162	-0.022
-697.485	-200.000	0.031	0.152
-696.470	800.000	0.008	-0.026
-695.456	-33.743	0.351	-0.194
-694.441	-22.470	-0.177	0.108
-693.426	-120.340	0.103	0.018
-692.412	10.260	0.131	0.100
-691.397	81.011	0.329	-0.357
-690.383	15.924	-0.175	-0.139
-689.368	99.118	-0.284	0.329
-688.354	-34.366	-0.129	-0.071
-687.339	-95.376	-0.212	0.057
-686.324	26.285	-0.136	-0.114
-685.310	-200.000	0.006	-0.265
-684.295	-91.325	-0.143	0.041
-683.281	115.161	-0.236	0.289
-682.266	57.882	-0.219	-0.216
-681.251	148.461	-0.242	0.328
-680.237	-16.126	-0.117	-0.074
-679.222	800.000	0.026	-0.077
-678.208	66.377	-0.224	0.228
-677.193	209.628	-0.153	-0.240
-676.178	6.003	0.210	0.156
-675.164	-73.349	-0.223	-0.082
-674.149	-67.673	0.135	-0.053
-673.135	-103.510	0.284	0.067
-672.120	174.509	0.243	0.353
-671.105	-31.387	-0.305	-0.172
-670.091	-186.112	0.186	0.003
-669.076	-150.610	-0.154	0.012
-668.062	421.145	-0.129	0.277
-667.047	10.403	0.127	-0.097
-666.032	120.621	-0.122	0.152
-665.018	153.170	0.097	-0.133
-664.003	-200.000	0.050	-0.243
-662.989	-95.640	-0.045	0.012
-661.974	141.667	0.228	-0.304
-660.959	-111.518	0.152	-0.031
-659.945	55.743	-0.050	-0.048
-658.930	-120.416	-0.198	-0.034
-657.916	-162.266	0.472	0.024
-656.901	-200.000	0.038	0.321
-655.886	-144.608	0.198	0.018
-654.872	-200.000	0.083	-0.371
-653.857	-200.000	-0.030	0.339
-652.843	800.000	-0.100	0.280
-651.828	623.437	0.060	0.153
-650.814	94.494	0.211	-0.240
-649.799	-138.741	-0.293	0.032
-648.784	-102.849	-0.069	0.017
-647.770	-111.981	0.325	-0.066
-646.755	19.188	0.389	0.313
-645.741	65.495	-0.183	0.186
-644.726	554.740	-0.061	-0.148
-643.711	-29.369	0.358	0.205
-642.697	116.614	-0.087	0.107
-641.682	-143.067	-0.238	-0.023
-640.668	452.365	-0.057	-0.127
-639.653	42.034	-0.188	-0.171
-638.638	800.000	-0.073	0.222
-637.624	299.879	0.099	-0.182
-636.609	24.899	-0.156	-0.129
-635.595	-200.000	0.012	0.205
-634.580	104.686	0.184	-0.218
-633.565	-110.349	-0.200	-0.042
-632.551	-96.748	-0.176	-0.046
-631.536	374.473	-0.165	-0.338
-630.522	152.553	-0.029	0.039
-629.507	647.357	0.041	-0.106
-628.492	-200.000	0.030	0.161
-627.478	319.065	0.073	-0.138
-626.463	-200.000	-0.043	0.314
-625.449	28.749	-0.355	-0.301
-624.434	-109.739	0.233	0.049
-623.419	800.000	-0.060	0.192
-622.405	209.739	-0.055	-0.086
-621.390	76.273	-0.123	-0.131
-620.376	507.923	0.156	-0.363
-619.361	4.451	-0.051	-0.037
-618.346	6.756	-0.213	-0.159
-617.332	800.000	0.113	-0.338
-616.317	-113.247	0.215	-0.042
-615.303	156.214	-0.045	-0.062
-614.288	510.316	0.092	-0.214
-613.273	800.000	-0.044	-0.186
-612.259	101.444	-0.253	-0.295
-611.244	-14.712	0.190	0.122
-610.230	-200.000	-0.018	-0.196
-609.215	800.000	0.107	0.441
-608.201	98.062	0.179	-0.206
-607.186	-49.293	-0.158	-0.076
-606.171	77.591	0.059	0.063
-605.157	-35.149	0.137	-0.075
-604.142	-200.000	-0.031	0.294
-603.128	-60.223	0.020	0.008
-602.113	-200.000	-0.014	0.228
-601.098	502.788	0.111	-0.258
-600.084	-135.610	-0.179	-0.021
-599.069	-12.018	-0.170	-0.111
-598.055	-44.241	-0.334	0.168
-597.040	-110.324	-0.238	-0.049
-596.025	49.844	-0.206	-0.195
-595.011	-55.239	0.123	0.056
-593.996	800.000	-0.061	-0.201
-592.982	-153.155	-0.285	-0.020
-591.967	71.204	-0.074	-0.076
-590.952	-200.000	0.022	-0.138
-589.938	620.067	-0.061	-0.154
-588.923	-200.000	0.002	-0.054
-587.909	-77.350	-0.261	-0.091
-586.894	23.717	0.055	-0.045
-585.879	-200.000	0.016	-0.446
-584.865	208.988	0.088	-0.138
-583.850	-17.116	0.187	0.118
-582.836	-57.031	-0.010	-0.004
-581.821	-200.000	-0.017	0.147
-580.806	-200.000	-0.002	-0.041
-579.792	357.050	-0.090	0.179
-578.777	-53.678	0.047	0.022
-577.763	141.255	-0.077	-0.102
-576.748	800.000	0.093	-0.273
-575.733	-37.833	0.264	-0.141
-574.719	59.374	0.232	-0.229
-573.704	70.365	0.254	-0.262
-572.690	-76.301	-0.122	-0.043
-571.675	-120.281	-0.254	0.043
-570.661	548.935	-0.093	0.222
-569.646	270.501	-0.104	-0.183
-568.631	-200.000	0.020	0.172
-567.617	164.061	-0.120	-0.169
-566.602	172.117	0.194	-0.279
-565.588	95.687	-0.218	-0.248
-564.573	-37.392	-0.180	0.096
-563.558	17.434	0.244	0.194
-562.544	800.000	-0.048	-0.173
-561.529	-149.842	-0.359	-0.028
-560.515	-106.162	0.249	-0.056
-559.500	593.289	0.031	0.076
-558.485	-200.000	0.017	-0.279
-557.471	115.122	0.101	0.123
-556.456	-200.000	0.013	-0.251
-555.442	800.000	0.086	-0.264
-554.427	-2.174	-0.237	-0.166
-553.412	-100.668	0.160	0.039
-552.398	-200.000	-0.011	-0.196
-551.383	800.000	0.094	-0.367
-550.369	199.436	0.093	-0.142
-549.354	-140.129	-0.221	-0.023
-548.339	-92.397	-0.256	-0.072
-547.325	-200.000	0.028	0.269
-546.310	467.283	-0.040	-0.089
-545.296	84.623	-0.115	-0.126
-544.281	-116.357	0.549	0.102
-543.266	-158.534	-0.317	0.018
-542.252	800.000	0.049	-0.149
-541.237	-82.254	0.240	0.078
-540.223	-200.000	0.002	-0.179
-539.208	-200.000	0.139	-0.000
-538.193	-200.000	-0.002	-0.083
-537.179	-200.000	-0.021	0.109
-536.164	-139.673	-0.105	-0.011
-535.150	25.923	0.184	0.153
-534.135	26.941	-0.165	-0.138
-533.121	-200.000	0.006	0.068
-532.106	111.799	0.090	-0.109
-531.091	800.000	-0.071	-0.218
-530.077	-80.117	-0.141	0.047
-529.062	-59.581	0.325	-0.139
-528.048	-97.951	0.174	0.045
-527.033	47.201	-0.171	0.159
-526.018	-200.000	-0.019	0.283
-525.004	244.036	-0.136	-0.228
-523.989	800.000	0.013	0.053
-522.975	8.952	-0.149	0.113
-521.960	-144.457	-0.503	-0.047
-520.945	-200.000	-0.022	0.149
-519.931	-26.713	-0.246	0.144
-518.916	95.558	0.171	-0.195
-517.902	800.000	-0.024	-0.097
-516.887	97.342	0.163	0.187
-515.872	85.341	0.087	0.096
-514.858	-40.743	0.164	0.085
-513.843	326.738	-0.101	-0.193
-512.829	577.284	0.111	-0.270
-511.814	-148.593	0.314	0.026
-510.799	-200.000	0.021	0.145
-509.785	487.574	0.108	-0.246
-508.770	-34.379	0.241	-0.132
-507.756	-20.742	-0.119	0.073
-506.741	6.632	0.133	0.098
-505.726	-168.870	-0.133	-0.005
-504.712	35.962	-0.227	-0.199
-503.697	-114.240	-0.250	0.048
-502.683	8.743	0.316	-0.238
-501.668	19.001	-0.159	0.127
-500.653	-150.609	0.027	-0.002
-499.639	107.547	0.081	-0.096
-498.624	800.000	0.077	0.310
-497.610	-200.000	-0.042	0.185
-496.595	-3.404	-0.098	-0.068
-495.581	256.017	-0.042	-0.072
-494.566	800.000	-0.032	-0.136
-493.551	35.013	-0.152	0.133
-492.537	45.256	0.127	0.117
-491.522	-200.000	-0.003	0.182
-490.508	27.127	0.159	0.133
-489.493	80.487	0.065	-0.070
-488.478	-109.906	0.183	0.038
-487.464	300.573	0.126	-0.233
-486.449	800.000	0.069	0.293
-485.435	-120.080	0.091	-0.016
-484.420	-67.698	-0.282	-0.110
-483.405	-42.841	-0.121	-0.062
-482.391	376.709	0.098	0.199
-481.376	36.043	0.213	0.187
-480.362	503.823	-0.092	-0.212
-479.347	-89.372	-0.168	0.049
-478.332	-200.000	0.050	0.257
-477.318	-200.000	-0.019	0.369
-476.303	800.000	-0.055	-0.221
-475.289	-200.000	0.015	-0.326
-474.274	-118.930	0.302	0.053
-473.259	-200.000	0.006	-0.174
-472.245	800.000	0.038	0.141
-471.230	-200.000	0.033	0.165
-470.216	800.000	0.052	-0.225
-469.201	-99.085	0.139	0.035
-468.186	-86.273	-0.124	0.038
-467.172	800.000	-0.074	-0.283
-466.157	-147.720	-0.233	0.019
-465.143	-129.337	0.189	0.026
-464.128	-200.000	0.023	0.133
-463.113	70.306	0.165	0.170
-462.099	144.614	-0.170	-0.226
-461.084	-95.574	0.178	0.047
-460.070	-111.878	-0.285	0.057
-459.055	-200.000	-0.037	0.272
-458.040	800.000	0.024	0.093
-457.026	-5.304	-0.278	-0.190
-456.011	-144.163	0.399	-0.037
-454.997	477.999	0.082	0.185
-453.982	-148.402	0.135	0.011
-452.968	688.962	-0.052	0.136
-451.953	-200.000	0.003	-0.079
-450.938	-62.516	-0.358	0.148
-449.924	-200.000	0.018	0.252
-448.909	613.894	0.045	-0.111
-447.895	-106.116	-0.093	0.021
-446.880	173.233	-0.231	0.331
-445.865	-200.000	-0.079	0.400
-444.851	75.851	0.217	0.228
-443.836	430.973	-0.058	-0.126
-442.822	-200.000	0.010	-0.211
-441.807	-133.874	-0.280	-0.035
-440.792	-105.093	-0.171	-0.039
-439.778	248.758	-0.211	0.356
-438.763	-153.321	0.365	0.025
-437.749	-89.710	0.317	-0.092
-436.734	800.000	-0.097	-0.395
-435.719	-26.423	0.249	0.145
-434.705	661.581	-0.037	0.095
-433.690	-74.037	-0.204	-0.073
-432.676	34.678	0.082	0.071
-431.661	-40.743	0.056	0.029
-430.646	87.822	-0.140	0.155
-429.632	-9.628	-0.367	-0.243
-428.617	-200.000	-0.004	0.112
-427.603	0.073	0.101	-0.071
-426.588	77.748	0.071	-0.075
-425.573	800.000	0.022	-0.095
-424.559	304.483	0.087	0.160
-423.544	175.922	0.030	-0.044
-422.530	-89.288	-0.163	0.048
-421.515	239.178	0.023	0.038
-420.500	-66.483	-0.179	-0.071
-419.486	20.742	-0.047	-0.038
-418.471	800.000	0.080	0.281
-417.457	84.445	0.137	-0.148
-416.442	-6.969	-0.157	0.106
-415.428	65.253	0.072	-0.073
-414.413	-52.726	0.238	-0.109
-413.398	-62.659	-0.149	-0.062
-412.384	-49.826	0.229	0.108
-411.369	-128.494	-0.331	-0.047
-410.355	366.401	-0.074	-0.149
-409.340	213.443	-0.077	0.121
-408.325	-61.622	0.286	0.119
-407.311	115.915	0.073	0.089
-406.296	-10.964	-0.172	0.113
-405.282	-200.000	0.025	0.169
-404.267	91.485	0.140	0.157
-403.252	16.094	-0.357	0.279
-402.238	432.801	0.083	-0.179
-401.223	-126.271	0.184	-0.027
-400.209	-62.685	0.368	0.151
-399.194	341.508	-0.089	0.174
-398.179	-125.363	-0.115	-0.017
-397.165	5.066	0.177	0.130
-396.150	-200.000	0.026	0.208
-395.136	-39.999	-0.043	-0.022
-394.121	82.482	0.090	-0.097
-393.106	56.691	-0.015	0.015
-392.092	800.000	0.132	0.428
-391.077	-130.499	-0.197	-0.027
-390.063	-107.153	0.215	-0.047
-389.048	-20.258	-0.378	-0.231
-388.033	-76.353	0.422	-0.148
-387.019	3.203	-0.311	-0.224
-386.004	332.499	-0.070	-0.134
-384.990	-14.304	0.125	0.080
-383.975	149.850	-0.054	0.072
-382.960	-60.599	0.277	0.117
-381.946	204.752	0.035	0.054
-380.931	572.078	-0.200	0.485
-379.917	178.390	0.184	0.267
-378.902	-200.000	0.071	0.342
-377.888	111.576	-0.236	0.282
-376.873	590.949	0.148	0.363
-375.858	800.000	0.014	-0.053
-374.844	800.000	0.118	0.346
-373.829	-200.000	-0.040	-0.206
-372.815	800.000	0.030	0.101
-371.800	83.773	0.232	-0.251
-370.785	68.970	-0.197	-0.201
-369.771	-161.495	-0.135	0.007
-368.756	85.046	-0.246	0.267
-367.742	-57.717	0.092	0.040
-366.727	-79.080	0.222	0.075
-365.712	800.000	-0.028	0.102
-364.698	-129.551	0.100	-0.014
-363.683	86.951	-0.138	-0.151
-362.669	-200.000	-0.028	-0.187
-361.654	121.397	-0.152	0.187
-360.639	-147.686	0.330	0.028
-359.625	85.986	0.128	0.140
-358.610	800.000	0.087	0.344
-357.596	210.079	-0.087	0.135
-356.581	-98.694	-0.131	-0.033
-355.566	-200.000	-0.063	0.285
-354.552	-200.000	0.000	-0.033
-353.537	-200.000	-0.056	0.263
-352.523	117.847	-0.177	-0.216
-351.508	192.828	-0.168	-0.252
-350.493	-118.043	0.191	-0.034
-349.479	-200.000	0.084	0.403
-348.464	800.000	-0.002	-0.010
-347.450	292.209	-0.150	-0.270
-346.435	-35.304	-0.218	-0.118
-345.420	-35.290	-0.363	0.196
-344.406	-200.000	0.013	-0.272
-343.391	800.000	0.057	-0.240
-342.377	-165.411	-0.245	-0.011
-341.362	-44.635	-0.178	0.088
-340.348	382.581	0.084	-0.171
-339.333	438.370	0.099	-0.214
-338.318	330.379	-0.051	0.096
-337.304	800.000	0.052	-0.166
-336.289	336.961	0.010	0.019
-335.275	-200.000	-0.035	-0.341
-334.260	-104.018	-0.154	-0.036
-333.245	-186.641	0.142	0.002
-332.231	-27.126	0.136	-0.078
-331.216	-148.671	-0.218	0.018
-330.202	-126.377	0.266	-0.039
-329.187	74.752	0.088	0.091
-328.172	93.634	0.243	-0.272
-327.158	-65.676	0.133	0.053
-326.143	-82.075	-0.132	0.043
-325.129	-200.000	-0.009	0.145
-324.114	-8.078	-0.083	0.056
-323.099	800.000	-0.078	-0.217
-322.085	353.379	-0.034	-0.067
-321.070	-93.673	0.204	0.056
-320.056	111.767	-0.306	0.366
-319.041	243.197	0.084	-0.140
-318.026	63.033	-0.126	-0.125
-317.012	223.666	0.086	-0.137
-315.997	74.279	0.153	0.159
-314.983	134.790	0.068	-0.087
-313.968	800.000	0.028	0.079
-312.953	-104.560	0.144	-0.033
-311.939	-82.704	-0.125	0.040
-310.924	553.455	-0.076	0.181
-309.910	62.289	0.205	-0.203
-308.895	-200.000	-0.010	-0.071
-307.880	-107.094	0.054	0.012
-306.866	-200.000	0.029	-0.301
-305.851	800.000	-0.013	0.044
-304.837	800.000	-0.057	0.197
-303.822	800.000	0.008	0.022
-302.807	284.084	-0.141	0.251
-301.793	-51.173	0.071	0.033
-300.778	-92.676	-0.135	-0.037
-299.764	155.578	0.043	0.058
-298.749	-200.000	-0.023	-0.273
-297.735	84.961	-0.090	0.098
-296.720	-162.860	-0.279	-0.013
-295.705	-128.207	0.434	0.061
-294.691	-35.940	-0.102	-0.055
-293.676	-64.259	-0.285	-0.115
-292.662	47.848	0.116	-0.107
-291.647	199.812	-0.121	0.183
-290.632	-200.000	0.066	-0.332
-289.618	-200.000	-0.034	-0.255
-288.603	228.546	0.104	-0.167
-287.589	-54.285	0.139	-0.063
-286.574	-65.692	-0.299	0.118
-285.559	47.699	-0.178	0.164
-284.545	-143.171	0.333	-0.032
-283.530	-50.131	-0.173	0.081
-282.516	-105.653	0.098	-0.022
-281.501	-135.342	0.322	0.038
-280.486	500.399	0.054	0.123
-279.472	-200.000	-0.000	-0.265
-278.457	800.000	-0.157	-0.509
-277.443	-200.000	0.016	-0.208
-276.428	800.000	0.017	0.054
-275.413	-34.234	0.177	-0.096
-274.399	-30.388	0.174	0.097
-273.384	-89.136	-0.217	0.063
-272.370	-139.003	0.048	-0.005
-271.355	-92.672	-0.046	-0.013
-270.340	249.221	-0.155	0.259
-269.326	-200.000	0.031	-0.211
-268.311	208.824	-0.049	0.076
-267.297	54.082	0.281	0.267
-266.282	800.000	-0.058	0.193
-265.267	-176.782	-0.234	-0.006
-264.253	-135.388	-0.185	-0.022
-263.238	-200.000	0.009	-0.168
-262.224	-86.683	0.147	-0.044
-261.209	-200.000	-0.026	0.121
-260.195	-145.458	0.074	-0.007
-259.180	-200.000	0.019	0.095
-258.165	-59.293	0.052	-0.022
-257.151	-101.907	-0.074	0.018
-256.136	230.008	0.155	-0.250
-255.122	8.494	-0.399	-0.297
-254.107	-200.000	-0.020	0.204
-253.092	358.263	0.118	0.232
-252.078	-60.722	-0.150	0.063
-251.063	-105.269	-0.053	0.012
-250.049	-178.557	0.257	0.006
-249.034	3.004	0.090	-0.065
-248.019	800.000	0.068	0.251
-247.005	800.000	0.043	-0.139
-245.990	-200.000	-0.040	0.226
-244.976	-42.162	0.207	0.105
-243.961	-107.697	0.170	-0.037
-242.946	800.000	0.077	0.280
-241.932	313.582	-0.053	0.098
-240.917	228.217	0.083	-0.134
-239.903	-98.542	-0.267	0.067
-238.888	-200.000	-0.003	0.165
-237.873	83.729	0.141	-0.152
-236.859	607.092	0.074	-0.182
-235.844	800.000	-0.034	0.105
-234.830	-152.771	-0.389	-0.027
-233.815	-37.542	0.123	-0.065
-232.800	155.131	-0.120	-0.163
-231.786	-109.872	0.225	-0.047
-230.771	-22.484	-0.126	0.075
-229.757	4.146	0.293	-0.211
-228.742	-55.160	0.450	-0.200
-227.727	1.678	0.109	0.077
-226.713	316.382	-0.217	-0.404
-225.698	800.000	-0.069	0.193
-224.684	800.000	0.068	-0.278
-223.669	317.306	-0.089	-0.166
-222.655	-137.296	-0.332	-0.037
-221.640	-144.614	0.340	0.031
-220.625	800.000	-0.022	0.082
-219.611	108.541	-0.057	0.068
-218.596	-200.000	-0.019	-0.092
-217.582	72.391	-0.020	0.021
-216.567	135.487	-0.015	0.019
-215.552	-200.000	-0.008	0.143
-214.538	17.530	-0.128	-0.101
-213.523	-141.818	-0.172	0.017
-212.509	351.993	0.140	-0.273
-211.494	497.300	0.098	-0.223
-210.479	-200.000	0.064	0.355
-209.465	185.771	-0.148	0.217
-208.450	48.750	-0.073	-0.068
-207.436	497.478	-0.124	0.282
-206.421	-200.000	0.025	-0.262
-205.406	148.471	0.204	0.272
-204.392	-123.294	0.190	0.030
-203.377	-200.000	0.001	0.242
-202.363	470.584	0.066	0.147
-201.348	800.000	-0.045	0.167
-200.333	41.170	-0.228	-0.203
-199.319	67.534	0.052	-0.052
-198.304	-200.000	0.046	0.242
-197.290	14.880	-0.325	-0.251
-196.275	-73.839	0.119	-0.043
-195.260	-200.000	-0.015	0.246
-194.246	-200.000	-0.017	0.134
-193.231	244.295	-0.168	0.278
-192.217	171.651	-0.049	-0.069
-191.202	800.000	-0.051	0.174
-190.187	800.000	0.055	0.222
-189.173	0.480	-0.076	-0.053
-188.158	-68.570	0.271	0.103
-187.144	-79.051	-0.087	0.029
-186.129	29.609	0.457	-0.383
-185.114	177.364	-0.181	-0.259
-184.100	445.473	0.130	0.280
-183.085	-200.000	-0.023	0.138
-182.071	-10.601	-0.170	0.111
-181.056	-73.298	0.206	-0.074
-180.042	105.254	0.239	0.278
-179.027	800.000	-0.009	-0.037
-178.012	285.036	0.020	0.036
-176.998	282.411	0.230	-0.406
-175.983	414.887	0.161	-0.339
-174.969	-55.706	-0.101	0.044
-173.954	2.685	0.569	0.406
-172.939	-200.000	-0.019	-0.179
-171.925	-58.785	-0.165	-0.070
-170.910	765.787	0.169	0.452
-169.896	-133.024	-0.168	0.021
-168.881	-135.702	0.233	-0.027
-167.866	271.730	-0.171	0.298
-166.852	-16.633	-0.180	0.112
-165.837	18.835	-0.142	-0.112
-164.823	314.990	0.048	0.090
-163.808	510.793	0.119	0.273
-162.793	33.496	-0.252	0.215
-161.779	557.688	0.170	0.403
-160.764	800.000	0.080	0.247
-159.750	-200.000	0.029	-0.205
-158.735	210.731	-0.135	-0.208
-157.720	-200.000	0.003	-0.024
-156.706	-119.948	-0.090	-0.015
-155.691	800.000	-0.129	0.373
-154.677	-2.204	0.150	0.104
-153.662	-130.941	-0.168	-0.022
-152.647	-93.560	0.259	-0.071
-151.633	800.000	0.121	-0.420
-150.618	-118.698	0.201	0.035
-149.604	-85.731	0.099	0.030
-148.589	-195.779	0.472	0.003
-147.574	-162.861	0.171	0.008
-146.560	177.999	-0.144	-0.207
-145.545	-10.410	0.082	-0.054
-144.531	-200.000	-0.059	-0.285
-143.516	-40.809	0.271	0.138
-142.502	-120.837	0.291	0.048
-141.487	13.309	-0.198	-0.151
-140.472	36.534	-0.032	0.028
-139.458	-179.367	0.100	-0.002
-138.443	228.765	0.095	0.152
-137.429	-37.740	-0.185	-0.097
-136.414	-200.000	0.017	0.079
-135.399	-200.000	-0.004	-0.020
-134.385	231.530	0.234	0.377
-133.370	358.155	0.063	-0.123
-132.356	-10.241	0.108	0.071
-131.341	-38.462	0.351	-0.182
-130.326	100.970	0.176	-0.202
-129.312	-120.455	-0.152	0.025
-128.297	-50.095	0.175	0.082
-127.283	160.127	-0.130	-0.178
-126.268	46.386	0.241	-0.219
-125.253	-169.932	-0.039	0.001
-124.239	-111.079	-0.135	-0.027
-123.224	22.242	0.234	-0.188
-122.210	719.132	-0.130	0.338
-121.195	-200.000	-0.027	-0.126
-120.180	-200.000	0.011	-0.161
-119.166	-172.085	-0.517	-0.016
-118.151	-46.089	-0.184	-0.089
-117.137	33.400	0.484	-0.413
-116.122	102.154	0.078	0.089
-115.107	-200.000	0.028	0.276
-114.093	441.608	-0.110	0.237
-113.078	185.447	0.017	-0.024
-112.064	161.296	0.110	-0.151
-111.049	-1.724	0.221	0.153
-110.034	166.300	0.267	0.371
-109.020	-82.352	0.129	-0.041
-108.005	-200.000	0.027	0.297
-106.991	-36.183	0.353	-0.187
-105.976	3.985	0.115	-0.082
-104.962	-99.655	0.426	-0.105
-103.947	-49.827	-0.191	-0.089
-102.932	50.897	-0.120	-0.111
-101.918	62.383	0.135	0.133
-100.903	-200.000	0.002	-0.035
-99.889	-150.814	-0.186	0.014
-98.874	563.989	-0.135	-0.322
-97.859	800.000	0.134	-0.403
-96.845	-200.000	-0.037	-0.233
-95.830	179.706	0.224	0.323
-94.816	115.813	0.208	0.250
-93.801	6.858	-0.096	0.070
-92.786	-200.000	-0.055	-0.259
-91.772	-75.190	0.186	-0.065
-90.757	-200.000	-0.028	-0.121
-89.743	233.370	0.103	-0.167
-88.728	-72.202	0.139	0.050
-87.713	800.000	-0.046	-0.193
-86.699	-200.000	-0.022	-0.396
-85.684	-116.403	-0.071	0.013
-84.670	-133.842	0.338	0.041
-83.655	44.099	-0.167	0.151
-82.640	-200.000	0.034	-0.356
-81.626	-200.000	-0.018	0.297
-80.611	-84.259	0.270	-0.084
-79.597	-200.000	0.013	-0.123
-78.582	-27.197	0.087	0.049
-77.567	-200.000	-0.057	0.287
-76.553	-176.568	0.110	-0.003
-75.538	800.000	0.018	0.077
-74.524	34.661	-0.145	-0.124
-73.509	701.469	-0.088	-0.228
-72.494	-68.447	0.274	0.104
-71.480	-200.000	0.068	0.375
-70.465	-200.000	-0.042	0.310
-69.451	448.742	-0.049	-0.106
-68.436	-59.177	0.090	0.038
-67.422	800.000	-0.046	-0.130
-66.407	65.995	0.290	-0.288
-65.392	587.743	0.111	0.268
-64.378	27.070	-0.198	-0.163
-63.363	-143.466	0.530	0.050
-62.349	-55.758	0.182	0.080
-61.334	19.485	-0.998	-0.787
-60.319	107.799	0.519	0.606
-59.305	800.000	-0.317	-1.037
-58.290	381.375	0.674	1.357
-57.276	233.848	0.812	1.310
-56.261	-200.000	113.491	644.293
-55.246	531.891	1517.682	3518.722
-54.232	178.850	2683.005	3843.450
-53.217	110.576	2148.675	2531.763
-52.203	39.634	1597.026	1403.360
-51.188	31.592	1343.543	1132.163
-50.173	28.659	1305.043	1082.413
-49.159	55.774	1362.326	1293.879
-48.144	54.665	1375.944	1300.111
-47.130	31.809	1330.983	1122.702
-46.115	28.326	1313.627	1087.382
-45.100	28.042	1309.467	1082.213
-44.086	28.094	1306.632	1080.137
-43.071	27.953	1304.739	1077.696
-42.057	27.987	1302.066	1075.645
-41.042	27.947	1300.876	1074.388
-40.027	27.933	1299.396	1073.039
-39.013	28.086	1297.180	1072.063
-37.998	28.013	1295.511	1070.214
-36.984	28.047	1294.046	1069.161
-35.969	28.213	1291.836	1068.259
-34.954	28.187	1289.757	1066.345
-33.940	28.201	1288.256	1065.147
-32.925	28.184	1287.057	1064.013
-31.911	28.125	1286.117	1062.850
-30.896	28.240	1284.588	1062.209
-29.881	28.320	1283.290	1061.563
-28.867	28.216	1282.224	1060.034
-27.852	28.247	1280.876	1059.055
-26.838	28.309	1279.075	1057.885
-25.823	28.245	1278.112	1056.675
-24.809	28.204	1276.401	1054.984
-23.794	28.268	1275.003	1054.153
-22.779	28.188	1274.044	1052.861
-21.765	28.210	1272.540	1051.700
-20.750	28.165	1271.230	1050.318
-19.736	28.188	1270.009	1049.398
-18.721	28.055	1269.090	1047.835
-17.706	28.180	1267.521	1047.217
-16.692	28.059	1266.973	1046.026
-15.677	28.143	1265.657	1045.381
-14.663	28.125	1264.585	1044.351
-13.648	28.029	1263.423	1042.805
-12.633	28.152	1262.310	1042.545
-11.619	28.090	1261.657	1041.609
-10.604	28.071	1260.847	1040.791
-9.590	28.056	1259.628	1039.660
-8.575	28.064	1258.619	1038.830
-7.560	28.094	1257.872	1038.343
-6.546	28.073	1256.930	1037.404
-5.531	27.961	1256.578	1036.438
-4.517	28.116	1255.217	1036.150
-3.502	28.049	1254.318	1034.992
-2.487	28.068	1254.160	1034.925
-1.473	28.021	1249.585	1030.843
-0.458	26.455	1234.055	1009.263
0.556	24.248	1216.886	970.984
1.571	20.300	1222.243	953.527
2.586	19.377	1236.570	959.485
3.600	19.148	1224.899	949.085
4.615	14.583	1155.097	871.135
5.629	7.220	1082.350	780.063
6.644	3.968	1063.770	750.842
7.659	3.656	1061.374	747.578
8.673	3.484	1059.924	745.655
9.688	3.474	1058.663	744.654
10.702	3.879	1056.776	745.214
11.717	8.620	1063.602	772.907
12.731	16.905	1074.898	821.341
13.746	21.897	1081.443	850.534
14.761	22.705	1082.065	854.869
15.775	22.001	1080.263	849.959
16.790	21.195	1078.198	844.365
17.804	20.622	1077.104	840.664
18.819	20.465	1076.395	839.279
19.834	20.472	1075.852	838.814
20.848	20.523	1075.189	838.467
21.863	20.391	1074.307	837.070
22.877	20.123	1073.633	835.183
23.892	20.115	1073.153	834.693
24.907	20.120	1071.942	833.703
25.921	20.081	1070.720	832.493
26.936	19.975	1069.767	831.169
27.950	19.912	1068.435	829.759
28.965	20.017	1067.339	829.339
29.980	20.177	1065.982	828.972
30.994	20.377	1064.953	829.057
32.009	20.368	1064.175	828.332
33.023	20.380	1062.980	827.385
34.038	20.215	1061.641	825.488
35.053	20.080	1060.784	824.103
36.067	20.017	1060.031	823.149
37.082	20.115	1059.196	822.891
38.096	20.254	1058.803	823.175
39.111	20.255	1058.095	822.554
40.126	20.048	1056.683	820.403
41.140	19.661	1055.164	817.322
42.155	19.489	1053.265	814.969
43.169	19.537	1052.386	814.440
44.184	19.462	1051.852	813.603
45.199	19.452	1050.979	812.808
46.213	19.844	1049.832	813.691
47.228	20.151	1049.229	814.596
48.242	20.235	1048.105	814.047
49.257	20.132	1047.522	813.038
50.271	20.250	1047.146	813.226
51.286	20.354	1045.981	812.736
52.301	20.111	1045.073	810.824
53.315	19.998	1043.698	809.158
54.330	19.770	1043.158	807.600
55.344	19.800	1041.555	806.431
56.359	19.867	1040.943	806.197
57.374	19.790	1039.951	804.999
58.388	19.635	1039.137	803.574
59.403	19.483	1038.645	802.417
60.417	19.536	1037.489	801.699
61.432	19.493	1036.870	800.949
62.447	19.467	1035.830	799.958
63.461	19.305	1034.735	798.290
64.476	19.339	1034.411	798.125
65.490	19.161	1033.497	796.525
66.505	19.282	1032.964	796.606
67.520	19.442	1031.920	796.466
68.534	19.360	1031.183	795.453
69.549	19.144	1030.501	793.856
70.563	19.054	1029.353	792.487
71.578	18.975	1028.408	791.330
72.593	18.721	1028.116	789.865
73.607	18.848	1027.219	789.692
74.622	18.968	1026.819	789.863
75.636	19.155	1025.673	789.769
76.651	19.200	1024.678	789.141
77.666	19.099	1024.592	788.539
78.680	19.079	1024.214	788.089
79.695	19.161	1023.117	787.548
80.709	19.363	1023.083	788.378
81.724	19.483	1022.233	788.201
82.739	19.675	1021.359	788.333
83.753	19.949	1021.511	789.632
84.768	20.351	1020.916	790.935
85.782	20.726	1019.722	791.644
86.797	20.530	1019.047	790.158
87.812	20.239	1017.609	787.652
88.826	20.330	1016.941	787.479
89.841	20.407	1015.855	786.915
90.855	20.620	1015.057	787.195
91.870	20.548	1014.662	786.493
92.884	20.377	1014.125	785.234
93.899	20.392	1012.701	784.128
94.914	20.554	1011.824	784.112
95.928	20.428	1010.847	782.717
96.943	20.154	1010.137	780.862
97.957	20.271	1008.798	780.285
98.972	20.410	1008.127	780.324
99.987	20.431	1007.273	779.689
101.001	20.260	1006.378	778.159
102.016	20.187	1005.341	776.960
103.030	20.345	1004.732	777.127
104.045	20.314	1004.192	776.503
105.060	20.140	1003.053	774.775
106.074	19.850	1001.503	772.218
107.089	19.492	1000.494	769.775
108.103	19.565	999.270	769.090
109.118	19.319	998.452	767.295
110.133	19.303	997.325	766.293
111.147	19.143	996.563	764.927
112.162	19.375	995.880	765.363
113.176	19.505	995.509	765.588
114.191	19.727	994.640	765.838
115.206	19.515	993.962	764.309
116.220	19.431	993.050	763.167
117.235	19.457	992.302	762.642
118.249	19.469	990.884	761.538
119.264	19.146	990.649	759.864
120.279	19.081	990.028	759.031
121.293	19.181	988.274	758.059
122.308	19.135	987.207	756.974
123.322	19.003	986.508	755.791
124.337	18.983	985.346	754.747
125.352	19.087	984.325	754.352
126.366	18.908	983.534	752.896
127.381	19.067	982.722	752.901
128.395	19.053	981.971	752.201
129.410	19.220	980.677	751.873
130.424	19.349	980.580	752.293
131.439	19.440	980.227	752.351
132.454	19.514	978.918	751.605
133.468	19.397	978.238	750.507
134.483	19.463	977.361	750.055
135.497	19.473	976.456	749.336
136.512	19.481	975.474	748.549
137.527	19.554	975.131	748.539
138.541	19.722	973.698	748.098
139.556	19.714	973.504	747.847
140.570	19.906	973.123	748.320
141.585	20.125	972.512	748.730
142.600	20.204	971.614	748.312
143.614	20.423	970.522	748.352
144.629	20.664	970.180	749.058
145.643	20.140	969.192	745.977
146.658	19.925	967.655	743.803
147.673	19.937	966.265	742.719
148.687	19.706	965.691	741.221
149.702	19.710	964.255	740.069
150.716	19.635	964.025	739.510
151.731	19.725	963.017	739.054
152.746	19.670	962.888	738.656
153.760	19.841	962.053	738.679
154.775	19.907	961.655	738.588
155.789	20.115	960.645	738.637
156.804	20.036	959.935	737.689
157.819	20.051	959.636	737.457
158.833	20.273	959.047	737.882
159.848	20.448	958.051	737.794
160.862	20.244	956.769	735.879
161.877	19.802	955.607	733.046
162.892	19.818	953.902	731.740
163.906	19.580	953.381	730.271
164.921	19.454	952.731	729.173
165.935	19.768	951.783	729.709
166.950	19.902	950.850	729.494
167.964	19.714	950.447	728.330
168.979	19.747	948.662	727.037
169.994	19.670	948.064	726.188
171.008	19.764	947.940	726.423
172.023	20.162	947.407	727.624
173.037	20.255	946.961	727.605
174.052	19.994	945.514	725.339
175.067	19.614	944.597	722.980
176.081	19.370	943.896	721.359
177.096	19.484	942.868	720.987
178.110	19.632	942.826	721.509
179.125	19.613	942.439	721.066
180.140	19.848	941.637	721.370
181.154	19.978	941.785	721.961
182.169	19.982	941.796	721.922
183.183	19.980	941.001	721.241
184.198	20.117	940.011	720.990
185.213	20.133	939.022	720.233
186.227	20.142	938.764	720.009
187.242	20.377	938.030	720.358
188.256	20.603	937.580	720.883
189.271	20.480	936.732	719.658
190.286	20.182	935.701	717.569
191.300	19.503	934.205	713.552
192.315	19.392	933.430	712.440
193.329	19.431	933.468	712.567
194.344	19.690	932.873	713.118
195.359	19.766	932.216	712.867
196.373	20.015	931.792	713.505
197.388	20.194	931.622	714.050
198.402	20.429	931.599	714.935
199.417	20.635	930.449	714.838
200.432	20.869	930.223	715.563
201.446	20.766	930.430	715.236
202.461	20.846	929.859	715.059
203.475	20.740	928.598	713.595
204.490	20.418	927.267	711.188
205.504	20.101	926.474	709.219
206.519	20.224	925.564	708.962
207.534	20.079	925.491	708.253
208.548	20.198	924.367	707.816
209.563	20.173	924.051	707.411
210.577	20.185	923.613	707.059
211.592	20.574	922.649	707.844
212.607	20.781	922.141	708.234
213.621	20.444	921.483	706.295
214.636	20.380	921.294	705.826
215.650	20.543	919.960	705.405
216.665	20.749	919.366	705.723
217.680	20.798	918.637	705.299
218.694	20.842	918.145	705.036
219.709	20.668	917.678	703.910
220.723	20.491	917.177	702.750
221.738	20.409	916.045	701.486
222.753	20.529	915.425	701.434
223.767	20.695	915.077	701.779
224.782	20.764	914.704	701.705
225.796	20.986	914.348	702.264
226.811	20.822	913.197	700.660
227.826	20.587	912.280	698.949
228.840	20.532	911.639	698.174
229.855	20.393	910.995	697.064
230.869	20.414	910.255	696.519
231.884	20.272	909.539	695.340
232.899	20.295	908.642	694.687
233.913	20.202	907.596	693.452
234.928	20.018	907.073	692.255
235.942	20.009	906.713	691.885
236.957	20.105	905.908	691.593
237.972	20.120	905.314	691.137
238.986	20.160	904.636	690.719
240.001	20.133	904.452	690.410
241.015	20.213	903.876	690.225
242.030	20.172	903.776	689.924
243.045	20.339	903.159	690.058
244.059	20.463	902.442	689.942
245.074	20.533	901.682	689.578
246.088	20.622	901.283	689.564
247.103	20.899	900.804	690.234
248.117	21.051	900.842	690.803
249.132	21.329	901.023	691.980
250.147	21.627	900.449	692.658
251.161	21.602	899.587	691.835
252.176	21.630	898.960	691.403
253.190	21.871	898.142	691.661
254.205	21.905	897.730	691.419
255.220	21.708	896.924	689.961
256.234	21.699	895.955	689.119
257.249	21.581	895.849	688.512
258.263	21.430	895.127	687.302
259.278	21.529	894.401	687.075
260.293	21.632	893.899	687.031
261.307	21.579	893.789	686.678
262.322	21.793	892.764	686.669
263.336	21.737	892.342	686.062
264.351	21.736	891.164	685.095
265.366	21.773	890.498	684.665
266.380	21.817	889.969	684.368
267.395	21.514	889.557	682.811
268.409	21.382	888.868	681.705
269.424	21.539	887.582	681.270
270.439	21.474	886.648	680.241
271.453	21.302	886.014	679.025
272.468	21.291	885.527	678.550
273.482	21.269	885.203	678.155
274.497	21.292	884.233	677.444
275.512	21.222	883.691	676.694
276.526	21.183	883.343	676.218
277.541	21.553	882.731	677.124
278.555	21.578	882.520	676.995
279.570	21.862	881.974	677.614
280.585	21.839	880.958	676.686
281.599	21.474	880.032	674.509
282.614	21.386	879.146	673.432
283.628	21.268	878.974	672.782
284.643	21.366	878.494	672.736
285.657	21.284	877.607	671.681
286.672	21.409	876.765	671.457
287.687	21.596	876.274	671.740
288.701	21.417	875.786	670.618
289.716	21.575	875.537	670.973
290.730	21.500	874.879	670.123
291.745	21.620	873.845	669.731
292.760	21.658	873.680	669.691
293.774	21.859	873.568	670.316
294.789	21.837	872.426	669.296
295.803	21.436	871.862	667.273
296.818	21.315	870.919	666.033
297.833	21.389	870.088	665.617
298.847	21.515	869.531	665.613
299.862	21.595	868.995	665.447
300.876	21.804	868.903	666.114
301.891	21.932	868.586	666.297
302.906	21.918	868.138	665.839
303.920	22.269	867.532	666.647
304.935	22.395	867.380	666.949
305.949	22.188	866.239	665.230
306.964	21.907	865.413	663.476
307.979	21.823	864.888	662.697
308.993	22.064	864.636	663.355
310.008	22.149	864.095	663.202
311.022	21.922	863.231	661.625
312.037	21.748	862.261	660.167
313.052	21.431	861.531	658.355
314.066	21.449	860.794	657.801
315.081	21.285	860.693	657.048
316.095	21.379	860.064	656.867
317.110	21.300	859.375	655.982
318.125	21.363	858.804	655.726
319.139	21.381	858.314	655.361
320.154	21.325	857.767	654.676
321.168	21.490	857.269	654.855
322.183	21.593	856.760	654.793
323.197	21.538	856.160	654.073
324.212	21.549	855.713	653.715
325.227	21.478	855.207	653.003
326.241	21.471	854.630	652.482
327.256	21.377	853.907	651.521
328.270	21.405	853.110	650.958
329.285	21.481	852.480	650.704
330.300	21.248	852.380	649.704
331.314	21.596	851.425	650.211
332.329	21.816	851.622	651.120
333.343	21.837	851.347	650.929
334.358	21.698	851.228	650.264
335.373	21.725	850.813	649.991
336.387	21.839	850.629	650.215
337.402	21.938	850.570	650.481
338.416	22.209	850.033	651.015
339.431	22.421	849.914	651.651
340.446	22.389	849.489	651.148
341.460	22.549	848.967	651.282
342.475	22.648	848.201	651.004
343.489	22.596	848.170	650.731
344.504	22.868	847.836	651.419
345.519	22.692	847.520	650.471
346.533	22.692	846.367	649.526
347.548	22.434	845.902	648.166
348.562	22.053	845.161	646.136
349.577	21.854	844.714	645.007
350.592	21.830	843.663	644.058
351.606	21.970	842.718	643.794
352.621	21.948	841.905	643.034
353.635	22.055	841.540	643.092
354.650	21.974	841.311	642.562
355.665	22.142	840.285	642.336
356.679	22.176	839.978	642.169
357.694	22.291	838.891	641.700
358.708	22.262	838.345	641.122
359.723	22.239	837.790	640.556
360.738	22.241	837.254	640.096
361.752	22.247	836.870	639.767
362.767	22.544	836.552	640.550
363.781	22.735	836.367	641.045
364.796	23.007	835.378	641.216
365.810	22.918	835.263	640.749
366.825	22.991	835.629	641.238
367.840	22.959	834.528	640.220
368.854	22.654	833.795	638.496
369.869	22.615	833.229	637.868
370.883	22.587	833.003	637.534
371.898	22.868	833.132	638.594
372.913	22.882	832.726	638.277
373.927	22.670	831.983	636.885
374.942	22.816	831.197	636.753
375.956	22.988	830.895	637.086
376.971	22.984	830.618	636.804
377.986	23.216	830.115	637.196
379.000	23.193	829.552	636.623
380.015	23.126	828.918	635.841
381.029	23.059	828.345	635.104
382.044	23.073	827.757	634.647
383.059	23.195	826.942	634.405
384.073	23.055	826.250	633.316
385.088	22.655	825.408	631.184
386.102	22.611	824.483	630.264
387.117	22.628	823.778	629.730
388.132	22.494	823.543	629.015
389.146	22.586	823.141	628.980
390.161	22.919	822.755	629.816
391.175	23.007	822.390	629.796
392.190	22.811	821.793	628.584
393.205	22.588	820.995	627.127
394.219	22.482	820.718	626.480
395.234	22.513	820.028	626.008
396.248	22.319	819.648	624.976
397.263	22.404	818.965	624.698
398.278	22.111	818.935	623.582
399.292	22.171	818.260	623.226
400.307	22.204	817.797	622.936
401.321	22.256	817.239	622.640
402.336	22.549	816.779	623.268
403.350	22.639	816.742	623.505
404.365	22.703	816.662	623.616
405.380	23.127	816.109	624.635
406.394	23.156	815.790	624.440
407.409	23.451	815.265	625.020
408.423	23.340	815.267	624.577
409.438	23.429	814.569	624.300
410.453	23.562	814.201	624.432
411.467	23.397	813.732	623.434
412.482	23.457	813.684	623.554
413.496	23.847	813.006	624.349
414.511	23.541	812.620	622.924
415.526	23.543	811.854	622.288
416.540	23.380	811.328	621.260
417.555	23.517	810.800	621.281
418.569	23.363	810.615	620.542
419.584	23.381	810.120	620.174
420.599	23.422	809.611	619.870
421.613	163.644	1371.892	1797.135
422.628	142.471	1453.806	1797.196
