DTS Sentinel unit serial number:	SN413079Multiplexer serial number:	ORYXHardware model number:	OX4-SRSoftware version number:	ORYX F/W v4.00 Oryx Data Collector v3.7.2.0data status	okinstallation	princeton_trtdifferential loss correction	single-endedforward channel	channel 1reverse channel	N/Adate	2019/09/19time	04:06:35forward acquisition time	60.00reverse acquisition time	0.00gamma	496.2192k internal	0.2343k external	0.2343temperature offset calibration	1.0013default loss term (dB/km)	0.3790temperature slope calibration	1.0000multiplexer offset coefficient	1.0000multiplexer slope coefficient	1.0000fibre end	0.00T internal ref (°C)	20.39T ext. ref 1 (°C)	0.63T ext. ref 2 (°C)	13.94length (m)	temperature (°C)	Stokes	anti-Stokes-747.200	-154.696	-0.172	-0.011
-746.185	227.024	-0.044	-0.071
-745.171	-118.507	-0.295	-0.052
-744.156	12.018	0.224	-0.173
-743.142	800.000	0.088	0.349
-742.127	346.705	-0.149	0.294
-741.112	72.792	-0.087	0.091
-740.098	800.000	-0.100	0.318
-739.083	-92.452	-0.118	0.033
-738.069	-80.027	-0.451	0.152
-737.054	-62.285	-0.214	0.089
-736.039	-30.147	0.226	-0.128
-735.025	554.835	0.065	-0.157
-734.010	15.568	-0.104	-0.082
-732.996	-84.102	-0.155	-0.049
-731.981	16.662	-0.293	0.232
-730.966	166.463	0.125	-0.178
-729.952	-113.023	-0.462	-0.091
-728.937	49.390	0.140	0.131
-727.923	-16.241	-0.305	-0.194
-726.908	800.000	-0.150	-0.415
-725.894	151.396	-0.358	-0.488
-724.879	-200.000	0.037	0.246
-723.864	2.660	-0.447	-0.324
-722.850	35.764	0.449	0.395
-721.835	207.684	-0.199	-0.311
-720.821	79.128	-0.320	-0.343
-719.806	391.390	-0.132	-0.273
-718.791	-155.824	-0.194	-0.012
-717.777	-119.468	0.424	0.074
-716.762	-178.349	-0.128	-0.003
-715.748	619.076	0.062	-0.156
-714.733	-37.281	0.098	-0.052
-713.718	551.544	0.114	-0.274
-712.704	231.134	-0.117	0.192
-711.689	495.185	0.151	-0.346
-710.675	-142.206	-0.052	0.005
-709.660	-200.000	0.004	-0.117
-708.645	-89.720	-0.401	0.117
-707.631	-138.747	-0.461	0.050
-706.616	-52.623	0.131	-0.060
-705.602	-151.550	0.143	0.011
-704.587	70.949	-0.167	0.173
-703.572	0.076	-0.085	0.061
-702.558	76.156	-0.093	0.098
-701.543	249.250	0.135	-0.229
-700.529	166.413	0.213	-0.301
-699.514	393.813	-0.083	-0.173
-698.499	-135.333	-0.107	0.013
-697.485	237.859	0.081	-0.134
-696.470	272.767	-0.079	-0.139
-695.456	18.840	-0.296	0.237
-694.441	-92.233	0.399	0.112
-693.426	800.000	0.061	-0.253
-692.412	457.658	-0.110	0.245
-691.397	-43.455	-0.255	0.128
-690.383	-91.031	0.507	0.146
-689.368	-182.538	0.306	-0.006
-688.354	417.873	0.101	-0.215
-687.339	24.737	-0.417	0.345
-686.324	-117.160	0.206	-0.037
-685.310	460.384	-0.056	-0.126
-684.295	229.795	0.110	-0.180
-683.281	-68.403	0.070	-0.027
-682.266	591.491	-0.059	-0.147
-681.251	82.489	0.143	-0.156
-680.237	241.049	-0.151	0.252
-679.222	96.224	-0.216	-0.247
-678.208	800.000	0.046	-0.136
-677.193	632.530	-0.102	0.258
-676.178	-68.069	-0.044	-0.017
-675.164	488.854	-0.245	0.559
-674.149	-95.692	-0.152	0.041
-673.135	-200.000	0.001	0.098
-672.120	20.970	0.190	-0.154
-671.105	-161.483	-0.351	-0.018
-670.091	-200.000	-0.022	0.169
-669.076	272.137	-0.094	-0.166
-668.062	-51.158	-0.127	-0.060
-667.047	-133.592	0.158	-0.020
-666.032	-55.548	-0.197	0.088
-665.018	206.571	-0.178	-0.277
-664.003	800.000	-0.080	0.278
-662.989	-119.212	-0.125	0.022
-661.974	11.056	-0.124	-0.094
-660.959	-76.857	0.232	-0.081
-659.945	61.369	-0.137	-0.136
-658.930	80.601	0.111	-0.120
-657.916	62.700	0.111	-0.111
-656.901	-174.261	-0.299	0.009
-655.886	446.507	0.066	0.145
-654.872	134.018	-0.120	0.156
-653.857	800.000	-0.055	-0.211
-652.843	128.942	0.078	0.099
-651.828	778.723	0.036	0.097
-650.814	800.000	-0.078	0.257
-649.799	41.779	-0.328	-0.297
-648.784	253.819	-0.217	-0.369
-647.770	20.747	0.215	-0.173
-646.755	441.474	0.075	-0.164
-645.741	-151.598	0.251	0.019
-644.726	-64.690	-0.132	0.054
-643.711	8.376	0.212	0.159
-642.697	-71.200	-0.365	-0.137
-641.682	329.289	-0.164	-0.314
-640.668	-118.055	-0.208	-0.037
-639.653	800.000	-0.041	0.137
-638.638	-200.000	-0.030	0.163
-637.624	-200.000	-0.029	0.171
-636.609	-86.261	0.245	-0.075
-635.595	800.000	-0.041	0.133
-634.580	111.118	0.211	0.254
-633.565	-110.277	-0.120	-0.025
-632.551	-127.766	0.406	0.058
-631.536	-35.823	-0.034	-0.018
-630.522	43.441	-0.238	-0.217
-629.507	85.080	0.094	0.103
-628.492	-200.000	0.021	0.322
-627.478	-200.000	0.012	-0.058
-626.463	-200.000	-0.031	0.272
-625.449	800.000	-0.065	-0.220
-624.434	-60.241	-0.086	0.037
-623.419	-59.266	0.081	-0.035
-622.405	-106.355	0.286	-0.064
-621.390	341.456	0.180	-0.350
-620.376	76.824	0.210	-0.222
-619.361	-106.388	0.072	-0.016
-618.346	-155.992	0.407	0.026
-617.332	-20.731	-0.117	0.071
-616.317	800.000	-0.073	0.247
-615.303	-111.341	0.216	-0.044
-614.288	89.266	-0.120	0.134
-613.273	-28.734	0.253	-0.145
-612.259	-117.459	-0.309	-0.056
-611.244	47.652	0.200	0.186
-610.230	293.716	-0.225	-0.409
-609.215	126.440	-0.197	0.248
-608.201	-53.570	-0.231	-0.105
-607.186	-81.715	-0.112	0.037
-606.171	-56.996	-0.360	-0.158
-605.157	-174.523	0.110	-0.003
-604.142	129.958	-0.203	-0.258
-603.128	-14.106	-0.146	-0.094
-602.113	-137.200	0.388	-0.044
-601.098	-66.244	-0.332	-0.132
-600.084	513.368	-0.166	-0.385
-599.069	-136.297	-0.160	0.019
-598.055	23.793	0.038	-0.031
-597.040	53.239	-0.368	-0.351
-596.025	-200.000	-0.042	0.295
-595.011	-200.000	0.014	-0.155
-593.996	440.690	-0.057	0.123
-592.982	800.000	0.017	-0.069
-591.967	-60.951	-0.183	-0.077
-590.952	-200.000	0.002	-0.031
-589.938	-121.608	0.057	-0.009
-588.923	-5.758	0.140	0.096
-587.909	52.487	0.128	0.121
-586.894	800.000	-0.044	0.126
-585.879	-50.943	-0.371	-0.173
-584.865	-131.413	-0.187	0.025
-583.850	-200.000	-0.003	0.078
-582.836	112.168	-0.101	0.122
-581.821	-16.471	-0.323	-0.204
-580.806	-57.738	-0.219	-0.095
-579.792	-106.065	0.092	-0.021
-578.777	101.670	0.193	0.224
-577.763	-68.909	-0.125	0.048
-576.748	-29.531	-0.157	0.089
-575.733	-200.000	-0.050	0.220
-574.719	-180.788	0.145	0.003
-573.704	57.169	-0.134	0.130
-572.690	-56.726	-0.166	0.073
-571.675	-24.500	0.203	-0.120
-570.661	-200.000	0.063	0.295
-569.646	243.056	0.082	-0.137
-568.631	-104.233	0.307	-0.071
-567.617	17.801	0.161	0.127
-566.602	-97.796	-0.183	-0.047
-565.588	-200.000	-0.044	-0.281
-564.573	-200.000	-0.023	-0.163
-563.558	92.184	0.106	0.119
-562.544	-100.215	0.178	0.044
-561.529	327.904	-0.097	-0.186
-560.515	4.399	0.351	-0.256
-559.500	-200.000	-0.056	-0.393
-558.485	-11.483	-0.145	0.095
-557.471	-52.714	-0.132	-0.061
-556.456	203.363	0.076	0.117
-555.442	468.468	0.071	-0.159
-554.427	57.981	-0.056	-0.055
-553.412	-200.000	-0.064	0.294
-552.398	-168.711	0.163	-0.006
-551.383	26.593	-0.067	0.056
-550.369	85.576	-0.219	-0.239
-549.354	122.136	0.162	0.201
-548.339	15.023	-0.051	-0.040
-547.325	110.347	0.195	-0.233
-546.310	-43.129	-0.444	-0.223
-545.296	-194.108	0.205	0.002
-544.281	346.376	0.253	0.494
-543.266	-189.748	-0.363	-0.004
-542.252	22.294	-0.103	0.084
-541.237	800.000	-0.114	0.427
-540.223	-27.100	-0.217	0.126
-539.208	-200.000	-0.018	-0.284
-538.193	800.000	0.041	-0.157
-537.179	5.610	0.232	0.170
-536.164	311.776	-0.105	-0.195
-535.150	-75.166	-0.133	-0.047
-534.135	-125.677	0.262	-0.039
-533.121	800.000	0.058	0.242
-532.106	526.057	0.120	0.281
-531.091	5.288	0.256	0.187
-530.077	-108.180	-0.282	0.061
-529.062	480.695	-0.159	0.358
-528.048	-124.595	-0.226	-0.035
-527.033	-200.000	-0.034	0.176
-526.018	-8.373	-0.161	0.108
-525.004	-143.887	-0.200	0.019
-523.989	-200.000	0.016	0.215
-522.975	92.364	-0.075	0.084
-521.960	50.711	0.197	0.185
-520.945	-22.290	-0.213	0.128
-519.931	-77.785	0.187	0.064
-518.916	-7.742	-0.178	-0.120
-517.902	269.612	0.105	-0.184
-516.887	-200.000	-0.022	-0.267
-515.872	40.474	-0.089	0.079
-514.858	60.294	-0.109	-0.107
-513.843	28.222	0.300	0.251
-512.829	-14.826	0.274	0.174
-511.814	-150.524	0.129	0.010
-510.799	-64.838	-0.085	0.034
-509.785	-200.000	-0.040	0.403
-508.770	-117.332	-0.306	0.055
-507.756	800.000	0.053	0.155
-506.741	51.064	-0.107	0.101
-505.726	11.768	0.390	0.297
-504.712	-39.338	0.337	-0.175
-503.697	423.025	-0.089	-0.189
-502.683	-165.097	-0.055	0.002
-501.668	-200.000	-0.068	0.321
-500.653	36.986	-0.066	-0.058
-499.639	-200.000	0.049	-0.298
-498.624	-23.255	-0.110	0.066
-497.610	221.398	-0.062	-0.098
-496.595	-200.000	-0.006	0.123
-495.581	-200.000	0.020	-0.370
-494.566	800.000	0.064	0.208
-493.551	-200.000	0.012	0.070
-492.537	-104.209	0.172	0.040
-491.522	484.380	0.082	0.186
-490.508	-200.000	0.069	-0.304
-489.493	-200.000	-0.025	0.154
-488.478	13.631	0.433	-0.333
-487.464	-71.275	0.163	-0.061
-486.449	-42.513	0.121	0.061
-485.435	800.000	0.095	0.313
-484.420	-120.499	-0.080	-0.013
-483.405	-73.719	0.324	-0.117
-482.391	92.836	0.197	0.220
-481.376	-0.595	-0.239	0.168
-480.362	156.391	-0.117	0.160
-479.347	-22.851	0.347	0.208
-478.332	489.224	0.043	-0.097
-477.318	200.196	-0.119	0.182
-476.303	-58.778	-0.162	0.070
-475.289	-200.000	0.358	0.001
-474.274	800.000	0.060	-0.181
-473.259	-110.591	-0.161	-0.033
-472.245	-200.000	0.055	-0.382
-471.230	-130.123	-0.356	-0.048
-470.216	-60.455	0.225	0.095
-469.201	800.000	-0.033	-0.141
-468.186	-2.630	-0.062	-0.043
-467.172	-91.632	0.045	0.013
-466.157	324.454	-0.161	-0.305
-465.143	800.000	-0.110	-0.419
-464.128	180.674	-0.080	-0.117
-463.113	-72.623	0.242	0.088
-462.099	-72.088	-0.415	-0.153
-461.084	-81.640	-0.085	0.028
-460.070	415.130	-0.137	-0.289
-459.055	-27.459	-0.261	-0.150
-458.040	800.000	0.053	-0.155
-457.026	248.259	-0.092	-0.154
-456.011	-60.464	0.110	0.046
-454.997	-121.194	0.301	-0.050
-453.982	67.160	0.120	-0.122
-452.968	-97.154	-0.206	-0.053
-451.953	25.613	-0.038	0.031
-450.938	-46.543	-0.097	0.047
-449.924	-1.490	0.161	0.113
-448.909	800.000	0.021	0.072
-447.895	158.663	-0.054	0.074
-446.880	28.317	0.269	0.225
-445.865	-85.421	0.277	0.086
-444.851	800.000	0.085	0.254
-443.836	134.452	-0.132	-0.170
-442.822	-71.034	-0.155	-0.058
-441.807	-200.000	0.032	0.296
-440.792	41.751	0.170	0.152
-439.778	800.000	-0.024	0.100
-438.763	-200.000	-0.129	0.000
-437.749	102.347	-0.042	-0.049
-436.734	-10.772	-0.210	-0.138
-435.719	-20.091	0.229	-0.140
-434.705	-200.000	-0.012	-0.168
-433.690	-156.947	0.265	0.016
-432.676	361.223	0.062	-0.122
-431.661	800.000	-0.027	-0.086
-430.646	125.693	0.071	-0.089
-429.632	67.665	-0.255	0.258
-428.617	-200.000	-0.003	0.157
-427.603	269.357	0.077	0.134
-426.588	-200.000	0.053	0.386
-425.573	-170.604	0.218	0.007
-424.559	244.262	-0.096	0.160
-423.544	312.654	-0.076	0.141
-422.530	45.489	-0.136	0.124
-421.515	-200.000	0.030	-0.165
-420.500	30.716	0.108	-0.091
-419.486	-125.319	0.312	-0.047
-418.471	-200.000	-0.008	0.225
-417.457	5.552	-0.267	-0.195
-416.442	-44.821	-0.095	-0.047
-415.428	462.152	0.049	0.108
-414.413	800.000	0.047	0.165
-413.398	368.744	-0.190	0.379
-412.384	110.450	0.152	-0.181
-411.369	-54.534	-0.258	0.116
-410.355	534.148	0.026	0.060
-409.340	-145.304	0.084	0.007
-408.325	-167.842	0.266	0.010
-407.311	275.100	-0.067	-0.117
-406.296	-71.524	-0.172	-0.064
-405.282	70.752	0.073	0.074
-404.267	-144.725	0.208	-0.019
-403.252	30.607	0.221	-0.187
-402.238	-61.492	0.101	0.042
-401.223	-200.000	-0.271	-0.000
-400.209	-127.003	-0.203	-0.029
-399.194	299.435	0.042	0.076
-398.179	-47.050	-0.304	0.147
-397.165	-25.140	-0.228	-0.134
-396.150	-200.000	0.017	-0.267
-395.136	-24.778	-0.136	-0.080
-394.121	447.735	-0.127	-0.277
-393.106	-88.228	0.416	-0.123
-392.092	-169.258	-0.420	-0.015
-391.077	72.180	-0.072	-0.074
-390.063	-200.000	0.020	-0.120
-389.048	389.302	-0.117	0.240
-388.033	800.000	0.031	0.136
-387.019	-68.767	-0.178	-0.068
-386.004	-200.000	-0.035	-0.310
-384.990	800.000	0.048	-0.194
-383.975	800.000	0.044	-0.167
-382.960	5.592	-0.200	0.146
-381.946	465.087	0.071	-0.157
-380.931	-36.617	0.097	0.052
-379.917	125.268	0.031	0.039
-378.902	800.000	0.063	0.216
-377.888	-200.000	0.036	-0.308
-376.873	-103.138	0.118	-0.028
-375.858	-78.922	0.106	-0.036
-374.844	232.344	0.212	0.344
-373.829	-200.000	0.017	0.425
-372.815	128.686	0.172	0.217
-371.800	-15.379	0.182	-0.115
-370.785	-200.000	0.022	0.157
-369.771	726.429	-0.128	-0.337
-368.756	800.000	-0.107	-0.294
-367.742	81.745	-0.077	0.083
-366.727	-78.392	0.150	-0.051
-365.712	-200.000	0.046	-0.265
-364.698	800.000	-0.074	0.315
-363.683	-152.518	0.028	-0.002
-362.669	116.165	0.287	0.347
-361.654	-200.000	0.028	0.126
-360.639	-92.141	0.222	-0.062
-359.625	123.360	-0.195	0.242
-358.610	-200.000	-0.030	-0.230
-357.596	-32.808	-0.262	0.143
-356.581	-163.211	0.115	-0.005
-355.566	800.000	-0.058	0.224
-354.552	-21.761	0.201	0.121
-353.537	149.376	-0.274	-0.367
-352.523	-200.000	0.041	0.189
-351.508	280.103	-0.104	-0.183
-350.493	-71.554	0.081	0.030
-349.479	-200.000	0.021	0.329
-348.464	-128.353	0.119	-0.017
-347.450	-66.177	0.447	-0.176
-346.435	800.000	0.036	-0.121
-345.420	752.271	-0.052	-0.138
-344.406	-184.546	0.193	-0.003
-343.391	-160.106	0.299	0.016
-342.377	-3.446	-0.155	0.106
-341.362	90.881	0.242	-0.268
-340.348	-109.645	0.238	0.049
-339.333	82.206	-0.266	0.284
-338.318	-200.000	0.046	-0.290
-337.304	-200.000	-0.031	0.188
-336.289	-200.000	0.057	0.284
-335.275	148.939	-0.082	0.109
-334.260	248.060	0.156	-0.260
-333.245	23.217	-0.155	0.125
-332.231	-128.677	-0.104	0.014
-331.216	62.723	-0.169	0.166
-330.202	117.175	-0.083	0.101
-329.187	-200.000	-0.106	0.533
-328.172	471.647	-0.267	0.591
-327.158	224.108	-0.002	0.003
-326.143	369.799	0.167	-0.334
-325.129	18.432	0.178	-0.140
-324.114	769.761	-0.065	-0.174
-323.099	-52.839	-0.357	0.162
-322.085	800.000	0.189	0.524
-321.070	-200.000	0.023	-0.227
-320.056	800.000	-0.060	0.221
-319.041	80.527	-0.432	0.458
-318.026	307.294	0.088	-0.161
-317.012	81.643	0.218	-0.233
-315.997	259.120	0.080	0.135
-314.983	-200.000	-0.072	0.348
-313.968	-123.331	0.066	0.010
-312.953	-54.263	0.287	-0.128
-311.939	-200.000	0.034	-0.179
-310.924	419.752	-0.102	-0.216
-309.910	-200.000	-0.068	-0.353
-308.895	-59.751	0.190	0.080
-307.880	343.411	-0.195	-0.376
-306.866	-200.000	0.007	0.031
-305.851	-77.533	0.087	-0.030
-304.837	111.376	0.049	0.059
-303.822	-200.000	-0.018	-0.306
-302.807	74.731	-0.074	-0.077
-301.793	-10.548	-0.196	0.128
-300.778	-200.000	0.002	0.322
-299.764	371.139	-0.049	-0.098
-298.749	84.613	0.093	-0.100
-297.735	-39.178	0.114	-0.059
-296.720	-19.387	0.085	0.052
-295.705	-200.000	-0.008	0.108
-294.691	-88.483	0.266	-0.078
-293.676	231.366	-0.240	-0.386
-292.662	279.992	-0.056	0.098
-291.647	-13.738	-0.567	0.361
-290.632	-35.641	-0.049	-0.026
-289.618	-57.054	0.097	0.042
-288.603	1.085	-0.382	-0.269
-287.589	204.087	-0.039	-0.060
-286.574	-169.473	-0.088	-0.003
-285.559	730.848	0.094	-0.248
-284.545	-98.081	0.313	-0.079
-283.530	800.000	0.097	-0.278
-282.516	67.476	-0.105	-0.105
-281.501	484.069	-0.042	-0.093
-280.486	140.095	-0.025	-0.033
-279.472	-121.860	0.265	0.043
-278.457	119.669	-0.067	-0.081
-277.443	168.766	0.070	-0.098
-276.428	800.000	-0.074	-0.262
-275.413	76.805	0.206	0.214
-274.399	-135.074	0.244	0.029
-273.384	331.202	0.037	-0.071
-272.370	-65.855	-0.095	-0.037
-271.355	129.631	-0.047	0.059
-270.340	-142.603	-0.307	0.030
-269.326	800.000	-0.070	0.218
-268.311	-200.000	-0.009	0.071
-267.297	38.154	0.091	0.080
-266.282	-69.334	-0.274	0.103
-265.267	204.878	0.060	-0.091
-264.253	130.218	0.030	0.038
-263.238	3.111	-0.271	0.194
-262.224	171.709	-0.161	-0.227
-261.209	-111.088	0.027	0.006
-260.195	-29.910	-0.235	-0.131
-259.180	-86.061	0.020	0.006
-258.165	-200.000	0.037	0.327
-257.151	-47.941	0.032	0.015
-256.136	389.227	-0.044	-0.090
-255.122	364.906	0.079	0.157
-254.107	-40.990	0.295	0.150
-253.092	153.980	-0.019	-0.026
-252.078	-78.297	0.189	-0.064
-251.063	-117.388	0.185	0.033
-250.049	-153.261	0.221	-0.015
-249.034	40.972	0.076	0.067
-248.019	800.000	-0.056	-0.196
-247.005	149.610	0.062	0.082
-245.990	225.130	-0.232	0.369
-244.976	402.234	-0.112	0.232
-243.961	118.385	-0.220	0.267
-242.946	14.021	-0.099	0.075
-241.932	-40.487	0.133	-0.068
-240.917	10.711	-0.273	0.204
-239.903	-10.502	0.076	0.049
-238.888	245.661	0.052	-0.085
-237.873	-103.484	-0.031	0.007
-236.859	800.000	-0.110	-0.432
-235.844	137.903	-0.022	0.028
-234.830	291.139	-0.105	-0.188
-233.815	800.000	0.104	-0.302
-232.800	40.065	0.159	-0.140
-231.786	-142.981	0.212	0.020
-230.771	78.840	-0.178	0.187
-229.757	-49.035	-0.233	0.110
-228.742	-82.776	0.427	0.136
-227.727	-178.043	-0.266	0.006
-226.713	-200.000	-0.061	0.332
-225.698	-62.172	0.140	0.057
-224.684	4.824	0.279	-0.202
-223.669	444.907	0.114	0.246
-222.655	57.540	0.208	0.200
-221.640	-54.184	-0.284	-0.127
-220.625	-43.193	0.062	-0.031
-219.611	-41.255	0.252	0.128
-218.596	-200.000	0.011	0.167
-217.582	-124.115	0.026	-0.004
-216.567	-8.672	0.095	-0.063
-215.552	800.000	0.094	0.278
-214.538	-26.438	-0.270	0.156
-213.523	-161.195	0.255	0.013
-212.509	-1.505	0.113	-0.078
-211.494	-200.000	-0.008	-0.105
-210.479	-115.643	-0.103	0.019
-209.465	33.116	-0.042	-0.036
-208.450	152.859	0.181	0.243
-207.436	472.831	0.091	-0.200
-206.421	800.000	-0.021	0.060
-205.406	800.000	-0.120	-0.417
-204.392	20.347	0.220	0.174
-203.377	-200.000	0.039	-0.230
-202.363	14.605	-0.133	-0.102
-201.348	96.564	-0.176	0.198
-200.333	88.957	-0.036	0.040
-199.319	46.435	-0.122	0.111
-198.304	335.947	-0.078	-0.147
-197.290	-21.930	0.036	-0.022
-196.275	800.000	-0.096	0.291
-195.260	297.749	-0.149	-0.269
-194.246	168.890	0.202	-0.282
-193.231	-68.415	-0.094	-0.036
-192.217	164.093	0.176	0.243
-191.202	212.825	-0.056	-0.087
-190.187	296.896	-0.141	-0.254
-189.173	-88.430	-0.251	-0.073
-188.158	-47.996	-0.331	-0.157
-187.144	-157.743	0.063	0.004
-186.129	-86.781	0.333	0.100
-185.114	398.740	0.121	-0.248
-184.100	-200.000	-0.045	-0.309
-183.085	-90.356	0.177	0.050
-182.071	800.000	0.072	-0.216
-181.056	174.274	-0.109	-0.155
-180.042	-105.423	0.195	-0.043
-179.027	-105.066	0.162	0.036
-178.012	-46.217	-0.043	-0.021
-176.998	519.295	0.139	-0.319
-175.983	-79.979	-0.167	0.055
-174.969	-200.000	0.074	0.374
-173.954	257.939	-0.083	0.140
-172.939	13.020	0.165	0.125
-171.925	-176.353	0.112	0.003
-170.910	-103.402	0.375	0.087
-169.896	-121.003	-0.318	0.052
-168.881	-5.622	0.161	-0.108
-167.866	-200.000	0.001	-0.233
-166.852	-123.438	0.277	0.043
-165.837	-7.309	-0.321	0.213
-164.823	-79.984	0.363	-0.119
-163.808	-150.094	0.156	-0.012
-162.793	-163.075	0.214	-0.010
-161.779	-108.577	-0.445	-0.094
-160.764	-30.378	0.154	-0.085
-159.750	402.744	-0.114	-0.235
-158.735	-200.000	0.008	-0.274
-157.720	-63.409	-0.111	0.045
-156.706	-74.759	-0.223	-0.078
-155.691	423.423	0.072	0.152
-154.677	92.520	-0.124	-0.137
-153.662	11.142	0.082	-0.062
-152.647	-58.039	-0.325	-0.139
-151.633	-98.606	0.188	-0.047
-150.618	-200.000	-0.062	0.280
-149.604	396.727	-0.094	-0.192
-148.589	-200.000	-0.058	-0.303
-147.574	-83.434	-0.196	-0.062
-146.560	260.738	0.060	-0.102
-145.545	88.809	-0.187	0.204
-144.531	-115.543	-0.499	0.092
-143.516	317.604	0.106	0.196
-142.502	380.877	-0.109	0.219
-141.487	22.392	-0.219	-0.175
-140.472	10.473	-0.174	-0.130
-139.458	-65.326	0.141	-0.056
-138.443	-74.995	0.271	0.095
-137.429	800.000	0.110	0.303
-136.414	196.538	-0.092	-0.136
-135.399	-200.000	-0.034	-0.524
-134.385	314.938	0.109	0.201
-133.370	-200.000	0.011	-0.095
-132.356	-13.106	0.310	-0.197
-131.341	-147.057	-0.118	-0.010
-130.326	103.457	-0.152	-0.175
-129.312	36.319	-0.135	0.116
-128.297	651.706	-0.075	0.187
-127.283	-73.098	-0.206	0.074
-126.268	-169.973	0.195	0.007
-125.253	-46.158	-0.461	-0.222
-124.239	58.943	0.114	0.110
-123.224	-13.327	0.095	-0.060
-122.210	-200.000	-0.029	-0.288
-121.195	-108.965	0.103	-0.021
-120.180	22.314	0.357	0.285
-119.166	-83.095	-0.190	0.060
-118.151	-30.257	0.043	0.024
-117.137	-157.899	0.375	-0.022
-116.122	-144.560	-0.314	-0.028
-115.107	-196.397	0.194	-0.001
-114.093	-52.001	0.092	0.042
-113.078	-36.181	0.446	-0.235
-112.064	-81.325	-0.203	-0.065
-111.049	80.580	-0.267	-0.281
-110.034	-114.817	0.132	-0.025
-109.020	292.189	0.176	0.314
-108.005	800.000	0.054	0.206
-106.991	3.877	-0.178	0.127
-105.976	94.773	0.157	0.174
-104.962	328.672	-0.150	-0.282
-103.947	38.495	0.193	0.168
-102.932	-200.000	-0.013	0.116
-101.918	183.856	0.099	-0.143
-100.903	-191.486	-0.101	-0.001
-99.889	-30.142	0.092	-0.051
-98.874	-2.624	0.201	-0.137
-97.859	-200.000	-0.034	0.344
-96.845	-65.632	0.347	0.136
-95.830	-150.470	-0.085	0.006
-94.816	65.392	0.034	0.033
-93.801	23.392	0.198	0.159
-92.786	-161.293	0.065	0.003
-91.772	-200.000	0.001	0.015
-90.757	-141.710	0.343	0.034
-89.743	-86.458	0.220	-0.066
-88.728	125.303	-0.170	0.209
-87.713	-11.642	-0.088	-0.056
-86.699	609.881	0.056	-0.137
-85.684	57.094	-0.117	-0.112
-84.670	350.715	-0.043	-0.083
-83.655	-114.091	-0.404	0.076
-82.640	-200.000	0.003	-0.137
-81.626	-60.496	-0.178	0.074
-80.611	-106.992	0.319	0.069
-79.597	800.000	-0.055	-0.220
-78.582	-200.000	0.008	-0.046
-77.567	10.299	0.016	-0.012
-76.553	800.000	-0.088	0.307
-75.538	-83.826	0.177	0.055
-74.524	-106.014	0.255	0.056
-73.509	800.000	0.049	0.196
-72.494	118.333	-0.087	0.105
-71.480	800.000	-0.028	0.103
-70.465	-45.691	0.162	0.078
-69.451	-128.671	0.155	0.021
-68.436	-200.000	-0.049	-0.282
-67.422	41.941	-0.274	0.242
-66.407	131.108	0.027	-0.034
-65.392	13.222	-0.135	-0.102
-64.378	423.378	-0.097	0.203
-63.363	600.565	-0.091	0.219
-62.349	78.999	0.075	0.078
-61.334	98.599	-1.051	-1.181
-60.319	-24.846	0.933	0.540
-59.305	800.000	-0.390	-1.481
-58.290	107.797	1.005	1.167
-57.276	333.621	0.790	1.489
-56.261	-200.000	136.526	655.137
-55.246	333.609	1669.178	3147.003
-54.232	134.561	2797.393	3537.785
-53.217	84.777	2170.863	2317.786
-52.203	31.136	1601.603	1339.184
-51.188	23.393	1351.607	1082.993
-50.173	21.338	1316.551	1042.613
-49.159	48.682	1390.667	1270.775
-48.144	44.605	1399.510	1253.751
-47.130	23.542	1347.452	1080.398
-46.115	20.554	1328.315	1047.041
-45.100	20.437	1322.758	1041.918
-44.086	20.336	1320.592	1039.570
-43.071	20.148	1318.611	1036.844
-42.057	20.271	1316.095	1035.558
-41.042	20.185	1315.138	1034.249
-40.027	20.363	1312.852	1033.472
-39.013	20.345	1310.632	1031.574
-37.998	20.279	1309.265	1030.067
-36.984	20.280	1308.157	1029.161
-35.969	20.396	1305.864	1028.003
-34.954	20.472	1303.926	1026.883
-33.940	20.368	1303.040	1025.530
-32.925	20.387	1302.210	1024.953
-31.911	20.500	1299.761	1023.648
-30.896	20.502	1298.708	1022.788
-29.881	20.507	1297.423	1021.765
-28.867	20.461	1296.157	1020.462
-27.852	20.560	1294.593	1019.766
-26.838	20.479	1293.728	1018.572
-25.823	20.500	1291.998	1017.295
-24.809	20.388	1290.889	1015.724
-23.794	20.418	1289.308	1014.612
-22.779	20.436	1287.769	1013.471
-21.765	20.545	1286.524	1013.083
-20.750	20.447	1285.256	1011.477
-19.736	20.404	1284.298	1010.429
-18.721	20.351	1283.597	1009.528
-17.706	20.298	1282.303	1008.163
-16.692	20.401	1281.201	1007.856
-15.677	20.452	1279.624	1006.869
-14.663	20.219	1279.244	1005.182
-13.648	20.396	1277.458	1004.763
-12.633	20.408	1276.647	1004.154
-11.619	20.303	1275.991	1002.990
-10.604	20.494	1274.933	1003.224
-9.590	20.298	1274.303	1001.559
-8.575	20.216	1273.315	1000.265
-7.560	20.303	1272.189	999.844
-6.546	20.338	1271.768	999.676
-5.531	20.352	1271.020	999.128
-4.517	20.197	1270.633	997.891
-3.502	20.358	1268.922	997.437
-2.487	20.374	1268.157	996.884
-1.473	20.277	1263.698	992.785
-0.458	18.613	1248.060	971.053
0.556	14.106	1232.297	933.736
1.571	10.414	1241.044	919.370
2.586	9.821	1256.638	927.428
3.600	10.084	1243.893	919.435
4.615	7.625	1172.535	853.420
5.629	2.827	1103.691	778.937
6.644	0.886	1087.388	757.652
7.659	0.560	1085.969	754.965
8.673	0.513	1085.385	754.259
9.688	0.582	1083.912	753.511
10.702	0.790	1081.325	752.681
11.717	3.553	1084.630	768.696
12.731	9.749	1092.734	805.393
13.746	15.147	1100.283	837.956
14.761	17.027	1102.116	848.691
15.775	16.444	1100.576	844.517
16.790	15.456	1098.263	837.739
17.804	14.778	1096.835	833.193
18.819	14.431	1095.326	830.247
19.834	14.231	1094.923	828.873
20.848	13.925	1094.067	826.627
21.863	13.727	1093.126	824.860
22.877	13.591	1092.145	823.368
23.892	13.559	1091.804	822.882
24.907	13.477	1091.375	822.075
25.921	13.605	1090.065	821.652
26.936	13.523	1089.133	820.471
27.950	13.595	1088.408	820.211
28.965	13.776	1086.637	819.696
29.980	13.838	1084.995	818.691
30.994	13.803	1084.355	817.964
32.009	13.852	1083.752	817.679
33.023	13.817	1082.461	816.460
34.038	13.710	1081.418	815.076
35.053	13.856	1080.432	814.975
36.067	13.679	1079.845	813.592
37.082	13.802	1078.981	813.472
38.096	13.875	1077.678	812.773
39.111	13.791	1077.404	812.087
40.126	13.721	1075.995	810.611
41.140	13.583	1075.242	809.295
42.155	13.451	1074.134	807.746
43.169	13.442	1073.210	806.937
44.184	13.432	1071.922	805.848
45.199	13.591	1070.476	805.465
46.213	13.627	1069.670	804.962
47.228	13.655	1068.671	804.276
48.242	13.671	1067.380	803.308
49.257	13.703	1066.248	802.539
50.271	13.580	1065.947	801.647
51.286	13.689	1064.566	801.066
52.301	13.712	1063.336	800.178
53.315	13.734	1062.458	799.555
54.330	13.517	1061.569	797.766
55.344	13.569	1060.735	797.324
56.359	13.685	1059.573	796.934
57.374	13.556	1058.935	795.763
58.388	13.497	1058.411	795.015
59.403	13.509	1057.539	794.351
60.417	13.503	1056.638	793.576
61.432	13.477	1055.957	792.867
62.447	13.582	1054.625	792.301
63.461	13.510	1054.158	791.535
64.476	13.559	1053.238	791.008
65.490	13.540	1052.393	790.212
66.505	13.452	1051.801	789.276
67.520	13.635	1050.774	789.311
68.534	13.593	1050.138	788.561
69.549	13.447	1049.630	787.415
70.563	13.501	1048.562	786.803
71.578	13.461	1047.951	786.085
72.593	13.419	1046.854	784.994
73.607	13.340	1046.566	784.333
74.622	13.496	1045.757	784.395
75.636	13.406	1045.087	783.396
76.651	13.562	1043.843	783.134
77.666	13.439	1043.795	782.448
78.680	13.559	1041.942	781.556
79.695	13.492	1041.649	780.952
80.709	13.567	1041.274	780.953
81.724	13.598	1040.493	780.446
82.739	13.598	1039.958	779.975
83.753	13.578	1039.549	779.502
84.768	13.706	1038.141	778.981
85.782	13.637	1037.157	777.847
86.797	13.667	1036.404	777.359
87.812	13.631	1036.018	776.832
88.826	13.644	1034.644	775.789
89.841	13.635	1033.596	774.894
90.855	13.616	1032.901	774.219
91.870	13.752	1031.988	774.097
92.884	13.701	1031.084	773.113
93.899	13.838	1030.131	772.967
94.914	13.801	1028.923	771.824
95.928	13.636	1028.754	770.858
96.943	13.760	1027.264	770.249
97.957	13.626	1026.604	769.067
98.972	13.692	1025.765	768.674
99.987	13.729	1024.776	768.038
101.001	13.803	1023.230	767.153
102.016	13.698	1022.782	766.266
103.030	13.744	1022.436	766.149
104.045	13.766	1021.517	765.494
105.060	13.640	1020.779	764.295
106.074	13.608	1019.909	763.425
107.089	13.708	1018.482	762.751
108.103	13.613	1018.202	762.039
109.118	13.631	1016.773	760.981
110.133	13.625	1015.868	760.212
111.147	13.787	1014.910	760.167
112.162	13.504	1014.483	758.486
113.176	13.680	1013.275	758.321
114.191	13.674	1012.596	757.716
115.206	13.727	1011.991	757.439
116.220	13.837	1010.549	756.795
117.235	13.705	1009.530	755.364
118.249	13.700	1008.891	754.796
119.264	13.676	1007.970	753.932
120.279	13.776	1007.126	753.686
121.293	13.630	1006.811	752.723
122.308	13.615	1005.972	751.961
123.322	13.629	1004.636	750.958
124.337	13.628	1003.781	750.247
125.352	13.774	1002.327	749.757
126.366	13.654	1001.549	748.563
127.381	13.641	1000.366	747.557
128.395	13.640	999.656	746.955
129.410	13.682	998.692	746.356
130.424	13.793	997.828	746.144
131.439	13.606	997.199	744.770
132.454	13.714	996.465	744.639
133.468	13.761	995.286	743.901
134.483	13.605	994.588	742.615
135.497	13.809	994.057	743.066
136.512	13.714	993.018	741.801
137.527	13.670	992.043	740.811
138.541	13.740	991.521	740.667
139.556	13.720	990.780	739.961
140.570	13.799	989.720	739.456
141.585	13.817	988.944	738.889
142.600	13.771	988.294	738.134
143.614	14.015	986.727	737.981
144.629	13.832	986.220	736.723
145.643	13.841	985.579	736.221
146.658	13.843	984.695	735.506
147.673	13.667	983.816	734.004
148.687	13.826	982.888	733.951
149.702	13.849	981.685	733.087
150.716	13.838	980.759	732.282
151.731	13.836	980.301	731.869
152.746	13.802	979.670	731.180
153.760	13.944	978.432	730.818
154.775	13.914	978.521	730.686
155.789	14.114	977.341	730.619
156.804	14.020	976.820	729.751
157.819	13.966	976.093	728.910
158.833	13.943	975.800	728.523
159.848	13.986	974.551	727.714
160.862	13.968	973.731	726.961
161.877	14.020	972.450	726.168
162.892	13.992	971.679	725.407
163.906	13.953	971.063	724.711
164.921	13.983	970.248	724.167
165.935	13.983	968.925	723.119
166.950	13.984	967.935	722.320
167.964	13.954	967.050	721.466
168.979	14.029	966.399	721.240
169.994	14.109	965.326	720.721
171.008	14.035	964.977	720.080
172.023	14.145	963.860	719.656
173.037	14.143	963.022	718.960
174.052	14.122	962.502	718.418
175.067	14.061	962.000	717.712
176.081	14.128	961.320	717.432
177.096	14.072	960.957	716.856
178.110	14.068	960.302	716.289
179.125	14.287	959.364	716.466
180.140	14.221	958.903	715.776
181.154	14.227	958.049	715.098
182.169	14.128	958.207	714.729
183.183	14.262	957.089	714.407
184.198	14.292	956.381	713.945
185.213	14.353	955.495	713.481
186.227	14.430	954.535	713.031
187.242	14.355	954.241	712.426
188.256	14.441	953.541	712.209
189.271	14.329	952.628	710.984
190.286	14.077	952.139	709.484
191.300	14.192	951.315	709.295
192.315	14.182	950.766	708.782
193.329	14.159	950.552	708.462
194.344	14.213	949.612	707.927
195.359	14.205	948.885	707.290
196.373	14.317	948.118	707.129
197.388	14.371	947.998	707.206
198.402	14.429	947.117	706.735
199.417	14.407	946.676	706.250
200.432	14.474	945.698	705.742
201.446	14.507	945.353	705.562
202.461	14.523	944.942	705.257
203.475	14.591	944.477	705.136
204.490	14.492	943.245	703.738
205.504	14.465	942.529	703.028
206.519	14.525	941.747	702.635
207.534	14.458	941.282	701.942
208.548	14.477	940.234	701.178
209.563	14.467	940.038	700.927
210.577	14.477	939.295	700.353
211.592	14.726	937.829	700.244
212.607	14.624	937.491	699.500
213.621	14.517	936.850	698.514
214.636	14.639	936.355	698.592
215.650	14.648	935.564	697.979
216.665	14.628	934.941	697.370
217.680	14.783	933.829	697.125
218.694	14.627	933.357	696.058
219.709	14.781	932.837	696.251
220.723	14.737	932.015	695.395
221.738	14.817	931.303	695.132
222.753	14.812	930.719	694.615
223.767	14.841	930.231	694.312
224.782	14.837	929.721	693.854
225.796	14.891	929.074	693.530
226.811	14.835	928.648	692.919
227.826	14.802	927.839	692.119
228.840	14.858	927.179	691.796
229.855	14.816	926.061	690.729
230.869	14.833	925.375	690.224
231.884	14.908	924.662	689.943
232.899	14.788	924.211	689.049
233.913	14.886	923.374	688.770
234.928	14.809	922.908	688.044
235.942	14.833	922.167	687.527
236.957	14.920	921.395	687.249
237.972	14.980	920.450	686.731
238.986	14.777	920.588	685.938
240.001	14.891	919.534	685.560
241.015	15.049	918.478	685.359
242.030	14.961	918.272	684.785
243.045	15.024	917.503	684.409
244.059	14.970	916.980	683.738
245.074	15.071	916.389	683.650
246.088	14.943	915.820	682.640
247.103	14.917	915.530	682.258
248.117	15.195	914.524	682.581
249.132	15.170	914.258	682.217
250.147	15.278	913.109	681.739
251.161	15.277	912.385	681.135
252.176	15.339	912.076	681.098
253.190	15.454	911.066	680.748
254.205	15.281	910.412	679.499
255.220	15.375	909.809	679.369
256.234	15.424	908.978	678.887
257.249	15.289	908.149	677.664
258.263	15.457	907.578	677.856
259.278	15.280	907.255	676.838
260.293	15.485	906.461	677.013
261.307	15.425	906.034	676.394
262.322	15.444	905.425	675.955
263.336	15.539	904.538	675.616
264.351	15.610	903.645	675.174
265.366	15.628	902.757	674.524
266.380	15.684	902.545	674.529
267.395	15.643	901.491	673.518
268.409	15.502	901.056	672.567
269.424	15.512	900.459	672.102
270.439	15.613	899.354	671.624
271.453	15.701	898.813	671.511
272.468	15.524	898.551	670.550
273.482	15.667	897.825	670.520
274.497	15.558	897.398	669.706
275.512	15.566	896.370	668.912
276.526	15.570	896.304	668.818
277.541	15.832	895.429	669.147
278.555	15.718	894.853	668.206
279.570	15.749	894.244	667.817
280.585	15.851	893.321	667.472
281.599	15.838	892.664	666.870
282.614	15.644	892.209	665.702
283.628	15.766	891.503	665.599
284.643	15.811	890.953	665.307
285.657	15.887	890.326	665.079
286.672	15.705	889.756	663.876
287.687	15.797	888.963	663.592
288.701	15.799	888.837	663.446
289.716	15.839	887.653	662.662
290.730	16.010	886.990	662.780
291.745	15.952	886.127	661.848
292.760	15.978	885.648	661.532
293.774	15.873	885.619	661.042
294.789	15.956	884.450	660.437
295.803	15.994	883.659	659.935
296.818	15.996	883.201	659.544
297.833	16.021	882.298	658.907
298.847	16.087	882.039	658.913
299.862	16.118	881.520	658.588
300.876	16.125	880.910	658.103
301.891	16.002	880.295	657.107
302.906	16.090	879.903	657.095
303.920	16.163	879.224	656.816
304.935	16.261	878.666	656.725
305.949	16.201	877.817	655.799
306.964	16.305	877.073	655.588
307.979	16.201	876.744	654.878
308.993	16.234	876.092	654.462
310.008	16.170	875.886	654.003
311.022	16.352	874.693	653.757
312.037	16.362	873.818	653.087
313.052	16.373	873.405	652.763
314.066	16.172	873.253	651.812
315.081	16.102	872.693	651.068
316.095	16.262	871.539	650.767
317.110	16.209	871.641	650.581
318.125	16.322	870.956	650.446
319.139	16.312	870.464	649.981
320.154	16.234	870.232	649.451
321.168	16.370	869.666	649.496
322.183	16.346	868.702	648.626
323.197	16.300	868.231	648.041
324.212	16.383	867.745	647.939
325.227	16.413	867.221	647.604
326.241	16.455	866.489	647.162
327.256	16.344	866.269	646.515
328.270	16.464	865.282	646.180
329.285	16.380	864.898	645.517
330.300	16.508	864.130	645.375
331.314	16.476	863.488	644.716
332.329	16.590	862.793	644.573
333.343	16.472	862.630	643.945
334.358	16.517	862.222	643.753
335.373	16.463	862.191	643.470
336.387	16.483	861.857	643.238
337.402	16.583	861.465	643.270
338.416	16.591	860.939	642.849
339.431	16.566	860.462	642.343
340.446	16.582	860.335	642.251
341.460	16.664	859.475	641.863
342.475	16.726	858.895	641.607
343.489	16.629	858.996	641.258
344.504	16.850	858.117	641.385
345.519	16.758	858.007	640.898
346.533	16.745	857.341	640.293
347.548	16.842	856.445	639.934
348.562	16.601	856.430	638.956
349.577	16.892	855.598	639.374
350.592	16.749	854.829	638.204
351.606	16.754	854.419	637.862
352.621	16.784	853.342	637.115
353.635	16.724	853.105	636.656
354.650	16.727	852.470	636.135
355.665	16.832	851.692	635.893
356.679	17.045	850.811	635.977
357.694	17.075	850.229	635.600
358.708	17.021	849.701	634.948
359.723	16.866	849.308	634.015
360.738	17.010	848.226	633.690
361.752	16.915	848.197	633.258
362.767	16.930	847.419	632.677
363.781	17.009	846.707	632.383
364.796	17.106	846.182	632.298
365.810	17.184	845.850	632.283
366.825	17.151	845.603	631.920
367.840	17.259	844.996	631.813
368.854	17.181	844.542	631.126
369.869	17.091	844.047	630.368
370.883	17.118	843.638	630.104
371.898	17.110	843.482	629.904
372.913	17.285	843.099	630.210
373.927	17.215	842.305	629.302
374.942	17.356	842.052	629.581
375.956	17.318	841.561	629.016
376.971	17.334	841.349	628.862
377.986	17.480	840.483	628.697
379.000	17.437	839.821	627.988
380.015	17.326	839.747	627.469
381.029	17.404	839.091	627.211
382.044	17.342	838.338	626.362
383.059	17.540	837.862	626.679
384.073	17.353	837.282	625.503
385.088	17.343	836.902	625.129
386.102	17.388	836.289	624.779
387.117	17.468	835.583	624.489
388.132	17.337	835.079	623.578
389.146	17.378	834.468	623.218
390.161	17.351	834.306	622.943
391.175	17.569	833.435	623.034
392.190	17.611	832.965	622.780
393.205	17.420	832.561	621.728
394.219	17.441	832.084	621.393
395.234	17.368	832.082	621.067
396.248	17.528	831.333	621.038
397.263	17.315	830.974	619.939
398.278	17.558	830.610	620.496
399.292	17.507	829.971	619.781
400.307	17.506	829.540	619.398
401.321	17.436	829.086	618.751
402.336	17.507	828.742	618.698
403.350	17.584	828.306	618.596
404.365	17.667	827.588	618.305
405.380	17.747	826.996	618.100
406.394	17.639	826.526	617.303
407.409	17.843	825.931	617.544
408.423	17.863	825.855	617.504
409.438	18.017	825.476	617.720
410.453	17.963	824.564	616.791
411.467	17.923	824.352	616.433
412.482	17.747	824.194	615.624
413.496	17.881	823.916	615.847
414.511	18.080	823.139	615.927
415.526	17.996	822.771	615.294
416.540	17.826	822.308	614.283
417.555	17.935	821.837	614.269
418.569	17.859	821.779	613.898
419.584	17.974	820.932	613.625
420.599	17.970	820.529	613.253
421.613	115.590	1302.091	1492.941
422.628	100.282	1372.205	1492.991
