DTS Sentinel unit serial number:	SN413079Multiplexer serial number:	ORYXHardware model number:	OX4-SRSoftware version number:	ORYX F/W v4.00 Oryx Data Collector v3.7.2.0data status	okinstallation	princeton_trtdifferential loss correction	single-endedforward channel	channel 1reverse channel	N/Adate	2019/09/12time	23:46:35forward acquisition time	60.00reverse acquisition time	0.00gamma	496.2192k internal	0.2328k external	0.2328temperature offset calibration	1.0152default loss term (dB/km)	0.3790temperature slope calibration	1.0000multiplexer offset coefficient	1.0000multiplexer slope coefficient	1.0000fibre end	0.00T internal ref (°C)	28.80T ext. ref 1 (°C)	3.77T ext. ref 2 (°C)	23.55length (m)	temperature (°C)	Stokes	anti-Stokes-747.200	800.000	-0.027	-0.083
-746.185	-16.766	0.344	0.219
-745.171	190.672	-0.075	-0.113
-744.156	800.000	0.024	0.101
-743.142	800.000	0.032	-0.113
-742.127	-138.712	-0.190	-0.021
-741.112	800.000	0.040	0.172
-740.098	7.048	0.203	0.153
-739.083	-68.813	-0.550	0.214
-738.069	126.499	0.112	0.143
-737.054	-121.280	0.110	-0.018
-736.039	-117.336	0.345	0.063
-735.025	-200.000	-0.005	0.428
-734.010	293.663	-0.125	-0.230
-732.996	-55.312	-0.181	-0.082
-731.981	-106.125	-0.157	-0.035
-730.966	271.321	0.177	-0.314
-729.952	-86.769	-0.241	-0.074
-728.937	-127.763	-0.410	-0.060
-727.923	199.259	-0.154	-0.238
-726.908	81.698	-0.123	-0.134
-725.894	-200.000	0.034	-0.234
-724.879	-200.000	0.002	0.164
-723.864	-138.008	-0.144	0.016
-722.850	-73.035	-0.163	0.060
-721.835	-128.607	-0.226	-0.032
-720.821	-200.000	-0.011	-0.061
-719.806	355.369	-0.069	-0.138
-718.791	4.205	-0.065	-0.048
-717.777	-200.000	-0.042	-0.268
-716.762	-200.000	0.014	0.245
-715.748	158.942	-0.316	-0.442
-714.733	-200.000	-0.013	0.122
-713.718	-77.309	0.213	0.074
-712.704	-200.000	-0.055	0.304
-711.689	-32.110	0.285	-0.160
-710.675	-146.499	-0.357	0.031
-709.660	-200.000	-0.048	-0.355
-708.645	508.205	0.154	-0.361
-707.631	-8.016	-0.251	0.170
-706.616	4.982	0.288	0.213
-705.602	477.815	0.075	-0.170
-704.587	54.404	0.229	0.221
-703.572	279.261	0.049	-0.088
-702.558	38.124	-0.165	0.148
-701.543	-125.441	0.206	-0.031
-700.529	-125.138	0.166	-0.026
-699.514	181.305	-0.287	-0.425
-698.499	-27.608	0.292	-0.171
-697.485	800.000	-0.108	-0.393
-696.470	800.000	-0.087	-0.277
-695.456	-174.169	0.314	0.009
-694.441	389.519	-0.063	-0.131
-693.426	478.726	-0.063	-0.143
-692.412	-109.598	-0.087	0.019
-691.397	800.000	-0.034	0.109
-690.383	217.455	-0.117	0.187
-689.368	-86.133	0.125	0.039
-688.354	32.695	-0.039	0.034
-687.339	-162.178	0.068	-0.003
-686.324	-69.820	0.084	0.032
-685.310	-114.921	0.405	-0.078
-684.295	108.469	-0.119	0.143
-683.281	800.000	-0.123	-0.468
-682.266	529.707	-0.107	-0.255
-681.251	-100.370	-0.126	-0.031
-680.237	44.141	-0.066	-0.061
-679.222	-200.000	-0.062	-0.373
-678.208	-200.000	0.006	0.159
-677.193	360.430	0.163	-0.329
-676.178	-200.000	-0.106	-0.000
-675.164	253.540	0.030	-0.052
-674.149	-102.950	-0.463	-0.111
-673.135	376.815	-0.262	0.538
-672.120	-89.937	-0.247	0.072
-671.105	-200.000	0.034	-0.523
-670.091	-200.000	-0.018	-0.144
-669.076	-132.586	0.202	-0.026
-668.062	-200.000	-0.038	-0.398
-667.047	-29.143	-0.460	-0.265
-666.032	45.238	0.058	-0.054
-665.018	-46.489	0.153	0.075
-664.003	800.000	-0.048	0.164
-662.989	305.075	0.098	-0.183
-661.974	21.503	-0.087	0.071
-660.959	-117.183	-0.163	-0.030
-659.945	120.604	0.242	-0.303
-658.930	-5.377	-0.140	-0.097
-657.916	-131.790	-0.076	-0.010
-656.901	-77.255	0.209	-0.073
-655.886	32.584	0.036	-0.031
-654.872	-200.000	-0.029	-0.185
-653.857	140.324	0.117	0.155
-652.843	-74.518	0.265	0.096
-651.828	44.442	0.131	-0.121
-650.814	546.494	0.045	0.109
-649.799	212.990	-0.084	0.133
-648.784	517.343	-0.215	0.505
-647.770	131.804	-0.221	-0.286
-646.755	-143.213	-0.287	0.028
-645.741	123.122	0.143	-0.180
-644.726	-94.748	-0.342	0.093
-643.711	800.000	0.133	-0.396
-642.697	-59.917	0.141	0.060
-641.682	-200.000	-0.003	-0.104
-640.668	399.186	0.089	0.188
-639.653	186.553	0.104	0.155
-638.638	-200.000	0.009	0.118
-637.624	-62.409	-0.170	-0.071
-636.609	800.000	0.021	-0.084
-635.595	5.434	0.122	-0.091
-634.580	447.046	-0.090	0.198
-633.565	381.601	0.214	-0.440
-632.551	-16.574	-0.189	-0.120
-631.536	-34.091	-0.143	0.079
-630.522	7.710	0.340	0.255
-629.507	14.766	0.179	0.141
-628.492	800.000	0.044	-0.124
-627.478	-176.463	0.198	0.005
-626.463	-101.115	0.234	0.058
-625.449	516.684	0.137	-0.322
-624.434	-95.437	0.141	0.038
-623.419	52.103	0.161	-0.153
-622.405	225.589	0.200	-0.325
-621.390	-50.775	-0.381	0.180
-620.376	-69.500	0.185	0.071
-619.361	-69.825	-0.347	-0.133
-618.346	487.793	0.086	0.196
-617.332	-51.851	0.153	0.072
-616.317	30.361	0.228	-0.195
-615.303	2.229	-0.251	-0.182
-614.288	8.579	0.190	-0.143
-613.273	-48.064	-0.328	-0.159
-612.259	-200.000	0.047	-0.282
-611.244	-126.712	0.151	0.022
-610.230	-102.328	-0.253	-0.061
-609.215	260.439	-0.146	0.254
-608.201	-102.213	0.055	0.013
-607.186	4.900	-0.178	0.131
-606.171	-91.706	-0.133	-0.038
-605.157	-127.106	-0.422	-0.062
-604.142	88.979	0.307	-0.342
-603.128	109.159	0.158	-0.190
-602.113	-200.000	-0.017	-0.290
-601.098	111.187	0.244	0.294
-600.084	60.206	0.104	0.103
-599.069	-177.487	-0.040	0.001
-598.055	132.148	-0.096	-0.124
-597.040	-200.000	-0.048	-0.248
-596.025	-200.000	-0.065	-0.483
-595.011	242.971	-0.078	0.130
-593.996	66.192	0.284	0.288
-592.982	60.520	-0.048	-0.048
-591.967	-103.317	0.295	-0.070
-590.952	-59.998	-0.205	-0.088
-589.938	-122.785	-0.126	-0.020
-588.923	-166.688	-0.224	0.009
-587.909	4.548	0.086	0.064
-586.894	800.000	0.020	0.082
-585.879	-90.777	0.198	0.057
-584.865	543.657	-0.101	-0.242
-583.850	-200.000	-0.002	0.170
-582.836	492.968	-0.022	0.049
-581.821	-102.612	0.061	-0.015
-580.806	-200.000	0.007	-0.039
-579.792	-200.000	-0.228	0.001
-578.777	-98.506	-0.315	0.081
-577.763	-10.399	-0.242	-0.161
-576.748	421.064	0.063	-0.135
-575.733	-113.496	0.146	0.029
-574.719	794.791	0.066	-0.181
-573.704	-200.000	0.020	-0.213
-572.690	210.082	0.163	-0.256
-571.675	252.295	-0.141	-0.240
-570.661	-12.115	0.163	-0.107
-569.646	-121.312	0.247	0.041
-568.631	-95.727	-0.097	0.026
-567.617	-160.152	-0.331	0.018
-566.602	-156.577	0.336	0.021
-565.588	-114.951	-0.239	0.046
-564.573	298.694	0.142	-0.261
-563.558	800.000	0.096	0.280
-562.544	-5.605	-0.415	0.284
-561.529	-200.000	-0.021	0.204
-560.515	-27.767	0.343	0.199
-559.500	121.374	0.037	-0.046
-558.485	-64.420	0.094	-0.038
-557.471	589.388	-0.105	0.259
-556.456	-20.795	-0.144	0.088
-555.442	21.424	-0.034	-0.028
-554.427	161.615	-0.239	0.335
-553.412	49.427	0.215	0.203
-552.398	153.220	-0.094	-0.129
-551.383	-67.292	0.252	0.099
-550.369	-28.494	-0.308	-0.178
-549.354	-98.611	-0.469	-0.120
-548.339	665.657	-0.023	0.060
-547.325	26.968	-0.030	0.025
-546.310	170.870	0.184	0.264
-545.296	436.716	-0.095	-0.206
-544.281	-200.000	-0.033	-0.273
-543.266	-200.000	-0.005	0.125
-542.252	328.548	0.015	-0.028
-541.237	191.256	0.100	-0.150
-540.223	800.000	-0.059	0.225
-539.208	0.856	-0.208	-0.149
-538.193	-19.215	0.221	-0.137
-537.179	208.379	0.131	0.205
-536.164	-125.532	-0.050	-0.008
-535.150	-29.327	0.097	-0.055
-534.135	-53.692	0.339	-0.155
-533.121	-28.606	-0.167	-0.096
-532.106	-118.022	-0.080	0.014
-531.091	-83.571	0.203	0.065
-530.077	-126.722	0.123	0.018
-529.062	-136.113	-0.261	0.031
-528.048	-24.929	0.240	-0.142
-527.033	-140.970	0.135	0.014
-526.018	-147.917	0.204	-0.017
-525.004	-170.327	-0.313	0.011
-523.989	-200.000	-0.010	0.134
-522.975	-200.000	0.010	0.240
-521.960	-189.220	-0.067	-0.001
-520.945	-82.693	0.174	-0.056
-519.931	-200.000	-0.009	0.081
-518.916	-10.717	-0.284	-0.188
-517.902	69.943	0.216	-0.222
-516.887	138.883	-0.275	0.361
-515.872	2.400	-0.048	0.035
-514.858	-96.505	-0.095	0.025
-513.843	-110.743	-0.105	-0.022
-512.829	29.390	0.094	0.080
-511.814	40.026	0.112	-0.101
-510.799	270.135	0.187	-0.328
-509.785	-152.641	0.253	-0.018
-508.770	-95.390	-0.244	-0.065
-507.756	-153.708	-0.055	-0.004
-506.741	103.842	0.147	-0.173
-505.726	-103.125	0.089	-0.021
-504.712	-45.483	0.113	-0.056
-503.697	798.469	-0.035	0.096
-502.683	-51.416	0.185	0.087
-501.668	106.871	0.213	-0.252
-500.653	742.605	-0.052	-0.140
-499.639	-37.625	-0.232	-0.123
-498.624	-85.112	-0.392	-0.123
-497.610	-198.609	0.150	0.001
-496.595	141.869	0.022	-0.029
-495.581	-130.900	0.215	-0.029
-494.566	200.092	0.111	-0.170
-493.551	800.000	0.070	0.253
-492.537	523.912	0.079	0.186
-491.522	-101.685	-0.113	0.027
-490.508	-98.130	-0.373	0.096
-489.493	-52.471	-0.129	-0.060
-488.478	73.909	-0.090	-0.095
-487.464	72.531	0.034	-0.035
-486.449	-86.380	-0.505	-0.155
-485.435	-14.737	0.242	0.155
-484.420	58.160	-0.077	-0.076
-483.405	-119.261	0.089	-0.015
-482.391	-200.000	0.002	-0.042
-481.376	-17.689	0.265	0.166
-480.362	-163.929	-0.159	0.007
-479.347	-200.000	-0.034	-0.278
-478.332	41.022	0.111	0.100
-477.318	2.304	-0.101	0.073
-476.303	-30.546	0.203	-0.115
-475.289	800.000	-0.138	-0.397
-474.274	164.474	-0.319	0.449
-473.259	285.003	-0.069	-0.123
-472.245	89.259	0.140	0.156
-471.230	133.837	-0.238	0.307
-470.216	-151.878	0.344	-0.025
-469.201	-75.739	0.330	0.117
-468.186	307.813	-0.143	-0.266
-467.172	800.000	-0.068	0.237
-466.157	727.587	-0.060	0.159
-465.143	329.126	-0.095	-0.181
-464.128	800.000	-0.039	-0.158
-463.113	-103.223	-0.168	-0.040
-462.099	-200.000	0.024	0.159
-461.084	-21.940	-0.215	-0.130
-460.070	-79.122	0.369	-0.125
-459.055	-88.519	0.227	-0.067
-458.040	-200.000	-0.013	0.133
-457.026	-105.535	0.351	-0.079
-456.011	27.306	0.067	-0.056
-454.997	276.056	0.232	0.411
-453.982	-56.879	0.066	-0.029
-452.968	-109.247	-0.102	0.022
-451.953	565.041	-0.104	-0.251
-450.938	-68.701	0.173	0.067
-449.924	492.396	0.134	0.306
-448.909	-200.000	-0.017	0.084
-447.895	-84.803	0.082	0.026
-446.880	-105.749	-0.145	-0.033
-445.865	-200.000	-0.016	-0.141
-444.851	49.205	-0.129	0.120
-443.836	-16.243	-0.525	-0.332
-442.822	14.868	-0.126	0.098
-441.807	17.435	0.071	0.056
-440.792	800.000	0.179	-0.526
-439.778	800.000	0.045	0.198
-438.763	-200.000	0.022	0.103
-437.749	-82.580	-0.087	-0.028
-436.734	-200.000	-0.044	-0.247
-435.719	-200.000	0.009	-0.310
-434.705	-5.724	-0.211	-0.144
-433.690	-40.335	-0.203	-0.105
-432.676	42.296	0.054	-0.049
-431.661	-49.539	-0.272	-0.129
-430.646	666.611	-0.133	0.342
-429.632	-3.336	-0.153	-0.106
-428.617	34.853	0.141	0.123
-427.603	461.300	0.084	0.187
-426.588	-109.807	-0.209	-0.044
-425.573	-200.000	0.018	-0.272
-424.559	29.506	0.209	0.177
-423.544	28.562	0.108	0.091
-422.530	108.175	-0.086	0.102
-421.515	178.747	0.074	0.108
-420.500	-27.947	0.026	-0.015
-419.486	800.000	-0.077	0.248
-418.471	-88.732	0.233	-0.069
-417.457	-93.289	-0.242	0.067
-416.442	0.701	-0.138	0.098
-415.428	-200.000	-0.050	-0.338
-414.413	-80.698	0.339	-0.112
-413.398	-200.000	-0.020	0.215
-412.384	383.765	-0.203	-0.416
-411.369	-177.606	0.098	0.002
-410.355	800.000	0.054	0.229
-409.340	-122.208	0.226	0.037
-408.325	43.612	-0.083	0.075
-407.311	-182.933	-0.493	-0.009
-406.296	-200.000	0.005	-0.076
-405.282	8.462	-0.163	-0.122
-404.267	37.184	-0.238	0.209
-403.252	157.546	-0.038	0.053
-402.238	48.787	-0.210	0.196
-401.223	305.858	-0.136	0.251
-400.209	75.814	-0.186	0.195
-399.194	-59.493	-0.251	-0.107
-398.179	-200.000	-0.006	-0.066
-397.165	800.000	0.075	0.266
-396.150	-200.000	-0.015	0.371
-395.136	-80.041	-0.296	0.099
-394.121	-62.853	0.185	0.076
-393.106	-88.481	0.208	-0.062
-392.092	106.172	-0.072	-0.084
-391.077	-36.481	0.116	-0.062
-390.063	583.809	0.049	0.120
-389.048	-200.000	0.018	0.095
-388.033	-136.378	-0.393	-0.045
-387.019	-43.733	0.210	-0.105
-386.004	15.980	-0.169	-0.132
-384.990	-154.347	-0.271	-0.018
-383.975	-1.500	0.080	0.056
-382.960	800.000	-0.030	0.114
-381.946	-200.000	0.019	-0.147
-380.931	-138.207	0.228	0.025
-379.917	-90.347	0.138	-0.040
-378.902	289.705	0.100	0.180
-377.888	-31.041	-0.247	0.138
-376.873	-2.476	0.136	0.095
-375.858	-74.675	-0.272	0.097
-374.844	-89.403	-0.144	0.042
-373.829	103.944	0.112	0.131
-372.815	-85.405	0.393	0.122
-371.800	-102.781	-0.445	-0.105
-370.785	-41.743	0.492	0.251
-369.771	-63.373	-0.136	0.056
-368.756	-32.886	0.221	-0.122
-367.742	-66.780	-0.249	-0.098
-366.727	-200.000	0.008	-0.208
-365.712	-200.000	-0.020	0.189
-364.698	-142.569	0.221	0.022
-363.683	800.000	-0.059	-0.220
-362.669	-134.133	0.255	-0.031
-361.654	0.707	0.123	0.087
-360.639	-69.972	0.306	-0.116
-359.625	-200.000	0.049	0.314
-358.610	399.358	0.132	-0.274
-357.596	296.418	-0.163	0.296
-356.581	800.000	0.061	0.257
-355.566	-138.155	0.277	0.031
-354.552	-46.899	-0.143	-0.070
-353.537	-56.661	-0.329	-0.145
-352.523	-5.541	-0.329	0.224
-351.508	-115.200	0.125	0.023
-350.493	26.453	0.259	0.215
-349.479	800.000	0.077	-0.315
-348.464	-200.000	-0.001	-0.041
-347.450	611.062	-0.122	0.303
-346.435	675.147	0.106	-0.274
-345.420	267.974	-0.205	-0.356
-344.406	-200.000	0.021	-0.390
-343.391	-200.000	-0.041	-0.241
-342.377	-171.557	0.294	-0.010
-341.362	-136.981	-0.099	0.011
-340.348	42.036	0.234	-0.211
-339.333	-200.000	0.006	-0.058
-338.318	247.666	0.150	0.252
-337.304	25.102	0.202	-0.167
-336.289	-77.387	-0.303	-0.104
-335.275	-200.000	-0.014	0.099
-334.260	-48.046	-0.147	0.071
-333.245	99.522	-0.103	0.119
-332.231	228.154	0.149	-0.240
-331.216	-22.433	0.082	0.049
-330.202	8.874	-0.403	-0.301
-329.187	-42.988	0.134	-0.068
-328.172	-200.000	-0.032	-0.211
-327.158	46.443	0.235	0.216
-326.143	-185.327	-0.234	-0.004
-325.129	-66.684	0.228	0.090
-324.114	113.493	0.127	0.153
-323.099	93.996	-0.220	0.247
-322.085	-200.000	-0.017	0.080
-321.070	-24.650	0.258	0.152
-320.056	-145.490	-0.107	0.009
-319.041	413.268	-0.083	-0.176
-318.026	-39.743	-0.509	-0.264
-317.012	-22.553	-0.360	0.216
-315.997	-200.000	-0.007	-0.080
-314.983	-71.271	-0.087	0.032
-313.968	-126.801	0.344	0.050
-312.953	26.725	-0.140	-0.116
-311.939	-77.630	-0.113	-0.039
-310.924	13.351	0.291	-0.223
-309.910	-115.120	0.061	-0.011
-308.895	-200.000	-0.021	-0.196
-307.880	-200.000	0.028	-0.242
-306.866	75.617	-0.155	-0.162
-305.851	50.087	0.071	-0.067
-304.837	50.084	-0.163	0.152
-303.822	326.304	-0.040	-0.075
-302.807	288.697	-0.068	0.122
-301.793	-200.000	-0.002	0.209
-300.778	151.136	0.040	0.054
-299.764	245.942	0.066	-0.111
-298.749	168.195	0.094	-0.133
-297.735	29.861	0.230	0.194
-296.720	276.681	-0.124	0.218
-295.705	-142.201	0.218	0.021
-294.691	124.312	-0.163	-0.203
-293.676	155.041	-0.042	-0.057
-292.662	-143.185	0.182	0.017
-291.647	371.321	-0.127	-0.255
-290.632	-200.000	0.016	-0.225
-289.618	-87.835	0.307	0.091
-288.603	-200.000	0.059	0.324
-287.589	80.320	0.034	-0.036
-286.574	-102.447	-0.152	0.036
-285.559	32.667	-0.088	0.075
-284.545	-89.185	0.218	-0.064
-283.530	-100.279	0.263	-0.065
-282.516	216.127	0.017	-0.026
-281.501	-162.460	-0.121	0.006
-280.486	-100.337	-0.278	-0.068
-279.472	-90.491	-0.308	-0.088
-278.457	147.563	-0.103	-0.137
-277.443	131.055	0.083	-0.105
-276.428	-51.430	0.371	0.172
-275.413	-200.000	0.008	-0.101
-274.399	-156.372	0.118	-0.007
-273.384	158.377	-0.069	-0.095
-272.370	-109.449	-0.054	-0.011
-271.355	-52.895	-0.205	0.094
-270.340	-200.000	0.006	0.106
-269.326	-200.000	-0.039	0.230
-268.311	35.601	-0.224	0.195
-267.297	81.086	-0.009	-0.010
-266.282	-200.000	0.054	-0.340
-265.267	747.589	-0.058	0.154
-264.253	651.453	-0.097	0.245
-263.238	24.641	-0.110	-0.090
-262.224	-0.565	0.286	-0.201
-261.209	360.388	-0.123	0.243
-260.195	-139.228	-0.181	0.019
-259.180	-142.434	0.313	0.030
-258.165	550.799	0.126	0.298
-257.151	313.782	0.106	0.196
-256.136	-84.156	0.083	0.026
-255.122	287.966	0.182	0.325
-254.107	385.143	0.024	-0.048
-253.092	793.050	-0.074	-0.202
-252.078	-64.380	-0.165	-0.066
-251.063	-165.129	0.261	-0.011
-250.049	97.438	-0.130	-0.148
-249.034	29.995	-0.120	-0.101
-248.019	-57.602	0.462	0.200
-247.005	-19.974	-0.122	0.075
-245.990	44.782	0.183	-0.166
-244.976	800.000	-0.047	0.188
-243.961	-10.177	-0.281	0.185
-242.946	375.039	-0.025	0.050
-241.932	404.431	-0.070	-0.146
-240.917	741.310	0.121	-0.321
-239.903	800.000	-0.057	-0.176
-238.888	21.814	-0.216	0.174
-237.873	-115.038	-0.534	0.100
-236.859	169.253	0.268	0.378
-235.844	48.512	-0.084	0.078
-234.830	91.061	0.124	0.138
-233.815	800.000	0.035	0.144
-232.800	-200.000	-0.040	-0.321
-231.786	20.443	-0.291	-0.233
-230.771	-200.000	-0.025	0.123
-229.757	19.393	0.277	-0.220
-228.742	-72.099	0.170	-0.063
-227.727	-64.190	0.251	0.101
-226.713	-200.000	0.009	-0.109
-225.698	-200.000	0.001	-0.067
-224.684	-200.000	0.028	0.122
-223.669	-33.711	0.120	0.065
-222.655	-193.412	-0.103	0.001
-221.640	-93.629	0.251	-0.068
-220.625	518.050	-0.081	-0.188
-219.611	682.692	0.027	-0.070
-218.596	-38.010	0.124	0.065
-217.582	-200.000	-0.015	0.281
-216.567	-60.249	-0.163	0.069
-215.552	-132.544	0.195	-0.025
-214.538	800.000	0.036	0.136
-213.523	19.998	0.163	-0.130
-212.509	-108.226	-0.218	0.047
-211.494	93.009	0.284	0.317
-210.479	621.779	-0.061	0.150
-209.465	-200.000	-0.006	0.101
-208.450	-93.366	-0.268	-0.073
-207.436	-96.801	-0.149	-0.039
-206.421	-200.000	-0.010	0.076
-205.406	30.046	-0.240	-0.202
-204.392	35.269	0.144	-0.125
-203.377	3.469	-0.364	0.262
-202.363	676.915	0.085	0.219
-201.348	-163.997	0.318	-0.015
-200.333	-122.461	0.193	-0.031
-199.319	-200.000	0.568	0.000
-198.304	128.710	0.133	-0.168
-197.290	-58.055	0.307	0.132
-196.275	-141.091	0.077	-0.008
-195.260	-93.328	-0.266	0.073
-194.246	194.461	0.057	-0.085
-193.231	-44.729	0.553	0.272
-192.217	-37.764	-0.257	0.135
-191.202	301.031	-0.105	-0.191
-190.187	250.963	-0.066	-0.111
-189.173	-48.098	0.283	0.135
-188.158	85.256	-0.105	-0.114
-187.144	800.000	0.022	0.075
-186.129	-8.106	0.295	0.196
-185.114	800.000	0.029	-0.115
-184.100	-101.443	-0.237	0.057
-183.085	800.000	-0.016	-0.056
-182.071	-153.594	-0.355	0.024
-181.056	-200.000	-0.023	0.213
-180.042	430.872	0.139	-0.296
-179.027	764.246	0.091	0.245
-178.012	6.202	-0.085	0.063
-176.998	354.441	0.142	0.279
-175.983	-200.000	0.004	0.273
-174.969	221.113	-0.183	-0.289
-173.954	159.176	0.214	0.293
-172.939	180.451	-0.105	0.152
-171.925	142.227	0.090	0.118
-170.910	800.000	-0.093	0.358
-169.896	-121.776	-0.256	-0.042
-168.881	544.931	-0.043	-0.100
-167.866	118.908	-0.064	0.077
-166.852	-151.569	-0.105	0.008
-165.837	500.835	-0.027	0.062
-164.823	-28.091	0.090	0.051
-163.808	605.191	0.079	-0.195
-162.793	22.672	0.092	-0.074
-161.779	-12.374	0.162	-0.104
-160.764	293.000	0.048	0.086
-159.750	-4.864	0.291	-0.197
-158.735	12.887	0.250	-0.190
-157.720	98.867	0.032	-0.037
-156.706	-200.000	0.005	0.289
-155.691	109.511	-0.073	-0.086
-154.677	197.483	0.117	-0.175
-153.662	-70.111	-0.092	0.035
-152.647	279.524	-0.224	-0.393
-151.633	800.000	-0.125	0.455
-150.618	-41.213	-0.149	-0.075
-149.604	349.608	0.215	-0.419
-148.589	-200.000	-0.009	-0.207
-147.574	800.000	-0.068	0.252
-146.560	17.664	0.147	0.115
-145.545	22.285	-0.163	-0.131
-144.531	-200.000	0.002	0.106
-143.516	44.853	0.330	0.299
-142.502	-128.356	-0.232	0.032
-141.487	91.884	0.092	0.102
-140.472	387.107	-0.052	0.106
-139.458	344.621	0.081	0.157
-138.443	-25.053	0.197	0.115
-137.429	-156.882	0.263	-0.016
-136.414	305.889	-0.054	-0.098
-135.399	-87.480	-0.326	-0.097
-134.385	52.125	0.070	0.066
-133.370	5.824	-0.107	0.078
-132.356	148.440	0.133	0.176
-131.341	-200.000	-0.046	-0.548
-130.326	65.903	-0.137	0.137
-129.312	539.026	0.161	0.376
-128.297	-105.230	0.411	0.092
-127.283	800.000	-0.058	0.200
-126.268	-149.767	0.094	0.007
-125.253	-200.000	0.002	0.098
-124.239	-106.306	-0.178	-0.039
-123.224	-200.000	0.017	0.416
-122.210	-42.566	0.117	-0.059
-121.195	223.626	0.110	0.175
-120.180	800.000	0.176	0.517
-119.166	149.970	0.145	0.193
-118.151	-200.000	0.018	0.124
-117.137	543.332	0.062	0.146
-116.122	138.511	0.255	0.329
-115.107	82.238	-0.141	0.151
-114.093	800.000	0.064	-0.275
-113.078	-200.000	0.077	-0.346
-112.064	800.000	0.138	0.377
-111.049	-153.039	0.081	0.006
-110.034	-97.608	-0.336	-0.086
-109.020	408.523	0.103	-0.215
-108.005	-68.839	0.267	0.101
-106.991	270.221	0.179	0.309
-105.976	192.377	-0.068	0.101
-104.962	800.000	0.046	0.125
-103.947	272.887	0.194	-0.337
-102.932	800.000	0.035	-0.119
-101.918	-55.686	-0.146	0.064
-100.903	716.354	0.081	0.210
-99.889	-31.786	0.159	0.088
-98.874	21.284	0.133	0.106
-97.859	-12.873	-0.123	0.079
-96.845	681.779	-0.043	0.109
-95.830	213.693	0.044	0.069
-94.816	800.000	-0.090	0.246
-93.801	-69.708	0.046	-0.017
-92.786	-200.000	0.010	0.078
-91.772	200.918	-0.223	0.337
-90.757	-200.000	0.029	0.139
-89.743	234.211	-0.020	-0.032
-88.728	45.600	-0.232	-0.210
-87.713	116.976	-0.346	0.417
-86.699	503.682	-0.094	0.212
-85.684	29.507	-0.089	-0.074
-84.670	299.826	0.157	0.285
-83.655	-200.000	0.070	0.366
-82.640	-64.900	-0.196	0.078
-81.626	-200.000	-0.001	-0.018
-80.611	68.091	0.114	-0.115
-79.597	108.467	-0.039	0.046
-78.582	-177.653	-0.318	-0.008
-77.567	-109.270	-0.315	-0.066
-76.553	-132.445	0.340	0.043
-75.538	-59.186	0.190	-0.080
-74.524	38.783	-0.284	0.249
-73.509	-200.000	-0.008	0.164
-72.494	89.422	0.017	-0.019
-71.480	28.576	0.108	-0.090
-70.465	-148.396	0.313	-0.025
-69.451	530.893	0.115	0.266
-68.436	-51.348	0.342	0.157
-67.422	-152.301	-0.147	-0.010
-66.407	-156.422	-0.073	-0.004
-65.392	-36.468	0.239	0.126
-64.378	-74.918	0.230	-0.081
-63.363	384.640	-0.118	-0.238
-62.349	-38.241	-0.157	-0.082
-61.334	183.487	-0.930	-1.349
-60.319	333.976	0.326	0.618
-59.305	-200.000	-0.012	-0.983
-58.290	568.556	0.616	1.468
-57.276	352.728	0.836	1.626
-56.261	-200.000	111.855	617.746
-55.246	507.323	1518.638	3456.389
-54.232	176.699	2693.686	3842.005
-53.217	110.319	2151.762	2535.477
-52.203	40.325	1597.783	1410.207
-51.188	32.353	1340.657	1135.345
-50.173	29.173	1301.553	1083.511
-49.159	54.043	1357.727	1280.411
-48.144	53.964	1371.843	1293.200
-47.130	32.420	1326.470	1123.551
-46.115	28.966	1308.937	1088.260
-45.100	28.762	1303.671	1082.641
-44.086	28.591	1301.782	1080.023
-43.071	28.563	1299.153	1077.634
-42.057	28.667	1296.622	1076.100
-41.042	28.599	1295.356	1074.609
-40.027	28.671	1293.523	1073.466
-39.013	28.639	1291.982	1071.958
-37.998	28.643	1290.148	1070.419
-36.984	28.779	1288.225	1069.573
-35.969	28.754	1286.706	1068.122
-34.954	28.809	1284.939	1066.933
-33.940	28.705	1283.986	1065.497
-32.925	28.900	1282.385	1065.254
-31.911	28.933	1280.592	1063.914
-30.896	28.900	1279.574	1062.833
-29.881	28.877	1277.643	1061.054
-28.867	28.843	1276.506	1059.874
-27.852	28.990	1274.700	1059.175
-26.838	28.963	1273.532	1058.012
-25.823	28.850	1273.006	1056.881
-24.809	28.892	1271.123	1055.517
-23.794	28.865	1270.012	1054.398
-22.779	28.790	1268.477	1052.652
-21.765	28.983	1267.033	1052.516
-20.750	28.965	1265.376	1050.997
-19.736	28.846	1264.250	1049.338
-18.721	28.804	1263.423	1048.373
-17.706	28.797	1262.232	1047.299
-16.692	28.712	1261.128	1045.858
-15.677	28.662	1260.127	1044.702
-14.663	28.749	1259.009	1044.232
-13.648	28.736	1257.653	1042.992
-12.633	28.758	1256.795	1042.363
-11.619	28.712	1255.907	1041.321
-10.604	28.734	1255.414	1040.995
-9.590	28.807	1254.454	1040.575
-8.575	28.758	1253.509	1039.471
-7.560	28.733	1252.644	1038.570
-6.546	28.814	1251.618	1038.138
-5.531	28.616	1251.380	1036.780
-4.517	28.734	1250.134	1036.372
-3.502	28.632	1249.734	1035.423
-2.487	28.800	1248.137	1035.005
-1.473	28.788	1244.054	1031.515
-0.458	27.094	1228.999	1009.587
0.556	25.060	1211.244	970.567
1.571	21.373	1216.301	954.440
2.586	20.301	1230.905	959.887
3.600	20.009	1219.239	949.106
4.615	15.448	1148.404	870.290
5.629	7.645	1075.656	777.060
6.644	4.179	1056.942	746.795
7.659	3.840	1054.704	743.518
8.673	3.520	1052.884	740.633
9.688	3.543	1051.388	739.628
10.702	4.003	1049.901	740.718
11.717	9.057	1056.793	769.802
12.731	17.453	1068.988	819.195
13.746	22.436	1074.638	847.502
14.761	23.175	1075.275	851.485
15.775	22.484	1073.930	847.023
16.790	21.666	1072.043	841.531
17.804	21.161	1071.034	838.240
18.819	20.967	1070.313	836.670
19.834	21.107	1069.330	836.502
20.848	20.977	1069.074	835.601
21.863	20.938	1068.094	834.577
22.877	20.843	1067.110	833.280
23.892	20.758	1066.532	832.348
24.907	20.525	1066.234	830.926
25.921	20.579	1064.652	829.880
26.936	20.567	1063.555	828.893
27.950	20.517	1062.429	827.703
28.965	20.644	1060.970	827.096
29.980	20.821	1059.373	826.620
30.994	20.961	1058.431	826.474
32.009	21.033	1057.494	826.013
33.023	20.904	1056.388	824.465
34.038	20.847	1055.286	823.263
35.053	20.782	1054.705	822.430
36.067	20.653	1053.545	820.841
37.082	20.630	1052.794	820.080
38.096	20.813	1052.536	820.668
39.111	20.803	1051.833	820.001
40.126	20.734	1049.975	818.155
41.140	20.308	1048.202	814.697
42.155	20.150	1047.047	812.991
43.169	20.152	1045.904	812.041
44.184	20.063	1045.228	811.027
45.199	20.109	1044.241	810.405
46.213	20.175	1044.100	810.531
47.228	20.708	1042.874	811.995
48.242	20.810	1042.044	811.751
49.257	20.693	1041.285	810.542
50.271	20.857	1040.590	810.696
51.286	20.796	1040.330	810.135
52.301	20.916	1038.642	809.306
53.315	20.552	1038.115	807.136
54.330	20.581	1036.486	805.935
55.344	20.362	1036.065	804.519
56.359	20.271	1035.222	803.370
57.374	20.316	1033.846	802.441
58.388	20.199	1032.839	801.048
59.403	19.966	1032.321	799.500
60.417	19.965	1032.092	799.247
61.432	19.987	1031.163	798.559
62.447	20.047	1030.058	797.907
63.461	19.846	1029.236	796.276
64.476	19.915	1027.983	795.552
65.490	19.702	1027.592	794.203
66.505	19.854	1026.675	794.123
67.520	19.920	1025.974	793.810
68.534	19.716	1025.508	792.446
69.549	19.721	1024.796	791.848
70.563	19.636	1023.691	790.535
71.578	19.363	1022.540	788.328
72.593	19.411	1021.902	787.986
73.607	19.341	1021.689	787.430
74.622	19.549	1020.547	787.431
75.636	19.548	1020.131	787.034
76.651	19.674	1018.950	786.629
77.666	19.697	1018.715	786.482
78.680	19.640	1018.028	785.624
79.695	19.659	1017.436	785.184
80.709	19.936	1017.010	786.042
81.724	20.047	1016.151	785.814
82.739	20.205	1015.549	785.996
83.753	20.579	1015.526	787.602
84.768	21.121	1014.625	789.282
85.782	21.148	1014.411	789.172
86.797	21.160	1013.066	788.109
87.812	20.961	1011.784	786.145
88.826	20.811	1011.617	785.268
89.841	20.858	1010.675	784.678
90.855	21.121	1009.444	784.836
91.870	21.047	1008.796	783.930
92.884	21.146	1007.598	783.376
93.899	21.072	1006.218	781.904
94.914	21.096	1005.679	781.522
95.928	21.017	1005.479	780.941
96.943	20.821	1004.022	778.864
97.957	20.807	1003.110	778.026
98.972	20.954	1002.364	778.034
99.987	20.974	1001.440	777.338
101.001	20.834	1000.449	775.878
102.016	20.722	999.740	774.761
103.030	20.799	999.360	774.740
104.045	20.882	998.391	774.286
105.060	20.829	997.234	773.090
106.074	20.336	996.209	770.036
107.089	20.185	994.146	767.706
108.103	20.093	993.549	766.771
109.118	19.885	992.421	764.912
110.133	19.706	991.565	763.397
111.147	19.780	990.352	762.720
112.162	19.825	990.067	762.631
113.176	20.078	989.890	763.543
114.191	20.060	989.287	762.931
115.206	19.936	988.222	761.495
116.220	20.027	987.112	760.974
117.235	20.082	986.106	760.375
118.249	19.784	985.655	758.652
119.264	19.713	984.634	757.487
120.279	19.619	984.065	756.569
121.293	19.669	982.621	755.612
122.308	19.472	981.969	754.180
123.322	19.517	980.667	753.312
124.337	19.435	979.801	752.223
125.352	19.529	978.896	751.870
126.366	19.472	977.869	750.769
127.381	19.577	977.292	750.713
128.395	19.576	976.338	749.909
129.410	19.700	975.410	749.667
130.424	19.963	974.541	750.075
131.439	19.841	974.563	749.497
132.454	20.098	973.530	749.750
133.468	20.055	972.874	748.990
134.483	19.936	972.028	747.759
135.497	20.073	970.919	747.430
136.512	20.163	970.389	747.342
137.527	20.047	969.734	746.273
138.541	20.214	968.594	746.049
139.556	20.137	968.567	745.631
140.570	20.474	968.191	746.724
141.585	20.718	967.011	746.794
142.600	20.855	966.282	746.753
143.614	20.965	965.242	746.354
144.629	20.934	965.221	746.140
145.643	20.888	963.663	744.672
146.658	20.543	962.068	741.901
147.673	20.388	961.133	740.454
148.687	20.371	960.080	739.507
149.702	20.130	959.269	737.791
150.716	20.141	958.449	737.139
151.731	20.186	957.367	736.433
152.746	20.329	956.687	736.451
153.760	20.367	956.132	736.123
154.775	20.464	955.940	736.319
155.789	20.497	955.065	735.722
156.804	20.504	954.544	735.284
157.819	20.627	954.086	735.384
158.833	20.928	953.042	735.786
159.848	20.965	952.185	735.218
160.862	20.758	951.479	733.733
161.877	20.245	949.845	730.252
162.892	20.059	948.609	728.454
163.906	20.070	947.416	727.519
164.921	20.063	946.788	726.942
165.935	20.142	945.945	726.561
166.950	20.245	945.256	726.399
167.964	20.367	944.408	726.193
168.979	20.185	943.361	724.565
169.994	20.222	942.265	723.815
171.008	20.218	942.272	723.737
172.023	20.667	941.587	725.021
173.037	20.855	940.762	725.102
174.052	20.545	939.824	723.027
175.067	20.185	938.655	720.566
176.081	19.882	938.241	718.928
177.096	19.897	937.599	718.433
178.110	19.971	937.273	718.428
179.125	20.024	936.607	718.076
180.140	20.159	936.261	718.305
181.154	20.413	935.832	718.963
182.169	20.621	935.873	719.792
183.183	20.512	935.459	718.958
184.198	20.675	934.156	718.567
185.213	20.594	933.697	717.816
186.227	20.835	932.692	717.975
187.242	20.922	931.985	717.723
188.256	20.978	931.856	717.794
189.271	21.109	931.050	717.648
190.286	20.618	930.097	714.829
191.300	20.114	928.385	711.383
192.315	19.880	927.906	709.993
193.329	19.894	927.724	709.850
194.344	20.015	927.677	710.246
195.359	20.318	926.816	710.766
196.373	20.361	926.215	710.416
197.388	20.680	925.844	711.374
198.402	21.005	925.395	712.294
199.417	21.013	925.554	712.387
200.432	21.239	924.806	712.669
201.446	21.325	924.814	712.965
202.461	21.340	924.317	712.578
203.475	21.132	923.249	710.846
204.490	20.869	921.931	708.697
205.504	20.785	920.881	707.486
206.519	20.604	920.086	706.080
207.534	20.616	919.621	705.707
208.548	20.631	918.746	705.034
209.563	20.650	918.423	704.802
210.577	20.750	917.661	704.558
211.592	21.035	917.619	705.617
212.607	21.124	917.038	705.469
213.621	21.163	915.820	704.628
214.636	20.927	915.669	703.494
215.650	21.002	914.767	703.044
216.665	21.136	913.764	702.750
217.680	21.217	913.430	702.754
218.694	21.198	913.060	702.331
219.709	21.139	912.228	701.394
220.723	21.093	911.594	700.661
221.738	21.065	910.438	699.597
222.753	20.966	910.170	698.931
223.767	21.135	909.590	699.101
224.782	21.483	909.232	700.157
225.796	21.433	908.652	699.451
226.811	21.111	908.009	697.606
227.826	20.820	907.245	695.794
228.840	20.892	906.524	695.468
229.855	20.796	905.404	694.165
230.869	20.780	904.857	693.618
231.884	20.816	904.063	693.095
232.899	20.677	903.439	692.000
233.913	20.497	902.490	690.496
234.928	20.425	901.955	689.741
235.942	20.427	901.133	689.058
236.957	20.543	900.755	689.167
237.972	20.579	900.326	688.923
238.986	20.551	899.595	688.189
240.001	20.457	899.144	687.413
241.015	20.561	898.628	687.368
242.030	20.682	898.511	687.698
243.045	20.816	897.776	687.604
244.059	20.733	897.043	686.652
245.074	20.926	896.352	686.825
246.088	21.125	895.595	686.966
247.103	21.270	895.653	687.522
248.117	21.546	895.360	688.321
249.132	22.048	895.051	689.994
250.147	22.214	895.007	690.554
251.161	22.317	894.287	690.339
252.176	22.271	893.668	689.622
253.190	22.298	892.875	689.055
254.205	22.290	892.194	688.437
255.220	22.072	891.750	687.179
256.234	22.036	890.759	686.213
257.249	22.072	890.209	685.869
258.263	21.997	889.589	685.041
259.278	21.993	889.097	684.584
260.293	22.169	888.438	684.702
261.307	22.321	888.106	684.977
262.322	22.283	887.365	684.197
263.336	22.313	886.242	683.385
264.351	22.255	885.859	682.807
265.366	22.251	885.429	682.399
266.380	22.335	884.841	682.211
267.395	22.050	884.296	680.626
268.409	21.941	883.119	679.239
269.424	22.052	882.047	678.783
270.439	21.760	881.987	677.550
271.453	21.828	880.446	676.566
272.468	21.772	880.594	676.404
273.482	21.794	880.087	676.041
274.497	21.652	879.387	674.896
275.512	21.785	878.652	674.782
276.526	21.792	878.381	674.541
277.541	21.847	877.789	674.238
278.555	22.172	877.685	675.350
279.570	22.374	877.147	675.649
280.585	22.308	876.310	674.694
281.599	22.072	875.135	672.825
282.614	21.854	874.234	671.241
283.628	21.739	873.862	670.453
284.643	21.934	872.947	670.439
285.657	21.771	872.340	669.289
286.672	21.789	872.109	669.122
287.687	21.819	871.785	668.929
288.701	21.914	871.055	668.673
289.716	21.895	870.464	668.086
290.730	21.918	869.710	667.537
291.745	22.078	869.292	667.763
292.760	22.166	868.816	667.673
293.774	22.502	868.236	668.443
294.789	22.229	867.937	667.117
295.803	22.018	866.526	665.178
296.818	22.076	865.387	664.464
297.833	21.896	865.224	663.596
298.847	21.934	864.611	663.214
299.862	22.125	864.569	663.842
300.876	22.258	863.917	663.785
301.891	22.400	863.615	664.033
302.906	22.490	863.243	664.026
303.920	22.716	862.847	664.512
304.935	22.777	862.421	664.356
305.949	22.567	861.805	663.034
306.964	22.319	861.064	661.471
307.979	22.398	860.028	660.915
308.993	22.419	859.557	660.572
310.008	22.660	859.149	661.103
311.022	22.533	858.144	659.798
312.037	22.224	857.526	658.106
313.052	21.978	856.486	656.330
314.066	21.822	855.870	655.218
315.081	21.674	855.667	654.454
316.095	21.903	855.034	654.763
317.110	21.951	854.362	654.371
318.125	21.823	854.035	653.587
319.139	21.679	853.784	652.799
320.154	21.762	852.855	652.339
321.168	21.885	852.262	652.285
322.183	22.070	851.664	652.460
323.197	21.889	851.301	651.450
324.212	21.968	851.143	651.566
325.227	22.055	850.216	651.120
326.241	21.741	849.902	649.657
327.256	21.898	848.808	649.346
328.270	21.766	848.450	648.526
329.285	21.635	847.884	647.553
330.300	21.748	847.324	647.485
331.314	21.786	846.702	647.090
332.329	21.998	846.992	648.037
333.343	22.262	846.552	648.618
334.358	22.356	845.849	648.371
335.373	22.246	845.783	647.856
336.387	22.368	845.344	647.911
337.402	22.358	845.287	647.773
338.416	22.673	844.749	648.463
339.431	22.810	844.857	648.990
340.446	23.080	844.115	649.355
341.460	23.011	844.208	649.115
342.475	23.108	843.679	649.008
343.489	23.066	843.332	648.531
344.504	23.299	842.907	648.999
345.519	23.374	842.313	648.760
346.533	23.287	841.584	647.823
347.548	22.777	840.987	645.439
348.562	22.559	839.891	643.744
349.577	22.390	839.324	642.639
350.592	22.320	838.286	641.532
351.606	22.215	837.712	640.650
352.621	22.226	837.493	640.467
353.635	22.320	836.841	640.255
354.650	22.487	836.033	640.188
355.665	22.416	835.768	639.671
356.679	22.713	834.785	639.939
357.694	22.747	834.352	639.673
358.708	22.629	833.503	638.539
359.723	22.655	832.933	638.138
360.738	22.675	832.346	637.705
361.752	22.741	832.217	637.788
362.767	22.988	831.749	638.266
363.781	23.004	831.572	638.132
364.796	23.384	831.407	639.320
365.810	23.594	830.798	639.553
366.825	23.421	830.412	638.575
367.840	23.295	830.186	637.889
368.854	23.063	829.205	636.246
369.869	22.879	828.628	635.084
370.883	23.070	827.848	635.116
371.898	23.198	828.272	635.847
372.913	23.411	827.486	635.949
373.927	23.091	826.710	634.150
374.942	23.095	826.550	633.986
375.956	23.355	826.226	634.614
376.971	23.644	825.462	635.004
377.986	23.606	825.494	634.836
379.000	23.642	824.610	634.229
380.015	23.594	824.317	633.775
381.029	23.488	823.426	632.658
382.044	23.551	823.001	632.499
383.059	23.705	822.280	632.438
384.073	23.421	821.699	630.924
385.088	23.205	820.695	629.330
386.102	22.914	819.910	627.638
387.117	22.806	819.344	626.764
388.132	22.921	818.867	626.754
389.146	23.109	818.157	626.821
390.161	23.392	818.003	627.649
391.175	23.409	817.807	627.502
392.190	23.139	817.409	626.186
393.205	23.152	815.990	625.090
394.219	22.938	815.907	624.217
395.234	22.857	815.590	623.631
396.248	22.787	815.007	622.885
397.263	22.613	814.213	621.607
398.278	22.551	814.051	621.212
399.292	22.489	813.966	620.872
400.307	22.562	813.009	620.345
401.321	22.786	812.581	620.751
402.336	22.892	812.126	620.721
403.350	23.098	812.114	621.380
404.365	23.329	811.882	621.960
405.380	23.544	811.587	622.433
406.394	23.610	811.228	622.333
407.409	23.775	810.739	622.480
408.423	23.897	810.257	622.485
409.438	23.864	810.172	622.247
410.453	23.880	810.002	622.117
411.467	23.822	809.518	621.487
412.482	24.052	808.857	621.728
413.496	24.195	808.623	621.995
414.511	24.147	808.006	621.298
415.526	23.969	807.579	620.295
416.540	23.847	806.801	619.216
417.555	23.846	806.510	618.935
418.569	23.897	805.694	618.431
419.584	23.824	805.749	618.163
420.599	23.673	805.256	617.207
421.613	163.461	1372.086	1795.942
422.628	142.147	1454.673	1796.001
