DTS Sentinel unit serial number:	SN413079Multiplexer serial number:	ORYXHardware model number:	OX4-SRSoftware version number:	ORYX F/W v4.00 Oryx Data Collector v3.7.2.0data status	okinstallation	princeton_trtdifferential loss correction	single-endedforward channel	channel 1reverse channel	N/Adate	2019/09/13time	18:02:35forward acquisition time	60.00reverse acquisition time	0.00gamma	496.2192k internal	0.2308k external	0.2308temperature offset calibration	1.0142default loss term (dB/km)	0.3790temperature slope calibration	1.0000multiplexer offset coefficient	1.0000multiplexer slope coefficient	1.0000fibre end	0.00T internal ref (°C)	34.87T ext. ref 1 (°C)	4.69T ext. ref 2 (°C)	27.60length (m)	temperature (°C)	Stokes	anti-Stokes-747.200	-21.498	-0.220	0.137
-746.185	-162.149	0.206	0.011
-745.171	161.499	0.136	-0.193
-744.156	213.922	0.042	-0.067
-743.142	-45.402	0.130	0.066
-742.127	91.532	-0.393	0.449
-741.112	36.751	0.169	0.152
-740.098	129.421	0.056	-0.073
-739.083	-122.616	-0.303	-0.050
-738.069	119.750	-0.236	0.297
-737.054	367.338	-0.193	0.397
-736.039	-117.394	0.214	-0.039
-735.025	200.003	-0.102	-0.159
-734.010	311.278	-0.081	-0.154
-732.996	51.265	-0.228	-0.220
-731.981	800.000	0.027	0.117
-730.966	-42.758	-0.203	0.105
-729.952	-138.736	0.146	0.016
-728.937	-55.658	-0.062	0.028
-727.923	41.402	-0.198	0.182
-726.908	308.677	-0.026	0.049
-725.894	-104.925	-0.189	0.044
-724.879	800.000	0.006	0.023
-723.864	-111.788	0.413	0.085
-722.850	-123.637	-0.181	0.029
-721.835	776.141	-0.047	-0.129
-720.821	-135.496	-0.096	-0.012
-719.806	170.251	-0.329	0.477
-718.791	38.554	-0.053	-0.048
-717.777	800.000	0.046	0.154
-716.762	184.574	-0.153	-0.230
-715.748	800.000	0.043	-0.184
-714.733	171.833	0.234	0.341
-713.718	-5.683	0.186	0.129
-712.704	-127.395	0.191	-0.028
-711.689	-191.040	0.509	-0.005
-710.675	800.000	-0.070	-0.216
-709.660	-31.730	-0.403	0.229
-708.645	-200.000	-0.032	-0.309
-707.631	-200.000	0.004	0.023
-706.616	-45.011	0.188	0.095
-705.602	-16.469	-0.080	-0.051
-704.587	-15.227	-0.171	-0.111
-703.572	-200.000	0.027	-0.258
-702.558	686.676	-0.037	-0.099
-701.543	-70.180	-0.114	0.044
-700.529	215.395	0.297	-0.479
-699.514	-38.563	0.281	0.151
-698.499	-158.104	0.232	0.014
-697.485	-76.309	0.076	0.027
-696.470	-15.896	-0.176	-0.113
-695.456	80.676	0.186	0.203
-694.441	-200.000	0.054	-0.388
-693.426	770.473	-0.123	-0.341
-692.412	800.000	-0.102	-0.319
-691.397	800.000	-0.036	0.102
-690.383	-67.065	0.186	0.074
-689.368	115.279	-0.225	0.278
-688.354	800.000	0.074	-0.267
-687.339	-161.227	0.296	-0.016
-686.324	122.198	0.177	-0.224
-685.310	384.164	-0.072	0.150
-684.295	217.691	0.239	-0.386
-683.281	-154.227	0.120	-0.008
-682.266	-44.630	-0.276	-0.140
-681.251	-143.469	-0.075	-0.007
-680.237	800.000	-0.073	0.277
-679.222	785.021	-0.086	-0.239
-678.208	786.199	-0.119	-0.331
-677.193	-80.225	-0.155	0.052
-676.178	-97.123	-0.250	0.066
-675.164	21.488	-0.149	-0.123
-674.149	800.000	0.016	-0.050
-673.135	168.206	-0.149	-0.215
-672.120	-142.130	-0.007	-0.001
-671.105	-200.000	-0.003	0.251
-670.091	69.913	-0.095	-0.100
-669.076	-200.000	0.033	-0.368
-668.062	70.542	-0.087	0.091
-667.047	-146.511	-0.247	0.022
-666.032	800.000	0.062	-0.175
-665.018	-50.726	0.239	0.114
-664.003	53.172	-0.110	0.107
-662.989	190.628	0.150	-0.228
-661.974	-110.708	0.386	0.081
-660.959	129.419	-0.085	-0.111
-659.945	-84.037	-0.246	-0.079
-658.930	-37.449	-0.217	0.117
-657.916	514.059	0.101	-0.238
-656.901	-1.179	-0.030	0.022
-655.886	714.033	-0.084	0.225
-654.872	14.221	-0.253	0.199
-653.857	-98.825	0.407	0.105
-652.843	12.619	0.132	-0.103
-651.828	-175.085	-0.232	-0.007
-650.814	103.639	-0.041	0.049
-649.799	-97.901	-0.110	0.029
-648.784	-69.191	-0.169	0.066
-647.770	-200.000	0.262	-0.001
-646.755	-200.000	0.013	-0.108
-645.741	-200.000	-0.018	0.168
-644.726	-200.000	0.234	0.000
-643.711	-200.000	0.000	-0.260
-642.697	-22.147	0.150	-0.092
-641.682	-53.712	0.265	0.123
-640.668	374.208	0.050	-0.103
-639.653	-49.704	0.135	-0.065
-638.638	201.094	-0.098	-0.153
-637.624	800.000	-0.050	-0.147
-636.609	289.693	-0.064	0.117
-635.595	-22.664	0.212	0.130
-634.580	-200.000	-0.004	0.122
-633.565	-127.083	-0.241	0.036
-632.551	24.392	-0.143	0.120
-631.536	117.325	0.026	0.033
-630.522	-51.740	0.097	0.046
-629.507	145.288	0.029	-0.039
-628.492	11.869	0.159	0.123
-627.478	258.091	0.037	0.065
-626.463	-66.931	0.139	-0.056
-625.449	-18.151	-0.053	-0.034
-624.434	-183.664	-0.350	0.006
-623.419	-200.000	-0.005	-0.131
-622.405	158.564	0.173	0.244
-621.390	-94.818	-0.096	0.026
-620.376	-200.000	0.008	0.056
-619.361	-97.359	0.111	-0.029
-618.346	46.429	0.119	-0.112
-617.332	85.373	0.146	-0.162
-616.317	800.000	-0.104	-0.324
-615.303	-200.000	-0.043	-0.234
-614.288	-107.620	0.218	-0.048
-613.273	24.188	0.344	-0.287
-612.259	-138.588	-0.126	0.014
-611.244	-173.256	-0.414	0.013
-610.230	-131.682	0.171	-0.023
-609.215	54.916	0.124	-0.121
-608.201	281.999	0.203	-0.369
-607.186	-131.083	-0.018	-0.002
-606.171	47.584	-0.162	0.152
-605.157	-73.488	-0.117	0.043
-604.142	-163.555	-0.037	0.002
-603.128	-200.000	0.060	-0.381
-602.113	-200.000	0.031	-0.196
-601.098	-102.307	0.139	-0.034
-600.084	-33.900	0.164	-0.091
-599.069	-6.279	-0.054	0.037
-598.055	-200.000	0.006	0.140
-597.040	800.000	0.040	-0.124
-596.025	231.511	0.061	-0.101
-595.011	-52.676	0.176	-0.082
-593.996	-70.859	0.388	-0.148
-592.982	800.000	0.031	0.106
-591.967	348.146	-0.107	-0.214
-590.952	-141.359	-0.110	0.011
-589.938	37.528	-0.405	-0.363
-588.923	739.530	-0.083	0.225
-587.909	361.930	-0.091	-0.184
-586.894	800.000	0.078	0.333
-585.879	286.126	-0.096	0.174
-584.865	138.602	-0.264	-0.350
-583.850	36.778	0.145	0.130
-582.836	-200.000	0.004	-0.234
-581.821	-81.122	-0.119	-0.040
-580.806	-80.173	0.081	0.027
-579.792	-46.759	0.136	-0.067
-578.777	153.192	0.048	-0.067
-577.763	577.473	-0.048	-0.119
-576.748	230.561	-0.084	0.138
-575.733	-200.000	0.032	-0.228
-574.719	-152.168	-0.201	-0.015
-573.704	-79.927	-0.359	-0.122
-572.690	671.322	0.118	-0.309
-571.675	-61.916	0.168	-0.071
-570.661	788.985	0.131	-0.363
-569.646	800.000	-0.035	-0.133
-568.631	27.301	-0.369	0.313
-567.617	187.086	-0.180	-0.270
-566.602	132.106	-0.152	-0.197
-565.588	-135.501	-0.392	-0.047
-564.573	-167.084	0.199	-0.008
-563.558	587.140	0.089	0.222
-562.544	-2.346	0.167	-0.118
-561.529	-164.032	-0.206	0.010
-560.515	-81.422	0.044	-0.015
-559.500	50.559	0.104	-0.099
-558.485	-63.756	-0.230	-0.095
-557.471	72.821	-0.213	0.225
-556.456	188.449	-0.172	-0.260
-555.442	36.775	0.216	-0.192
-554.427	-136.076	-0.260	-0.031
-553.412	417.087	-0.074	0.159
-552.398	-19.062	-0.311	0.195
-551.383	308.231	0.105	0.197
-550.369	-200.000	-0.012	-0.069
-549.354	-86.717	-0.204	0.063
-548.339	800.000	-0.079	-0.273
-547.325	67.711	0.184	0.190
-546.310	24.791	0.313	-0.261
-545.296	3.529	0.060	-0.044
-544.281	-200.000	0.010	-0.339
-543.266	-65.580	-0.129	0.052
-542.252	-85.112	-0.190	-0.060
-541.237	155.917	0.172	-0.239
-540.223	-15.821	0.154	0.099
-539.208	-200.000	0.013	-0.137
-538.193	-200.000	0.056	-0.441
-537.179	27.549	0.120	-0.102
-536.164	23.926	-0.093	0.078
-535.150	349.698	-0.175	0.348
-534.135	311.942	0.021	-0.039
-533.121	174.173	0.176	0.256
-532.106	68.318	-0.118	0.122
-531.091	61.344	-0.004	-0.004
-530.077	-200.000	0.001	0.115
-529.062	-200.000	-0.040	0.243
-528.048	549.831	-0.114	0.276
-527.033	-200.000	0.029	0.194
-526.018	-200.000	-0.026	-0.214
-525.004	627.960	0.090	-0.228
-523.989	-64.785	0.163	0.067
-522.975	-114.557	-0.321	-0.062
-521.960	289.569	-0.088	0.161
-520.945	165.194	0.019	0.027
-519.931	-200.000	0.042	0.194
-518.916	-105.155	0.266	-0.061
-517.902	-83.383	0.393	0.127
-516.887	82.166	0.115	-0.126
-515.872	380.882	-0.158	0.327
-514.858	-86.458	-0.127	0.039
-513.843	72.668	0.158	-0.166
-512.829	67.938	-0.109	-0.112
-511.814	-38.727	-0.043	-0.023
-510.799	-14.460	0.262	-0.170
-509.785	155.281	-0.116	-0.160
-508.770	500.390	0.085	-0.197
-507.756	5.526	0.052	-0.038
-506.741	-31.101	0.315	-0.179
-505.726	129.493	-0.092	0.118
-504.712	-182.524	0.151	0.003
-503.697	-200.000	-0.005	-0.059
-502.683	84.737	-0.267	-0.294
-501.668	-23.081	-0.462	-0.280
-500.653	-4.816	-0.234	0.162
-499.639	800.000	0.108	0.441
-498.624	-118.202	-0.066	0.012
-497.610	-200.000	-0.051	0.235
-496.595	339.630	-0.087	-0.171
-495.581	-91.626	-0.031	-0.009
-494.566	-200.000	-0.037	0.229
-493.551	552.620	-0.122	0.295
-492.537	800.000	-0.035	-0.108
-491.522	-189.791	0.260	-0.003
-490.508	10.173	-0.150	0.115
-489.493	263.242	-0.173	0.302
-488.478	42.196	0.352	0.322
-487.464	425.248	0.096	0.207
-486.449	-157.107	-0.204	-0.013
-485.435	-148.099	0.205	-0.017
-484.420	0.303	-0.232	0.167
-483.405	800.000	0.090	0.285
-482.391	-13.979	0.152	-0.099
-481.376	-109.326	0.478	0.102
-480.362	-200.000	0.043	-0.207
-479.347	-47.768	-0.274	0.133
-478.332	-200.000	-0.011	-0.216
-477.318	69.822	0.273	-0.283
-476.303	800.000	-0.064	-0.209
-475.289	800.000	0.021	0.059
-474.274	-200.000	-0.004	0.156
-473.259	68.895	0.072	0.075
-472.245	335.917	-0.007	0.014
-471.230	-78.597	-0.156	-0.054
-470.216	455.535	0.046	-0.103
-469.201	-150.266	0.132	0.010
-468.186	-0.226	0.267	-0.191
-467.172	114.678	0.144	0.176
-466.157	800.000	0.106	-0.300
-465.143	-16.695	0.272	0.173
-464.128	482.096	-0.177	-0.405
-463.113	-200.000	-0.057	0.268
-462.099	-200.000	0.046	-0.315
-461.084	-28.459	0.187	0.108
-460.070	-38.991	-0.096	0.051
-459.055	-200.000	-0.040	0.206
-458.040	201.696	0.047	0.073
-457.026	124.052	0.176	-0.222
-456.011	-143.316	-0.347	0.033
-454.997	697.966	-0.119	-0.314
-453.982	800.000	0.029	-0.094
-452.968	-29.697	0.054	-0.031
-451.953	119.136	0.111	0.138
-450.938	-42.276	0.390	-0.200
-449.924	264.237	-0.058	0.101
-448.909	-128.472	0.144	-0.021
-447.895	-125.229	0.134	-0.021
-446.880	362.753	-0.088	-0.177
-445.865	691.451	0.044	-0.116
-444.851	13.911	0.029	-0.022
-443.836	-181.589	0.121	0.002
-442.822	-200.000	-0.011	0.285
-441.807	-132.748	0.015	0.002
-440.792	166.740	0.066	0.094
-439.778	-96.547	-0.373	-0.099
-438.763	-200.000	-0.025	0.264
-437.749	5.280	0.194	0.144
-436.734	330.072	0.232	-0.448
-435.719	-92.547	0.320	0.090
-434.705	726.763	-0.052	-0.138
-433.690	-183.234	0.335	0.006
-432.676	-171.489	0.183	-0.006
-431.661	-200.000	-0.027	0.272
-430.646	440.810	0.056	-0.124
-429.632	-34.655	-0.230	-0.126
-428.617	800.000	0.118	-0.351
-427.603	255.146	0.020	-0.034
-426.588	-77.936	-0.412	0.143
-425.573	-96.982	-0.110	-0.029
-424.559	39.911	-0.173	-0.156
-423.544	-94.498	-0.230	0.063
-422.530	64.255	-0.129	0.130
-421.515	-56.747	-0.099	0.044
-420.500	-200.000	0.044	0.299
-419.486	419.159	0.123	0.265
-418.471	-81.859	-0.554	0.182
-417.457	-102.325	-0.166	-0.040
-416.442	332.908	0.097	-0.188
-415.428	-143.561	-0.410	0.039
-414.413	351.159	0.163	-0.324
-413.398	-26.456	-0.226	0.133
-412.384	-79.273	-0.208	0.071
-411.369	-28.437	0.143	0.083
-410.355	110.753	0.075	-0.090
-409.340	-200.000	0.031	-0.223
-408.325	-38.149	-0.334	0.178
-407.311	609.993	0.097	0.242
-406.296	800.000	0.090	0.335
-405.282	69.264	-0.140	0.144
-404.267	19.515	0.024	-0.019
-403.252	-152.603	-0.329	0.024
-402.238	146.212	-0.068	0.091
-401.223	538.214	-0.129	-0.307
-400.209	-70.598	-0.367	0.139
-399.194	-200.000	-0.001	-0.039
-398.179	33.944	-0.081	-0.070
-397.165	-63.087	0.033	0.014
-396.150	413.329	-0.097	0.206
-395.136	-91.892	-0.075	-0.021
-394.121	-200.000	-0.028	-0.469
-393.106	284.859	0.201	-0.362
-392.092	-200.000	-0.043	0.280
-391.077	-200.000	-0.011	0.152
-390.063	-200.000	-0.033	-0.457
-389.048	800.000	0.047	-0.190
-388.033	-84.928	-0.255	0.080
-387.019	-107.697	0.185	-0.040
-386.004	302.952	0.127	-0.235
-384.990	-68.438	0.112	-0.044
-383.975	-42.040	-0.161	-0.083
-382.960	-4.472	0.109	0.075
-381.946	10.656	-0.093	-0.071
-380.931	63.237	0.081	-0.081
-379.917	-6.829	0.201	-0.137
-378.902	-167.023	-0.505	-0.021
-377.888	-126.138	-0.580	-0.087
-376.873	-117.546	0.188	0.034
-375.858	-39.899	0.097	-0.051
-374.844	-125.724	-0.338	0.051
-373.829	-200.000	0.015	-0.172
-372.815	56.235	0.313	0.304
-371.800	-109.783	-0.306	0.064
-370.785	-200.000	-0.006	0.165
-369.771	-17.519	-0.254	0.160
-368.756	-154.098	0.223	0.015
-367.742	800.000	0.030	-0.084
-366.727	-64.338	-0.259	0.106
-365.712	530.095	-0.129	0.306
-364.698	800.000	0.039	-0.167
-363.683	-37.794	-0.231	-0.123
-362.669	545.976	-0.149	0.356
-361.654	-19.477	0.152	0.094
-360.639	250.781	0.071	-0.122
-359.625	-83.644	-0.113	-0.036
-358.610	-200.000	0.020	-0.135
-357.596	243.104	0.037	-0.062
-356.581	788.353	0.090	0.246
-355.566	65.502	0.315	0.319
-354.552	800.000	0.136	-0.407
-353.537	800.000	0.050	0.143
-352.523	116.179	-0.298	0.366
-351.508	167.862	-0.208	0.297
-350.493	-25.310	-0.127	-0.075
-349.479	185.850	-0.094	-0.140
-348.464	800.000	-0.168	0.475
-347.450	800.000	-0.060	-0.169
-346.435	800.000	-0.047	-0.148
-345.420	-98.762	-0.164	0.042
-344.406	183.071	0.079	0.116
-343.391	-200.000	0.019	0.278
-342.377	468.385	-0.153	0.343
-341.362	-200.000	-0.009	0.616
-340.348	264.492	-0.189	0.329
-339.333	-103.739	-0.172	-0.040
-338.318	-130.005	-0.121	0.017
-337.304	-127.956	0.279	-0.040
-336.289	-200.000	-0.011	-0.073
-335.275	-149.670	-0.336	0.026
-334.260	725.559	0.190	0.507
-333.245	-19.575	0.138	0.085
-332.231	800.000	-0.036	0.106
-331.216	-111.105	-0.053	0.011
-330.202	23.961	-0.193	0.160
-329.187	-77.412	0.235	0.082
-328.172	119.727	-0.121	-0.149
-327.158	415.114	0.170	-0.362
-326.143	-85.590	-0.109	0.034
-325.129	543.560	0.110	-0.263
-324.114	-56.662	-0.375	-0.166
-323.099	42.161	0.039	0.035
-322.085	-200.000	0.000	0.054
-321.070	-101.484	0.132	-0.032
-320.056	-162.296	-0.108	-0.005
-319.041	-42.720	0.309	0.157
-318.026	-124.595	0.339	-0.053
-317.012	313.067	-0.030	-0.057
-315.997	-85.825	-0.135	-0.042
-314.983	-200.000	-0.072	0.380
-313.968	-200.000	-0.004	0.064
-312.953	-76.640	0.052	0.018
-311.939	-135.285	-0.312	-0.037
-310.924	-126.911	-0.363	0.053
-309.910	-200.000	-0.043	-0.194
-308.895	800.000	-0.025	-0.095
-307.880	-200.000	-0.393	0.000
-306.866	-92.133	-0.317	0.090
-305.851	-97.230	-0.215	0.056
-304.837	98.358	0.201	0.231
-303.822	25.138	-0.089	-0.074
-302.807	381.304	-0.132	0.271
-301.793	-162.738	0.246	0.012
-300.778	-53.226	0.236	0.108
-299.764	-200.000	0.025	-0.111
-298.749	-67.207	0.206	-0.081
-297.735	344.048	0.106	-0.207
-296.720	203.767	0.076	0.117
-295.705	158.043	0.296	0.410
-294.691	-122.277	0.340	0.056
-293.676	0.190	-0.138	0.099
-292.662	719.463	0.070	-0.184
-291.647	69.136	0.241	0.247
-290.632	-14.282	0.136	0.088
-289.618	-119.433	-0.218	-0.038
-288.603	-15.026	0.191	-0.122
-287.589	-200.000	0.011	-0.062
-286.574	-200.000	-0.028	-0.179
-285.559	-200.000	0.006	-0.061
-284.545	29.816	0.114	0.097
-283.530	-57.043	0.027	-0.012
-282.516	192.008	0.149	0.225
-281.501	-60.456	0.167	-0.071
-280.486	346.618	-0.134	-0.264
-279.472	800.000	-0.035	0.143
-278.457	305.462	-0.080	0.148
-277.443	425.624	-0.193	-0.414
-276.428	-139.417	-0.264	0.028
-275.413	0.279	-0.061	-0.044
-274.399	800.000	0.100	0.395
-273.384	127.145	0.093	0.117
-272.370	-27.320	0.205	-0.119
-271.355	354.580	-0.143	0.283
-270.340	287.972	-0.096	0.173
-269.326	-93.691	0.142	0.039
-268.311	-33.878	0.120	-0.066
-267.297	213.789	-0.099	0.156
-266.282	-112.664	0.368	-0.073
-265.267	-121.431	-0.150	-0.025
-264.253	88.720	0.178	-0.198
-263.238	65.006	0.181	0.182
-262.224	-91.634	0.229	0.065
-261.209	-200.000	0.000	-0.086
-260.195	-101.293	0.034	-0.008
-259.180	-200.000	0.008	-0.240
-258.165	174.467	-0.092	0.133
-257.151	-153.417	0.178	-0.012
-256.136	59.403	0.161	-0.158
-255.122	-30.380	-0.119	0.067
-254.107	211.642	0.075	0.117
-253.092	52.629	-0.234	-0.223
-252.078	-57.912	0.353	-0.154
-251.063	265.694	-0.275	0.479
-250.049	800.000	0.109	0.344
-249.034	-23.664	0.098	-0.058
-248.019	-200.000	0.008	-0.086
-247.005	-200.000	0.032	-0.369
-245.990	169.826	-0.174	-0.248
-244.976	65.074	0.263	-0.265
-243.961	109.903	0.125	-0.150
-242.946	510.478	-0.060	0.138
-241.932	518.745	-0.145	0.338
-240.917	407.959	0.042	-0.089
-239.903	159.027	-0.092	-0.128
-238.888	-22.541	-0.070	-0.042
-237.873	-156.559	0.238	0.015
-236.859	-115.515	0.111	0.021
-235.844	35.228	-0.279	0.244
-234.830	236.088	0.059	0.097
-233.815	-13.296	-0.222	0.144
-232.800	74.137	0.326	-0.341
-231.786	473.922	0.051	-0.115
-230.771	-152.837	0.092	0.007
-229.757	-109.948	0.378	-0.079
-228.742	-159.602	0.400	0.022
-227.727	113.821	-0.159	-0.192
-226.713	1.238	0.053	0.038
-225.698	186.610	0.087	-0.129
-224.684	-49.446	-0.252	0.119
-223.669	783.876	-0.175	0.476
-222.655	15.231	0.136	0.106
-221.640	-92.916	-0.463	-0.129
-220.625	-166.012	0.293	0.012
-219.611	146.807	-0.088	0.118
-218.596	-36.408	-0.131	-0.070
-217.582	166.343	0.085	0.119
-216.567	794.217	-0.074	-0.204
-215.552	-4.865	0.059	-0.040
-214.538	-72.433	0.071	-0.026
-213.523	-145.030	0.170	-0.015
-212.509	17.743	0.189	0.150
-211.494	124.392	0.061	0.076
-210.479	38.426	-0.196	0.174
-209.465	-200.000	0.008	0.063
-208.450	-96.907	0.237	-0.062
-207.436	95.722	-0.196	0.222
-206.421	-2.576	0.118	-0.082
-205.406	7.606	-0.060	-0.045
-204.392	800.000	-0.095	0.295
-203.377	-144.303	-0.229	0.021
-202.363	-200.000	-0.011	0.211
-201.348	-105.076	0.315	-0.072
-200.333	11.154	0.127	0.097
-199.319	800.000	-0.043	0.131
-198.304	-152.662	0.257	0.018
-197.290	-119.986	-0.153	-0.026
-196.275	215.626	-0.054	-0.086
-195.260	-200.000	-0.029	-0.255
-194.246	-200.000	0.017	0.187
-193.231	-200.000	-0.015	-0.140
-192.217	421.642	-0.073	0.156
-191.202	800.000	-0.043	0.145
-190.187	150.361	0.132	-0.179
-189.173	-77.123	-0.164	0.057
-188.158	-54.430	0.110	0.050
-187.144	247.487	0.135	0.227
-186.129	7.173	-0.079	0.059
-185.114	566.761	-0.128	-0.309
-184.100	-73.892	0.081	0.029
-183.085	728.546	0.094	0.250
-182.071	-69.052	0.318	0.122
-181.056	-200.000	0.025	-0.166
-180.042	-54.806	0.215	0.097
-179.027	272.044	-0.053	-0.094
-178.012	-160.482	-0.053	-0.003
-176.998	-200.000	-0.011	0.051
-175.983	-28.430	0.481	0.276
-174.969	-78.960	0.161	0.054
-173.954	800.000	0.120	0.332
-172.939	-107.770	-0.301	-0.065
-171.925	52.995	0.154	-0.146
-170.910	502.046	0.089	-0.205
-169.896	503.849	-0.060	-0.137
-168.881	-92.500	0.026	-0.007
-167.866	-110.051	-0.211	0.044
-166.852	-113.954	-0.214	-0.041
-165.837	112.249	0.089	0.106
-164.823	-200.000	-0.005	-0.198
-163.808	-200.000	-0.023	-0.366
-162.793	158.685	-0.113	-0.156
-161.779	-25.355	0.143	-0.084
-160.764	31.991	-0.223	-0.191
-159.750	-89.943	-0.217	-0.063
-158.735	-73.648	0.228	-0.082
-157.720	20.771	0.024	0.020
-156.706	-55.131	0.174	0.078
-155.691	-99.783	0.044	0.011
-154.677	782.569	-0.074	-0.202
-153.662	-28.895	-0.057	-0.033
-152.647	-83.995	0.169	0.053
-151.633	-200.000	-0.023	0.170
-150.618	-200.000	-0.014	-0.388
-149.604	123.519	0.217	-0.270
-148.589	-101.367	0.258	-0.063
-147.574	230.555	0.193	-0.313
-146.560	-112.089	0.358	0.071
-145.545	-117.370	0.404	0.073
-144.531	-200.000	-0.023	0.193
-143.516	-165.724	0.229	-0.010
-142.502	-200.000	0.020	0.110
-141.487	-200.000	0.049	0.221
-140.472	62.660	0.155	0.154
-139.458	-13.076	-0.041	-0.026
-138.443	-142.836	-0.355	0.034
-137.429	-200.000	-0.007	0.337
-136.414	-174.951	-0.059	-0.002
-135.399	58.239	-0.187	0.182
-134.385	800.000	-0.015	0.060
-133.370	161.441	0.057	0.079
-132.356	51.295	-0.133	0.125
-131.341	-174.018	0.230	-0.007
-130.326	-84.115	0.256	0.081
-129.312	11.026	-0.098	0.074
-128.297	472.674	0.157	0.351
-127.283	304.011	0.210	0.387
-126.268	-112.927	0.106	-0.021
-125.253	0.877	0.241	0.172
-124.239	-101.005	0.179	0.044
-123.224	-150.393	-0.164	-0.013
-122.210	43.897	-0.193	-0.176
-121.195	800.000	0.058	0.201
-120.180	151.508	0.205	0.276
-119.166	295.702	0.082	0.150
-118.151	-1.035	0.341	-0.239
-117.137	4.062	-0.343	0.249
-116.122	-200.000	-0.031	-0.245
-115.107	-16.546	-0.148	-0.093
-114.093	-168.478	0.145	-0.006
-113.078	-133.133	0.093	0.012
-112.064	394.218	0.111	0.230
-111.049	800.000	-0.114	0.426
-110.034	-200.000	0.010	-0.175
-109.020	-200.000	-0.052	-0.312
-108.005	-40.919	-0.087	0.045
-106.991	-95.987	0.390	-0.103
-105.976	-200.000	0.016	0.090
-104.962	36.449	0.202	0.177
-103.947	-200.000	-0.063	-0.306
-102.932	81.445	0.149	0.160
-101.918	-128.762	-0.173	-0.024
-100.903	-29.027	-0.178	-0.101
-99.889	55.523	0.033	0.032
-98.874	-200.000	0.017	0.179
-97.859	11.659	0.169	-0.129
-96.845	465.906	0.084	0.187
-95.830	-38.543	0.028	-0.015
-94.816	465.700	0.133	-0.295
-93.801	484.592	0.198	-0.446
-92.786	78.431	0.174	-0.184
-91.772	91.689	0.135	0.151
-90.757	800.000	-0.069	-0.191
-89.743	566.064	0.119	0.287
-88.728	-6.062	0.270	0.183
-87.713	-103.848	0.187	-0.043
-86.699	-200.000	0.027	-0.157
-85.684	800.000	0.102	0.398
-84.670	-0.577	0.167	0.117
-83.655	-22.364	0.094	0.057
-82.640	800.000	-0.018	0.066
-81.626	106.274	0.190	-0.223
-80.611	800.000	-0.019	-0.067
-79.597	-200.000	0.017	-0.332
-78.582	800.000	-0.102	0.333
-77.567	800.000	0.004	-0.014
-76.553	-167.327	0.223	0.009
-75.538	204.476	-0.068	0.104
-74.524	-200.000	-0.156	0.001
-73.509	-19.428	-0.099	-0.061
-72.494	-88.191	0.410	0.121
-71.480	-110.357	0.143	0.029
-70.465	-200.000	0.053	0.289
-69.451	-189.428	0.231	0.003
-68.436	-70.514	-0.114	-0.043
-67.422	-183.983	0.260	-0.004
-66.407	-200.000	0.015	-0.316
-65.392	-200.000	0.040	0.223
-64.378	800.000	0.089	0.355
-63.363	209.862	-0.043	0.066
-62.349	97.484	0.105	-0.119
-61.334	51.242	-0.944	-0.886
-60.319	-15.147	0.293	0.186
-59.305	-200.000	-0.260	-1.161
-58.290	276.051	0.432	0.758
-57.276	255.576	0.648	1.099
-56.261	-200.000	99.053	587.803
-55.246	636.970	1403.027	3525.508
-54.232	186.746	2603.622	3836.266
-53.217	122.984	2174.045	2692.501
-52.203	46.806	1625.987	1494.381
-51.188	38.421	1361.615	1200.208
-50.173	34.968	1319.511	1142.473
-49.159	58.187	1368.542	1326.440
-48.144	61.890	1385.765	1365.494
-47.130	38.681	1340.591	1183.056
-46.115	35.060	1322.854	1145.735
-45.100	34.793	1318.429	1140.266
-44.086	34.815	1315.777	1138.058
-43.071	34.735	1313.270	1135.369
-42.057	34.663	1311.264	1133.160
-41.042	34.802	1309.792	1132.669
-40.027	34.823	1308.415	1131.557
-39.013	34.832	1306.388	1129.813
-37.998	34.767	1304.730	1127.949
-36.984	34.849	1302.959	1126.860
-35.969	34.858	1301.023	1125.192
-34.954	34.870	1299.427	1123.835
-33.940	34.922	1298.095	1122.948
-32.925	34.992	1296.707	1122.111
-31.911	35.012	1295.430	1121.079
-30.896	34.982	1293.760	1119.415
-29.881	34.931	1292.763	1118.210
-28.867	34.939	1291.130	1116.797
-27.852	35.073	1289.645	1116.252
-26.838	35.048	1288.200	1114.810
-25.823	35.027	1286.659	1113.311
-24.809	34.926	1285.435	1111.620
-23.794	34.905	1284.400	1110.558
-22.779	34.887	1283.064	1109.258
-21.765	34.989	1281.714	1108.632
-20.750	34.938	1280.577	1107.315
-19.736	34.866	1279.324	1105.770
-18.721	34.879	1278.029	1104.680
-17.706	34.813	1276.993	1103.362
-16.692	34.873	1275.707	1102.551
-15.677	34.754	1274.641	1100.900
-14.663	34.853	1273.512	1100.455
-13.648	34.831	1272.402	1099.323
-12.633	34.789	1271.450	1098.213
-11.619	34.848	1270.583	1097.759
-10.604	34.868	1269.489	1096.887
-9.590	34.770	1268.645	1095.553
-8.575	34.725	1267.747	1094.478
-7.560	34.724	1267.345	1094.080
-6.546	34.835	1265.985	1093.499
-5.531	34.817	1265.161	1092.638
-4.517	34.785	1264.206	1091.591
-3.502	34.820	1263.504	1091.138
-2.487	34.824	1262.415	1090.175
-1.473	34.649	1258.864	1086.074
-0.458	32.744	1241.806	1060.613
0.556	29.502	1221.677	1012.604
1.571	24.450	1224.407	986.919
2.586	22.888	1237.984	989.034
3.600	21.756	1226.300	973.331
4.615	16.461	1154.587	888.569
5.629	8.599	1080.408	792.595
6.644	5.021	1060.284	760.339
7.659	4.544	1058.428	756.621
8.673	4.634	1056.936	755.926
9.688	4.552	1055.917	754.732
10.702	4.838	1054.059	754.722
11.717	8.937	1059.590	778.552
12.731	16.797	1070.887	825.207
13.746	21.234	1075.482	850.330
14.761	21.189	1075.719	850.224
15.775	20.371	1073.696	844.574
16.790	19.395	1071.710	838.193
17.804	18.755	1069.963	833.646
18.819	18.354	1068.871	830.778
19.834	18.186	1068.396	829.520
20.848	17.991	1067.876	828.097
21.863	17.809	1066.887	826.377
22.877	17.589	1066.400	824.862
23.892	17.610	1065.789	824.416
24.907	17.638	1064.476	823.465
25.921	17.677	1063.297	822.668
26.936	17.662	1061.859	821.409
27.950	17.717	1060.688	820.697
28.965	17.846	1059.313	820.179
29.980	17.984	1057.934	819.702
30.994	17.956	1057.208	818.930
32.009	18.125	1056.422	819.060
33.023	18.064	1054.926	817.536
34.038	17.826	1054.523	816.014
35.053	17.762	1053.306	814.694
36.067	17.748	1052.701	814.086
37.082	17.864	1051.480	813.622
38.096	17.949	1050.994	813.581
39.111	17.838	1050.667	812.727
40.126	17.778	1048.820	810.940
41.140	17.549	1047.378	808.665
42.155	17.386	1046.470	807.121
43.169	17.371	1045.244	806.033
44.184	17.432	1044.154	805.407
45.199	17.502	1042.743	804.579
46.213	17.505	1042.144	804.063
47.228	17.763	1041.536	804.741
48.242	17.779	1040.427	803.884
49.257	17.769	1039.431	802.998
50.271	17.847	1038.354	802.461
51.286	17.805	1037.880	801.829
52.301	17.872	1036.973	801.372
53.315	17.660	1035.936	799.505
54.330	17.510	1034.725	797.795
55.344	17.640	1033.563	797.439
56.359	17.584	1032.658	796.408
57.374	17.536	1032.215	795.773
58.388	17.522	1031.185	794.841
59.403	17.301	1030.564	793.259
60.417	17.473	1029.311	793.029
61.432	17.355	1028.801	792.013
62.447	17.155	1028.437	790.736
63.461	17.233	1027.243	790.107
64.476	17.300	1025.996	789.390
65.490	17.284	1025.299	788.709
66.505	17.392	1024.607	788.608
67.520	17.309	1024.088	787.756
68.534	17.303	1023.175	786.954
69.549	17.456	1022.368	786.971
70.563	17.144	1022.060	785.225
71.578	17.171	1020.830	784.333
72.593	17.071	1020.260	783.367
73.607	17.056	1019.646	782.754
74.622	17.070	1018.818	782.114
75.636	17.087	1018.525	781.900
76.651	17.196	1017.330	781.413
77.666	17.206	1016.804	780.984
78.680	17.289	1015.796	780.525
79.695	17.217	1015.467	779.870
80.709	17.347	1015.191	780.189
81.724	17.494	1014.074	779.931
82.739	17.614	1013.676	780.106
83.753	17.740	1012.887	780.007
84.768	17.908	1012.505	780.415
85.782	18.128	1011.717	780.743
86.797	17.898	1011.211	779.229
87.812	17.885	1010.110	778.257
88.826	17.923	1008.535	777.147
89.841	17.971	1007.739	776.680
90.855	17.916	1007.230	775.973
91.870	18.025	1006.406	775.762
92.884	18.021	1005.587	775.044
93.899	17.939	1004.461	773.738
94.914	18.158	1003.446	773.875
95.928	17.983	1003.156	772.795
96.943	17.969	1002.012	771.780
97.957	17.964	1000.808	770.763
98.972	18.047	999.794	770.287
99.987	18.040	999.043	769.607
101.001	17.934	998.324	768.510
102.016	17.871	997.389	767.439
103.030	18.012	996.672	767.454
104.045	17.929	996.031	766.519
105.060	17.784	995.156	765.125
106.074	17.526	994.120	763.107
107.089	17.437	992.553	761.437
108.103	17.343	991.939	760.478
109.118	17.382	990.580	759.545
110.133	17.308	989.681	758.460
111.147	17.506	988.254	758.177
112.162	17.426	988.488	757.934
113.176	17.551	987.695	757.815
114.191	17.700	986.927	757.825
115.206	17.486	986.025	756.111
116.220	17.369	985.445	755.082
117.235	17.453	984.484	754.651
118.249	17.453	983.547	753.864
119.264	17.482	982.737	753.305
120.279	17.243	982.150	751.732
121.293	17.208	981.338	750.891
122.308	17.286	980.224	750.314
123.322	17.251	979.204	749.316
124.337	17.121	978.166	747.880
125.352	17.137	976.980	746.977
126.366	17.143	976.031	746.212
127.381	17.265	974.780	745.724
128.395	17.334	974.485	745.736
129.410	17.407	973.533	745.263
130.424	17.324	973.003	744.425
131.439	17.532	972.259	744.703
132.454	17.521	971.590	744.074
133.468	17.558	970.490	743.329
134.483	17.653	969.498	742.919
135.497	17.713	969.000	742.733
136.512	17.514	968.361	741.309
137.527	17.606	967.095	740.674
138.541	17.637	966.486	740.280
139.556	17.760	966.054	740.414
140.570	17.839	965.430	740.216
141.585	17.971	964.454	739.973
142.600	18.037	963.578	739.521
143.614	17.969	963.222	738.886
144.629	18.087	962.132	738.495
145.643	18.073	960.708	737.278
146.658	17.916	959.807	735.844
147.673	17.747	958.989	734.425
148.687	17.594	958.409	733.258
149.702	17.573	957.244	732.208
150.716	17.501	956.688	731.409
151.731	17.662	955.537	731.156
152.746	17.650	955.009	730.634
153.760	17.733	954.440	730.491
154.775	17.834	953.969	730.500
155.789	17.874	953.221	730.031
156.804	17.864	952.926	729.702
157.819	17.926	951.855	729.081
158.833	18.166	951.553	729.808
159.848	18.178	950.791	729.213
160.862	17.955	949.895	727.509
161.877	17.817	948.141	725.514
162.892	17.702	947.242	724.275
163.906	17.640	946.238	723.181
164.921	17.575	945.564	722.325
165.935	17.788	944.682	722.490
166.950	17.747	943.861	721.623
167.964	17.820	942.985	721.196
168.979	17.667	942.363	720.011
169.994	17.762	941.313	719.547
171.008	17.784	941.029	719.362
172.023	17.969	940.205	719.445
173.037	18.023	939.732	719.249
174.052	17.980	938.935	718.394
175.067	17.799	937.722	716.639
176.081	17.705	937.363	715.910
177.096	17.821	936.901	715.980
178.110	17.805	936.255	715.353
179.125	17.659	935.958	714.453
180.140	17.738	935.415	714.308
181.154	17.991	934.864	714.879
182.169	18.034	934.362	714.612
183.183	18.170	933.758	714.659
184.198	18.236	933.012	714.296
185.213	18.132	932.171	713.155
186.227	18.285	931.856	713.490
187.242	18.295	931.109	712.897
188.256	18.345	930.415	712.510
189.271	18.287	929.898	711.810
190.286	17.948	928.632	709.372
191.300	17.697	927.538	707.430
192.315	17.653	926.743	706.580
193.329	17.559	926.656	706.063
194.344	17.864	925.795	706.606
195.359	17.902	925.431	706.423
196.373	18.098	925.024	706.861
197.388	18.111	924.835	706.706
198.402	18.327	924.322	707.142
199.417	18.309	923.509	706.386
200.432	18.565	922.925	706.930
201.446	18.605	923.179	707.227
202.461	18.583	922.578	706.617
203.475	18.555	921.234	705.409
204.490	18.411	920.448	704.152
205.504	18.247	919.654	702.809
206.519	18.140	919.065	701.856
207.534	18.161	918.590	701.516
208.548	18.357	917.376	701.332
209.563	18.380	916.946	701.034
210.577	18.364	916.272	700.391
211.592	18.580	915.812	700.862
212.607	18.620	915.427	700.667
213.621	18.572	914.383	699.612
214.636	18.402	913.493	698.176
215.650	18.541	912.981	698.289
216.665	18.552	912.260	697.720
217.680	18.590	911.977	697.599
218.694	18.689	911.045	697.222
219.709	18.583	910.153	696.049
220.723	18.595	909.714	695.703
221.738	18.624	908.957	695.180
222.753	18.641	908.157	694.575
223.767	18.760	907.997	694.873
224.782	18.810	907.508	694.640
225.796	18.751	906.830	693.818
226.811	18.728	906.155	693.150
227.826	18.435	905.530	691.426
228.840	18.610	904.361	691.179
229.855	18.656	903.590	690.712
230.869	18.572	902.568	689.534
231.884	18.494	902.534	689.132
232.899	18.540	901.352	688.352
233.913	18.457	900.632	687.412
234.928	18.381	900.091	686.630
235.942	18.272	900.093	686.137
236.957	18.382	899.342	685.944
237.972	18.402	898.731	685.494
238.986	18.474	898.042	685.197
240.001	18.348	897.623	684.312
241.015	18.545	896.724	684.354
242.030	18.542	896.331	683.983
243.045	18.669	895.853	684.062
244.059	18.634	895.293	683.435
245.074	18.592	894.711	682.762
246.088	18.849	893.818	683.044
247.103	18.699	893.923	682.465
248.117	18.976	893.138	682.907
249.132	19.346	892.411	683.760
250.147	19.439	891.944	683.710
251.161	19.429	891.626	683.364
252.176	19.343	890.830	682.354
253.190	19.506	890.193	682.448
254.205	19.488	889.373	681.690
255.220	19.426	889.009	681.108
256.234	19.496	888.523	680.948
257.249	19.472	887.563	680.061
258.263	19.353	886.998	679.099
259.278	19.547	885.948	678.998
260.293	19.524	885.730	678.680
261.307	19.585	885.276	678.510
262.322	19.639	884.745	678.257
263.336	19.718	883.712	677.714
264.351	19.701	883.015	677.052
265.366	19.657	882.388	676.340
266.380	19.568	881.944	675.589
267.395	19.454	881.484	674.734
268.409	19.351	880.289	673.356
269.424	19.549	879.250	673.273
270.439	19.475	878.345	672.234
271.453	19.297	878.063	671.263
272.468	19.269	877.814	670.906
273.482	19.453	876.419	670.497
274.497	19.435	876.379	670.334
275.512	19.410	875.739	669.688
276.526	19.379	875.345	669.211
277.541	19.469	874.956	669.203
278.555	19.639	874.549	669.490
279.570	19.757	874.042	669.501
280.585	19.708	873.010	668.460
281.599	19.688	871.565	667.216
282.614	19.456	871.187	665.975
283.628	19.654	870.259	665.970
284.643	19.563	869.751	665.173
285.657	19.575	869.426	664.909
286.672	19.587	869.018	664.585
287.687	19.452	868.372	663.513
288.701	19.665	867.530	663.630
289.716	19.540	867.278	662.896
290.730	19.558	866.631	662.414
291.745	19.655	866.178	662.380
292.760	19.713	865.681	662.163
293.774	19.912	865.037	662.376
294.789	19.839	864.058	661.285
295.803	19.568	863.893	660.068
296.818	19.625	863.053	659.584
297.833	19.659	862.091	658.921
298.847	19.747	861.546	658.780
299.862	19.840	860.766	658.480
300.876	19.751	860.683	658.018
301.891	19.996	860.058	658.416
302.906	20.033	859.675	658.205
303.920	20.138	859.322	658.275
304.935	20.097	858.781	657.648
305.949	20.102	857.787	656.844
306.964	19.980	857.266	655.927
307.979	19.955	856.776	655.398
308.993	20.159	856.013	655.529
310.008	20.120	855.782	655.145
311.022	19.921	855.299	653.967
312.037	19.868	854.389	653.013
313.052	19.719	853.476	651.695
314.066	19.797	852.935	651.520
315.081	19.799	852.215	650.921
316.095	19.787	851.505	650.272
317.110	19.898	850.946	650.208
318.125	19.817	850.529	649.528
319.139	19.699	850.290	648.842
320.154	19.874	849.822	649.086
321.168	19.826	849.159	648.340
322.183	19.862	848.968	648.272
323.197	19.876	848.425	647.852
324.212	19.983	847.833	647.744
325.227	19.986	847.271	647.269
326.241	19.797	846.637	646.020
327.256	19.814	846.280	645.754
328.270	19.806	845.558	645.116
329.285	19.789	844.616	644.278
330.300	19.735	844.250	643.743
331.314	19.829	843.874	643.748
332.329	20.014	843.216	643.875
333.343	20.153	842.825	644.039
334.358	20.140	842.667	643.812
335.373	20.142	842.144	643.361
336.387	20.162	842.130	643.367
337.402	20.198	842.045	643.382
338.416	20.277	841.414	643.134
339.431	20.471	841.498	643.859
340.446	20.506	840.906	643.479
341.460	20.577	840.388	643.289
342.475	20.568	839.976	642.882
343.489	20.620	839.642	642.763
344.504	20.688	839.344	642.728
345.519	20.677	838.729	642.162
346.533	20.632	838.268	641.585
347.548	20.406	837.278	639.939
348.562	20.431	836.435	639.330
349.577	20.258	836.190	638.448
350.592	20.212	835.511	637.705
351.606	20.160	834.499	636.685
352.621	20.333	833.717	636.667
353.635	20.220	833.609	636.112
354.650	20.413	832.820	636.162
355.665	20.505	831.934	635.768
356.679	20.524	831.689	635.593
357.694	20.557	830.964	635.102
358.708	20.478	830.353	634.290
359.723	20.434	829.949	633.763
360.738	20.460	829.528	633.484
361.752	20.444	829.057	633.010
362.767	20.594	828.404	633.000
363.781	20.794	827.799	633.208
364.796	21.022	827.327	633.622
365.810	21.085	827.116	633.630
366.825	21.046	826.930	633.293
367.840	20.987	826.246	632.497
368.854	20.754	825.840	631.286
369.869	20.776	825.210	630.827
370.883	21.000	824.722	631.211
371.898	21.054	824.530	631.202
372.913	21.000	824.433	630.876
373.927	20.932	823.202	629.634
374.942	20.967	823.021	629.565
375.956	21.057	822.882	629.729
376.971	21.271	822.108	629.852
377.986	21.142	822.016	629.261
379.000	21.200	821.277	628.848
380.015	21.270	820.510	628.456
381.029	21.128	820.266	627.703
382.044	21.171	819.724	627.390
383.059	21.165	818.812	626.612
384.073	21.151	818.081	625.949
385.088	20.839	817.551	624.368
386.102	20.810	817.517	624.186
387.117	20.782	816.769	623.459
388.132	20.939	815.953	623.341
389.146	20.962	815.250	622.832
390.161	21.167	815.053	623.357
391.175	21.178	814.594	622.991
392.190	21.046	814.080	622.073
393.205	21.102	813.358	621.663
394.219	21.008	813.179	621.139
395.234	20.988	812.683	620.633
396.248	20.854	812.112	619.664
397.263	20.828	811.784	619.268
398.278	20.860	811.333	618.984
399.292	20.772	810.924	618.305
400.307	20.767	810.269	617.730
401.321	20.755	809.907	617.357
402.336	20.949	809.696	617.832
403.350	21.054	809.146	617.729
404.365	21.275	808.599	618.037
405.380	21.218	808.507	617.712
406.394	21.388	807.855	617.761
407.409	21.441	807.793	617.845
408.423	21.414	807.525	617.488
409.438	21.579	806.938	617.567
410.453	21.455	806.693	616.887
411.467	21.749	805.689	617.102
412.482	21.671	805.755	616.824
413.496	21.764	805.257	616.713
414.511	21.554	805.114	615.810
415.526	21.504	804.310	614.965
416.540	21.668	803.834	615.123
417.555	21.627	803.493	614.665
418.569	21.640	802.863	614.175
419.584	21.708	802.587	614.146
420.599	21.609	802.076	613.354
421.613	158.990	1369.767	1788.685
422.628	138.040	1452.502	1788.787
