DTS Sentinel unit serial number:	SN413079Multiplexer serial number:	ORYXHardware model number:	OX4-SRSoftware version number:	ORYX F/W v4.00 Oryx Data Collector v3.7.2.0data status	okinstallation	princeton_trtdifferential loss correction	single-endedforward channel	channel 1reverse channel	N/Adate	2019/09/15time	07:06:35forward acquisition time	60.00reverse acquisition time	0.00gamma	496.2192k internal	0.2325k external	0.2325temperature offset calibration	0.9991default loss term (dB/km)	0.3790temperature slope calibration	1.0000multiplexer offset coefficient	1.0000multiplexer slope coefficient	1.0000fibre end	0.00T internal ref (°C)	30.50T ext. ref 1 (°C)	4.87T ext. ref 2 (°C)	25.65length (m)	temperature (°C)	Stokes	anti-Stokes-747.200	-23.850	0.140	0.084
-746.185	-106.854	0.329	-0.074
-745.171	-200.000	-0.016	-0.110
-744.156	-37.968	-0.093	-0.050
-743.142	-142.828	-0.292	-0.029
-742.127	132.827	0.134	-0.175
-741.112	75.277	-0.171	0.182
-740.098	-14.596	0.191	0.124
-739.083	-40.370	0.026	0.013
-738.069	-65.097	-0.413	-0.168
-737.054	800.000	0.006	-0.019
-736.039	-51.604	-0.326	0.153
-735.025	-156.599	0.155	0.010
-734.010	89.456	-0.194	-0.218
-732.996	-47.583	-0.243	0.119
-731.981	-129.652	-0.080	0.011
-730.966	59.489	0.078	-0.077
-729.952	56.480	-0.158	-0.155
-728.937	305.920	0.136	-0.254
-727.923	89.708	0.142	-0.160
-726.908	-148.119	-0.205	-0.017
-725.894	800.000	-0.091	0.387
-724.879	381.359	0.100	0.208
-723.864	42.887	-0.420	0.386
-722.850	-200.000	0.005	-0.227
-721.835	-73.150	-0.149	-0.055
-720.821	-200.000	0.001	-0.143
-719.806	-2.972	0.116	-0.081
-718.791	25.731	0.220	-0.185
-717.777	800.000	0.022	-0.094
-716.762	627.466	0.099	-0.253
-715.748	66.714	-0.121	0.124
-714.733	-191.284	-0.310	-0.003
-713.718	472.300	-0.100	-0.226
-712.704	-68.221	-0.224	-0.088
-711.689	199.475	0.208	0.322
-710.675	800.000	-0.006	-0.023
-709.660	24.335	-0.207	-0.173
-708.645	126.960	0.119	-0.152
-707.631	800.000	0.047	-0.197
-706.616	97.432	-0.193	-0.224
-705.602	-189.300	0.497	-0.006
-704.587	-37.987	0.172	0.092
-703.572	-144.455	0.096	0.009
-702.558	-71.890	-0.207	0.078
-701.543	-105.563	-0.220	0.050
-700.529	367.452	-0.080	-0.163
-699.514	-200.000	0.051	0.276
-698.499	-96.897	0.165	-0.044
-697.485	-41.234	0.346	0.180
-696.470	-200.000	0.059	0.288
-695.456	-49.170	0.293	-0.141
-694.441	-101.463	-0.211	-0.052
-693.426	72.584	0.150	-0.158
-692.412	-82.845	-0.209	-0.068
-691.397	-200.000	-0.020	0.135
-690.383	800.000	-0.085	-0.358
-689.368	-13.107	-0.184	-0.121
-688.354	-118.492	-0.271	-0.048
-687.339	213.074	0.225	0.357
-686.324	-200.000	-0.018	0.118
-685.310	0.206	-0.092	-0.066
-684.295	308.556	0.043	0.080
-683.281	8.320	0.078	0.059
-682.266	800.000	0.007	0.025
-681.251	-200.000	0.002	0.297
-680.237	-70.053	-0.242	-0.093
-679.222	105.430	-0.170	-0.202
-678.208	19.054	-0.103	-0.083
-677.193	-80.473	-0.130	0.044
-676.178	-189.147	0.068	0.001
-675.164	783.151	0.040	-0.111
-674.149	8.584	-0.256	-0.194
-673.135	144.575	-0.119	0.160
-672.120	-91.367	0.103	0.030
-671.105	-200.000	-0.021	-0.178
-670.091	-144.432	-0.110	0.010
-669.076	-98.243	-0.273	0.071
-668.062	-30.300	0.344	0.196
-667.047	155.267	0.025	0.035
-666.032	-34.561	-0.186	-0.103
-665.018	-113.969	0.132	0.026
-664.003	-137.656	-0.098	-0.011
-662.989	-184.381	0.317	0.005
-661.974	185.742	0.149	0.223
-660.959	108.192	-0.169	-0.203
-659.945	27.870	0.156	-0.132
-658.930	800.000	0.063	-0.221
-657.916	442.849	-0.062	0.136
-656.901	103.017	-0.121	-0.143
-655.886	7.686	-0.087	-0.065
-654.872	14.160	0.119	0.093
-653.857	-23.103	-0.118	-0.071
-652.843	-200.000	0.003	0.130
-651.828	5.560	0.305	-0.227
-650.814	-17.937	0.293	0.185
-649.799	-109.298	-0.354	-0.075
-648.784	168.567	0.139	-0.199
-647.770	309.864	0.103	-0.193
-646.755	57.017	-0.157	0.153
-645.741	-127.119	-0.182	0.027
-644.726	-80.329	0.415	-0.140
-643.711	-46.272	-0.162	-0.080
-642.697	-20.293	-0.175	0.108
-641.682	-75.288	0.226	0.081
-640.668	800.000	-0.054	-0.222
-639.653	181.416	0.253	-0.374
-638.638	-200.000	0.026	0.155
-637.624	-90.894	0.328	0.095
-636.609	-30.569	0.242	-0.138
-635.595	-200.000	-0.070	-0.325
-634.580	-200.000	-0.040	-0.375
-633.565	-69.939	0.207	0.079
-632.551	-200.000	-0.041	-0.361
-631.536	-155.713	-0.381	0.025
-630.522	124.882	0.039	-0.049
-629.507	-63.234	-0.033	-0.014
-628.492	-200.000	-0.113	-0.000
-627.478	-102.708	0.171	0.041
-626.463	-200.000	-0.042	0.370
-625.449	800.000	0.082	-0.265
-624.434	207.787	-0.045	-0.071
-623.419	800.000	0.108	0.412
-622.405	-145.483	0.069	0.006
-621.390	-34.607	-0.233	-0.128
-620.376	107.010	-0.176	-0.210
-619.361	-133.115	0.339	0.043
-618.346	-155.778	-0.521	0.033
-617.332	528.831	-0.094	-0.223
-616.317	-200.000	-0.017	0.324
-615.303	-200.000	-0.021	0.267
-614.288	8.256	-0.026	-0.020
-613.273	-71.681	-0.152	0.057
-612.259	-155.849	0.327	0.021
-611.244	-200.000	-0.067	0.306
-610.230	800.000	-0.064	0.209
-609.215	-200.000	0.024	-0.291
-608.201	-200.000	0.007	0.156
-607.186	-200.000	0.012	-0.304
-606.171	-200.000	0.040	-0.390
-605.157	-3.747	-0.380	-0.265
-604.142	630.437	-0.039	0.099
-603.128	330.692	-0.119	0.230
-602.113	-49.582	-0.123	0.059
-601.098	-45.807	-0.267	0.132
-600.084	-19.890	0.119	-0.074
-599.069	-152.714	0.171	-0.012
-598.055	-77.567	-0.193	0.067
-597.040	-156.701	0.051	0.003
-596.025	248.605	0.032	0.054
-595.011	-22.975	-0.044	0.026
-593.996	-109.520	0.354	0.075
-592.982	-200.000	0.009	-0.113
-591.967	12.489	0.349	-0.270
-590.952	443.115	0.045	0.099
-589.938	190.740	0.014	0.021
-588.923	-87.378	0.320	-0.097
-587.909	-0.653	0.133	-0.095
-586.894	-200.000	-0.014	-0.110
-585.879	-94.580	-0.110	-0.030
-584.865	-107.884	-0.220	0.048
-583.850	780.310	-0.011	-0.029
-582.836	-29.640	0.115	0.066
-581.821	-73.450	-0.236	-0.087
-580.806	10.484	0.097	0.074
-579.792	-81.933	-0.100	-0.033
-578.777	800.000	-0.047	0.140
-577.763	229.571	0.131	0.215
-576.748	41.666	-0.095	0.087
-575.733	217.847	0.077	-0.123
-574.719	378.405	-0.054	-0.111
-573.704	-200.000	-0.037	0.403
-572.690	11.707	0.394	0.303
-571.675	-84.223	0.230	0.073
-570.661	-200.000	-0.040	-0.336
-569.646	-200.000	-0.005	-0.324
-568.631	800.000	0.060	0.228
-567.617	-15.096	0.094	-0.060
-566.602	-23.357	0.102	-0.061
-565.588	31.264	-0.292	-0.252
-564.573	-29.860	-0.233	0.133
-563.558	778.771	0.045	0.124
-562.544	122.925	-0.172	-0.216
-561.529	22.996	0.032	0.026
-560.515	74.109	-0.121	-0.127
-559.500	202.736	-0.093	0.144
-558.485	-16.796	0.035	0.022
-557.471	265.567	-0.203	0.354
-556.456	235.330	0.091	-0.151
-555.442	242.022	0.137	0.230
-554.427	-178.644	-0.222	0.005
-553.412	73.262	-0.064	-0.067
-552.398	-200.000	-0.027	0.209
-551.383	-27.326	-0.101	0.059
-550.369	10.977	-0.077	-0.059
-549.354	-26.887	0.097	0.057
-548.339	-173.923	0.138	0.004
-547.325	800.000	-0.083	-0.295
-546.310	-34.683	-0.129	-0.070
-545.296	19.906	-0.191	0.154
-544.281	154.592	0.210	0.288
-543.266	800.000	-0.051	0.155
-542.252	198.726	-0.158	-0.242
-541.237	-200.000	0.004	0.352
-540.223	85.432	0.234	0.258
-539.208	-38.691	-0.348	-0.184
-538.193	-94.127	-0.161	-0.044
-537.179	349.731	-0.058	-0.116
-536.164	-197.234	0.175	-0.001
-535.150	3.440	-0.252	-0.184
-534.135	-200.000	0.064	0.284
-533.121	-53.052	-0.238	-0.109
-532.106	573.339	-0.035	-0.085
-531.091	-200.000	0.016	0.103
-530.077	452.156	0.097	-0.214
-529.062	800.000	-0.153	-0.435
-528.048	-21.688	-0.082	0.050
-527.033	-25.370	-0.166	0.098
-526.018	-46.625	-0.211	-0.103
-525.004	-200.000	0.031	-0.208
-523.989	-34.695	0.174	-0.095
-522.975	26.148	-0.133	-0.111
-521.960	800.000	-0.056	-0.181
-520.945	800.000	-0.005	0.016
-519.931	45.969	0.172	0.159
-518.916	112.119	0.335	0.405
-517.902	-37.080	0.165	0.089
-516.887	-127.847	0.244	-0.035
-515.872	-180.885	-0.077	0.002
-514.858	-200.000	0.015	-0.067
-513.843	-119.993	-0.072	0.012
-512.829	701.723	0.195	0.513
-511.814	800.000	0.041	-0.129
-510.799	-190.666	0.058	0.001
-509.785	236.228	0.152	-0.251
-508.770	-66.299	-0.122	-0.048
-507.756	114.430	-0.045	-0.055
-506.741	800.000	0.070	0.210
-505.726	-200.000	-0.035	-0.233
-504.712	-122.126	-0.281	-0.046
-503.697	268.719	0.263	-0.462
-502.683	-54.125	-0.194	0.088
-501.668	231.116	-0.092	-0.150
-500.653	-27.667	-0.051	-0.030
-499.639	255.151	-0.201	-0.344
-498.624	-200.000	0.592	0.003
-497.610	212.653	-0.172	-0.270
-496.595	-22.463	-0.174	0.105
-495.581	-160.969	0.357	0.019
-494.566	19.421	0.267	-0.215
-493.551	39.370	-0.155	-0.139
-492.537	800.000	0.124	0.431
-491.522	-80.270	0.113	0.038
-490.508	800.000	0.047	-0.162
-489.493	-99.144	0.258	0.065
-488.478	-94.041	0.284	0.078
-487.464	-29.232	-0.232	0.133
-486.449	-5.433	-0.136	-0.093
-485.435	93.192	-0.113	-0.128
-484.420	450.771	-0.028	0.061
-483.405	113.983	-0.308	-0.374
-482.391	-3.716	0.211	0.147
-481.376	800.000	-0.058	-0.249
-480.362	-72.166	-0.053	-0.020
-479.347	424.277	0.181	-0.388
-478.332	-200.000	0.033	-0.213
-477.318	-185.848	0.274	0.004
-476.303	45.916	-0.208	-0.192
-475.289	-56.106	-0.162	-0.072
-474.274	113.028	0.214	0.259
-473.259	-92.500	0.237	0.067
-472.245	17.072	0.095	0.075
-471.230	7.959	-0.067	-0.050
-470.216	-200.000	-0.014	0.135
-469.201	-112.495	-0.247	-0.049
-468.186	43.726	0.245	-0.224
-467.172	63.604	0.137	0.137
-466.157	-157.178	0.335	-0.020
-465.143	-200.000	-0.050	0.256
-464.128	-155.489	-0.175	0.011
-463.113	500.209	-0.031	-0.072
-462.099	67.198	-0.290	-0.295
-461.084	-200.000	0.017	0.128
-460.070	626.118	-0.080	-0.202
-459.055	-200.000	0.024	-0.183
-458.040	-78.332	-0.278	-0.095
-457.026	173.364	0.240	0.346
-456.011	-83.077	-0.294	0.095
-454.997	-22.025	-0.020	0.012
-453.982	-153.948	-0.329	-0.022
-452.968	-200.000	0.006	-0.129
-451.953	448.364	-0.094	0.207
-450.938	-122.992	0.309	-0.050
-449.924	-85.663	0.499	-0.155
-448.909	-200.000	-0.007	0.245
-447.895	-44.567	-0.147	-0.074
-446.880	12.948	-0.025	0.020
-445.865	236.978	0.067	0.110
-444.851	-168.890	0.259	0.010
-443.836	-90.248	-0.182	0.053
-442.822	-78.497	-0.110	-0.038
-441.807	652.356	0.095	0.244
-440.792	-168.882	-0.295	0.011
-439.778	800.000	-0.080	-0.247
-438.763	-200.000	0.003	0.138
-437.749	-200.000	0.020	0.245
-436.734	-25.795	0.089	0.052
-435.719	18.404	-0.030	-0.024
-434.705	-200.000	0.016	-0.128
-433.690	-200.000	-0.060	0.310
-432.676	-151.548	0.065	-0.005
-431.661	-147.714	-0.330	-0.028
-430.646	56.706	-0.090	0.087
-429.632	-200.000	0.022	0.168
-428.617	88.833	0.121	-0.134
-427.603	67.947	0.134	0.136
-426.588	-200.000	-0.038	0.241
-425.573	18.264	0.248	-0.197
-424.559	14.224	-0.112	-0.087
-423.544	-200.000	-0.005	-0.083
-422.530	132.887	-0.117	-0.151
-421.515	82.093	0.173	-0.186
-420.500	-33.189	0.033	-0.018
-419.486	-200.000	-0.047	0.275
-418.471	-26.956	-0.053	-0.031
-417.457	-40.031	0.167	-0.087
-416.442	94.348	0.141	-0.160
-415.428	-51.899	-0.559	-0.259
-414.413	-87.775	-0.173	0.052
-413.398	330.109	-0.131	-0.251
-412.384	800.000	-0.056	0.177
-411.369	123.738	0.013	-0.016
-410.355	-200.000	0.002	0.044
-409.340	189.549	0.038	0.057
-408.325	800.000	-0.066	-0.269
-407.311	-69.074	-0.148	-0.057
-406.296	-26.861	0.283	-0.165
-405.282	291.773	0.152	0.276
-404.267	-125.694	-0.110	0.017
-403.252	-200.000	0.009	0.221
-402.238	-39.643	-0.245	0.128
-401.223	-69.918	-0.209	-0.079
-400.209	686.929	0.093	0.241
-399.194	-69.947	-0.335	0.127
-398.179	82.793	0.222	0.241
-397.165	800.000	0.060	-0.225
-396.150	104.464	0.156	0.183
-395.136	-62.820	-0.165	0.068
-394.121	-200.000	0.054	-0.272
-393.106	-8.391	0.355	-0.237
-392.092	800.000	-0.045	-0.160
-391.077	140.336	0.092	-0.121
-390.063	-62.844	0.075	0.031
-389.048	1.207	-0.191	0.136
-388.033	208.423	-0.180	-0.279
-387.019	140.310	-0.237	-0.311
-386.004	-72.252	-0.159	-0.059
-384.990	-200.000	0.018	0.189
-383.975	-200.000	0.009	0.045
-382.960	6.250	0.050	0.037
-381.946	128.419	0.141	0.178
-380.931	-78.937	0.053	-0.018
-379.917	-47.241	-0.128	-0.062
-378.902	-108.217	0.247	-0.053
-377.888	-141.986	0.043	-0.004
-376.873	-188.216	0.214	0.003
-375.858	800.000	0.037	-0.113
-374.844	39.624	-0.318	0.284
-373.829	-108.227	-0.051	-0.011
-372.815	-200.000	-0.025	-0.220
-371.800	-103.660	0.297	0.069
-370.785	-200.000	0.030	-0.159
-369.771	152.219	-0.066	0.090
-368.756	46.672	-0.164	-0.151
-367.742	-114.844	-0.248	0.047
-366.727	76.921	0.014	-0.015
-365.712	42.728	0.162	-0.146
-364.698	-200.000	0.013	0.171
-363.683	800.000	0.099	-0.314
-362.669	199.626	-0.096	-0.147
-361.654	159.759	-0.146	-0.202
-360.639	56.955	0.035	0.034
-359.625	109.834	-0.229	0.272
-358.610	-140.617	-0.321	0.033
-357.596	-200.000	-0.039	0.465
-356.581	-67.464	-0.244	-0.095
-355.566	-37.916	-0.201	0.106
-354.552	93.300	0.050	0.056
-353.537	-200.000	-0.033	0.195
-352.523	-142.365	0.173	0.017
-351.508	365.356	0.220	-0.440
-350.493	170.227	-0.153	-0.218
-349.479	-200.000	0.028	-0.160
-348.464	-160.409	-0.375	-0.020
-347.450	133.561	0.209	0.269
-346.435	798.603	-0.045	0.123
-345.420	-200.000	-0.045	-0.250
-344.406	-200.000	0.026	0.217
-343.391	199.134	-0.042	-0.064
-342.377	-200.000	0.001	-0.068
-341.362	189.314	-0.246	-0.367
-340.348	800.000	0.025	-0.104
-339.333	-135.172	-0.520	0.062
-338.318	95.670	0.193	0.219
-337.304	109.204	0.397	0.472
-336.289	107.731	-0.086	-0.101
-335.275	596.863	-0.115	0.284
-334.260	375.058	-0.141	0.285
-333.245	103.625	-0.200	-0.233
-332.231	40.208	-0.358	0.320
-331.216	133.195	0.056	-0.071
-330.202	359.196	0.069	0.137
-329.187	-200.000	-0.076	0.374
-328.172	-200.000	0.016	0.160
-327.158	-172.720	-0.298	-0.009
-326.143	-200.000	-0.055	0.280
-325.129	-100.757	0.065	-0.016
-324.114	-200.000	0.003	0.053
-323.099	-6.574	-0.124	-0.084
-322.085	3.956	-0.325	-0.236
-321.070	39.467	-0.216	0.192
-320.056	666.199	-0.129	0.331
-319.041	-115.390	0.545	-0.102
-318.026	800.000	0.080	0.326
-317.012	293.787	0.141	-0.256
-315.997	85.752	-0.240	-0.262
-314.983	14.084	0.228	0.176
-313.968	-158.996	0.266	-0.015
-312.953	-200.000	0.006	0.205
-311.939	-13.529	0.085	-0.055
-310.924	10.835	-0.013	0.010
-309.910	82.890	0.069	0.074
-308.895	-2.483	-0.160	-0.111
-307.880	-88.202	0.350	0.104
-306.866	324.740	-0.050	-0.095
-305.851	542.938	0.146	0.346
-304.837	-133.296	-0.151	-0.019
-303.822	164.155	-0.028	0.039
-302.807	-76.418	-0.516	0.180
-301.793	-94.525	-0.187	0.050
-300.778	-42.884	-0.032	-0.016
-299.764	23.382	0.063	-0.052
-298.749	-77.774	0.373	-0.128
-297.735	-200.000	-0.031	-0.143
-296.720	-200.000	0.040	0.284
-295.705	-12.349	0.252	0.163
-294.691	62.815	0.184	-0.183
-293.676	-58.781	0.096	-0.041
-292.662	-112.501	-0.197	0.039
-291.647	-184.202	0.116	-0.002
-290.632	288.865	-0.147	-0.264
-289.618	34.259	-0.223	0.192
-288.603	-59.515	-0.395	0.168
-287.589	800.000	-0.069	0.217
-286.574	-97.674	0.333	-0.086
-285.559	800.000	0.164	-0.509
-284.545	-102.157	-0.101	-0.024
-283.530	800.000	-0.089	0.274
-282.516	-200.000	0.026	0.274
-281.501	800.000	0.088	0.273
-280.486	-200.000	0.013	0.353
-279.472	-164.049	0.172	0.008
-278.457	486.592	-0.062	0.140
-277.443	-59.719	-0.203	0.086
-276.428	-47.203	-0.270	-0.131
-275.413	-51.262	-0.080	-0.037
-274.399	-84.618	0.408	-0.127
-273.384	-23.669	0.058	0.035
-272.370	9.772	-0.293	-0.220
-271.355	-59.452	-0.093	0.039
-270.340	717.947	0.082	0.217
-269.326	800.000	0.057	-0.189
-268.311	-200.000	-0.006	0.042
-267.297	41.932	0.143	-0.128
-266.282	-166.935	-0.236	0.010
-265.267	-10.361	0.074	-0.048
-264.253	478.325	-0.024	-0.053
-263.238	-200.000	-0.017	-0.092
-262.224	-200.000	-0.018	0.488
-261.209	82.801	-0.088	-0.095
-260.195	-98.820	-0.072	-0.018
-259.180	116.074	0.106	-0.128
-258.165	117.384	-0.072	-0.088
-257.151	46.539	-0.153	-0.140
-256.136	-133.655	-0.148	-0.018
-255.122	800.000	-0.064	0.198
-254.107	-90.475	-0.135	-0.039
-253.092	481.409	-0.066	-0.148
-252.078	-36.347	-0.054	-0.029
-251.063	288.819	0.026	-0.047
-250.049	800.000	-0.036	0.106
-249.034	-15.849	-0.164	-0.103
-248.019	-51.966	-0.274	0.126
-247.005	-124.089	0.337	-0.052
-245.990	800.000	-0.113	0.312
-244.976	-46.283	-0.237	-0.115
-243.961	-84.481	0.318	-0.099
-242.946	-200.000	-0.011	0.066
-241.932	-200.000	-0.030	0.153
-240.917	76.791	0.183	0.192
-239.903	291.750	0.138	0.248
-238.888	-82.371	-0.012	0.004
-237.873	-89.920	0.383	-0.111
-236.859	800.000	0.058	-0.241
-235.844	27.592	-0.094	0.078
-234.830	-2.073	-0.176	-0.122
-233.815	-51.652	0.152	-0.070
-232.800	-108.672	-0.185	0.039
-231.786	1.770	-0.346	0.246
-230.771	800.000	-0.087	-0.306
-229.757	210.887	0.131	-0.204
-228.742	-118.568	0.046	-0.008
-227.727	119.371	0.082	-0.100
-226.713	3.611	0.343	-0.248
-225.698	-141.800	-0.191	0.019
-224.684	-90.046	-0.190	-0.055
-223.669	-200.000	0.048	-0.212
-222.655	-143.332	0.209	0.020
-221.640	-110.347	0.031	0.006
-220.625	-200.000	0.005	-0.260
-219.611	176.359	0.122	-0.175
-218.596	-50.611	0.031	-0.014
-217.582	800.000	0.082	-0.331
-216.567	-200.000	-0.015	0.228
-215.552	113.972	0.242	-0.291
-214.538	-200.000	-0.017	0.149
-213.523	-36.502	0.249	0.133
-212.509	149.346	-0.136	-0.182
-211.494	202.053	0.158	0.241
-210.479	451.216	-0.242	-0.528
-209.465	651.248	0.072	0.181
-208.450	-55.887	0.117	0.052
-207.436	-191.897	0.146	-0.001
-206.421	340.785	0.189	0.365
-205.406	720.286	0.075	-0.197
-204.392	-74.054	0.305	-0.109
-203.377	16.773	0.178	-0.139
-202.363	-200.000	-0.052	0.306
-201.348	-200.000	0.023	0.206
-200.333	800.000	0.071	-0.206
-199.319	-51.240	-0.306	0.142
-198.304	-72.921	0.237	-0.086
-197.290	-200.000	-0.012	0.148
-196.275	-150.914	-0.151	0.011
-195.260	-138.681	-0.123	-0.013
-194.246	-133.937	0.187	0.023
-193.231	-200.000	-0.012	0.224
-192.217	420.893	-0.115	0.243
-191.202	-67.367	0.268	0.104
-190.187	-56.244	0.089	0.039
-189.173	41.407	0.100	-0.090
-188.158	523.578	-0.123	-0.286
-187.144	-134.527	0.372	-0.045
-186.129	-99.256	0.308	-0.077
-185.114	-79.503	-0.218	-0.073
-184.100	71.183	0.101	-0.103
-183.085	508.464	0.105	0.240
-182.071	-115.646	0.192	0.036
-181.056	-72.049	0.321	0.118
-180.042	15.159	-0.135	-0.105
-179.027	42.157	-0.169	0.151
-178.012	-137.546	0.280	0.031
-176.998	-66.647	-0.079	0.031
-175.983	410.543	0.062	-0.129
-174.969	800.000	-0.054	0.170
-173.954	321.779	0.095	0.178
-172.939	800.000	0.023	-0.094
-171.925	-33.694	-0.084	0.046
-170.910	-200.000	-0.089	-0.000
-169.896	800.000	0.045	-0.134
-168.881	-68.505	0.182	0.069
-167.866	-176.289	0.108	-0.003
-166.852	0.118	0.127	-0.090
-165.837	88.681	-0.062	-0.068
-164.823	98.664	0.107	0.122
-163.808	49.143	0.092	0.085
-162.793	560.388	-0.012	-0.029
-161.779	-200.000	0.017	-0.159
-160.764	-200.000	0.002	0.053
-159.750	-171.127	0.379	0.013
-158.735	55.827	-0.315	0.301
-157.720	142.334	0.073	0.095
-156.706	-200.000	-0.013	0.250
-155.691	8.921	0.251	-0.187
-154.677	-200.000	-0.033	0.449
-153.662	24.129	0.133	0.108
-152.647	-200.000	0.048	-0.218
-151.633	-63.853	0.176	0.071
-150.618	-118.039	0.192	-0.034
-149.604	-101.285	-0.277	-0.067
-148.589	800.000	0.099	0.341
-147.574	800.000	0.103	0.298
-146.560	-185.978	0.178	-0.003
-145.545	-20.364	-0.212	-0.128
-144.531	800.000	-0.063	-0.182
-143.516	378.841	-0.021	0.042
-142.502	-22.066	-0.133	-0.080
-141.487	-94.107	-0.271	0.073
-140.472	-200.000	0.018	-0.137
-139.458	637.012	-0.039	-0.097
-138.443	-65.734	-0.188	0.074
-137.429	12.497	0.415	0.315
-136.414	72.214	-0.283	0.290
-135.399	145.152	0.189	-0.249
-134.385	-93.943	-0.047	-0.013
-133.370	-200.000	0.007	0.187
-132.356	-105.390	-0.158	-0.036
-131.341	35.986	-0.142	0.123
-130.326	33.216	0.230	-0.197
-129.312	-1.198	-0.197	-0.137
-128.297	-200.000	0.001	0.025
-127.283	-127.567	0.049	-0.007
-126.268	-96.969	0.316	-0.082
-125.253	-53.134	0.086	-0.039
-124.239	-200.000	-0.012	0.101
-123.224	800.000	-0.110	-0.317
-122.210	-133.470	-0.293	0.036
-121.195	-22.236	-0.180	-0.108
-120.180	-84.631	-0.086	-0.027
-119.166	-84.451	-0.162	0.050
-118.151	81.070	0.162	-0.173
-117.137	72.009	0.215	0.220
-116.122	263.026	-0.101	-0.173
-115.107	-200.000	-0.044	-0.195
-114.093	-200.000	0.010	-0.068
-113.078	-44.262	-0.284	-0.140
-112.064	272.477	0.008	0.014
-111.049	-200.000	-0.050	0.460
-110.034	78.534	-0.091	-0.096
-109.020	-200.000	0.039	-0.177
-108.005	-172.529	0.102	0.003
-106.991	121.701	0.100	0.123
-105.976	118.461	-0.126	-0.153
-104.962	-118.319	0.272	0.047
-103.947	-4.744	0.091	-0.062
-102.932	90.738	0.218	0.240
-101.918	608.644	-0.133	-0.326
-100.903	-42.040	0.136	0.069
-99.889	-200.000	-0.026	0.211
-98.874	-35.468	-0.123	-0.066
-97.859	-197.167	0.272	-0.002
-96.845	38.125	0.156	-0.136
-95.830	-44.986	0.157	-0.077
-94.816	-43.372	-0.050	-0.025
-93.801	187.155	-0.074	0.109
-92.786	-200.000	-0.006	0.031
-91.772	-125.174	-0.256	0.039
-90.757	531.651	0.144	-0.335
-89.743	114.473	-0.188	-0.225
-88.728	-200.000	0.038	0.300
-87.713	344.325	0.144	0.278
-86.699	164.662	-0.067	-0.093
-85.684	-29.492	0.431	0.242
-84.670	106.889	0.073	0.085
-83.655	-200.000	-0.034	-0.240
-82.640	4.279	0.103	0.074
-81.626	800.000	0.081	0.333
-80.611	168.702	0.203	0.285
-79.597	800.000	0.100	-0.320
-78.582	-30.234	-0.390	0.218
-77.567	264.857	-0.066	-0.113
-76.553	54.011	0.276	-0.260
-75.538	-79.520	0.118	-0.039
-74.524	153.499	0.086	0.115
-73.509	800.000	0.047	0.131
-72.494	-57.852	0.138	0.060
-71.480	98.104	0.108	0.122
-70.465	69.537	0.087	-0.088
-69.451	378.972	-0.167	0.336
-68.436	179.846	-0.121	-0.174
-67.422	800.000	0.080	0.245
-66.407	-106.617	-0.281	0.061
-65.392	231.392	0.076	-0.122
-64.378	-111.970	0.264	0.052
-63.363	-30.887	0.246	0.137
-62.349	48.485	0.223	-0.205
-61.334	28.398	-1.152	-0.957
-60.319	124.169	0.277	0.341
-59.305	800.000	-0.278	-1.003
-58.290	350.163	0.425	0.825
-57.276	800.000	0.641	1.860
-56.261	-200.000	102.859	597.600
-55.246	562.007	1437.983	3416.458
-54.232	186.700	2626.935	3842.847
-53.217	117.877	2148.894	2599.673
-52.203	42.611	1594.250	1425.191
-51.188	34.082	1328.601	1136.968
-50.173	30.882	1287.029	1082.786
-49.159	54.869	1338.852	1269.123
-48.144	56.037	1354.918	1291.212
-47.130	34.291	1310.957	1122.921
-46.115	30.679	1293.806	1087.126
-45.100	30.478	1288.462	1081.425
-44.086	30.514	1286.092	1079.602
-43.071	30.404	1283.810	1077.007
-42.057	30.462	1281.909	1075.700
-41.042	30.429	1279.740	1073.651
-40.027	30.402	1278.529	1072.432
-39.013	30.421	1276.758	1071.016
-37.998	30.503	1274.863	1069.854
-36.984	30.468	1273.721	1068.651
-35.969	30.647	1271.151	1067.482
-34.954	30.450	1270.053	1065.390
-33.940	30.547	1268.743	1064.800
-32.925	30.614	1267.192	1063.844
-31.911	30.633	1265.975	1062.887
-30.896	30.655	1264.730	1061.926
-29.881	30.680	1262.949	1060.533
-28.867	30.710	1261.631	1059.551
-27.852	30.692	1260.182	1058.189
-26.838	30.667	1258.813	1056.858
-25.823	30.552	1257.703	1055.230
-24.809	30.451	1256.600	1053.690
-23.794	30.488	1255.435	1052.879
-22.779	30.617	1253.596	1052.026
-21.765	30.600	1252.559	1051.019
-20.750	30.678	1250.873	1050.005
-19.736	30.633	1249.699	1048.722
-18.721	30.339	1249.155	1046.566
-17.706	30.303	1248.013	1045.365
-16.692	30.460	1246.149	1044.644
-15.677	30.513	1245.293	1044.183
-14.663	30.361	1244.674	1042.773
-13.648	30.383	1243.425	1041.803
-12.633	30.471	1241.953	1041.023
-11.619	30.356	1241.497	1039.959
-10.604	30.365	1240.393	1039.040
-9.590	30.360	1239.834	1038.501
-8.575	30.325	1238.752	1037.361
-7.560	30.390	1237.565	1036.688
-6.546	30.510	1236.542	1036.462
-5.531	30.390	1235.720	1035.058
-4.517	30.439	1234.822	1034.541
-3.502	30.502	1234.250	1034.373
-2.487	30.490	1233.068	1033.274
-1.473	30.501	1229.227	1030.071
-0.458	29.007	1214.970	1009.895
0.556	24.580	1197.525	973.706
1.571	21.018	1203.259	958.739
2.586	20.153	1218.337	965.847
3.600	19.777	1207.093	954.777
4.615	15.358	1137.214	876.388
5.629	8.064	1065.948	785.554
6.644	5.110	1047.331	757.445
7.659	4.804	1045.124	754.297
8.673	4.803	1043.900	753.341
9.688	4.774	1042.547	752.160
10.702	4.793	1041.334	751.308
11.717	9.084	1046.718	775.904
12.731	15.983	1055.194	815.628
13.746	18.603	1058.448	830.776
14.761	18.029	1057.328	827.047
15.775	16.950	1055.173	820.074
16.790	15.947	1052.971	813.449
17.804	15.169	1051.735	808.666
18.819	14.840	1050.572	806.118
19.834	14.548	1049.690	803.959
20.848	14.374	1048.999	802.520
21.863	14.228	1047.765	800.805
22.877	14.001	1047.229	799.233
23.892	14.069	1046.412	798.863
24.907	14.011	1045.517	797.833
25.921	13.970	1044.914	797.102
26.936	14.078	1043.220	796.259
27.950	14.080	1042.058	795.310
28.965	14.140	1040.687	794.480
29.980	14.297	1039.368	794.151
30.994	14.251	1038.228	792.994
32.009	14.339	1037.135	792.505
33.023	14.246	1035.783	790.960
34.038	14.271	1034.568	790.080
35.053	14.182	1033.962	789.128
36.067	14.198	1032.963	788.372
37.082	14.329	1032.084	788.249
38.096	14.309	1031.843	787.904
39.111	14.223	1030.921	786.722
40.126	14.141	1029.419	785.120
41.140	14.038	1028.554	783.904
42.155	13.851	1027.629	782.246
43.169	13.883	1026.446	781.431
44.184	13.882	1025.902	780.942
45.199	13.883	1024.555	779.850
46.213	14.128	1023.087	779.815
47.228	14.052	1022.576	778.999
48.242	14.154	1021.094	778.280
49.257	14.064	1020.499	777.336
50.271	14.230	1019.288	777.117
51.286	14.141	1018.771	776.240
52.301	14.254	1017.262	775.551
53.315	14.107	1016.527	774.236
54.330	13.954	1015.820	772.918
55.344	14.121	1014.769	772.827
56.359	14.037	1013.916	771.719
57.374	14.111	1012.852	771.181
58.388	13.897	1012.306	769.708
59.403	13.910	1011.320	768.947
60.417	13.931	1010.688	768.500
61.432	14.010	1009.591	767.958
62.447	13.878	1009.074	766.891
63.461	13.939	1008.234	766.464
64.476	13.858	1007.199	765.235
65.490	13.768	1006.479	764.210
66.505	13.913	1005.639	764.170
67.520	13.930	1005.199	763.847
68.534	13.925	1004.509	763.232
69.549	13.999	1003.707	762.894
70.563	13.896	1002.713	761.599
71.578	13.863	1001.708	760.615
72.593	13.749	1001.322	759.735
73.607	13.727	1000.490	758.933
74.622	13.707	999.965	758.380
75.636	13.756	999.469	758.159
76.651	13.770	998.906	757.726
77.666	13.720	998.213	756.909
78.680	13.893	997.380	756.997
79.695	13.904	996.359	756.207
80.709	13.878	996.338	756.003
81.724	13.939	995.618	755.670
82.739	13.935	995.212	755.277
83.753	14.252	994.227	755.900
84.768	14.244	993.224	755.034
85.782	14.377	992.336	754.896
86.797	14.206	991.541	753.452
87.812	14.117	990.870	752.470
88.826	14.102	990.324	751.924
89.841	14.214	989.253	751.549
90.855	14.210	988.225	750.681
91.870	14.206	987.532	750.070
92.884	14.193	986.659	749.285
93.899	14.203	986.162	748.887
94.914	14.363	984.765	748.478
95.928	14.400	983.910	747.928
96.943	14.232	982.755	746.229
97.957	14.186	982.273	745.592
98.972	14.412	981.168	745.698
99.987	14.360	980.753	745.085
101.001	14.307	979.212	743.611
102.016	14.332	978.599	743.190
103.030	14.342	977.873	742.620
104.045	14.179	977.087	741.228
105.060	14.109	976.628	740.506
106.074	14.157	975.386	739.711
107.089	13.929	974.670	738.092
108.103	13.933	973.500	737.156
109.118	13.949	972.824	736.650
110.133	13.934	971.647	735.625
111.147	14.025	970.711	735.257
112.162	13.905	970.197	734.269
113.176	14.092	969.265	734.326
114.191	14.124	968.574	733.877
115.206	14.068	967.980	733.119
116.220	14.089	967.142	732.511
117.235	14.044	965.986	731.371
118.249	14.095	964.979	730.769
119.264	14.029	964.758	730.248
120.279	13.953	963.890	729.190
121.293	14.015	962.805	728.578
122.308	14.065	962.118	728.213
123.322	13.905	961.225	726.773
124.337	13.997	960.253	726.376
125.352	13.915	959.522	725.400
126.366	13.952	958.294	724.570
127.381	14.066	956.951	723.985
128.395	13.909	956.559	722.940
129.410	13.962	955.639	722.413
130.424	14.199	954.636	722.620
131.439	14.100	954.019	721.660
132.454	14.085	953.339	721.018
133.468	14.186	952.827	721.004
134.483	14.093	952.028	719.931
135.497	14.090	950.913	719.014
136.512	14.142	950.083	718.544
137.527	14.171	949.344	718.049
138.541	14.143	948.526	717.247
139.556	14.199	947.795	716.869
140.570	14.228	947.286	716.546
141.585	14.459	946.191	716.649
142.600	14.413	945.794	716.085
143.614	14.423	944.548	715.124
144.629	14.351	944.360	714.607
145.643	14.283	943.553	713.642
146.658	14.366	941.786	712.597
147.673	14.293	941.437	711.961
148.687	14.173	940.245	710.481
149.702	14.132	939.503	709.683
150.716	14.151	938.907	709.250
151.731	14.082	938.308	708.441
152.746	14.223	937.196	708.142
153.760	14.262	936.840	707.973
154.775	14.281	936.821	707.980
155.789	14.428	935.061	707.209
156.804	14.472	934.815	707.147
157.819	14.293	934.457	706.054
158.833	14.407	934.117	706.217
159.848	14.473	933.119	705.681
160.862	14.436	932.007	704.620
161.877	14.268	930.861	702.982
162.892	14.340	929.920	702.515
163.906	14.295	929.302	701.797
164.921	14.277	928.314	700.913
165.935	14.462	927.493	701.007
166.950	14.376	926.964	700.185
167.964	14.311	925.916	699.060
168.979	14.319	925.102	698.416
169.994	14.265	924.035	697.322
171.008	14.374	923.361	697.207
172.023	14.573	922.603	697.406
173.037	14.661	921.663	697.002
174.052	14.416	921.684	695.933
175.067	14.313	920.727	694.718
176.081	14.325	920.090	694.225
177.096	14.300	919.847	693.878
178.110	14.322	919.466	693.621
179.125	14.400	918.458	693.122
180.140	14.549	917.852	693.224
181.154	14.376	917.792	692.397
182.169	14.646	916.683	692.622
183.183	14.671	916.477	692.508
184.198	14.737	915.238	691.781
185.213	14.625	914.567	690.749
186.227	14.661	914.008	690.418
187.242	14.618	913.586	689.858
188.256	14.635	913.286	689.641
189.271	14.780	912.225	689.379
190.286	14.621	911.060	687.782
191.300	14.237	910.454	685.680
192.315	14.331	910.237	685.845
193.329	14.352	909.504	685.319
194.344	14.530	908.785	685.447
195.359	14.531	908.452	685.140
196.373	14.560	907.855	684.747
197.388	14.669	907.628	684.964
198.402	14.785	906.997	684.902
199.417	14.979	906.345	685.143
200.432	14.848	905.891	684.204
201.446	14.933	905.300	684.045
202.461	15.001	904.796	683.882
203.475	14.996	903.945	683.155
204.490	14.818	903.409	681.965
205.504	14.826	902.461	681.223
206.519	14.809	902.168	680.869
207.534	14.761	901.554	680.153
208.548	14.772	900.727	679.511
209.563	14.758	900.020	678.861
210.577	14.977	899.456	679.266
211.592	14.998	898.341	678.449
212.607	15.032	897.890	678.187
213.621	15.006	897.127	677.443
214.636	15.057	896.262	676.936
215.650	15.056	895.902	676.600
216.665	14.955	895.424	675.771
217.680	15.056	894.644	675.531
218.694	15.127	893.694	675.040
219.709	15.174	893.124	674.737
220.723	15.090	892.616	673.959
221.738	15.153	891.834	673.560
222.753	15.157	891.288	673.106
223.767	15.092	891.047	672.603
224.782	15.298	890.349	672.842
225.796	15.329	889.721	672.433
226.811	15.271	888.966	671.572
227.826	15.112	888.726	670.693
228.840	15.269	887.327	670.207
229.855	15.157	887.014	669.462
230.869	15.176	886.297	668.937
231.884	15.027	885.577	667.741
232.899	15.166	884.547	667.460
233.913	15.127	884.015	666.842
234.928	15.032	883.424	665.959
235.942	15.039	882.944	665.569
236.957	15.160	882.180	665.414
237.972	15.154	881.938	665.147
238.986	15.082	881.254	664.289
240.001	15.190	880.402	664.016
241.015	15.194	880.024	663.687
242.030	15.178	879.628	663.265
243.045	15.283	878.955	663.116
244.059	15.241	878.346	662.432
245.074	15.360	877.662	662.326
246.088	15.345	876.915	661.647
247.103	15.425	876.167	661.337
248.117	15.592	875.549	661.470
249.132	15.640	875.450	661.527
250.147	15.794	874.927	661.679
251.161	15.667	874.382	660.708
252.176	15.684	873.328	659.921
253.190	15.818	872.369	659.663
254.205	15.786	872.370	659.479
255.220	15.785	871.216	658.544
256.234	15.749	871.200	658.335
257.249	15.743	870.474	657.702
258.263	15.852	869.526	657.352
259.278	15.857	868.822	656.783
260.293	15.896	868.280	656.467
261.307	15.914	867.698	656.038
262.322	15.831	867.189	655.274
263.336	15.924	865.950	654.640
264.351	15.977	865.530	654.472
265.366	16.031	864.827	654.090
266.380	15.925	864.282	653.212
267.395	15.899	863.470	652.438
268.409	16.022	863.033	652.526
269.424	16.017	861.862	651.564
270.439	15.977	861.114	650.784
271.453	15.954	860.322	650.042
272.468	15.755	860.698	649.500
273.482	15.816	860.011	649.159
274.497	15.957	859.257	649.075
275.512	15.862	858.775	648.290
276.526	15.821	858.399	647.788
277.541	16.050	857.729	648.108
278.555	16.133	856.986	647.807
279.570	16.122	856.583	647.401
280.585	16.083	855.706	646.534
281.599	16.040	854.900	645.704
282.614	15.944	854.557	645.020
283.628	16.003	853.809	644.621
284.643	16.059	853.285	644.382
285.657	16.172	852.537	644.192
286.672	16.190	851.979	643.785
287.687	16.237	851.149	643.280
288.701	16.163	850.837	642.705
289.716	16.216	850.192	642.363
290.730	16.324	849.292	642.037
291.745	16.281	849.052	641.635
292.760	16.307	848.639	641.363
293.774	16.395	847.948	641.119
294.789	16.364	847.157	640.347
295.803	16.372	846.420	639.765
296.818	16.142	846.242	638.700
297.833	16.218	845.601	638.446
298.847	16.238	844.922	637.954
299.862	16.360	844.719	638.207
300.876	16.373	843.384	637.190
301.891	16.524	842.981	637.399
302.906	16.467	842.691	636.908
303.920	16.381	842.661	636.504
304.935	16.715	841.347	636.711
305.949	16.558	840.975	635.785
306.964	16.467	840.575	635.082
307.979	16.563	839.916	634.888
308.993	16.643	839.208	634.598
310.008	16.713	838.824	634.513
311.022	16.591	838.278	633.588
312.037	16.561	837.498	632.832
313.052	16.486	836.945	632.078
314.066	16.434	836.448	631.452
315.081	16.455	835.867	631.036
316.095	16.300	835.555	630.165
317.110	16.513	834.906	630.415
318.125	16.354	834.414	629.396
319.139	16.476	833.558	629.148
320.154	16.612	833.282	629.390
321.168	16.413	833.089	628.449
322.183	16.607	832.237	628.470
323.197	16.660	831.843	628.314
324.212	16.695	831.066	627.799
325.227	16.678	830.377	627.160
326.241	16.647	829.747	626.516
327.256	16.541	829.638	625.984
328.270	16.657	828.744	625.685
329.285	16.512	828.374	624.815
330.300	16.651	827.918	624.927
331.314	16.586	827.429	624.262
332.329	16.700	827.190	624.449
333.343	16.794	826.756	624.410
334.358	16.661	826.126	623.393
335.373	16.726	826.079	623.539
336.387	16.807	825.606	623.427
337.402	16.743	825.537	623.081
338.416	16.859	824.465	622.644
339.431	17.011	824.384	623.086
340.446	16.957	824.481	622.908
341.460	16.951	823.692	622.235
342.475	17.197	823.049	622.594
343.489	17.012	822.944	621.782
344.504	17.167	822.193	621.725
345.519	17.160	821.830	621.371
346.533	17.063	821.347	620.598
347.548	17.033	820.311	619.649
348.562	16.981	820.334	619.423
349.577	16.958	819.662	618.777
350.592	17.044	818.779	618.367
351.606	17.037	817.906	617.629
352.621	17.032	817.326	617.116
353.635	16.978	816.775	616.450
354.650	17.049	816.303	616.298
355.665	17.102	816.078	616.266
356.679	17.197	815.174	615.874
357.694	17.185	814.355	615.157
358.708	17.112	814.186	614.710
359.723	17.122	813.787	614.391
360.738	17.156	813.018	613.878
361.752	17.269	812.273	613.669
362.767	17.164	811.769	612.856
363.781	17.284	811.217	612.818
364.796	17.458	810.900	613.152
365.810	17.540	810.634	613.189
366.825	17.575	810.364	613.058
367.840	17.457	809.654	612.043
368.854	17.494	808.913	611.562
369.869	17.359	808.731	610.886
370.883	17.461	808.390	610.939
371.898	17.548	808.141	611.009
372.913	17.644	807.333	610.689
373.927	17.553	806.974	610.037
374.942	17.520	806.722	609.674
375.956	17.488	806.650	609.451
376.971	17.570	806.023	609.216
377.986	17.579	805.798	609.023
379.000	17.764	804.581	608.710
380.015	17.642	803.867	607.683
381.029	17.698	803.719	607.715
382.044	17.687	803.093	607.151
383.059	17.869	802.524	607.313
384.073	17.709	801.974	606.275
385.088	17.530	801.301	605.076
386.102	17.531	801.246	604.986
387.117	17.569	800.613	604.590
388.132	17.593	799.717	603.945
389.146	17.692	799.126	603.793
390.161	17.680	799.071	603.657
391.175	17.763	798.595	603.537
392.190	17.644	797.646	602.345
393.205	17.445	797.730	601.653
394.219	17.615	797.108	601.733
395.234	17.586	796.593	601.186
396.248	17.535	796.389	600.800
397.263	17.672	795.756	600.751
398.278	17.685	795.119	600.264
399.292	17.572	795.198	599.873
400.307	17.543	794.516	599.202
401.321	17.665	794.002	599.191
402.336	17.569	793.740	598.603
403.350	17.701	793.323	598.700
404.365	17.805	792.991	598.760
405.380	17.893	792.480	598.630
406.394	17.928	791.907	598.266
407.409	18.078	791.120	598.143
408.423	18.075	791.198	598.141
409.438	18.023	790.870	597.659
410.453	18.049	790.315	597.275
411.467	18.112	790.062	597.252
412.482	18.117	789.695	596.939
413.496	18.282	789.198	597.088
414.511	18.206	788.734	596.419
415.526	18.122	788.343	595.776
416.540	18.223	787.807	595.672
417.555	18.138	787.690	595.232
418.569	18.217	787.043	594.965
419.584	18.282	786.498	594.729
420.599	18.186	786.149	594.078
421.613	157.309	1370.388	1795.630
422.628	135.967	1455.527	1795.721
