DTS Sentinel unit serial number:	SN413079Multiplexer serial number:	ORYXHardware model number:	OX4-SRSoftware version number:	ORYX F/W v4.00 Oryx Data Collector v3.7.2.0data status	okinstallation	princeton_trtdifferential loss correction	single-endedforward channel	channel 1reverse channel	N/Adate	2019/09/12time	23:06:35forward acquisition time	60.00reverse acquisition time	0.00gamma	496.2192k internal	0.2328k external	0.2328temperature offset calibration	1.0146default loss term (dB/km)	0.3790temperature slope calibration	1.0000multiplexer offset coefficient	1.0000multiplexer slope coefficient	1.0000fibre end	0.00T internal ref (°C)	29.25T ext. ref 1 (°C)	3.72T ext. ref 2 (°C)	23.84length (m)	temperature (°C)	Stokes	anti-Stokes-747.200	-131.899	0.178	-0.023
-746.185	180.700	-0.096	0.143
-745.171	64.838	0.201	-0.205
-744.156	-80.350	0.139	0.047
-743.142	185.062	-0.192	-0.288
-742.127	153.388	-0.215	0.297
-741.112	-88.259	0.258	-0.078
-740.098	96.000	-0.308	0.354
-739.083	-200.000	0.002	-0.103
-738.069	-115.607	0.272	0.051
-737.054	800.000	-0.112	0.360
-736.039	230.220	-0.229	0.378
-735.025	-200.000	0.022	-0.257
-734.010	662.126	-0.046	-0.119
-732.996	-7.012	-0.211	-0.144
-731.981	229.892	0.113	0.187
-730.966	108.014	0.136	-0.163
-729.952	800.000	-0.036	0.131
-728.937	-200.000	-0.028	-0.157
-727.923	312.157	-0.012	0.022
-726.908	-160.554	-0.231	-0.012
-725.894	148.957	0.127	-0.173
-724.879	-10.281	0.278	-0.186
-723.864	-178.204	-0.078	-0.002
-722.850	-117.233	-0.042	0.008
-721.835	26.141	0.234	0.197
-720.821	48.423	-0.235	-0.221
-719.806	378.495	-0.102	-0.210
-718.791	578.110	0.101	-0.249
-717.777	-18.638	0.222	-0.140
-716.762	115.509	0.050	0.061
-715.748	91.909	-0.171	0.194
-714.733	42.537	-0.119	0.109
-713.718	44.812	0.339	0.314
-712.704	75.907	0.164	0.175
-711.689	75.102	0.152	0.162
-710.675	-200.000	-0.027	0.172
-709.660	169.433	0.119	0.172
-708.645	117.581	0.140	-0.173
-707.631	65.008	0.346	0.351
-706.616	800.000	0.019	0.057
-705.602	-133.203	-0.236	0.030
-704.587	261.349	-0.068	-0.118
-703.572	-200.000	-0.001	-0.084
-702.558	-96.376	0.145	-0.039
-701.543	54.513	0.144	0.140
-700.529	-59.322	-0.070	-0.031
-699.514	-200.000	-0.076	-0.559
-698.499	-139.258	0.062	0.007
-697.485	-46.397	0.164	-0.081
-696.470	-200.000	0.020	-0.436
-695.456	17.991	-0.060	0.048
-694.441	223.905	0.148	0.241
-693.426	86.228	-0.087	-0.097
-692.412	140.785	-0.088	-0.117
-691.397	402.696	-0.076	0.160
-690.383	638.925	-0.061	0.156
-689.368	-161.921	-0.133	-0.007
-688.354	-21.963	0.044	-0.027
-687.339	174.793	0.096	0.140
-686.324	88.669	-0.170	-0.190
-685.310	-89.595	0.288	-0.085
-684.295	74.929	0.162	0.171
-683.281	-200.000	-0.037	0.220
-682.266	30.475	0.123	-0.106
-681.251	-200.000	0.146	-0.000
-680.237	136.624	0.243	0.320
-679.222	169.732	-0.101	-0.145
-678.208	-23.275	0.359	0.217
-677.193	-149.702	0.207	0.016
-676.178	800.000	0.011	-0.038
-675.164	24.664	-0.317	0.264
-674.149	-14.603	0.330	0.214
-673.135	-200.000	0.054	-0.243
-672.120	-146.802	-0.127	0.011
-671.105	-106.363	-0.335	-0.075
-670.091	-117.319	0.219	0.040
-669.076	491.963	-0.056	0.130
-668.062	-106.540	0.277	-0.062
-667.047	735.406	-0.060	0.160
-666.032	-41.528	-0.081	-0.042
-665.018	-113.081	0.115	-0.023
-664.003	-128.679	0.044	-0.006
-662.989	169.485	0.118	0.170
-661.974	59.500	-0.174	-0.172
-660.959	-51.309	0.181	0.085
-659.945	800.000	-0.112	-0.345
-658.930	-105.175	0.139	0.032
-657.916	800.000	-0.087	-0.244
-656.901	800.000	0.176	-0.516
-655.886	-129.935	0.114	-0.016
-654.872	-200.000	0.039	-0.341
-653.857	74.293	-0.167	-0.176
-652.843	116.017	0.136	0.167
-651.828	-200.000	0.065	-0.498
-650.814	800.000	0.053	0.192
-649.799	-179.623	-0.247	0.005
-648.784	-200.000	0.044	-0.255
-647.770	-60.599	-0.191	-0.082
-646.755	-200.000	-0.001	0.262
-645.741	-200.000	0.004	-0.391
-644.726	-157.459	0.055	0.003
-643.711	780.251	0.060	0.166
-642.697	-16.487	0.084	0.053
-641.682	-183.485	-0.133	-0.002
-640.668	-200.000	0.001	0.101
-639.653	-61.806	0.442	-0.186
-638.638	-200.000	0.032	-0.170
-637.624	46.126	-0.132	0.122
-636.609	800.000	-0.050	0.153
-635.595	-55.311	0.110	-0.050
-634.580	20.036	0.116	0.094
-633.565	-200.000	0.006	0.140
-632.551	-200.000	-0.038	-0.261
-631.536	-25.001	-0.252	0.150
-630.522	-108.037	-0.299	0.065
-629.507	800.000	-0.086	-0.310
-628.492	-31.387	0.170	-0.096
-627.478	76.113	0.063	0.067
-626.463	-107.837	-0.214	-0.047
-625.449	-118.823	0.386	-0.068
-624.434	800.000	-0.056	-0.208
-623.419	616.284	-0.030	0.077
-622.405	-132.081	-0.124	0.016
-621.390	63.888	0.316	-0.319
-620.376	-200.000	0.022	-0.148
-619.361	12.279	0.342	0.264
-618.346	800.000	-0.109	-0.441
-617.332	-81.942	-0.120	-0.039
-616.317	-88.426	0.336	0.101
-615.303	-66.697	-0.293	0.116
-614.288	164.668	-0.054	0.076
-613.273	126.625	-0.021	-0.026
-612.259	-1.686	0.046	-0.032
-611.244	-153.942	0.253	0.017
-610.230	2.905	0.310	-0.225
-609.215	392.677	-0.014	-0.029
-608.201	-21.682	-0.285	-0.174
-607.186	51.328	-0.146	-0.139
-606.171	222.618	0.090	0.146
-605.157	-53.826	-0.241	0.110
-604.142	-120.298	0.239	0.041
-603.128	800.000	-0.095	-0.287
-602.113	800.000	0.016	0.060
-601.098	-61.827	-0.049	0.021
-600.084	72.961	0.046	-0.048
-599.069	217.173	-0.060	0.095
-598.055	-3.118	-0.077	0.054
-597.040	106.204	-0.073	0.087
-596.025	218.507	0.175	0.280
-595.011	269.706	0.128	0.225
-593.996	-43.598	0.300	0.152
-592.982	148.243	0.168	-0.227
-591.967	-53.543	0.327	-0.150
-590.952	-200.000	-0.014	0.138
-589.938	540.722	0.082	0.195
-588.923	-175.820	0.041	0.001
-587.909	308.156	-0.101	0.188
-586.894	-200.000	-0.016	0.186
-585.879	-111.113	0.042	0.009
-584.865	-88.344	-0.132	0.040
-583.850	426.969	-0.098	-0.211
-582.836	800.000	-0.107	-0.297
-581.821	800.000	0.032	-0.119
-580.806	-200.000	0.005	-0.144
-579.792	82.559	0.179	-0.195
-578.777	-200.000	0.036	-0.313
-577.763	-94.316	0.115	0.031
-576.748	537.791	-0.164	0.390
-575.733	-63.706	-0.181	0.074
-574.719	140.039	0.208	-0.275
-573.704	-1.569	0.055	0.039
-572.690	443.529	-0.038	0.083
-571.675	-78.403	-0.133	-0.046
-570.661	800.000	-0.033	-0.142
-569.646	-200.000	-0.011	-0.187
-568.631	-200.000	0.026	0.142
-567.617	-47.107	-0.456	0.222
-566.602	542.205	0.034	0.081
-565.588	40.481	0.160	-0.144
-564.573	800.000	0.079	0.236
-563.558	10.761	0.044	0.033
-562.544	89.013	-0.113	0.126
-561.529	-141.572	-0.126	0.013
-560.515	106.540	0.129	0.153
-559.500	97.492	0.220	0.253
-558.485	92.896	0.174	-0.196
-557.471	270.119	-0.132	0.232
-556.456	-158.711	0.030	-0.002
-555.442	-112.262	-0.411	0.082
-554.427	-200.000	-0.029	0.164
-553.412	800.000	0.047	-0.164
-552.398	-122.283	-0.247	-0.040
-551.383	-38.652	0.148	-0.078
-550.369	-21.855	0.133	0.081
-549.354	331.947	0.094	-0.182
-548.339	800.000	-0.041	-0.120
-547.325	-9.910	-0.130	0.086
-546.310	498.827	0.091	0.210
-545.296	-81.298	-0.209	0.069
-544.281	-200.000	-0.004	-0.072
-543.266	299.495	0.049	0.091
-542.252	62.571	-0.054	-0.054
-541.237	8.761	-0.267	0.201
-540.223	-93.191	0.202	0.056
-539.208	-36.782	0.175	-0.094
-538.193	-54.329	0.325	0.148
-537.179	-143.491	-0.228	-0.022
-536.164	-73.080	-0.249	-0.091
-535.150	-97.952	-0.226	0.058
-534.135	157.843	0.036	-0.049
-533.121	-177.995	0.140	-0.003
-532.106	-58.859	0.174	0.075
-531.091	18.684	0.050	0.040
-530.077	49.441	-0.101	0.095
-529.062	-200.000	0.026	-0.153
-528.048	671.499	0.031	-0.080
-527.033	-76.582	-0.115	-0.040
-526.018	-170.498	-0.169	-0.006
-525.004	-36.095	-0.201	0.109
-523.989	-18.528	-0.298	0.186
-522.975	-49.605	0.125	-0.059
-521.960	-42.716	-0.093	-0.047
-520.945	756.936	0.120	0.324
-519.931	-200.000	-0.007	0.374
-518.916	12.659	-0.353	0.272
-517.902	-171.133	0.283	0.010
-516.887	82.479	0.175	-0.190
-515.872	-200.000	-0.006	-0.179
-514.858	-200.000	-0.043	-0.254
-513.843	19.023	0.235	0.188
-512.829	151.013	-0.186	0.253
-511.814	-21.213	-0.224	0.137
-510.799	800.000	-0.021	0.070
-509.785	-3.483	-0.214	-0.149
-508.770	1.188	0.100	-0.072
-507.756	-77.179	-0.058	-0.020
-506.741	151.218	0.150	0.204
-505.726	467.301	0.060	0.134
-504.712	-108.175	-0.150	-0.032
-503.697	98.312	0.129	-0.148
-502.683	-16.821	0.077	-0.049
-501.668	171.393	-0.123	-0.176
-500.653	800.000	0.064	-0.188
-499.639	-35.145	0.140	0.076
-498.624	-2.212	-0.047	0.033
-497.610	-4.052	0.062	-0.043
-496.595	-126.329	0.218	-0.032
-495.581	547.561	-0.099	0.236
-494.566	-100.346	-0.321	0.079
-493.551	800.000	-0.062	-0.251
-492.537	-200.000	0.027	-0.331
-491.522	734.987	0.088	0.235
-490.508	433.597	0.148	0.321
-489.493	-14.284	0.096	0.062
-488.478	-35.287	0.204	0.111
-487.464	800.000	0.072	0.307
-486.449	-200.000	-0.024	-0.153
-485.435	-132.955	0.548	0.070
-484.420	800.000	0.058	0.194
-483.405	681.412	-0.083	0.215
-482.391	504.478	-0.098	0.226
-481.376	301.888	0.132	-0.244
-480.362	-21.439	0.193	-0.118
-479.347	-200.000	0.072	0.469
-478.332	-12.674	0.159	-0.104
-477.318	-200.000	-0.029	-0.197
-476.303	-200.000	0.016	0.257
-475.289	98.288	-0.152	-0.175
-474.274	-82.368	0.198	-0.064
-473.259	296.929	-0.119	-0.217
-472.245	464.277	0.023	-0.051
-471.230	-200.000	0.014	0.089
-470.216	-200.000	0.036	0.201
-469.201	-200.000	-0.005	0.231
-468.186	143.476	-0.136	-0.181
-467.172	-58.977	-0.279	0.120
-466.157	38.158	-0.160	0.142
-465.143	-165.778	0.389	-0.017
-464.128	6.464	0.267	-0.198
-463.113	69.221	-0.275	-0.282
-462.099	17.665	0.064	0.051
-461.084	-68.439	0.037	-0.014
-460.070	213.651	-0.150	-0.236
-459.055	-150.541	-0.526	0.040
-458.040	-165.478	0.261	0.011
-457.026	-48.479	0.125	0.060
-456.011	-200.000	-0.016	0.163
-454.997	66.590	-0.063	-0.064
-453.982	416.569	-0.059	0.126
-452.968	-60.785	0.210	-0.089
-451.953	-200.000	-0.011	-0.387
-450.938	201.688	-0.110	0.168
-449.924	171.767	0.309	-0.442
-448.909	800.000	-0.090	-0.265
-447.895	-112.946	-0.433	0.085
-446.880	173.889	0.120	0.173
-445.865	-32.484	-0.158	0.088
-444.851	-4.530	0.043	-0.029
-443.836	85.588	-0.213	-0.233
-442.822	-118.790	-0.288	-0.051
-441.807	800.000	-0.021	0.082
-440.792	800.000	-0.039	0.152
-439.778	-200.000	0.038	-0.354
-438.763	-12.003	0.151	0.099
-437.749	-61.633	-0.476	-0.199
-436.734	-23.624	0.145	-0.087
-435.719	-39.035	0.087	-0.046
-434.705	14.766	0.230	0.179
-433.690	-140.185	0.212	-0.022
-432.676	-126.431	-0.031	0.005
-431.661	227.875	0.086	0.139
-430.646	-51.400	0.122	-0.057
-429.632	-200.000	0.075	0.340
-428.617	-138.075	-0.094	0.010
-427.603	92.141	0.053	0.060
-426.588	460.701	-0.111	-0.246
-425.573	-200.000	0.064	0.345
-424.559	-200.000	0.007	-0.115
-423.544	270.073	-0.235	0.411
-422.530	-76.541	-0.182	0.063
-421.515	-104.652	-0.178	0.041
-420.500	57.599	-0.121	-0.118
-419.486	18.022	0.177	-0.140
-418.471	148.844	-0.173	0.232
-417.457	130.793	0.044	0.056
-416.442	115.776	-0.046	-0.056
-415.428	-200.000	0.005	-0.026
-414.413	-200.000	-0.032	-0.332
-413.398	800.000	-0.035	0.134
-412.384	702.851	0.126	0.329
-411.369	800.000	-0.022	0.086
-410.355	-200.000	0.019	0.138
-409.340	800.000	0.045	0.168
-408.325	61.303	-0.120	-0.118
-407.311	800.000	-0.124	-0.454
-406.296	-200.000	0.041	0.218
-405.282	334.050	-0.076	-0.146
-404.267	-53.524	0.025	-0.011
-403.252	516.073	0.110	0.255
-402.238	-61.868	-0.026	-0.011
-401.223	800.000	0.049	-0.149
-400.209	800.000	0.026	0.098
-399.194	-119.757	0.154	-0.026
-398.179	-18.672	-0.165	-0.102
-397.165	-47.420	0.325	0.157
-396.150	202.074	-0.121	0.185
-395.136	-61.259	-0.147	0.062
-394.121	159.581	0.169	-0.234
-393.106	-200.000	-0.050	0.243
-392.092	-108.628	0.201	-0.043
-391.077	138.600	-0.141	0.184
-390.063	-131.317	0.287	-0.038
-389.048	105.856	-0.265	-0.312
-388.033	-125.038	-0.166	-0.025
-387.019	-98.376	-0.312	0.079
-386.004	641.156	-0.163	0.412
-384.990	-200.000	0.046	0.331
-383.975	95.752	-0.153	-0.174
-382.960	-20.340	0.299	0.183
-381.946	212.560	0.079	0.123
-380.931	-121.174	-0.129	0.021
-379.917	309.643	0.088	0.163
-378.902	800.000	-0.030	0.122
-377.888	-200.000	-0.030	0.196
-376.873	800.000	0.053	0.159
-375.858	-93.924	-0.234	0.064
-374.844	14.622	-0.121	-0.094
-373.829	112.517	0.264	-0.317
-372.815	-57.016	0.269	0.118
-371.800	-123.421	-0.119	-0.019
-370.785	-78.399	-0.203	0.069
-369.771	238.547	-0.042	0.070
-368.756	3.418	-0.100	-0.072
-367.742	583.318	-0.110	-0.268
-366.727	-200.000	0.018	0.084
-365.712	-89.975	0.295	-0.085
-364.698	68.233	0.039	-0.040
-363.683	-200.000	-0.039	-0.199
-362.669	800.000	-0.084	-0.275
-361.654	-113.405	0.182	0.035
-360.639	412.510	-0.103	0.218
-359.625	-124.861	-0.399	-0.061
-358.610	-117.576	-0.140	-0.025
-357.596	-200.000	0.042	-0.225
-356.581	-156.701	-0.088	0.005
-355.566	282.056	0.041	-0.073
-354.552	800.000	0.098	-0.328
-353.537	-76.397	0.124	-0.043
-352.523	12.529	0.093	0.071
-351.508	252.725	-0.223	0.377
-350.493	149.383	0.107	-0.144
-349.479	-94.669	0.210	0.057
-348.464	691.947	-0.019	-0.050
-347.450	416.067	0.055	0.116
-346.435	-200.000	0.195	0.001
-345.420	-146.794	-0.229	0.020
-344.406	12.310	-0.206	-0.158
-343.391	800.000	0.022	-0.086
-342.377	124.609	-0.211	-0.264
-341.362	-200.000	0.046	-0.271
-340.348	-127.876	0.195	-0.028
-339.333	-76.398	0.400	-0.139
-338.318	800.000	0.122	0.452
-337.304	-200.000	-0.030	0.166
-336.289	9.758	-0.082	0.062
-335.275	-200.000	-0.017	0.102
-334.260	800.000	-0.076	-0.274
-333.245	-62.913	-0.269	0.110
-332.231	-200.000	0.021	-0.155
-331.216	-157.246	0.469	-0.028
-330.202	106.391	0.161	-0.190
-329.187	-170.165	0.100	-0.004
-328.172	800.000	0.157	-0.439
-327.158	-200.000	-0.000	-0.141
-326.143	-52.345	0.149	-0.068
-325.129	-124.740	0.064	-0.010
-324.114	476.255	0.065	-0.146
-323.099	-200.000	-0.055	0.252
-322.085	800.000	-0.078	0.246
-321.070	201.935	0.005	-0.007
-320.056	-95.977	0.171	0.045
-319.041	-103.759	-0.211	0.049
-318.026	342.335	-0.026	-0.050
-317.012	-126.365	-0.049	-0.007
-315.997	60.443	-0.217	-0.213
-314.983	800.000	-0.087	0.239
-313.968	-168.393	0.088	-0.003
-312.953	-200.000	-0.039	0.170
-311.939	-200.000	-0.031	-0.498
-310.924	-82.493	-0.190	-0.061
-309.910	-200.000	-0.008	-0.060
-308.895	98.917	0.038	-0.043
-307.880	-31.511	0.033	0.018
-306.866	660.229	0.040	-0.102
-305.851	-90.222	-0.382	0.110
-304.837	-100.421	-0.237	0.058
-303.822	105.467	-0.109	0.128
-302.807	44.976	0.047	0.043
-301.793	46.517	-0.267	-0.245
-300.778	596.617	0.112	-0.274
-299.764	800.000	-0.076	-0.249
-298.749	-200.000	0.059	-0.354
-297.735	-3.492	0.383	0.264
-296.720	-200.000	-0.047	-0.300
-295.705	-34.589	0.081	0.044
-294.691	64.776	-0.247	-0.247
-293.676	14.779	0.287	0.222
-292.662	-46.570	0.177	0.086
-291.647	43.633	0.247	-0.223
-290.632	-155.144	-0.219	-0.014
-289.618	-200.000	0.000	-0.158
-288.603	212.148	-0.105	0.164
-287.589	-200.000	-0.026	0.140
-286.574	-103.556	-0.252	0.059
-285.559	-62.226	0.237	-0.098
-284.545	232.317	-0.123	-0.200
-283.530	-156.752	-0.162	-0.010
-282.516	800.000	0.079	0.265
-281.501	14.141	-0.079	-0.061
-280.486	800.000	0.194	-0.562
-279.472	-68.256	-0.172	-0.066
-278.457	87.610	-0.232	-0.254
-277.443	-131.500	0.242	0.032
-276.428	800.000	0.125	0.366
-275.413	57.739	-0.191	0.185
-274.399	-200.000	-0.024	-0.223
-273.384	493.659	0.088	0.200
-272.370	800.000	0.081	-0.307
-271.355	-28.925	-0.223	0.127
-270.340	-112.288	-0.067	-0.013
-269.326	63.359	-0.085	0.084
-268.311	-97.356	-0.125	0.032
-267.297	12.451	0.067	-0.051
-266.282	223.730	0.107	-0.170
-265.267	31.512	-0.171	-0.145
-264.253	-6.436	0.442	-0.298
-263.238	-44.258	-0.108	-0.054
-262.224	2.355	-0.111	0.079
-261.209	-200.000	0.011	0.107
-260.195	-104.870	0.453	0.103
-259.180	-44.604	0.292	-0.144
-258.165	-200.000	-0.000	-0.077
-257.151	-52.013	0.187	0.086
-256.136	-110.748	0.160	-0.033
-255.122	-55.215	-0.372	-0.165
-254.107	117.916	0.075	-0.091
-253.092	-93.242	0.128	-0.035
-252.078	-40.511	-0.364	0.187
-251.063	-144.162	0.171	0.016
-250.049	-34.063	-0.172	0.093
-249.034	-200.000	-0.004	-0.029
-248.019	-200.000	-0.001	-0.193
-247.005	-67.727	-0.121	-0.047
-245.990	329.745	0.095	-0.180
-244.976	-200.000	0.011	-0.220
-243.961	-37.722	0.230	-0.121
-242.946	-63.298	-0.155	-0.063
-241.932	608.910	-0.055	0.136
-240.917	35.459	-0.140	-0.122
-239.903	441.099	0.058	-0.126
-238.888	48.766	0.182	0.168
-237.873	73.890	-0.015	0.015
-236.859	538.279	0.079	0.187
-235.844	294.303	-0.139	-0.251
-234.830	323.406	-0.046	0.086
-233.815	-109.081	-0.291	-0.061
-232.800	38.246	0.105	-0.093
-231.786	385.063	-0.076	-0.156
-230.771	-65.197	-0.165	-0.066
-229.757	-83.743	-0.296	0.093
-228.742	-95.251	0.035	0.009
-227.727	800.000	-0.066	-0.188
-226.713	-200.000	0.021	0.225
-225.698	-16.289	0.052	0.033
-224.684	31.993	0.085	-0.073
-223.669	432.668	0.235	-0.504
-222.655	-200.000	0.012	0.118
-221.640	-87.045	-0.110	0.033
-220.625	-69.807	-0.074	0.028
-219.611	-200.000	0.002	0.144
-218.596	-85.395	-0.201	-0.062
-217.582	127.086	0.068	0.086
-216.567	474.167	0.067	0.149
-215.552	-112.929	-0.123	-0.024
-214.538	-174.790	0.376	-0.010
-213.523	111.801	-0.120	0.143
-212.509	-110.534	-0.121	-0.025
-211.494	-129.159	0.400	-0.055
-210.479	42.949	0.153	-0.138
-209.465	-53.074	0.140	0.063
-208.450	-62.830	0.303	-0.124
-207.436	117.207	0.181	0.220
-206.421	-69.267	0.124	0.047
-205.406	-195.975	-0.183	-0.001
-204.392	2.655	0.219	0.157
-203.377	-66.578	-0.123	0.048
-202.363	282.488	0.175	0.309
-201.348	196.956	0.111	-0.168
-200.333	221.941	-0.168	-0.266
-199.319	800.000	-0.040	0.160
-198.304	42.390	0.093	-0.083
-197.290	52.167	0.034	-0.032
-196.275	66.740	-0.057	0.057
-195.260	-76.211	0.225	0.078
-194.246	800.000	0.004	-0.011
-193.231	-56.289	-0.140	0.061
-192.217	780.101	0.048	-0.131
-191.202	-200.000	0.006	0.045
-190.187	-87.467	0.460	-0.137
-189.173	-43.360	-0.379	0.189
-188.158	2.557	0.106	-0.076
-187.144	40.975	0.245	0.218
-186.129	265.897	0.053	-0.092
-185.114	-152.562	-0.149	-0.010
-184.100	7.058	0.508	0.373
-183.085	-84.895	0.254	0.079
-182.071	325.317	-0.335	-0.631
-181.056	-109.584	-0.304	0.063
-180.042	800.000	0.124	0.438
-179.027	-200.000	0.038	0.193
-178.012	-71.469	-0.179	-0.066
-176.998	-200.000	-0.040	0.204
-175.983	-83.334	-0.271	-0.086
-174.969	-54.605	-0.113	0.050
-173.954	129.478	-0.298	0.375
-172.939	-200.000	-0.003	0.061
-171.925	-154.646	0.196	-0.013
-170.910	86.654	-0.231	0.251
-169.896	-2.437	-0.400	0.277
-168.881	462.306	-0.046	-0.101
-167.866	-200.000	-0.064	0.595
-166.852	499.728	-0.098	-0.222
-165.837	740.512	-0.062	-0.164
-164.823	171.632	0.343	0.485
-163.808	800.000	-0.075	0.207
-162.793	-200.000	-0.035	-0.283
-161.779	707.124	-0.094	-0.244
-160.764	-86.078	0.343	0.104
-159.750	-109.200	-0.278	-0.058
-158.735	22.656	-0.105	0.084
-157.720	230.513	0.020	-0.032
-156.706	800.000	0.089	-0.376
-155.691	-194.524	-0.256	-0.002
-154.677	95.916	0.279	0.313
-153.662	445.977	-0.056	0.122
-152.647	285.523	0.082	-0.145
-151.633	11.041	0.041	-0.031
-150.618	129.687	0.053	-0.067
-149.604	800.000	0.067	0.214
-148.589	-200.000	0.010	0.164
-147.574	-38.158	-0.234	-0.122
-146.560	50.142	-0.300	0.279
-145.545	70.987	0.233	0.237
-144.531	-88.181	0.407	0.120
-143.516	800.000	-0.041	0.153
-142.502	-200.000	0.069	-0.385
-141.487	74.312	0.189	0.196
-140.472	132.640	-0.051	-0.065
-139.458	3.877	-0.110	-0.079
-138.443	-34.209	-0.048	-0.026
-137.429	-42.536	-0.201	0.101
-136.414	800.000	0.090	0.255
-135.399	30.135	-0.334	-0.280
-134.385	-200.000	-0.001	-0.228
-133.370	-200.000	-0.054	-0.240
-132.356	-56.958	-0.204	0.088
-131.341	-21.574	0.202	0.121
-130.326	800.000	-0.030	-0.127
-129.312	-33.302	0.180	0.098
-128.297	231.790	0.223	-0.361
-127.283	387.555	0.076	-0.155
-126.268	-132.433	-0.281	-0.036
-125.253	152.905	-0.202	0.272
-124.239	57.613	0.084	0.081
-123.224	58.504	-0.225	-0.217
-122.210	-101.103	0.104	0.025
-121.195	-3.021	0.218	0.150
-120.180	-189.997	-0.196	-0.002
-119.166	338.375	0.080	0.154
-118.151	-200.000	-0.009	0.055
-117.137	-200.000	-0.022	-0.297
-116.122	800.000	-0.086	0.236
-115.107	78.315	0.266	0.279
-114.093	251.543	-0.114	-0.190
-113.078	377.291	0.222	0.446
-112.064	-200.000	-0.024	0.104
-111.049	12.993	-0.126	0.096
-110.034	800.000	0.120	0.337
-109.020	101.411	0.231	0.264
-108.005	314.599	0.132	0.244
-106.991	800.000	-0.011	0.033
-105.976	-27.535	0.067	0.039
-104.962	725.704	-0.093	0.245
-103.947	-200.000	-0.029	0.323
-102.932	92.940	0.028	0.031
-101.918	-8.958	-0.023	-0.015
-100.903	-152.154	-0.147	0.010
-99.889	800.000	-0.051	-0.192
-98.874	-97.065	-0.124	0.032
-97.859	287.451	-0.073	-0.129
-96.845	414.831	0.031	0.065
-95.830	-130.956	0.321	0.042
-94.816	800.000	-0.050	0.187
-93.801	-73.254	0.235	0.085
-92.786	-200.000	0.009	-0.044
-91.772	64.353	-0.117	-0.116
-90.757	-200.000	-0.010	-0.112
-89.743	-156.890	0.065	-0.004
-88.728	149.901	0.159	0.211
-87.713	691.331	-0.118	-0.303
-86.699	-189.137	-0.310	-0.004
-85.684	-175.988	-0.032	-0.001
-84.670	-159.491	-0.262	-0.014
-83.655	800.000	-0.074	-0.245
-82.640	800.000	-0.103	-0.295
-81.626	-26.168	0.456	0.263
-80.611	-27.325	0.307	0.175
-79.597	369.841	-0.031	0.061
-78.582	-85.681	-0.039	0.012
-77.567	159.134	0.075	-0.102
-76.553	-143.052	-0.456	-0.043
-75.538	800.000	0.058	0.229
-74.524	-200.000	0.027	-0.279
-73.509	20.413	-0.089	-0.070
-72.494	9.258	0.200	0.148
-71.480	-10.664	-0.248	-0.161
-70.465	-105.807	0.304	-0.067
-69.451	-112.467	-0.149	0.029
-68.436	800.000	0.062	-0.194
-67.422	-200.000	0.007	-0.127
-66.407	768.778	0.098	0.261
-65.392	97.964	0.047	0.054
-64.378	-63.005	0.198	0.080
-63.363	68.118	-0.316	-0.317
-62.349	-75.918	0.136	-0.047
-61.334	-15.554	-0.888	-0.556
-60.319	48.489	0.818	0.752
-59.305	696.380	-0.502	-1.293
-58.290	122.209	0.721	0.883
-57.276	285.727	0.694	1.227
-56.261	-200.000	110.042	604.244
-55.246	500.705	1507.119	3411.888
-54.232	177.790	2687.360	3843.581
-53.217	109.417	2152.450	2528.805
-52.203	40.422	1599.626	1412.661
-51.188	32.758	1340.808	1138.018
-50.173	29.620	1300.504	1085.368
-49.159	53.298	1356.206	1274.675
-48.144	53.544	1371.410	1290.391
-47.130	32.690	1325.497	1124.438
-46.115	29.346	1307.439	1089.365
-45.100	29.243	1302.325	1084.452
-44.086	29.082	1300.195	1081.692
-43.071	29.261	1297.468	1080.427
-42.057	29.118	1295.936	1078.271
-41.042	29.184	1294.071	1077.065
-40.027	29.125	1292.709	1075.542
-39.013	29.187	1290.579	1074.091
-37.998	29.161	1288.704	1072.338
-36.984	29.166	1287.348	1071.190
-35.969	29.265	1285.212	1069.948
-34.954	29.287	1283.694	1068.770
-33.940	29.323	1282.839	1068.224
-32.925	29.212	1281.353	1066.301
-31.911	29.271	1279.907	1065.397
-30.896	29.279	1278.370	1064.122
-29.881	29.345	1277.024	1063.337
-28.867	29.375	1275.175	1061.931
-27.852	29.223	1274.379	1060.350
-26.838	29.323	1272.478	1059.299
-25.823	29.307	1271.600	1058.436
-24.809	29.272	1270.416	1057.206
-23.794	29.243	1269.028	1055.843
-22.779	29.321	1267.219	1054.746
-21.765	29.276	1266.154	1053.558
-20.750	29.357	1265.099	1053.099
-19.736	29.329	1263.698	1051.736
-18.721	29.399	1262.186	1050.831
-17.706	29.191	1261.500	1049.038
-16.692	29.208	1259.996	1047.838
-15.677	29.111	1259.157	1046.546
-14.663	29.304	1258.347	1046.931
-13.648	29.226	1256.802	1045.160
-12.633	29.276	1255.994	1044.734
-11.619	29.212	1255.705	1044.088
-10.604	29.248	1254.433	1043.195
-9.590	29.149	1253.431	1041.754
-8.575	29.194	1252.609	1041.286
-7.560	29.228	1251.367	1040.406
-6.546	29.239	1250.594	1039.781
-5.531	29.235	1250.086	1039.297
-4.517	29.198	1249.008	1038.148
-3.502	29.176	1248.444	1037.517
-2.487	29.182	1247.258	1036.523
-1.473	29.279	1242.807	1033.329
-0.458	27.537	1228.101	1011.403
0.556	25.479	1210.484	972.902
1.571	21.523	1216.115	955.780
2.586	20.629	1229.726	961.455
3.600	20.219	1218.569	950.402
4.615	15.417	1147.925	870.375
5.629	7.605	1074.661	776.688
6.644	4.122	1055.735	746.191
7.659	3.748	1053.110	742.470
8.673	3.556	1051.848	740.596
9.688	3.466	1050.854	739.396
10.702	3.946	1049.242	740.494
11.717	9.093	1055.632	769.668
12.731	17.592	1067.780	819.509
13.746	22.378	1074.195	847.464
14.761	23.276	1074.559	851.999
15.775	22.724	1072.803	847.878
16.790	21.845	1071.742	842.743
17.804	21.344	1070.569	839.341
18.819	21.192	1069.624	837.798
19.834	21.263	1068.962	837.545
20.848	21.261	1068.828	837.354
21.863	21.204	1067.613	836.055
22.877	20.958	1067.125	834.422
23.892	20.888	1066.378	833.429
24.907	20.717	1065.340	831.728
25.921	20.796	1063.710	830.761
26.936	20.818	1062.804	830.085
27.950	20.840	1061.218	828.876
28.965	20.827	1059.945	827.748
29.980	21.135	1058.435	827.955
30.994	21.139	1057.430	827.114
32.009	21.242	1056.713	826.970
33.023	21.085	1055.840	825.469
34.038	20.875	1055.188	823.893
35.053	20.904	1053.929	822.973
36.067	20.835	1053.053	821.892
37.082	20.729	1052.620	820.980
38.096	21.132	1051.660	822.057
39.111	21.156	1050.884	821.493
40.126	20.849	1049.611	818.982
41.140	20.402	1048.044	815.590
42.155	20.266	1047.062	814.111
43.169	20.348	1045.546	813.249
44.184	20.192	1045.163	812.149
45.199	20.256	1043.985	811.460
46.213	20.458	1043.717	812.122
47.228	20.877	1043.096	813.526
48.242	20.925	1042.402	813.136
49.257	20.936	1041.245	812.213
50.271	20.940	1040.903	811.893
51.286	21.124	1040.300	812.206
52.301	21.056	1039.490	811.185
53.315	20.911	1038.026	809.300
54.330	20.687	1037.058	807.433
55.344	20.484	1036.279	805.813
56.359	20.480	1035.390	805.033
57.374	20.590	1034.316	804.637
58.388	20.337	1033.521	802.773
59.403	20.256	1032.257	801.347
60.417	20.289	1031.433	800.791
61.432	20.315	1030.750	800.307
62.447	20.221	1030.006	799.229
63.461	20.113	1029.447	798.225
64.476	20.068	1028.523	797.233
65.490	19.982	1027.812	796.214
66.505	20.112	1027.695	796.651
67.520	20.116	1026.814	795.915
68.534	20.044	1025.795	794.727
69.549	19.952	1024.936	793.568
70.563	19.852	1023.942	792.269
71.578	19.659	1023.460	790.946
72.593	19.549	1022.332	789.501
73.607	19.587	1021.779	789.175
74.622	19.731	1021.168	789.294
75.636	19.822	1020.159	788.856
76.651	19.761	1020.236	788.568
77.666	19.851	1019.193	788.100
78.680	19.818	1018.675	787.483
79.695	19.932	1018.332	787.665
80.709	20.127	1017.698	787.992
81.724	20.176	1017.331	787.862
82.739	20.430	1016.483	788.288
83.753	20.752	1016.556	789.738
84.768	21.286	1015.599	791.343
85.782	21.464	1015.137	791.719
86.797	21.359	1014.274	790.498
87.812	21.192	1013.042	788.714
88.826	21.189	1011.868	787.717
89.841	21.207	1011.539	787.472
90.855	21.257	1010.370	786.717
91.870	21.401	1009.749	786.812
92.884	21.180	1009.223	785.342
93.899	21.211	1007.836	784.330
94.914	21.366	1006.855	784.195
95.928	21.086	1006.586	782.657
96.943	21.055	1005.118	781.310
97.957	20.992	1003.988	780.080
98.972	21.101	1003.484	780.108
99.987	21.131	1002.489	779.398
101.001	21.126	1001.325	778.399
102.016	21.053	1000.492	777.359
103.030	21.133	999.951	777.226
104.045	21.088	999.428	776.549
105.060	20.997	998.237	775.153
106.074	20.636	997.387	772.819
107.089	20.436	995.662	770.527
108.103	20.251	994.711	768.902
109.118	20.120	994.050	767.747
110.133	19.982	992.194	765.632
111.147	19.964	991.739	765.136
112.162	19.984	991.357	764.859
113.176	20.406	990.845	766.262
114.191	20.422	989.978	765.591
115.206	20.260	989.073	764.114
116.220	20.160	988.233	762.955
117.235	20.189	987.136	762.167
118.249	19.984	986.664	760.834
119.264	19.972	985.886	760.114
120.279	19.911	984.552	758.751
121.293	19.654	984.020	757.151
122.308	19.764	982.772	756.605
123.322	19.620	981.819	755.174
124.337	19.710	980.824	754.733
125.352	19.697	979.875	753.879
126.366	19.647	979.323	753.172
127.381	19.736	978.758	753.057
128.395	19.898	977.596	752.804
129.410	19.930	976.684	752.171
130.424	20.054	976.115	752.205
131.439	20.269	975.896	752.902
132.454	20.433	974.626	752.567
133.468	20.258	973.938	751.215
134.483	20.419	973.213	751.282
135.497	20.357	972.497	750.397
136.512	20.297	971.502	749.304
137.527	20.347	970.965	749.039
138.541	20.334	970.027	748.192
139.556	20.480	969.671	748.480
140.570	20.760	969.180	749.241
141.585	20.980	968.682	749.734
142.600	21.095	967.186	749.006
143.614	21.220	967.217	749.500
144.629	21.263	966.675	749.197
145.643	21.161	965.479	747.768
146.658	20.732	964.273	744.931
147.673	20.632	962.393	742.986
148.687	20.412	961.710	741.453
149.702	20.503	960.209	740.619
150.716	20.378	959.567	739.525
151.731	20.389	959.194	739.222
152.746	20.464	958.482	738.926
153.760	20.539	958.021	738.824
154.775	20.660	957.529	738.893
155.789	20.703	956.799	738.447
156.804	20.686	956.192	737.841
157.819	20.869	955.766	738.219
158.833	20.974	955.153	738.129
159.848	21.297	953.961	738.505
160.862	20.996	952.916	736.359
161.877	20.600	951.736	733.716
162.892	20.279	950.228	731.135
163.906	20.288	948.914	730.098
164.921	20.356	948.312	729.855
165.935	20.398	947.734	729.520
166.950	20.423	947.185	729.137
167.964	20.473	946.371	728.658
168.979	20.489	944.682	727.361
169.994	20.289	944.208	726.094
171.008	20.548	943.756	726.766
172.023	20.832	943.565	727.741
173.037	20.969	943.052	727.853
174.052	20.870	941.754	726.372
175.067	20.420	940.569	723.521
176.081	20.082	939.988	721.603
177.096	20.029	939.357	720.833
178.110	20.167	938.792	720.910
179.125	20.245	938.412	720.880
180.140	20.515	937.781	721.452
181.154	20.632	937.946	722.001
182.169	20.856	937.619	722.613
183.183	20.868	936.840	722.000
184.198	20.836	935.805	721.007
185.213	20.888	935.097	720.609
186.227	20.836	934.761	720.074
187.242	20.983	934.064	720.079
188.256	21.236	933.529	720.649
189.271	21.210	932.924	720.009
190.286	20.718	931.797	717.051
191.300	20.237	930.222	713.794
192.315	20.103	929.420	712.564
193.329	20.236	928.860	712.621
194.344	20.380	928.642	712.980
195.359	20.400	928.203	712.662
196.373	20.745	927.666	713.602
197.388	21.001	927.220	714.243
198.402	21.175	927.297	714.955
199.417	21.195	927.219	714.912
200.432	21.487	926.572	715.543
201.446	21.536	926.050	715.278
202.461	21.719	925.426	715.481
203.475	21.453	924.781	713.832
204.490	21.080	923.317	711.118
205.504	20.911	922.561	709.786
206.519	20.958	921.808	709.334
207.534	20.867	921.438	708.620
208.548	20.763	920.656	707.530
209.563	20.974	919.974	707.802
210.577	21.121	919.286	707.805
211.592	21.424	918.665	708.494
212.607	21.435	918.263	708.162
213.621	21.385	917.945	707.653
214.636	21.319	917.002	706.599
215.650	21.327	916.407	706.107
216.665	21.415	915.537	705.730
217.680	21.547	915.215	705.953
218.694	21.572	915.040	705.858
219.709	21.367	914.119	704.256
220.723	21.376	912.821	703.231
221.738	21.285	912.233	702.349
222.753	21.252	911.473	701.572
223.767	21.444	911.212	702.077
224.782	21.602	910.986	702.475
225.796	21.598	910.620	702.114
226.811	21.488	909.433	700.699
227.826	21.086	908.806	698.545
228.840	21.098	908.034	697.936
229.855	21.047	907.318	697.120
230.869	21.097	906.366	696.526
231.884	20.962	905.879	695.551
232.899	20.746	905.089	694.023
233.913	20.852	904.106	693.631
234.928	20.706	902.999	692.139
235.942	20.590	902.805	691.466
236.957	20.600	902.087	690.897
237.972	20.631	901.822	690.755
238.986	20.738	900.979	690.472
240.001	20.743	900.520	690.080
241.015	20.695	900.264	689.630
242.030	21.016	899.518	690.273
243.045	21.125	898.941	690.198
244.059	21.100	898.816	689.942
245.074	21.072	898.112	689.231
246.088	21.341	897.264	689.581
247.103	21.558	897.027	690.193
248.117	21.666	897.299	690.768
249.132	22.134	896.796	692.163
250.147	22.444	896.377	692.998
251.161	22.344	896.598	692.714
252.176	22.500	895.171	692.164
253.190	22.558	894.783	692.031
254.205	22.382	894.421	690.999
255.220	22.370	893.675	690.311
256.234	22.381	892.705	689.546
257.249	22.282	892.133	688.656
258.263	22.293	891.270	687.972
259.278	22.184	890.798	687.118
260.293	22.370	890.274	687.383
261.307	22.480	889.573	687.210
262.322	22.553	888.889	686.906
263.336	22.525	888.121	686.142
264.351	22.401	887.624	685.213
265.366	22.386	887.095	684.687
266.380	22.386	886.591	684.235
267.395	22.208	885.969	683.005
268.409	22.211	884.853	682.095
269.424	22.243	884.162	681.625
270.439	22.329	882.914	680.939
271.453	21.973	882.430	679.125
272.468	22.024	881.892	678.849
273.482	22.068	881.406	678.585
274.497	21.966	880.757	677.633
275.512	21.949	880.439	677.260
276.526	22.062	879.922	677.238
277.541	22.328	879.346	677.763
278.555	22.413	879.307	677.998
279.570	22.755	878.396	678.550
280.585	22.525	877.719	677.083
281.599	22.177	876.841	675.011
282.614	22.077	875.958	673.887
283.628	21.988	875.064	672.798
284.643	21.948	874.827	672.402
285.657	22.039	874.386	672.354
286.672	22.213	873.494	672.273
287.687	22.195	873.298	671.994
288.701	22.148	872.258	670.958
289.716	22.171	872.003	670.789
290.730	22.232	871.612	670.661
291.745	22.156	870.963	669.813
292.760	22.360	870.614	670.262
293.774	22.589	870.362	670.879
294.789	22.494	869.753	669.992
295.803	22.243	868.348	667.896
296.818	22.031	867.806	666.614
297.833	21.971	867.394	666.010
298.847	22.182	866.478	666.050
299.862	22.317	866.022	666.151
300.876	22.335	865.843	666.020
301.891	22.540	865.212	666.254
302.906	22.778	865.015	666.943
303.920	22.961	864.834	667.435
304.935	23.102	863.940	667.217
305.949	22.958	863.101	665.969
306.964	22.569	862.719	664.151
307.979	22.564	861.952	663.480
308.993	22.689	861.719	663.713
310.008	22.762	860.925	663.317
311.022	22.547	860.434	662.073
312.037	22.486	859.207	660.841
313.052	22.027	858.575	658.575
314.066	21.870	858.354	657.759
315.081	21.886	857.449	657.068
316.095	22.051	856.326	656.766
317.110	22.047	855.914	656.377
318.125	21.942	855.794	655.835
319.139	21.938	855.000	655.152
320.154	21.961	854.841	655.059
321.168	22.061	854.470	655.089
322.183	22.075	853.802	654.571
323.197	22.074	853.349	654.164
324.212	22.168	852.829	654.055
325.227	22.145	852.208	653.438
326.241	21.928	851.911	652.342
327.256	21.874	850.949	651.349
328.270	21.916	850.375	651.007
329.285	21.855	849.648	650.168
330.300	21.935	849.012	649.918
331.314	22.089	848.521	650.055
332.329	22.329	848.664	650.998
333.343	22.395	848.122	650.769
334.358	22.595	847.476	650.953
335.373	22.600	847.356	650.822
336.387	22.457	847.537	650.376
337.402	22.743	847.214	651.123
338.416	22.956	847.027	651.710
339.431	23.113	846.482	651.812
340.446	23.156	846.142	651.649
341.460	23.287	846.160	652.089
342.475	23.343	845.555	651.770
343.489	23.361	845.185	651.494
344.504	23.377	845.060	651.400
345.519	23.455	844.809	651.435
346.533	23.356	843.928	650.331
347.548	22.946	842.776	647.887
348.562	22.808	842.045	646.761
349.577	22.527	840.995	644.868
350.592	22.378	840.504	643.888
351.606	22.385	839.720	643.257
352.621	22.501	838.937	643.024
353.635	22.580	838.534	642.945
354.650	22.610	838.157	642.711
355.665	22.804	837.042	642.505
356.679	22.769	836.938	642.241
357.694	22.886	836.408	642.202
358.708	22.553	835.914	640.556
359.723	22.621	835.154	640.165
360.738	22.850	833.796	639.897
361.752	22.883	833.944	640.073
362.767	23.252	833.638	641.119
363.781	23.414	833.102	641.233
364.796	23.479	833.111	641.420
365.810	23.680	832.674	641.753
366.825	23.571	832.588	641.237
367.840	23.533	831.813	640.445
368.854	23.344	830.892	638.999
369.869	23.350	830.304	638.512
370.883	23.123	829.946	637.361
371.898	23.503	829.921	638.656
372.913	23.447	829.645	638.183
373.927	23.456	828.564	637.331
374.942	23.303	828.617	636.762
375.956	23.566	828.029	637.198
376.971	23.680	827.554	637.186
377.986	23.767	827.439	637.353
379.000	23.815	826.754	636.943
380.015	23.762	825.851	636.001
381.029	23.726	825.518	635.558
382.044	23.786	824.960	635.287
383.059	23.848	823.930	634.659
384.073	23.499	823.552	633.066
385.088	23.189	822.649	631.209
386.102	23.203	821.872	630.608
387.117	23.026	821.309	629.490
388.132	22.948	820.692	628.683
389.146	23.195	820.091	629.047
390.161	23.410	820.005	629.690
391.175	23.606	819.826	630.190
392.190	23.599	818.495	629.088
393.205	23.157	818.147	627.199
394.219	23.046	817.647	626.365
395.234	22.893	817.362	625.552
396.248	22.913	816.751	625.098
397.263	22.948	816.081	624.655
398.278	22.687	815.874	623.517
399.292	22.450	815.604	622.420
400.307	22.628	814.823	622.397
401.321	22.905	814.164	622.815
402.336	23.038	814.018	623.116
403.350	23.316	813.589	623.711
404.365	23.510	813.836	624.531
405.380	23.712	813.291	624.766
406.394	23.842	813.240	625.130
407.409	23.937	812.720	625.007
408.423	24.005	812.804	625.258
409.438	24.050	812.350	625.011
410.453	24.035	811.329	624.118
411.467	24.069	811.026	623.948
412.482	24.167	810.480	623.817
413.496	24.372	810.357	624.384
414.511	24.316	809.925	623.797
415.526	24.118	809.263	622.541
416.540	24.046	808.672	621.779
417.555	24.196	807.845	621.613
418.569	24.137	808.008	621.478
419.584	24.137	807.234	620.826
420.599	23.983	807.211	620.217
421.613	163.646	1371.964	1797.903
422.628	142.397	1454.233	1798.004
