DTS Sentinel unit serial number:	SN413079Multiplexer serial number:	ORYXHardware model number:	OX4-SRSoftware version number:	ORYX F/W v4.00 Oryx Data Collector v3.7.2.0data status	okinstallation	princeton_trtdifferential loss correction	single-endedforward channel	channel 1reverse channel	N/Adate	2019/09/11time	07:20:11forward acquisition time	60.00reverse acquisition time	0.00gamma	496.2192k internal	0.2328k external	0.2328temperature offset calibration	0.9915default loss term (dB/km)	0.3790temperature slope calibration	1.0000multiplexer offset coefficient	1.0000multiplexer slope coefficient	1.0000fibre end	0.00T internal ref (°C)	30.70T ext. ref 1 (°C)	-0.06T ext. ref 2 (°C)	27.19length (m)	temperature (°C)	Stokes	anti-Stokes-747.200	49.547	0.137	-0.130
-746.185	800.000	-0.014	0.052
-745.171	-23.836	0.192	-0.116
-744.156	-200.000	-0.002	0.376
-743.142	-82.996	-0.227	0.074
-742.127	163.444	0.077	-0.110
-741.112	789.218	0.147	-0.407
-740.098	498.358	-0.138	-0.320
-739.083	391.356	0.078	-0.164
-738.069	10.619	0.176	0.135
-737.054	-146.347	-0.347	-0.031
-736.039	800.000	0.045	-0.195
-735.025	-100.251	0.174	-0.044
-734.010	-32.704	-0.116	0.065
-732.996	-156.147	-0.402	-0.026
-731.981	-102.948	-0.263	-0.063
-730.966	-174.087	-0.424	-0.012
-729.952	-200.000	0.004	-0.226
-728.937	-150.783	-0.084	-0.006
-727.923	-65.950	-0.270	0.108
-726.908	-135.197	-0.159	-0.019
-725.894	100.154	-0.070	-0.082
-724.879	337.069	0.100	-0.196
-723.864	92.101	-0.168	-0.190
-722.850	800.000	-0.086	-0.265
-721.835	-200.000	0.077	-0.647
-720.821	-45.867	-0.314	-0.156
-719.806	254.285	-0.100	-0.173
-718.791	-8.127	-0.128	-0.087
-717.777	245.590	0.103	0.174
-716.762	-113.314	-0.325	-0.064
-715.748	-200.000	0.061	-0.365
-714.733	-30.450	-0.262	-0.150
-713.718	9.028	-0.037	0.028
-712.704	113.138	0.181	-0.221
-711.689	-2.231	0.191	0.135
-710.675	-22.818	0.074	0.045
-709.660	10.213	0.119	-0.091
-708.645	-200.000	0.005	-0.102
-707.631	-7.597	0.213	0.145
-706.616	-113.706	-0.315	-0.062
-705.602	163.218	-0.132	0.186
-704.587	-103.567	-0.145	-0.034
-703.572	-44.144	-0.149	-0.075
-702.558	68.500	0.061	-0.063
-701.543	800.000	0.117	0.329
-700.529	800.000	0.036	0.159
-699.514	-59.556	-0.331	-0.143
-698.499	-31.599	0.150	0.085
-697.485	800.000	-0.065	-0.270
-696.470	291.760	-0.078	-0.144
-695.456	-81.627	0.234	0.077
-694.441	261.323	-0.112	-0.195
-693.426	-149.131	0.340	0.027
-692.412	800.000	0.053	-0.171
-691.397	-20.879	-0.193	-0.119
-690.383	-64.558	0.249	-0.102
-689.368	-109.250	-0.094	0.020
-688.354	-18.839	-0.163	0.102
-687.339	-117.005	-0.360	0.066
-686.324	-61.962	0.094	0.039
-685.310	31.742	-0.013	0.012
-684.295	800.000	-0.053	0.194
-683.281	107.882	-0.069	-0.082
-682.266	371.772	0.053	-0.109
-681.251	123.740	0.076	0.096
-680.237	-122.718	0.276	-0.045
-679.222	-101.301	0.101	-0.025
-678.208	613.364	-0.014	0.034
-677.193	649.159	0.116	0.298
-676.178	-68.452	-0.391	0.152
-675.164	11.756	-0.175	-0.135
-674.149	-103.493	-0.291	0.069
-673.135	-143.035	0.164	-0.016
-672.120	-33.009	0.078	0.043
-671.105	-57.494	0.463	0.204
-670.091	111.907	-0.231	-0.280
-669.076	10.411	0.094	0.072
-668.062	349.682	0.100	-0.198
-667.047	367.596	-0.132	0.267
-666.032	-52.773	-0.070	-0.032
-665.018	98.047	-0.028	-0.032
-664.003	-62.717	-0.099	0.041
-662.989	-86.866	-0.215	-0.066
-661.974	77.908	-0.141	-0.151
-660.959	268.515	-0.122	0.215
-659.945	-102.191	-0.010	0.002
-658.930	452.215	-0.059	0.131
-657.916	127.351	-0.123	0.156
-656.901	167.135	-0.192	0.274
-655.886	-86.674	-0.230	0.071
-654.872	-125.641	-0.096	0.015
-653.857	800.000	0.050	0.205
-652.843	-136.849	-0.159	-0.018
-651.828	-23.041	0.194	0.117
-650.814	800.000	-0.048	0.200
-649.799	-200.000	-0.019	-0.137
-648.784	422.033	-0.079	-0.171
-647.770	-51.390	-0.198	-0.093
-646.755	-140.202	0.304	0.032
-645.741	-56.085	-0.320	-0.143
-644.726	-33.743	0.259	-0.143
-643.711	174.841	-0.215	0.312
-642.697	-138.251	-0.382	0.042
-641.682	-200.000	-0.004	0.043
-640.668	139.811	0.148	0.195
-639.653	-81.447	0.335	-0.111
-638.638	-38.188	0.269	0.143
-637.624	-200.000	-0.019	-0.283
-636.609	-59.558	-0.295	0.127
-635.595	-12.263	-0.161	0.106
-634.580	-200.000	-0.037	0.342
-633.565	-187.821	-0.067	0.001
-632.551	306.251	0.060	0.112
-631.536	-50.053	0.240	0.114
-630.522	-34.527	0.014	0.008
-629.507	-77.391	-0.283	-0.099
-628.492	-48.900	-0.248	-0.119
-627.478	-80.816	0.331	-0.110
-626.463	106.658	-0.272	-0.324
-625.449	-200.000	-0.039	-0.211
-624.434	-200.000	-0.019	-0.095
-623.419	-200.000	-0.025	-0.248
-622.405	-65.952	0.208	0.084
-621.390	-200.000	-0.030	0.335
-620.376	340.766	0.205	-0.401
-619.361	49.815	0.357	0.337
-618.346	-200.000	0.017	0.181
-617.332	43.689	0.119	-0.109
-616.317	-3.010	-0.206	-0.144
-615.303	324.983	0.052	-0.100
-614.288	632.525	0.142	-0.360
-613.273	-42.902	-0.311	0.158
-612.259	800.000	0.048	-0.169
-611.244	-148.872	-0.233	-0.019
-610.230	-24.245	-0.198	-0.118
-609.215	800.000	0.070	0.263
-608.201	-101.592	-0.179	0.044
-607.186	-15.231	-0.310	0.199
-606.171	-200.000	0.003	0.097
-605.157	444.074	0.087	0.191
-604.142	-63.132	-0.241	0.100
-603.128	-158.257	-0.018	-0.001
-602.113	-200.000	-0.030	0.136
-601.098	-86.506	-0.112	-0.034
-600.084	194.894	0.088	0.135
-599.069	144.633	-0.173	0.231
-598.055	-100.687	-0.353	-0.087
-597.040	800.000	-0.172	0.499
-596.025	-62.161	-0.176	-0.074
-595.011	167.722	0.058	-0.083
-593.996	-18.676	0.103	-0.065
-592.982	665.156	-0.080	-0.207
-591.967	480.678	-0.138	-0.314
-590.952	-200.000	-0.055	-0.298
-589.938	-108.587	-0.104	-0.022
-588.923	-111.047	-0.181	-0.037
-587.909	-200.000	0.030	-0.162
-586.894	26.674	-0.093	0.078
-585.879	253.067	0.246	0.420
-584.865	-200.000	0.074	-0.441
-583.850	-59.398	0.329	0.142
-582.836	-42.743	0.254	0.129
-581.821	-184.778	-0.152	-0.002
-580.806	-200.000	-0.027	-0.173
-579.792	12.696	0.321	0.248
-578.777	0.466	0.096	0.068
-577.763	172.870	-0.134	-0.193
-576.748	800.000	-0.055	-0.211
-575.733	76.973	-0.220	-0.234
-574.719	144.294	0.066	0.088
-573.704	51.019	-0.083	-0.079
-572.690	207.922	-0.068	-0.106
-571.675	800.000	0.047	0.132
-570.661	98.529	0.366	0.422
-569.646	-200.000	0.009	0.235
-568.631	-200.000	0.053	0.277
-567.617	225.265	0.089	-0.144
-566.602	182.949	-0.160	-0.236
-565.588	339.648	0.194	-0.378
-564.573	-30.053	-0.113	0.065
-563.558	-102.513	0.131	0.031
-562.544	25.822	0.026	-0.022
-561.529	800.000	-0.091	-0.386
-560.515	788.802	0.045	-0.124
-559.500	-97.200	0.117	0.031
-558.485	-200.000	0.026	0.177
-557.471	-15.669	0.364	-0.233
-556.456	-52.405	-0.205	-0.095
-555.442	-108.486	-0.189	-0.041
-554.427	60.230	-0.175	-0.173
-553.412	-7.121	0.214	-0.145
-552.398	800.000	0.085	-0.307
-551.383	-19.047	-0.182	-0.113
-550.369	521.613	0.093	-0.218
-549.354	-200.000	-0.013	-0.236
-548.339	-152.690	0.238	-0.017
-547.325	-37.840	-0.135	-0.072
-546.310	-200.000	-0.034	0.378
-545.296	629.429	-0.081	0.205
-544.281	-162.455	0.147	0.007
-543.266	-200.000	0.334	0.001
-542.252	-133.253	0.305	0.038
-541.237	111.560	-0.148	0.179
-540.223	11.192	-0.255	0.195
-539.208	-122.122	-0.220	-0.036
-538.193	-171.040	0.272	-0.009
-537.179	82.670	-0.160	-0.174
-536.164	19.480	0.098	-0.079
-535.150	-200.000	0.032	-0.287
-534.135	-108.927	-0.353	-0.075
-533.121	-21.622	-0.269	-0.164
-532.106	-200.000	0.015	0.074
-531.091	-134.251	0.606	-0.075
-530.077	294.905	-0.099	-0.180
-529.062	16.924	0.139	0.110
-528.048	-149.387	0.278	0.022
-527.033	-152.491	0.316	0.023
-526.018	131.322	-0.187	-0.240
-525.004	14.319	0.146	-0.113
-523.989	18.383	-0.036	-0.029
-522.975	-104.623	-0.075	0.017
-521.960	-200.000	0.048	-0.311
-520.945	253.334	0.096	-0.164
-519.931	-9.098	0.259	-0.173
-518.916	45.878	-0.048	-0.044
-517.902	27.846	0.261	0.220
-516.887	-142.987	-0.203	-0.020
-515.872	-25.405	0.129	0.076
-514.858	27.969	0.115	0.097
-513.843	1.519	0.368	0.265
-512.829	-59.880	-0.102	-0.044
-511.814	60.782	0.140	0.138
-510.799	-200.000	0.109	0.670
-509.785	-200.000	0.039	0.302
-508.770	643.929	-0.141	-0.358
-507.756	-154.412	-0.093	-0.006
-506.741	347.880	0.233	-0.458
-505.726	-136.758	-0.207	-0.024
-504.712	-129.933	-0.233	-0.032
-503.697	-80.313	0.057	0.019
-502.683	52.096	-0.259	0.247
-501.668	-38.949	-0.403	0.212
-500.653	6.897	0.160	0.119
-499.639	-103.114	0.269	0.064
-498.624	429.645	-0.021	-0.046
-497.610	-125.267	-0.072	-0.011
-496.595	124.223	0.100	-0.125
-495.581	-183.408	-0.326	-0.006
-494.566	297.514	-0.144	0.264
-493.551	800.000	0.089	0.385
-492.537	-200.000	-0.025	-0.164
-491.522	-35.732	0.222	0.120
-490.508	-200.000	-0.063	-0.417
-489.493	-200.000	-0.010	0.052
-488.478	-140.384	0.076	0.008
-487.464	-200.000	0.019	-0.400
-486.449	-200.000	-0.003	-0.339
-485.435	-33.503	0.062	0.034
-484.420	31.870	0.227	0.195
-483.405	-60.093	-0.211	0.090
-482.391	156.185	-0.054	0.074
-481.376	11.171	0.074	0.056
-480.362	273.050	-0.033	0.058
-479.347	-11.467	0.234	-0.153
-478.332	-171.599	-0.263	-0.009
-477.318	-59.422	0.249	-0.107
-476.303	800.000	0.073	-0.241
-475.289	-169.111	0.436	0.016
-474.274	-165.257	0.076	-0.003
-473.259	-200.000	-0.010	0.136
-472.245	285.906	-0.139	-0.251
-471.230	58.822	0.296	-0.290
-470.216	5.597	0.102	0.075
-469.201	114.157	-0.257	-0.312
-468.186	78.335	-0.218	0.232
-467.172	112.400	0.202	0.243
-466.157	108.228	-0.154	0.183
-465.143	119.828	0.183	0.226
-464.128	-45.014	0.274	-0.136
-463.113	800.000	-0.023	-0.094
-462.099	-51.549	0.318	0.148
-461.084	800.000	-0.054	0.161
-460.070	346.432	0.063	-0.124
-459.055	-200.000	-0.281	0.000
-458.040	-72.772	-0.340	-0.125
-457.026	800.000	-0.039	0.169
-456.011	-200.000	0.023	0.163
-454.997	67.302	-0.112	-0.114
-453.982	122.260	-0.067	-0.083
-452.968	-30.623	-0.300	-0.169
-451.953	-89.491	0.493	0.144
-450.938	521.610	0.032	0.074
-449.924	-79.848	-0.123	-0.041
-448.909	-200.000	-0.008	-0.090
-447.895	90.260	-0.182	0.203
-446.880	241.006	0.046	-0.077
-445.865	-200.000	0.019	0.212
-444.851	-200.000	0.034	-0.241
-443.836	451.145	0.096	-0.211
-442.822	19.003	-0.171	-0.137
-441.807	59.489	0.225	-0.221
-440.792	800.000	0.019	0.065
-439.778	-86.967	0.238	0.072
-438.763	357.043	0.064	-0.127
-437.749	-200.000	0.012	-0.073
-436.734	-61.617	0.212	0.088
-435.719	102.446	-0.143	0.166
-434.705	264.049	0.324	0.561
-433.690	-19.536	0.207	-0.128
-432.676	-46.738	-0.091	-0.044
-431.661	33.457	-0.158	0.137
-430.646	-125.802	-0.241	-0.036
-429.632	-45.350	-0.068	0.033
-428.617	-200.000	-0.008	-0.050
-427.603	530.232	0.076	0.179
-426.588	-133.324	-0.194	0.024
-425.573	152.056	-0.161	-0.219
-424.559	292.389	-0.158	-0.286
-423.544	800.000	0.028	-0.082
-422.530	109.833	0.058	-0.069
-421.515	556.974	0.153	0.368
-420.500	-148.891	0.275	0.022
-419.486	800.000	0.036	-0.133
-418.471	-200.000	-0.027	0.453
-417.457	-128.979	-0.270	0.038
-416.442	-60.514	0.235	0.099
-415.428	81.052	-0.083	-0.090
-414.413	-200.000	-0.010	-0.175
-413.398	2.020	-0.056	0.040
-412.384	-60.791	-0.263	0.111
-411.369	-13.313	-0.381	-0.246
-410.355	-9.215	0.082	0.054
-409.340	1.187	-0.266	0.190
-408.325	119.454	0.156	-0.192
-407.311	-97.954	0.280	0.072
-406.296	-47.184	0.136	-0.066
-405.282	179.549	-0.028	0.040
-404.267	-200.000	0.026	-0.130
-403.252	-39.011	-0.049	0.026
-402.238	47.161	0.132	0.122
-401.223	-200.000	0.062	-0.371
-400.209	-200.000	-0.008	-0.116
-399.194	-200.000	-0.030	0.168
-398.179	85.238	0.170	-0.185
-397.165	427.117	0.083	0.177
-396.150	-59.890	-0.352	0.150
-395.136	582.909	0.042	-0.101
-394.121	140.259	-0.367	-0.481
-393.106	47.054	-0.107	0.099
-392.092	-200.000	0.013	-0.058
-391.077	1.700	0.199	0.143
-390.063	142.809	0.124	0.164
-389.048	-200.000	-0.013	0.345
-388.033	-132.370	-0.234	-0.030
-387.019	-157.959	-0.105	-0.006
-386.004	3.487	-0.113	-0.082
-384.990	619.891	0.113	0.281
-383.975	-65.253	-0.153	0.061
-382.960	-200.000	0.018	0.154
-381.946	-9.388	0.194	0.129
-380.931	-200.000	0.036	0.363
-379.917	-42.014	-0.327	0.166
-378.902	268.075	0.084	0.147
-377.888	137.222	0.057	-0.074
-376.873	139.934	-0.075	0.099
-375.858	-99.553	-0.225	0.056
-374.844	187.580	0.116	-0.172
-373.829	800.000	-0.037	0.149
-372.815	-200.000	0.044	0.220
-371.800	204.021	0.137	-0.211
-370.785	-115.589	-0.369	0.069
-369.771	41.162	-0.095	0.085
-368.756	800.000	0.023	0.070
-367.742	591.484	0.127	-0.311
-366.727	-130.325	0.375	-0.051
-365.712	-16.971	-0.237	0.149
-364.698	27.015	-0.080	0.067
-363.683	800.000	-0.018	-0.061
-362.669	163.209	-0.238	-0.333
-361.654	-200.000	-0.010	0.171
-360.639	-69.602	-0.235	0.089
-359.625	253.086	0.055	0.093
-358.610	-12.269	-0.041	-0.027
-357.596	-45.282	0.139	0.068
-356.581	800.000	0.046	0.155
-355.566	16.314	-0.164	0.128
-354.552	56.278	0.073	0.070
-353.537	159.832	-0.055	0.076
-352.523	39.212	0.185	0.164
-351.508	-200.000	0.016	0.109
-350.493	43.107	-0.113	0.103
-349.479	-127.897	0.235	0.034
-348.464	-23.338	-0.240	-0.143
-347.450	-9.476	-0.322	0.213
-346.435	37.868	0.095	0.084
-345.420	693.590	0.057	-0.148
-344.406	55.617	0.055	0.053
-343.391	-53.901	-0.405	-0.183
-342.377	771.155	-0.077	-0.209
-341.362	396.844	-0.083	0.172
-340.348	10.613	-0.107	-0.081
-339.333	-132.745	-0.185	-0.023
-338.318	-170.157	-0.176	0.006
-337.304	-200.000	-0.037	0.202
-336.289	-200.000	0.005	-0.038
-335.275	-200.000	0.042	-0.228
-334.260	-79.741	-0.147	0.049
-333.245	-55.970	-0.153	0.068
-332.231	-19.153	-0.423	0.260
-331.216	148.433	-0.085	0.113
-330.202	-164.661	-0.081	-0.004
-329.187	532.093	0.058	-0.137
-328.172	132.674	0.069	0.088
-327.158	160.584	0.022	0.031
-326.143	-164.137	0.079	-0.004
-325.129	800.000	-0.138	-0.382
-324.114	-111.870	0.415	-0.083
-323.099	18.346	-0.316	-0.250
-322.085	800.000	0.013	0.054
-321.070	800.000	-0.075	-0.263
-320.056	-117.636	-0.285	0.051
-319.041	-156.438	0.185	0.011
-318.026	-106.746	0.170	0.037
-317.012	-26.467	-0.130	0.076
-315.997	800.000	-0.073	-0.308
-314.983	184.702	-0.117	-0.172
-313.968	-200.000	-0.025	-0.228
-312.953	74.683	-0.032	0.033
-311.939	-133.161	-0.259	0.032
-310.924	-200.000	-0.021	0.443
-309.910	32.790	0.128	0.109
-308.895	109.757	-0.124	-0.148
-307.880	39.356	-0.122	-0.108
-306.866	24.550	-0.141	-0.116
-305.851	686.981	-0.032	-0.083
-304.837	-101.074	-0.210	0.051
-303.822	239.695	-0.092	0.152
-302.807	521.795	0.054	-0.125
-301.793	111.026	0.248	-0.296
-300.778	194.131	-0.138	-0.207
-299.764	797.261	0.103	-0.282
-298.749	333.820	-0.098	-0.187
-297.735	-101.960	0.382	-0.091
-296.720	800.000	-0.058	0.242
-295.705	56.765	-0.315	0.304
-294.691	101.845	-0.071	0.082
-293.676	-140.414	0.074	0.008
-292.662	-31.122	0.178	0.099
-291.647	58.283	-0.062	0.060
-290.632	-131.683	-0.072	0.009
-289.618	-8.970	0.380	0.252
-288.603	-7.247	-0.204	0.137
-287.589	6.660	-0.051	-0.038
-286.574	-200.000	0.010	-0.096
-285.559	-200.000	-0.024	0.279
-284.545	360.483	0.101	-0.199
-283.530	31.624	-0.322	0.274
-282.516	119.968	0.198	0.243
-281.501	664.002	0.120	0.306
-280.486	243.174	-0.069	-0.114
-279.472	150.897	-0.071	0.096
-278.457	403.601	-0.058	0.121
-277.443	104.695	0.197	-0.230
-276.428	-108.684	-0.165	0.035
-275.413	-0.326	0.142	-0.100
-274.399	-165.775	0.062	0.003
-273.384	-200.000	0.065	-0.380
-272.370	-109.693	-0.147	0.031
-271.355	-87.062	-0.206	0.062
-270.340	137.872	-0.081	0.105
-269.326	-99.252	-0.075	-0.019
-268.311	800.000	0.048	0.198
-267.297	302.389	-0.081	-0.147
-266.282	30.412	-0.009	0.008
-265.267	800.000	0.036	-0.108
-264.253	249.464	-0.039	0.065
-263.238	133.989	0.228	0.292
-262.224	108.495	-0.012	0.015
-261.209	187.115	0.121	0.178
-260.195	26.743	0.332	0.275
-259.180	124.549	0.145	-0.180
-258.165	94.730	-0.083	-0.093
-257.151	-51.178	0.047	-0.022
-256.136	-122.187	0.170	0.027
-255.122	-200.000	-0.035	-0.164
-254.107	-151.141	0.082	-0.006
-253.092	487.825	0.151	0.341
-252.078	-121.952	-0.087	-0.014
-251.063	213.767	0.143	-0.223
-250.049	-182.867	0.135	-0.002
-249.034	800.000	-0.057	-0.237
-248.019	206.646	-0.117	-0.179
-247.005	212.982	0.214	0.334
-245.990	80.360	0.367	-0.390
-244.976	-103.017	-0.043	0.010
-243.961	-43.373	0.244	0.122
-242.946	-176.801	0.215	-0.005
-241.932	-50.832	-0.093	-0.043
-240.917	-13.337	-0.223	0.143
-239.903	-84.860	0.186	0.058
-238.888	-68.424	0.245	0.094
-237.873	800.000	0.122	0.376
-236.859	-200.000	-0.006	0.385
-235.844	165.572	-0.088	-0.124
-234.830	275.242	0.018	-0.031
-233.815	-103.923	-0.045	-0.010
-232.800	-105.326	-0.380	0.086
-231.786	-200.000	0.019	0.088
-230.771	800.000	-0.063	-0.246
-229.757	-8.562	0.329	-0.218
-228.742	-74.099	0.177	-0.063
-227.727	330.698	0.022	-0.042
-226.713	-90.789	0.105	0.030
-225.698	-77.181	-0.182	0.062
-224.684	7.197	0.247	0.182
-223.669	-200.000	0.042	-0.281
-222.655	-200.000	-0.035	-0.264
-221.640	291.194	0.067	0.119
-220.625	-107.106	0.423	-0.092
-219.611	-200.000	-0.031	0.265
-218.596	-137.421	0.293	0.033
-217.582	-119.375	-0.242	0.042
-216.567	-102.811	0.105	0.025
-215.552	-104.075	-0.247	-0.057
-214.538	-80.008	-0.329	-0.109
-213.523	-57.257	-0.170	-0.074
-212.509	-200.000	-0.009	-0.068
-211.494	-99.014	-0.281	0.070
-210.479	-77.529	-0.343	-0.117
-209.465	28.649	0.170	0.142
-208.450	724.009	-0.094	0.247
-207.436	-83.128	-0.235	0.075
-206.421	-200.000	0.034	0.357
-205.406	-121.734	0.203	0.033
-204.392	27.964	-0.136	0.113
-203.377	68.324	-0.194	0.196
-202.363	-74.619	0.150	0.053
-201.348	-80.060	-0.229	-0.076
-200.333	15.811	-0.126	-0.098
-199.319	-106.811	0.281	0.061
-198.304	11.250	0.209	0.158
-197.290	-200.000	0.042	0.284
-196.275	-59.620	-0.289	-0.122
-195.260	-181.079	0.345	0.007
-194.246	219.152	0.148	0.233
-193.231	-132.394	-0.187	0.024
-192.217	-72.990	0.170	-0.062
-191.202	-169.642	0.187	-0.007
-190.187	105.700	0.065	-0.076
-189.173	-90.043	-0.136	-0.039
-188.158	764.919	-0.046	-0.124
-187.144	610.525	0.210	-0.517
-186.129	-200.000	0.044	-0.193
-185.114	330.640	0.137	-0.261
-184.100	-200.000	0.038	0.172
-183.085	-200.000	0.032	0.427
-182.071	-200.000	0.011	-0.151
-181.056	800.000	0.037	-0.152
-180.042	287.873	-0.139	-0.249
-179.027	-170.061	0.564	-0.020
-178.012	-33.526	-0.161	0.088
-176.998	-27.853	0.102	-0.058
-175.983	800.000	-0.057	0.234
-174.969	75.415	0.196	-0.204
-173.954	429.430	-0.059	-0.125
-172.939	800.000	-0.080	0.218
-171.925	-169.354	0.223	-0.008
-170.910	15.126	0.161	-0.124
-169.896	313.250	-0.202	-0.375
-168.881	-18.346	0.163	-0.101
-167.866	-39.107	-0.232	0.120
-166.852	800.000	-0.062	-0.245
-165.837	33.167	-0.071	-0.060
-164.823	23.513	0.028	-0.022
-163.808	-32.284	-0.212	-0.117
-162.793	77.455	0.138	0.144
-161.779	52.649	0.321	0.302
-160.764	-200.000	-0.018	-0.202
-159.750	-86.973	-0.147	0.044
-158.735	800.000	-0.076	-0.212
-157.720	-21.110	0.220	-0.132
-156.706	-33.994	0.246	0.133
-155.691	-117.216	0.249	0.045
-154.677	80.086	0.163	0.172
-153.662	-116.662	-0.437	0.079
-152.647	510.229	0.076	-0.173
-151.633	165.216	-0.198	0.276
-150.618	-200.000	-0.069	-0.327
-149.604	36.619	0.032	0.028
-148.589	-29.657	0.215	0.121
-147.574	580.454	-0.119	0.287
-146.560	-152.765	-0.201	0.014
-145.545	192.827	0.144	0.214
-144.531	-200.000	0.001	-0.060
-143.516	52.034	-0.365	0.342
-142.502	-200.000	0.029	0.144
-141.487	602.285	-0.097	-0.236
-140.472	167.159	0.226	-0.315
-139.458	-200.000	-0.009	-0.167
-138.443	-81.534	-0.246	-0.080
-137.429	-2.768	0.402	-0.277
-136.414	-107.522	0.193	0.042
-135.399	-200.000	0.009	-0.212
-134.385	-49.650	0.246	0.115
-133.370	800.000	-0.026	-0.077
-132.356	800.000	-0.104	-0.381
-131.341	-109.748	-0.191	0.040
-130.326	131.475	0.087	-0.111
-129.312	-43.305	-0.035	-0.017
-128.297	-200.000	0.045	-0.284
-127.283	800.000	-0.070	-0.226
-126.268	498.491	0.079	-0.179
-125.253	337.809	0.090	0.172
-124.239	18.401	0.171	-0.135
-123.224	57.468	0.130	0.125
-122.210	800.000	0.059	0.187
-121.195	19.963	0.064	-0.051
-120.180	-61.473	-0.281	0.116
-119.166	107.663	-0.069	-0.081
-118.151	800.000	-0.020	0.075
-117.137	-64.037	-0.524	0.210
-116.122	800.000	0.066	0.261
-115.107	409.957	-0.126	-0.262
-114.093	-67.627	-0.285	0.110
-113.078	106.603	-0.159	0.185
-112.064	125.159	-0.230	0.285
-111.049	4.309	0.131	-0.094
-110.034	-163.200	-0.362	-0.017
-109.020	176.576	0.167	0.239
-108.005	324.308	-0.121	0.228
-106.991	-51.970	0.014	-0.007
-105.976	-87.230	0.211	0.063
-104.962	-90.232	0.142	0.040
-103.947	-97.540	0.287	0.073
-102.932	474.563	-0.027	0.059
-101.918	13.933	-0.251	-0.192
-100.903	-200.000	0.017	0.169
-99.889	258.374	0.102	0.172
-98.874	154.071	0.025	0.034
-97.859	-200.000	0.002	-0.392
-96.845	800.000	-0.053	-0.201
-95.830	125.024	-0.134	-0.166
-94.816	-200.000	-0.018	0.290
-93.801	93.876	-0.055	-0.062
-92.786	-72.076	0.202	0.074
-91.772	22.638	0.055	-0.045
-90.757	-104.991	-0.005	0.001
-89.743	388.952	-0.173	-0.351
-88.728	-181.591	-0.075	0.001
-87.713	800.000	0.089	-0.368
-86.699	92.990	-0.412	-0.457
-85.684	53.073	-0.249	-0.234
-84.670	304.127	0.185	-0.338
-83.655	102.296	-0.027	-0.030
-82.640	57.722	0.089	-0.085
-81.626	-28.149	-0.058	-0.033
-80.611	93.810	0.295	0.329
-79.597	8.602	-0.248	-0.183
-78.582	-110.015	-0.018	0.004
-77.567	-129.441	-0.223	0.030
-76.553	-68.257	0.338	0.129
-75.538	-38.317	-0.200	-0.104
-74.524	207.413	-0.132	-0.202
-73.509	50.422	-0.263	-0.244
-72.494	-200.000	-0.013	0.097
-71.480	6.208	0.145	-0.106
-70.465	800.000	0.055	0.151
-69.451	53.353	-0.210	0.198
-68.436	-200.000	-0.001	-0.081
-67.422	84.841	0.163	0.175
-66.407	-12.456	0.254	-0.163
-65.392	58.680	-0.192	0.185
-64.378	-155.747	-0.339	-0.021
-63.363	-200.000	-0.045	0.201
-62.349	800.000	0.076	-0.236
-61.334	139.483	-0.917	-1.185
-60.319	110.804	0.531	0.627
-59.305	800.000	-0.290	-0.983
-58.290	166.347	0.660	0.917
-57.276	396.117	0.725	1.484
-56.261	-200.000	98.057	607.827
-55.246	603.845	1419.811	3465.427
-54.232	188.273	2620.469	3842.152
-53.217	117.408	2162.167	2608.105
-52.203	43.208	1608.238	1439.956
-51.188	34.216	1343.787	1149.169
-50.173	31.022	1302.045	1094.710
-49.159	54.010	1351.700	1274.441
-48.144	55.354	1368.064	1297.847
-47.130	34.413	1325.460	1134.490
-46.115	30.856	1307.959	1098.531
-45.100	30.656	1303.095	1093.226
-44.086	30.593	1300.483	1090.620
-43.071	30.518	1298.499	1088.473
-42.057	30.494	1296.240	1086.396
-41.042	30.539	1294.789	1085.401
-40.027	30.656	1292.817	1084.387
-39.013	30.653	1290.712	1082.564
-37.998	30.553	1289.618	1081.017
-36.984	30.752	1287.426	1080.294
-35.969	30.709	1285.266	1078.188
-34.954	30.796	1283.748	1077.376
-33.940	30.725	1282.964	1076.268
-32.925	30.847	1281.328	1075.557
-31.911	30.741	1280.693	1074.367
-30.896	30.821	1278.962	1073.334
-29.881	30.829	1277.360	1071.996
-28.867	30.868	1276.211	1071.209
-27.852	30.789	1274.725	1069.467
-26.838	30.974	1272.419	1068.552
-25.823	30.816	1271.751	1067.042
-24.809	30.847	1270.330	1065.983
-23.794	30.780	1268.809	1064.282
-22.779	30.809	1267.353	1063.187
-21.765	30.883	1266.307	1062.686
-20.750	30.821	1264.821	1061.047
-19.736	30.708	1263.642	1059.369
-18.721	30.703	1262.712	1058.519
-17.706	30.627	1261.284	1056.848
-16.692	30.594	1260.759	1056.179
-15.677	30.674	1259.312	1055.379
-14.663	30.515	1258.075	1053.398
-13.648	30.622	1256.897	1052.979
-12.633	30.608	1255.938	1052.054
-11.619	30.673	1254.999	1051.594
-10.604	30.551	1254.369	1050.332
-9.590	30.580	1253.296	1049.560
-8.575	30.530	1252.474	1048.544
-7.560	30.593	1251.536	1048.073
-6.546	30.598	1250.267	1046.998
-5.531	30.537	1249.202	1045.722
-4.517	30.697	1248.453	1045.950
-3.502	30.671	1247.522	1044.987
-2.487	30.661	1247.092	1044.525
-1.473	30.530	1243.613	1040.836
-0.458	29.711	1229.124	1024.133
0.556	24.146	1212.428	989.605
1.571	21.047	1218.442	977.093
2.586	20.439	1232.721	985.010
3.600	19.922	1222.052	973.493
4.615	14.874	1150.533	889.643
5.629	5.457	1073.681	783.182
6.644	0.377	1052.872	742.950
7.659	-0.120	1050.179	738.542
8.673	-0.237	1048.414	736.659
9.688	-0.249	1046.958	735.514
10.702	0.435	1045.885	738.043
11.717	6.790	1055.288	775.912
12.731	15.818	1068.628	830.385
13.746	20.036	1073.261	854.771
14.761	20.914	1074.339	859.888
15.775	21.016	1073.628	859.745
16.790	20.599	1073.445	857.468
17.804	20.726	1072.323	857.121
18.819	20.762	1072.134	857.068
19.834	20.990	1071.379	857.512
20.848	20.918	1071.374	857.079
21.863	21.026	1070.339	856.703
22.877	20.737	1070.190	855.090
23.892	20.713	1069.334	854.212
24.907	20.852	1068.652	854.273
25.921	20.817	1067.154	852.828
26.936	20.858	1065.987	852.020
27.950	20.921	1064.264	850.877
28.965	20.587	1062.657	847.889
29.980	20.632	1061.124	846.808
30.994	20.861	1059.884	846.858
32.009	21.004	1058.435	846.322
33.023	20.631	1057.713	843.858
34.038	20.821	1056.931	844.081
35.053	20.917	1056.384	844.033
36.067	20.838	1055.994	843.267
37.082	21.033	1054.577	843.001
38.096	21.137	1054.415	843.301
39.111	21.213	1053.227	842.643
40.126	21.016	1051.825	840.499
41.140	20.668	1050.068	837.346
42.155	20.506	1048.495	835.234
43.169	20.487	1047.531	834.305
44.184	20.648	1046.335	834.051
45.199	20.628	1045.293	833.051
46.213	20.605	1044.782	832.458
47.228	20.706	1043.943	832.201
48.242	20.792	1042.800	831.625
49.257	20.775	1042.623	831.332
50.271	20.933	1041.474	831.093
51.286	20.994	1040.213	830.302
52.301	20.924	1039.709	829.496
53.315	20.866	1038.506	828.187
54.330	20.829	1037.883	827.438
55.344	20.860	1037.177	826.952
56.359	20.758	1036.095	825.534
57.374	20.774	1034.749	824.461
58.388	20.667	1034.539	823.717
59.403	20.602	1033.120	822.207
60.417	20.471	1032.494	821.016
61.432	20.563	1031.850	820.865
62.447	20.775	1030.828	820.981
63.461	20.714	1030.339	820.230
64.476	20.693	1029.371	819.288
65.490	20.596	1028.055	817.710
66.505	20.713	1027.448	817.707
67.520	20.553	1027.296	816.760
68.534	20.526	1025.782	815.359
69.549	20.142	1024.714	812.638
70.563	20.221	1024.188	812.520
71.578	20.267	1022.993	811.712
72.593	20.132	1022.095	810.300
73.607	20.211	1021.621	810.219
74.622	20.447	1021.342	811.030
75.636	20.357	1021.210	810.433
76.651	20.533	1019.521	809.842
77.666	20.301	1018.756	808.079
78.680	20.431	1018.236	808.204
79.695	20.394	1017.520	807.391
80.709	20.497	1016.724	807.164
81.724	20.528	1015.833	806.530
82.739	20.707	1015.058	806.672
83.753	20.890	1014.868	807.300
84.768	21.028	1014.236	807.366
85.782	21.140	1012.827	806.691
86.797	20.970	1012.138	805.284
87.812	20.950	1011.017	804.228
88.826	21.044	1010.063	803.831
89.841	21.233	1008.687	803.536
90.855	21.110	1008.222	802.530
91.870	21.001	1007.272	801.201
92.884	20.964	1006.071	800.002
93.899	21.018	1005.214	799.499
94.914	21.141	1004.617	799.519
95.928	21.022	1003.284	797.843
96.943	20.747	1002.417	795.825
97.957	20.549	1000.840	793.599
98.972	20.269	1000.146	791.699
99.987	20.693	999.272	792.868
101.001	20.838	998.323	792.707
102.016	20.838	997.579	792.048
103.030	20.862	996.334	791.096
104.045	20.686	995.844	789.837
105.060	20.573	994.423	788.130
106.074	20.740	993.975	788.462
107.089	20.979	993.714	789.266
108.103	20.812	993.002	787.876
109.118	20.658	991.169	785.656
110.133	20.608	990.532	784.857
111.147	20.553	988.906	783.249
112.162	20.456	987.950	781.986
113.176	20.441	987.741	781.688
114.191	20.391	986.582	780.474
115.206	20.228	985.169	778.557
116.220	20.214	984.424	777.836
117.235	20.194	983.882	777.248
118.249	20.308	982.821	776.853
119.264	20.228	981.961	775.745
120.279	20.293	981.189	775.361
121.293	20.403	980.664	775.366
122.308	20.481	979.086	774.398
123.322	20.314	978.153	772.849
124.337	20.264	976.817	771.500
125.352	19.688	974.798	767.284
126.366	19.595	974.359	766.456
127.381	20.311	974.322	769.533
128.395	20.727	973.925	770.997
129.410	20.873	972.739	770.635
130.424	20.735	972.041	769.404
131.439	20.811	970.756	768.654
132.454	20.831	969.871	767.976
133.468	20.782	968.555	766.647
134.483	20.919	967.915	766.675
135.497	21.121	967.868	767.458
136.512	21.056	966.532	766.045
137.527	21.126	965.506	765.472
138.541	21.195	964.858	765.196
139.556	21.000	963.984	763.579
140.570	21.162	963.585	763.905
141.585	21.232	961.875	762.786
142.600	20.985	961.327	761.207
143.614	21.368	960.767	762.367
144.629	21.313	959.974	761.431
145.643	21.212	958.690	759.906
146.658	20.973	957.387	757.767
147.673	20.837	956.528	756.427
148.687	20.825	955.465	755.468
149.702	20.893	954.246	754.732
150.716	20.831	953.532	753.834
151.731	21.020	952.651	753.887
152.746	21.163	952.260	754.130
153.760	21.210	951.780	753.885
154.775	21.170	951.218	753.201
155.789	21.170	950.080	752.232
156.804	21.180	948.923	751.292
157.819	21.226	948.414	751.020
158.833	21.351	947.866	751.060
159.848	21.244	946.766	749.662
160.862	21.127	945.097	747.773
161.877	21.180	944.375	747.361
162.892	21.238	943.598	746.929
163.906	21.127	942.792	745.751
164.921	21.314	941.292	745.294
165.935	21.294	940.731	744.700
166.950	21.349	939.772	744.112
167.964	21.291	938.834	743.052
168.979	21.073	937.715	741.176
169.994	20.984	936.969	740.146
171.008	21.233	936.588	740.834
172.023	21.211	935.727	739.993
173.037	21.012	934.422	738.054
174.052	20.900	933.533	736.814
175.067	20.942	932.989	736.497
176.081	21.176	932.421	736.971
177.096	21.047	932.047	736.065
178.110	20.766	930.364	733.487
179.125	20.615	930.061	732.546
180.140	20.674	929.409	732.218
181.154	20.845	929.340	732.817
182.169	21.131	929.523	734.102
183.183	21.203	929.055	733.970
184.198	21.145	927.805	732.674
185.213	21.185	927.235	732.326
186.227	21.154	926.499	731.550
187.242	21.118	925.815	730.794
188.256	21.184	925.024	730.381
189.271	21.343	924.311	730.417
190.286	20.920	923.132	727.654
191.300	20.399	921.777	724.350
192.315	19.859	919.880	720.547
193.329	19.810	919.841	720.250
194.344	20.588	920.229	723.731
195.359	21.007	919.931	725.175
196.373	21.138	919.609	725.399
197.388	20.998	918.563	723.932
198.402	21.078	917.783	723.581
199.417	20.975	917.374	722.770
200.432	20.729	916.669	721.131
201.446	20.578	915.884	719.824
202.461	20.622	915.085	719.317
203.475	19.785	913.198	714.314
204.490	19.190	911.782	710.687
205.504	20.180	912.323	715.129
206.519	20.690	912.103	716.997
207.534	20.813	911.667	717.098
208.548	21.276	911.849	719.085
209.563	20.832	910.988	716.514
210.577	20.872	909.614	715.537
211.592	21.335	909.455	717.246
212.607	21.289	908.747	716.438
213.621	21.335	907.969	715.949
214.636	21.346	907.606	715.643
215.650	21.251	906.753	714.519
216.665	21.368	906.243	714.534
217.680	21.361	904.837	713.332
218.694	20.866	903.865	710.485
219.709	20.639	903.684	709.356
220.723	21.058	902.839	710.334
221.738	21.116	902.157	709.973
222.753	20.953	901.756	708.928
223.767	21.164	901.387	709.434
224.782	21.431	901.320	710.404
225.796	21.332	900.461	709.263
226.811	20.705	898.813	705.360
227.826	20.070	897.656	701.819
228.840	20.295	897.312	702.399
229.855	20.441	896.197	702.054
230.869	19.944	895.857	699.718
231.884	20.428	896.160	701.847
232.899	21.223	895.656	704.601
233.913	21.069	894.807	703.249
234.928	21.127	893.786	702.620
235.942	20.964	893.655	701.796
236.957	20.754	892.448	699.943
237.972	20.649	892.535	699.528
238.986	20.759	891.613	699.184
240.001	20.790	891.153	698.885
241.015	20.954	890.546	699.007
242.030	21.002	890.110	698.794
243.045	21.212	889.187	698.848
244.059	21.274	889.143	699.001
245.074	21.080	887.941	697.216
246.088	20.836	886.801	695.288
247.103	21.047	886.873	696.126
248.117	21.581	886.635	698.004
249.132	21.672	886.338	698.072
250.147	21.702	886.018	697.877
251.161	22.055	885.292	698.650
252.176	22.000	884.496	697.739
253.190	22.074	883.948	697.539
254.205	22.168	883.599	697.575
255.220	22.084	882.947	696.667
256.234	21.863	882.151	695.103
257.249	21.819	881.197	694.113
258.263	21.878	880.739	693.924
259.278	21.919	880.256	693.647
260.293	21.958	879.514	693.155
261.307	21.832	879.016	692.201
262.322	21.699	878.043	690.849
263.336	20.904	875.788	685.886
264.351	19.853	874.272	680.508
265.366	20.108	873.793	681.079
266.380	21.277	874.400	686.086
267.395	21.698	874.254	687.562
268.409	21.469	873.267	685.825
269.424	21.637	872.913	686.144
270.439	21.765	872.539	686.293
271.453	21.872	871.900	686.150
272.468	22.015	871.055	685.983
273.482	22.092	870.566	685.836
274.497	21.556	869.772	683.057
275.512	21.205	868.848	680.905
276.526	21.717	868.996	682.957
277.541	21.881	868.493	683.139
278.555	21.464	867.927	681.011
279.570	21.421	866.680	679.805
280.585	21.748	866.293	680.710
281.599	21.634	865.310	679.435
282.614	21.072	863.986	676.160
283.628	21.119	863.543	675.935
284.643	21.471	863.328	677.068
285.657	21.052	862.134	674.451
286.672	20.824	861.102	672.706
287.687	21.350	861.015	674.609
288.701	21.275	860.822	674.107
289.716	21.044	859.642	672.233
290.730	21.044	859.327	671.929
291.745	20.749	858.434	670.034
292.760	21.150	858.048	671.217
293.774	22.021	858.703	675.022
294.789	22.364	858.613	676.207
295.803	22.258	857.959	675.224
296.818	22.395	857.011	674.946
297.833	21.976	855.936	672.435
298.847	21.920	855.376	671.722
299.862	22.085	855.278	672.217
300.876	22.347	854.490	672.537
301.891	22.241	853.857	671.574
302.906	21.783	853.010	669.104
303.920	21.967	852.729	669.523
304.935	22.273	852.451	670.414
305.949	22.132	852.016	669.476
306.964	21.985	851.370	668.350
307.979	22.057	850.808	668.121
308.993	22.535	850.215	669.416
310.008	22.404	849.821	668.548
311.022	22.186	848.929	666.959
312.037	22.138	848.003	665.989
313.052	21.738	847.361	663.912
314.066	20.893	846.207	659.753
315.081	20.658	845.476	658.234
316.095	21.618	845.339	661.698
317.110	21.851	845.492	662.641
318.125	21.078	843.835	658.369
319.139	20.092	842.454	653.517
320.154	20.242	841.952	653.632
321.168	21.122	842.296	657.157
322.183	21.704	842.343	659.326
323.197	21.829	842.418	659.799
324.212	22.051	841.871	660.147
325.227	22.050	841.330	659.658
326.241	21.996	840.464	658.718
327.256	21.854	840.123	657.861
328.270	21.792	839.209	656.856
329.285	21.681	838.380	655.734
330.300	21.428	837.519	654.055
331.314	21.628	837.362	654.622
332.329	22.175	836.906	656.251
333.343	22.336	836.322	656.337
334.358	22.173	836.410	655.740
335.373	22.246	836.029	655.655
336.387	22.475	835.792	656.263
337.402	22.597	835.700	656.588
338.416	22.487	835.376	655.866
339.431	22.508	835.059	655.637
340.446	22.696	834.788	656.063
341.460	22.729	834.105	655.593
342.475	22.433	833.345	653.840
343.489	22.504	833.040	653.807
344.504	22.787	833.119	654.860
345.519	22.985	832.579	655.113
346.533	23.045	832.137	654.926
347.548	23.052	831.342	654.270
348.562	22.961	830.955	653.571
349.577	22.865	830.404	652.724
350.592	22.822	829.963	652.163
351.606	23.001	828.402	651.537
352.621	22.875	828.103	650.780
353.635	22.714	827.454	649.618
354.650	22.108	825.589	645.871
355.665	21.164	824.423	641.433
356.679	21.574	824.026	642.576
357.694	21.892	824.223	643.838
358.708	21.877	823.500	643.160
359.723	22.328	823.115	644.455
360.738	22.655	822.636	645.223
361.752	22.705	822.467	645.214
362.767	22.979	822.178	645.931
363.781	23.258	821.656	646.482
364.796	23.379	821.122	646.448
365.810	23.253	821.001	645.836
366.825	23.187	820.748	645.338
367.840	22.872	819.863	643.438
368.854	22.474	819.162	641.381
369.869	22.798	818.336	641.855
370.883	22.740	817.865	641.219
371.898	22.578	817.548	640.325
372.913	22.547	817.524	640.138
373.927	22.801	816.824	640.457
374.942	22.938	816.320	640.499
375.956	23.030	815.963	640.497
376.971	23.192	815.616	640.756
377.986	23.265	814.964	640.450
379.000	23.228	814.820	640.146
380.015	23.125	814.172	639.207
381.029	23.036	813.553	638.345
382.044	23.278	812.962	638.695
383.059	23.258	812.523	638.222
384.073	23.289	812.214	638.035
385.088	23.244	811.314	637.109
386.102	23.044	810.612	635.783
387.117	23.194	809.749	635.590
388.132	22.679	808.869	632.994
389.146	22.427	807.616	631.054
390.161	22.725	807.627	632.074
391.175	22.977	807.791	633.049
392.190	22.728	806.528	631.114
393.205	21.323	804.601	624.533
394.219	19.907	802.792	618.020
395.234	19.989	802.598	618.110
396.248	21.581	803.916	624.756
397.263	22.918	804.648	630.042
398.278	22.848	804.744	629.812
399.292	22.546	804.063	628.148
400.307	22.647	803.381	627.916
401.321	22.792	802.930	628.026
402.336	23.208	802.540	629.144
403.350	23.375	802.986	630.032
404.365	23.750	802.443	630.880
405.380	23.987	802.081	631.384
406.394	23.945	801.815	630.970
407.409	23.847	801.245	630.117
408.423	23.811	800.861	629.633
409.438	24.007	800.804	630.226
410.453	24.086	799.810	629.665
411.467	23.870	799.453	628.565
412.482	23.901	799.155	628.385
413.496	24.038	798.951	628.652
414.511	24.039	798.598	628.324
415.526	23.910	798.024	627.360
416.540	23.860	797.120	626.420
417.555	23.466	796.480	624.473
418.569	23.564	796.151	624.506
419.584	23.610	795.555	624.145
420.599	23.414	794.775	622.789
421.613	155.969	1366.494	1795.296
422.628	135.123	1449.811	1795.388
