DTS Sentinel unit serial number:	SN413079Multiplexer serial number:	ORYXHardware model number:	OX4-SRSoftware version number:	ORYX F/W v4.00 Oryx Data Collector v3.7.2.0data status	okinstallation	princeton_trtdifferential loss correction	single-endedforward channel	channel 1reverse channel	N/Adate	2019/09/19time	01:34:35forward acquisition time	60.00reverse acquisition time	0.00gamma	496.2192k internal	0.2345k external	0.2345temperature offset calibration	1.0018default loss term (dB/km)	0.3790temperature slope calibration	1.0000multiplexer offset coefficient	1.0000multiplexer slope coefficient	1.0000fibre end	0.00T internal ref (°C)	21.53T ext. ref 1 (°C)	0.70T ext. ref 2 (°C)	14.94length (m)	temperature (°C)	Stokes	anti-Stokes-747.200	800.000	0.032	0.116
-746.185	197.754	-0.267	0.408
-745.171	3.439	0.184	0.134
-744.156	50.965	-0.154	0.146
-743.142	-58.274	-0.333	0.145
-742.127	-87.164	-0.131	0.040
-741.112	74.770	-0.044	0.046
-740.098	-200.000	0.005	0.081
-739.083	800.000	0.035	-0.100
-738.069	-200.000	0.033	0.206
-737.054	-200.000	-0.055	0.369
-736.039	-83.426	-0.228	-0.073
-735.025	72.729	0.234	0.244
-734.010	-200.000	-0.014	0.102
-732.996	-99.890	-0.399	-0.100
-731.981	294.419	-0.163	-0.298
-730.966	14.704	0.130	-0.101
-729.952	-200.000	0.007	0.238
-728.937	-56.299	-0.213	-0.095
-727.923	365.566	0.052	0.104
-726.908	-113.846	-0.245	-0.048
-725.894	-16.781	-0.161	-0.102
-724.879	-102.389	0.316	0.076
-723.864	-51.603	-0.282	-0.132
-722.850	262.387	-0.154	0.266
-721.835	318.361	-0.124	-0.234
-720.821	52.638	-0.120	0.114
-719.806	-73.387	-0.156	0.057
-718.791	-166.155	0.188	-0.008
-717.777	111.114	-0.022	0.027
-716.762	-153.616	0.184	0.013
-715.748	-200.000	-0.062	-0.341
-714.733	-123.128	-0.237	0.038
-713.718	-24.899	0.166	-0.099
-712.704	-171.080	0.156	-0.005
-711.689	159.147	0.033	-0.045
-710.675	-114.312	0.219	0.042
-709.660	800.000	0.012	0.052
-708.645	-200.000	-0.078	-0.455
-707.631	-200.000	0.003	0.252
-706.616	614.264	-0.099	-0.247
-705.602	99.232	0.072	0.083
-704.587	102.830	-0.130	-0.152
-703.572	316.851	0.111	0.209
-702.558	32.186	0.265	-0.228
-701.543	576.602	-0.077	-0.188
-700.529	-200.000	0.012	0.121
-699.514	-50.414	0.145	0.068
-698.499	183.082	-0.110	0.162
-697.485	800.000	-0.027	0.109
-696.470	-109.701	0.368	0.077
-695.456	-200.000	0.053	0.282
-694.441	-200.000	0.007	-0.355
-693.426	137.030	-0.173	-0.226
-692.412	6.954	-0.134	0.100
-691.397	153.279	0.116	0.159
-690.383	800.000	-0.128	-0.445
-689.368	-200.000	-0.001	0.196
-688.354	355.778	-0.153	0.303
-687.339	487.956	-0.042	0.095
-686.324	2.649	0.299	-0.216
-685.310	-20.906	-0.084	-0.051
-684.295	-200.000	-0.005	-0.119
-683.281	-44.996	0.156	0.077
-682.266	-89.710	-0.244	-0.071
-681.251	70.532	-0.153	-0.158
-680.237	-93.656	-0.134	-0.037
-679.222	250.129	0.022	-0.037
-678.208	314.425	0.234	-0.439
-677.193	-47.139	-0.259	-0.126
-676.178	19.902	0.105	-0.085
-675.164	17.701	0.186	-0.148
-674.149	-84.425	0.299	-0.094
-673.135	340.369	-0.155	-0.302
-672.120	-104.587	0.106	0.024
-671.105	89.239	-0.087	0.097
-670.091	-112.262	0.281	-0.056
-669.076	291.055	-0.149	0.270
-668.062	214.978	-0.121	-0.191
-667.047	-200.000	0.043	-0.315
-666.032	250.717	-0.038	-0.065
-665.018	-113.441	0.252	-0.049
-664.003	-2.211	-0.290	-0.203
-662.989	800.000	0.058	-0.212
-661.974	-197.489	0.083	0.001
-660.959	-200.000	-0.008	0.034
-659.945	800.000	-0.096	0.321
-658.930	-119.621	0.081	0.014
-657.916	-84.700	0.076	0.024
-656.901	-9.485	-0.128	-0.085
-655.886	-113.558	-0.015	0.003
-654.872	-200.000	0.054	0.299
-653.857	41.732	-0.156	-0.141
-652.843	-109.331	-0.166	0.035
-651.828	150.241	0.146	0.198
-650.814	140.162	-0.208	-0.274
-649.799	33.527	0.088	-0.077
-648.784	-138.368	-0.280	-0.031
-647.770	-96.603	0.096	-0.025
-646.755	-3.148	-0.140	-0.097
-645.741	5.606	0.141	-0.104
-644.726	-22.476	0.059	-0.036
-643.711	-70.232	0.239	0.090
-642.697	-200.000	-0.058	0.376
-641.682	7.355	-0.155	-0.115
-640.668	-109.440	0.314	0.066
-639.653	800.000	0.045	-0.128
-638.638	-200.000	0.064	-0.286
-637.624	364.401	-0.158	0.317
-636.609	-200.000	0.028	0.388
-635.595	564.807	0.099	0.240
-634.580	55.753	-0.150	-0.145
-633.565	-67.702	0.395	0.154
-632.551	60.252	0.146	-0.144
-631.536	-200.000	-0.100	-0.484
-630.522	-200.000	0.008	0.038
-629.507	-97.861	-0.129	-0.033
-628.492	-140.688	0.165	-0.017
-627.478	-61.309	0.290	-0.122
-626.463	-25.379	0.264	0.156
-625.449	-64.395	0.133	0.054
-624.434	116.670	0.140	-0.171
-623.419	201.782	-0.108	-0.166
-622.405	-15.453	0.087	-0.055
-621.390	-200.000	-0.006	0.178
-620.376	-5.564	0.250	0.171
-619.361	-81.069	-0.167	-0.055
-618.346	-200.000	0.021	-0.240
-617.332	-29.323	-0.312	-0.178
-616.317	800.000	-0.076	-0.250
-615.303	-73.096	0.217	-0.079
-614.288	64.027	0.070	-0.070
-613.273	99.910	-0.175	-0.202
-612.259	131.988	0.097	-0.125
-611.244	22.073	-0.127	-0.103
-610.230	-107.389	-0.483	-0.106
-609.215	-48.493	0.177	-0.085
-608.201	10.561	-0.208	-0.158
-607.186	-50.247	0.295	0.139
-606.171	90.623	-0.188	0.210
-605.157	-106.865	0.104	0.023
-604.142	450.245	0.153	-0.336
-603.128	34.031	-0.237	0.205
-602.113	-69.627	-0.156	-0.060
-601.098	24.687	-0.126	0.104
-600.084	-95.860	0.153	-0.041
-599.069	63.154	-0.383	0.382
-598.055	-49.422	0.148	-0.070
-597.040	70.343	-0.126	-0.130
-596.025	-200.000	-0.052	-0.414
-595.011	627.040	-0.104	0.262
-593.996	248.365	0.043	0.072
-592.982	-4.726	-0.137	-0.094
-591.967	-200.000	-0.035	0.362
-590.952	-117.586	0.380	0.068
-589.938	-76.964	-0.522	-0.181
-588.923	329.462	0.156	0.299
-587.909	725.559	0.122	0.323
-586.894	83.398	0.041	-0.045
-585.879	591.063	0.143	-0.351
-584.865	-130.647	-0.120	0.016
-583.850	-138.333	-0.141	-0.015
-582.836	-200.000	-0.017	-0.146
-581.821	-168.703	-0.348	-0.013
-580.806	594.710	-0.036	0.088
-579.792	800.000	0.023	0.083
-578.777	-162.038	-0.250	0.013
-577.763	87.248	0.094	0.103
-576.748	-71.668	0.213	-0.079
-575.733	221.677	-0.110	0.176
-574.719	14.240	-0.278	0.215
-573.704	-200.000	0.043	0.276
-572.690	93.073	0.087	0.098
-571.675	65.402	-0.119	0.120
-570.661	39.023	-0.242	-0.215
-569.646	800.000	0.099	-0.341
-568.631	742.219	-0.104	-0.279
-567.617	800.000	0.145	0.432
-566.602	800.000	0.025	-0.075
-565.588	10.376	0.209	-0.158
-564.573	137.136	0.078	-0.101
-563.558	6.193	0.162	0.119
-562.544	450.094	0.076	0.166
-561.529	-47.849	0.187	0.090
-560.515	774.553	0.142	0.386
-559.500	-126.536	-0.119	-0.018
-558.485	22.427	0.328	-0.266
-557.471	-153.261	-0.275	-0.019
-556.456	346.517	0.029	0.057
-555.442	-200.000	0.018	0.180
-554.427	347.739	-0.055	-0.107
-553.412	-200.000	0.084	-0.579
-552.398	800.000	-0.171	-0.648
-551.383	-97.694	0.270	-0.069
-550.369	9.854	0.089	-0.067
-549.354	-63.162	0.448	0.183
-548.339	-29.938	-0.224	-0.126
-547.325	800.000	0.047	-0.142
-546.310	242.912	0.065	-0.108
-545.296	-115.700	-0.375	-0.070
-544.281	-68.533	0.317	-0.122
-543.266	14.470	0.202	0.157
-542.252	800.000	-0.020	0.078
-541.237	203.886	0.046	0.071
-540.223	-200.000	-0.029	-0.279
-539.208	-166.528	-0.285	0.012
-538.193	-106.545	-0.193	-0.043
-537.179	-137.156	-0.150	0.017
-536.164	-26.352	0.179	-0.104
-535.150	-83.039	-0.128	0.041
-534.135	603.753	-0.134	0.331
-533.121	-159.036	-0.305	-0.017
-532.106	66.183	0.086	-0.087
-531.091	-55.367	-0.130	-0.058
-530.077	-200.000	-0.056	-0.359
-529.062	-200.000	0.014	-0.126
-528.048	174.577	-0.178	-0.256
-527.033	-37.859	0.042	0.022
-526.018	53.406	-0.253	0.241
-525.004	-20.951	-0.373	-0.227
-523.989	-75.287	-0.222	0.079
-522.975	800.000	0.081	-0.340
-521.960	-48.513	0.151	0.072
-520.945	172.808	0.019	0.027
-519.931	649.578	0.054	-0.137
-518.916	-7.254	0.092	0.062
-517.902	-190.433	-0.255	-0.003
-516.887	60.205	-0.104	0.102
-515.872	-66.960	0.163	0.064
-514.858	82.035	0.152	-0.164
-513.843	-54.621	-0.206	0.092
-512.829	800.000	-0.049	0.211
-511.814	34.753	-0.161	0.140
-510.799	143.603	0.188	-0.249
-509.785	-59.291	-0.192	-0.082
-508.770	30.237	-0.129	0.109
-507.756	81.112	-0.158	0.169
-506.741	404.967	0.158	0.330
-505.726	-135.215	0.224	0.027
-504.712	-200.000	-0.008	-0.303
-503.697	230.318	-0.050	-0.081
-502.683	-144.115	0.356	0.033
-501.668	800.000	-0.031	-0.117
-500.653	-200.000	0.015	-0.310
-499.639	-62.862	0.294	-0.121
-498.624	20.004	0.120	0.096
-497.610	-59.966	0.194	-0.082
-496.595	-0.179	-0.339	0.239
-495.581	-140.552	0.340	-0.035
-494.566	-200.000	-0.017	0.099
-493.551	733.607	-0.099	0.262
-492.537	-200.000	-0.036	-0.398
-491.522	800.000	0.099	0.343
-490.508	-160.801	-0.301	-0.016
-489.493	-21.838	-0.110	-0.066
-488.478	228.943	0.178	0.287
-487.464	277.575	0.052	0.092
-486.449	-200.000	0.028	0.213
-485.435	-49.981	-0.198	0.093
-484.420	-69.275	-0.395	-0.150
-483.405	-68.543	-0.114	-0.044
-482.391	-200.000	0.067	-0.358
-481.376	63.715	-0.258	0.256
-480.362	83.911	0.286	0.309
-479.347	118.190	0.290	0.355
-478.332	-155.612	0.150	-0.010
-477.318	145.123	-0.253	-0.335
-476.303	-68.988	-0.022	-0.009
-475.289	-200.000	-0.009	-0.064
-474.274	6.150	-0.263	-0.193
-473.259	-29.021	0.343	0.195
-472.245	20.947	0.100	-0.080
-471.230	95.515	-0.051	0.058
-470.216	-115.860	-0.173	-0.032
-469.201	55.308	0.278	0.266
-468.186	111.103	0.136	-0.163
-467.172	462.154	-0.131	0.289
-466.157	131.026	-0.255	-0.324
-465.143	800.000	-0.086	-0.240
-464.128	-63.712	-0.228	-0.092
-463.113	-200.000	-0.020	-0.148
-462.099	-75.002	0.280	0.099
-461.084	-101.224	-0.290	-0.070
-460.070	-200.000	0.026	0.346
-459.055	94.255	-0.054	-0.061
-458.040	513.591	-0.029	-0.068
-457.026	-101.353	-0.079	-0.019
-456.011	800.000	0.020	-0.072
-454.997	546.796	0.064	-0.150
-453.982	117.840	0.113	0.137
-452.968	-72.227	-0.345	-0.127
-451.953	-123.314	-0.143	0.023
-450.938	673.731	0.012	-0.031
-449.924	-100.723	-0.087	0.021
-448.909	-200.000	-0.058	0.318
-447.895	27.297	0.008	-0.007
-446.880	143.717	-0.101	0.133
-445.865	800.000	0.013	0.043
-444.851	-200.000	0.045	0.408
-443.836	-36.732	0.264	-0.140
-442.822	127.563	0.125	-0.158
-441.807	800.000	0.157	0.437
-440.792	-34.024	0.269	-0.146
-439.778	107.960	-0.206	0.243
-438.763	-8.920	-0.273	-0.181
-437.749	733.709	0.083	0.219
-436.734	-200.000	-0.057	-0.323
-435.719	226.946	0.160	-0.257
-434.705	84.531	0.082	-0.089
-433.690	-44.427	-0.248	-0.123
-432.676	800.000	-0.024	-0.069
-431.661	-200.000	-0.065	0.000
-430.646	457.921	-0.132	0.290
-429.632	-86.759	-0.412	-0.125
-428.617	-106.250	0.097	0.021
-427.603	206.185	-0.260	0.400
-426.588	-83.758	0.163	-0.051
-425.573	-180.684	0.093	0.002
-424.559	-200.000	0.016	0.230
-423.544	800.000	-0.059	0.215
-422.530	-48.179	0.281	0.134
-421.515	-200.000	0.009	-0.154
-420.500	376.145	-0.215	0.433
-419.486	265.226	-0.164	-0.283
-418.471	-84.607	0.166	-0.052
-417.457	-97.293	0.136	-0.035
-416.442	663.508	-0.073	-0.186
-415.428	-39.628	-0.158	0.082
-414.413	-116.650	-0.272	-0.049
-413.398	-22.144	-0.111	0.066
-412.384	800.000	-0.115	0.344
-411.369	-135.839	-0.104	0.012
-410.355	-69.930	0.183	-0.069
-409.340	511.819	-0.086	0.197
-408.325	-12.035	0.301	0.195
-407.311	-56.974	0.133	0.058
-406.296	-52.549	0.255	-0.116
-405.282	88.585	0.085	0.093
-404.267	-82.959	0.065	-0.021
-403.252	-46.902	0.079	0.038
-402.238	9.012	-0.109	-0.081
-401.223	-164.040	0.242	0.011
-400.209	-18.544	-0.166	-0.102
-399.194	-113.974	0.131	0.025
-398.179	197.383	0.105	-0.158
-397.165	13.641	0.188	-0.144
-396.150	-160.649	-0.457	-0.024
-395.136	-92.812	0.192	0.053
-394.121	14.881	0.068	-0.052
-393.106	800.000	-0.078	0.222
-392.092	-90.137	-0.235	0.067
-391.077	-79.059	-0.114	0.038
-390.063	65.492	0.088	-0.088
-389.048	-200.000	-0.063	-0.420
-388.033	-200.000	-0.010	-0.107
-387.019	158.105	0.070	0.095
-386.004	-200.000	-0.027	-0.146
-384.990	149.411	-0.059	0.079
-383.975	457.076	0.096	-0.210
-382.960	44.363	-0.032	0.029
-381.946	16.847	0.064	-0.050
-380.931	52.199	0.175	0.164
-379.917	-43.694	0.140	0.069
-378.902	219.742	-0.112	0.177
-377.888	-200.000	-0.002	-0.089
-376.873	156.970	0.077	-0.106
-375.858	-54.052	-0.325	-0.146
-374.844	334.562	0.099	0.188
-373.829	-87.536	0.111	-0.033
-372.815	379.142	-0.048	0.097
-371.800	-150.369	0.114	-0.009
-370.785	-166.805	0.298	0.012
-369.771	225.294	-0.122	0.195
-368.756	-144.380	-0.270	0.025
-367.742	-197.278	0.656	-0.004
-366.727	800.000	-0.099	0.345
-365.712	-93.633	0.251	0.068
-364.698	384.851	0.024	0.048
-363.683	-200.000	-0.006	0.043
-362.669	45.683	0.100	0.091
-361.654	49.028	0.090	0.083
-360.639	800.000	0.047	0.151
-359.625	-200.000	-0.032	-0.163
-358.610	-123.918	0.139	-0.022
-357.596	-200.000	-0.012	-0.104
-356.581	-61.360	-0.208	-0.086
-355.566	-200.000	-0.013	-0.139
-354.552	-66.759	-0.252	-0.098
-353.537	-109.740	-0.247	-0.051
-352.523	-43.059	-0.272	-0.136
-351.508	-200.000	0.013	0.059
-350.493	-66.089	0.144	-0.056
-349.479	142.799	-0.176	-0.230
-348.464	305.961	0.038	-0.070
-347.450	-194.842	-0.145	0.001
-346.435	603.318	0.017	-0.041
-345.420	275.783	0.064	-0.111
-344.406	-200.000	0.042	-0.232
-343.391	800.000	0.045	-0.192
-342.377	121.527	0.239	0.294
-341.362	149.664	-0.070	-0.094
-340.348	800.000	-0.103	0.289
-339.333	-166.029	-0.104	-0.004
-338.318	-200.000	0.003	0.109
-337.304	518.346	-0.190	-0.438
-336.289	-43.520	-0.152	0.076
-335.275	-75.613	0.070	-0.024
-334.260	151.790	-0.069	-0.093
-333.245	-200.000	-0.007	-0.048
-332.231	-89.044	0.133	-0.039
-331.216	-164.211	-0.198	0.009
-330.202	685.271	-0.086	-0.221
-329.187	-131.546	-0.188	-0.024
-328.172	-177.007	0.106	0.003
-327.158	800.000	-0.016	-0.057
-326.143	27.340	0.200	-0.165
-325.129	-94.128	0.262	0.071
-324.114	-200.000	-0.035	0.163
-323.099	800.000	-0.040	-0.160
-322.085	-38.132	-0.123	-0.064
-321.070	-70.554	-0.104	-0.039
-320.056	-200.000	-0.014	-0.096
-319.041	-0.368	-0.109	0.076
-318.026	-200.000	0.031	0.138
-317.012	210.564	0.163	-0.252
-315.997	-200.000	-0.021	-0.219
-314.983	-46.446	0.268	-0.129
-313.968	646.634	0.213	0.535
-312.953	-9.038	0.123	0.081
-311.939	361.323	0.036	0.072
-310.924	800.000	-0.093	0.384
-309.910	-149.811	0.314	-0.024
-308.895	614.489	0.048	-0.119
-307.880	-82.124	0.273	-0.087
-306.866	94.872	-0.035	0.039
-305.851	-15.736	-0.159	-0.100
-304.837	-175.700	0.440	0.012
-303.822	-166.116	0.105	0.004
-302.807	-200.000	-0.021	-0.302
-301.793	28.954	0.141	0.118
-300.778	800.000	-0.028	-0.121
-299.764	-200.000	0.102	-0.473
-298.749	149.090	0.101	-0.135
-297.735	-90.148	-0.267	0.076
-296.720	-27.505	0.403	0.230
-295.705	112.337	0.093	0.111
-294.691	36.188	-0.276	0.239
-293.676	361.663	0.032	-0.063
-292.662	800.000	0.038	0.124
-291.647	-53.495	0.249	0.112
-290.632	132.498	0.065	0.082
-289.618	446.036	-0.065	0.141
-288.603	800.000	-0.085	-0.318
-287.589	22.881	0.128	0.103
-286.574	800.000	0.098	0.384
-285.559	-90.076	-0.225	-0.064
-284.545	800.000	-0.052	-0.201
-283.530	554.453	0.075	0.177
-282.516	152.183	-0.083	0.111
-281.501	-144.677	-0.332	-0.030
-280.486	-105.193	0.113	-0.025
-279.472	-57.566	-0.277	0.119
-278.457	-13.184	-0.101	-0.064
-277.443	-127.275	0.181	0.026
-276.428	321.455	-0.067	0.124
-275.413	346.994	0.065	-0.127
-274.399	20.735	-0.020	-0.016
-273.384	-27.928	-0.021	-0.012
-272.370	-119.127	-0.005	0.001
-271.355	547.293	-0.033	-0.078
-270.340	53.076	0.106	-0.100
-269.326	390.842	0.144	0.294
-268.311	-147.416	0.058	0.005
-267.297	-101.205	0.034	0.008
-266.282	112.607	-0.119	0.142
-265.267	92.504	0.185	0.205
-264.253	800.000	0.079	0.233
-263.238	800.000	0.021	0.084
-262.224	150.109	0.094	-0.125
-261.209	263.150	0.212	-0.362
-260.195	-116.496	-0.166	0.030
-259.180	431.188	0.126	0.267
-258.165	79.841	0.125	0.132
-257.151	92.438	0.043	0.047
-256.136	-200.000	0.047	-0.217
-255.122	-109.323	-0.189	0.039
-254.107	-167.558	0.373	0.015
-253.092	79.427	-0.172	-0.181
-252.078	50.455	-0.130	-0.121
-251.063	800.000	-0.035	-0.135
-250.049	-122.418	-0.049	-0.008
-249.034	88.217	-0.193	-0.211
-248.019	-189.287	-0.262	0.003
-247.005	-29.235	-0.366	0.206
-245.990	-4.665	-0.309	0.209
-244.976	729.626	0.092	-0.242
-243.961	800.000	-0.081	0.328
-242.946	-200.000	0.009	-0.100
-241.932	660.720	0.091	-0.229
-240.917	-134.274	0.100	0.012
-239.903	36.560	-0.220	0.190
-238.888	-200.000	0.005	-0.094
-237.873	-61.158	0.201	0.083
-236.859	143.542	0.050	-0.065
-235.844	-125.227	-0.303	0.045
-234.830	-200.000	0.012	0.212
-233.815	-64.515	0.204	0.081
-232.800	-200.000	-0.001	-0.115
-231.786	764.937	-0.064	-0.170
-230.771	-113.454	-0.167	0.032
-229.757	-137.764	-0.099	-0.011
-228.742	-5.339	0.159	0.107
-227.727	141.431	-0.030	0.039
-226.713	62.781	-0.089	0.088
-225.698	-25.373	-0.083	-0.048
-224.684	-82.453	-0.226	0.072
-223.669	10.243	0.573	0.427
-222.655	645.420	0.023	-0.057
-221.640	-62.773	-0.477	0.194
-220.625	-200.000	0.003	0.067
-219.611	800.000	0.040	-0.146
-218.596	41.768	-0.165	-0.146
-217.582	-200.000	-0.053	0.271
-216.567	800.000	0.035	0.113
-215.552	-24.288	0.150	0.088
-214.538	155.660	0.244	0.330
-213.523	544.961	0.131	-0.307
-212.509	289.451	-0.073	0.130
-211.494	655.342	-0.048	-0.122
-210.479	-81.082	-0.077	-0.025
-209.465	-61.113	0.169	0.070
-208.450	137.439	0.067	-0.085
-207.436	118.895	-0.058	0.070
-206.421	-5.843	-0.166	0.111
-205.406	412.729	-0.031	0.064
-204.392	383.748	0.167	-0.338
-203.377	-62.891	0.094	0.038
-202.363	-141.621	0.182	0.018
-201.348	35.761	-0.090	-0.077
-200.333	26.023	0.131	-0.107
-199.319	-59.012	-0.194	0.082
-198.304	390.907	0.067	-0.137
-197.290	-5.424	0.128	0.086
-196.275	-129.814	0.111	0.015
-195.260	251.878	0.112	0.187
-194.246	-174.151	0.227	0.006
-193.231	241.018	-0.065	-0.105
-192.217	-200.000	0.040	-0.311
-191.202	213.639	0.152	-0.235
-190.187	234.997	-0.069	0.112
-189.173	-139.916	-0.275	0.028
-188.158	74.260	0.339	-0.349
-187.144	112.290	0.063	0.075
-186.129	800.000	0.027	-0.076
-185.114	-200.000	-0.036	0.205
-184.100	-170.147	-0.401	0.014
-183.085	236.046	-0.029	-0.047
-182.071	-97.874	0.193	-0.049
-181.056	800.000	-0.066	-0.235
-180.042	-1.485	0.158	0.109
-179.027	64.219	-0.103	0.101
-178.012	-200.000	0.073	-0.326
-176.998	181.781	0.162	0.234
-175.983	-88.382	-0.238	0.070
-174.969	238.479	0.149	-0.242
-173.954	-200.000	-0.023	-0.124
-172.939	-200.000	-0.003	0.167
-171.925	-12.697	-0.246	-0.157
-170.910	25.297	-0.038	0.030
-169.896	-3.962	-0.350	0.237
-168.881	-103.428	0.479	-0.110
-167.866	-129.283	0.103	-0.014
-166.852	4.159	-0.249	0.179
-165.837	136.746	-0.183	-0.233
-164.823	800.000	-0.077	0.276
-163.808	-72.842	0.015	-0.006
-162.793	800.000	0.071	0.221
-161.779	-118.900	-0.302	-0.052
-160.764	-52.421	0.352	-0.159
-159.750	-120.742	0.014	0.002
-158.735	800.000	0.066	0.189
-157.720	-152.919	0.281	0.019
-156.706	49.284	-0.115	-0.105
-155.691	-200.000	-0.006	0.052
-154.677	-127.063	-0.151	-0.022
-153.662	235.531	-0.135	0.218
-152.647	136.851	0.067	0.085
-151.633	26.652	0.294	0.240
-150.618	-145.482	-0.246	-0.022
-149.604	800.000	-0.114	-0.336
-148.589	0.861	0.253	-0.177
-147.574	-89.839	0.188	0.054
-146.560	-200.000	0.011	-0.272
-145.545	20.995	-0.131	0.104
-144.531	52.096	0.265	-0.247
-143.516	-0.937	0.080	0.055
-142.502	-200.000	0.030	0.559
-141.487	112.708	0.288	0.341
-140.472	19.568	-0.196	0.154
-139.458	-108.069	0.359	-0.076
-138.443	152.995	-0.116	-0.156
-137.429	107.557	-0.054	-0.063
-136.414	257.338	0.120	-0.202
-135.399	800.000	0.051	0.206
-134.385	-200.000	-0.025	-0.337
-133.370	-122.317	-0.122	0.019
-132.356	228.955	0.113	0.180
-131.341	122.236	0.123	0.150
-130.326	-135.905	-0.222	0.026
-129.312	-97.097	0.242	-0.062
-128.297	-111.131	-0.128	0.026
-127.283	-75.983	0.267	-0.092
-126.268	30.777	0.159	0.133
-125.253	116.314	-0.065	0.078
-124.239	13.969	-0.191	-0.145
-123.224	249.242	-0.106	0.176
-122.210	-200.000	-0.034	0.204
-121.195	74.455	-0.059	0.060
-120.180	-24.652	-0.048	0.028
-119.166	-41.905	-0.203	0.101
-118.151	536.198	0.065	-0.151
-117.137	-15.714	0.120	0.075
-116.122	358.972	0.155	0.302
-115.107	-200.000	0.015	0.245
-114.093	-200.000	-0.011	0.233
-113.078	800.000	-0.063	0.196
-112.064	800.000	0.064	0.173
-111.049	-189.578	0.281	-0.003
-110.034	-158.248	-0.155	0.009
-109.020	-134.206	0.374	-0.045
-108.005	-74.749	-0.316	0.111
-106.991	109.173	0.123	-0.143
-105.976	-31.435	-0.240	0.132
-104.962	-200.000	0.015	-0.266
-103.947	21.273	-0.103	0.081
-102.932	800.000	0.028	0.078
-101.918	-144.084	-0.402	-0.037
-100.903	38.559	0.268	-0.233
-99.889	-200.000	-0.007	-0.239
-98.874	-200.000	0.009	-0.059
-97.859	-84.825	-0.219	0.067
-96.845	-120.125	0.205	-0.034
-95.830	-200.000	0.012	0.171
-94.816	298.722	-0.075	-0.134
-93.801	-200.000	-0.036	-0.277
-92.786	-76.543	0.055	0.019
-91.772	800.000	-0.079	0.253
-90.757	800.000	-0.051	0.203
-89.743	250.660	0.149	0.247
-88.728	8.901	-0.127	-0.094
-87.713	23.375	0.295	-0.237
-86.699	-159.626	-0.482	-0.026
-85.684	-61.094	0.335	-0.138
-84.670	-53.371	-0.128	-0.057
-83.655	259.034	-0.162	0.273
-82.640	800.000	-0.029	-0.081
-81.626	-200.000	-0.043	-0.371
-80.611	-167.338	0.289	-0.011
-79.597	-135.943	0.169	-0.019
-78.582	184.337	-0.214	-0.309
-77.567	-198.907	-0.265	-0.001
-76.553	-94.207	-0.133	0.036
-75.538	-75.877	-0.115	0.040
-74.524	231.894	-0.122	-0.195
-73.509	-98.752	0.091	0.023
-72.494	800.000	-0.052	-0.192
-71.480	-34.618	0.263	-0.140
-70.465	-76.430	0.297	-0.102
-69.451	-57.107	0.180	0.077
-68.436	-86.117	-0.182	-0.055
-67.422	-200.000	-0.038	-0.180
-66.407	800.000	0.021	0.069
-65.392	386.750	-0.059	0.118
-64.378	-200.000	0.021	0.148
-63.363	-117.262	-0.224	0.040
-62.349	479.611	0.016	-0.034
-61.334	79.076	-1.225	-1.278
-60.319	68.379	0.955	0.953
-59.305	241.336	-0.904	-1.471
-58.290	246.892	0.914	1.503
-57.276	497.572	0.609	1.364
-56.261	-200.000	134.931	689.132
-55.246	345.636	1673.013	3201.781
-54.232	133.924	2803.585	3535.566
-53.217	90.120	2168.994	2361.297
-52.203	32.720	1597.751	1346.036
-51.188	24.779	1344.791	1084.938
-50.173	22.621	1307.751	1042.269
-49.159	51.403	1381.084	1277.244
-48.144	47.337	1390.705	1261.382
-47.130	24.854	1338.123	1079.840
-46.115	21.802	1318.706	1045.951
-45.100	21.423	1313.964	1039.894
-44.086	21.446	1311.180	1037.784
-43.071	21.464	1308.776	1035.948
-42.057	21.533	1306.697	1034.672
-41.042	21.529	1305.286	1033.487
-40.027	21.473	1304.117	1032.188
-39.013	21.508	1301.613	1030.376
-37.998	21.433	1300.073	1028.674
-36.984	21.428	1298.904	1027.680
-35.969	21.474	1297.034	1026.430
-34.954	21.552	1295.080	1025.298
-33.940	21.584	1293.579	1024.253
-32.925	21.485	1292.633	1022.885
-31.911	21.614	1291.059	1022.354
-30.896	21.689	1289.260	1021.327
-29.881	21.681	1287.977	1020.221
-28.867	21.747	1286.669	1019.530
-27.852	21.709	1285.361	1018.230
-26.838	21.620	1284.198	1016.755
-25.823	21.523	1282.975	1015.185
-24.809	21.580	1281.536	1014.333
-23.794	21.566	1280.350	1013.273
-22.779	21.595	1279.025	1012.351
-21.765	21.599	1277.765	1011.336
-20.750	21.495	1276.621	1009.794
-19.736	21.540	1274.981	1008.716
-18.721	21.545	1274.063	1007.979
-17.706	21.419	1273.111	1006.456
-16.692	21.567	1271.622	1006.095
-15.677	21.471	1270.767	1004.827
-14.663	21.440	1269.572	1003.661
-13.648	21.475	1268.388	1002.886
-12.633	21.416	1267.559	1001.855
-11.619	21.510	1266.937	1001.860
-10.604	21.521	1265.832	1001.009
-9.590	21.467	1265.626	1000.501
-8.575	21.499	1264.118	999.450
-7.560	21.527	1263.355	998.963
-6.546	21.484	1262.317	997.863
-5.531	21.516	1261.128	997.061
-4.517	21.446	1260.801	996.367
-3.502	21.509	1259.955	996.018
-2.487	21.451	1258.413	994.427
-1.473	21.510	1254.263	991.443
-0.458	19.819	1238.695	969.629
0.556	15.247	1223.802	932.265
1.571	11.626	1232.023	918.135
2.586	11.027	1247.370	926.083
3.600	11.027	1234.621	916.536
4.615	8.259	1163.576	849.014
5.629	3.120	1094.378	772.684
6.644	0.810	1078.416	749.903
7.659	0.631	1076.221	747.428
8.673	0.645	1075.289	746.782
9.688	0.704	1073.983	746.101
10.702	0.886	1071.251	745.032
11.717	3.859	1074.742	762.060
12.731	10.236	1083.642	799.908
13.746	15.596	1089.652	830.844
14.761	17.270	1091.673	840.598
15.775	16.669	1090.223	836.438
16.790	15.556	1087.926	829.109
17.804	14.994	1086.479	825.166
18.819	14.537	1085.715	822.260
19.834	14.346	1084.457	820.294
20.848	14.189	1083.465	818.698
21.863	13.846	1083.035	816.612
22.877	13.722	1082.036	815.179
23.892	13.820	1081.267	815.005
24.907	13.739	1080.648	814.072
25.921	13.665	1079.862	813.045
26.936	13.748	1079.242	812.910
27.950	13.767	1078.208	812.153
28.965	13.801	1076.878	811.247
29.980	13.854	1075.174	810.150
30.994	13.922	1074.393	809.821
32.009	13.924	1073.686	809.227
33.023	13.971	1072.050	808.152
34.038	13.867	1071.276	806.991
35.053	13.857	1071.033	806.687
36.067	13.853	1069.925	805.763
37.082	13.824	1069.488	805.220
38.096	13.872	1068.885	804.929
39.111	14.019	1067.614	804.614
40.126	13.711	1066.499	802.210
41.140	13.701	1065.658	801.458
42.155	13.715	1064.234	800.386
43.169	13.665	1063.489	799.513
44.184	13.761	1062.047	798.818
45.199	13.664	1061.268	797.696
46.213	13.701	1059.706	796.628
47.228	13.839	1058.829	796.560
48.242	13.825	1057.923	795.743
49.257	13.821	1056.813	794.818
50.271	13.857	1055.649	794.043
51.286	13.843	1054.872	793.325
52.301	13.734	1054.021	792.092
53.315	13.778	1053.052	791.505
54.330	13.723	1052.221	790.549
55.344	13.723	1051.241	789.741
56.359	13.808	1049.870	789.048
57.374	13.592	1049.773	787.875
58.388	13.681	1048.503	787.277
59.403	13.633	1047.810	786.456
60.417	13.662	1046.928	785.861
61.432	13.672	1045.991	785.136
62.447	13.636	1045.627	784.623
63.461	13.680	1044.232	783.715
64.476	13.609	1043.268	782.591
65.490	13.592	1042.532	781.888
66.505	13.759	1041.668	781.960
67.520	13.635	1041.427	781.124
68.534	13.654	1040.641	780.556
69.549	13.570	1039.711	779.391
70.563	13.744	1039.090	779.677
71.578	13.601	1038.176	778.250
72.593	13.558	1037.534	777.496
73.607	13.798	1036.745	777.964
74.622	13.634	1036.029	776.586
75.636	13.744	1034.903	776.189
76.651	13.720	1034.725	775.875
77.666	13.526	1034.274	774.562
78.680	13.554	1033.172	773.798
79.695	13.524	1032.619	773.173
80.709	13.509	1032.306	772.803
81.724	13.755	1031.601	773.354
82.739	13.736	1030.659	772.489
83.753	13.735	1029.926	771.869
84.768	13.754	1029.147	771.306
85.782	13.859	1027.722	770.656
86.797	13.685	1026.995	769.235
87.812	13.788	1025.954	768.864
88.826	13.747	1025.195	768.037
89.841	13.826	1024.198	767.588
90.855	13.866	1023.062	766.856
91.870	13.901	1022.473	766.507
92.884	13.836	1021.555	765.449
93.899	13.972	1020.259	765.037
94.914	13.883	1019.976	764.350
95.928	13.917	1019.041	763.736
96.943	13.904	1017.956	762.796
97.957	13.900	1017.130	762.090
98.972	13.974	1016.070	761.571
99.987	13.963	1015.233	760.824
101.001	13.824	1014.423	759.513
102.016	13.831	1013.733	758.960
103.030	13.916	1012.699	758.507
104.045	13.868	1011.802	757.551
105.060	13.867	1011.529	757.276
106.074	13.822	1010.567	756.282
107.089	13.735	1009.623	755.111
108.103	13.625	1008.797	753.926
109.118	13.744	1007.398	753.355
110.133	13.775	1006.748	752.945
111.147	13.796	1005.686	752.179
112.162	13.829	1004.989	751.740
113.176	13.914	1004.318	751.558
114.191	13.854	1003.583	750.669
115.206	13.702	1003.421	749.794
116.220	13.784	1001.835	748.913
117.235	13.691	1001.278	748.011
118.249	13.734	1000.587	747.623
119.264	13.773	999.388	746.835
120.279	13.740	998.862	746.229
121.293	13.788	998.305	745.960
122.308	13.732	997.208	744.823
123.322	13.871	995.578	744.164
124.337	13.748	994.885	743.027
125.352	13.771	993.625	742.128
126.366	13.785	992.551	741.318
127.381	13.730	991.498	740.225
128.395	13.782	990.514	739.656
129.410	13.807	989.622	739.033
130.424	13.819	988.912	738.491
131.439	13.824	988.436	738.093
132.454	13.964	987.028	737.599
133.468	13.810	986.857	736.724
134.483	13.808	985.917	735.946
135.497	13.793	984.852	735.018
136.512	13.827	983.574	734.151
137.527	13.759	983.029	733.377
138.541	13.872	982.405	733.346
139.556	13.924	981.577	732.895
140.570	13.964	980.738	732.378
141.585	13.964	979.800	731.613
142.600	14.074	979.049	731.472
143.614	13.968	978.177	730.290
144.629	14.084	977.305	730.085
145.643	14.128	976.105	729.315
146.658	14.042	975.086	728.114
147.673	13.989	974.469	727.358
148.687	13.945	973.844	726.633
149.702	13.986	972.651	725.859
150.716	13.943	972.430	725.438
151.731	14.062	971.294	725.046
152.746	14.029	970.941	724.575
153.760	14.046	970.199	724.032
154.775	14.193	969.561	724.133
155.789	14.080	969.103	723.234
156.804	14.076	968.294	722.549
157.819	14.157	967.568	722.296
158.833	14.163	966.933	721.784
159.848	14.189	966.370	721.410
160.862	14.291	964.367	720.294
161.877	14.125	963.956	719.205
162.892	14.198	963.147	718.856
163.906	14.134	962.413	717.965
164.921	14.175	961.320	717.265
165.935	14.133	960.367	716.310
166.950	14.157	959.796	715.924
167.964	14.152	958.646	714.982
168.979	14.080	957.861	714.023
169.994	14.060	957.118	713.321
171.008	14.167	956.499	713.256
172.023	14.212	955.798	712.863
173.037	14.288	954.871	712.430
174.052	14.310	954.283	712.025
175.067	14.328	953.517	711.468
176.081	14.254	953.073	710.754
177.096	14.163	952.822	710.117
178.110	14.244	951.831	709.661
179.125	14.269	951.167	709.209
180.140	14.225	951.120	708.926
181.154	14.364	950.234	708.793
182.169	14.420	949.591	708.489
183.183	14.338	948.906	707.566
184.198	14.412	948.052	707.180
185.213	14.303	947.566	706.295
186.227	14.513	946.647	706.436
187.242	14.527	946.043	705.984
188.256	14.566	945.747	705.865
189.271	14.444	944.820	704.592
190.286	14.412	943.862	703.683
191.300	14.386	943.233	703.041
192.315	14.383	942.809	702.651
193.329	14.393	942.279	702.238
194.344	14.474	941.466	701.909
195.359	14.454	940.735	701.217
196.373	14.433	940.382	700.801
197.388	14.449	940.052	700.565
198.402	14.636	939.248	700.685
199.417	14.664	938.552	700.224
200.432	14.696	938.057	699.927
201.446	14.722	937.544	699.589
202.461	14.817	936.840	699.400
203.475	14.762	936.548	698.892
204.490	14.762	935.332	697.923
205.504	14.593	934.980	696.889
206.519	14.592	934.343	696.351
207.534	14.668	933.426	695.923
208.548	14.646	932.810	695.308
209.563	14.779	932.013	695.206
210.577	14.728	931.420	694.492
211.592	14.862	930.811	694.534
212.607	15.009	929.474	694.083
213.621	14.735	929.491	692.898
214.636	14.863	928.633	692.728
215.650	14.779	927.962	691.820
216.665	14.918	926.750	691.428
217.680	14.905	925.796	690.604
218.694	15.018	925.303	690.638
219.709	14.919	925.335	690.193
220.723	14.891	924.511	689.402
221.738	14.895	923.826	688.847
222.753	15.138	922.601	688.873
223.767	15.038	922.346	688.210
224.782	15.071	921.849	687.916
225.796	15.136	921.220	687.652
226.811	15.150	920.631	687.206
227.826	15.067	920.011	686.346
228.840	14.966	919.338	685.366
229.855	15.015	918.728	685.053
230.869	14.946	917.873	684.071
231.884	15.164	916.514	683.890
232.899	14.944	916.036	682.575
233.913	15.019	915.472	682.401
234.928	15.087	914.682	682.026
235.942	14.994	914.399	681.377
236.957	14.950	913.724	680.636
237.972	15.105	913.010	680.672
238.986	15.108	912.079	679.930
240.001	14.986	911.876	679.222
241.015	15.174	910.891	679.192
242.030	15.221	910.427	678.974
243.045	15.283	909.748	678.660
244.059	15.130	909.339	677.678
245.074	15.180	908.539	677.223
246.088	15.310	907.629	677.007
247.103	15.202	907.343	676.299
248.117	15.314	907.057	676.480
249.132	15.285	906.491	675.878
250.147	15.303	905.502	675.155
251.161	15.380	904.859	674.926
252.176	15.489	904.328	674.907
253.190	15.420	903.709	674.108
254.205	15.594	902.535	673.871
255.220	15.521	902.107	673.199
256.234	15.489	901.699	672.708
257.249	15.465	900.923	671.973
258.263	15.634	899.795	671.747
259.278	15.656	899.288	671.398
260.293	15.674	898.852	671.086
261.307	15.501	898.457	670.041
262.322	15.688	897.782	670.223
263.336	15.660	897.227	669.638
264.351	15.665	896.277	668.889
265.366	15.761	895.539	668.660
266.380	15.733	895.196	668.237
267.395	15.614	894.498	667.182
268.409	15.665	893.900	666.878
269.424	15.863	892.617	666.646
270.439	15.782	891.948	665.770
271.453	15.766	891.179	665.071
272.468	15.769	890.934	664.843
273.482	15.711	890.539	664.259
274.497	15.873	889.498	664.063
275.512	15.874	888.924	663.579
276.526	15.814	888.588	663.033
277.541	15.947	888.352	663.323
278.555	15.839	887.260	662.023
279.570	16.006	886.566	662.106
280.585	15.914	885.599	660.961
281.599	15.963	885.144	660.757
282.614	16.026	884.648	660.573
283.628	16.033	884.041	660.090
284.643	15.954	883.640	659.423
285.657	15.970	882.570	658.630
286.672	16.048	881.916	658.387
287.687	15.946	881.408	657.550
288.701	15.996	881.292	657.602
289.716	16.031	880.318	656.956
290.730	16.084	879.527	656.513
291.745	16.121	879.259	656.398
292.760	16.064	878.839	655.805
293.774	16.223	877.845	655.623
294.789	16.157	877.291	654.896
295.803	16.057	876.661	653.979
296.818	16.080	875.835	653.393
297.833	16.091	875.063	652.803
298.847	16.266	874.375	652.907
299.862	16.308	873.780	652.566
300.876	16.247	873.237	651.868
301.891	16.345	872.805	651.868
302.906	16.392	872.128	651.485
303.920	16.301	871.705	650.763
304.935	16.437	871.097	650.775
305.949	16.451	870.263	650.146
306.964	16.321	869.914	649.330
307.979	16.236	869.919	648.950
308.993	16.407	868.958	648.831
310.008	16.496	868.014	648.411
311.022	16.484	867.498	647.922
312.037	16.572	866.888	647.745
313.052	16.506	866.119	646.859
314.066	16.378	866.044	646.259
315.081	16.368	865.335	645.632
316.095	16.337	864.664	644.957
317.110	16.473	863.968	644.901
318.125	16.340	863.982	644.347
319.139	16.637	863.286	644.900
320.154	16.611	862.492	644.152
321.168	16.570	861.909	643.506
322.183	16.474	861.553	642.816
323.197	16.455	861.266	642.473
324.212	16.620	860.157	642.215
325.227	16.610	859.612	641.712
326.241	16.438	859.411	640.853
327.256	16.516	858.695	640.561
328.270	16.687	857.982	640.617
329.285	16.677	857.151	639.902
330.300	16.570	857.018	639.344
331.314	16.635	856.486	639.133
332.329	16.562	856.238	638.616
333.343	16.724	855.480	638.608
334.358	16.675	855.254	638.195
335.373	16.720	854.630	637.844
336.387	16.688	854.618	637.658
337.402	16.692	854.262	637.350
338.416	16.780	853.807	637.284
339.431	16.842	853.371	637.137
340.446	16.728	853.049	636.413
341.460	16.754	852.716	636.203
342.475	16.901	851.924	636.110
343.489	16.816	851.793	635.636
344.504	17.013	851.088	635.794
345.519	16.990	850.489	635.204
346.533	16.903	850.395	634.751
347.548	17.004	849.546	634.436
348.562	16.905	849.020	633.619
349.577	17.051	847.989	633.339
350.592	16.891	847.839	632.573
351.606	16.953	847.028	632.144
352.621	16.972	846.428	631.710
353.635	16.979	845.972	631.343
354.650	17.037	845.418	631.088
355.665	16.960	844.454	630.027
356.679	17.026	843.769	629.702
357.694	17.124	843.099	629.512
358.708	17.128	842.489	629.015
359.723	17.120	842.146	628.675
360.738	17.024	841.766	627.980
361.752	17.097	840.998	627.622
362.767	17.236	840.300	627.557
363.781	17.259	840.176	627.494
364.796	17.448	839.021	627.271
365.810	17.276	839.057	626.611
366.825	17.318	838.690	626.434
367.840	17.259	838.570	626.072
368.854	17.255	837.980	625.563
369.869	17.290	837.354	625.169
370.883	17.350	836.477	624.680
371.898	17.447	836.218	624.787
372.913	17.458	835.838	624.489
373.927	17.458	835.380	624.089
374.942	17.522	834.816	623.848
375.956	17.492	834.653	623.563
376.971	17.451	834.292	623.085
377.986	17.529	833.554	622.765
379.000	17.567	833.341	622.689
380.015	17.543	832.846	622.176
381.029	17.639	832.034	621.864
382.044	17.677	831.313	621.412
383.059	17.554	830.858	620.569
384.073	17.715	830.428	620.779
385.088	17.661	830.066	620.253
386.102	17.561	829.432	619.364
387.117	17.546	828.948	618.892
388.132	17.580	828.211	618.411
389.146	17.632	827.698	618.161
390.161	17.661	826.839	617.571
391.175	17.643	826.758	617.388
392.190	17.624	825.980	616.686
393.205	17.645	825.777	616.554
394.219	17.707	825.221	616.311
395.234	17.835	824.762	616.377
396.248	17.628	824.515	615.390
397.263	17.667	823.607	614.797
398.278	17.616	823.277	614.312
399.292	17.560	823.274	614.054
400.307	17.619	822.605	613.712
401.321	17.871	822.177	614.248
402.336	17.853	821.444	613.581
403.350	17.724	821.489	613.097
404.365	17.945	820.970	613.449
405.380	17.835	820.111	612.356
406.394	17.938	819.671	612.344
407.409	17.858	818.879	611.411
408.423	18.118	818.918	612.317
409.438	17.794	819.275	611.370
410.453	17.938	818.412	611.187
411.467	17.949	817.589	610.557
412.482	18.177	817.152	610.992
413.496	17.983	816.980	610.116
414.511	18.127	816.411	610.151
415.526	18.063	816.080	609.621
416.540	18.220	815.715	609.854
417.555	18.114	815.085	608.951
418.569	18.325	814.460	609.182
419.584	18.151	814.083	608.226
420.599	18.122	813.826	607.877
421.613	115.501	1300.918	1488.941
422.628	100.033	1371.824	1489.031
