DTS Sentinel unit serial number:	SN413079Multiplexer serial number:	ORYXHardware model number:	OX4-SRSoftware version number:	ORYX F/W v4.00 Oryx Data Collector v3.7.2.0data status	okinstallation	princeton_trtdifferential loss correction	single-endedforward channel	channel 1reverse channel	N/Adate	2019/09/12time	09:44:11forward acquisition time	60.00reverse acquisition time	0.00gamma	496.2192k internal	0.2300k external	0.2300temperature offset calibration	1.0044default loss term (dB/km)	0.3790temperature slope calibration	1.0000multiplexer offset coefficient	1.0000multiplexer slope coefficient	1.0000fibre end	0.00T internal ref (°C)	35.89T ext. ref 1 (°C)	1.83T ext. ref 2 (°C)	32.66length (m)	temperature (°C)	Stokes	anti-Stokes-747.200	88.265	-0.234	0.264
-746.185	65.144	0.253	0.261
-745.171	407.806	-0.063	0.136
-744.156	-5.052	0.104	0.073
-743.142	-200.000	0.011	-0.197
-742.127	-200.000	0.008	0.195
-741.112	307.814	-0.005	0.010
-740.098	-200.000	-0.022	0.116
-739.083	-200.000	0.063	0.584
-738.069	-200.000	-0.048	0.229
-737.054	-188.472	0.278	-0.004
-736.039	-160.138	-0.136	-0.008
-735.025	171.317	0.103	0.150
-734.010	206.421	-0.178	0.282
-732.996	-104.483	-0.273	-0.064
-731.981	-63.658	-0.014	-0.006
-730.966	-64.768	0.106	0.044
-729.952	-98.900	0.097	-0.025
-728.937	50.834	-0.172	-0.166
-727.923	-30.274	-0.215	0.125
-726.908	-15.877	-0.241	-0.156
-725.894	-4.820	0.152	0.107
-724.879	156.961	0.099	0.139
-723.864	-11.049	-0.198	0.133
-722.850	57.033	-0.221	0.220
-721.835	-52.571	-0.129	-0.061
-720.821	-75.387	-0.152	-0.055
-719.806	-119.600	-0.228	-0.040
-718.791	-200.000	0.001	0.338
-717.777	-200.000	-0.095	0.469
-716.762	-9.644	0.143	0.097
-715.748	-200.000	0.002	-0.204
-714.733	54.752	-0.171	0.168
-713.718	-74.109	-0.277	-0.102
-712.704	80.823	0.254	-0.279
-711.689	-100.082	-0.133	-0.034
-710.675	-50.879	-0.204	0.098
-709.660	-101.611	0.038	-0.009
-708.645	93.867	0.242	-0.279
-707.631	800.000	0.062	0.195
-706.616	77.411	0.238	-0.257
-705.602	-200.000	0.003	0.270
-704.587	-179.093	-0.352	0.008
-703.572	-200.000	0.020	-0.419
-702.558	164.114	0.091	0.130
-701.543	-83.461	0.129	0.042
-700.529	-40.578	-0.172	0.091
-699.514	-83.430	0.198	-0.065
-698.499	-200.000	0.001	-0.197
-697.485	201.835	-0.084	-0.131
-696.470	-200.000	-0.006	-0.086
-695.456	63.386	0.040	0.041
-694.441	31.153	-0.086	0.075
-693.426	-77.130	0.144	0.051
-692.412	-14.446	-0.108	0.071
-691.397	258.631	-0.135	-0.237
-690.383	-43.551	0.226	-0.116
-689.368	127.304	0.086	-0.111
-688.354	-25.727	0.369	-0.222
-687.339	232.990	0.206	0.345
-686.324	584.122	-0.030	-0.076
-685.310	-200.000	0.063	-0.291
-684.295	39.065	-0.206	-0.187
-683.281	-120.917	-0.282	-0.048
-682.266	-43.066	0.209	-0.108
-681.251	43.686	-0.097	0.090
-680.237	800.000	-0.058	0.181
-679.222	-26.378	-0.088	-0.053
-678.208	27.841	0.236	-0.203
-677.193	318.620	-0.166	0.320
-676.178	331.735	0.108	0.211
-675.164	800.000	0.089	0.325
-674.149	-98.686	-0.135	-0.035
-673.135	-200.000	0.001	-0.204
-672.120	800.000	0.053	-0.163
-671.105	-164.338	-0.127	-0.006
-670.091	-94.761	0.101	-0.028
-669.076	-187.293	0.154	0.002
-668.062	-200.000	0.010	-0.312
-667.047	669.752	0.085	0.224
-666.032	-200.000	-0.017	-0.127
-665.018	-193.940	0.425	0.004
-664.003	800.000	0.034	0.104
-662.989	323.438	-0.283	-0.549
-661.974	262.695	-0.025	0.044
-660.959	-96.150	-0.320	0.086
-659.945	-126.987	-0.217	0.032
-658.930	20.304	-0.104	0.085
-657.916	-167.161	0.309	-0.013
-656.901	-164.847	-0.177	0.008
-655.886	-89.152	-0.159	0.048
-654.872	-72.250	0.175	-0.066
-653.857	-200.000	-0.016	0.080
-652.843	-156.088	0.043	-0.003
-651.828	28.191	0.284	0.244
-650.814	305.534	0.108	0.204
-649.799	800.000	0.072	0.287
-648.784	207.427	0.107	-0.169
-647.770	-137.188	-0.232	-0.027
-646.755	-92.531	0.445	0.127
-645.741	36.571	-0.158	-0.142
-644.726	90.592	0.015	-0.017
-643.711	473.818	0.153	-0.351
-642.697	114.019	-0.183	-0.226
-641.682	-101.189	-0.370	0.092
-640.668	800.000	-0.047	0.192
-639.653	404.005	0.076	0.162
-638.638	-200.000	-0.010	-0.109
-637.624	24.870	-0.263	-0.221
-636.609	-68.137	-0.141	-0.056
-635.595	-85.447	-0.165	0.052
-634.580	-166.090	-0.106	-0.005
-633.565	8.519	-0.240	0.183
-632.551	17.784	-0.088	0.071
-631.536	36.226	0.281	0.251
-630.522	293.159	-0.072	-0.134
-629.507	-28.827	0.013	-0.008
-628.492	355.288	-0.056	0.113
-627.478	97.450	-0.166	0.194
-626.463	443.277	-0.007	0.015
-625.449	-77.554	0.132	-0.046
-624.434	-16.175	-0.355	-0.229
-623.419	74.171	-0.131	0.140
-622.405	-13.103	-0.195	0.129
-621.390	-130.380	0.012	-0.002
-620.376	-48.760	0.099	0.048
-619.361	-26.784	-0.171	-0.101
-618.346	5.115	-0.301	-0.225
-617.332	-82.994	0.244	-0.080
-616.317	-152.100	0.177	-0.013
-615.303	240.375	0.124	0.210
-614.288	28.202	0.089	-0.076
-613.273	142.478	0.118	0.159
-612.259	-108.890	-0.252	-0.055
-611.244	31.728	0.107	0.093
-610.230	800.000	0.038	-0.130
-609.215	153.349	0.113	-0.157
-608.201	-72.160	-0.125	-0.047
-607.186	-46.635	0.312	0.155
-606.171	-48.173	-0.238	0.116
-605.157	-9.555	0.215	0.146
-604.142	-31.048	0.167	0.096
-603.128	-14.186	0.172	-0.112
-602.113	80.995	0.119	0.130
-601.098	800.000	0.046	-0.152
-600.084	-112.962	0.094	-0.019
-599.069	105.982	-0.195	-0.234
-598.055	800.000	-0.090	-0.305
-597.040	-102.017	-0.208	0.051
-596.025	-81.974	0.222	-0.074
-595.011	-200.000	-0.062	-0.386
-593.996	-61.407	0.149	-0.063
-592.982	-63.574	-0.299	-0.125
-591.967	82.713	-0.206	-0.227
-590.952	-77.301	-0.342	-0.120
-589.938	-200.000	0.005	0.094
-588.923	198.786	0.125	0.194
-587.909	350.255	-0.056	0.113
-586.894	-123.712	0.058	0.009
-585.879	5.397	-0.091	0.068
-584.865	0.109	-0.063	0.046
-583.850	-88.981	0.150	-0.045
-582.836	-134.445	0.165	-0.020
-581.821	530.895	0.024	-0.057
-580.806	-31.089	-0.134	0.077
-579.792	181.971	-0.126	-0.188
-578.777	-145.506	0.096	-0.009
-577.763	800.000	0.038	-0.115
-576.748	30.395	0.212	-0.183
-575.733	-71.295	0.165	-0.063
-574.719	-117.189	-0.061	-0.011
-573.704	520.678	0.056	0.134
-572.690	11.416	-0.186	-0.144
-571.675	294.616	0.121	-0.224
-570.661	513.326	0.113	-0.268
-569.646	157.873	-0.110	0.154
-568.631	-144.482	-0.194	-0.018
-567.617	156.807	0.163	-0.228
-566.602	773.521	-0.043	0.120
-565.588	-36.436	0.318	-0.173
-564.573	46.864	-0.184	0.173
-563.558	-200.000	-0.015	0.121
-562.544	-200.000	0.035	-0.230
-561.529	18.254	-0.312	-0.252
-560.515	-200.000	0.064	0.295
-559.500	-200.000	-0.020	-0.137
-558.485	800.000	-0.112	-0.347
-557.471	63.416	0.101	0.103
-556.456	-200.000	-0.064	0.317
-555.442	73.783	-0.078	-0.083
-554.427	-167.860	-0.079	0.003
-553.412	-54.957	-0.428	-0.195
-552.398	263.087	-0.072	-0.127
-551.383	527.216	-0.088	0.210
-550.369	-104.851	-0.164	0.038
-549.354	-52.376	0.088	-0.041
-548.339	94.668	0.094	0.109
-547.325	800.000	-0.075	-0.248
-546.310	178.788	0.273	-0.404
-545.296	5.885	-0.277	0.208
-544.281	104.368	0.053	-0.063
-543.266	-27.910	0.087	0.051
-542.252	34.614	-0.290	-0.256
-541.237	-80.123	-0.244	0.083
-540.223	800.000	-0.048	0.157
-539.208	697.328	0.062	0.164
-538.193	800.000	-0.112	-0.331
-537.179	109.991	-0.028	-0.034
-536.164	-200.000	-0.035	0.287
-535.150	1.252	0.176	0.128
-534.135	-200.000	0.038	-0.383
-533.121	-78.838	0.111	-0.038
-532.106	171.512	0.190	-0.275
-531.091	56.852	0.376	0.370
-530.077	800.000	-0.056	-0.212
-529.062	173.051	-0.064	0.093
-528.048	30.469	-0.166	-0.144
-527.033	-135.685	0.206	-0.025
-526.018	101.673	0.147	-0.174
-525.004	656.007	-0.054	-0.141
-523.989	-5.926	-0.072	0.050
-522.975	-200.000	0.035	-0.310
-521.960	-68.382	-0.343	0.135
-520.945	23.266	-0.141	-0.117
-519.931	-32.138	0.039	-0.022
-518.916	-67.976	-0.022	-0.009
-517.902	-200.000	-0.037	-0.245
-516.887	-2.503	0.578	-0.409
-515.872	-47.245	-0.325	-0.160
-514.858	-200.000	-0.049	-0.508
-513.843	108.805	0.064	-0.077
-512.829	118.043	0.118	0.147
-511.814	-1.465	-0.036	0.026
-510.799	-82.701	-0.176	-0.058
-509.785	88.191	-0.205	-0.230
-508.770	351.619	0.071	-0.143
-507.756	-107.001	0.185	0.041
-506.741	-68.338	-0.242	-0.095
-505.726	430.828	0.061	0.133
-504.712	800.000	0.073	0.228
-503.697	-200.000	-0.008	-0.105
-502.683	-36.563	0.283	0.154
-501.668	-129.095	0.080	-0.011
-500.653	639.572	-0.070	-0.181
-499.639	-134.050	0.178	0.022
-498.624	-200.000	-0.008	-0.058
-497.610	112.770	0.220	-0.270
-496.595	82.474	0.137	-0.150
-495.581	130.843	0.148	-0.192
-494.566	-200.000	0.034	-0.159
-493.551	-2.942	-0.070	-0.050
-492.537	17.686	0.167	-0.134
-491.522	-200.000	0.124	-0.565
-490.508	-150.727	-0.123	-0.009
-489.493	50.146	0.026	-0.025
-488.478	63.372	0.125	0.126
-487.464	-200.000	-0.011	0.062
-486.449	281.516	-0.116	-0.210
-485.435	333.529	-0.123	0.241
-484.420	-135.542	-0.323	-0.039
-483.405	-116.697	0.306	-0.057
-482.391	-42.212	-0.420	-0.216
-481.376	202.656	-0.053	-0.083
-480.362	46.248	0.123	0.115
-479.347	-6.890	0.128	0.088
-478.332	-70.466	-0.167	0.064
-477.318	-95.048	0.162	0.044
-476.303	-88.053	-0.118	0.036
-475.289	-21.531	-0.093	-0.057
-474.274	-52.468	0.112	0.052
-473.259	-83.479	-0.268	-0.087
-472.245	-61.908	-0.275	-0.116
-471.230	-32.064	-0.094	0.053
-470.216	800.000	0.084	0.345
-469.201	68.919	0.199	0.207
-468.186	93.520	-0.238	-0.272
-467.172	14.292	0.052	-0.041
-466.157	362.913	-0.017	-0.034
-465.143	-113.626	0.217	0.043
-464.128	-200.000	-0.015	0.101
-463.113	41.834	0.190	0.174
-462.099	-17.884	0.150	0.095
-461.084	577.630	-0.153	0.377
-460.070	761.419	-0.108	0.295
-459.055	-86.701	-0.218	0.067
-458.040	-200.000	-0.018	-0.479
-457.026	-128.924	-0.309	0.044
-456.011	-11.932	0.162	-0.107
-454.997	128.684	-0.045	-0.058
-453.982	-77.321	-0.134	-0.047
-452.968	407.239	0.067	0.142
-451.953	800.000	-0.128	-0.511
-450.938	-43.319	0.138	-0.070
-449.924	692.843	-0.070	0.186
-448.909	9.858	0.246	-0.188
-447.895	800.000	0.055	0.235
-446.880	800.000	0.050	0.142
-445.865	50.607	-0.255	0.243
-444.851	46.524	-0.133	0.124
-443.836	800.000	-0.112	-0.390
-442.822	-106.843	-0.160	0.036
-441.807	139.550	-0.106	-0.141
-440.792	46.744	0.140	0.131
-439.778	65.625	-0.049	0.050
-438.763	-45.970	0.111	-0.055
-437.749	-17.503	-0.290	0.184
-436.734	-200.000	0.040	-0.245
-435.719	-45.166	0.075	-0.038
-434.705	236.669	0.109	0.182
-433.690	56.838	0.115	0.112
-432.676	80.067	0.192	-0.208
-431.661	-72.344	-0.139	0.052
-430.646	205.468	-0.247	-0.386
-429.632	-200.000	-0.026	0.347
-428.617	-31.255	-0.212	0.120
-427.603	-37.207	0.136	0.073
-426.588	-9.073	0.371	0.250
-425.573	800.000	-0.089	-0.282
-424.559	-58.113	0.136	-0.060
-423.544	800.000	-0.073	-0.270
-422.530	-34.075	-0.075	0.042
-421.515	-91.887	-0.252	0.072
-420.500	-72.413	0.400	0.149
-419.486	252.343	0.201	-0.344
-418.471	283.304	0.104	-0.187
-417.457	-24.707	-0.067	0.040
-416.442	800.000	-0.093	0.325
-415.428	800.000	-0.002	0.008
-414.413	-83.987	0.396	-0.127
-413.398	-200.000	-0.003	0.198
-412.384	262.194	-0.101	0.177
-411.369	-33.492	-0.117	-0.065
-410.355	-200.000	-0.014	0.090
-409.340	735.857	-0.091	0.246
-408.325	-200.000	-0.015	0.477
-407.311	-150.278	0.295	-0.023
-406.296	-200.000	-0.018	0.096
-405.282	-136.560	-0.352	0.041
-404.267	-76.847	0.172	0.061
-403.252	800.000	-0.056	-0.194
-402.238	-155.103	0.212	0.014
-401.223	-200.000	-0.007	-0.099
-400.209	800.000	0.068	-0.241
-399.194	800.000	0.078	-0.227
-398.179	39.323	-0.310	-0.279
-397.165	-200.000	0.024	0.257
-396.150	800.000	-0.017	0.070
-395.136	208.808	0.142	0.224
-394.121	-200.000	-0.017	-0.093
-393.106	-77.684	0.168	0.059
-392.092	-91.303	-0.488	-0.141
-391.077	128.429	0.024	-0.031
-390.063	-154.701	0.235	-0.016
-389.048	-95.434	0.045	0.012
-388.033	800.000	-0.054	0.191
-387.019	-7.443	0.065	0.044
-386.004	-70.204	-0.221	0.085
-384.990	-10.973	-0.066	-0.044
-383.975	800.000	0.016	0.050
-382.960	800.000	0.050	0.161
-381.946	-67.753	0.094	0.037
-380.931	377.645	0.054	0.111
-379.917	-10.721	0.241	0.160
-378.902	-200.000	-0.011	0.177
-377.888	164.221	-0.287	-0.407
-376.873	-200.000	-0.049	-0.308
-375.858	-1.576	-0.282	0.199
-374.844	-20.084	-0.223	0.139
-373.829	204.009	-0.114	0.178
-372.815	800.000	-0.099	0.288
-371.800	-200.000	-0.026	-0.300
-370.785	31.498	-0.220	0.190
-369.771	-172.159	-0.100	-0.003
-368.756	-36.465	-0.139	0.075
-367.742	-200.000	0.009	0.424
-366.727	-200.000	0.071	-0.323
-365.712	-87.218	-0.327	-0.100
-364.698	-129.247	0.205	-0.029
-363.683	85.416	0.166	0.184
-362.669	-200.000	-0.049	-0.222
-361.654	-200.000	-0.068	0.319
-360.639	-116.197	-0.336	0.063
-359.625	29.816	0.091	-0.078
-358.610	280.431	0.155	-0.279
-357.596	471.028	0.060	0.135
-356.581	-200.000	0.014	-0.088
-355.566	-200.000	0.065	-0.309
-354.552	-138.951	0.090	0.010
-353.537	-200.000	0.004	0.463
-352.523	165.639	-0.039	-0.055
-351.508	776.844	-0.047	-0.128
-350.493	-4.602	-0.135	0.093
-349.479	-82.039	-0.190	0.062
-348.464	-200.000	-0.067	0.388
-347.450	441.824	0.136	0.299
-346.435	662.767	0.034	-0.087
-345.420	-66.615	0.296	0.118
-344.406	-123.328	0.305	-0.049
-343.391	43.725	0.186	-0.171
-342.377	243.525	0.125	-0.211
-341.362	-65.622	-0.145	0.058
-340.348	800.000	-0.092	0.367
-339.333	-200.000	0.039	0.191
-338.318	190.218	-0.234	0.353
-337.304	46.890	-0.197	-0.184
-336.289	42.007	0.067	0.061
-335.275	192.521	-0.026	-0.040
-334.260	129.065	-0.168	0.215
-333.245	-141.644	-0.060	0.006
-332.231	48.436	0.087	0.082
-331.216	-95.452	0.333	-0.090
-330.202	48.245	-0.016	-0.015
-329.187	78.712	-0.145	0.155
-328.172	90.102	-0.132	0.148
-327.158	36.509	-0.118	-0.104
-326.143	-95.369	0.349	-0.094
-325.129	-200.000	-0.004	0.249
-324.114	304.391	0.194	-0.361
-323.099	-27.570	-0.241	0.141
-322.085	71.960	0.162	0.169
-321.070	-200.000	0.008	0.111
-320.056	-42.252	0.297	-0.152
-319.041	-137.628	0.126	-0.014
-318.026	-200.000	0.020	0.233
-317.012	21.291	0.212	0.173
-315.997	93.032	0.264	-0.299
-314.983	109.982	0.174	-0.210
-313.968	-123.996	0.065	-0.010
-312.953	63.660	-0.218	0.219
-311.939	-200.000	0.044	0.249
-310.924	13.052	0.170	-0.132
-309.910	167.745	0.238	-0.340
-308.895	800.000	-0.030	-0.115
-307.880	198.371	-0.207	-0.318
-306.866	458.115	-0.045	-0.100
-305.851	-21.516	0.306	0.187
-304.837	800.000	-0.081	-0.354
-303.822	105.902	0.137	0.162
-302.807	664.971	0.030	-0.078
-301.793	3.134	0.331	-0.241
-300.778	-5.016	0.231	0.160
-299.764	477.932	0.088	0.200
-298.749	200.618	-0.141	-0.217
-297.735	12.626	0.038	-0.029
-296.720	-200.000	0.007	0.144
-295.705	167.985	0.260	-0.371
-294.691	-159.709	-0.311	0.017
-293.676	-158.303	-0.090	0.005
-292.662	-66.629	0.117	-0.046
-291.647	-139.817	0.355	-0.038
-290.632	433.303	-0.152	-0.331
-289.618	4.676	-0.084	0.062
-288.603	800.000	-0.064	-0.198
-287.589	457.501	0.044	-0.097
-286.574	800.000	0.061	-0.258
-285.559	87.068	-0.039	0.043
-284.545	800.000	0.054	0.192
-283.530	800.000	-0.109	0.415
-282.516	222.705	0.121	0.196
-281.501	-200.000	-0.034	-0.419
-280.486	-200.000	-0.034	-0.257
-279.472	-80.885	-0.323	-0.107
-278.457	11.761	0.233	0.179
-277.443	13.941	0.207	0.161
-276.428	-133.835	-0.209	0.026
-275.413	-80.808	-0.135	-0.045
-274.399	-88.774	0.136	0.041
-273.384	-200.000	-0.002	0.185
-272.370	57.035	-0.155	-0.151
-271.355	787.866	0.057	-0.156
-270.340	-200.000	0.012	-0.166
-269.326	-200.000	-0.152	0.711
-268.311	-200.000	-0.001	0.243
-267.297	-78.736	0.193	-0.066
-266.282	-190.940	0.185	0.002
-265.267	-43.399	0.351	0.178
-264.253	-85.555	-0.079	-0.025
-263.238	-84.062	-0.418	-0.133
-262.224	-32.178	0.078	0.043
-261.209	-155.785	-0.154	0.010
-260.195	217.610	0.122	0.194
-259.180	-200.000	-0.014	-0.356
-258.165	-149.007	0.166	-0.013
-257.151	-61.816	0.338	0.142
-256.136	-200.000	0.018	-0.279
-255.122	800.000	-0.108	0.405
-254.107	-119.182	0.048	0.008
-253.092	500.179	-0.042	-0.097
-252.078	-2.109	-0.360	0.253
-251.063	-47.914	0.193	0.093
-250.049	-108.160	-0.084	-0.018
-249.034	176.024	0.059	0.086
-248.019	176.960	0.227	0.331
-247.005	800.000	0.044	0.187
-245.990	800.000	0.076	0.256
-244.976	345.974	-0.187	0.368
-243.961	-63.546	0.208	0.085
-242.946	59.414	-0.053	0.052
-241.932	800.000	0.095	-0.382
-240.917	66.573	-0.331	0.337
-239.903	-163.968	0.271	-0.013
-238.888	-108.725	-0.297	0.064
-237.873	-81.003	-0.057	0.019
-236.859	-54.600	0.075	-0.034
-235.844	81.479	0.316	0.342
-234.830	800.000	0.091	0.278
-233.815	143.042	-0.127	-0.169
-232.800	132.640	-0.118	-0.152
-231.786	-69.285	0.344	0.132
-230.771	91.852	-0.273	0.308
-229.757	-192.059	0.233	0.002
-228.742	637.053	0.084	-0.214
-227.727	178.629	-0.086	0.126
-226.713	800.000	-0.076	0.260
-225.698	133.496	-0.206	-0.266
-224.684	800.000	-0.008	0.028
-223.669	-200.000	-0.023	0.233
-222.655	64.826	0.141	-0.142
-221.640	-101.603	-0.094	0.023
-220.625	595.610	0.040	0.099
-219.611	-200.000	-0.001	-0.105
-218.596	27.279	-0.087	-0.073
-217.582	-75.521	0.143	0.051
-216.567	-130.049	0.304	-0.042
-215.552	89.569	0.164	0.183
-214.538	-200.000	-0.001	-0.130
-213.523	-200.000	-0.014	0.190
-212.509	39.435	0.085	0.076
-211.494	-75.559	0.162	-0.057
-210.479	315.938	0.181	0.340
-209.465	-200.000	0.084	0.000
-208.450	-125.307	-0.189	0.029
-207.436	169.612	-0.139	-0.199
-206.421	-155.543	0.115	-0.007
-205.406	800.000	0.081	-0.293
-204.392	800.000	0.057	-0.208
-203.377	-103.424	0.104	0.025
-202.363	-126.651	-0.221	-0.033
-201.348	-66.346	-0.268	0.106
-200.333	-73.162	0.241	-0.088
-199.319	53.603	-0.134	-0.129
-198.304	-200.000	-0.022	-0.161
-197.290	63.715	-0.060	-0.060
-196.275	-200.000	0.084	0.445
-195.260	-62.379	0.120	0.050
-194.246	164.135	-0.205	0.288
-193.231	-123.654	-0.520	-0.082
-192.217	-78.822	-0.219	-0.074
-191.202	-60.210	0.158	0.067
-190.187	-102.448	0.096	0.023
-189.173	-19.060	0.156	0.097
-188.158	196.476	0.191	0.290
-187.144	-135.647	-0.185	-0.022
-186.129	800.000	0.080	0.234
-185.114	-113.660	0.123	0.024
-184.100	367.582	-0.154	-0.310
-183.085	-113.763	-0.086	0.017
-182.071	251.717	-0.180	0.306
-181.056	-12.818	-0.204	0.133
-180.042	252.336	-0.104	0.177
-179.027	311.510	0.154	-0.289
-178.012	-121.469	0.419	-0.070
-176.998	117.925	0.084	0.103
-175.983	610.983	-0.063	-0.158
-174.969	113.109	-0.096	0.116
-173.954	-37.811	-0.107	0.057
-172.939	7.991	-0.137	0.103
-171.925	800.000	-0.074	-0.228
-170.910	-72.119	-0.106	-0.039
-169.896	135.363	-0.133	0.172
-168.881	-140.924	0.203	0.021
-167.866	-24.196	0.243	-0.145
-166.852	-75.303	0.125	-0.044
-165.837	-74.729	0.428	0.153
-164.823	167.018	0.054	0.076
-163.808	-108.282	0.262	0.056
-162.793	26.996	-0.157	-0.131
-161.779	-77.444	-0.100	-0.035
-160.764	343.948	-0.162	0.317
-159.750	-190.692	0.122	-0.001
-158.735	-200.000	-0.002	0.223
-157.720	30.265	0.051	-0.043
-156.706	85.738	0.171	-0.188
-155.691	-93.963	-0.057	0.016
-154.677	-72.376	-0.223	-0.082
-153.662	252.922	-0.121	-0.206
-152.647	-3.680	-0.187	0.130
-151.633	354.567	0.053	0.105
-150.618	-119.239	0.057	0.010
-149.604	-185.205	0.295	-0.005
-148.589	-46.619	-0.300	-0.147
-147.574	-200.000	-0.014	-0.132
-146.560	800.000	0.011	0.034
-145.545	-200.000	-0.021	0.276
-144.531	-200.000	-0.010	-0.140
-143.516	-100.421	-0.052	-0.013
-142.502	-119.428	-0.292	0.050
-141.487	420.690	-0.072	0.154
-140.472	326.495	-0.286	0.546
-139.458	800.000	0.056	0.213
-138.443	800.000	-0.031	0.131
-137.429	-200.000	0.001	0.216
-136.414	107.496	0.158	-0.187
-135.399	-160.547	0.178	-0.009
-134.385	-113.086	0.436	-0.086
-133.370	11.759	0.306	0.234
-132.356	322.867	0.096	0.183
-131.341	13.278	0.165	-0.127
-130.326	-200.000	0.064	-0.397
-129.312	393.039	0.128	-0.265
-128.297	144.097	0.144	-0.191
-127.283	-48.640	-0.134	0.064
-126.268	800.000	-0.033	0.117
-125.253	-106.077	-0.156	0.035
-124.239	66.648	0.102	-0.103
-123.224	548.252	-0.052	-0.124
-122.210	-22.430	0.242	0.146
-121.195	396.150	0.005	-0.010
-120.180	-92.073	-0.150	0.042
-119.166	800.000	0.086	0.243
-118.151	-103.167	0.101	0.024
-117.137	-113.559	-0.116	0.023
-116.122	183.505	0.135	-0.199
-115.107	15.376	-0.120	-0.093
-114.093	-200.000	0.023	0.137
-113.078	-16.033	0.082	-0.052
-112.064	800.000	0.113	-0.328
-111.049	800.000	0.103	0.328
-110.034	345.998	0.183	0.358
-109.020	800.000	0.043	-0.126
-108.005	800.000	0.068	0.188
-106.991	401.765	-0.153	0.320
-105.976	-200.000	0.041	0.287
-104.962	182.325	0.225	0.329
-103.947	343.980	0.046	0.089
-102.932	-128.258	0.235	0.033
-101.918	-200.000	-0.024	0.275
-100.903	-120.291	0.303	0.051
-99.889	-123.057	0.175	-0.028
-98.874	-24.432	-0.204	-0.121
-97.859	369.601	-0.039	0.078
-96.845	352.528	-0.055	0.108
-95.830	65.355	-0.385	0.388
-94.816	-200.000	-0.035	0.187
-93.801	288.084	0.159	0.286
-92.786	-25.064	0.314	0.185
-91.772	-55.679	0.155	-0.069
-90.757	21.951	-0.237	-0.192
-89.743	-0.179	-0.302	0.213
-88.728	395.160	0.268	0.556
-87.713	800.000	0.049	0.209
-86.699	800.000	0.045	0.179
-85.684	-76.256	-0.180	-0.063
-84.670	425.348	-0.099	-0.213
-83.655	57.449	-0.344	0.334
-82.640	215.631	-0.134	0.211
-81.626	557.905	-0.122	-0.293
-80.611	-200.000	-0.110	0.517
-79.597	12.743	0.139	-0.107
-78.582	724.806	0.082	-0.217
-77.567	-49.930	-0.124	0.058
-76.553	41.364	-0.049	0.044
-75.538	-32.327	0.221	-0.123
-74.524	-200.000	-0.007	0.072
-73.509	-200.000	-0.043	0.235
-72.494	27.996	-0.303	0.254
-71.480	-104.194	-0.229	0.053
-70.465	99.800	-0.191	0.220
-69.451	-138.472	0.393	0.043
-68.436	-30.489	-0.094	0.053
-67.422	800.000	0.060	0.189
-66.407	443.747	-0.014	0.030
-65.392	-53.817	0.221	0.100
-64.378	800.000	-0.058	-0.175
-63.363	23.525	0.209	-0.171
-62.349	-65.909	-0.265	-0.105
-61.334	73.957	-0.894	-0.931
-60.319	-69.163	0.701	0.268
-59.305	-200.000	-0.132	-0.782
-58.290	800.000	0.420	1.454
-57.276	329.126	0.861	1.644
-56.261	-200.000	90.388	527.656
-55.246	495.660	1383.406	3156.020
-54.232	148.665	2594.739	3480.781
-53.217	112.726	2200.660	2645.670
-52.203	47.019	1649.665	1523.160
-51.188	39.201	1381.963	1227.387
-50.173	35.986	1338.545	1169.300
-49.159	56.090	1385.054	1334.471
-48.144	60.423	1403.361	1378.786
-47.130	39.751	1359.050	1210.220
-46.115	36.069	1341.545	1172.239
-45.100	35.759	1336.819	1166.181
-44.086	35.755	1333.936	1163.594
-43.071	35.787	1331.618	1161.723
-42.057	35.569	1329.852	1158.819
-41.042	35.761	1328.238	1158.523
-40.027	35.820	1326.140	1157.002
-39.013	35.855	1324.231	1155.503
-37.998	35.656	1323.258	1153.412
-36.984	35.847	1320.927	1152.481
-35.969	35.873	1318.929	1150.846
-34.954	35.928	1317.039	1149.479
-33.940	35.933	1315.461	1148.090
-32.925	36.060	1313.782	1147.334
-31.911	36.016	1312.723	1146.100
-30.896	36.020	1311.461	1144.978
-29.881	36.051	1309.734	1143.606
-28.867	36.060	1308.529	1142.564
-27.852	36.045	1306.888	1140.994
-26.838	36.054	1305.208	1139.539
-25.823	35.986	1304.071	1138.098
-24.809	35.973	1302.593	1136.687
-23.794	36.080	1300.868	1135.767
-22.779	36.077	1299.667	1134.654
-21.765	35.985	1298.476	1133.032
-20.750	35.795	1297.685	1131.180
-19.736	35.826	1296.012	1129.855
-18.721	35.832	1294.292	1128.347
-17.706	35.865	1293.393	1127.712
-16.692	35.863	1292.213	1126.626
-15.677	35.861	1291.248	1125.730
-14.663	35.917	1289.725	1124.686
-13.648	35.817	1288.613	1123.088
-12.633	35.812	1287.566	1122.100
-11.619	35.870	1286.879	1121.795
-10.604	35.836	1286.161	1120.923
-9.590	35.807	1284.999	1119.698
-8.575	35.799	1283.892	1118.647
-7.560	35.688	1283.388	1117.517
-6.546	35.701	1282.594	1116.858
-5.531	35.731	1281.612	1116.131
-4.517	35.845	1280.599	1115.866
-3.502	35.811	1279.440	1114.612
-2.487	35.848	1278.766	1114.197
-1.473	35.970	1274.445	1111.092
-0.458	34.799	1260.000	1091.768
0.556	31.372	1241.869	1053.621
1.571	27.744	1246.846	1037.172
2.586	26.819	1261.954	1044.324
3.600	25.815	1250.704	1029.187
4.615	18.479	1174.049	926.524
5.629	7.207	1092.842	805.336
6.644	2.223	1071.021	764.307
7.659	1.783	1068.284	760.090
8.673	1.728	1066.664	758.597
9.688	1.567	1065.491	756.892
10.702	1.908	1064.266	757.651
11.717	8.386	1074.020	796.931
12.731	19.243	1089.397	862.938
13.746	24.371	1095.897	893.774
14.761	25.056	1096.643	897.737
15.775	25.141	1095.772	897.367
16.790	24.823	1095.438	895.422
17.804	24.741	1094.398	894.086
18.819	25.004	1093.942	894.945
19.834	25.085	1093.736	895.102
20.848	25.201	1092.953	894.962
21.863	25.122	1092.503	894.119
22.877	25.037	1091.946	893.163
23.892	24.994	1091.203	892.261
24.907	25.037	1090.621	891.920
25.921	24.968	1089.077	890.237
26.936	25.064	1087.558	889.392
27.950	25.092	1086.396	888.504
28.965	24.836	1084.829	885.874
29.980	24.935	1082.735	884.574
30.994	25.008	1082.608	884.756
32.009	25.139	1080.940	883.958
33.023	24.844	1080.317	881.916
34.038	24.968	1079.339	881.649
35.053	25.106	1078.848	881.851
36.067	25.102	1077.587	880.723
37.082	25.083	1077.396	880.395
38.096	25.217	1076.414	880.173
39.111	25.423	1075.691	880.512
40.126	25.153	1074.486	878.128
41.140	24.910	1072.342	875.108
42.155	24.606	1071.181	872.600
43.169	24.662	1070.466	872.215
44.184	24.585	1069.855	871.265
45.199	24.639	1068.222	870.120
46.213	24.622	1067.653	869.494
47.228	24.809	1067.140	869.909
48.242	24.968	1065.956	869.640
49.257	24.953	1065.475	869.098
50.271	25.145	1064.712	869.332
51.286	25.138	1064.068	868.693
52.301	25.168	1062.758	867.693
53.315	25.059	1062.021	866.486
54.330	24.986	1061.276	865.451
55.344	25.053	1059.998	864.656
56.359	25.014	1059.110	863.667
57.374	24.804	1058.340	861.947
58.388	24.723	1058.060	861.253
59.403	24.730	1057.069	860.408
60.417	24.720	1055.685	859.156
61.432	24.716	1055.486	858.896
62.447	24.741	1054.481	858.126
63.461	24.847	1053.852	858.044
64.476	24.678	1053.211	856.636
65.490	24.717	1051.761	855.569
66.505	24.831	1051.069	855.476
67.520	24.787	1050.440	854.676
68.534	24.594	1049.500	852.916
69.549	24.241	1048.382	850.245
70.563	24.279	1047.629	849.741
71.578	24.309	1046.756	849.104
72.593	23.904	1046.198	846.647
73.607	24.268	1045.231	847.519
74.622	24.622	1045.036	848.968
75.636	24.550	1044.304	847.955
76.651	24.339	1043.408	846.155
77.666	24.358	1042.284	845.256
78.680	24.494	1042.005	845.603
79.695	24.413	1041.509	844.740
80.709	24.538	1040.784	844.668
81.724	24.642	1039.839	844.319
82.739	24.640	1039.413	843.889
83.753	25.106	1038.569	845.325
84.768	25.285	1038.196	845.793
85.782	25.309	1037.464	845.234
86.797	25.279	1036.233	844.014
87.812	25.076	1035.518	842.403
88.826	25.227	1034.341	842.081
89.841	25.291	1033.248	841.417
90.855	25.404	1032.207	841.023
91.870	25.273	1031.426	839.700
92.884	25.242	1029.900	838.236
93.899	25.094	1029.151	836.862
94.914	25.235	1028.787	837.151
95.928	25.065	1027.374	835.134
96.943	24.785	1026.465	833.016
97.957	24.664	1025.102	831.278
98.972	24.446	1024.101	829.376
99.987	24.850	1023.601	830.774
101.001	25.085	1022.597	830.979
102.016	25.011	1021.831	829.938
103.030	25.032	1020.641	828.995
104.045	24.668	1019.984	826.707
105.060	24.619	1019.030	825.634
106.074	24.780	1018.579	825.936
107.089	25.130	1018.154	827.133
108.103	25.019	1016.659	825.334
109.118	24.823	1015.230	823.202
110.133	24.803	1014.446	822.398
111.147	24.506	1013.388	820.105
112.162	24.391	1012.724	818.966
113.176	24.683	1012.188	819.804
114.191	24.731	1010.755	818.786
115.206	24.318	1009.828	816.074
116.220	24.453	1008.772	815.769
117.235	24.390	1008.528	815.210
118.249	24.466	1007.321	814.508
119.264	24.372	1006.549	813.385
120.279	24.369	1005.962	812.824
121.293	24.365	1005.222	812.134
122.308	24.384	1004.307	811.412
123.322	24.254	1003.285	809.923
124.337	24.114	1002.151	808.302
125.352	23.721	1000.113	804.806
126.366	23.749	999.335	804.235
127.381	24.497	999.456	807.647
128.395	24.896	999.213	809.181
129.410	25.021	998.207	808.859
130.424	24.957	997.448	807.884
131.439	25.008	996.388	807.185
132.454	25.051	995.160	806.312
133.468	24.814	994.460	804.606
134.483	24.999	993.977	804.975
135.497	25.174	993.330	805.166
136.512	25.248	992.241	804.544
137.527	25.151	991.499	803.436
138.541	25.158	990.788	802.823
139.556	25.220	990.009	802.395
140.570	25.375	988.883	802.107
141.585	25.311	988.148	801.154
142.600	25.328	986.848	800.104
143.614	25.393	986.433	799.987
144.629	25.599	985.642	800.189
145.643	25.429	984.236	798.222
146.658	25.241	982.723	796.089
147.673	25.159	982.118	795.166
148.687	25.048	980.773	793.517
149.702	24.922	980.162	792.393
150.716	24.872	979.457	791.535
151.731	25.029	978.618	791.481
152.746	25.236	978.007	791.829
153.760	25.472	977.059	792.029
154.775	25.354	976.718	791.163
155.789	25.295	975.859	790.139
156.804	25.448	974.717	789.818
157.819	25.341	974.360	788.986
158.833	25.524	973.336	788.891
159.848	25.428	972.737	787.913
160.862	25.235	971.303	785.838
161.877	25.351	969.976	785.203
162.892	25.408	968.890	784.506
163.906	25.232	968.150	783.069
164.921	25.318	967.381	782.752
165.935	25.489	966.177	782.453
166.950	25.323	965.892	781.428
167.964	25.401	964.638	780.684
168.979	25.213	963.580	778.941
169.994	25.228	962.735	778.257
171.008	25.475	962.140	778.776
172.023	25.430	961.655	778.122
173.037	25.333	960.177	776.437
174.052	25.147	959.225	774.795
175.067	25.016	958.958	773.944
176.081	25.160	958.578	774.190
177.096	25.178	957.624	773.430
178.110	24.988	956.336	771.501
179.125	24.607	956.190	769.674
180.140	24.730	955.737	769.774
181.154	24.876	955.424	770.082
182.169	25.189	955.148	771.137
183.183	25.411	954.591	771.570
184.198	25.322	953.744	770.436
185.213	25.249	952.802	769.295
186.227	25.444	952.453	769.778
187.242	25.391	951.788	768.949
188.256	25.680	950.454	769.036
189.271	25.535	950.242	768.180
190.286	25.076	949.160	765.278
191.300	24.460	947.514	761.257
192.315	23.613	946.288	756.594
193.329	23.600	945.862	756.131
194.344	24.645	945.885	760.533
195.359	25.137	946.088	762.722
196.373	25.213	945.680	762.649
197.388	25.146	945.144	761.862
198.402	25.181	944.388	761.334
199.417	25.201	943.670	760.773
200.432	25.047	942.337	758.980
201.446	24.816	941.691	757.414
202.461	24.893	941.156	757.243
203.475	24.207	939.088	752.616
204.490	23.270	938.006	747.728
205.504	24.207	938.358	751.898
206.519	24.711	938.380	753.974
207.534	24.790	938.056	753.981
208.548	25.212	937.794	755.482
209.563	25.022	936.737	753.762
210.577	25.183	935.668	753.513
211.592	25.525	935.213	754.513
212.607	25.359	935.277	753.804
213.621	25.384	934.585	753.285
214.636	25.382	933.521	752.352
215.650	25.164	932.843	750.827
216.665	25.551	931.892	751.610
217.680	25.345	931.383	750.272
218.694	24.939	930.662	747.933
219.709	24.850	929.659	746.689
220.723	25.124	929.352	747.520
221.738	25.218	928.456	747.124
222.753	25.071	928.535	746.506
223.767	25.351	927.712	746.946
224.782	25.468	927.555	747.240
225.796	25.556	926.690	746.841
226.811	24.856	925.174	742.649
227.826	24.199	923.736	738.706
228.840	24.335	923.652	739.138
229.855	24.484	922.680	738.914
230.869	23.999	922.074	736.356
231.884	24.386	921.726	737.613
232.899	25.281	921.975	741.446
233.913	25.146	921.235	740.228
234.928	25.133	920.255	739.321
235.942	25.237	919.370	738.972
236.957	24.657	918.910	736.149
237.972	24.710	918.386	735.884
238.986	24.967	917.628	736.269
240.001	24.765	917.158	734.996
241.015	24.992	916.273	735.152
242.030	25.171	915.943	735.558
243.045	25.194	915.701	735.391
244.059	25.251	915.494	735.395
245.074	25.090	914.709	734.037
246.088	24.951	913.375	732.334
247.103	25.114	913.065	732.687
248.117	25.496	913.657	734.660
249.132	25.958	912.881	735.857
250.147	25.902	912.408	735.180
251.161	26.182	911.752	735.729
252.176	26.172	911.254	735.222
253.190	26.122	910.779	734.571
254.205	26.224	910.572	734.753
255.220	26.347	909.419	734.258
256.234	26.055	908.807	732.514
257.249	26.118	908.126	732.154
258.263	26.059	907.353	731.229
259.278	26.098	906.741	730.826
260.293	26.267	906.227	731.034
261.307	26.029	905.615	729.511
262.322	26.087	904.230	728.567
263.336	25.018	902.856	723.082
264.351	24.167	900.585	717.773
265.366	24.243	900.589	718.017
266.380	25.291	901.383	722.810
267.395	25.640	901.259	724.052
268.409	25.720	899.885	723.207
269.424	25.939	899.535	723.740
270.439	25.834	899.307	723.070
271.453	25.992	898.836	723.263
272.468	26.081	898.586	723.352
273.482	26.263	897.949	723.507
274.497	25.811	896.784	720.695
275.512	25.370	895.797	718.074
276.526	25.796	895.811	719.724
277.541	26.070	895.574	720.566
278.555	25.654	894.904	718.304
279.570	25.684	893.781	717.458
280.585	25.967	892.935	717.841
281.599	25.748	892.588	716.629
282.614	25.201	891.099	713.194
283.628	25.056	891.091	712.549
284.643	25.509	890.258	713.618
285.657	25.094	889.312	711.151
286.672	24.860	888.541	709.546
287.687	25.486	888.315	711.781
288.701	25.342	887.729	710.677
289.716	25.195	887.162	709.581
290.730	25.042	886.561	708.433
291.745	24.994	885.112	707.022
292.760	25.189	885.190	707.790
293.774	26.242	885.624	712.230
294.789	26.524	885.256	712.980
295.803	26.391	884.646	711.904
296.818	26.558	883.969	711.952
297.833	25.963	882.960	708.740
298.847	25.803	882.304	707.522
299.862	26.217	882.166	708.973
300.876	26.381	882.023	709.439
301.891	26.359	880.987	708.455
302.906	25.982	879.987	706.116
303.920	26.171	879.673	706.538
304.935	26.408	879.593	707.340
305.949	26.311	878.474	705.999
306.964	26.126	878.061	704.882
307.979	26.107	877.516	704.308
308.993	26.705	876.966	706.136
310.008	26.627	876.717	705.570
311.022	26.199	876.070	703.321
312.037	26.264	875.109	702.737
313.052	25.877	874.135	700.391
314.066	25.057	872.563	695.887
315.081	24.692	871.965	693.932
316.095	25.570	872.703	697.866
317.110	26.139	872.249	699.647
318.125	25.257	870.440	694.722
319.139	24.219	868.918	689.430
320.154	24.075	868.804	688.723
321.168	25.201	869.012	693.181
322.183	25.790	869.313	695.637
323.197	26.031	868.724	696.033
324.212	26.179	868.631	696.466
325.227	26.148	868.178	695.922
326.241	26.104	867.045	694.783
327.256	25.995	866.539	693.898
328.270	25.809	865.961	692.658
329.285	25.760	865.007	691.646
330.300	25.537	863.793	689.759
331.314	25.875	863.687	690.908
332.329	26.169	863.861	692.116
333.343	26.285	863.325	692.068
334.358	26.357	863.068	692.077
335.373	26.238	863.149	691.624
336.387	26.564	862.948	692.650
337.402	26.806	862.557	693.198
338.416	26.764	861.853	692.411
339.431	26.756	862.010	692.445
340.446	26.978	861.274	692.640
341.460	26.960	860.760	692.098
342.475	26.539	860.543	690.257
343.489	26.810	860.021	690.810
344.504	26.907	859.986	691.091
345.519	27.128	859.469	691.454
346.533	27.191	858.932	691.199
347.548	27.128	858.412	690.483
348.562	27.006	857.663	689.355
349.577	26.934	857.150	688.609
350.592	26.998	856.759	688.478
351.606	27.053	856.231	688.200
352.621	27.033	854.450	686.630
353.635	26.811	854.183	685.518
354.650	26.112	852.711	681.636
355.665	25.330	850.897	677.179
356.679	25.712	850.730	678.424
357.694	26.200	850.452	679.981
358.708	25.942	850.113	678.679
359.723	26.404	850.021	680.285
360.738	26.730	849.511	681.042
361.752	26.848	848.837	680.883
362.767	27.169	848.792	681.990
363.781	27.509	848.318	682.825
364.796	27.518	848.198	682.700
365.810	27.615	847.366	682.337
366.825	27.550	847.013	681.746
367.840	27.132	846.243	679.503
368.854	26.788	845.270	677.378
369.869	26.927	844.817	677.472
370.883	26.778	844.714	676.774
371.898	26.715	843.988	675.898
372.913	26.807	843.974	676.172
373.927	26.868	843.560	676.008
374.942	27.043	843.230	676.335
375.956	27.148	842.616	676.174
376.971	27.302	842.187	676.341
377.986	27.409	841.920	676.463
379.000	27.494	841.113	676.071
380.015	27.149	840.550	674.280
381.029	27.381	839.936	674.585
382.044	27.357	839.626	674.188
383.059	27.272	839.086	673.381
384.073	27.347	838.526	673.149
385.088	27.372	837.655	672.484
386.102	27.064	837.257	670.967
387.117	27.101	836.129	670.138
388.132	26.785	835.001	668.012
389.146	26.218	834.601	665.545
390.161	26.757	834.470	667.366
391.175	27.066	834.225	668.250
392.190	26.909	832.745	666.426
393.205	25.471	830.341	659.173
394.219	24.024	828.736	652.541
395.234	23.792	828.553	651.488
396.248	25.318	830.458	658.531
397.263	26.974	831.545	665.409
398.278	27.030	830.612	664.809
399.292	26.646	829.936	662.804
400.307	26.707	829.495	662.617
401.321	26.731	828.775	662.071
402.336	27.165	828.982	663.765
403.350	27.683	828.807	665.455
404.365	27.915	828.556	666.041
405.380	28.113	828.451	666.618
406.394	28.243	827.803	666.514
407.409	28.038	827.171	665.200
408.423	28.019	827.037	664.964
409.438	28.086	826.944	665.072
410.453	28.257	825.953	664.839
411.467	28.114	825.408	663.822
412.482	28.356	824.708	664.077
413.496	28.289	825.037	664.039
414.511	28.232	824.582	663.410
415.526	28.271	823.928	662.965
416.540	27.918	823.656	661.410
417.555	27.698	822.897	659.946
418.569	27.748	822.235	659.537
419.584	27.899	821.432	659.381
420.599	27.633	821.211	658.185
421.613	103.750	1281.208	1432.754
422.628	89.744	1348.232	1432.880
