DTS Sentinel unit serial number:	SN413079Multiplexer serial number:	ORYXHardware model number:	OX4-SRSoftware version number:	ORYX F/W v4.00 Oryx Data Collector v3.7.2.0data status	okinstallation	princeton_trtdifferential loss correction	single-endedforward channel	channel 1reverse channel	N/Adate	2019/09/19time	03:50:35forward acquisition time	60.00reverse acquisition time	0.00gamma	496.2192k internal	0.2343k external	0.2343temperature offset calibration	1.0018default loss term (dB/km)	0.3790temperature slope calibration	1.0000multiplexer offset coefficient	1.0000multiplexer slope coefficient	1.0000fibre end	0.00T internal ref (°C)	20.50T ext. ref 1 (°C)	0.64T ext. ref 2 (°C)	14.36length (m)	temperature (°C)	Stokes	anti-Stokes-747.200	580.458	0.071	-0.175
-746.185	-98.195	-0.104	-0.027
-745.171	-62.174	0.163	-0.068
-744.156	173.489	0.037	-0.054
-743.142	-51.867	0.307	0.143
-742.127	-130.093	-0.292	0.040
-741.112	138.574	-0.079	0.104
-740.098	-200.000	-0.018	0.226
-739.083	15.425	0.241	0.189
-738.069	105.788	-0.113	-0.134
-737.054	-51.884	-0.113	-0.053
-736.039	-200.000	-0.002	-0.328
-735.025	800.000	0.073	-0.314
-734.010	-42.280	-0.197	-0.101
-732.996	800.000	-0.050	0.210
-731.981	17.247	-0.152	0.121
-730.966	-200.000	-0.010	-0.103
-729.952	-17.156	-0.109	-0.069
-728.937	60.110	-0.183	0.181
-727.923	594.951	0.099	-0.245
-726.908	-107.957	0.186	0.040
-725.894	-200.000	0.003	-0.035
-724.879	111.096	-0.101	0.122
-723.864	-116.492	-0.183	0.034
-722.850	-200.000	0.035	0.167
-721.835	758.828	0.086	-0.233
-720.821	-12.184	-0.157	0.103
-719.806	149.278	-0.031	0.042
-718.791	-103.932	-0.295	0.069
-717.777	-25.742	0.069	0.041
-716.762	-121.238	0.205	-0.034
-715.748	-29.747	-0.098	-0.056
-714.733	280.334	-0.149	0.266
-713.718	800.000	0.086	0.279
-712.704	355.614	-0.089	0.176
-711.689	800.000	0.091	-0.370
-710.675	154.515	0.039	0.053
-709.660	-80.605	-0.193	0.064
-708.645	323.440	-0.082	-0.157
-707.631	20.394	-0.250	0.202
-706.616	601.476	-0.118	0.293
-705.602	-138.438	0.209	-0.023
-704.587	800.000	-0.080	0.257
-703.572	-72.609	-0.261	0.096
-702.558	26.492	0.159	0.133
-701.543	-79.916	0.176	0.059
-700.529	800.000	0.029	-0.118
-699.514	-105.991	0.450	-0.101
-698.499	652.448	0.105	-0.270
-697.485	380.895	0.036	-0.075
-696.470	-200.000	-0.024	-0.154
-695.456	37.244	0.061	0.054
-694.441	209.509	-0.166	0.259
-693.426	-6.822	-0.095	-0.065
-692.412	-177.003	0.215	0.005
-691.397	-110.100	0.260	0.054
-690.383	643.851	0.032	-0.080
-689.368	-28.322	-0.077	0.044
-688.354	-42.623	-0.292	0.149
-687.339	-200.000	0.007	-0.243
-686.324	352.727	-0.170	-0.336
-685.310	37.810	-0.248	-0.220
-684.295	122.853	-0.096	-0.120
-683.281	778.482	0.065	-0.177
-682.266	105.191	0.150	-0.177
-681.251	-154.896	-0.476	0.031
-680.237	-39.425	0.190	-0.099
-679.222	-143.988	0.201	0.019
-678.208	378.397	-0.111	-0.227
-677.193	470.735	0.076	-0.171
-676.178	-11.310	0.162	-0.106
-675.164	-200.000	-0.039	0.300
-674.149	-170.859	-0.028	0.001
-673.135	800.000	-0.007	0.023
-672.120	155.160	0.131	0.181
-671.105	111.010	-0.090	-0.108
-670.091	406.314	-0.094	-0.199
-669.076	235.848	-0.169	-0.280
-668.062	-200.000	-0.040	-0.215
-667.047	800.000	0.002	-0.009
-666.032	-200.000	0.013	-0.270
-665.018	35.973	0.202	-0.178
-664.003	79.423	-0.112	-0.119
-662.989	-5.818	0.247	-0.169
-661.974	431.027	0.101	-0.219
-660.959	-55.742	-0.399	0.178
-659.945	78.262	0.068	-0.073
-658.930	356.035	0.097	0.192
-657.916	-200.000	-0.019	0.358
-656.901	-200.000	-0.003	-0.022
-655.886	-0.815	-0.256	0.181
-654.872	-103.096	-0.177	0.042
-653.857	-200.000	-0.043	0.191
-652.843	165.356	-0.282	0.397
-651.828	299.179	0.089	0.163
-650.814	-192.454	0.379	-0.004
-649.799	722.208	-0.023	-0.061
-648.784	9.839	0.317	-0.240
-647.770	-67.258	0.092	0.036
-646.755	-81.483	-0.198	-0.065
-645.741	431.796	-0.225	0.486
-644.726	209.355	0.265	0.415
-643.711	-153.426	-0.187	0.013
-642.697	800.000	-0.064	0.178
-641.682	-65.172	-0.328	-0.132
-640.668	-200.000	-0.001	-0.056
-639.653	-125.853	0.229	0.034
-638.638	-200.000	0.004	-0.180
-637.624	800.000	-0.062	-0.214
-636.609	418.446	-0.138	-0.295
-635.595	-91.053	0.085	0.024
-634.580	519.426	-0.029	0.069
-633.565	-15.310	0.157	0.100
-632.551	695.176	-0.213	-0.559
-631.536	589.157	-0.101	-0.248
-630.522	27.562	0.104	-0.088
-629.507	-74.382	-0.106	0.038
-628.492	339.556	0.032	0.062
-627.478	-200.000	-0.020	-0.104
-626.463	-86.537	-0.430	-0.132
-625.449	800.000	0.084	-0.301
-624.434	-200.000	-0.075	-0.390
-623.419	-200.000	0.026	0.464
-622.405	-86.861	-0.123	0.038
-621.390	800.000	-0.113	0.436
-620.376	-64.324	-0.055	-0.022
-619.361	-18.353	-0.357	0.223
-618.346	-51.744	-0.134	0.062
-617.332	-200.000	-0.033	-0.364
-616.317	511.845	0.105	-0.245
-615.303	304.644	-0.039	0.072
-614.288	-108.932	-0.429	-0.091
-613.273	-82.818	-0.081	-0.026
-612.259	696.944	-0.026	-0.069
-611.244	7.403	0.282	0.210
-610.230	-136.343	-0.377	0.044
-609.215	-200.000	0.002	-0.170
-608.201	-95.686	-0.200	-0.053
-607.186	-86.252	0.025	-0.008
-606.171	-200.000	-0.011	-0.118
-605.157	464.723	-0.195	0.435
-604.142	114.366	0.190	-0.230
-603.128	-0.065	-0.242	-0.172
-602.113	-114.891	-0.467	-0.089
-601.098	28.018	0.167	0.140
-600.084	-92.904	0.340	0.095
-599.069	-10.756	-0.031	-0.020
-598.055	-148.680	0.107	0.009
-597.040	-131.726	0.131	0.017
-596.025	-200.000	0.010	0.216
-595.011	-42.347	0.207	-0.105
-593.996	79.417	-0.105	-0.112
-592.982	-200.000	0.002	0.228
-591.967	-138.050	0.247	0.027
-590.952	-123.510	0.205	0.032
-589.938	-200.000	-0.084	-0.390
-588.923	-85.334	-0.154	-0.048
-587.909	-35.685	-0.231	0.125
-586.894	218.820	0.019	0.030
-585.879	216.970	-0.117	-0.186
-584.865	627.903	-0.051	-0.129
-583.850	470.421	0.090	-0.202
-582.836	67.622	0.136	-0.138
-581.821	-64.607	0.173	-0.070
-580.806	101.837	-0.178	-0.207
-579.792	-132.935	0.190	-0.024
-578.777	-200.000	-0.052	-0.602
-577.763	-200.000	0.031	-0.271
-576.748	13.312	-0.158	0.122
-575.733	11.213	-0.056	0.043
-574.719	-81.704	0.230	0.075
-573.704	208.951	-0.008	0.012
-572.690	-93.197	0.401	0.111
-571.675	-159.094	0.059	0.003
-570.661	-200.000	-0.006	0.054
-569.646	71.536	-0.294	0.304
-568.631	138.151	0.049	-0.064
-567.617	-60.170	0.390	0.165
-566.602	24.437	-0.191	-0.157
-565.588	194.515	0.165	0.248
-564.573	800.000	-0.122	-0.364
-563.558	73.545	0.186	-0.193
-562.544	800.000	0.013	0.039
-561.529	-130.761	0.180	0.024
-560.515	-15.869	0.112	-0.071
-559.500	800.000	0.038	-0.146
-558.485	800.000	-0.053	0.170
-557.471	800.000	0.044	0.127
-556.456	-122.993	0.413	-0.066
-555.442	164.802	0.109	-0.153
-554.427	412.483	-0.048	0.102
-553.412	260.235	0.108	0.185
-552.398	184.326	-0.244	0.359
-551.383	800.000	0.078	-0.228
-550.369	-200.000	-0.194	-0.001
-549.354	-36.494	0.421	-0.225
-548.339	296.057	0.046	-0.084
-547.325	-50.634	0.556	-0.261
-546.310	265.534	0.181	0.313
-545.296	86.493	-0.134	0.147
-544.281	-21.932	-0.303	-0.183
-543.266	359.486	-0.089	-0.178
-542.252	329.245	-0.094	0.179
-541.237	-200.000	-0.022	-0.218
-540.223	-200.000	-0.052	0.230
-539.208	-100.365	-0.116	-0.029
-538.193	-200.000	0.023	0.179
-537.179	-107.119	0.113	0.025
-536.164	-99.020	0.323	-0.081
-535.150	-69.620	-0.372	0.141
-534.135	128.464	0.037	-0.047
-533.121	306.112	-0.130	-0.241
-532.106	-52.045	0.188	-0.087
-531.091	-200.000	0.028	0.196
-530.077	-200.000	0.059	-0.278
-529.062	540.517	-0.061	0.145
-528.048	-23.501	-0.173	-0.103
-527.033	-81.432	-0.313	0.102
-526.018	-86.844	-0.276	-0.084
-525.004	35.947	0.100	-0.088
-523.989	234.857	-0.067	-0.109
-522.975	296.272	0.121	-0.220
-521.960	-136.333	-0.456	0.053
-520.945	-133.046	-0.027	0.003
-519.931	320.826	-0.151	-0.284
-518.916	-31.747	0.101	-0.056
-517.902	-200.000	-0.039	-0.189
-516.887	-148.030	-0.131	-0.011
-515.872	18.209	-0.155	-0.123
-514.858	42.081	0.241	0.217
-513.843	-131.423	-0.201	0.026
-512.829	-200.000	0.014	0.297
-511.814	-103.756	-0.590	0.137
-510.799	-140.655	-0.387	0.040
-509.785	506.150	-0.091	0.210
-508.770	47.267	-0.072	-0.067
-507.756	164.657	0.103	-0.144
-506.741	-200.000	0.004	0.425
-505.726	-200.000	0.022	-0.366
-504.712	-127.350	0.145	-0.021
-503.697	-93.806	0.177	0.048
-502.683	-93.233	0.089	0.025
-501.668	-156.294	-0.113	0.007
-500.653	15.024	-0.265	-0.206
-499.639	-29.872	-0.332	0.188
-498.624	-85.760	-0.338	-0.104
-497.610	43.400	0.227	0.206
-496.595	278.311	-0.236	0.417
-495.581	-200.000	0.047	-0.205
-494.566	800.000	0.052	0.160
-493.551	-50.528	-0.228	-0.107
-492.537	109.529	-0.199	0.237
-491.522	177.170	-0.116	-0.167
-490.508	-200.000	-0.007	0.102
-489.493	66.111	-0.187	0.188
-488.478	426.850	-0.056	0.121
-487.464	-200.000	-0.033	0.156
-486.449	-162.986	-0.174	0.008
-485.435	0.863	0.145	0.103
-484.420	-200.000	-0.003	0.072
-483.405	370.523	-0.184	0.369
-482.391	-171.935	0.239	-0.008
-481.376	-1.903	-0.075	0.052
-480.362	79.957	-0.212	-0.225
-479.347	-37.854	0.205	-0.108
-478.332	800.000	0.108	0.308
-477.318	-200.000	0.052	0.304
-476.303	98.468	0.050	0.057
-475.289	27.690	-0.093	0.078
-474.274	6.994	0.182	0.134
-473.259	-200.000	0.020	-0.141
-472.245	-157.336	-0.174	0.010
-471.230	-200.000	0.081	-0.406
-470.216	-11.737	0.082	0.053
-469.201	-58.408	-0.052	-0.022
-468.186	800.000	-0.028	-0.088
-467.172	-18.590	0.326	0.201
-466.157	-200.000	-0.063	-0.323
-465.143	130.111	-0.142	-0.181
-464.128	-69.341	0.287	0.109
-463.113	57.390	0.149	-0.144
-462.099	-136.862	-0.218	-0.025
-461.084	-15.743	-0.143	-0.090
-460.070	-200.000	0.005	0.203
-459.055	136.243	-0.114	-0.148
-458.040	-135.582	0.158	0.019
-457.026	106.895	-0.120	-0.141
-456.011	800.000	-0.075	0.272
-454.997	-174.706	-0.330	0.009
-453.982	9.198	0.154	-0.115
-452.968	14.120	-0.139	-0.107
-451.953	-99.396	-0.101	-0.025
-450.938	-200.000	-0.023	0.386
-449.924	-59.660	-0.070	-0.030
-448.909	-32.064	0.253	0.140
-447.895	-200.000	0.073	0.506
-446.880	-106.138	0.237	0.053
-445.865	19.940	0.115	-0.092
-444.851	-76.297	0.189	0.066
-443.836	-138.667	-0.226	0.025
-442.822	104.227	0.156	-0.182
-441.807	800.000	0.039	0.167
-440.792	-200.000	0.023	-0.156
-439.778	-7.743	-0.076	0.050
-438.763	-154.706	-0.193	0.013
-437.749	800.000	-0.045	0.155
-436.734	89.008	0.148	-0.163
-435.719	-77.028	0.030	-0.011
-434.705	97.576	-0.145	0.165
-433.690	33.855	0.295	0.254
-432.676	-122.853	0.231	-0.037
-431.661	-200.000	-0.024	0.222
-430.646	-200.000	-0.027	-0.119
-429.632	-102.346	0.159	-0.038
-428.617	-44.132	-0.226	0.112
-427.603	-81.491	0.192	0.063
-426.588	-106.573	-0.341	-0.075
-425.573	122.374	-0.017	0.021
-424.559	759.917	0.057	-0.152
-423.544	504.126	-0.203	0.466
-422.530	33.812	-0.196	0.169
-421.515	194.308	0.206	0.309
-420.500	-200.000	-0.044	-0.250
-419.486	-200.000	0.019	0.403
-418.471	800.000	-0.057	0.167
-417.457	58.151	0.162	0.157
-416.442	-18.243	-0.262	0.162
-415.428	-56.386	0.143	-0.063
-414.413	-125.545	-0.462	-0.069
-413.398	281.689	-0.076	0.134
-412.384	-200.000	-0.031	0.377
-411.369	452.862	0.187	-0.410
-410.355	-26.962	-0.195	0.112
-409.340	155.979	-0.169	0.231
-408.325	-98.515	0.127	0.032
-407.311	-89.456	0.365	0.106
-406.296	56.012	0.332	-0.319
-405.282	-23.998	-0.158	-0.093
-404.267	-99.237	0.318	-0.079
-403.252	800.000	0.079	-0.299
-402.238	-173.626	0.288	0.009
-401.223	-146.862	-0.189	0.016
-400.209	-113.286	0.142	0.028
-399.194	-67.286	0.255	0.099
-398.179	-3.072	0.083	0.057
-397.165	800.000	-0.096	-0.337
-396.150	-68.955	0.297	-0.113
-395.136	-99.797	0.143	0.035
-394.121	546.039	-0.071	0.167
-393.106	31.549	0.370	-0.314
-392.092	109.314	0.129	0.153
-391.077	167.533	0.289	0.405
-390.063	-106.047	0.069	-0.015
-389.048	408.172	0.058	-0.120
-388.033	-200.000	0.018	0.360
-387.019	-18.215	0.079	0.049
-386.004	254.234	-0.197	-0.332
-384.990	800.000	0.049	0.163
-383.975	220.487	0.126	-0.200
-382.960	224.984	-0.148	-0.236
-381.946	271.222	0.180	0.314
-380.931	-79.725	0.115	0.038
-379.917	-200.000	-0.010	0.292
-378.902	-38.385	-0.167	0.087
-377.888	-130.645	-0.392	0.052
-376.873	135.421	0.092	-0.119
-375.858	800.000	0.168	-0.556
-374.844	-200.000	0.005	-0.054
-373.829	46.591	-0.216	-0.198
-372.815	-48.611	0.171	0.081
-371.800	-200.000	0.053	-0.240
-370.785	157.231	0.087	-0.119
-369.771	-200.000	-0.007	0.066
-368.756	-155.936	-0.211	0.013
-367.742	-32.821	-0.144	0.079
-366.727	-6.044	0.114	0.077
-365.712	-33.215	-0.082	-0.045
-364.698	58.770	-0.217	0.211
-363.683	301.362	0.081	0.147
-362.669	-72.081	-0.448	0.164
-361.654	7.337	0.225	-0.165
-360.639	140.015	0.159	0.207
-359.625	-200.000	0.001	0.447
-358.610	800.000	-0.046	0.188
-357.596	-76.911	-0.214	-0.074
-356.581	-5.423	-0.177	0.120
-355.566	-200.000	0.003	-0.067
-354.552	75.341	0.092	0.095
-353.537	-200.000	0.012	-0.073
-352.523	-166.769	0.098	-0.004
-351.508	-82.944	0.196	0.062
-350.493	56.773	0.083	-0.080
-349.479	50.370	-0.385	0.358
-348.464	-72.809	-0.148	0.054
-347.450	-1.714	-0.104	0.072
-346.435	30.295	-0.397	-0.335
-345.420	-200.000	-0.002	0.022
-344.406	-200.000	0.003	0.080
-343.391	800.000	0.071	0.237
-342.377	-50.546	0.114	0.053
-341.362	8.187	-0.004	-0.003
-340.348	-200.000	-0.054	0.303
-339.333	2.616	-0.084	0.060
-338.318	16.354	-0.146	-0.113
-337.304	-13.277	0.092	0.059
-336.289	-111.262	0.250	-0.050
-335.275	800.000	0.025	-0.104
-334.260	-55.544	0.063	0.028
-333.245	-130.781	0.525	-0.069
-332.231	-157.920	0.064	0.004
-331.216	-200.000	-0.007	0.128
-330.202	-200.000	-0.009	-0.301
-329.187	185.384	0.313	-0.457
-328.172	-102.131	-0.256	-0.061
-327.158	-75.373	-0.156	-0.055
-326.143	20.927	-0.203	0.162
-325.129	-153.505	0.268	0.018
-324.114	800.000	-0.064	-0.259
-323.099	89.948	0.133	0.146
-322.085	-52.713	0.169	-0.077
-321.070	-107.627	-0.113	-0.024
-320.056	722.124	0.014	-0.037
-319.041	-200.000	0.065	0.345
-318.026	-39.043	0.341	-0.177
-317.012	6.632	0.303	-0.222
-315.997	86.423	-0.220	-0.239
-314.983	634.045	-0.006	-0.016
-313.968	235.051	0.014	0.022
-312.953	-106.605	-0.241	-0.053
-311.939	-200.000	-0.005	-0.256
-310.924	97.321	-0.209	-0.236
-309.910	83.953	0.055	-0.059
-308.895	14.550	0.075	0.058
-307.880	105.780	-0.165	-0.192
-306.866	77.334	0.205	0.215
-305.851	-27.529	-0.168	0.096
-304.837	-200.000	0.024	0.124
-303.822	-200.000	0.019	0.127
-302.807	74.077	-0.332	0.343
-301.793	-149.389	0.086	0.007
-300.778	-98.649	0.144	0.036
-299.764	-66.092	-0.299	0.117
-298.749	309.382	0.155	0.286
-297.735	-59.429	-0.253	-0.107
-296.720	-200.000	-0.016	-0.195
-295.705	-200.000	-0.020	-0.178
-294.691	32.070	0.167	-0.142
-293.676	-47.661	0.151	0.072
-292.662	233.703	0.067	-0.108
-291.647	-142.670	-0.460	-0.044
-290.632	-115.840	0.117	0.022
-289.618	11.092	-0.201	0.151
-288.603	-138.098	0.159	0.017
-287.589	800.000	-0.144	0.574
-286.574	-200.000	-0.010	0.060
-285.559	351.342	-0.067	-0.130
-284.545	-53.128	0.195	0.088
-283.530	13.548	0.152	-0.116
-282.516	-200.000	0.070	-0.341
-281.501	43.202	-0.087	0.078
-280.486	166.021	0.089	0.123
-279.472	49.770	-0.058	0.054
-278.457	234.984	-0.107	0.174
-277.443	-99.762	0.466	-0.115
-276.428	-163.828	0.282	0.013
-275.413	13.296	0.086	-0.066
-274.399	-79.030	-0.281	-0.094
-273.384	220.060	0.167	-0.263
-272.370	800.000	-0.081	-0.312
-271.355	-133.191	-0.212	-0.026
-270.340	2.158	0.031	0.022
-269.326	-136.649	0.094	0.011
-268.311	97.303	-0.181	0.205
-267.297	-200.000	0.033	-0.237
-266.282	-106.016	-0.165	0.036
-265.267	336.852	0.147	0.281
-264.253	223.714	0.149	0.237
-263.238	440.142	0.051	-0.109
-262.224	-200.000	-0.025	-0.291
-261.209	-200.000	-0.035	-0.215
-260.195	-200.000	0.014	-0.245
-259.180	-133.390	0.159	0.020
-258.165	-159.729	-0.204	0.011
-257.151	124.790	-0.155	0.192
-256.136	-157.756	0.329	0.019
-255.122	32.839	0.054	0.046
-254.107	259.384	0.232	-0.393
-253.092	-200.000	0.011	0.194
-252.078	-118.855	0.261	-0.045
-251.063	800.000	-0.088	-0.257
-250.049	298.781	-0.171	-0.308
-249.034	-2.676	0.218	-0.149
-248.019	137.880	0.118	0.152
-247.005	-85.933	0.451	0.137
-245.990	800.000	0.046	0.147
-244.976	-132.459	-0.282	0.036
-243.961	249.934	-0.101	-0.168
-242.946	-55.627	0.037	-0.016
-241.932	-200.000	-0.001	0.138
-240.917	87.628	0.255	0.277
-239.903	800.000	0.074	-0.208
-238.888	347.420	-0.154	-0.298
-237.873	800.000	-0.063	-0.220
-236.859	800.000	-0.116	-0.375
-235.844	800.000	0.072	0.274
-234.830	282.397	-0.376	-0.663
-233.815	-200.000	0.019	-0.254
-232.800	-172.895	-0.204	-0.006
-231.786	-97.791	0.287	-0.073
-230.771	-116.125	0.502	-0.092
-229.757	669.325	-0.037	0.095
-228.742	-159.327	0.033	0.002
-227.727	123.339	0.121	-0.149
-226.713	-93.155	0.084	-0.023
-225.698	10.331	0.165	-0.123
-224.684	-200.000	-0.003	0.445
-223.669	326.220	0.073	0.137
-222.655	14.768	0.221	0.169
-221.640	470.977	-0.141	0.311
-220.625	-29.282	0.124	0.069
-219.611	800.000	0.066	0.275
-218.596	136.209	-0.077	0.099
-217.582	-200.000	-0.011	-0.082
-216.567	333.887	0.061	0.116
-215.552	800.000	0.066	-0.218
-214.538	695.471	-0.037	0.095
-213.523	334.864	0.104	0.197
-212.509	-148.739	0.317	-0.025
-211.494	241.038	-0.160	0.262
-210.479	77.573	0.273	0.285
-209.465	-57.318	0.184	-0.079
-208.450	60.965	-0.154	-0.150
-207.436	129.737	-0.156	0.196
-206.421	-200.000	0.011	0.299
-205.406	800.000	-0.064	0.225
-204.392	399.172	-0.081	0.167
-203.377	-7.913	-0.369	-0.244
-202.363	800.000	-0.091	-0.300
-201.348	-200.000	-0.017	0.109
-200.333	-68.455	-0.221	0.084
-199.319	800.000	0.029	-0.111
-198.304	679.512	0.063	-0.162
-197.290	-107.370	-0.189	0.041
-196.275	-121.407	-0.107	0.017
-195.260	650.775	0.098	0.246
-194.246	-165.304	0.438	0.019
-193.231	800.000	0.097	-0.325
-192.217	-55.068	0.166	-0.073
-191.202	68.928	0.109	0.110
-190.187	800.000	0.038	-0.144
-189.173	-129.666	0.193	0.026
-188.158	-70.895	-0.176	-0.065
-187.144	-200.000	-0.036	-0.300
-186.129	-200.000	-0.035	-0.278
-185.114	192.636	0.109	-0.161
-184.100	288.445	0.129	-0.229
-183.085	-200.000	-0.049	-0.220
-182.071	251.079	0.020	0.033
-181.056	-56.811	0.141	-0.061
-180.042	145.736	-0.093	-0.123
-179.027	119.804	-0.006	0.007
-178.012	36.014	-0.200	0.172
-176.998	29.722	0.188	0.157
-175.983	-59.404	-0.081	-0.034
-174.969	313.312	0.044	-0.082
-173.954	-200.000	0.053	-0.394
-172.939	14.936	0.144	0.111
-171.925	800.000	-0.065	0.277
-170.910	-200.000	0.059	0.322
-169.896	-200.000	0.026	0.119
-168.881	-64.004	0.211	-0.084
-167.866	229.004	0.015	0.024
-166.852	34.115	-0.313	0.267
-165.837	-39.046	0.067	-0.034
-164.823	800.000	0.111	-0.368
-163.808	-200.000	-0.003	-0.360
-162.793	-24.369	0.211	-0.123
-161.779	385.000	-0.161	0.325
-160.764	-107.044	-0.255	-0.055
-159.750	239.132	0.113	0.184
-158.735	447.649	-0.123	0.266
-157.720	-124.535	0.095	-0.015
-156.706	-100.922	-0.159	0.038
-155.691	-7.611	-0.232	-0.153
-154.677	-99.679	0.081	-0.020
-153.662	-149.550	-0.324	-0.025
-152.647	72.757	-0.091	-0.093
-151.633	440.738	0.122	0.261
-150.618	-95.867	0.234	-0.061
-149.604	21.027	0.062	-0.049
-148.589	118.414	0.224	-0.271
-147.574	164.467	-0.112	0.155
-146.560	-96.443	0.278	0.072
-145.545	194.693	0.089	0.132
-144.531	99.526	-0.090	-0.102
-143.516	-200.000	0.001	0.182
-142.502	196.863	0.111	-0.166
-141.487	-123.664	0.476	-0.074
-140.472	340.317	-0.084	0.160
-139.458	34.567	-0.268	-0.229
-138.443	-120.639	0.336	0.056
-137.429	396.556	-0.050	-0.101
-136.414	-124.440	0.412	-0.063
-135.399	327.142	0.036	-0.068
-134.385	-9.974	-0.093	0.060
-133.370	-39.701	-0.349	0.178
-132.356	282.265	0.057	0.100
-131.341	-200.000	0.031	-0.136
-130.326	-69.589	-0.181	0.068
-129.312	-83.384	0.241	0.075
-128.297	-200.000	0.044	-0.477
-127.283	109.451	0.117	-0.137
-126.268	-37.342	-0.131	0.068
-125.253	-130.949	0.359	0.047
-124.239	23.171	-0.332	-0.267
-123.224	-166.309	0.105	0.004
-122.210	-115.564	0.016	0.003
-121.195	89.148	-0.098	0.106
-120.180	-86.208	0.144	-0.043
-119.166	3.218	-0.323	-0.229
-118.151	3.638	0.180	0.128
-117.137	-200.000	-0.063	0.391
-116.122	-112.720	0.444	0.086
-115.107	-61.775	-0.243	0.100
-114.093	800.000	-0.043	-0.125
-113.078	-99.127	-0.450	0.111
-112.064	675.256	-0.147	-0.372
-111.049	800.000	-0.088	0.327
-110.034	-17.970	-0.115	0.070
-109.020	724.950	0.061	-0.159
-108.005	800.000	-0.100	-0.323
-106.991	-127.045	-0.096	0.014
-105.976	38.935	0.013	-0.011
-104.962	379.531	-0.032	-0.063
-103.947	-112.572	0.288	0.056
-102.932	800.000	-0.074	0.260
-101.918	-59.721	0.085	0.036
-100.903	-128.081	-0.291	0.041
-99.889	273.800	0.036	-0.061
-98.874	354.813	-0.054	0.106
-97.859	178.598	0.165	0.235
-96.845	-200.000	-0.082	-0.356
-95.830	211.071	-0.060	-0.093
-94.816	397.333	0.195	-0.397
-93.801	-45.799	0.131	-0.063
-92.786	42.045	-0.164	-0.145
-91.772	634.327	0.133	0.330
-90.757	-91.091	0.254	0.071
-89.743	19.901	0.184	-0.144
-88.728	275.729	-0.084	0.145
-87.713	-89.908	-0.119	0.034
-86.699	-99.413	0.362	0.089
-85.684	-39.058	-0.168	0.086
-84.670	-200.000	-0.002	0.178
-83.655	-147.960	0.292	-0.024
-82.640	296.546	0.086	-0.153
-81.626	800.000	0.069	0.287
-80.611	98.999	0.243	-0.274
-79.597	-84.436	0.221	-0.068
-78.582	-115.932	0.165	-0.030
-77.567	-200.000	-0.022	0.103
-76.553	-200.000	-0.066	-0.463
-75.538	-116.146	0.234	0.042
-74.524	-106.458	-0.324	-0.071
-73.509	-200.000	0.005	0.143
-72.494	-115.083	0.273	-0.051
-71.480	71.558	0.251	-0.254
-70.465	-135.698	-0.223	-0.026
-69.451	509.292	-0.097	0.219
-68.436	6.990	0.122	-0.089
-67.422	334.341	0.078	0.147
-66.407	-200.000	0.030	0.194
-65.392	-200.000	0.027	-0.156
-64.378	-59.390	0.262	0.110
-63.363	-126.672	-0.172	0.025
-62.349	-180.723	-0.155	-0.003
-61.334	85.277	-0.935	-1.000
-60.319	13.788	0.696	0.527
-59.305	800.000	-0.553	-1.501
-58.290	463.631	0.663	1.444
-57.276	800.000	0.594	1.642
-56.261	-200.000	136.507	663.187
-55.246	334.809	1671.482	3156.285
-54.232	134.426	2798.848	3538.023
-53.217	85.373	2171.822	2324.046
-52.203	31.274	1602.555	1340.905
-51.188	23.549	1352.659	1084.736
-50.173	21.432	1316.930	1043.424
-49.159	48.703	1390.331	1270.530
-48.144	44.906	1398.917	1255.013
-47.130	23.742	1346.977	1081.183
-46.115	20.565	1328.295	1047.043
-45.100	20.401	1322.627	1041.550
-44.086	20.372	1320.439	1039.610
-43.071	20.264	1318.166	1037.136
-42.057	20.221	1316.116	1035.227
-41.042	20.427	1314.794	1035.369
-40.027	20.441	1312.473	1033.585
-39.013	20.313	1311.536	1032.046
-37.998	20.278	1309.538	1030.227
-36.984	20.575	1307.469	1030.315
-35.969	20.642	1305.725	1029.301
-34.954	20.590	1303.889	1027.501
-33.940	20.575	1302.562	1026.330
-32.925	20.506	1301.679	1025.186
-31.911	20.508	1299.981	1023.818
-30.896	20.626	1298.400	1023.225
-29.881	20.678	1297.124	1022.484
-28.867	20.624	1295.806	1021.093
-27.852	20.685	1294.581	1020.443
-26.838	20.574	1293.389	1018.812
-25.823	20.720	1291.291	1017.974
-24.809	20.524	1290.572	1016.217
-23.794	20.469	1289.443	1014.971
-22.779	20.487	1288.271	1014.112
-21.765	20.562	1286.386	1013.024
-20.750	20.560	1285.398	1012.192
-19.736	20.482	1284.118	1010.690
-18.721	20.408	1283.191	1009.491
-17.706	20.475	1282.029	1008.926
-16.692	20.493	1280.937	1008.132
-15.677	20.451	1279.532	1006.746
-14.663	20.426	1278.666	1005.877
-13.648	20.383	1277.698	1004.829
-12.633	20.423	1276.366	1003.973
-11.619	20.537	1275.495	1003.905
-10.604	20.571	1274.871	1003.568
-9.590	20.487	1273.939	1002.312
-8.575	20.279	1273.405	1000.655
-7.560	20.441	1272.148	1000.556
-6.546	20.460	1271.463	1000.090
-5.531	20.412	1270.786	999.241
-4.517	20.484	1269.740	998.792
-3.502	20.515	1268.714	998.121
-2.487	20.462	1267.905	997.144
-1.473	20.279	1263.461	992.564
-0.458	18.741	1248.229	971.860
0.556	14.490	1232.759	935.714
1.571	10.747	1241.749	921.265
2.586	10.349	1256.543	929.868
3.600	10.509	1244.532	921.814
4.615	7.929	1172.752	854.732
5.629	3.079	1103.019	779.303
6.644	0.705	1087.565	756.445
7.659	0.594	1085.987	754.725
8.673	0.541	1084.795	753.563
9.688	0.721	1083.472	753.476
10.702	0.721	1081.074	751.746
11.717	3.648	1084.522	768.664
12.731	10.014	1092.754	806.276
13.746	15.402	1099.814	838.404
14.761	17.131	1101.687	848.402
15.775	16.523	1100.036	844.025
16.790	15.580	1097.669	837.433
17.804	14.827	1096.508	832.721
18.819	14.610	1095.073	830.483
19.834	14.270	1094.650	828.395
20.848	14.117	1093.133	826.414
21.863	13.861	1092.385	824.500
22.877	13.650	1091.767	822.916
23.892	13.616	1090.848	821.984
24.907	13.682	1089.918	821.534
25.921	13.721	1089.352	821.227
26.936	13.695	1088.489	820.379
27.950	13.674	1087.656	819.571
28.965	13.688	1086.453	818.666
29.980	13.841	1085.083	818.312
30.994	13.789	1083.884	817.082
32.009	13.797	1083.192	816.526
33.023	13.794	1081.922	815.481
34.038	13.726	1081.102	814.460
35.053	13.683	1080.084	813.409
36.067	13.722	1079.444	813.044
37.082	13.810	1078.136	812.420
38.096	13.808	1077.813	812.092
39.111	13.745	1076.766	810.924
40.126	13.818	1076.009	810.641
41.140	13.759	1074.170	808.893
42.155	13.688	1072.968	807.572
43.169	13.664	1072.254	806.848
44.184	13.577	1071.295	805.633
45.199	13.675	1070.113	805.148
46.213	13.624	1068.935	803.944
47.228	13.727	1067.847	803.550
48.242	13.642	1067.174	802.563
49.257	13.702	1065.989	801.891
50.271	13.721	1065.241	801.347
51.286	13.717	1064.722	800.867
52.301	13.691	1063.298	799.599
53.315	13.668	1062.246	798.630
54.330	13.654	1061.363	797.825
55.344	13.613	1060.522	796.926
56.359	13.682	1059.378	796.325
57.374	13.704	1058.897	796.001
58.388	13.637	1058.078	794.992
59.403	13.629	1056.873	793.979
60.417	13.638	1056.554	793.710
61.432	13.512	1055.498	792.245
62.447	13.476	1054.699	791.402
63.461	13.521	1053.820	790.890
64.476	13.545	1052.984	790.305
65.490	13.670	1052.134	790.194
66.505	13.587	1051.346	789.139
67.520	13.657	1050.508	788.770
68.534	13.498	1050.179	787.700
69.549	13.576	1049.115	787.201
70.563	13.561	1048.373	786.506
71.578	13.569	1047.288	785.659
72.593	13.586	1046.504	785.081
73.607	13.554	1046.152	784.595
74.622	13.440	1045.465	783.473
75.636	13.528	1044.369	782.997
76.651	13.574	1044.010	782.878
77.666	13.588	1043.464	782.463
78.680	13.636	1042.187	781.662
79.695	13.597	1041.876	781.177
80.709	13.620	1041.334	780.810
81.724	13.639	1040.584	780.269
82.739	13.573	1039.689	779.217
83.753	13.755	1038.747	779.298
84.768	13.730	1038.089	778.619
85.782	13.800	1036.784	777.899
86.797	13.777	1036.243	777.316
87.812	13.685	1034.989	775.874
88.826	13.764	1034.444	775.769
89.841	13.651	1033.156	774.205
90.855	13.893	1032.038	774.428
91.870	13.848	1031.071	773.426
92.884	13.879	1030.548	773.108
93.899	13.742	1029.632	771.715
94.914	13.716	1028.904	770.978
95.928	13.809	1027.921	770.606
96.943	13.875	1026.908	770.086
97.957	13.807	1026.574	769.450
98.972	13.739	1025.350	768.149
99.987	13.765	1024.628	767.665
101.001	13.752	1023.749	766.876
102.016	13.828	1022.510	766.230
103.030	13.803	1022.279	765.875
104.045	13.789	1021.277	764.993
105.060	13.908	1019.858	764.409
106.074	13.888	1018.948	763.568
107.089	13.779	1017.922	762.231
108.103	13.691	1017.733	761.619
109.118	13.686	1016.695	760.749
110.133	13.621	1015.612	759.576
111.147	13.692	1014.896	759.298
112.162	13.713	1014.073	758.710
113.176	13.848	1013.180	758.591
114.191	13.753	1012.434	757.534
115.206	13.845	1011.630	757.282
116.220	13.721	1010.969	756.159
117.235	13.727	1009.956	755.360
118.249	13.751	1008.925	754.630
119.264	13.895	1007.686	754.292
120.279	13.801	1007.469	753.633
121.293	13.693	1006.738	752.530
122.308	13.785	1005.735	752.133
123.322	13.802	1004.379	751.131
124.337	13.781	1003.816	750.547
125.352	13.762	1002.267	749.237
126.366	13.708	1001.311	748.211
127.381	13.820	1000.142	747.774
128.395	13.696	999.765	746.869
129.410	13.709	998.589	745.986
130.424	13.727	997.662	745.306
131.439	13.739	997.088	744.863
132.454	13.800	996.396	744.557
133.468	13.793	995.562	743.837
134.483	13.794	994.724	743.149
135.497	13.749	993.508	741.974
136.512	13.687	992.772	741.082
137.527	13.847	991.660	740.898
138.541	13.893	991.206	740.700
139.556	13.804	990.275	739.543
140.570	13.878	989.719	739.391
141.585	13.912	988.869	738.842
142.600	13.977	988.175	738.544
143.614	13.938	987.207	737.586
144.629	13.849	986.203	736.376
145.643	13.891	985.694	736.113
146.658	13.946	984.604	735.481
147.673	13.970	983.558	734.741
148.687	13.866	983.053	733.839
149.702	13.897	981.728	732.919
150.716	13.953	980.983	732.547
151.731	14.025	980.537	732.464
152.746	13.982	979.888	731.725
153.760	13.970	979.075	731.003
154.775	14.044	978.492	730.830
155.789	14.191	977.891	730.960
156.804	14.079	977.208	729.892
157.819	14.127	976.540	729.538
158.833	14.089	975.988	728.896
159.848	14.215	974.913	728.579
160.862	14.142	973.887	727.428
161.877	14.146	972.785	726.560
162.892	14.046	972.083	725.535
163.906	14.148	971.351	725.369
164.921	14.085	970.582	724.456
165.935	14.143	969.378	723.744
166.950	14.136	968.687	723.136
167.964	14.135	967.858	722.450
168.979	14.160	966.610	721.562
169.994	14.145	966.043	721.008
171.008	14.171	965.293	720.501
172.023	14.198	964.822	720.201
173.037	14.307	963.733	719.793
174.052	14.213	963.107	718.856
175.067	14.198	962.679	718.409
176.081	14.156	962.091	717.726
177.096	14.166	961.393	717.184
178.110	14.147	960.862	716.645
179.125	14.174	960.003	716.056
180.140	14.135	959.570	715.500
181.154	14.359	958.974	715.956
182.169	14.300	958.577	715.344
183.183	14.232	957.854	714.447
184.198	14.477	956.797	714.647
185.213	14.370	956.119	713.619
186.227	14.465	955.454	713.466
187.242	14.373	954.977	712.652
188.256	14.453	954.090	712.272
189.271	14.457	953.218	711.574
190.286	14.285	952.800	710.463
191.300	14.310	952.110	709.995
192.315	14.211	951.472	709.035
193.329	14.327	950.705	708.892
194.344	14.352	950.268	708.610
195.359	14.374	949.319	707.933
196.373	14.447	948.444	707.531
197.388	14.516	948.192	707.569
198.402	14.623	947.411	707.380
199.417	14.630	946.733	706.840
200.432	14.729	946.331	706.896
201.446	14.697	945.843	706.333
202.461	14.723	945.123	705.842
203.475	14.537	945.033	704.928
204.490	14.693	943.660	704.499
205.504	14.672	943.232	704.028
206.519	14.574	942.608	703.089
207.534	14.606	941.508	702.340
208.548	14.541	941.176	701.756
209.563	14.690	940.322	701.686
210.577	14.673	939.637	701.039
211.592	14.821	939.061	701.168
212.607	14.757	938.380	700.329
213.621	14.861	937.577	700.106
214.636	14.864	936.630	699.347
215.650	14.834	935.755	698.506
216.665	14.774	935.366	697.905
217.680	14.864	934.456	697.538
218.694	14.808	933.744	696.712
219.709	14.919	933.258	696.752
220.723	14.876	932.732	696.117
221.738	14.976	931.369	695.455
222.753	14.850	931.327	694.838
223.767	14.961	930.791	694.836
224.782	14.986	929.895	694.212
225.796	15.154	929.332	694.427
226.811	15.089	928.581	693.535
227.826	15.064	927.926	692.879
228.840	14.876	927.171	691.476
229.855	15.041	926.385	691.512
230.869	15.042	925.316	690.656
231.884	15.031	924.916	690.253
232.899	14.813	924.768	689.179
233.913	14.949	923.831	688.983
234.928	15.034	922.879	688.560
235.942	14.981	922.509	688.007
236.957	14.915	921.940	687.249
237.972	15.149	920.938	687.402
238.986	15.002	920.369	686.312
240.001	15.056	919.608	685.906
241.015	15.054	919.060	685.427
242.030	15.040	918.959	685.235
243.045	15.023	918.239	684.568
244.059	15.274	917.110	684.692
245.074	15.155	916.721	683.855
246.088	15.181	916.279	683.571
247.103	15.299	915.502	683.412
248.117	15.278	915.057	682.932
249.132	15.250	914.354	682.235
250.147	15.345	913.795	682.145
251.161	15.356	913.075	681.592
252.176	15.479	911.699	681.002
253.190	15.474	911.425	680.716
254.205	15.560	910.829	680.561
255.220	15.476	910.636	680.017
256.234	15.488	909.721	679.319
257.249	15.405	909.080	678.447
258.263	15.485	908.378	678.186
259.278	15.492	907.628	677.593
260.293	15.553	906.998	677.310
261.307	15.579	906.250	676.797
262.322	15.579	905.772	676.378
263.336	15.483	905.376	675.637
264.351	15.762	904.263	675.868
265.366	15.672	903.725	675.046
266.380	15.692	903.282	674.735
267.395	15.751	902.439	674.279
268.409	15.742	901.228	673.279
269.424	15.688	900.923	672.777
270.439	15.642	900.041	671.874
271.453	15.636	899.529	671.411
272.468	15.624	898.795	670.753
273.482	15.769	897.901	670.604
274.497	15.735	897.701	670.262
275.512	15.691	897.495	669.874
276.526	15.756	896.646	669.439
277.541	15.856	895.818	669.158
278.555	15.820	895.252	668.534
279.570	15.826	894.556	667.979
280.585	15.805	893.942	667.378
281.599	15.890	893.255	667.144
282.614	15.891	892.512	666.533
283.628	15.847	892.023	665.933
284.643	15.899	891.255	665.508
285.657	15.941	890.740	665.229
286.672	15.984	889.882	664.701
287.687	15.976	889.161	664.073
288.701	16.001	888.784	663.829
289.716	15.997	887.837	663.047
290.730	16.062	887.500	662.992
291.745	16.158	886.393	662.485
292.760	16.031	886.573	662.062
293.774	16.127	886.151	662.064
294.789	16.067	885.215	661.070
295.803	15.981	884.806	660.369
296.818	16.109	883.753	660.027
297.833	16.157	882.980	659.580
298.847	16.051	882.713	658.906
299.862	16.186	882.043	658.876
300.876	16.175	881.220	658.159
301.891	16.219	880.982	658.095
302.906	16.182	880.360	657.430
303.920	16.429	879.588	657.757
304.935	16.291	879.020	656.734
305.949	16.261	878.352	656.061
306.964	16.306	877.783	655.754
307.979	16.271	877.290	655.191
308.993	16.432	876.295	655.014
310.008	16.338	875.798	654.221
311.022	16.387	875.336	654.006
312.037	16.444	874.887	653.835
313.052	16.298	874.254	652.740
314.066	16.338	873.459	652.244
315.081	16.316	873.152	651.871
316.095	16.305	872.363	651.180
317.110	16.428	871.850	651.214
318.125	16.459	871.170	650.769
319.139	16.473	870.772	650.470
320.154	16.285	870.676	649.614
321.168	16.397	869.999	649.483
322.183	16.375	869.449	648.932
323.197	16.402	869.308	648.870
324.212	16.523	868.406	648.606
325.227	16.492	867.741	647.933
326.241	16.389	867.092	646.995
327.256	16.466	866.441	646.746
328.270	16.544	865.975	646.641
329.285	16.383	865.649	645.723
330.300	16.456	864.711	645.248
331.314	16.618	863.953	645.243
332.329	16.774	863.476	645.423
333.343	16.797	862.765	644.921
334.358	16.614	863.052	644.381
335.373	16.652	862.673	644.188
336.387	16.523	862.684	643.646
337.402	16.693	861.854	643.619
338.416	16.605	861.872	643.240
339.431	16.783	860.958	643.176
340.446	16.836	860.545	643.011
341.460	16.754	860.040	642.265
342.475	16.810	859.793	642.238
343.489	16.859	859.039	641.804
344.504	16.859	858.714	641.502
345.519	16.834	858.501	641.194
346.533	16.964	857.583	640.941
347.548	16.964	856.951	640.411
348.562	16.847	856.776	639.786
349.577	16.881	856.033	639.300
350.592	16.838	855.319	638.549
351.606	16.788	854.731	637.864
352.621	16.907	853.751	637.523
353.635	17.011	853.339	637.551
354.650	16.837	852.843	636.472
355.665	16.940	851.898	636.095
356.679	17.116	851.626	636.496
357.694	16.894	850.603	634.846
358.708	17.073	850.406	635.312
359.723	17.101	849.795	634.902
360.738	17.112	849.114	634.378
361.752	17.011	848.768	633.686
362.767	17.175	848.014	633.679
363.781	17.231	847.533	633.474
364.796	17.198	846.752	632.713
365.810	17.200	846.486	632.463
366.825	17.201	846.181	632.183
367.840	17.378	845.890	632.568
368.854	17.275	845.234	631.640
369.869	17.279	844.814	631.285
370.883	17.207	844.544	630.758
371.898	17.335	843.715	630.559
372.913	17.371	843.345	630.359
373.927	17.414	842.856	630.097
374.942	17.482	842.113	629.739
375.956	17.390	841.951	629.220
376.971	17.470	841.614	629.210
377.986	17.509	841.181	628.975
379.000	17.500	840.921	628.689
380.015	17.426	840.128	627.769
381.029	17.479	839.564	627.488
382.044	17.607	838.867	627.383
383.059	17.604	838.420	626.980
384.073	17.577	837.757	626.331
385.088	17.646	837.299	626.185
386.102	17.470	836.973	625.241
387.117	17.493	836.143	624.650
388.132	17.547	835.443	624.269
389.146	17.633	835.165	624.322
390.161	17.688	834.312	623.829
391.175	17.646	833.978	623.371
392.190	17.558	833.313	622.496
393.205	17.629	833.341	622.723
394.219	17.633	832.803	622.281
395.234	17.508	832.547	621.578
396.248	17.599	832.026	621.467
397.263	17.702	831.410	621.326
398.278	17.635	830.718	620.512
399.292	17.486	830.815	619.984
400.307	17.556	830.571	620.005
401.321	17.678	829.478	619.576
402.336	17.675	829.209	619.311
403.350	17.537	829.168	618.724
404.365	17.656	828.294	618.448
405.380	17.852	828.032	618.907
406.394	17.921	826.708	618.114
407.409	17.810	826.881	617.786
408.423	17.878	826.013	617.329
409.438	18.019	826.130	617.871
410.453	17.953	825.707	617.262
411.467	18.088	825.144	617.275
412.482	18.004	824.724	616.602
413.496	18.033	824.483	616.473
414.511	18.018	824.200	616.152
415.526	18.045	823.397	615.594
416.540	18.051	822.763	615.089
417.555	18.116	822.455	615.035
418.569	18.011	822.169	614.391
419.584	18.105	821.743	614.355
420.599	18.187	821.233	614.215
421.613	115.888	1301.666	1493.074
422.628	100.592	1371.583	1493.121
