DTS Sentinel unit serial number:	SN413079Multiplexer serial number:	ORYXHardware model number:	OX4-SRSoftware version number:	ORYX F/W v4.00 Oryx Data Collector v3.7.2.0data status	okinstallation	princeton_trtdifferential loss correction	single-endedforward channel	channel 1reverse channel	N/Adate	2019/09/13time	21:58:35forward acquisition time	60.00reverse acquisition time	0.00gamma	496.2192k internal	0.2331k external	0.2331temperature offset calibration	1.0084default loss term (dB/km)	0.3790temperature slope calibration	1.0000multiplexer offset coefficient	1.0000multiplexer slope coefficient	1.0000fibre end	0.00T internal ref (°C)	28.00T ext. ref 1 (°C)	3.14T ext. ref 2 (°C)	22.76length (m)	temperature (°C)	Stokes	anti-Stokes-747.200	-151.191	-0.092	0.007
-746.185	-200.000	0.026	-0.158
-745.171	-142.169	0.138	0.014
-744.156	-200.000	0.006	0.172
-743.142	241.928	0.194	0.326
-742.127	345.002	0.041	-0.081
-741.112	-27.483	0.246	-0.144
-740.098	148.683	-0.305	0.415
-739.083	-200.000	-0.082	0.409
-738.069	-4.210	-0.298	0.208
-737.054	-200.000	-0.016	0.149
-736.039	-200.000	0.003	-0.135
-735.025	-139.065	0.488	0.053
-734.010	-200.000	-0.021	0.198
-732.996	116.289	0.217	-0.267
-731.981	-132.658	0.047	0.006
-730.966	800.000	0.017	0.056
-729.952	-200.000	-0.039	-0.210
-728.937	-151.612	-0.362	0.027
-727.923	-30.787	-0.193	-0.110
-726.908	-7.101	-0.112	0.077
-725.894	-99.696	0.254	-0.064
-724.879	-186.658	-0.211	-0.003
-723.864	348.479	0.041	0.081
-722.850	24.618	-0.339	0.282
-721.835	-200.000	0.011	0.197
-720.821	17.970	0.107	0.085
-719.806	-200.000	0.089	-0.414
-718.791	-200.000	0.022	-0.269
-717.777	49.790	-0.191	-0.181
-716.762	-170.724	-0.265	0.009
-715.748	534.143	-0.108	-0.256
-714.733	532.932	0.192	-0.457
-713.718	235.915	0.085	-0.141
-712.704	-200.000	0.019	-0.557
-711.689	-0.585	0.124	-0.088
-710.675	-200.000	-0.046	0.225
-709.660	-34.762	-0.156	0.086
-708.645	-135.360	0.141	0.017
-707.631	74.778	-0.166	-0.175
-706.616	-55.162	0.174	-0.078
-705.602	68.319	0.140	-0.144
-704.587	202.466	-0.026	-0.041
-703.572	-82.149	-0.205	-0.067
-702.558	82.857	0.131	0.143
-701.543	-200.000	-0.042	-0.288
-700.529	200.920	0.147	0.228
-699.514	234.531	0.097	0.161
-698.499	111.772	-0.056	0.068
-697.485	160.016	0.041	0.058
-696.470	-5.598	0.422	-0.291
-695.456	62.714	-0.046	-0.046
-694.441	-137.977	0.355	0.040
-693.426	-144.059	0.243	-0.023
-692.412	421.870	-0.117	-0.253
-691.397	-116.477	-0.181	0.034
-690.383	-161.655	-0.541	-0.028
-689.368	142.451	0.092	0.122
-688.354	-72.347	-0.320	-0.119
-687.339	-139.074	-0.204	0.022
-686.324	-15.902	-0.237	0.151
-685.310	32.968	0.029	0.025
-684.295	-90.909	-0.225	-0.065
-683.281	-23.323	0.217	-0.131
-682.266	146.103	0.130	-0.175
-681.251	-92.603	0.370	0.104
-680.237	-19.474	-0.066	-0.041
-679.222	361.323	-0.198	-0.398
-678.208	-200.000	0.108	-0.509
-677.193	-120.667	-0.144	-0.025
-676.178	-3.995	-0.127	0.088
-675.164	-46.525	-0.403	-0.198
-674.149	-200.000	-0.018	-0.311
-673.135	88.110	-0.271	-0.301
-672.120	106.830	0.026	-0.031
-671.105	26.053	0.117	0.098
-670.091	-41.909	-0.237	0.122
-669.076	-87.277	-0.094	-0.029
-668.062	-200.000	-0.103	-0.516
-667.047	-200.000	0.010	-0.102
-666.032	-38.463	-0.065	-0.035
-665.018	-9.772	-0.371	0.248
-664.003	-128.169	0.133	0.019
-662.989	-200.000	-0.001	0.138
-661.974	-200.000	-0.076	-0.401
-660.959	726.774	0.107	0.287
-659.945	800.000	-0.048	-0.170
-658.930	-149.503	0.183	-0.015
-657.916	-20.757	-0.088	0.054
-656.901	800.000	0.050	0.192
-655.886	-53.176	-0.201	-0.093
-654.872	-134.848	-0.252	0.031
-653.857	-200.000	0.042	-0.383
-652.843	800.000	0.083	0.242
-651.828	-200.000	-0.021	-0.098
-650.814	-95.322	0.392	0.106
-649.799	-66.464	0.128	0.051
-648.784	-120.357	0.296	-0.050
-647.770	-67.385	0.271	0.107
-646.755	800.000	-0.135	-0.468
-645.741	157.696	0.030	0.042
-644.726	445.974	0.107	0.236
-643.711	320.998	0.187	0.356
-642.697	170.859	-0.169	0.243
-641.682	7.443	-0.204	-0.153
-640.668	313.411	0.087	-0.164
-639.653	-200.000	-0.022	-0.116
-638.638	62.941	0.077	-0.077
-637.624	-20.212	0.118	-0.073
-636.609	-2.189	-0.132	0.093
-635.595	336.553	0.151	0.293
-634.580	-111.723	-0.270	-0.055
-633.565	44.798	0.271	0.250
-632.551	-79.264	-0.272	-0.092
-631.536	-31.639	-0.210	-0.118
-630.522	-200.000	-0.005	-0.267
-629.507	800.000	-0.079	-0.278
-628.492	-50.108	0.224	0.106
-627.478	-200.000	-0.057	0.297
-626.463	-200.000	-0.015	0.072
-625.449	0.622	-0.320	-0.229
-624.434	-200.000	-0.019	-0.120
-623.419	-55.572	-0.096	0.043
-622.405	20.020	0.029	-0.023
-621.390	4.289	-0.406	0.298
-620.376	-200.000	0.000	0.033
-619.361	-200.000	0.018	0.114
-618.346	-64.253	-0.075	0.030
-617.332	-128.095	0.257	0.037
-616.317	-18.375	-0.334	0.209
-615.303	359.989	-0.056	-0.113
-614.288	-18.073	-0.149	0.093
-613.273	-55.826	0.180	-0.081
-612.259	-40.702	-0.147	-0.076
-611.244	178.472	-0.293	0.428
-610.230	-68.574	-0.289	-0.112
-609.215	-89.623	-0.137	-0.040
-608.201	-21.865	0.272	-0.165
-607.186	53.804	-0.202	0.194
-606.171	225.604	-0.111	0.180
-605.157	-78.416	-0.082	-0.028
-604.142	192.937	-0.196	-0.296
-603.128	-102.300	-0.171	0.041
-602.113	0.935	-0.069	-0.050
-601.098	25.125	0.144	0.120
-600.084	215.467	0.082	-0.130
-599.069	800.000	-0.048	-0.149
-598.055	-111.159	-0.068	-0.014
-597.040	-100.234	0.216	-0.054
-596.025	-68.542	0.183	0.071
-595.011	143.885	-0.125	0.166
-593.996	-200.000	0.005	-0.110
-592.982	103.673	0.170	0.199
-591.967	-144.316	0.330	0.031
-590.952	800.000	-0.101	0.326
-589.938	-191.285	-0.335	0.003
-588.923	-200.000	0.044	-0.221
-587.909	800.000	-0.072	0.267
-586.894	430.987	0.132	-0.285
-585.879	-4.975	-0.244	-0.168
-584.865	-10.351	0.134	0.089
-583.850	-200.000	0.006	0.146
-582.836	800.000	0.011	-0.039
-581.821	49.962	-0.125	-0.118
-580.806	-16.486	-0.407	-0.258
-579.792	-16.208	0.249	-0.158
-578.777	34.406	-0.202	-0.176
-577.763	219.532	-0.115	-0.184
-576.748	-63.486	0.270	0.111
-575.733	-29.534	-0.055	0.031
-574.719	7.631	-0.167	-0.125
-573.704	68.751	0.238	-0.244
-572.690	-31.979	-0.346	-0.194
-571.675	30.927	-0.137	0.117
-570.661	-200.000	0.033	0.222
-569.646	-100.012	0.421	0.105
-568.631	-26.565	-0.104	-0.061
-567.617	800.000	0.079	-0.275
-566.602	800.000	0.067	-0.229
-565.588	43.986	-0.206	-0.188
-564.573	382.758	-0.131	-0.270
-563.558	-123.854	0.178	-0.028
-562.544	-129.394	-0.171	-0.024
-561.529	35.908	-0.058	-0.051
-560.515	422.182	0.133	0.286
-559.500	800.000	0.082	-0.236
-558.485	800.000	0.081	0.237
-557.471	-69.168	0.238	0.091
-556.456	-93.663	-0.231	-0.064
-555.442	18.258	-0.062	-0.049
-554.427	-200.000	0.008	-0.153
-553.412	800.000	0.002	0.008
-552.398	-61.827	-0.100	-0.042
-551.383	535.191	-0.016	0.039
-550.369	800.000	-0.077	0.269
-549.354	-87.955	-0.125	0.037
-548.339	595.925	-0.068	-0.169
-547.325	-200.000	0.005	0.037
-546.310	800.000	-0.090	0.267
-545.296	-34.799	0.278	-0.152
-544.281	263.206	0.071	0.123
-543.266	555.482	-0.088	0.211
-542.252	34.284	-0.370	0.322
-541.237	-53.384	0.246	-0.113
-540.223	800.000	0.040	-0.120
-539.208	-83.817	0.363	0.115
-538.193	39.531	-0.072	-0.065
-537.179	47.502	-0.130	0.121
-536.164	-141.964	-0.099	-0.010
-535.150	2.679	0.409	0.296
-534.135	-23.855	-0.264	-0.158
-533.121	153.098	-0.201	-0.275
-532.106	407.616	-0.179	-0.379
-531.091	-200.000	0.063	-0.435
-530.077	81.122	0.106	0.114
-529.062	354.173	-0.144	0.286
-528.048	-51.409	0.524	0.244
-527.033	-200.000	0.000	-0.332
-526.018	-111.474	-0.138	-0.028
-525.004	-113.105	0.058	0.011
-523.989	-141.573	-0.261	0.026
-522.975	-200.000	-0.013	0.353
-521.960	-98.086	0.235	-0.060
-520.945	-200.000	-0.039	0.173
-519.931	-200.000	0.016	-0.228
-518.916	153.899	-0.066	-0.090
-517.902	-200.000	-0.074	-0.433
-516.887	-24.253	-0.111	-0.066
-515.872	138.482	-0.124	-0.163
-514.858	800.000	0.063	0.184
-513.843	-50.581	0.122	-0.058
-512.829	434.181	-0.097	0.210
-511.814	-108.024	-0.202	0.044
-510.799	-79.350	-0.099	0.033
-509.785	265.704	0.208	0.361
-508.770	-65.988	-0.181	0.072
-507.756	-131.249	0.019	-0.003
-506.741	-101.366	-0.171	-0.042
-505.726	-21.623	0.250	0.152
-504.712	-72.668	0.203	-0.075
-503.697	-200.000	-0.011	-0.302
-502.683	-109.463	0.271	0.057
-501.668	-35.476	-0.189	0.102
-500.653	120.631	0.205	-0.254
-499.639	398.224	-0.037	-0.077
-498.624	108.266	0.269	-0.320
-497.610	44.270	0.186	0.170
-496.595	-200.000	0.044	0.252
-495.581	14.643	-0.133	-0.104
-494.566	800.000	-0.042	-0.147
-493.551	-200.000	-0.033	0.179
-492.537	-200.000	0.051	0.225
-491.522	317.947	0.129	0.243
-490.508	701.330	0.049	-0.130
-489.493	-200.000	0.001	0.102
-488.478	455.299	0.063	-0.140
-487.464	740.313	-0.095	0.255
-486.449	275.173	-0.149	-0.263
-485.435	154.165	-0.150	-0.205
-484.420	800.000	0.046	-0.143
-483.405	20.849	-0.354	-0.286
-482.391	-200.000	-0.062	-0.270
-481.376	-125.358	0.122	-0.019
-480.362	-144.325	-0.152	-0.014
-479.347	800.000	0.056	-0.178
-478.332	413.283	0.108	0.228
-477.318	-200.000	0.014	-0.351
-476.303	800.000	-0.079	0.272
-475.289	212.506	-0.082	0.128
-474.274	698.613	-0.154	0.403
-473.259	116.845	-0.084	0.102
-472.245	368.160	-0.081	-0.163
-471.230	-116.490	-0.011	0.002
-470.216	104.534	0.121	-0.142
-469.201	373.398	-0.042	0.086
-468.186	136.385	-0.025	-0.033
-467.172	-100.652	-0.213	0.052
-466.157	-15.610	0.299	0.190
-465.143	-38.762	-0.032	-0.017
-464.128	800.000	-0.052	0.153
-463.113	-81.569	0.334	0.109
-462.099	-200.000	-0.034	0.220
-461.084	331.395	0.106	-0.204
-460.070	643.686	0.063	-0.160
-459.055	-49.966	0.159	0.075
-458.040	-5.607	0.264	0.180
-457.026	800.000	0.084	-0.264
-456.011	-200.000	-0.062	0.311
-454.997	-61.570	-0.055	-0.023
-453.982	800.000	-0.070	0.261
-452.968	-60.481	0.402	-0.170
-451.953	-4.193	0.302	0.208
-450.938	-82.754	-0.110	0.035
-449.924	-136.197	-0.114	-0.013
-448.909	97.029	-0.207	0.237
-447.895	-47.233	0.094	-0.045
-446.880	-88.255	-0.075	0.022
-445.865	126.681	0.005	0.006
-444.851	-131.366	0.284	0.037
-443.836	306.081	-0.241	-0.446
-442.822	-86.315	0.064	0.019
-441.807	-200.000	-0.024	-0.492
-440.792	-185.932	-0.203	-0.003
-439.778	-23.205	-0.073	-0.044
-438.763	-44.604	-0.111	0.055
-437.749	-200.000	-0.054	0.303
-436.734	758.623	0.067	-0.181
-435.719	81.376	-0.176	-0.189
-434.705	-19.085	-0.300	0.185
-433.690	-98.912	-0.124	-0.031
-432.676	320.823	-0.253	0.478
-431.661	51.748	-0.122	0.115
-430.646	-47.645	0.161	-0.078
-429.632	-117.844	-0.366	0.065
-428.617	444.309	0.196	-0.426
-427.603	-167.083	0.081	0.003
-426.588	237.279	0.085	-0.140
-425.573	-10.007	-0.125	0.082
-424.559	800.000	0.122	0.363
-423.544	800.000	-0.032	0.090
-422.530	98.921	-0.070	0.080
-421.515	642.768	-0.022	-0.056
-420.500	-200.000	-0.031	0.318
-419.486	417.378	-0.052	0.111
-418.471	154.062	-0.047	-0.064
-417.457	-34.754	0.158	-0.086
-416.442	-200.000	0.035	-0.197
-415.428	44.932	0.131	0.120
-414.413	-84.761	0.143	-0.045
-413.398	-17.954	-0.043	-0.027
-412.384	191.370	-0.091	0.136
-411.369	-85.042	0.231	-0.072
-410.355	123.601	0.058	-0.072
-409.340	-165.126	-0.209	-0.009
-408.325	-35.365	0.117	0.063
-407.311	-178.973	0.239	0.005
-406.296	-84.442	-0.070	0.022
-405.282	37.538	-0.179	-0.158
-404.267	-47.912	0.047	-0.023
-403.252	-200.000	-0.016	-0.327
-402.238	-42.008	0.193	-0.098
-401.223	-200.000	-0.011	0.098
-400.209	-153.294	-0.315	0.022
-399.194	800.000	-0.047	0.168
-398.179	763.632	-0.040	0.108
-397.165	141.991	-0.097	-0.128
-396.150	-200.000	-0.051	0.312
-395.136	46.478	-0.091	-0.084
-394.121	-200.000	0.163	-0.000
-393.106	-10.834	0.301	0.198
-392.092	800.000	-0.025	-0.098
-391.077	800.000	-0.050	0.180
-390.063	-112.134	0.165	-0.033
-389.048	-168.580	0.122	-0.005
-388.033	166.499	0.096	-0.134
-387.019	-96.282	0.177	-0.046
-386.004	484.465	-0.029	0.066
-384.990	417.302	-0.025	-0.052
-383.975	-30.974	-0.079	-0.044
-382.960	113.969	0.187	-0.225
-381.946	168.676	0.055	-0.077
-380.931	337.118	0.186	0.359
-379.917	39.155	-0.094	0.084
-378.902	9.156	0.160	-0.120
-377.888	761.605	0.192	-0.516
-376.873	-155.330	0.035	0.002
-375.858	-44.593	0.176	-0.087
-374.844	139.149	-0.330	-0.431
-373.829	132.435	-0.135	-0.172
-372.815	-200.000	-0.025	0.217
-371.800	319.181	-0.086	-0.162
-370.785	147.881	-0.128	0.171
-369.771	-10.481	0.304	0.200
-368.756	-83.897	0.130	-0.041
-367.742	55.752	-0.111	-0.107
-366.727	-200.000	-0.024	0.122
-365.712	-200.000	0.000	0.091
-364.698	163.121	-0.123	0.171
-363.683	-103.397	-0.140	0.033
-362.669	800.000	-0.085	0.335
-361.654	-44.987	0.222	-0.109
-360.639	-4.825	-0.295	0.202
-359.625	-114.690	0.106	0.020
-358.610	-111.580	-0.136	-0.027
-357.596	-124.396	-0.199	-0.031
-356.581	-181.352	-0.396	0.008
-355.566	-0.533	-0.020	0.014
-354.552	800.000	-0.028	0.112
-353.537	-130.564	0.332	-0.044
-352.523	-74.721	0.249	-0.089
-351.508	-57.025	0.393	-0.172
-350.493	68.153	0.212	0.215
-349.479	443.805	-0.022	0.049
-348.464	106.516	-0.162	0.190
-347.450	800.000	-0.059	-0.162
-346.435	405.268	0.081	-0.168
-345.420	-200.000	-0.007	-0.098
-344.406	110.761	-0.216	0.258
-343.391	-148.796	-0.108	-0.009
-342.377	-78.608	-0.190	0.064
-341.362	11.692	-0.151	-0.115
-340.348	-74.466	0.197	0.070
-339.333	6.383	0.257	0.189
-338.318	203.430	0.095	-0.145
-337.304	569.127	-0.044	0.107
-336.289	-200.000	-0.006	-0.050
-335.275	94.874	-0.079	-0.089
-334.260	800.000	-0.046	-0.129
-333.245	-114.847	0.403	-0.076
-332.231	156.316	0.026	-0.036
-331.216	-50.732	-0.088	-0.041
-330.202	383.189	0.065	-0.133
-329.187	504.779	-0.118	-0.269
-328.172	-146.853	0.033	-0.003
-327.158	-0.903	0.278	0.195
-326.143	-200.000	0.036	0.205
-325.129	800.000	-0.064	0.189
-324.114	-31.835	-0.170	-0.094
-323.099	14.786	0.082	-0.063
-322.085	-120.735	-0.147	-0.025
-321.070	800.000	0.099	0.365
-320.056	-200.000	0.019	0.171
-319.041	19.320	0.144	0.114
-318.026	417.142	0.020	0.042
-317.012	512.047	-0.100	-0.229
-315.997	-130.547	0.170	0.023
-314.983	-200.000	0.149	0.000
-313.968	-7.633	-0.127	0.085
-312.953	-14.378	-0.084	-0.054
-311.939	489.870	0.110	-0.249
-310.924	-31.061	0.223	0.125
-309.910	-200.000	0.020	-0.261
-308.895	274.820	0.034	0.060
-307.880	-102.679	-0.141	0.033
-306.866	15.342	-0.327	-0.253
-305.851	-42.653	-0.421	0.212
-304.837	-35.241	0.082	0.044
-303.822	-200.000	-0.033	0.355
-302.807	5.785	-0.257	-0.188
-301.793	800.000	0.142	-0.391
-300.778	757.701	0.027	0.071
-299.764	-87.286	0.141	0.042
-298.749	-80.113	0.133	-0.044
-297.735	-200.000	0.081	-0.409
-296.720	190.762	0.111	0.165
-295.705	-31.118	-0.349	0.194
-294.691	-140.943	-0.482	0.049
-293.676	-124.143	-0.100	-0.015
-292.662	-173.732	-0.213	-0.006
-291.647	-78.352	0.184	-0.063
-290.632	200.435	-0.113	-0.172
-289.618	131.034	0.293	0.372
-288.603	-157.643	-0.445	0.026
-287.589	-171.708	-0.534	-0.017
-286.574	-143.243	0.225	-0.021
-285.559	-13.123	-0.251	-0.161
-284.545	-4.876	0.152	-0.103
-283.530	35.673	0.194	-0.169
-282.516	800.000	0.055	-0.152
-281.501	-89.641	0.059	0.017
-280.486	-200.000	0.028	0.213
-279.472	-79.307	-0.087	0.029
-278.457	-200.000	-0.020	0.260
-277.443	-48.395	0.159	-0.076
-276.428	-200.000	-0.019	0.087
-275.413	214.513	0.134	0.210
-274.399	-164.028	-0.155	0.007
-273.384	-200.000	-0.012	0.205
-272.370	-200.000	0.011	0.184
-271.355	151.387	0.079	-0.106
-270.340	-200.000	0.035	-0.384
-269.326	-49.221	0.075	0.035
-268.311	-162.704	0.233	0.011
-267.297	800.000	-0.047	-0.131
-266.282	279.897	0.017	0.029
-265.267	800.000	0.099	0.292
-264.253	-98.299	0.333	0.084
-263.238	-200.000	-0.036	0.270
-262.224	-200.000	-0.003	-0.366
-261.209	529.858	-0.152	-0.354
-260.195	-88.762	-0.173	-0.051
-259.180	76.757	0.211	-0.221
-258.165	-200.000	-0.027	0.303
-257.151	28.231	0.230	0.192
-256.136	190.518	0.226	-0.335
-255.122	-200.000	-0.004	0.105
-254.107	-29.662	-0.031	-0.018
-253.092	37.750	0.041	0.036
-252.078	-68.316	0.257	0.099
-251.063	800.000	0.187	-0.529
-250.049	-200.000	0.007	0.088
-249.034	-146.433	0.340	-0.029
-248.019	495.274	-0.078	-0.177
-247.005	-135.426	0.218	-0.026
-245.990	-81.006	0.327	-0.107
-244.976	800.000	0.075	0.278
-243.961	145.301	-0.111	-0.147
-242.946	-200.000	-0.010	-0.056
-241.932	667.631	-0.087	-0.223
-240.917	245.351	-0.062	0.102
-239.903	-161.858	-0.081	-0.004
-238.888	67.321	0.084	0.085
-237.873	237.969	0.063	0.103
-236.859	84.323	-0.337	-0.363
-235.844	-139.940	0.141	0.015
-234.830	-200.000	0.025	0.312
-233.815	67.294	-0.235	-0.237
-232.800	57.432	-0.011	-0.010
-231.786	-99.846	-0.469	0.116
-230.771	-93.605	-0.395	-0.108
-229.757	-92.061	0.290	-0.081
-228.742	-200.000	-0.008	0.053
-227.727	-148.030	0.169	-0.014
-226.713	182.669	0.180	0.262
-225.698	-57.322	-0.148	0.064
-224.684	28.454	-0.205	-0.171
-223.669	-72.793	0.539	0.196
-222.655	-64.663	0.118	-0.047
-221.640	-76.497	0.295	-0.102
-220.625	-24.832	-0.210	-0.123
-219.611	-59.622	0.106	-0.045
-218.596	-92.142	-0.049	-0.014
-217.582	-187.632	0.366	-0.005
-216.567	-175.768	-0.225	0.006
-215.552	292.670	-0.132	0.238
-214.538	-126.519	0.213	0.031
-213.523	-166.559	0.333	-0.014
-212.509	-200.000	-0.028	-0.154
-211.494	31.262	0.077	0.065
-210.479	110.935	-0.065	-0.077
-209.465	306.383	0.095	-0.174
-208.450	140.874	0.219	0.286
-207.436	-15.882	0.223	0.140
-206.421	352.839	-0.150	0.292
-205.406	800.000	0.080	0.259
-204.392	-71.665	-0.219	-0.080
-203.377	-105.127	-0.269	-0.061
-202.363	-31.579	-0.251	0.139
-201.348	348.880	-0.087	0.170
-200.333	-179.368	-0.109	-0.002
-199.319	70.142	-0.109	0.110
-198.304	28.115	-0.047	0.039
-197.290	-49.207	-0.013	-0.006
-196.275	71.089	0.111	-0.113
-195.260	-119.944	-0.063	-0.011
-194.246	110.765	-0.261	-0.309
-193.231	211.517	-0.140	0.217
-192.217	9.473	-0.083	-0.062
-191.202	679.445	-0.107	0.275
-190.187	-200.000	-0.038	-0.259
-189.173	-88.032	-0.037	-0.011
-188.158	106.349	-0.088	0.103
-187.144	-73.199	-0.118	-0.042
-186.129	561.581	0.111	0.263
-185.114	-200.000	-0.011	-0.309
-184.100	104.690	0.237	-0.275
-183.085	390.404	-0.083	-0.169
-182.071	553.204	0.112	0.264
-181.056	252.163	0.108	-0.181
-180.042	16.068	0.129	0.100
-179.027	-33.326	-0.277	-0.151
-178.012	-24.103	-0.169	-0.099
-176.998	410.564	-0.075	0.157
-175.983	-173.946	0.307	0.009
-174.969	-103.081	-0.324	-0.076
-173.954	289.936	-0.213	-0.380
-172.939	-52.525	0.232	-0.106
-171.925	-108.963	0.490	0.103
-170.910	-43.706	0.345	-0.171
-169.896	545.296	0.115	-0.271
-168.881	-85.538	-0.209	-0.064
-167.866	-147.216	0.027	0.002
-166.852	-2.032	0.079	0.055
-165.837	-71.313	0.185	0.068
-164.823	-83.073	-0.206	-0.065
-163.808	288.884	-0.129	0.229
-162.793	89.650	0.206	0.226
-161.779	4.229	0.146	0.105
-160.764	-200.000	-0.006	0.154
-159.750	228.078	0.318	0.510
-158.735	57.875	0.248	0.239
-157.720	-17.990	-0.030	0.018
-156.706	354.816	-0.212	0.414
-155.691	-102.253	0.066	-0.016
-154.677	800.000	-0.109	-0.336
-153.662	-37.507	0.211	-0.110
-152.647	-32.480	-0.042	-0.023
-151.633	-48.855	-0.161	-0.076
-150.618	-144.539	0.146	-0.013
-149.604	217.028	0.122	-0.190
-148.589	-58.924	0.164	-0.070
-147.574	-17.537	0.117	-0.072
-146.560	800.000	0.125	0.346
-145.545	-200.000	-0.037	0.390
-144.531	-18.483	-0.182	-0.111
-143.516	-200.000	0.018	-0.223
-142.502	45.906	-0.122	0.111
-141.487	-200.000	0.002	0.049
-140.472	800.000	0.092	0.356
-139.458	98.334	-0.260	0.294
-138.443	26.430	-0.053	0.043
-137.429	-45.043	-0.111	0.055
-136.414	50.992	-0.053	0.050
-135.399	631.893	-0.158	-0.394
-134.385	-154.823	-0.124	-0.008
-133.370	-200.000	-0.039	-0.424
-132.356	-190.019	-0.191	-0.002
-131.341	-27.914	0.311	-0.177
-130.326	88.735	0.277	-0.303
-129.312	192.277	-0.045	-0.067
-128.297	114.568	0.144	0.173
-127.283	800.000	0.076	0.293
-126.268	75.839	-0.196	0.203
-125.253	-147.867	0.054	0.004
-124.239	800.000	-0.050	-0.183
-123.224	-168.642	0.163	-0.006
-122.210	782.143	0.033	0.090
-121.195	800.000	0.046	0.169
-120.180	253.946	0.176	-0.295
-119.166	-164.310	-0.099	0.004
-118.151	6.948	0.199	0.146
-117.137	224.279	-0.126	-0.200
-116.122	637.477	-0.047	0.118
-115.107	800.000	0.033	-0.143
-114.093	159.679	-0.141	0.193
-113.078	-13.581	0.109	-0.069
-112.064	-147.155	-0.214	0.018
-111.049	800.000	0.197	0.651
-110.034	-57.350	0.289	0.125
-109.020	-104.090	0.231	0.053
-108.005	-166.514	-0.207	-0.008
-106.991	-200.000	0.001	-0.140
-105.976	-200.000	-0.018	0.090
-104.962	510.192	-0.089	-0.203
-103.947	62.107	0.247	-0.242
-102.932	-99.496	0.180	0.044
-101.918	260.052	0.087	-0.148
-100.903	-74.352	-0.159	-0.056
-99.889	2.517	0.127	0.090
-98.874	30.741	-0.397	0.333
-97.859	92.594	-0.241	0.267
-96.845	-179.227	0.442	-0.010
-95.830	-200.000	-0.002	0.135
-94.816	88.811	-0.030	0.033
-93.801	-62.327	-0.276	-0.113
-92.786	-200.000	-0.034	-0.224
-91.772	154.017	0.169	0.228
-90.757	800.000	-0.044	0.182
-89.743	-42.549	-0.160	0.080
-88.728	-64.979	0.166	-0.066
-87.713	-200.000	0.001	0.127
-86.699	-28.874	0.063	0.035
-85.684	-200.000	-0.005	-0.430
-84.670	122.639	-0.062	-0.076
-83.655	-154.366	0.172	-0.011
-82.640	48.856	-0.012	0.011
-81.626	-200.000	0.073	0.324
-80.611	-68.439	-0.126	0.048
-79.597	-139.934	-0.174	-0.018
-78.582	-164.392	0.033	-0.001
-77.567	-105.897	-0.377	-0.083
-76.553	39.592	0.197	0.173
-75.538	289.920	0.077	-0.137
-74.524	28.937	0.069	0.057
-73.509	800.000	-0.019	0.071
-72.494	15.607	0.163	-0.126
-71.480	800.000	-0.039	-0.123
-70.465	800.000	-0.102	-0.425
-69.451	-5.273	0.361	-0.243
-68.436	-71.877	-0.227	0.083
-67.422	-128.315	-0.133	-0.019
-66.407	-77.875	0.217	-0.074
-65.392	-43.949	-0.200	0.098
-64.378	30.198	0.145	0.121
-63.363	-75.790	-0.103	0.036
-62.349	800.000	-0.010	0.034
-61.334	62.488	-1.175	-1.150
-60.319	-30.891	0.514	0.285
-59.305	-200.000	-0.132	-0.884
-58.290	203.183	0.955	1.446
-57.276	800.000	0.488	1.685
-56.261	-200.000	114.116	664.118
-55.246	554.512	1514.047	3567.750
-54.232	179.844	2677.463	3842.414
-53.217	112.571	2147.080	2545.307
-52.203	39.749	1596.751	1403.075
-51.188	31.240	1344.191	1129.887
-50.173	28.466	1305.655	1081.120
-49.159	56.483	1362.582	1297.535
-48.144	55.158	1376.581	1302.873
-47.130	31.697	1331.332	1121.640
-46.115	28.172	1314.089	1086.183
-45.100	27.994	1309.544	1081.330
-44.086	27.903	1307.186	1078.802
-43.071	27.874	1304.403	1076.295
-42.057	27.872	1302.186	1074.410
-41.042	27.865	1301.121	1073.446
-40.027	27.892	1299.487	1072.216
-39.013	27.914	1297.403	1070.585
-37.998	27.949	1295.530	1069.198
-36.984	28.036	1293.644	1068.111
-35.969	27.999	1292.010	1066.500
-34.954	28.013	1290.679	1065.445
-33.940	28.042	1289.126	1064.285
-32.925	28.113	1287.859	1063.610
-31.911	28.100	1286.235	1062.153
-30.896	28.052	1284.942	1060.764
-29.881	28.016	1283.987	1059.722
-28.867	28.150	1282.642	1059.350
-27.852	28.120	1280.793	1057.609
-26.838	28.055	1280.045	1056.569
-25.823	28.036	1278.503	1055.144
-24.809	28.011	1277.391	1054.044
-23.794	28.092	1275.789	1053.144
-22.779	28.133	1274.082	1051.930
-21.765	28.047	1273.112	1050.593
-20.750	28.111	1271.402	1049.506
-19.736	27.914	1270.763	1047.810
-18.721	28.116	1268.964	1047.439
-17.706	27.982	1267.841	1045.704
-16.692	28.048	1266.863	1045.238
-15.677	27.965	1266.018	1044.024
-14.663	27.922	1264.944	1042.847
-13.648	28.019	1263.899	1042.500
-12.633	27.941	1262.955	1041.236
-11.619	27.969	1262.038	1040.599
-10.604	27.911	1261.216	1039.549
-9.590	27.922	1260.157	1038.696
-8.575	27.936	1259.002	1037.782
-7.560	27.899	1258.577	1037.179
-6.546	27.930	1257.248	1036.222
-5.531	27.771	1257.034	1035.104
-4.517	27.844	1255.960	1034.592
-3.502	27.863	1255.704	1034.447
-2.487	27.907	1253.807	1033.093
-1.473	27.862	1249.773	1029.473
-0.458	26.369	1234.293	1008.359
0.556	23.180	1217.189	970.151
1.571	19.398	1222.386	953.343
2.586	18.558	1236.798	959.798
3.600	18.016	1224.836	947.422
4.615	13.613	1153.880	869.413
5.629	6.355	1082.016	779.370
6.644	3.314	1063.995	751.506
7.659	3.089	1061.391	748.502
8.673	3.178	1060.043	747.921
9.688	2.999	1058.862	746.148
10.702	3.404	1056.838	746.621
11.717	7.451	1062.069	769.916
12.731	15.000	1072.973	814.634
13.746	19.364	1078.578	840.126
14.761	19.897	1078.551	842.628
15.775	19.092	1076.933	837.372
16.790	17.983	1074.630	830.122
17.804	17.196	1073.614	825.442
18.819	17.012	1072.525	823.638
19.834	16.835	1071.707	822.078
20.848	16.735	1070.628	820.693
21.863	16.548	1069.852	819.122
22.877	16.440	1069.474	818.236
23.892	16.335	1068.682	817.049
24.907	16.346	1068.178	816.646
25.921	16.408	1066.760	815.788
26.936	16.440	1065.479	814.889
27.950	16.399	1064.197	813.641
28.965	16.525	1062.619	812.970
29.980	16.735	1060.998	812.664
30.994	16.736	1059.902	811.759
32.009	16.648	1059.682	811.095
33.023	16.703	1058.181	810.138
34.038	16.602	1057.231	808.855
35.053	16.573	1056.143	807.813
36.067	16.570	1055.050	806.894
37.082	16.511	1054.677	806.251
38.096	16.742	1053.612	806.466
39.111	16.580	1053.332	805.409
40.126	16.549	1052.041	804.205
41.140	16.238	1050.466	801.455
42.155	16.134	1049.195	799.921
43.169	16.038	1048.594	798.936
44.184	16.179	1046.890	798.233
45.199	16.220	1046.347	797.945
46.213	16.315	1045.258	797.491
47.228	16.495	1043.727	797.101
48.242	16.552	1042.882	796.655
49.257	16.472	1042.200	795.686
50.271	16.543	1041.145	795.142
51.286	16.584	1040.645	794.882
52.301	16.536	1039.779	793.928
53.315	16.321	1038.859	792.146
54.330	16.286	1037.463	790.849
55.344	16.217	1036.579	789.782
56.359	16.321	1036.014	789.767
57.374	16.323	1034.630	788.650
58.388	16.244	1034.015	787.746
59.403	16.169	1033.039	786.582
60.417	16.021	1032.632	785.512
61.432	16.123	1031.552	785.094
62.447	16.112	1030.408	784.105
63.461	16.020	1029.785	783.135
64.476	16.046	1028.770	782.415
65.490	16.041	1028.336	781.990
66.505	16.101	1027.423	781.506
67.520	16.095	1026.812	780.942
68.534	16.057	1026.245	780.265
69.549	16.085	1025.230	779.557
70.563	15.935	1024.757	778.433
71.578	15.909	1023.390	777.207
72.593	15.825	1022.559	776.120
73.607	15.829	1022.355	775.914
74.622	15.887	1021.627	775.560
75.636	15.841	1021.260	775.003
76.651	15.865	1020.432	774.417
77.666	16.021	1019.682	774.494
78.680	15.960	1019.231	773.804
79.695	16.025	1018.274	773.305
80.709	16.148	1017.815	773.454
81.724	16.282	1017.603	773.839
82.739	16.313	1016.803	773.301
83.753	16.435	1016.281	773.396
84.768	16.655	1014.947	773.316
85.782	16.819	1014.430	773.602
86.797	16.679	1013.575	772.245
87.812	16.379	1012.603	770.067
88.826	16.661	1011.268	770.271
89.841	16.704	1010.519	769.826
90.855	16.813	1009.796	769.703
91.870	16.704	1008.924	768.476
92.884	16.760	1008.199	768.110
93.899	16.703	1007.515	767.260
94.914	16.869	1006.476	767.153
95.928	16.785	1005.738	766.145
96.943	16.692	1004.560	764.758
97.957	16.734	1004.033	764.477
98.972	16.672	1002.822	763.211
99.987	16.655	1002.105	762.518
101.001	16.705	1000.939	761.791
102.016	16.702	1000.072	761.051
103.030	16.630	999.619	760.312
104.045	16.673	998.878	759.875
105.060	16.541	998.050	758.585
106.074	16.415	996.638	756.883
107.089	16.325	995.162	755.292
108.103	16.112	994.830	754.021
109.118	16.188	993.555	753.327
110.133	16.069	992.924	752.252
111.147	16.167	991.861	751.816
112.162	16.242	990.964	751.405
113.176	16.364	990.064	751.196
114.191	16.285	989.798	750.576
115.206	16.361	988.776	750.073
116.220	16.239	988.145	748.987
117.235	16.250	986.775	747.930
118.249	16.253	986.037	747.318
119.264	16.124	985.267	746.098
120.279	16.177	984.624	745.778
121.293	16.008	983.699	744.266
122.308	16.049	982.430	743.421
123.322	15.940	981.864	742.447
124.337	16.004	980.567	741.683
125.352	15.964	979.753	740.824
126.366	16.003	978.876	740.267
127.381	16.041	977.587	739.394
128.395	16.090	976.532	738.746
129.410	15.997	976.392	738.167
130.424	16.155	974.919	737.677
131.439	16.182	974.883	737.705
132.454	16.283	973.877	737.320
133.468	16.209	973.181	736.402
134.483	16.270	972.346	735.973
135.497	16.345	971.266	735.415
136.512	16.270	970.946	734.784
137.527	16.215	969.974	733.743
138.541	16.300	968.975	733.291
139.556	16.209	968.610	732.558
140.570	16.532	967.967	733.407
141.585	16.648	967.186	733.251
142.600	16.622	966.166	732.303
143.614	16.720	965.377	732.062
144.629	16.733	964.740	731.572
145.643	16.675	963.698	730.463
146.658	16.549	962.253	728.762
147.673	16.429	961.629	727.710
148.687	16.191	961.277	726.356
149.702	16.281	959.924	725.654
150.716	16.412	958.769	725.279
151.731	16.336	958.136	724.409
152.746	16.352	957.628	724.031
153.760	16.524	956.844	724.110
154.775	16.506	956.768	723.913
155.789	16.796	955.542	724.160
156.804	16.637	955.230	723.180
157.819	16.589	954.799	722.584
158.833	16.762	954.065	722.702
159.848	16.796	953.149	722.089
160.862	16.707	951.901	720.702
161.877	16.515	950.734	718.940
162.892	16.394	949.427	717.372
163.906	16.425	948.506	716.743
164.921	16.377	947.979	716.078
165.935	16.480	947.390	716.008
166.950	16.595	946.368	715.658
167.964	16.518	945.540	714.646
168.979	16.474	944.334	713.483
169.994	16.461	943.920	713.053
171.008	16.617	942.854	712.841
172.023	16.595	943.187	712.939
173.037	16.862	942.020	713.116
174.052	16.656	941.564	711.840
175.067	16.540	940.663	710.608
176.081	16.483	939.794	709.651
177.096	16.437	939.303	709.025
178.110	16.491	939.048	708.998
179.125	16.472	938.318	708.304
180.140	16.694	937.461	708.522
181.154	16.819	937.057	708.677
182.169	16.826	936.464	708.192
183.183	16.771	936.250	707.741
184.198	16.764	935.357	706.972
185.213	16.879	934.376	706.650
186.227	16.801	933.983	705.967
187.242	16.855	933.185	705.522
188.256	17.161	932.740	706.399
189.271	17.054	932.291	705.550
190.286	16.704	931.163	703.180
191.300	16.368	930.265	701.045
192.315	16.428	929.227	700.450
193.329	16.456	929.203	700.488
194.344	16.616	928.544	700.588
195.359	16.584	927.916	699.923
196.373	16.874	927.583	700.806
197.388	16.900	927.081	700.474
198.402	17.064	926.618	700.742
199.417	17.218	925.825	700.714
200.432	17.300	925.342	700.623
201.446	17.304	925.315	700.558
202.461	17.249	924.635	699.754
203.475	17.240	923.685	698.938
204.490	17.061	922.868	697.522
205.504	17.127	921.906	697.001
206.519	16.898	921.421	695.634
207.534	16.919	920.618	695.055
208.548	17.026	919.846	694.848
209.563	16.924	919.868	694.383
210.577	16.971	918.989	693.854
211.592	17.183	918.104	693.989
212.607	17.238	917.186	693.457
213.621	17.171	916.441	692.560
214.636	17.302	915.654	692.439
215.650	17.267	915.044	691.773
216.665	17.400	914.349	691.725
217.680	17.427	913.791	691.353
218.694	17.614	913.050	691.489
219.709	17.423	912.457	690.205
220.723	17.576	911.591	690.109
221.738	17.397	910.992	688.869
222.753	17.414	910.649	688.617
223.767	17.424	909.932	688.054
224.782	17.513	909.736	688.207
225.796	17.569	909.090	687.883
226.811	17.497	908.478	687.067
227.826	17.411	907.395	685.843
228.840	17.353	906.581	684.930
229.855	17.379	905.718	684.323
230.869	17.434	904.861	683.839
231.884	17.254	904.719	682.945
232.899	17.316	903.822	682.458
233.913	17.109	903.153	681.061
234.928	17.152	902.414	680.615
235.942	17.128	902.092	680.215
236.957	17.175	901.180	679.659
237.972	17.175	900.242	678.890
238.986	17.183	900.032	678.703
240.001	17.241	899.387	678.390
241.015	17.335	898.792	678.254
242.030	17.511	898.154	678.413
243.045	17.342	897.713	677.348
244.059	17.449	897.206	677.332
245.074	17.456	896.496	676.763
246.088	17.564	895.789	676.598
247.103	17.646	895.202	676.422
248.117	17.745	894.937	676.552
249.132	17.951	894.390	676.896
250.147	17.944	894.092	676.584
251.161	18.115	893.287	676.591
252.176	18.058	892.610	675.793
253.190	18.118	891.824	675.374
254.205	18.209	891.263	675.251
255.220	18.173	890.609	674.554
256.234	18.006	890.456	673.718
257.249	18.182	889.542	673.660
258.263	18.232	888.553	673.048
259.278	18.154	887.663	672.010
260.293	18.164	887.679	672.002
261.307	18.282	887.158	672.009
262.322	18.355	886.162	671.484
263.336	18.335	885.613	670.928
264.351	18.279	885.068	670.237
265.366	18.374	884.111	669.824
266.380	18.211	883.823	668.911
267.395	18.150	882.847	667.876
268.409	18.209	882.077	667.462
269.424	18.147	881.565	666.774
270.439	18.295	880.550	666.525
271.453	18.118	879.826	665.231
272.468	18.198	879.368	665.133
273.482	18.006	879.193	664.199
274.497	18.117	878.703	664.200
275.512	18.256	877.514	663.782
276.526	18.118	877.412	663.111
277.541	18.151	877.201	663.019
278.555	18.396	876.709	663.538
279.570	18.499	875.766	663.165
280.585	18.434	874.768	662.101
281.599	18.335	874.031	661.100
282.614	18.221	873.379	660.110
283.628	18.271	872.860	659.852
284.643	18.197	872.482	659.221
285.657	18.172	871.684	658.463
286.672	18.213	870.939	658.002
287.687	18.236	870.441	657.656
288.701	18.389	869.790	657.691
289.716	18.483	868.992	657.390
290.730	18.511	869.003	657.448
291.745	18.473	868.140	656.592
292.760	18.449	867.772	656.164
293.774	18.764	866.851	656.613
294.789	18.556	866.043	655.150
295.803	18.409	865.605	654.199
296.818	18.384	864.460	653.179
297.833	18.466	864.127	653.182
298.847	18.514	863.496	652.830
299.862	18.522	863.097	652.501
300.876	18.501	862.853	652.180
301.891	18.673	861.998	652.128
302.906	18.714	861.544	651.885
303.920	18.815	861.243	651.981
304.935	19.067	860.208	652.096
305.949	18.830	859.574	650.661
306.964	18.704	859.013	649.701
307.979	18.705	858.574	649.316
308.993	18.694	858.264	648.984
310.008	18.815	857.570	648.857
311.022	18.748	857.078	648.174
312.037	18.696	856.285	647.322
313.052	18.588	855.524	646.282
314.066	18.480	854.826	645.292
315.081	18.509	854.490	645.089
316.095	18.728	853.450	645.069
317.110	18.513	853.732	644.419
318.125	18.405	853.034	643.429
319.139	18.554	852.175	643.281
320.154	18.621	851.778	643.176
321.168	18.559	851.439	642.630
322.183	18.738	850.932	642.862
323.197	18.816	850.545	642.806
324.212	18.869	849.516	642.168
325.227	18.658	849.275	641.141
326.241	18.706	848.495	640.677
327.256	18.595	848.188	639.971
328.270	18.583	847.590	639.421
329.285	18.619	846.945	639.012
330.300	18.693	846.280	638.728
331.314	18.695	845.901	638.392
332.329	18.720	845.699	638.277
333.343	18.974	844.925	638.580
334.358	18.813	844.922	637.922
335.373	18.794	844.360	637.371
336.387	18.787	843.965	636.993
337.402	19.070	843.827	637.880
338.416	19.196	843.367	637.941
339.431	19.148	843.226	637.601
340.446	19.176	843.019	637.492
341.460	19.284	842.414	637.378
342.475	19.352	841.922	637.199
343.489	19.376	841.490	636.907
344.504	19.344	841.488	636.730
345.519	19.507	840.658	636.645
346.533	19.426	839.869	635.696
347.548	19.187	839.192	634.244
348.562	19.062	838.732	633.381
349.577	19.096	838.048	632.933
350.592	19.083	837.446	632.376
351.606	18.983	836.839	631.494
352.621	19.043	836.031	631.048
353.635	19.093	835.305	630.627
354.650	19.245	834.698	630.672
355.665	19.285	833.934	630.184
356.679	19.170	833.636	629.482
357.694	19.174	833.230	629.136
358.708	19.272	832.335	628.760
359.723	19.279	831.862	628.373
360.738	19.285	831.365	627.964
361.752	19.256	830.874	627.432
362.767	19.383	830.441	627.512
363.781	19.411	830.288	627.442
364.796	19.570	829.647	627.479
365.810	19.565	829.348	627.182
366.825	19.808	828.621	627.457
367.840	19.823	827.977	626.970
368.854	19.608	827.692	625.916
369.869	19.591	827.020	625.291
370.883	19.563	826.849	625.006
371.898	19.723	826.781	625.478
372.913	19.749	826.117	625.016
373.927	19.664	825.530	624.210
374.942	19.633	825.180	623.778
375.956	19.791	824.370	623.679
376.971	19.925	824.182	623.967
377.986	20.001	823.749	623.855
379.000	19.900	823.351	623.135
380.015	19.925	822.422	622.467
381.029	19.893	821.763	621.798
382.044	19.915	821.384	621.535
383.059	19.964	821.046	621.400
384.073	19.978	819.918	620.541
385.088	19.740	819.495	619.314
386.102	19.799	819.098	619.171
387.117	19.748	818.205	618.260
388.132	19.793	817.488	617.823
389.146	19.679	817.463	617.344
390.161	19.977	816.899	617.927
391.175	19.979	816.428	617.520
392.190	19.936	815.654	616.728
393.205	19.732	815.442	615.788
394.219	19.792	815.005	615.616
395.234	19.853	814.489	615.387
396.248	19.538	814.358	614.116
397.263	19.568	813.649	613.631
398.278	19.690	813.014	613.533
399.292	19.675	812.907	613.346
400.307	19.657	812.148	612.652
401.321	19.708	811.693	612.437
402.336	19.898	811.179	612.666
403.350	19.858	811.066	612.387
404.365	20.029	810.872	612.791
405.380	20.023	810.112	612.142
406.394	20.193	809.727	612.395
407.409	20.057	809.219	611.477
408.423	20.225	809.170	611.979
409.438	20.232	808.866	611.718
410.453	20.344	808.298	611.630
411.467	20.241	807.867	610.887
412.482	20.370	807.783	611.223
413.496	20.443	807.052	610.873
414.511	20.391	807.094	610.667
415.526	20.314	806.289	609.737
416.540	20.404	805.654	609.517
417.555	20.464	805.012	609.186
418.569	20.465	804.989	609.120
419.584	20.373	804.481	608.360
420.599	20.528	803.714	608.266
421.613	160.988	1373.575	1795.658
422.628	139.828	1456.602	1795.727
