DTS Sentinel unit serial number:	SN413079Multiplexer serial number:	ORYXHardware model number:	OX4-SRSoftware version number:	ORYX F/W v4.00 Oryx Data Collector v3.7.2.0data status	okinstallation	princeton_trtdifferential loss correction	single-endedforward channel	channel 1reverse channel	N/Adate	2019/09/16time	19:22:35forward acquisition time	60.00reverse acquisition time	0.00gamma	496.2192k internal	0.2314k external	0.2314temperature offset calibration	0.9948default loss term (dB/km)	0.3790temperature slope calibration	1.0000multiplexer offset coefficient	1.0000multiplexer slope coefficient	1.0000fibre end	0.00T internal ref (°C)	34.77T ext. ref 1 (°C)	0.06T ext. ref 2 (°C)	27.86length (m)	temperature (°C)	Stokes	anti-Stokes-747.200	-62.400	0.102	0.043
-746.185	152.483	-0.205	0.284
-745.171	87.503	0.187	-0.210
-744.156	-200.000	0.025	0.254
-743.142	-35.178	0.190	-0.105
-742.127	254.708	-0.339	0.588
-741.112	-127.745	-0.222	-0.033
-740.098	-79.905	-0.343	-0.117
-739.083	-158.532	0.096	0.006
-738.069	-177.995	-0.407	-0.010
-737.054	800.000	-0.092	-0.304
-736.039	181.796	0.162	-0.242
-735.025	800.000	0.065	0.263
-734.010	16.444	-0.405	-0.324
-732.996	-135.425	-0.230	-0.028
-731.981	34.346	0.231	-0.204
-730.966	626.549	-0.142	-0.364
-729.952	800.000	0.054	-0.190
-728.937	107.322	-0.084	-0.102
-727.923	-200.000	-0.007	-0.102
-726.908	800.000	0.067	0.262
-725.894	287.425	0.040	0.074
-724.879	-200.000	-0.103	-0.469
-723.864	95.648	0.102	-0.118
-722.850	56.386	-0.140	-0.138
-721.835	54.145	-0.265	-0.259
-720.821	413.851	0.177	-0.382
-719.806	-200.000	-0.060	-0.282
-718.791	354.304	-0.099	0.200
-717.777	-200.000	0.043	-0.287
-716.762	800.000	0.050	0.205
-715.748	800.000	0.025	0.110
-714.733	800.000	0.069	0.206
-713.718	82.772	-0.322	-0.355
-712.704	-84.011	-0.062	0.020
-711.689	306.243	-0.023	0.043
-710.675	-109.502	0.072	-0.015
-709.660	-200.000	0.003	0.338
-708.645	46.574	0.200	-0.188
-707.631	-71.303	-0.293	-0.111
-706.616	-122.035	-0.155	-0.026
-705.602	-82.268	0.363	-0.120
-704.587	37.177	-0.023	0.020
-703.572	100.733	-0.268	-0.315
-702.558	800.000	0.011	0.042
-701.543	-29.141	-0.146	0.085
-700.529	18.425	-0.189	-0.153
-699.514	409.591	0.095	0.204
-698.499	-43.711	0.267	-0.136
-697.485	-82.246	0.239	0.079
-696.470	99.034	0.120	-0.141
-695.456	-94.059	0.201	0.056
-694.441	-56.985	0.266	0.119
-693.426	70.623	-0.225	0.235
-692.412	10.219	-0.303	0.233
-691.397	6.241	-0.100	0.075
-690.383	85.920	0.145	-0.162
-689.368	-103.191	0.265	0.063
-688.354	-52.476	0.267	-0.125
-687.339	-23.550	0.024	0.015
-686.324	-168.205	0.194	-0.008
-685.310	444.452	-0.117	0.259
-684.295	-58.831	-0.158	-0.069
-683.281	276.007	0.063	0.113
-682.266	-200.000	-0.002	-0.204
-681.251	-126.123	0.077	-0.012
-680.237	-143.593	0.031	-0.003
-679.222	-40.317	0.292	-0.154
-678.208	-16.284	-0.174	-0.112
-677.193	521.471	0.077	-0.184
-676.178	-200.000	0.051	0.255
-675.164	430.143	0.114	-0.250
-674.149	422.584	0.018	-0.039
-673.135	-68.298	-0.443	-0.174
-672.120	800.000	0.063	0.180
-671.105	-200.000	-0.046	0.344
-670.091	-0.584	0.144	0.103
-669.076	-1.911	0.129	-0.092
-668.062	18.324	0.184	0.148
-667.047	-149.283	0.631	0.051
-666.032	269.680	0.221	0.393
-665.018	-100.776	-0.264	-0.066
-664.003	-95.221	0.254	0.069
-662.989	74.874	0.238	-0.253
-661.974	-64.590	-0.210	-0.086
-660.959	800.000	0.121	0.415
-659.945	800.000	0.078	0.238
-658.930	598.685	0.101	-0.253
-657.916	382.334	0.073	-0.151
-656.901	-200.000	-0.002	-0.088
-655.886	-173.283	-0.187	0.006
-654.872	-158.799	-0.102	0.006
-653.857	-133.536	-0.230	-0.029
-652.843	-200.000	-0.005	0.084
-651.828	-95.362	0.149	0.040
-650.814	132.405	0.116	0.151
-649.799	-134.994	0.082	-0.010
-648.784	-200.000	-0.065	0.375
-647.770	31.894	-0.028	0.025
-646.755	140.524	-0.021	0.028
-645.741	-6.746	-0.281	-0.193
-644.726	16.083	0.091	-0.072
-643.711	-147.530	-0.081	-0.007
-642.697	-200.000	-0.023	-0.177
-641.682	-200.000	-0.028	-0.302
-640.668	388.231	-0.033	0.070
-639.653	-133.638	-0.108	-0.014
-638.638	78.427	-0.133	-0.144
-637.624	-193.163	-0.195	0.002
-636.609	-200.000	0.005	-0.027
-635.595	7.646	-0.053	0.040
-634.580	-20.856	0.350	-0.217
-633.565	745.237	-0.067	-0.181
-632.551	-106.235	-0.162	0.037
-631.536	-73.461	-0.243	-0.090
-630.522	800.000	-0.060	-0.230
-629.507	-48.102	-0.109	-0.053
-628.492	800.000	0.085	0.292
-627.478	14.767	0.129	-0.102
-626.463	41.536	0.051	0.046
-625.449	-105.621	0.225	0.051
-624.434	394.744	-0.065	0.136
-623.419	0.641	0.348	-0.252
-622.405	242.158	0.116	0.196
-621.390	707.466	0.100	0.266
-620.376	417.786	0.010	-0.022
-619.361	-200.000	-0.053	0.544
-618.346	-56.980	0.203	-0.090
-617.332	-53.520	-0.174	-0.080
-616.317	800.000	0.022	-0.061
-615.303	-200.000	-0.017	0.144
-614.288	-13.736	0.256	0.167
-613.273	58.798	-0.152	0.151
-612.259	-55.524	-0.173	-0.078
-611.244	-111.119	0.126	0.026
-610.230	241.767	-0.106	0.179
-609.215	-91.263	-0.149	-0.043
-608.201	181.698	0.200	-0.296
-607.186	210.926	-0.152	-0.242
-606.171	-4.035	0.106	-0.074
-605.157	-137.349	0.392	-0.045
-604.142	-200.000	-0.030	0.330
-603.128	156.500	-0.235	0.328
-602.113	467.866	0.095	0.216
-601.098	-54.473	-0.036	0.017
-600.084	-200.000	0.006	-0.191
-599.069	-180.630	-0.400	0.008
-598.055	-19.628	-0.303	0.189
-597.040	-79.356	0.268	0.091
-596.025	-86.706	-0.230	0.071
-595.011	187.456	-0.158	-0.238
-593.996	-10.062	0.147	-0.099
-592.982	-200.000	0.026	-0.169
-591.967	800.000	-0.026	0.100
-590.952	-45.908	0.333	0.166
-589.938	84.788	-0.131	0.145
-588.923	-37.611	-0.074	0.040
-587.909	-144.404	0.293	0.027
-586.894	-74.041	-0.155	-0.057
-585.879	88.726	0.179	-0.200
-584.865	-167.400	-0.135	0.005
-583.850	-26.370	-0.056	-0.033
-582.836	800.000	0.014	0.052
-581.821	-49.127	-0.213	-0.103
-580.806	-53.097	-0.227	-0.105
-579.792	800.000	-0.092	-0.326
-578.777	-62.786	-0.082	0.034
-577.763	-88.738	0.294	0.088
-576.748	-70.996	0.280	-0.106
-575.733	5.485	0.150	0.112
-574.719	-200.000	0.029	0.187
-573.704	-126.224	0.317	-0.048
-572.690	34.972	0.022	0.019
-571.675	-2.363	-0.214	0.151
-570.661	-41.835	0.131	-0.068
-569.646	-53.164	0.080	-0.037
-568.631	-102.882	0.262	-0.063
-567.617	-63.063	-0.277	0.115
-566.602	-9.823	0.217	0.146
-565.588	94.493	0.187	-0.213
-564.573	-67.415	0.212	-0.084
-563.558	-200.000	-0.042	-0.291
-562.544	164.969	0.163	-0.232
-561.529	800.000	-0.117	-0.365
-560.515	-29.917	-0.058	0.033
-559.500	-200.000	-0.042	-0.242
-558.485	-50.671	-0.115	0.054
-557.471	-9.414	-0.174	0.117
-556.456	111.770	0.159	-0.193
-555.442	-69.485	-0.040	-0.015
-554.427	280.951	0.176	-0.317
-553.412	-200.000	0.033	-0.163
-552.398	-200.000	-0.013	-0.260
-551.383	-129.132	-0.101	0.014
-550.369	-200.000	-0.008	-0.044
-549.354	213.585	-0.107	-0.170
-548.339	-200.000	0.006	-0.549
-547.325	142.551	-0.048	-0.065
-546.310	106.698	0.027	-0.033
-545.296	800.000	-0.078	-0.258
-544.281	-14.844	-0.155	0.100
-543.266	-200.000	-0.001	-0.086
-542.252	-200.000	-0.009	0.069
-541.237	368.894	0.025	-0.050
-540.223	-39.722	0.280	-0.148
-539.208	33.589	0.372	0.325
-538.193	-150.279	-0.112	0.009
-537.179	-78.650	-0.380	0.131
-536.164	-200.000	-0.001	0.136
-535.150	237.593	0.128	0.214
-534.135	151.200	0.154	-0.211
-533.121	121.332	0.101	0.127
-532.106	274.334	0.105	0.187
-531.091	504.896	-0.031	0.072
-530.077	-42.942	-0.235	-0.120
-529.062	800.000	0.058	0.242
-528.048	-119.532	-0.248	0.043
-527.033	37.594	0.038	0.034
-526.018	402.650	-0.171	0.362
-525.004	-32.597	0.047	0.027
-523.989	-94.129	0.139	0.038
-522.975	43.600	-0.117	-0.107
-521.960	305.569	0.109	0.204
-520.945	800.000	0.021	0.069
-519.931	-200.000	0.104	-0.474
-518.916	140.621	0.114	0.151
-517.902	-139.563	-0.016	0.002
-516.887	25.307	0.180	-0.150
-515.872	-150.886	-0.457	-0.035
-514.858	-200.000	0.009	0.169
-513.843	-15.196	0.248	0.160
-512.829	-108.457	0.318	-0.069
-511.814	-80.124	-0.103	-0.035
-510.799	752.458	0.053	-0.143
-509.785	-32.339	-0.143	-0.080
-508.770	85.139	-0.306	0.337
-507.756	-51.574	0.102	0.048
-506.741	-147.931	0.116	-0.010
-505.726	800.000	-0.056	-0.220
-504.712	-61.203	-0.232	0.098
-503.697	800.000	-0.038	0.158
-502.683	-200.000	-0.084	0.471
-501.668	33.589	-0.250	0.218
-500.653	-33.496	0.022	0.012
-499.639	333.753	-0.133	0.259
-498.624	800.000	0.021	0.065
-497.610	-120.796	0.093	0.016
-496.595	4.144	0.214	0.157
-495.581	-34.988	-0.230	0.126
-494.566	37.561	-0.154	0.137
-493.551	22.078	0.097	-0.079
-492.537	-41.343	-0.102	-0.053
-491.522	800.000	0.022	-0.075
-490.508	119.088	0.165	0.205
-489.493	-96.521	-0.159	0.042
-488.478	74.870	-0.096	0.102
-487.464	800.000	-0.059	0.174
-486.449	181.843	-0.253	-0.374
-485.435	89.785	0.109	0.122
-484.420	800.000	0.062	-0.182
-483.405	-46.571	0.225	-0.111
-482.391	110.209	0.109	-0.132
-481.376	119.383	-0.067	0.084
-480.362	-39.001	0.130	-0.069
-479.347	28.878	0.177	0.151
-478.332	-106.930	0.198	0.044
-477.318	-200.000	0.014	-0.159
-476.303	-200.000	-0.030	0.340
-475.289	21.477	-0.150	0.122
-474.274	-19.075	0.170	0.106
-473.259	210.516	-0.240	-0.378
-472.245	60.189	-0.205	0.203
-471.230	-200.000	0.041	0.290
-470.216	800.000	0.066	0.237
-469.201	800.000	0.038	0.149
-468.186	21.190	0.022	0.018
-467.172	-109.186	-0.218	0.046
-466.157	13.256	0.122	-0.095
-465.143	-98.451	-0.304	0.078
-464.128	22.498	-0.175	0.144
-463.113	521.286	-0.038	-0.089
-462.099	-19.124	0.055	-0.034
-461.084	70.134	-0.028	-0.029
-460.070	327.049	0.275	0.529
-459.055	-138.352	-0.220	0.024
-458.040	2.470	-0.059	-0.043
-457.026	275.615	0.117	-0.208
-456.011	-181.059	-0.224	-0.004
-454.997	162.478	-0.200	-0.282
-453.982	-30.002	0.056	0.032
-452.968	473.940	-0.108	0.244
-451.953	-28.636	-0.162	0.094
-450.938	-89.491	-0.184	-0.054
-449.924	100.506	-0.206	-0.240
-448.909	800.000	-0.055	0.157
-447.895	800.000	-0.097	-0.296
-446.880	33.877	0.023	-0.020
-445.865	-80.903	-0.131	0.043
-444.851	800.000	0.037	-0.110
-443.836	-164.957	-0.071	-0.003
-442.822	-200.000	0.063	0.289
-441.807	800.000	0.105	0.306
-440.792	97.488	0.123	0.142
-439.778	-135.755	-0.291	0.035
-438.763	-200.000	0.038	0.179
-437.749	-64.565	-0.324	-0.132
-436.734	-200.000	0.004	0.039
-435.719	-114.399	0.060	-0.012
-434.705	-112.674	-0.241	0.048
-433.690	-160.235	0.234	-0.013
-432.676	-30.106	0.168	-0.096
-431.661	-200.000	0.025	0.110
-430.646	-200.000	-0.023	-0.104
-429.632	-109.947	-0.126	-0.026
-428.617	-200.000	0.023	0.167
-427.603	-140.445	-0.342	0.036
-426.588	800.000	0.027	-0.089
-425.573	800.000	0.041	0.175
-424.559	27.356	-0.115	-0.096
-423.544	31.352	0.088	-0.076
-422.530	-33.112	0.166	-0.092
-421.515	-89.696	-0.059	-0.017
-420.500	196.075	-0.020	0.031
-419.486	-82.058	0.202	-0.066
-418.471	99.212	0.225	0.261
-417.457	-200.000	-0.016	-0.137
-416.442	-189.445	0.378	0.004
-415.428	-48.922	-0.242	-0.116
-414.413	63.692	0.112	-0.112
-413.398	-17.957	-0.178	0.112
-412.384	800.000	-0.020	-0.083
-411.369	286.586	0.144	-0.260
-410.355	800.000	0.117	0.463
-409.340	-131.584	0.164	0.022
-408.325	264.062	0.188	0.328
-407.311	11.093	-0.288	0.220
-406.296	72.501	-0.161	0.168
-405.282	786.675	0.093	-0.255
-404.267	108.923	0.222	0.265
-403.252	156.296	0.245	0.338
-402.238	215.368	-0.100	-0.158
-401.223	-200.000	0.054	-0.268
-400.209	124.834	-0.244	-0.308
-399.194	-34.075	0.041	-0.022
-398.179	800.000	0.089	0.308
-397.165	-39.070	0.214	-0.113
-396.150	-200.000	-0.012	-0.121
-395.136	-200.000	-0.012	0.082
-394.121	-200.000	0.029	0.135
-393.106	-91.821	0.207	-0.059
-392.092	32.679	-0.072	-0.062
-391.077	-69.359	-0.075	-0.029
-390.063	-76.930	0.175	0.061
-389.048	-179.490	-0.212	-0.005
-388.033	-83.238	0.037	0.012
-387.019	438.137	0.197	-0.429
-386.004	164.271	-0.108	-0.152
-384.990	-200.000	0.029	-0.167
-383.975	-117.711	-0.185	0.033
-382.960	26.773	-0.225	0.188
-381.946	218.285	-0.113	-0.181
-380.931	151.197	-0.060	-0.082
-379.917	-200.000	-0.026	0.180
-378.902	-135.555	-0.219	0.026
-377.888	-200.000	-0.032	0.194
-376.873	-46.506	0.153	0.075
-375.858	99.177	0.204	0.236
-374.844	-118.588	0.115	-0.020
-373.829	-80.660	-0.316	0.105
-372.815	-200.000	0.055	-0.241
-371.800	515.751	0.027	-0.063
-370.785	114.357	-0.023	0.028
-369.771	-39.873	-0.344	0.180
-368.756	-150.338	0.211	-0.016
-367.742	-200.000	-0.035	0.258
-366.727	-63.732	0.224	0.092
-365.712	359.349	0.143	-0.285
-364.698	705.746	-0.062	0.164
-363.683	523.205	0.009	-0.021
-362.669	57.672	0.207	0.202
-361.654	800.000	-0.044	0.144
-360.639	8.319	0.124	-0.093
-359.625	555.825	-0.075	-0.180
-358.610	-87.423	0.244	0.074
-357.596	304.390	-0.093	-0.173
-356.581	97.951	-0.144	-0.165
-355.566	-200.000	-0.002	0.222
-354.552	317.008	-0.208	0.392
-353.537	657.182	0.031	-0.080
-352.523	38.658	-0.190	0.170
-351.508	-99.685	0.073	0.018
-350.493	71.568	-0.228	0.237
-349.479	9.992	-0.211	-0.160
-348.464	374.384	-0.180	-0.365
-347.450	-24.547	0.163	0.097
-346.435	55.070	-0.211	-0.203
-345.420	417.559	0.126	0.268
-344.406	-61.818	0.308	0.129
-343.391	-128.570	0.069	0.010
-342.377	-165.941	-0.225	0.010
-341.362	-42.099	0.114	0.058
-340.348	-23.406	-0.284	0.170
-339.333	44.861	-0.184	0.169
-338.318	377.141	0.139	0.284
-337.304	-200.000	-0.027	-0.205
-336.289	283.644	-0.121	0.217
-335.275	61.024	-0.053	-0.053
-334.260	-78.004	0.140	-0.048
-333.245	107.840	-0.088	-0.104
-332.231	-55.997	0.568	0.252
-331.216	-187.738	-0.201	0.003
-330.202	-104.056	0.091	0.021
-329.187	87.177	-0.131	-0.144
-328.172	626.835	-0.160	0.404
-327.158	-200.000	0.044	0.227
-326.143	-12.873	-0.240	0.156
-325.129	383.642	0.038	-0.078
-324.114	-200.000	0.002	0.206
-323.099	339.019	-0.099	-0.192
-322.085	-200.000	-0.013	-0.096
-321.070	-7.342	0.078	-0.053
-320.056	81.473	0.146	-0.157
-319.041	3.848	-0.124	0.090
-318.026	-74.777	-0.208	0.075
-317.012	122.430	0.103	0.129
-315.997	-136.892	0.206	-0.024
-314.983	-181.909	0.248	0.005
-313.968	10.385	-0.082	-0.062
-312.953	407.528	-0.101	-0.213
-311.939	-137.792	0.138	0.015
-310.924	85.201	-0.185	0.203
-309.910	329.694	0.107	-0.205
-308.895	56.704	-0.279	0.271
-307.880	536.896	0.102	-0.241
-306.866	800.000	0.081	-0.241
-305.851	176.588	-0.116	0.168
-304.837	50.852	0.259	0.245
-303.822	800.000	0.033	-0.100
-302.807	-200.000	0.015	-0.072
-301.793	-200.000	0.027	-0.275
-300.778	-95.782	-0.205	-0.055
-299.764	-92.449	0.214	-0.060
-298.749	233.035	0.102	0.168
-297.735	-200.000	-0.049	-0.339
-296.720	-125.962	-0.173	0.026
-295.705	-18.830	0.048	-0.030
-294.691	120.176	0.061	0.075
-293.676	-33.510	0.176	-0.097
-292.662	362.478	-0.040	-0.081
-291.647	-200.000	-0.001	-0.086
-290.632	-38.251	0.363	0.192
-289.618	-27.121	-0.337	0.196
-288.603	538.999	0.119	-0.282
-287.589	-116.436	0.072	0.013
-286.574	379.252	-0.041	-0.083
-285.559	5.875	0.234	-0.172
-284.545	-131.974	0.225	-0.029
-283.530	222.411	-0.082	-0.132
-282.516	-9.694	0.235	0.156
-281.501	164.025	-0.149	0.208
-280.486	-103.791	0.162	0.038
-279.472	-153.081	0.190	0.013
-278.457	36.865	-0.066	0.058
-277.443	110.556	-0.163	0.196
-276.428	-5.729	0.119	-0.081
-275.413	-125.731	0.292	0.044
-274.399	203.636	-0.041	0.063
-273.384	218.888	-0.067	0.107
-272.370	-200.000	-0.040	0.216
-271.355	315.871	0.156	-0.293
-270.340	-71.655	-0.256	-0.095
-269.326	131.576	0.158	0.203
-268.311	-200.000	-0.006	-0.092
-267.297	-200.000	0.018	-0.138
-266.282	-146.246	0.106	-0.009
-265.267	198.575	0.035	-0.054
-264.253	-129.380	0.187	0.026
-263.238	-200.000	0.020	-0.108
-262.224	-111.223	0.149	0.030
-261.209	800.000	-0.117	0.454
-260.195	800.000	-0.034	-0.103
-259.180	494.069	0.171	-0.390
-258.165	289.935	0.187	-0.338
-257.151	474.071	0.043	0.096
-256.136	-57.446	0.136	-0.059
-255.122	180.209	-0.161	-0.235
-254.107	-28.477	0.104	0.060
-253.092	800.000	0.088	0.250
-252.078	-64.319	-0.021	0.009
-251.063	17.186	-0.050	-0.039
-250.049	-200.000	0.035	-0.679
-249.034	223.067	0.284	-0.455
-248.019	27.165	-0.215	0.179
-247.005	-94.278	-0.119	0.032
-245.990	-147.057	0.254	0.022
-244.976	-184.261	0.175	-0.003
-243.961	-193.526	0.229	-0.002
-242.946	-36.327	-0.140	-0.075
-241.932	397.281	0.144	-0.299
-240.917	-64.547	-0.237	0.096
-239.903	-49.687	-0.554	-0.262
-238.888	84.829	-0.101	-0.110
-237.873	-36.036	-0.269	-0.144
-236.859	800.000	-0.077	-0.232
-235.844	-200.000	-0.066	-0.298
-234.830	621.401	0.034	-0.084
-233.815	-200.000	0.011	0.058
-232.800	-103.097	0.268	-0.063
-231.786	-56.708	0.069	0.030
-230.771	470.640	-0.052	-0.116
-229.757	-22.739	0.186	-0.112
-228.742	129.601	-0.151	0.191
-227.727	-200.000	-0.002	-0.067
-226.713	249.018	-0.058	0.098
-225.698	-40.282	0.198	-0.103
-224.684	-200.000	-0.028	-0.168
-223.669	156.633	0.208	0.286
-222.655	-200.000	0.020	-0.226
-221.640	-90.099	0.207	0.060
-220.625	-53.965	-0.074	-0.033
-219.611	-34.332	0.164	-0.089
-218.596	-163.120	-0.284	0.014
-217.582	-139.318	0.104	0.011
-216.567	-200.000	-0.093	-0.447
-215.552	69.837	-0.274	-0.281
-214.538	400.144	-0.216	-0.449
-213.523	-200.000	0.052	0.379
-212.509	-15.564	0.120	-0.076
-211.494	-104.418	0.203	-0.047
-210.479	40.428	-0.043	0.039
-209.465	-37.794	0.166	0.088
-208.450	151.441	-0.161	-0.218
-207.436	800.000	-0.070	0.239
-206.421	-65.968	0.226	-0.090
-205.406	118.699	0.109	0.134
-204.392	-200.000	-0.016	-0.079
-203.377	505.851	0.110	-0.254
-202.363	104.159	0.161	0.188
-201.348	-70.780	0.045	-0.017
-200.333	-200.000	-0.015	0.112
-199.319	-41.620	-0.080	-0.041
-198.304	-200.000	0.023	0.341
-197.290	117.619	-0.226	-0.276
-196.275	-200.000	0.005	-0.102
-195.260	590.570	-0.043	-0.104
-194.246	-55.991	-0.284	0.126
-193.231	-200.000	0.036	0.251
-192.217	102.478	0.189	0.220
-191.202	-6.631	-0.186	-0.126
-190.187	156.505	0.076	-0.104
-189.173	-97.034	0.197	0.051
-188.158	401.202	0.048	-0.100
-187.144	-200.000	0.014	-0.214
-186.129	800.000	0.021	0.073
-185.114	800.000	0.080	0.304
-184.100	-200.000	0.010	0.175
-183.085	800.000	-0.112	-0.337
-182.071	800.000	-0.055	-0.206
-181.056	-71.958	0.177	-0.065
-180.042	-200.000	0.003	-0.240
-179.027	800.000	-0.070	-0.242
-178.012	-200.000	0.023	-0.207
-176.998	3.855	-0.259	-0.187
-175.983	-200.000	0.036	0.280
-174.969	800.000	0.123	-0.375
-173.954	-78.547	0.066	0.022
-172.939	-200.000	-0.015	0.099
-171.925	-54.316	0.119	-0.054
-170.910	-39.590	-0.210	-0.109
-169.896	23.658	0.151	-0.123
-168.881	-54.066	0.142	0.064
-167.866	-148.644	-0.327	0.026
-166.852	-144.795	0.061	-0.006
-165.837	-147.106	0.197	0.017
-164.823	-21.983	-0.195	0.117
-163.808	-200.000	0.083	0.440
-162.793	618.646	0.099	0.246
-161.779	284.643	-0.078	0.139
-160.764	-154.616	-0.260	0.017
-159.750	-87.817	-0.383	-0.114
-158.735	235.335	0.103	0.169
-157.720	-103.981	-0.199	-0.046
-156.706	-73.821	0.159	0.057
-155.691	-112.719	-0.372	-0.073
-154.677	183.948	0.224	0.328
-153.662	-178.542	0.086	-0.002
-152.647	800.000	-0.072	0.260
-151.633	-200.000	0.024	-0.221
-150.618	70.202	0.016	0.016
-149.604	-60.127	0.186	0.078
-148.589	-156.917	0.176	-0.011
-147.574	-200.000	-0.009	-0.173
-146.560	-13.929	0.062	0.039
-145.545	-149.852	0.235	0.018
-144.531	60.711	-0.056	0.055
-143.516	349.196	0.096	-0.188
-142.502	-200.000	0.011	0.111
-141.487	-91.090	0.223	-0.063
-140.472	-131.848	0.114	-0.015
-139.458	800.000	0.122	0.443
-138.443	87.024	0.298	0.326
-137.429	10.299	0.222	-0.167
-136.414	69.158	0.119	0.121
-135.399	-49.843	-0.155	0.073
-134.385	-87.935	0.129	0.038
-133.370	800.000	0.056	-0.214
-132.356	43.392	0.037	-0.034
-131.341	-200.000	0.004	-0.155
-130.326	800.000	0.086	0.279
-129.312	112.966	-0.176	-0.211
-128.297	627.731	-0.102	0.255
-127.283	-200.000	-0.016	-0.108
-126.268	-200.000	-0.001	0.129
-125.253	-200.000	-0.063	0.286
-124.239	197.970	0.146	-0.222
-123.224	-50.846	-0.242	-0.112
-122.210	323.305	-0.038	-0.072
-121.195	270.471	0.010	-0.017
-120.180	145.773	-0.232	0.307
-119.166	-106.891	-0.038	0.008
-118.151	0.194	-0.084	0.059
-117.137	46.759	0.234	0.215
-116.122	48.642	0.218	0.202
-115.107	800.000	0.003	0.014
-114.093	800.000	-0.063	0.173
-113.078	-200.000	-0.009	-0.360
-112.064	358.846	-0.016	0.032
-111.049	-45.529	-0.053	-0.026
-110.034	201.291	0.210	-0.320
-109.020	42.590	0.193	-0.174
-108.005	-200.000	0.033	0.168
-106.991	-200.000	0.020	0.199
-105.976	129.691	-0.210	-0.265
-104.962	-200.000	-0.008	0.141
-103.947	-94.534	-0.199	0.054
-102.932	-110.216	-0.179	0.037
-101.918	-135.612	0.420	0.049
-100.903	800.000	-0.129	0.450
-99.889	-142.271	-0.134	-0.013
-98.874	399.029	-0.172	-0.357
-97.859	-200.000	-0.042	0.252
-96.845	800.000	0.056	0.155
-95.830	800.000	0.052	0.217
-94.816	635.714	0.085	0.213
-93.801	65.883	-0.074	0.075
-92.786	-200.000	-0.050	0.248
-91.772	230.712	0.105	-0.169
-90.757	2.568	0.355	0.254
-89.743	800.000	0.136	-0.402
-88.728	-200.000	-0.003	0.036
-87.713	36.472	0.151	-0.131
-86.699	-52.385	-0.408	0.187
-85.684	130.755	0.257	-0.326
-84.670	164.027	0.092	-0.128
-83.655	231.416	0.237	0.384
-82.640	-29.905	-0.311	0.175
-81.626	-200.000	-0.005	-0.054
-80.611	-200.000	-0.039	0.617
-79.597	8.249	0.109	0.081
-78.582	179.547	-0.058	-0.083
-77.567	199.747	0.060	0.090
-76.553	800.000	0.053	0.147
-75.538	-9.082	-0.157	0.104
-74.524	50.240	-0.182	0.169
-73.509	-200.000	-0.005	-0.186
-72.494	-133.710	0.278	0.034
-71.480	628.409	0.101	0.253
-70.465	-96.236	0.447	-0.117
-69.451	-117.409	0.289	-0.052
-68.436	-112.701	0.275	-0.054
-67.422	-16.815	0.319	0.199
-66.407	-179.369	0.199	-0.004
-65.392	62.951	-0.355	0.351
-64.378	-128.978	0.242	0.033
-63.363	-200.000	-0.007	0.046
-62.349	-112.387	-0.132	0.026
-61.334	47.861	-0.932	-0.859
-60.319	167.719	0.326	0.458
-59.305	-200.000	-0.095	-1.087
-58.290	236.686	0.601	0.981
-57.276	800.000	0.476	1.798
-56.261	-200.000	95.020	567.367
-55.246	553.801	1373.894	3260.473
-54.232	156.600	2562.477	3492.249
-53.217	114.888	2160.948	2601.167
-52.203	46.313	1620.727	1482.525
-51.188	38.312	1357.712	1193.310
-50.173	34.862	1315.864	1136.027
-49.159	57.169	1362.729	1311.657
-48.144	60.744	1380.882	1350.627
-47.130	38.586	1337.482	1176.987
-46.115	34.910	1319.733	1139.475
-45.100	34.722	1315.063	1134.281
-44.086	34.538	1313.187	1131.528
-43.071	34.616	1310.439	1129.577
-42.057	34.500	1308.955	1127.565
-41.042	34.605	1307.359	1126.762
-40.027	34.760	1304.758	1125.392
-39.013	34.738	1303.283	1123.944
-37.998	34.616	1301.951	1122.036
-36.984	34.803	1300.097	1121.489
-35.969	34.776	1298.189	1119.641
-34.954	34.744	1296.471	1117.930
-33.940	34.714	1295.656	1117.008
-32.925	34.965	1293.804	1116.831
-31.911	34.836	1292.753	1115.125
-30.896	34.836	1291.128	1113.680
-29.881	34.853	1290.150	1112.890
-28.867	34.981	1288.038	1111.772
-27.852	34.965	1286.583	1110.377
-26.838	34.949	1285.608	1109.400
-25.823	34.883	1284.192	1107.749
-24.809	34.847	1282.964	1106.438
-23.794	34.858	1281.600	1105.282
-22.779	34.814	1280.242	1103.816
-21.765	34.840	1279.132	1102.963
-20.750	34.764	1277.803	1101.334
-19.736	34.766	1276.749	1100.392
-18.721	34.724	1275.135	1098.719
-17.706	34.692	1274.511	1097.953
-16.692	34.845	1272.773	1097.290
-15.677	34.747	1271.753	1095.805
-14.663	34.732	1271.016	1095.039
-13.648	34.632	1269.747	1093.332
-12.633	34.727	1268.787	1093.004
-11.619	34.681	1268.108	1092.111
-10.604	34.720	1267.185	1091.495
-9.590	34.734	1266.133	1090.626
-8.575	34.566	1265.604	1089.171
-7.560	34.547	1264.565	1088.124
-6.546	34.674	1263.659	1088.023
-5.531	34.700	1262.542	1087.169
-4.517	34.657	1261.939	1086.364
-3.502	34.688	1261.242	1085.894
-2.487	34.641	1259.780	1084.328
-1.473	34.542	1256.297	1080.726
-0.458	32.786	1240.019	1056.850
0.556	26.513	1221.969	1013.520
1.571	22.322	1226.613	993.665
2.586	21.210	1240.995	998.874
3.600	20.657	1230.844	987.478
4.615	15.287	1157.509	899.814
5.629	5.417	1079.291	789.324
6.644	0.564	1056.865	748.829
7.659	0.032	1054.479	744.440
8.673	-0.159	1053.875	743.001
9.688	-0.184	1052.237	741.656
10.702	0.115	1050.892	742.117
11.717	5.724	1058.571	775.279
12.731	14.658	1070.459	828.434
13.746	17.925	1073.760	847.154
14.761	16.983	1071.545	840.665
15.775	15.941	1069.242	833.626
16.790	14.952	1067.200	827.073
17.804	14.069	1066.151	821.827
18.819	13.777	1064.521	819.052
19.834	13.461	1063.993	817.014
20.848	13.294	1062.941	815.314
21.863	13.070	1062.198	813.568
22.877	12.854	1061.523	811.914
23.892	12.900	1060.640	811.392
24.907	12.889	1059.650	810.508
25.921	12.927	1059.086	810.195
26.936	12.965	1058.102	809.555
27.950	13.025	1057.359	809.209
28.965	13.069	1055.944	808.271
29.980	13.148	1054.693	807.627
30.994	13.176	1054.171	807.296
32.009	13.128	1053.008	806.100
33.023	13.268	1051.480	805.541
34.038	13.080	1051.086	804.248
35.053	13.054	1050.546	803.640
36.067	13.065	1049.939	803.156
37.082	13.067	1048.886	802.292
38.096	13.122	1047.983	801.798
39.111	13.071	1047.371	801.007
40.126	13.011	1046.520	799.994
41.140	13.056	1044.327	798.467
42.155	12.940	1043.607	797.283
43.169	12.929	1042.400	796.240
44.184	12.884	1041.637	795.369
45.199	12.944	1040.752	794.913
46.213	12.985	1039.474	794.065
47.228	12.961	1038.773	793.341
48.242	13.040	1037.454	792.643
49.257	12.873	1036.819	791.286
50.271	12.991	1035.892	791.076
51.286	13.078	1035.010	790.746
52.301	13.123	1033.913	790.053
53.315	12.980	1033.138	788.712
54.330	12.901	1032.373	787.681
55.344	13.015	1030.800	786.955
56.359	12.904	1030.650	786.240
57.374	12.910	1029.900	785.625
58.388	12.901	1028.425	784.391
59.403	12.792	1028.079	783.540
60.417	13.021	1026.835	783.609
61.432	12.906	1026.436	782.690
62.447	12.834	1025.220	781.349
63.461	12.681	1024.965	780.361
64.476	12.801	1023.803	779.978
65.490	12.797	1022.812	779.131
66.505	12.913	1022.115	779.082
67.520	12.860	1021.728	778.466
68.534	12.968	1020.521	777.987
69.549	13.000	1019.385	777.201
70.563	12.906	1018.743	776.204
71.578	12.852	1018.106	775.393
72.593	12.764	1017.731	774.627
73.607	12.760	1017.070	774.035
74.622	12.777	1016.261	773.431
75.636	12.746	1015.714	772.804
76.651	12.790	1015.237	772.575
77.666	12.843	1014.331	772.067
78.680	12.713	1013.975	771.118
79.695	12.846	1012.982	770.919
80.709	12.849	1012.194	770.264
81.724	12.930	1011.857	770.319
82.739	12.940	1011.339	769.902
83.753	13.199	1009.728	769.816
84.768	13.086	1009.507	769.050
85.782	13.118	1008.449	768.327
86.797	13.105	1007.133	767.197
87.812	12.943	1006.482	765.881
88.826	13.020	1005.812	765.658
89.841	12.971	1004.752	764.557
90.855	13.133	1003.971	764.647
91.870	13.101	1003.380	763.978
92.884	13.172	1002.277	763.401
93.899	13.154	1001.750	762.849
94.914	13.204	1000.601	762.134
95.928	13.204	999.688	761.372
96.943	13.166	998.937	760.557
97.957	13.168	998.101	759.867
98.972	13.133	997.320	759.042
99.987	13.206	996.350	758.570
101.001	13.054	995.752	757.353
102.016	13.135	994.982	757.072
103.030	13.096	994.038	756.106
104.045	13.131	993.093	755.482
105.060	13.200	992.230	755.071
106.074	13.034	991.239	753.492
107.089	12.917	990.479	752.315
108.103	12.855	989.192	750.992
109.118	12.874	988.676	750.618
110.133	12.921	987.691	750.019
111.147	12.927	986.931	749.401
112.162	13.033	986.212	749.271
113.176	13.016	985.395	748.504
114.191	13.082	984.651	748.175
115.206	13.063	983.681	747.284
116.220	13.027	983.158	746.660
117.235	12.979	982.191	745.643
118.249	12.881	981.587	744.674
119.264	13.013	980.535	744.403
120.279	13.099	979.491	743.935
121.293	12.791	979.276	742.316
122.308	12.851	978.205	741.713
123.322	12.973	976.922	741.222
124.337	13.040	975.833	740.631
125.352	12.879	975.056	739.252
126.366	13.064	973.632	738.935
127.381	13.036	972.663	738.009
128.395	12.976	972.011	737.181
129.410	13.092	971.252	737.058
130.424	13.098	970.139	736.177
131.439	13.229	969.312	736.065
132.454	13.149	968.492	735.023
133.468	12.995	968.358	734.170
134.483	13.121	967.143	733.743
135.497	13.087	966.515	733.054
136.512	13.140	965.506	732.457
137.527	13.183	964.577	731.875
138.541	13.136	963.991	731.162
139.556	13.041	963.514	730.314
140.570	13.072	962.909	729.925
141.585	13.258	961.716	729.777
142.600	13.213	960.904	728.900
143.614	13.259	960.213	728.515
144.629	13.273	959.424	727.915
145.643	13.320	958.256	727.168
146.658	13.147	957.402	725.697
147.673	13.188	956.004	724.751
148.687	13.171	955.622	724.324
149.702	13.168	954.689	723.538
150.716	13.072	953.964	722.504
151.731	13.112	953.073	721.941
152.746	13.236	952.578	722.047
153.760	13.233	952.129	721.629
154.775	13.238	951.565	721.159
155.789	13.263	950.930	720.723
156.804	13.324	949.986	720.208
157.819	13.305	949.206	719.472
158.833	13.392	948.527	719.271
159.848	13.407	947.603	718.572
160.862	13.392	946.688	717.750
161.877	13.410	945.861	717.136
162.892	13.218	945.103	715.668
163.906	13.287	943.952	715.030
164.921	13.175	943.507	714.146
165.935	13.211	942.660	713.598
166.950	13.332	941.271	713.006
167.964	13.444	940.297	712.685
168.979	13.235	939.746	711.304
169.994	13.432	938.697	711.297
171.008	13.355	938.002	710.377
172.023	13.354	937.771	710.132
173.037	13.477	936.361	709.531
174.052	13.463	935.983	709.121
175.067	13.316	935.308	707.916
176.081	13.235	935.083	707.340
177.096	13.404	934.493	707.551
178.110	13.450	933.528	706.956
179.125	13.423	932.910	706.308
180.140	13.589	932.262	706.462
181.154	13.458	932.208	705.803
182.169	13.485	931.551	705.357
183.183	13.507	931.054	705.014
184.198	13.534	930.292	704.489
185.213	13.623	929.396	704.125
186.227	13.530	929.125	703.461
187.242	13.636	928.562	703.422
188.256	13.637	927.912	702.874
189.271	13.672	926.823	702.134
190.286	13.452	926.367	700.797
191.300	13.388	925.569	699.857
192.315	13.462	924.721	699.470
193.329	13.404	924.497	698.991
194.344	13.516	923.412	698.584
195.359	13.607	922.608	698.296
196.373	13.616	922.294	698.034
197.388	13.651	922.117	697.986
198.402	13.733	921.434	697.754
199.417	13.811	920.770	697.515
200.432	13.979	919.679	697.331
201.446	13.832	919.616	696.607
202.461	13.955	919.208	696.753
203.475	13.944	918.376	696.014
204.490	13.840	917.937	695.185
205.504	13.767	916.786	693.944
206.519	13.772	916.255	693.502
207.534	13.885	915.372	693.243
208.548	13.917	914.636	692.761
209.563	13.919	914.407	692.531
210.577	13.874	913.780	691.809
211.592	13.892	912.913	691.165
212.607	13.955	912.160	690.799
213.621	14.093	911.282	690.643
214.636	13.947	910.556	689.425
215.650	13.943	910.323	689.173
216.665	14.055	909.494	688.947
217.680	13.989	909.230	688.416
218.694	14.063	908.404	688.033
219.709	14.139	907.274	687.430
220.723	14.088	906.611	686.656
221.738	14.122	906.000	686.275
222.753	14.058	905.768	685.772
223.767	14.156	905.175	685.667
224.782	14.225	904.667	685.507
225.796	14.141	904.023	684.614
226.811	14.003	903.537	683.617
227.826	14.066	902.812	683.266
228.840	14.054	902.048	682.579
229.855	14.145	900.797	681.944
230.869	14.116	900.309	681.396
231.884	14.160	899.466	680.879
232.899	14.093	898.976	680.174
233.913	14.146	897.992	679.584
234.928	14.261	897.209	679.403
235.942	14.252	896.784	678.985
236.957	14.277	896.252	678.621
237.972	14.140	895.811	677.669
238.986	14.148	895.277	677.240
240.001	14.305	894.385	677.143
241.015	14.260	894.095	676.682
242.030	14.300	893.173	676.084
243.045	14.196	893.123	675.566
244.059	14.331	892.215	675.365
245.074	14.189	891.701	674.342
246.088	14.378	890.830	674.389
247.103	14.379	890.551	674.121
248.117	14.496	889.653	673.855
249.132	14.549	889.185	673.655
250.147	14.615	888.300	673.190
251.161	14.724	887.861	673.237
252.176	14.549	886.800	671.670
253.190	14.568	886.506	671.465
254.205	14.811	885.739	671.801
255.220	14.750	885.223	671.105
256.234	14.583	884.841	670.084
257.249	14.593	883.950	669.391
258.263	14.736	883.045	669.218
259.278	14.715	882.551	668.702
260.293	14.735	881.861	668.198
261.307	14.932	881.499	668.654
262.322	14.930	880.790	668.049
263.336	14.832	880.118	667.090
264.351	14.823	879.615	666.611
265.366	14.916	878.594	666.151
266.380	14.916	878.108	665.723
267.395	14.892	877.488	665.098
268.409	14.816	876.668	664.118
269.424	14.953	875.688	663.857
270.439	14.954	875.409	663.592
271.453	14.850	874.510	662.439
272.468	14.908	873.904	662.151
273.482	14.953	873.526	661.987
274.497	14.924	872.890	661.329
275.512	15.028	871.886	660.922
276.526	14.912	871.848	660.376
277.541	15.075	871.314	660.558
278.555	15.052	870.842	660.051
279.570	14.959	870.389	659.283
280.585	15.124	869.322	659.067
281.599	15.115	868.762	658.547
282.614	15.136	867.640	657.719
283.628	15.146	867.346	657.476
284.643	15.077	866.953	656.851
285.657	15.088	866.409	656.424
286.672	15.150	865.751	656.109
287.687	14.962	865.310	654.980
288.701	15.180	864.324	655.030
289.716	15.161	863.776	654.482
290.730	15.360	862.955	654.577
291.745	15.182	862.662	653.606
292.760	15.232	862.245	653.424
293.774	15.317	861.572	653.189
294.789	15.314	861.032	652.712
295.803	15.182	860.291	651.578
296.818	15.301	859.351	651.269
297.833	15.351	859.025	651.158
298.847	15.251	858.345	650.199
299.862	15.195	858.146	649.773
300.876	15.338	857.315	649.642
301.891	15.346	856.908	649.304
302.906	15.444	856.147	649.050
303.920	15.481	855.600	648.723
304.935	15.602	854.901	648.601
305.949	15.551	853.984	647.651
306.964	15.538	853.490	647.170
307.979	15.498	853.295	646.812
308.993	15.611	852.392	646.503
310.008	15.680	851.905	646.343
311.022	15.465	851.517	645.165
312.037	15.632	851.065	645.406
313.052	15.517	850.642	644.587
314.066	15.522	849.707	643.842
315.081	15.500	849.211	643.324
316.095	15.554	848.354	642.824
317.110	15.546	848.202	642.622
318.125	15.573	847.484	642.125
319.139	15.523	847.345	641.768
320.154	15.568	846.661	641.367
321.168	15.654	846.144	641.245
322.183	15.631	845.539	640.644
323.197	15.673	844.700	640.112
324.212	15.720	844.360	639.977
325.227	15.574	843.951	639.056
326.241	15.614	843.155	638.549
327.256	15.752	842.185	638.280
328.270	15.717	842.103	638.028
329.285	15.644	841.360	637.133
330.300	15.534	841.254	636.580
331.314	15.578	840.447	636.077
332.329	15.583	840.296	635.927
333.343	15.868	839.866	636.624
334.358	15.690	839.262	635.435
335.373	15.893	838.728	635.741
336.387	15.949	838.058	635.390
337.402	15.895	838.076	635.142
338.416	15.651	838.354	634.377
339.431	15.903	837.309	634.480
340.446	16.019	837.002	634.629
341.460	15.966	836.812	634.229
342.475	16.019	836.161	633.879
343.489	16.009	835.720	633.451
344.504	16.030	835.321	633.171
345.519	16.148	834.740	633.116
346.533	16.044	834.262	632.308
347.548	16.011	833.702	631.703
348.562	15.970	833.619	631.430
349.577	15.970	832.581	630.591
350.592	15.954	831.896	629.954
351.606	16.037	830.989	629.523
352.621	16.044	830.484	629.110
353.635	16.085	829.790	628.681
354.650	16.072	829.404	628.285
355.665	16.075	828.558	627.598
356.679	16.156	827.925	627.367
357.694	16.243	827.581	627.373
358.708	16.242	826.991	626.867
359.723	16.226	826.010	626.009
360.738	16.124	825.573	625.242
361.752	16.291	825.039	625.404
362.767	16.311	824.584	625.075
363.781	16.292	824.208	624.665
364.796	16.417	823.564	624.586
365.810	16.270	823.479	623.922
366.825	16.342	823.059	623.814
367.840	16.473	822.517	623.832
368.854	16.394	821.872	622.994
369.869	16.344	821.373	622.377
370.883	16.405	821.008	622.272
371.898	16.306	821.150	621.960
372.913	16.446	820.637	622.032
373.927	16.472	819.914	621.522
374.942	16.463	819.431	621.069
375.956	16.490	818.888	620.703
376.971	16.529	818.698	620.645
377.986	16.589	817.929	620.229
379.000	16.630	818.006	620.380
380.015	16.615	817.086	619.575
381.029	16.751	816.494	619.567
382.044	16.789	815.965	619.249
383.059	16.671	815.162	618.154
384.073	16.786	814.749	618.207
385.088	16.779	814.085	617.622
386.102	16.736	813.478	616.950
387.117	16.739	812.985	616.534
388.132	16.628	812.692	615.854
389.146	16.649	812.087	615.416
390.161	16.925	811.563	615.968
391.175	16.817	811.247	615.282
392.190	16.795	810.641	614.689
393.205	16.706	810.120	613.917
394.219	16.888	809.419	613.991
395.234	16.757	809.235	613.321
396.248	16.809	808.915	613.212
397.263	16.678	808.783	612.582
398.278	16.656	808.289	612.075
399.292	16.754	807.609	611.861
400.307	16.712	807.177	611.327
401.321	16.784	806.696	611.170
402.336	16.790	806.482	610.974
403.350	16.700	805.775	610.061
404.365	16.826	805.682	610.390
405.380	16.817	805.112	609.870
406.394	17.014	804.066	609.735
407.409	16.955	803.820	609.280
408.423	17.036	803.581	609.337
409.438	17.093	803.286	609.262
410.453	17.067	802.963	608.873
411.467	17.163	802.342	608.692
412.482	17.095	802.057	608.176
413.496	17.206	801.686	608.238
414.511	17.105	801.293	607.526
415.526	17.218	801.148	607.767
416.540	17.309	800.546	607.581
417.555	17.141	800.263	606.714
418.569	17.211	799.511	606.339
419.584	17.317	798.878	606.184
420.599	17.301	798.105	605.485
421.613	104.170	1284.746	1444.250
422.628	89.405	1355.636	1444.347
