DTS Sentinel unit serial number:	SN413079Multiplexer serial number:	ORYXHardware model number:	OX4-SRSoftware version number:	ORYX F/W v4.00 Oryx Data Collector v3.7.2.0data status	okinstallation	princeton_trtdifferential loss correction	single-endedforward channel	channel 1reverse channel	N/Adate	2019/09/19time	12:58:35forward acquisition time	60.00reverse acquisition time	0.00gamma	496.2192k internal	0.2328k external	0.2328temperature offset calibration	1.0014default loss term (dB/km)	0.3790temperature slope calibration	1.0000multiplexer offset coefficient	1.0000multiplexer slope coefficient	1.0000fibre end	0.00T internal ref (°C)	28.52T ext. ref 1 (°C)	0.91T ext. ref 2 (°C)	26.76length (m)	temperature (°C)	Stokes	anti-Stokes-747.200	-9.671	-0.216	0.145
-746.185	-146.832	-0.217	0.019
-745.171	800.000	-0.070	-0.224
-744.156	-136.042	-0.403	-0.048
-743.142	468.415	0.153	-0.347
-742.127	-200.000	-0.022	0.247
-741.112	-29.990	0.113	0.065
-740.098	61.912	0.119	0.119
-739.083	-32.050	0.093	-0.052
-738.069	673.162	-0.210	0.549
-737.054	-150.272	-0.495	-0.039
-736.039	16.284	-0.195	-0.155
-735.025	-97.316	0.086	-0.023
-734.010	5.581	-0.031	0.023
-732.996	350.837	-0.241	0.480
-731.981	-200.000	0.067	-0.332
-730.966	-182.152	-0.419	-0.008
-729.952	41.659	0.085	-0.078
-728.937	310.754	-0.129	-0.244
-727.923	-57.596	-0.194	-0.086
-726.908	335.487	-0.059	-0.115
-725.894	800.000	-0.036	0.119
-724.879	346.315	0.114	0.225
-723.864	-109.088	-0.414	-0.089
-722.850	1.638	0.197	-0.143
-721.835	-200.000	0.011	0.419
-720.821	238.555	0.219	-0.365
-719.806	-145.985	-0.355	0.032
-718.791	-200.000	-0.423	0.000
-717.777	-30.852	0.238	0.136
-716.762	-145.814	0.171	-0.015
-715.748	30.330	-0.183	0.157
-714.733	-172.926	-0.025	-0.001
-713.718	736.848	-0.152	-0.410
-712.704	-3.693	-0.173	-0.121
-711.689	305.947	0.106	-0.198
-710.675	-77.345	-0.037	0.013
-709.660	800.000	-0.016	0.071
-708.645	-165.755	0.276	0.012
-707.631	204.742	-0.167	-0.261
-706.616	-27.242	-0.214	0.125
-705.602	-135.867	0.279	0.033
-704.587	-107.992	-0.143	0.031
-703.572	104.992	0.086	-0.102
-702.558	763.610	-0.118	0.322
-701.543	800.000	0.157	0.442
-700.529	19.058	-0.326	-0.263
-699.514	-200.000	-0.031	0.230
-698.499	-27.710	-0.116	-0.068
-697.485	240.722	-0.132	-0.221
-696.470	-171.126	0.088	-0.003
-695.456	-33.413	-0.194	-0.108
-694.441	116.147	-0.064	-0.078
-693.426	-200.000	-0.009	-0.192
-692.412	-58.901	-0.071	-0.031
-691.397	15.788	0.282	-0.223
-690.383	-35.311	-0.096	-0.052
-689.368	-200.000	-0.049	-0.373
-688.354	-33.682	-0.389	0.216
-687.339	-200.000	0.007	-0.235
-686.324	-74.405	0.124	-0.045
-685.310	800.000	0.061	-0.211
-684.295	84.237	-0.112	-0.123
-683.281	-200.000	-0.029	-0.382
-682.266	408.971	0.110	-0.233
-681.251	-82.426	-0.279	0.091
-680.237	149.289	0.179	-0.243
-679.222	-17.659	-0.138	0.087
-678.208	-40.101	0.105	0.055
-677.193	-92.350	-0.302	-0.085
-676.178	-8.770	-0.171	0.115
-675.164	-200.000	0.013	-0.074
-674.149	357.136	-0.249	-0.499
-673.135	104.794	0.081	0.096
-672.120	-102.584	-0.257	0.062
-671.105	800.000	0.061	0.229
-670.091	138.889	-0.026	0.035
-669.076	143.951	-0.086	0.115
-668.062	-200.000	-0.024	-0.111
-667.047	41.439	-0.034	0.031
-666.032	-149.853	0.177	0.014
-665.018	-102.676	-0.387	-0.093
-664.003	172.821	-0.179	0.259
-662.989	286.721	0.086	-0.156
-661.974	-200.000	-0.031	-0.140
-660.959	-129.802	-0.068	-0.009
-659.945	800.000	0.081	-0.262
-658.930	289.613	0.055	-0.099
-657.916	91.334	0.071	-0.080
-656.901	-15.308	0.201	0.129
-655.886	-200.000	0.019	0.392
-654.872	-147.805	-0.095	-0.008
-653.857	-52.740	0.105	0.049
-652.843	456.341	0.062	-0.139
-651.828	190.531	0.229	-0.345
-650.814	-126.800	0.381	-0.056
-649.799	-73.523	-0.172	-0.063
-648.784	143.290	-0.145	0.194
-647.770	-29.794	0.073	0.042
-646.755	114.000	-0.072	0.088
-645.741	-113.364	0.238	-0.047
-644.726	-35.925	-0.096	-0.052
-643.711	-151.499	0.543	-0.040
-642.697	-155.137	-0.202	0.013
-641.682	-5.442	-0.117	-0.081
-640.668	245.064	-0.014	-0.023
-639.653	-200.000	0.004	-0.255
-638.638	800.000	0.022	-0.093
-637.624	-26.900	0.234	-0.137
-636.609	320.251	-0.204	-0.388
-635.595	105.972	-0.187	0.223
-634.580	-123.765	-0.111	-0.018
-633.565	20.727	-0.212	-0.172
-632.551	-75.945	0.069	-0.025
-631.536	9.384	-0.238	-0.181
-630.522	-39.976	-0.180	0.094
-629.507	45.213	-0.075	-0.069
-628.492	-46.551	-0.040	-0.019
-627.478	217.859	0.187	0.299
-626.463	-136.776	0.425	0.049
-625.449	-163.918	0.101	0.005
-624.434	65.763	-0.148	0.151
-623.419	352.239	0.078	-0.156
-622.405	-78.437	0.170	-0.059
-621.390	712.520	0.047	0.125
-620.376	-109.041	-0.323	-0.069
-619.361	-125.223	-0.202	-0.031
-618.346	-200.000	-0.007	0.324
-617.332	138.572	0.248	0.327
-616.317	-132.276	-0.049	0.006
-615.303	800.000	-0.049	-0.146
-614.288	240.777	0.125	-0.210
-613.273	125.801	0.106	-0.134
-612.259	-76.852	0.250	0.088
-611.244	40.566	-0.203	0.183
-610.230	326.995	-0.212	0.408
-609.215	-124.565	0.111	0.017
-608.201	-147.592	0.174	-0.015
-607.186	-63.634	0.195	-0.080
-606.171	-200.000	0.004	-0.090
-605.157	-78.651	0.432	0.148
-604.142	-0.968	-0.259	-0.184
-603.128	-29.746	-0.091	0.052
-602.113	268.525	0.125	0.220
-601.098	2.353	0.056	-0.041
-600.084	625.847	-0.120	-0.303
-599.069	-200.000	0.079	0.376
-598.055	103.025	0.145	-0.170
-597.040	54.162	0.030	0.028
-596.025	-188.191	0.119	0.002
-595.011	-171.244	0.158	0.005
-593.996	-79.738	-0.213	-0.072
-592.982	-200.000	-0.019	0.153
-591.967	-23.062	-0.202	-0.122
-590.952	800.000	-0.132	0.379
-589.938	-68.676	0.213	-0.083
-588.923	-134.382	0.179	0.022
-587.909	-200.000	-0.002	0.126
-586.894	-167.205	-0.157	0.006
-585.879	-200.000	-0.016	0.088
-584.865	104.124	-0.235	-0.277
-583.850	-200.000	-0.050	0.354
-582.836	-1.145	-0.342	-0.242
-581.821	-133.324	-0.200	0.025
-580.806	800.000	0.022	0.088
-579.792	1.803	-0.163	0.117
-578.777	264.025	-0.156	-0.271
-577.763	193.425	0.172	0.260
-576.748	-200.000	0.004	0.151
-575.733	-22.407	0.086	-0.052
-574.719	57.603	-0.026	-0.026
-573.704	-200.000	-0.031	-0.332
-572.690	-30.591	-0.232	0.132
-571.675	91.711	0.101	-0.114
-570.661	-124.153	0.191	0.030
-569.646	-200.000	-0.008	-0.145
-568.631	-41.165	-0.133	0.069
-567.617	-135.180	-0.355	0.043
-566.602	-29.955	0.291	0.166
-565.588	-25.070	0.023	0.014
-564.573	-177.353	0.203	0.005
-563.558	42.779	0.127	0.116
-562.544	174.942	-0.257	-0.373
-561.529	22.139	-0.079	-0.065
-560.515	-16.131	-0.238	-0.151
-559.500	-85.547	-0.171	0.053
-558.485	-26.771	0.098	0.058
-557.471	-126.903	0.395	-0.058
-556.456	-153.183	0.171	0.012
-555.442	-170.454	-0.089	-0.003
-554.427	84.702	-0.053	0.058
-553.412	512.399	-0.073	-0.170
-552.398	-148.812	-0.286	0.023
-551.383	563.236	-0.168	0.408
-550.369	-35.760	-0.006	-0.003
-549.354	-200.000	-0.033	0.166
-548.339	-200.000	0.027	0.204
-547.325	-200.000	-0.007	0.160
-546.310	-200.000	-0.035	-0.549
-545.296	-38.600	-0.126	-0.067
-544.281	222.791	0.182	0.294
-543.266	-78.285	0.377	-0.129
-542.252	-41.880	0.260	-0.133
-541.237	-65.513	0.230	-0.092
-540.223	-200.000	-0.001	0.054
-539.208	-29.956	0.117	0.067
-538.193	-47.359	-0.249	0.121
-537.179	800.000	-0.033	0.139
-536.164	156.593	-0.099	-0.137
-535.150	580.577	-0.070	-0.170
-534.135	261.722	-0.039	-0.068
-533.121	-189.023	-0.089	0.001
-532.106	68.606	-0.075	0.077
-531.091	114.286	-0.070	-0.085
-530.077	295.436	-0.037	0.067
-529.062	-200.000	-0.039	-0.358
-528.048	-159.757	-0.056	0.003
-527.033	185.751	0.150	0.222
-526.018	-200.000	-0.042	0.417
-525.004	800.000	0.051	-0.149
-523.989	-140.758	0.259	0.027
-522.975	-49.214	-0.217	-0.104
-521.960	-147.087	0.160	0.014
-520.945	78.501	-0.107	0.114
-519.931	-15.591	-0.052	0.033
-518.916	-200.000	0.009	0.184
-517.902	326.262	0.158	0.302
-516.887	55.962	0.111	-0.108
-515.872	-152.806	0.082	-0.006
-514.858	-52.813	0.163	-0.075
-513.843	-26.121	-0.192	-0.112
-512.829	-200.000	0.005	0.069
-511.814	-95.132	-0.099	-0.027
-510.799	-200.000	-0.041	-0.288
-509.785	-170.293	-0.054	0.002
-508.770	78.455	0.231	-0.247
-507.756	618.739	0.142	0.356
-506.741	800.000	0.100	0.303
-505.726	-18.733	-0.197	-0.122
-504.712	521.374	-0.074	0.172
-503.697	-200.000	-0.026	-0.291
-502.683	7.279	0.068	0.050
-501.668	-62.952	0.204	0.084
-500.653	-200.000	-0.011	-0.092
-499.639	-171.931	-0.436	-0.014
-498.624	-31.672	0.162	0.091
-497.610	-121.510	-0.358	-0.059
-496.595	-92.987	-0.198	-0.055
-495.581	27.630	0.131	-0.110
-494.566	455.652	-0.119	-0.262
-493.551	-200.000	-0.045	0.373
-492.537	-148.842	-0.333	-0.027
-491.522	431.751	-0.120	0.259
-490.508	9.048	-0.063	-0.047
-489.493	-73.945	-0.193	-0.070
-488.478	766.229	0.073	-0.199
-487.464	-29.079	0.189	0.108
-486.449	-64.838	0.160	0.065
-485.435	-200.000	0.017	0.116
-484.420	172.194	0.132	-0.189
-483.405	189.657	-0.168	-0.251
-482.391	198.229	0.051	-0.078
-481.376	-38.894	0.384	0.202
-480.362	-46.197	0.447	-0.219
-479.347	-99.677	0.027	0.007
-478.332	-139.070	-0.164	-0.018
-477.318	245.252	-0.047	-0.080
-476.303	7.949	-0.161	0.121
-475.289	313.523	-0.035	0.065
-474.274	624.552	-0.098	0.246
-473.259	-122.257	-0.245	0.040
-472.245	-200.000	0.002	0.312
-471.230	-200.000	-0.008	0.088
-470.216	-109.093	-0.171	0.036
-469.201	141.894	-0.074	0.098
-468.186	60.248	-0.282	0.278
-467.172	-71.271	0.212	-0.079
-466.157	800.000	0.033	-0.123
-465.143	-64.916	0.339	0.137
-464.128	34.751	0.243	0.211
-463.113	64.630	0.219	-0.220
-462.099	-200.000	0.005	-0.236
-461.084	800.000	-0.036	-0.100
-460.070	-200.000	-0.024	0.386
-459.055	21.580	0.087	-0.070
-458.040	-136.377	-0.174	-0.020
-457.026	184.148	-0.130	0.191
-456.011	70.697	-0.279	0.287
-454.997	-200.000	-0.020	0.209
-453.982	51.144	0.211	0.199
-452.968	800.000	0.086	-0.267
-451.953	295.470	-0.021	-0.038
-450.938	390.396	0.133	-0.275
-449.924	800.000	0.124	-0.484
-448.909	-200.000	0.053	0.323
-447.895	800.000	-0.016	-0.064
-446.880	-55.167	0.136	0.061
-445.865	-200.000	-0.023	-0.193
-444.851	13.015	0.049	0.038
-443.836	-200.000	0.009	0.071
-442.822	800.000	-0.064	0.212
-441.807	159.001	-0.128	-0.177
-440.792	-200.000	0.031	-0.173
-439.778	-90.689	0.155	0.045
-438.763	-26.289	0.323	0.189
-437.749	-147.603	0.182	-0.015
-436.734	-134.942	0.191	0.023
-435.719	360.868	0.113	-0.225
-434.705	-84.469	0.070	0.022
-433.690	-200.000	-0.017	-0.178
-432.676	-153.780	-0.194	-0.013
-431.661	331.393	-0.180	0.345
-430.646	800.000	0.205	-0.576
-429.632	800.000	0.052	-0.164
-428.617	-200.000	-0.043	-0.270
-427.603	-78.121	-0.352	-0.120
-426.588	-103.606	-0.077	-0.018
-425.573	257.296	0.066	-0.113
-424.559	25.270	0.101	0.084
-423.544	83.941	0.098	0.107
-422.530	-120.217	-0.509	-0.086
-421.515	-200.000	0.023	0.159
-420.500	800.000	0.051	-0.159
-419.486	119.107	0.166	-0.205
-418.471	-156.052	-0.388	-0.024
-417.457	751.857	-0.036	-0.097
-416.442	800.000	0.083	-0.266
-415.428	-26.119	0.049	0.029
-414.413	-52.913	0.040	-0.018
-413.398	108.948	0.185	-0.220
-412.384	-163.845	0.154	-0.007
-411.369	800.000	0.044	0.167
-410.355	20.732	0.239	-0.192
-409.340	-200.000	0.011	-0.221
-408.325	96.201	-0.102	0.116
-407.311	-65.691	-0.212	-0.084
-406.296	8.419	0.118	-0.088
-405.282	291.673	0.138	-0.249
-404.267	81.004	0.268	0.287
-403.252	82.114	0.189	0.204
-402.238	-10.117	0.104	-0.069
-401.223	81.797	0.076	0.082
-400.209	320.560	-0.152	0.288
-399.194	-172.171	0.163	0.005
-398.179	-24.560	-0.272	0.161
-397.165	-71.454	-0.276	0.103
-396.150	-51.654	0.223	-0.103
-395.136	-200.000	0.003	-0.167
-394.121	-142.848	-0.372	-0.036
-393.106	-119.017	0.173	0.030
-392.092	50.539	0.103	-0.097
-391.077	-120.867	0.229	-0.038
-390.063	-118.079	-0.159	0.028
-389.048	154.433	-0.053	0.072
-388.033	-33.198	0.289	-0.159
-387.019	514.164	-0.074	0.173
-386.004	136.974	-0.037	0.048
-384.990	-200.000	-0.014	-0.153
-383.975	168.797	0.221	-0.312
-382.960	-200.000	0.058	0.261
-381.946	289.699	0.212	0.383
-380.931	-41.907	-0.193	-0.098
-379.917	213.898	-0.189	-0.297
-378.902	86.731	-0.272	0.298
-377.888	-200.000	-0.082	-0.435
-376.873	800.000	0.094	-0.279
-375.858	308.281	0.084	0.156
-374.844	362.825	0.062	-0.123
-373.829	-200.000	-0.003	-0.275
-372.815	-22.689	-0.111	0.067
-371.800	-82.876	0.279	0.090
-370.785	-149.905	-0.126	-0.010
-369.771	36.418	-0.194	0.170
-368.756	75.371	-0.046	-0.049
-367.742	-200.000	0.023	-0.134
-366.727	7.025	0.200	-0.148
-365.712	-200.000	0.028	-0.137
-364.698	537.192	0.086	-0.203
-363.683	-200.000	0.005	0.179
-362.669	-127.519	-0.254	-0.037
-361.654	-15.862	-0.189	-0.119
-360.639	-155.365	-0.326	0.021
-359.625	28.222	0.349	-0.293
-358.610	-161.520	-0.334	-0.017
-357.596	-200.000	-0.036	0.219
-356.581	-200.000	0.037	0.207
-355.566	-200.000	0.015	-0.189
-354.552	247.369	0.059	0.098
-353.537	251.185	-0.204	-0.344
-352.523	800.000	0.008	0.026
-351.508	800.000	0.103	-0.287
-350.493	-179.802	-0.242	-0.005
-349.479	-200.000	0.029	-0.155
-348.464	800.000	-0.038	0.154
-347.450	-200.000	-0.015	-0.122
-346.435	63.250	0.103	0.102
-345.420	-59.610	-0.059	-0.025
-344.406	-187.327	0.364	-0.005
-343.391	702.911	-0.098	-0.256
-342.377	-85.828	0.264	-0.081
-341.362	-200.000	-0.013	0.203
-340.348	-200.000	-0.003	0.171
-339.333	241.027	-0.089	0.147
-338.318	-152.870	-0.081	0.006
-337.304	-98.553	0.267	0.068
-336.289	267.979	0.172	-0.299
-335.275	258.173	-0.058	0.099
-334.260	-148.231	0.267	0.022
-333.245	-20.858	0.341	-0.207
-332.231	-200.000	-0.056	-0.305
-331.216	-0.240	-0.265	-0.187
-330.202	800.000	-0.072	0.252
-329.187	-119.149	-0.306	-0.053
-328.172	226.649	-0.159	0.256
-327.158	-200.000	0.046	0.341
-326.143	-200.000	0.068	0.448
-325.129	62.781	0.178	0.176
-324.114	279.383	-0.071	0.125
-323.099	506.612	-0.109	0.250
-322.085	-158.247	0.161	-0.009
-321.070	-39.348	0.091	-0.047
-320.056	-200.000	0.017	-0.280
-319.041	76.167	-0.201	-0.211
-318.026	26.148	0.104	-0.086
-317.012	-40.742	0.153	-0.079
-315.997	-112.139	0.212	-0.042
-314.983	800.000	0.095	0.286
-313.968	104.745	-0.246	-0.287
-312.953	800.000	-0.052	-0.171
-311.939	-96.081	-0.258	0.068
-310.924	-14.487	0.087	0.056
-309.910	269.290	0.191	-0.332
-308.895	-200.000	-0.045	-0.256
-307.880	651.299	-0.099	0.251
-306.866	800.000	0.009	-0.027
-305.851	-200.000	0.007	-0.074
-304.837	-22.043	-0.248	0.149
-303.822	-114.040	-0.135	-0.026
-302.807	-88.191	-0.204	0.060
-301.793	470.507	0.112	0.250
-300.778	800.000	-0.072	-0.208
-299.764	82.065	0.060	-0.065
-298.749	147.903	-0.230	-0.307
-297.735	178.886	-0.047	-0.068
-296.720	40.031	0.163	0.145
-295.705	-159.722	-0.218	0.012
-294.691	-87.193	-0.227	0.068
-293.676	-200.000	0.007	0.132
-292.662	-108.195	0.392	-0.084
-291.647	-75.239	-0.159	-0.056
-290.632	-124.119	-0.149	-0.023
-289.618	800.000	0.021	0.058
-288.603	-200.000	0.017	-0.141
-287.589	-200.000	-0.011	-0.098
-286.574	-52.474	-0.398	0.182
-285.559	-112.259	0.271	-0.054
-284.545	800.000	-0.094	-0.306
-283.530	800.000	0.033	0.123
-282.516	-93.104	-0.454	-0.125
-281.501	-200.000	0.011	-0.270
-280.486	-116.017	0.134	-0.025
-279.472	-200.000	0.118	-0.525
-278.457	572.794	0.055	-0.132
-277.443	-112.114	-0.199	0.040
-276.428	-3.355	-0.085	0.058
-275.413	-98.591	-0.430	0.109
-274.399	-200.000	-0.014	0.191
-273.384	-82.217	0.177	0.057
-272.370	31.038	-0.208	-0.177
-271.355	151.144	-0.154	-0.208
-270.340	327.447	0.026	0.050
-269.326	-30.563	0.171	0.096
-268.311	-200.000	0.003	0.025
-267.297	666.946	-0.017	0.043
-266.282	-27.151	0.156	-0.090
-265.267	-161.702	0.314	-0.016
-264.253	-68.130	-0.148	-0.057
-263.238	192.599	-0.067	0.100
-262.224	-108.004	-0.140	-0.030
-261.209	21.784	0.245	-0.197
-260.195	-67.243	-0.139	-0.054
-259.180	-94.604	0.291	0.078
-258.165	400.145	-0.088	-0.182
-257.151	41.109	0.114	0.102
-256.136	-200.000	-0.019	0.336
-255.122	109.415	-0.113	-0.134
-254.107	153.242	0.232	0.314
-253.092	800.000	-0.058	0.199
-252.078	50.776	0.358	0.335
-251.063	-200.000	-0.039	0.322
-250.049	-159.106	-0.167	0.009
-249.034	145.990	0.037	-0.049
-248.019	800.000	-0.066	-0.228
-247.005	800.000	-0.077	0.253
-245.990	800.000	0.071	0.235
-244.976	-94.146	-0.167	-0.045
-243.961	-29.358	-0.262	0.148
-242.946	-0.482	0.243	0.171
-241.932	298.340	-0.062	-0.112
-240.917	194.440	0.058	-0.087
-239.903	177.093	0.135	-0.195
-238.888	-171.072	-0.101	-0.003
-237.873	-83.171	-0.113	0.036
-236.859	244.376	-0.007	-0.012
-235.844	61.863	-0.119	-0.117
-234.830	461.981	-0.016	0.034
-233.815	232.612	0.165	0.268
-232.800	-153.070	0.094	-0.007
-231.786	10.284	-0.178	-0.134
-230.771	-200.000	-0.057	0.336
-229.757	334.140	0.040	0.077
-228.742	-142.612	0.112	0.011
-227.727	104.443	-0.096	-0.112
-226.713	-200.000	-0.034	0.200
-225.698	-200.000	0.000	-0.003
-224.684	-200.000	0.020	0.162
-223.669	-156.042	0.093	-0.006
-222.655	-87.074	-0.167	0.050
-221.640	800.000	0.178	0.507
-220.625	-109.673	-0.238	0.049
-219.611	-148.319	-0.205	-0.017
-218.596	-200.000	0.011	-0.306
-217.582	-106.184	0.142	-0.031
-216.567	-93.330	0.117	-0.032
-215.552	800.000	0.099	0.357
-214.538	318.909	-0.174	-0.326
-213.523	800.000	-0.180	-0.611
-212.509	20.234	0.096	0.077
-211.494	295.251	-0.094	0.171
-210.479	57.425	0.159	0.153
-209.465	-87.847	0.230	-0.068
-208.450	1.548	0.081	0.058
-207.436	-83.364	-0.073	0.023
-206.421	-200.000	0.039	-0.262
-205.406	-188.244	0.145	-0.002
-204.392	-133.984	0.051	0.006
-203.377	-9.825	0.211	0.138
-202.363	800.000	-0.054	0.190
-201.348	-200.000	0.004	0.272
-200.333	-148.172	-0.359	-0.029
-199.319	-1.168	0.120	-0.084
-198.304	-70.613	-0.370	0.138
-197.290	141.141	-0.127	0.166
-196.275	164.844	0.158	-0.220
-195.260	-161.194	0.517	0.027
-194.246	-120.321	0.514	0.086
-193.231	591.883	-0.073	-0.177
-192.217	-157.269	-0.316	-0.019
-191.202	-63.105	-0.050	0.020
-190.187	373.973	-0.140	0.281
-189.173	469.125	0.050	0.110
-188.158	-136.801	0.185	0.021
-187.144	325.458	0.105	-0.197
-186.129	587.376	-0.109	-0.265
-185.114	49.041	0.106	-0.098
-184.100	-200.000	0.001	0.302
-183.085	710.541	-0.030	0.078
-182.071	190.931	-0.107	-0.158
-181.056	107.107	-0.133	0.155
-180.042	149.710	0.047	0.062
-179.027	53.797	0.278	-0.263
-178.012	-141.793	0.285	0.028
-176.998	-200.000	0.035	0.266
-175.983	-200.000	0.023	-0.192
-174.969	47.639	-0.223	0.205
-173.954	-141.828	-0.068	0.007
-172.939	-130.333	0.117	-0.016
-171.925	130.046	-0.070	-0.088
-170.910	514.389	0.107	0.247
-169.896	272.956	0.066	0.115
-168.881	-24.625	-0.310	0.182
-167.866	-200.000	0.007	0.312
-166.852	-200.000	-0.062	-0.386
-165.837	-106.962	0.227	-0.049
-164.823	800.000	0.035	0.141
-163.808	140.817	0.081	0.105
-162.793	-145.813	0.228	-0.020
-161.779	-93.528	0.148	0.040
-160.764	-36.128	-0.101	0.054
-159.750	115.961	-0.155	-0.187
-158.735	-200.000	0.010	0.199
-157.720	90.851	0.069	0.076
-156.706	213.601	-0.146	0.227
-155.691	-87.779	0.219	-0.065
-154.677	-171.505	-0.299	0.010
-153.662	45.636	-0.117	-0.106
-152.647	-200.000	0.058	-0.263
-151.633	-138.970	0.169	-0.018
-150.618	-142.472	0.122	-0.012
-149.604	-172.930	-0.257	-0.008
-148.589	-200.000	-0.002	0.063
-147.574	-200.000	0.032	-0.193
-146.560	-200.000	-0.036	-0.191
-145.545	182.219	0.370	-0.536
-144.531	-59.508	0.388	0.164
-143.516	63.948	0.131	-0.130
-142.502	-118.858	-0.320	0.055
-141.487	84.774	0.014	0.015
-140.472	800.000	0.131	0.542
-139.458	228.146	0.105	0.168
-138.443	-200.000	-0.023	-0.301
-137.429	347.459	0.073	-0.141
-136.414	54.263	0.207	-0.196
-135.399	245.276	-0.127	0.210
-134.385	-93.927	0.368	0.100
-133.370	272.059	0.025	-0.044
-132.356	571.394	0.082	-0.197
-131.341	800.000	-0.065	-0.188
-130.326	-200.000	-0.021	0.113
-129.312	800.000	-0.087	0.366
-128.297	12.354	0.286	0.217
-127.283	-16.566	-0.300	0.187
-126.268	800.000	-0.018	-0.067
-125.253	-3.529	-0.096	-0.065
-124.239	193.311	0.113	-0.168
-123.224	-200.000	-0.007	0.100
-122.210	-33.053	0.293	0.160
-121.195	-126.340	0.225	-0.033
-120.180	39.072	-0.122	-0.107
-119.166	800.000	0.023	-0.078
-118.151	-13.832	-0.114	-0.073
-117.137	190.006	0.170	0.251
-116.122	-53.305	-0.097	0.044
-115.107	-157.117	0.147	0.009
-114.093	6.992	-0.121	0.089
-113.078	-81.916	0.520	0.167
-112.064	-68.814	-0.038	-0.014
-111.049	379.226	0.207	0.417
-110.034	16.930	0.257	-0.200
-109.020	-200.000	0.053	-0.249
-108.005	-65.486	-0.076	0.030
-106.991	-66.807	-0.121	-0.047
-105.976	137.055	0.173	0.222
-104.962	-4.101	0.060	-0.041
-103.947	-111.119	0.233	0.047
-102.932	-200.000	0.003	-0.116
-101.918	635.944	0.187	-0.467
-100.903	29.431	-0.140	-0.117
-99.889	-200.000	-0.047	0.303
-98.874	379.665	-0.023	-0.046
-97.859	4.161	0.216	0.156
-96.845	150.477	-0.165	-0.220
-95.830	800.000	0.057	0.186
-94.816	52.748	-0.239	-0.224
-93.801	2.918	0.208	-0.148
-92.786	-200.000	-0.039	0.183
-91.772	-178.080	0.324	0.008
-90.757	283.206	-0.143	0.252
-89.743	187.396	-0.074	-0.108
-88.728	-95.222	-0.345	0.091
-87.713	21.824	0.179	0.143
-86.699	53.848	-0.260	-0.246
-85.684	-200.000	0.033	-0.271
-84.670	-200.000	0.010	0.229
-83.655	-99.277	0.616	-0.153
-82.640	-98.610	-0.393	-0.098
-81.626	-52.020	0.287	-0.131
-80.611	24.756	-0.280	0.228
-79.597	-182.029	0.274	-0.005
-78.582	40.799	0.189	0.168
-77.567	-200.000	-0.003	0.231
-76.553	137.279	0.107	0.137
-75.538	-88.463	0.174	-0.051
-74.524	-100.270	-0.186	0.045
-73.509	40.212	-0.137	-0.121
-72.494	-200.000	0.014	0.132
-71.480	643.473	-0.121	-0.303
-70.465	640.808	0.104	0.260
-69.451	-200.000	-0.006	0.236
-68.436	293.558	0.088	0.158
-67.422	19.874	-0.235	-0.186
-66.407	125.887	0.088	-0.109
-65.392	-107.240	-0.311	0.067
-64.378	174.909	-0.205	-0.292
-63.363	-200.000	0.046	-0.244
-62.349	56.986	-0.087	0.084
-61.334	211.556	-0.622	-0.960
-60.319	288.089	0.428	0.760
-59.305	-200.000	-0.293	-1.377
-58.290	410.645	0.613	1.275
-57.276	417.529	0.800	1.676
-56.261	-200.000	107.788	583.774
-55.246	408.134	1525.853	3165.261
-54.232	137.899	2741.061	3522.399
-53.217	102.478	2207.903	2531.890
-52.203	40.120	1639.412	1445.220
-51.188	31.796	1375.391	1161.118
-50.173	28.801	1334.612	1108.611
-49.159	51.991	1388.987	1297.201
-48.144	52.423	1404.779	1314.557
-47.130	31.990	1359.364	1148.596
-46.115	28.752	1341.233	1113.636
-45.100	28.476	1336.438	1107.940
-44.086	28.503	1333.631	1105.734
-43.071	28.364	1331.634	1103.196
-42.057	28.394	1329.351	1101.444
-41.042	28.339	1327.422	1099.470
-40.027	28.440	1325.355	1098.320
-39.013	28.464	1323.891	1097.209
-37.998	28.450	1321.791	1095.340
-36.984	28.539	1319.958	1094.309
-35.969	28.492	1318.787	1093.015
-34.954	28.587	1316.382	1091.544
-33.940	28.487	1315.709	1090.344
-32.925	28.640	1314.129	1089.900
-31.911	28.667	1313.307	1089.337
-30.896	28.619	1311.414	1087.437
-29.881	28.670	1310.022	1086.541
-28.867	28.677	1307.942	1084.814
-27.852	28.679	1306.490	1083.581
-26.838	28.703	1305.095	1082.522
-25.823	28.611	1304.160	1081.160
-24.809	28.528	1303.106	1079.754
-23.794	28.588	1301.478	1078.716
-22.779	28.595	1300.187	1077.644
-21.765	28.558	1298.902	1076.320
-20.750	28.594	1297.168	1075.052
-19.736	28.531	1295.760	1073.472
-18.721	28.451	1295.164	1072.467
-17.706	28.481	1293.280	1071.041
-16.692	28.524	1292.140	1070.310
-15.677	28.436	1291.566	1069.274
-14.663	28.399	1290.184	1067.875
-13.648	28.522	1288.783	1067.386
-12.633	28.417	1288.214	1066.262
-11.619	28.331	1287.651	1065.252
-10.604	28.437	1286.901	1065.206
-9.590	28.405	1285.844	1064.105
-8.575	28.430	1284.603	1063.179
-7.560	28.441	1283.529	1062.315
-6.546	28.412	1282.726	1061.437
-5.531	28.395	1281.714	1060.459
-4.517	28.452	1281.167	1060.293
-3.502	28.380	1280.252	1059.077
-2.487	28.448	1279.366	1058.698
-1.473	28.550	1275.248	1055.834
-0.458	27.749	1260.934	1039.383
0.556	23.953	1245.476	1005.295
1.571	20.401	1251.529	989.884
2.586	19.014	1266.227	993.416
3.600	17.956	1253.485	977.284
4.615	13.148	1178.027	892.452
5.629	4.899	1102.233	793.109
6.644	1.202	1082.239	760.152
7.659	0.827	1080.230	756.797
8.673	0.798	1079.403	756.006
9.688	0.814	1078.016	755.049
10.702	1.087	1075.858	754.829
11.717	5.509	1081.824	781.054
12.731	12.880	1091.647	825.086
13.746	16.827	1096.196	848.248
14.761	17.463	1096.310	851.443
15.775	16.643	1094.553	845.904
16.790	15.614	1092.880	839.400
17.804	14.914	1091.412	834.706
18.819	14.598	1089.376	831.500
19.834	14.307	1088.938	829.644
20.848	14.137	1087.824	827.877
21.863	13.900	1086.770	825.823
22.877	13.681	1086.262	824.275
23.892	13.586	1085.791	823.372
24.907	13.780	1084.827	823.531
25.921	13.654	1084.130	822.301
26.936	13.775	1082.853	821.862
27.950	13.706	1082.112	820.883
28.965	13.735	1080.891	820.030
29.980	13.796	1079.499	819.202
30.994	13.931	1078.453	819.001
32.009	13.916	1077.207	817.908
33.023	13.899	1076.506	817.219
34.038	13.773	1075.799	815.992
35.053	13.900	1074.235	815.357
36.067	13.745	1073.929	814.289
37.082	13.765	1072.902	813.540
38.096	13.781	1072.171	812.992
39.111	13.916	1071.486	813.062
40.126	13.893	1069.924	811.692
41.140	13.798	1068.975	810.436
42.155	13.679	1067.462	808.636
43.169	13.630	1066.606	807.676
44.184	13.605	1065.844	806.910
45.199	13.762	1063.952	806.165
46.213	13.641	1063.440	805.122
47.228	13.726	1062.305	804.604
48.242	13.700	1061.285	803.630
49.257	13.748	1059.677	802.575
50.271	13.801	1059.124	802.345
51.286	13.819	1058.301	801.733
52.301	13.743	1057.500	800.692
53.315	13.835	1056.240	800.108
54.330	13.735	1055.374	798.898
55.344	13.759	1054.841	798.544
56.359	13.798	1053.636	797.745
57.374	13.652	1053.194	796.638
58.388	13.688	1051.874	795.742
59.403	13.657	1051.107	794.944
60.417	13.727	1049.921	794.311
61.432	13.629	1049.385	793.367
62.447	13.642	1048.757	792.886
63.461	13.555	1048.178	791.960
64.476	13.698	1046.522	791.324
65.490	13.621	1046.206	790.645
66.505	13.666	1045.559	790.299
67.520	13.758	1044.933	790.196
68.534	13.624	1044.227	788.956
69.549	13.647	1043.266	788.268
70.563	13.671	1042.396	787.655
71.578	13.629	1041.347	786.591
72.593	13.665	1040.761	786.252
73.607	13.586	1040.480	785.598
74.622	13.646	1039.492	785.062
75.636	13.618	1038.775	784.320
76.651	13.595	1037.981	783.543
77.666	13.640	1037.468	783.298
78.680	13.609	1036.884	782.643
79.695	13.622	1035.978	781.952
80.709	13.688	1035.313	781.692
81.724	13.606	1035.075	781.056
82.739	13.822	1033.887	781.107
83.753	13.800	1032.821	780.129
84.768	13.797	1032.168	779.552
85.782	13.849	1030.898	778.768
86.797	13.837	1030.343	778.223
87.812	13.740	1029.449	777.027
88.826	13.793	1028.136	776.214
89.841	13.768	1027.535	775.576
90.855	13.828	1026.206	774.781
91.870	13.787	1025.622	774.083
92.884	13.809	1024.677	773.401
93.899	13.857	1024.025	773.064
94.914	13.822	1023.310	772.295
95.928	13.770	1022.203	771.147
96.943	13.767	1021.376	770.441
97.957	13.886	1020.491	770.258
98.972	13.813	1019.609	769.188
99.987	13.837	1018.966	768.746
101.001	13.866	1017.942	768.039
102.016	13.818	1016.974	767.018
103.030	13.884	1016.131	766.619
104.045	13.847	1015.362	765.801
105.060	13.829	1014.354	764.892
106.074	13.833	1013.206	763.975
107.089	13.826	1012.536	763.371
108.103	13.805	1011.791	762.644
109.118	13.829	1010.693	761.861
110.133	13.812	1009.492	760.808
111.147	13.799	1009.002	760.312
112.162	13.806	1007.858	759.418
113.176	13.844	1007.483	759.238
114.191	13.931	1006.280	758.665
115.206	13.978	1005.869	758.500
116.220	13.871	1004.753	757.103
117.235	13.820	1003.623	755.955
118.249	13.781	1003.329	755.486
119.264	13.855	1002.162	754.877
120.279	13.751	1001.623	753.931
121.293	13.846	1000.334	753.328
122.308	13.807	999.797	752.680
123.322	13.816	999.054	752.096
124.337	13.966	997.362	751.430
125.352	13.757	996.616	749.859
126.366	13.730	995.622	748.922
127.381	13.831	994.508	748.475
128.395	13.714	993.967	747.475
129.410	13.849	992.848	747.173
130.424	13.813	991.905	746.237
131.439	13.861	991.019	745.720
132.454	13.905	990.382	745.373
133.468	13.977	989.141	744.693
134.483	13.969	988.561	744.156
135.497	13.859	987.657	742.917
136.512	13.822	986.548	741.853
137.527	13.829	985.880	741.313
138.541	13.812	985.445	740.848
139.556	13.834	984.848	740.431
140.570	13.925	983.986	740.121
141.585	13.998	982.583	739.327
142.600	13.946	981.845	738.475
143.614	14.005	981.141	738.143
144.629	14.092	980.108	737.684
145.643	13.963	979.522	736.608
146.658	13.917	978.072	735.249
147.673	14.043	977.096	735.009
148.687	13.883	976.664	733.911
149.702	13.912	975.992	733.468
150.716	13.880	974.982	732.501
151.731	13.963	974.035	732.092
152.746	13.790	973.944	731.196
153.760	14.052	972.964	731.548
154.775	14.029	972.045	730.692
155.789	14.240	971.303	730.995
156.804	13.965	970.918	729.437
157.819	14.172	969.695	729.361
158.833	14.095	969.547	728.848
159.848	14.186	968.412	728.325
160.862	14.125	967.422	727.250
161.877	14.261	966.331	726.963
162.892	14.129	965.644	725.805
163.906	14.076	965.024	725.043
164.921	13.988	964.595	724.274
165.935	14.153	963.414	724.039
166.950	14.051	962.747	723.032
167.964	14.068	961.736	722.281
168.979	14.116	960.185	721.260
169.994	14.071	959.805	720.717
171.008	14.241	958.544	720.440
172.023	14.344	958.083	720.478
173.037	14.187	957.499	719.294
174.052	14.260	956.800	719.022
175.067	14.211	956.554	718.563
176.081	14.114	955.736	717.465
177.096	14.149	955.015	717.011
178.110	14.251	954.568	717.053
179.125	14.279	953.745	716.491
180.140	14.248	953.403	716.037
181.154	14.182	953.357	715.653
182.169	14.365	952.275	715.566
183.183	14.456	951.417	715.246
184.198	14.312	951.001	714.253
185.213	14.364	950.284	713.877
186.227	14.309	949.536	713.015
187.242	14.388	948.997	712.886
188.256	14.481	947.472	712.076
189.271	14.308	947.262	711.115
190.286	14.434	946.311	710.877
191.300	14.359	945.567	709.931
192.315	14.258	945.116	709.102
193.329	14.372	944.670	709.188
194.344	14.337	943.672	708.230
195.359	14.444	943.141	708.224
196.373	14.283	943.079	707.430
197.388	14.470	942.283	707.564
198.402	14.489	941.685	707.132
199.417	14.424	941.233	706.453
200.432	14.575	940.589	706.550
201.446	14.722	939.563	706.339
202.461	14.806	939.173	706.338
203.475	14.720	938.952	705.746
204.490	14.720	937.845	704.850
205.504	14.626	937.160	703.874
206.519	14.631	936.513	703.351
207.534	14.668	935.712	702.842
208.548	14.613	935.192	702.157
209.563	14.601	934.390	701.441
210.577	14.666	933.486	700.973
211.592	14.741	933.009	700.870
212.607	14.732	932.322	700.252
213.621	14.712	931.584	699.551
214.636	14.843	930.855	699.491
215.650	14.839	929.915	698.706
216.665	14.875	928.886	698.021
217.680	14.937	928.131	697.653
218.694	14.793	928.209	697.047
219.709	14.861	927.234	696.537
220.723	14.846	926.638	695.966
221.738	14.917	926.084	695.782
222.753	14.767	925.682	694.798
223.767	14.863	924.812	694.480
224.782	14.974	924.228	694.442
225.796	14.955	923.675	693.883
226.811	14.976	922.887	693.320
227.826	15.001	922.174	692.825
228.840	14.945	921.262	691.848
229.855	14.888	920.808	691.208
230.869	15.042	919.807	691.032
231.884	14.937	919.438	690.260
232.899	14.864	918.629	689.292
233.913	14.920	918.054	689.032
234.928	14.984	917.214	688.601
235.942	14.952	916.841	688.129
236.957	14.871	916.379	687.390
237.972	15.037	915.487	687.342
238.986	15.025	914.898	686.790
240.001	14.916	914.296	685.828
241.015	14.901	913.691	685.252
242.030	15.066	912.867	685.248
243.045	15.177	912.222	685.160
244.059	14.910	911.961	683.810
245.074	15.085	910.936	683.696
246.088	15.029	910.437	683.032
247.103	15.117	909.366	682.529
248.117	15.279	908.783	682.691
249.132	15.323	908.187	682.361
250.147	15.401	907.475	682.080
251.161	15.233	907.263	681.178
252.176	15.302	906.435	680.777
253.190	15.230	906.088	680.163
254.205	15.296	905.139	679.661
255.220	15.414	904.479	679.579
256.234	15.358	904.011	678.945
257.249	15.480	903.152	678.732
258.263	15.493	902.432	678.180
259.278	15.521	901.345	677.419
260.293	15.428	901.232	676.900
261.307	15.573	900.740	677.054
262.322	15.582	899.739	676.279
263.336	15.551	899.253	675.729
264.351	15.738	898.168	675.604
265.366	15.645	897.884	674.957
266.380	15.626	896.970	674.134
267.395	15.650	896.427	673.761
268.409	15.651	895.834	673.263
269.424	15.778	894.520	672.723
270.439	15.704	893.864	671.872
271.453	15.685	893.574	671.522
272.468	15.557	893.094	670.588
273.482	15.705	892.339	670.555
274.497	15.679	891.727	669.930
275.512	15.736	891.175	669.682
276.526	15.726	890.684	669.214
277.541	15.828	890.046	669.082
278.555	15.761	889.541	668.379
279.570	15.947	888.874	668.554
280.585	15.954	887.965	667.841
281.599	15.866	887.389	667.001
282.614	15.918	886.607	666.560
283.628	15.870	886.279	666.063
284.643	15.807	885.894	665.465
285.657	15.966	884.836	665.241
286.672	15.936	884.138	664.539
287.687	15.895	883.756	664.031
288.701	15.939	883.151	663.692
289.716	16.011	882.332	663.300
290.730	15.953	881.927	662.707
291.745	15.963	881.309	662.224
292.760	16.025	881.007	662.184
293.774	16.206	879.526	661.719
294.789	16.076	879.099	660.830
295.803	15.975	878.593	659.998
296.818	16.052	877.921	659.736
297.833	16.050	877.364	659.251
298.847	16.054	876.594	658.630
299.862	16.125	876.022	658.417
300.876	16.206	875.834	658.534
301.891	16.247	874.892	657.927
302.906	16.297	874.147	657.503
303.920	16.364	873.982	657.582
304.935	16.348	873.369	657.001
305.949	16.250	872.972	656.264
306.964	16.358	871.699	655.666
307.979	16.246	871.570	655.078
308.993	16.516	870.217	655.051
310.008	16.463	870.053	654.662
311.022	16.484	869.502	654.270
312.037	16.448	868.823	653.564
313.052	16.217	868.547	652.404
314.066	16.334	867.872	652.291
315.081	16.384	867.290	651.991
316.095	16.188	866.687	650.722
317.110	16.284	866.259	650.713
318.125	16.327	865.746	650.438
319.139	16.303	865.356	649.995
320.154	16.365	865.113	649.990
321.168	16.332	864.580	649.405
322.183	16.578	863.316	649.343
323.197	16.546	862.754	648.742
324.212	16.508	862.457	648.317
325.227	16.582	861.851	648.085
326.241	16.422	861.546	647.185
327.256	16.533	860.544	646.803
328.270	16.571	860.109	646.564
329.285	16.394	859.710	645.529
330.300	16.420	859.035	645.064
331.314	16.518	858.527	644.999
332.329	16.519	858.374	644.832
333.343	16.482	857.901	644.278
334.358	16.545	857.203	643.936
335.373	16.527	856.943	643.615
336.387	16.470	856.757	643.204
337.402	16.703	856.230	643.636
338.416	16.688	855.711	643.132
339.431	16.825	855.172	643.189
340.446	16.724	854.759	642.438
341.460	16.817	854.532	642.564
342.475	16.803	854.521	642.446
343.489	16.864	853.480	641.839
344.504	16.763	853.164	641.163
345.519	16.930	852.364	641.133
346.533	16.962	851.979	640.910
347.548	16.792	851.832	640.099
348.562	16.797	851.078	639.493
349.577	16.905	850.253	639.224
350.592	16.846	849.638	638.485
351.606	16.849	848.930	637.908
352.621	16.704	848.683	637.120
353.635	16.998	847.684	637.416
354.650	17.061	847.096	637.157
355.665	16.939	846.282	636.031
356.679	17.064	845.890	636.146
357.694	17.045	844.850	635.239
358.708	16.968	844.612	634.716
359.723	16.822	844.306	633.884
360.738	17.055	843.555	634.133
361.752	16.982	843.094	633.457
362.767	17.025	842.150	632.853
363.781	17.162	841.906	633.123
364.796	17.110	841.546	632.605
365.810	17.093	841.182	632.211
366.825	17.341	840.461	632.536
367.840	17.271	840.097	631.946
368.854	17.146	839.788	631.192
369.869	17.180	839.279	630.880
370.883	17.232	838.805	630.661
371.898	17.267	838.401	630.432
372.913	17.300	837.929	630.142
373.927	17.306	837.083	629.474
374.942	17.230	837.047	629.108
375.956	17.418	836.398	629.260
376.971	17.388	836.456	629.137
377.986	17.470	835.638	628.769
379.000	17.316	835.498	628.041
380.015	17.355	834.766	627.577
381.029	17.627	833.958	627.918
382.044	17.664	833.210	627.434
383.059	17.540	832.442	626.345
384.073	17.465	832.168	625.808
385.088	17.413	831.796	625.283
386.102	17.351	831.572	624.829
387.117	17.477	830.810	624.665
388.132	17.564	829.623	624.037
389.146	17.483	829.829	623.838
390.161	17.583	829.048	623.562
391.175	17.622	828.068	622.914
392.190	17.565	827.970	622.576
393.205	17.607	827.399	622.245
394.219	17.570	826.839	621.634
395.234	17.568	826.684	621.453
396.248	17.612	826.291	621.264
397.263	17.461	825.873	620.346
398.278	17.438	825.594	619.998
399.292	17.722	824.928	620.477
400.307	17.614	824.596	619.779
401.321	17.772	823.818	619.712
402.336	17.670	823.517	619.060
403.350	17.649	823.092	618.611
404.365	17.617	822.860	618.266
405.380	17.657	822.360	617.979
406.394	17.915	821.315	618.073
407.409	17.856	821.071	617.622
408.423	17.970	820.571	617.602
409.438	17.885	820.524	617.206
410.453	17.777	820.350	616.630
411.467	17.990	819.436	616.658
412.482	18.061	818.786	616.371
413.496	18.014	819.036	616.334
414.511	18.026	818.437	615.871
415.526	17.939	818.058	615.221
416.540	18.074	817.442	615.189
417.555	18.046	816.964	614.674
418.569	18.103	816.425	614.419
419.584	18.040	816.031	613.840
420.599	18.221	815.521	614.052
421.613	111.671	1295.157	1474.567
422.628	96.650	1365.007	1474.656
