DTS Sentinel unit serial number:	SN413079Multiplexer serial number:	ORYXHardware model number:	OX4-SRSoftware version number:	ORYX F/W v4.00 Oryx Data Collector v3.7.2.0data status	okinstallation	princeton_trtdifferential loss correction	single-endedforward channel	channel 1reverse channel	N/Adate	2019/09/17time	03:58:35forward acquisition time	60.00reverse acquisition time	0.00gamma	496.2192k internal	0.2324k external	0.2324temperature offset calibration	0.9957default loss term (dB/km)	0.3790temperature slope calibration	1.0000multiplexer offset coefficient	1.0000multiplexer slope coefficient	1.0000fibre end	0.00T internal ref (°C)	29.92T ext. ref 1 (°C)	0.14T ext. ref 2 (°C)	24.42length (m)	temperature (°C)	Stokes	anti-Stokes-747.200	646.588	-0.098	0.254
-746.185	172.031	-0.189	0.275
-745.171	22.079	0.068	-0.056
-744.156	420.207	0.069	0.149
-743.142	40.824	-0.245	0.223
-742.127	634.368	0.119	0.305
-741.112	11.268	-0.105	-0.082
-740.098	-120.876	-0.252	-0.043
-739.083	-92.158	0.108	-0.031
-738.069	-200.000	0.004	0.170
-737.054	800.000	-0.068	0.189
-736.039	-88.750	-0.306	-0.092
-735.025	-82.959	0.208	-0.068
-734.010	-185.206	-0.064	0.001
-732.996	-29.341	-0.210	-0.121
-731.981	104.070	-0.094	0.112
-730.966	800.000	-0.031	-0.113
-729.952	-200.000	0.018	-0.124
-728.937	50.496	0.018	0.017
-727.923	-162.983	-0.286	-0.014
-726.908	-18.083	-0.018	-0.012
-725.894	70.077	0.071	-0.074
-724.879	51.268	0.108	-0.103
-723.864	44.132	-0.263	-0.243
-722.850	-200.000	0.052	-0.559
-721.835	50.928	-0.284	-0.272
-720.821	389.748	0.197	-0.412
-719.806	32.392	0.337	-0.293
-718.791	-200.000	-0.006	-0.318
-717.777	-46.603	-0.306	-0.151
-716.762	103.036	-0.211	-0.249
-715.748	-73.949	0.256	-0.094
-714.733	-83.387	0.198	-0.064
-713.718	20.571	-0.232	-0.189
-712.704	124.451	-0.117	-0.148
-711.689	-46.728	-0.319	-0.157
-710.675	-99.685	-0.350	0.089
-709.660	-71.921	0.374	0.140
-708.645	800.000	0.093	-0.323
-707.631	-200.000	-0.012	-0.126
-706.616	-141.732	0.242	0.025
-705.602	-60.494	0.215	-0.092
-704.587	800.000	-0.061	-0.207
-703.572	-115.109	0.159	-0.030
-702.558	126.350	0.263	-0.335
-701.543	-200.000	-0.264	-0.000
-700.529	800.000	0.093	-0.363
-699.514	-200.000	-0.055	0.338
-698.499	-7.392	-0.200	-0.136
-697.485	-200.000	0.089	0.434
-696.470	-71.904	-0.314	0.118
-695.456	448.825	0.058	0.128
-694.441	-2.920	0.223	0.157
-693.426	-13.927	-0.259	0.169
-692.412	-92.353	-0.131	0.037
-691.397	-103.642	-0.202	-0.048
-690.383	-100.635	0.290	-0.072
-689.368	-131.688	0.374	0.049
-688.354	35.897	-0.218	-0.194
-687.339	-121.563	-0.197	-0.033
-686.324	-37.276	-0.275	0.148
-685.310	-103.010	-0.439	0.105
-684.295	-40.834	-0.159	0.083
-683.281	-143.327	0.259	0.025
-682.266	113.936	-0.139	-0.170
-681.251	331.790	-0.061	0.118
-680.237	52.330	0.059	0.057
-679.222	-179.326	-0.538	0.012
-678.208	39.143	-0.190	0.172
-677.193	800.000	0.098	-0.286
-676.178	-41.910	-0.335	-0.173
-675.164	-84.776	-0.060	0.019
-674.149	-200.000	-0.014	-0.175
-673.135	4.951	-0.280	-0.207
-672.120	-36.931	-0.308	-0.166
-671.105	-200.000	-0.014	-0.236
-670.091	-155.387	0.093	0.006
-669.076	-200.000	-0.046	-0.481
-668.062	43.321	0.171	-0.157
-667.047	49.996	-0.233	0.221
-666.032	112.092	0.189	-0.230
-665.018	-200.000	-0.029	0.197
-664.003	-116.209	0.135	0.025
-662.989	-88.614	0.305	0.091
-661.974	-189.490	0.255	0.003
-660.959	-200.000	-0.015	0.104
-659.945	-138.870	-0.182	0.020
-658.930	126.947	-0.165	0.211
-657.916	800.000	-0.094	0.277
-656.901	-17.224	-0.177	0.112
-655.886	56.749	-0.171	-0.167
-654.872	400.287	-0.111	-0.234
-653.857	-126.081	0.370	-0.056
-652.843	-200.000	0.015	-0.179
-651.828	-200.000	-0.086	-0.445
-650.814	800.000	-0.093	0.287
-649.799	-38.096	-0.069	-0.037
-648.784	488.024	-0.053	0.122
-647.770	125.969	-0.166	0.211
-646.755	4.894	-0.194	-0.143
-645.741	211.204	0.226	-0.358
-644.726	800.000	0.080	-0.253
-643.711	-133.034	-0.237	-0.030
-642.697	-45.148	-0.042	0.021
-641.682	800.000	-0.077	-0.325
-640.668	-135.206	-0.075	-0.009
-639.653	338.386	-0.048	-0.093
-638.638	236.337	0.106	-0.176
-637.624	-11.949	-0.176	-0.116
-636.609	42.595	0.106	0.097
-635.595	-19.268	-0.084	0.052
-634.580	-178.400	0.043	0.001
-633.565	-114.232	0.463	-0.090
-632.551	75.434	-0.142	0.151
-631.536	78.502	-0.125	-0.135
-630.522	51.622	-0.111	-0.107
-629.507	-200.000	-0.010	0.380
-628.492	18.316	0.113	0.091
-627.478	-1.128	-0.250	0.178
-626.463	204.230	-0.049	-0.077
-625.449	345.783	0.134	-0.266
-624.434	43.455	-0.037	-0.034
-623.419	-200.000	-0.014	-0.101
-622.405	-200.000	0.043	-0.255
-621.390	-200.000	-0.018	-0.086
-620.376	512.691	-0.047	0.110
-619.361	-17.138	0.077	0.049
-618.346	-200.000	0.060	-0.413
-617.332	800.000	-0.042	-0.131
-616.317	800.000	-0.066	-0.234
-615.303	15.034	-0.225	-0.177
-614.288	-3.609	-0.162	-0.113
-613.273	-200.000	-0.027	-0.181
-612.259	395.893	0.094	0.196
-611.244	43.170	-0.066	0.061
-610.230	-129.468	0.310	0.043
-609.215	52.265	0.044	0.042
-608.201	-10.153	-0.405	0.270
-607.186	112.705	0.189	0.229
-606.171	490.579	-0.106	0.244
-605.157	-200.000	0.008	0.170
-604.142	-85.545	0.113	-0.035
-603.128	-134.668	-0.287	0.035
-602.113	-154.955	0.178	-0.012
-601.098	261.455	0.098	-0.170
-600.084	223.522	-0.110	0.179
-599.069	220.067	0.098	-0.158
-598.055	633.961	-0.064	0.162
-597.040	800.000	0.049	0.203
-596.025	-48.961	-0.202	-0.097
-595.011	606.025	-0.096	0.240
-593.996	-116.542	-0.101	-0.019
-592.982	-200.000	-0.037	-0.347
-591.967	-85.954	-0.101	-0.031
-590.952	9.158	-0.230	0.174
-589.938	-103.191	0.435	-0.103
-588.923	-200.000	-0.018	-0.093
-587.909	59.024	-0.090	0.089
-586.894	-120.769	0.225	-0.038
-585.879	800.000	-0.085	0.238
-584.865	-32.302	0.272	0.152
-583.850	387.036	0.131	0.272
-582.836	-127.781	0.278	-0.040
-581.821	448.798	0.123	-0.273
-580.806	449.775	0.053	-0.118
-579.792	-52.394	0.258	0.120
-578.777	-81.886	0.373	-0.122
-577.763	-200.000	0.015	-0.339
-576.748	356.660	0.064	-0.128
-575.733	800.000	0.099	0.338
-574.719	-144.627	-0.218	-0.020
-573.704	-140.530	-0.292	0.030
-572.690	-58.578	-0.322	-0.140
-571.675	-123.292	-0.143	0.023
-570.661	-73.178	-0.379	0.139
-569.646	-53.223	-0.168	0.077
-568.631	566.513	-0.199	0.485
-567.617	-122.623	0.208	0.034
-566.602	-118.823	-0.100	-0.018
-565.588	74.819	-0.070	0.074
-564.573	735.725	0.110	0.296
-563.558	579.457	-0.039	-0.096
-562.544	100.935	0.071	-0.083
-561.529	-200.000	0.014	-0.113
-560.515	-98.544	-0.158	0.040
-559.500	-36.513	-0.145	-0.078
-558.485	131.207	0.041	-0.053
-557.471	-104.322	0.129	-0.030
-556.456	297.251	0.193	-0.356
-555.442	-84.542	-0.140	0.044
-554.427	-78.136	0.174	-0.060
-553.412	-73.099	0.059	0.022
-552.398	-1.068	0.210	0.149
-551.383	-200.000	0.026	-0.205
-550.369	800.000	0.044	0.181
-549.354	-97.736	-0.176	0.046
-548.339	-138.470	0.170	0.019
-547.325	-200.000	0.026	-0.189
-546.310	68.839	-0.190	0.196
-545.296	-200.000	0.036	-0.235
-544.281	-111.268	-0.114	0.023
-543.266	61.999	0.291	0.291
-542.252	-103.720	0.155	-0.036
-541.237	-200.000	0.042	0.256
-540.223	-64.349	-0.468	0.191
-539.208	800.000	-0.031	-0.111
-538.193	800.000	0.049	-0.168
-537.179	-200.000	0.049	-0.233
-536.164	522.129	0.120	0.282
-535.150	-200.000	-0.027	-0.274
-534.135	96.353	-0.198	0.226
-533.121	159.678	0.076	0.106
-532.106	738.072	-0.017	0.047
-531.091	-107.849	-0.257	-0.056
-530.077	3.163	-0.154	0.112
-529.062	-48.781	-0.053	0.026
-528.048	85.828	0.091	-0.101
-527.033	-46.487	0.239	0.118
-526.018	145.951	0.152	-0.204
-525.004	-126.915	0.290	0.043
-523.989	-75.765	0.197	0.070
-522.975	0.193	-0.197	0.141
-521.960	45.944	-0.162	-0.150
-520.945	83.081	-0.200	0.218
-519.931	309.390	-0.105	0.197
-518.916	-126.586	0.139	0.021
-517.902	-128.401	-0.026	0.004
-516.887	-135.148	-0.328	0.039
-515.872	-200.000	0.006	-0.043
-514.858	40.944	-0.205	0.185
-513.843	-63.070	0.127	-0.053
-512.829	-200.000	-0.002	-0.080
-511.814	-126.526	-0.384	0.057
-510.799	800.000	-0.062	-0.213
-509.785	226.106	0.100	-0.163
-508.770	-53.080	-0.114	-0.053
-507.756	-142.766	0.062	-0.006
-506.741	37.877	0.241	-0.214
-505.726	-156.403	0.109	-0.007
-504.712	43.708	0.144	0.131
-503.697	17.939	-0.122	0.097
-502.683	-22.913	0.093	0.056
-501.668	9.684	-0.474	-0.359
-500.653	-200.000	0.034	0.236
-499.639	-200.000	0.008	0.171
-498.624	7.001	0.174	0.130
-497.610	21.101	-0.105	-0.085
-496.595	-72.557	-0.225	-0.083
-495.581	206.655	0.155	-0.241
-494.566	-43.514	-0.356	0.180
-493.551	35.106	-0.265	0.232
-492.537	-200.000	-0.033	-0.191
-491.522	800.000	-0.040	-0.166
-490.508	-90.618	-0.214	-0.062
-489.493	800.000	0.077	-0.293
-488.478	-200.000	-0.024	0.144
-487.464	38.995	0.061	-0.054
-486.449	-24.688	-0.105	0.063
-485.435	52.728	0.082	0.078
-484.420	-48.178	0.076	-0.037
-483.405	88.283	0.182	-0.202
-482.391	-200.000	0.004	-0.325
-481.376	800.000	-0.118	-0.374
-480.362	78.721	0.129	-0.138
-479.347	87.348	0.117	-0.130
-478.332	-34.325	0.157	-0.086
-477.318	-200.000	-0.001	-0.107
-476.303	112.136	-0.197	-0.237
-475.289	32.780	-0.078	-0.068
-474.274	-163.604	-0.168	-0.008
-473.259	333.226	0.096	-0.185
-472.245	245.162	-0.060	0.101
-471.230	-200.000	-0.002	0.014
-470.216	-59.625	0.247	-0.106
-469.201	218.017	0.047	0.075
-468.186	-131.986	-0.231	0.030
-467.172	340.241	0.065	0.126
-466.157	7.731	-0.099	0.074
-465.143	800.000	0.083	0.321
-464.128	-46.057	-0.254	-0.125
-463.113	-55.550	-0.274	0.123
-462.099	73.291	0.167	0.175
-461.084	-200.000	-0.033	-0.389
-460.070	-200.000	-0.011	-0.253
-459.055	-10.712	-0.137	0.090
-458.040	-119.235	0.077	-0.013
-457.026	108.125	-0.275	0.327
-456.011	-200.000	0.018	0.225
-454.997	-136.924	0.311	-0.036
-453.982	261.030	0.060	-0.104
-452.968	145.407	0.276	-0.369
-451.953	-95.615	0.145	-0.039
-450.938	-43.801	0.246	0.123
-449.924	152.834	-0.128	0.175
-448.909	800.000	-0.129	-0.439
-447.895	-200.000	0.020	-0.288
-446.880	800.000	-0.135	-0.478
-445.865	45.249	-0.014	0.013
-444.851	-53.360	0.309	0.141
-443.836	123.109	0.100	-0.125
-442.822	-200.000	0.017	-0.151
-441.807	81.712	-0.144	0.155
-440.792	-200.000	-0.003	0.308
-439.778	30.582	-0.140	-0.119
-438.763	-54.603	0.228	0.103
-437.749	800.000	-0.083	0.275
-436.734	-200.000	-0.053	-0.238
-435.719	-182.787	0.373	-0.007
-434.705	33.022	-0.211	0.183
-433.690	19.807	0.402	0.323
-432.676	-119.442	-0.115	-0.020
-431.661	-31.783	0.215	-0.120
-430.646	-200.000	-0.022	0.374
-429.632	33.694	0.044	0.039
-428.617	161.781	-0.203	0.283
-427.603	-28.646	-0.332	-0.191
-426.588	800.000	-0.114	-0.374
-425.573	-111.559	-0.102	0.021
-424.559	-156.287	-0.164	0.010
-423.544	-22.935	-0.272	-0.164
-422.530	356.013	-0.068	-0.134
-421.515	-200.000	0.011	-0.071
-420.500	5.874	0.259	0.191
-419.486	25.977	-0.039	-0.032
-418.471	346.291	-0.063	-0.123
-417.457	-115.093	0.145	-0.028
-416.442	-126.298	-0.114	-0.017
-415.428	-200.000	0.003	-0.060
-414.413	94.429	-0.185	0.210
-413.398	-182.961	-0.144	-0.003
-412.384	521.370	0.186	0.436
-411.369	12.600	-0.051	0.039
-410.355	-100.754	0.257	-0.063
-409.340	-200.000	0.037	-0.340
-408.325	-57.480	-0.129	-0.056
-407.311	551.796	0.022	-0.053
-406.296	73.795	0.168	0.176
-405.282	-39.779	-0.197	-0.103
-404.267	6.130	0.158	0.117
-403.252	-175.377	0.290	-0.008
-402.238	90.071	0.117	0.130
-401.223	800.000	-0.036	-0.099
-400.209	0.943	-0.097	-0.069
-399.194	-74.802	0.367	-0.131
-398.179	-200.000	0.017	0.171
-397.165	347.689	-0.114	-0.223
-396.150	-16.112	0.174	-0.110
-395.136	-175.118	0.095	0.003
-394.121	-200.000	0.018	0.264
-393.106	729.357	0.068	-0.180
-392.092	-200.000	0.035	0.211
-391.077	11.621	-0.057	0.044
-390.063	-200.000	-0.035	-0.174
-389.048	-7.500	0.165	-0.111
-388.033	390.430	-0.014	-0.030
-387.019	46.248	0.035	-0.032
-386.004	15.791	0.176	0.138
-384.990	126.653	0.107	0.135
-383.975	-200.000	0.003	-0.050
-382.960	800.000	0.051	-0.151
-381.946	-200.000	0.024	-0.437
-380.931	-52.049	-0.166	0.077
-379.917	-57.029	-0.014	0.006
-378.902	-200.000	0.016	-0.208
-377.888	-66.281	0.030	0.012
-376.873	50.866	0.236	0.223
-375.858	-126.015	-0.181	0.027
-374.844	537.510	-0.081	0.191
-373.829	-198.708	0.136	0.001
-372.815	59.912	0.123	-0.121
-371.800	41.776	-0.125	-0.113
-370.785	-200.000	-0.020	0.240
-369.771	-45.052	0.088	-0.044
-368.756	-115.884	-0.199	0.037
-367.742	-103.730	0.243	0.057
-366.727	-74.859	-0.391	-0.139
-365.712	14.825	0.048	0.037
-364.698	73.319	-0.190	0.198
-363.683	-92.929	-0.098	0.027
-362.669	116.506	0.105	0.128
-361.654	-200.000	-0.024	-0.163
-360.639	140.817	0.132	0.174
-359.625	-10.101	0.172	-0.114
-358.610	56.411	-0.138	0.133
-357.596	604.563	0.108	0.268
-356.581	-155.502	0.194	0.012
-355.566	46.269	-0.059	-0.055
-354.552	-200.000	0.012	-0.073
-353.537	-200.000	-0.021	-0.220
-352.523	-80.422	0.282	0.094
-351.508	165.410	0.111	0.156
-350.493	13.827	0.044	0.034
-349.479	220.289	0.148	0.235
-348.464	-67.547	0.087	-0.034
-347.450	-135.702	0.335	0.040
-346.435	20.098	0.040	0.032
-345.420	800.000	-0.045	-0.153
-344.406	-18.102	-0.218	0.136
-343.391	-15.351	0.155	0.099
-342.377	677.380	-0.075	0.194
-341.362	325.260	0.109	0.208
-340.348	150.982	-0.168	-0.226
-339.333	72.325	0.148	0.153
-338.318	253.382	0.086	-0.146
-337.304	137.439	-0.179	-0.233
-336.289	752.643	0.059	-0.159
-335.275	74.162	-0.154	0.161
-334.260	217.035	0.029	-0.046
-333.245	-105.176	-0.122	-0.028
-332.231	-83.747	0.075	-0.024
-331.216	-78.294	0.250	-0.085
-330.202	37.531	0.082	-0.072
-329.187	800.000	0.040	-0.130
-328.172	-1.784	-0.169	0.118
-327.158	65.250	-0.191	-0.192
-326.143	-52.216	0.086	-0.040
-325.129	-174.332	0.212	-0.006
-324.114	-64.548	0.088	0.036
-323.099	97.415	0.081	0.092
-322.085	7.038	0.286	0.212
-321.070	-23.166	-0.262	0.157
-320.056	-134.946	0.270	-0.032
-319.041	236.988	0.110	0.180
-318.026	25.949	0.299	-0.248
-317.012	-200.000	0.000	-0.286
-315.997	216.691	-0.174	-0.275
-314.983	364.013	-0.250	-0.499
-313.968	238.831	-0.303	-0.500
-312.953	341.774	-0.135	-0.262
-311.939	-120.172	0.349	-0.059
-310.924	-200.000	0.031	0.373
-309.910	-39.538	0.168	0.087
-308.895	112.268	0.156	0.187
-307.880	800.000	0.065	0.214
-306.866	398.145	-0.044	0.090
-305.851	-63.553	0.151	-0.062
-304.837	800.000	-0.103	-0.298
-303.822	-166.880	0.147	-0.006
-302.807	106.318	-0.083	0.098
-301.793	7.482	0.117	-0.087
-300.778	-114.719	0.130	-0.025
-299.764	-125.231	0.285	0.043
-298.749	800.000	0.063	0.272
-297.735	-144.563	0.166	-0.015
-296.720	163.759	-0.164	0.229
-295.705	24.001	-0.101	0.083
-294.691	74.634	0.162	0.169
-293.676	24.606	-0.224	-0.184
-292.662	-21.890	-0.090	-0.054
-291.647	-151.443	-0.149	0.011
-290.632	54.989	-0.143	-0.137
-289.618	402.365	0.164	0.342
-288.603	72.100	-0.191	0.197
-287.589	-89.172	0.184	0.054
-286.574	428.456	-0.193	-0.414
-285.559	-86.560	0.194	0.059
-284.545	539.439	0.126	0.298
-283.530	-135.552	-0.092	0.011
-282.516	-5.468	-0.196	-0.133
-281.501	112.704	0.228	-0.273
-280.486	55.814	-0.093	-0.090
-279.472	-200.000	0.003	0.061
-278.457	800.000	0.126	-0.416
-277.443	-40.049	-0.255	0.132
-276.428	-73.330	-0.201	-0.073
-275.413	86.796	-0.263	0.288
-274.399	-93.699	-0.238	-0.065
-273.384	-200.000	0.023	-0.173
-272.370	-200.000	-0.009	0.119
-271.355	800.000	-0.065	0.215
-270.340	128.797	0.194	-0.246
-269.326	-76.962	0.302	-0.105
-268.311	130.544	-0.259	-0.328
-267.297	-74.534	-0.100	0.036
-266.282	-200.000	-0.005	-0.053
-265.267	17.819	-0.146	-0.116
-264.253	230.064	-0.037	-0.059
-263.238	-9.374	-0.081	-0.054
-262.224	366.478	-0.150	0.299
-261.209	283.605	0.114	-0.203
-260.195	39.531	0.215	0.191
-259.180	424.857	0.050	0.107
-258.165	800.000	-0.060	-0.169
-257.151	-30.003	-0.122	-0.069
-256.136	51.759	0.159	-0.150
-255.122	-16.551	-0.090	0.056
-254.107	555.932	0.073	0.173
-253.092	-121.511	-0.116	-0.019
-252.078	-200.000	0.007	0.118
-251.063	-1.564	-0.096	0.067
-250.049	-68.901	-0.097	0.037
-249.034	446.422	0.070	0.153
-248.019	-200.000	0.001	-0.483
-247.005	-3.605	-0.144	0.099
-245.990	180.531	-0.041	0.059
-244.976	-82.790	0.217	0.070
-243.961	-17.642	0.082	0.051
-242.946	161.680	-0.094	0.130
-241.932	800.000	-0.048	0.203
-240.917	800.000	0.046	-0.133
-239.903	-78.921	-0.192	-0.065
-238.888	800.000	-0.033	-0.126
-237.873	-75.726	-0.214	-0.075
-236.859	-25.734	-0.082	0.048
-235.844	800.000	0.116	0.328
-234.830	166.631	-0.194	0.272
-233.815	800.000	-0.085	0.347
-232.800	-200.000	-0.017	0.177
-231.786	-200.000	-0.023	0.383
-230.771	-200.000	0.021	0.176
-229.757	142.675	-0.147	-0.193
-228.742	-20.915	0.110	0.066
-227.727	-200.000	-0.011	-0.134
-226.713	347.627	-0.080	0.156
-225.698	219.790	0.123	0.194
-224.684	110.624	-0.059	0.070
-223.669	-66.184	0.194	0.076
-222.655	-56.882	-0.273	0.119
-221.640	406.610	0.089	-0.187
-220.625	-154.597	-0.251	-0.017
-219.611	-200.000	-0.006	0.132
-218.596	108.287	-0.103	0.122
-217.582	348.217	-0.085	-0.166
-216.567	-200.000	0.006	-0.061
-215.552	-34.691	-0.161	0.087
-214.538	177.727	0.092	0.132
-213.523	-16.844	-0.141	0.088
-212.509	-72.238	-0.300	-0.110
-211.494	-20.886	0.160	0.097
-210.479	-195.627	-0.407	0.003
-209.465	-96.855	-0.168	-0.043
-208.450	-200.000	0.029	0.200
-207.436	467.157	0.051	0.114
-206.421	-200.000	-0.014	0.119
-205.406	107.559	0.163	0.191
-204.392	-200.000	-0.006	0.294
-203.377	-44.270	-0.102	0.050
-202.363	194.257	-0.233	-0.350
-201.348	14.010	0.129	0.099
-200.333	-61.325	0.234	0.097
-199.319	800.000	0.030	0.118
-198.304	375.637	-0.118	-0.237
-197.290	17.056	-0.409	0.320
-196.275	95.400	0.028	0.032
-195.260	331.254	-0.196	0.374
-194.246	800.000	-0.066	0.198
-193.231	376.847	0.203	-0.410
-192.217	205.788	-0.196	0.302
-191.202	111.085	0.150	-0.179
-190.187	166.837	0.096	-0.134
-189.173	-73.204	0.182	-0.066
-188.158	800.000	-0.056	-0.232
-187.144	-156.327	0.219	0.014
-186.129	-200.000	0.012	-0.192
-185.114	-175.176	-0.077	0.002
-184.100	215.181	0.146	-0.229
-183.085	510.220	-0.078	0.178
-182.071	-41.368	0.179	-0.091
-181.056	253.697	-0.135	-0.227
-180.042	-200.000	0.012	-0.093
-179.027	-119.306	0.088	-0.015
-178.012	-31.013	-0.213	0.119
-176.998	-200.000	0.009	-0.202
-175.983	-200.000	0.022	-0.284
-174.969	-116.553	0.265	-0.048
-173.954	-128.013	0.114	0.016
-172.939	-200.000	0.016	-0.360
-171.925	129.920	-0.027	0.034
-170.910	-22.023	0.244	0.146
-169.896	-166.483	-0.080	-0.003
-168.881	-200.000	-0.001	-0.055
-167.866	136.053	0.274	0.352
-166.852	-200.000	-0.083	0.451
-165.837	-200.000	-0.014	0.133
-164.823	-57.889	0.224	-0.096
-163.808	-155.201	0.207	0.013
-162.793	-124.224	0.049	0.008
-161.779	14.215	0.291	-0.224
-160.764	-112.836	0.292	-0.057
-159.750	219.163	-0.115	-0.181
-158.735	434.907	0.027	0.059
-157.720	-200.000	-0.014	0.081
-156.706	249.966	-0.097	-0.162
-155.691	-200.000	-0.023	0.406
-154.677	-200.000	-0.001	0.159
-153.662	-123.818	0.199	0.031
-152.647	662.268	0.127	0.322
-151.633	110.705	0.136	0.162
-150.618	225.181	0.115	0.184
-149.604	217.663	-0.184	0.289
-148.589	-200.000	-0.039	0.255
-147.574	-82.668	-0.161	0.051
-146.560	109.012	0.209	-0.247
-145.545	7.385	0.192	0.142
-144.531	-143.037	0.114	-0.011
-143.516	800.000	-0.036	0.125
-142.502	800.000	0.026	-0.114
-141.487	702.178	0.084	-0.217
-140.472	-36.323	-0.199	-0.106
-139.458	-58.467	-0.164	0.070
-138.443	-44.948	-0.343	0.168
-137.429	800.000	0.059	-0.183
-136.414	68.030	0.191	0.192
-135.399	-200.000	0.031	0.163
-134.385	-13.549	0.219	-0.140
-133.370	-39.809	-0.212	-0.109
-132.356	-71.881	-0.131	0.048
-131.341	-57.514	0.149	0.064
-130.326	-58.698	0.214	0.091
-129.312	383.606	0.066	0.134
-128.297	4.041	-0.060	-0.043
-127.283	446.570	0.092	0.200
-126.268	-21.557	-0.168	-0.101
-125.253	1.657	-0.119	-0.085
-124.239	-177.493	-0.467	-0.011
-123.224	318.240	-0.090	0.168
-122.210	51.463	-0.175	-0.164
-121.195	-86.880	0.228	-0.068
-120.180	-67.582	0.345	-0.133
-119.166	-188.229	-0.115	0.001
-118.151	57.347	0.216	0.208
-117.137	-111.754	-0.353	-0.070
-116.122	-64.282	0.396	0.159
-115.107	-53.582	0.293	-0.132
-114.093	112.867	0.140	-0.167
-113.078	-200.000	0.010	-0.195
-112.064	-84.692	-0.322	0.100
-111.049	-200.000	0.018	-0.155
-110.034	-37.808	-0.092	0.048
-109.020	214.358	0.225	0.351
-108.005	-115.026	-0.110	0.021
-106.991	791.124	-0.107	0.289
-105.976	231.110	0.143	-0.231
-104.962	-69.733	0.236	0.089
-103.947	-27.075	-0.076	0.044
-102.932	800.000	0.043	0.157
-101.918	-144.597	-0.163	-0.015
-100.903	-200.000	-0.001	-0.063
-99.889	39.260	0.143	-0.126
-98.874	613.964	0.011	-0.026
-97.859	419.740	0.048	-0.100
-96.845	-200.000	-0.008	-0.142
-95.830	80.535	-0.065	-0.069
-94.816	24.588	-0.063	-0.052
-93.801	179.521	-0.133	0.192
-92.786	-131.812	0.222	-0.029
-91.772	106.465	-0.038	0.044
-90.757	-118.398	0.218	-0.038
-89.743	-129.110	-0.357	-0.049
-88.728	-57.970	-0.195	-0.084
-87.713	-54.747	-0.153	-0.068
-86.699	-4.861	0.061	0.041
-85.684	-45.718	0.118	0.057
-84.670	223.201	0.077	0.123
-83.655	800.000	0.068	0.245
-82.640	-200.000	-0.032	0.243
-81.626	-28.544	-0.337	0.191
-80.611	-200.000	-0.029	-0.289
-79.597	-200.000	-0.048	0.345
-78.582	13.547	-0.191	-0.146
-77.567	-31.479	0.142	0.079
-76.553	-200.000	0.050	-0.364
-75.538	-45.606	0.168	-0.082
-74.524	-200.000	-0.014	0.082
-73.509	800.000	0.037	-0.106
-72.494	800.000	-0.022	0.081
-71.480	-106.758	0.140	0.031
-70.465	-123.041	0.040	-0.006
-69.451	179.675	-0.070	-0.100
-68.436	390.401	-0.020	-0.040
-67.422	-92.146	0.150	-0.042
-66.407	338.439	-0.101	-0.194
-65.392	-163.252	0.094	-0.004
-64.378	375.128	-0.109	0.219
-63.363	3.216	0.240	-0.171
-62.349	-104.097	0.295	-0.067
-61.334	-11.716	-1.161	-0.750
-60.319	800.000	0.188	0.739
-59.305	-200.000	-0.245	-1.065
-58.290	-200.000	0.275	1.298
-57.276	196.968	0.832	1.246
-56.261	-200.000	106.878	584.312
-55.246	455.389	1465.234	3193.055
-54.232	148.661	2647.967	3516.374
-53.217	107.186	2158.715	2521.433
-52.203	41.550	1606.685	1429.507
-51.188	33.405	1345.141	1147.659
-50.173	30.216	1304.011	1093.753
-49.159	53.693	1356.459	1279.538
-48.144	54.459	1371.434	1298.214
-47.130	33.488	1327.387	1132.826
-46.115	30.007	1309.987	1097.350
-45.100	29.929	1304.984	1092.656
-44.086	29.844	1302.712	1090.208
-43.071	29.744	1300.535	1087.757
-42.057	29.727	1298.577	1085.978
-41.042	29.843	1296.479	1084.860
-40.027	29.924	1294.416	1083.566
-39.013	29.793	1293.042	1081.606
-37.998	29.816	1290.938	1079.936
-36.984	29.885	1289.673	1079.238
-35.969	29.924	1288.089	1078.098
-34.954	29.999	1286.063	1076.794
-33.940	29.980	1284.863	1075.637
-32.925	29.981	1283.351	1074.334
-31.911	30.022	1281.738	1073.181
-30.896	30.048	1280.412	1072.177
-29.881	29.994	1279.288	1070.877
-28.867	30.077	1277.894	1070.149
-27.852	30.076	1276.148	1068.640
-26.838	30.038	1274.940	1067.366
-25.823	30.130	1273.557	1066.698
-24.809	29.927	1272.458	1064.563
-23.794	29.966	1271.556	1063.994
-22.779	30.040	1269.922	1063.005
-21.765	30.036	1268.608	1061.840
-20.750	29.971	1267.224	1060.270
-19.736	29.861	1266.097	1058.654
-18.721	29.712	1264.887	1056.751
-17.706	29.938	1263.611	1056.933
-16.692	29.865	1262.629	1055.655
-15.677	29.892	1261.424	1054.756
-14.663	29.916	1260.242	1053.867
-13.648	29.862	1258.820	1052.329
-12.633	29.807	1258.187	1051.441
-11.619	29.873	1257.421	1051.138
-10.604	29.945	1256.487	1050.722
-9.590	29.901	1255.178	1049.336
-8.575	29.901	1254.269	1048.533
-7.560	29.772	1253.704	1047.288
-6.546	29.840	1252.955	1047.010
-5.531	29.777	1252.087	1045.887
-4.517	29.712	1251.531	1045.010
-3.502	29.928	1250.629	1045.436
-2.487	29.973	1248.808	1044.126
-1.473	29.806	1245.012	1039.973
-0.458	28.266	1230.381	1019.145
0.556	23.011	1213.791	982.110
1.571	19.208	1220.107	965.851
2.586	18.357	1234.152	972.055
3.600	18.271	1223.055	962.750
4.615	13.485	1150.584	880.237
5.629	4.655	1074.574	778.003
6.644	0.440	1054.628	742.771
7.659	0.103	1052.419	739.493
8.673	0.009	1051.215	738.118
9.688	-0.011	1049.986	737.093
10.702	0.156	1048.494	736.797
11.717	5.410	1055.101	767.205
12.731	13.887	1066.410	817.241
13.746	17.442	1069.581	837.115
14.761	17.021	1068.585	834.194
15.775	16.022	1066.405	827.514
16.790	14.979	1064.746	821.037
17.804	14.165	1063.266	815.834
18.819	14.021	1061.911	814.019
19.834	13.569	1061.194	811.181
20.848	13.356	1060.185	809.299
21.863	13.165	1059.342	807.650
22.877	13.019	1058.667	806.352
23.892	13.081	1057.636	805.798
24.907	12.992	1057.455	805.152
25.921	13.001	1056.513	804.409
26.936	13.142	1055.742	804.437
27.950	13.074	1054.683	803.227
28.965	13.148	1053.510	802.624
29.980	13.264	1052.068	802.014
30.994	13.323	1051.035	801.445
32.009	13.292	1049.990	800.427
33.023	13.255	1048.878	799.329
34.038	13.183	1048.296	798.468
35.053	13.092	1047.510	797.358
36.067	13.144	1046.435	796.719
37.082	13.246	1045.590	796.497
38.096	13.221	1044.839	795.733
39.111	13.201	1044.298	795.155
40.126	13.147	1043.107	793.921
41.140	12.961	1041.683	791.872
42.155	12.983	1040.954	791.352
43.169	13.000	1039.874	790.543
44.184	13.019	1038.521	789.537
45.199	12.962	1037.695	788.564
46.213	13.052	1036.575	788.076
47.228	13.109	1035.469	787.436
48.242	13.133	1034.389	786.658
49.257	13.081	1033.481	785.654
50.271	13.145	1032.384	785.053
51.286	13.245	1031.579	784.847
52.301	13.033	1030.877	783.237
53.315	13.097	1029.696	782.573
54.330	13.095	1028.465	781.560
55.344	12.997	1028.135	780.773
56.359	13.156	1026.974	780.578
57.374	13.118	1026.193	779.732
58.388	12.889	1025.440	778.013
59.403	12.926	1024.429	777.349
60.417	13.098	1023.571	777.441
61.432	13.023	1022.875	776.491
62.447	12.887	1021.993	775.111
63.461	12.918	1021.396	774.738
64.476	13.047	1020.059	774.261
65.490	12.951	1019.396	773.239
66.505	12.953	1018.768	772.700
67.520	12.963	1018.319	772.340
68.534	12.924	1017.524	771.487
69.549	12.957	1016.820	771.037
70.563	12.882	1016.371	770.278
71.578	13.016	1015.247	769.986
72.593	12.878	1014.564	768.755
73.607	12.876	1013.866	768.149
74.622	12.765	1013.400	767.213
75.636	12.956	1012.041	767.003
76.651	12.937	1012.020	766.828
77.666	12.816	1011.616	765.893
78.680	12.832	1010.624	765.150
79.695	12.949	1009.825	765.022
80.709	12.990	1009.129	764.615
81.724	13.071	1008.397	764.367
82.739	13.018	1007.755	763.567
83.753	13.044	1007.095	763.122
84.768	13.137	1005.800	762.502
85.782	13.222	1005.076	762.279
86.797	13.098	1004.485	761.190
87.812	13.095	1003.576	760.420
88.826	13.105	1002.282	759.418
89.841	13.086	1002.100	759.127
90.855	13.172	1000.873	758.524
91.870	13.118	1000.234	757.725
92.884	13.187	998.968	757.015
93.899	13.237	998.292	756.663
94.914	13.274	997.765	756.369
95.928	13.346	996.713	755.834
96.943	13.137	996.164	754.397
97.957	13.289	995.254	754.331
98.972	13.215	994.216	753.139
99.987	13.188	993.453	752.373
101.001	13.205	992.416	751.599
102.016	13.221	991.411	750.844
103.030	13.142	991.108	750.189
104.045	13.339	989.895	750.099
105.060	13.128	989.376	748.682
106.074	13.208	988.191	748.083
107.089	13.064	987.338	746.717
108.103	13.072	986.350	745.940
109.118	12.992	985.373	744.775
110.133	12.944	984.909	744.143
111.147	12.939	984.049	743.406
112.162	13.110	983.142	743.421
113.176	13.129	982.015	742.589
114.191	13.172	981.475	742.312
115.206	13.195	981.020	742.004
116.220	13.169	979.980	741.033
117.235	13.118	978.793	739.844
118.249	13.207	977.528	739.219
119.264	13.061	977.593	738.551
120.279	13.153	976.314	737.930
121.293	13.242	975.556	737.689
122.308	13.096	975.047	736.589
123.322	13.137	973.714	735.699
124.337	13.082	972.781	734.682
125.352	13.134	971.509	733.888
126.366	13.041	970.638	732.750
127.381	13.038	969.209	731.593
128.395	13.057	968.760	731.278
129.410	13.113	967.948	730.847
130.424	13.036	967.123	729.816
131.439	13.289	965.898	729.947
132.454	13.278	965.283	729.367
133.468	13.105	964.849	728.212
134.483	13.170	963.612	727.501
135.497	13.209	962.803	726.999
136.512	13.157	961.935	726.047
137.527	13.266	961.066	725.808
138.541	13.284	960.183	725.154
139.556	13.163	959.866	724.319
140.570	13.157	959.448	723.916
141.585	13.219	958.242	723.213
142.600	13.305	956.878	722.497
143.614	13.302	956.346	722.018
144.629	13.293	955.711	721.435
145.643	13.328	954.572	720.663
146.658	13.244	953.510	719.434
147.673	13.218	952.511	718.503
148.687	13.280	951.929	718.267
149.702	13.212	951.260	717.407
150.716	13.228	950.778	717.047
151.731	13.252	949.454	716.088
152.746	13.368	948.840	716.064
153.760	13.296	948.447	715.394
154.775	13.251	948.192	714.944
155.789	13.345	947.174	714.520
156.804	13.271	946.604	713.708
157.819	13.470	945.627	713.764
158.833	13.464	945.291	713.420
159.848	13.431	944.674	712.749
160.862	13.538	943.478	712.246
161.877	13.441	942.214	710.812
162.892	13.404	941.809	710.286
163.906	13.462	940.532	709.508
164.921	13.304	940.144	708.476
165.935	13.410	939.078	708.064
166.950	13.574	937.817	707.751
167.964	13.295	937.693	706.400
168.979	13.429	936.389	705.930
169.994	13.339	935.617	704.902
171.008	13.422	934.746	704.534
172.023	13.467	934.545	704.512
173.037	13.512	933.374	703.760
174.052	13.598	932.753	703.595
175.067	13.503	932.273	702.764
176.081	13.306	931.733	701.461
177.096	13.469	930.990	701.530
178.110	13.535	930.467	701.353
179.125	13.494	929.851	700.652
180.140	13.587	928.912	700.277
181.154	13.459	929.155	699.857
182.169	13.572	928.276	699.609
183.183	13.634	927.698	699.373
184.198	13.684	926.570	698.672
185.213	13.512	926.443	697.789
186.227	13.788	925.112	697.889
187.242	13.813	924.494	697.465
188.256	13.709	924.277	696.803
189.271	13.736	923.247	696.079
190.286	13.616	922.325	694.818
191.300	13.601	921.862	694.345
192.315	13.540	921.545	693.791
193.329	13.523	920.770	693.074
194.344	13.561	920.322	692.833
195.359	13.633	919.377	692.363
196.373	13.697	919.029	692.306
197.388	13.625	918.433	691.495
198.402	13.710	918.174	691.595
199.417	13.872	917.254	691.514
200.432	13.875	916.934	691.226
201.446	14.058	916.145	691.331
202.461	13.997	915.916	690.843
203.475	13.949	915.269	690.092
204.490	13.992	914.237	689.430
205.504	13.944	913.667	688.744
206.519	13.867	913.144	687.967
207.534	14.003	911.937	687.560
208.548	13.971	911.249	686.850
209.563	13.929	910.885	686.340
210.577	13.946	910.151	685.798
211.592	14.090	909.419	685.778
212.607	14.115	908.767	685.331
213.621	13.927	908.265	684.117
214.636	14.084	907.230	683.922
215.650	14.067	906.664	683.362
216.665	14.159	906.222	683.348
217.680	14.256	905.003	682.765
218.694	14.206	904.513	682.133
219.709	14.252	903.671	681.625
220.723	14.288	903.064	681.255
221.738	14.052	902.876	680.085
222.753	14.109	901.854	679.488
223.767	14.293	901.404	679.842
224.782	14.354	900.523	679.364
225.796	14.327	900.324	679.044
226.811	14.249	899.650	678.158
227.826	14.379	898.485	677.751
228.840	14.349	898.226	677.371
229.855	14.127	897.697	676.010
230.869	14.332	896.972	676.238
231.884	14.155	896.108	674.810
232.899	14.148	895.283	674.098
233.913	14.164	894.894	673.813
234.928	14.237	894.096	673.449
235.942	14.287	893.384	673.052
236.957	14.167	892.886	672.132
237.972	14.338	892.058	672.139
238.986	14.435	891.313	671.910
240.001	14.385	890.619	671.127
241.015	14.318	890.021	670.349
242.030	14.300	889.877	670.106
243.045	14.422	889.209	670.034
244.059	14.285	888.797	669.116
245.074	14.371	887.978	668.786
246.088	14.519	887.059	668.628
247.103	14.443	886.460	667.811
248.117	14.485	886.220	667.738
249.132	14.582	885.554	667.568
250.147	14.710	884.961	667.571
251.161	14.642	884.318	666.759
252.176	14.732	883.447	666.399
253.190	14.766	882.659	665.884
254.205	14.838	881.991	665.608
255.220	14.694	881.788	664.820
256.234	14.713	881.324	664.486
257.249	14.849	880.241	664.154
258.263	14.738	879.402	663.019
259.278	14.853	878.803	662.967
260.293	14.935	878.122	662.720
261.307	14.969	878.012	662.713
262.322	14.974	877.176	662.040
263.336	15.007	876.403	661.532
264.351	14.946	875.633	660.649
265.366	14.997	874.960	660.284
266.380	14.919	874.690	659.716
267.395	14.967	873.820	659.188
268.409	14.990	872.754	658.418
269.424	15.062	872.402	658.376
270.439	15.072	871.727	657.848
271.453	15.155	870.686	657.332
272.468	15.087	870.255	656.682
273.482	14.944	870.115	655.956
274.497	14.952	869.290	655.307
275.512	15.032	868.750	655.157
276.526	15.036	868.262	654.744
277.541	14.997	867.677	654.095
278.555	15.249	867.112	654.595
279.570	15.211	866.515	653.937
280.585	15.231	865.892	653.486
281.599	15.157	865.001	652.471
282.614	15.193	864.450	652.134
283.628	15.234	863.610	651.604
284.643	15.241	863.357	651.384
285.657	15.158	862.587	650.419
286.672	15.388	861.479	650.422
287.687	15.261	861.116	649.596
288.701	15.281	860.781	649.366
289.716	15.317	860.188	648.998
290.730	15.382	859.208	648.451
291.745	15.336	859.353	648.325
292.760	15.322	858.702	647.724
293.774	15.318	858.075	647.177
294.789	15.469	857.186	647.034
295.803	15.408	856.285	646.060
296.818	15.482	855.679	645.833
297.833	15.384	855.189	645.027
298.847	15.411	854.265	644.377
299.862	15.429	854.055	644.231
300.876	15.511	853.952	644.409
301.891	15.588	852.792	643.774
302.906	15.507	851.947	642.770
303.920	15.720	851.964	643.539
304.935	15.662	851.384	642.822
305.949	15.612	850.786	642.124
306.964	15.636	850.063	641.612
307.979	15.567	849.683	641.006
308.993	15.809	848.853	641.245
310.008	15.626	848.439	640.179
311.022	15.755	847.616	639.992
312.037	15.651	847.144	639.183
313.052	15.509	847.110	638.560
314.066	15.586	846.208	638.118
315.081	15.489	845.880	637.446
316.095	15.657	844.870	637.265
317.110	15.621	844.708	636.948
318.125	15.593	844.273	636.461
319.139	15.762	843.466	636.435
320.154	15.544	843.380	635.487
321.168	15.662	842.617	635.302
322.183	15.793	841.697	635.047
323.197	15.769	841.717	634.915
324.212	15.770	840.496	633.941
325.227	15.744	840.339	633.671
326.241	15.843	839.668	633.481
327.256	15.799	839.117	632.842
328.270	15.688	838.677	632.038
329.285	15.891	837.711	632.015
330.300	15.812	837.598	631.579
331.314	15.943	836.826	631.430
332.329	15.915	836.497	631.024
333.343	15.908	836.036	630.592
334.358	15.844	835.829	630.142
335.373	15.800	835.531	629.697
336.387	15.835	835.404	629.676
337.402	15.982	834.949	629.828
338.416	16.030	834.361	629.507
339.431	16.088	834.265	629.595
340.446	15.997	833.554	628.662
341.460	16.053	833.449	628.737
342.475	16.091	832.682	628.244
343.489	16.158	832.257	628.120
344.504	16.298	831.498	628.011
345.519	16.138	831.706	627.518
346.533	16.203	830.893	627.090
347.548	16.167	830.047	626.261
348.562	16.080	829.815	625.707
349.577	16.087	829.293	625.285
350.592	15.959	828.442	624.116
351.606	16.184	827.855	624.449
352.621	16.129	827.153	623.661
353.635	16.237	826.658	623.633
354.650	16.120	826.269	622.850
355.665	16.280	825.328	622.679
356.679	16.324	824.743	622.344
357.694	16.345	823.913	621.740
358.708	16.370	823.203	621.239
359.723	16.326	822.486	620.482
360.738	16.435	822.059	620.504
361.752	16.381	821.912	620.142
362.767	16.300	821.320	619.343
363.781	16.470	820.510	619.301
364.796	16.390	820.134	618.668
365.810	16.509	819.744	618.755
366.825	16.556	819.353	618.576
367.840	16.592	819.163	618.509
368.854	16.545	818.575	617.841
369.869	16.531	818.351	617.564
370.883	16.408	817.834	616.670
371.898	16.541	817.388	616.765
372.913	16.568	817.018	616.530
373.927	16.592	816.313	616.033
374.942	16.688	815.888	616.007
375.956	16.755	815.207	615.682
376.971	16.610	815.288	615.161
377.986	16.823	814.669	615.411
379.000	16.912	813.852	615.064
380.015	16.711	813.759	614.208
381.029	16.851	813.407	614.395
382.044	16.753	812.712	613.461
383.059	16.824	812.010	613.136
384.073	16.848	811.619	612.873
385.088	16.833	810.905	612.226
386.102	16.752	810.333	611.445
387.117	16.699	810.145	611.058
388.132	16.746	809.145	610.420
389.146	16.835	808.343	610.081
390.161	16.938	808.482	610.502
391.175	16.866	807.811	609.683
392.190	16.868	807.380	609.313
393.205	16.682	807.093	608.373
394.219	16.850	806.728	608.649
395.234	16.857	806.248	608.256
396.248	16.917	805.439	607.808
397.263	16.718	805.602	607.164
398.278	16.840	804.897	607.014
399.292	16.667	804.563	606.090
400.307	16.888	803.907	606.334
401.321	16.794	803.692	605.780
402.336	16.880	802.945	605.473
403.350	16.910	802.261	605.008
404.365	16.982	802.102	605.094
405.380	17.011	801.487	604.678
406.394	17.063	801.166	604.567
407.409	17.221	800.631	604.674
408.423	17.135	800.775	604.424
409.438	17.140	800.264	604.002
410.453	17.121	799.699	603.455
411.467	17.162	799.111	603.100
412.482	17.124	798.934	602.781
413.496	17.225	798.677	602.892
414.511	17.391	797.667	602.664
415.526	17.320	797.393	602.153
416.540	17.218	796.900	601.364
417.555	17.371	796.331	601.424
418.569	17.408	795.959	601.219
419.584	17.493	795.442	601.076
420.599	17.525	795.109	600.885
421.613	109.014	1291.364	1468.465
422.628	93.679	1363.629	1468.584
