DTS Sentinel unit serial number:	SN413079Multiplexer serial number:	ORYXHardware model number:	OX4-SRSoftware version number:	ORYX F/W v4.00 Oryx Data Collector v3.7.2.0data status	okinstallation	princeton_trtdifferential loss correction	single-endedforward channel	channel 1reverse channel	N/Adate	2019/09/11time	10:04:11forward acquisition time	60.00reverse acquisition time	0.00gamma	496.2192k internal	0.2301k external	0.2301temperature offset calibration	0.9954default loss term (dB/km)	0.3790temperature slope calibration	1.0000multiplexer offset coefficient	1.0000multiplexer slope coefficient	1.0000fibre end	0.00T internal ref (°C)	35.50T ext. ref 1 (°C)	0.14T ext. ref 2 (°C)	32.97length (m)	temperature (°C)	Stokes	anti-Stokes-747.200	-200.000	-0.007	0.114
-746.185	-94.694	-0.164	-0.046
-745.171	-69.562	0.129	0.050
-744.156	-37.204	-0.064	-0.035
-743.142	-97.084	0.327	-0.087
-742.127	59.795	-0.157	0.158
-741.112	337.129	0.040	-0.079
-740.098	-62.383	-0.417	-0.177
-739.083	-92.877	0.303	0.086
-738.069	-13.762	-0.059	-0.039
-737.054	263.913	-0.090	0.160
-736.039	-200.000	-0.045	0.475
-735.025	180.090	0.107	-0.161
-734.010	-92.385	-0.408	-0.117
-732.996	614.771	0.058	-0.148
-731.981	-143.147	-0.255	-0.025
-730.966	800.000	-0.061	-0.192
-729.952	-88.871	-0.411	-0.124
-728.937	-135.488	-0.250	-0.030
-727.923	514.866	-0.092	0.219
-726.908	54.351	0.135	-0.133
-725.894	-68.627	-0.303	-0.120
-724.879	-0.382	0.511	0.370
-723.864	800.000	-0.064	0.198
-722.850	-200.000	0.039	-0.183
-721.835	-200.000	-0.032	-0.186
-720.821	21.530	-0.135	-0.112
-719.806	-77.555	-0.339	0.120
-718.791	-22.735	-0.295	-0.182
-717.777	-77.378	-0.210	0.074
-716.762	800.000	-0.080	0.243
-715.748	-51.636	0.063	0.030
-714.733	800.000	-0.081	0.319
-713.718	-200.000	0.035	-0.312
-712.704	180.079	0.171	-0.255
-711.689	130.823	0.312	0.408
-710.675	-73.980	-0.354	-0.131
-709.660	55.227	-0.074	-0.073
-708.645	-16.134	-0.202	-0.131
-707.631	-103.876	0.460	-0.109
-706.616	53.431	-0.295	-0.288
-705.602	34.383	-0.242	-0.215
-704.587	90.767	-0.199	-0.227
-703.572	35.857	-0.194	-0.174
-702.558	10.664	0.069	0.054
-701.543	-61.822	-0.079	-0.034
-700.529	676.983	0.061	-0.162
-699.514	-100.405	0.077	-0.019
-698.499	109.254	-0.159	0.194
-697.485	-122.281	-0.437	-0.073
-696.470	800.000	-0.040	0.119
-695.456	36.394	0.023	-0.020
-694.441	54.967	0.173	-0.170
-693.426	-200.000	-0.022	0.125
-692.412	65.701	0.067	-0.069
-691.397	-69.208	-0.078	-0.031
-690.383	-17.932	0.109	0.069
-689.368	328.171	0.099	-0.194
-688.354	-200.000	0.004	-0.410
-687.339	-57.988	-0.100	-0.044
-686.324	137.049	0.078	0.104
-685.310	133.175	-0.069	-0.091
-684.295	-162.492	-0.469	-0.024
-683.281	169.458	-0.036	0.052
-682.266	-171.460	-0.179	-0.006
-681.251	800.000	-0.080	-0.326
-680.237	0.645	-0.151	0.110
-679.222	116.726	0.191	-0.239
-678.208	95.667	0.195	-0.226
-677.193	6.389	-0.136	-0.103
-676.178	-91.219	0.134	-0.039
-675.164	-32.929	-0.217	0.123
-674.149	36.480	-0.323	0.290
-673.135	-200.000	0.057	0.303
-672.120	800.000	0.107	0.391
-671.105	-6.140	0.042	0.029
-670.091	28.094	0.137	-0.118
-669.076	503.766	0.109	-0.257
-668.062	212.191	-0.171	-0.274
-667.047	-4.188	0.098	0.069
-666.032	-39.546	0.350	-0.186
-665.018	-79.102	-0.008	-0.003
-664.003	-56.896	0.261	0.117
-662.989	-30.697	-0.120	-0.069
-661.974	43.056	-0.242	0.224
-660.959	-200.000	0.017	0.087
-659.945	63.504	-0.298	-0.304
-658.930	800.000	0.115	-0.399
-657.916	-28.633	-0.093	-0.054
-656.901	-200.000	-0.004	0.036
-655.886	-163.912	-0.659	0.031
-654.872	-200.000	-0.007	0.212
-653.857	7.228	0.142	0.108
-652.843	-101.449	0.265	0.066
-651.828	-122.771	-0.217	0.036
-650.814	56.364	0.097	0.096
-649.799	-128.088	0.300	-0.044
-648.784	-148.605	-0.147	-0.012
-647.770	137.622	-0.078	0.103
-646.755	800.000	0.011	0.034
-645.741	-106.292	-0.132	-0.030
-644.726	-200.000	-0.010	0.068
-643.711	-32.586	0.261	-0.148
-642.697	-91.526	-0.069	0.020
-641.682	-200.000	0.013	-0.222
-640.668	-200.000	-0.021	0.107
-639.653	-200.000	-0.009	-0.123
-638.638	44.332	-0.322	0.300
-637.624	-91.835	-0.211	0.061
-636.609	-200.000	-0.009	-0.087
-635.595	-200.000	0.022	-0.207
-634.580	-169.501	-0.265	0.010
-633.565	-49.409	-0.326	-0.158
-632.551	238.209	0.020	-0.034
-631.536	1.142	0.343	-0.250
-630.522	-63.299	-0.030	0.013
-629.507	-112.444	-0.080	-0.016
-628.492	244.210	0.131	-0.224
-627.478	343.196	-0.160	0.319
-626.463	455.838	-0.160	-0.360
-625.449	90.957	0.107	-0.122
-624.434	130.862	0.134	-0.174
-623.419	121.880	-0.126	-0.159
-622.405	-68.755	-0.163	-0.064
-621.390	-113.710	-0.135	0.027
-620.376	-200.000	0.019	-0.253
-619.361	-120.556	0.159	0.027
-618.346	102.587	0.119	-0.142
-617.332	800.000	-0.046	-0.153
-616.317	-132.622	0.158	-0.021
-615.303	-181.310	-0.150	0.003
-614.288	-200.000	-0.046	0.256
-613.273	128.996	0.123	0.160
-612.259	-12.526	0.182	-0.120
-611.244	290.105	-0.316	-0.582
-610.230	72.638	-0.248	-0.263
-609.215	-110.944	0.038	-0.008
-608.201	-113.342	-0.442	0.088
-607.186	-200.000	-0.051	-0.299
-606.171	368.977	-0.078	0.161
-605.157	-200.000	-0.018	-0.102
-604.142	-86.383	-0.135	0.042
-603.128	668.182	0.011	0.028
-602.113	-55.456	0.092	0.042
-601.098	742.182	0.084	-0.228
-600.084	37.391	-0.002	0.002
-599.069	800.000	0.037	0.118
-598.055	104.732	0.119	0.142
-597.040	-200.000	-0.018	-0.352
-596.025	-46.277	-0.095	-0.047
-595.011	-156.262	0.233	-0.015
-593.996	800.000	-0.019	-0.081
-592.982	41.266	0.094	0.086
-591.967	-161.782	0.492	-0.025
-590.952	-122.599	0.127	0.021
-589.938	277.447	-0.192	-0.346
-588.923	-87.335	0.080	0.025
-587.909	-94.041	-0.244	-0.068
-586.894	219.790	-0.160	0.260
-585.879	252.124	-0.152	-0.262
-584.865	-200.000	-0.042	-0.195
-583.850	-141.024	-0.042	0.004
-582.836	-93.332	-0.475	0.134
-581.821	-75.967	0.203	-0.073
-580.806	-200.000	-0.009	-0.184
-579.792	272.342	0.093	-0.166
-578.777	-113.968	0.258	-0.051
-577.763	-51.011	0.230	0.109
-576.748	-74.124	-0.102	-0.038
-575.733	191.292	0.150	0.229
-574.719	1.617	0.068	-0.049
-573.704	-121.906	-0.173	-0.029
-572.690	-125.356	-0.346	-0.053
-571.675	-99.355	0.393	-0.100
-570.661	-77.792	-0.173	-0.061
-569.646	-200.000	-0.020	-0.192
-568.631	-120.117	-0.571	0.099
-567.617	-15.776	-0.152	-0.098
-566.602	-3.770	-0.061	-0.043
-565.588	-66.552	-0.141	0.057
-564.573	86.186	0.205	-0.229
-563.558	-200.000	-0.020	-0.208
-562.544	-118.101	0.214	0.039
-561.529	-168.360	-0.258	-0.010
-560.515	-89.993	0.221	-0.065
-559.500	65.872	0.154	-0.158
-558.485	26.876	0.131	0.111
-557.471	-127.629	0.408	-0.060
-556.456	-73.707	0.278	-0.103
-555.442	-200.000	-0.012	0.147
-554.427	-20.603	-0.199	-0.124
-553.412	-200.000	-0.060	-0.315
-552.398	800.000	-0.107	0.393
-551.383	-24.164	0.375	-0.227
-550.369	800.000	0.060	0.228
-549.354	28.967	-0.272	0.233
-548.339	83.857	0.233	0.257
-547.325	-144.514	-0.174	-0.016
-546.310	-28.230	0.392	0.229
-545.296	20.101	-0.135	-0.111
-544.281	-145.820	0.099	-0.009
-543.266	-81.366	0.123	0.041
-542.252	-29.281	-0.185	-0.107
-541.237	-42.521	-0.303	-0.156
-540.223	28.661	0.288	-0.247
-539.208	38.614	0.201	0.181
-538.193	-66.446	0.309	0.124
-537.179	-68.881	0.174	-0.068
-536.164	253.551	0.153	0.264
-535.150	-139.672	-0.131	-0.014
-534.135	-129.913	-0.365	0.051
-533.121	800.000	0.027	0.107
-532.106	-72.011	-0.144	-0.054
-531.091	195.119	-0.107	-0.164
-530.077	-199.039	-0.115	0.001
-529.062	-173.445	-0.200	0.006
-528.048	-155.219	0.028	0.002
-527.033	-168.185	-0.243	0.010
-526.018	-200.000	0.008	-0.392
-525.004	-141.780	0.383	-0.039
-523.989	-80.232	-0.153	-0.052
-522.975	-16.018	-0.347	0.223
-521.960	103.624	0.089	0.106
-520.945	77.953	-0.097	0.105
-519.931	-63.805	-0.202	0.084
-518.916	-187.731	0.349	0.005
-517.902	-200.000	0.050	0.240
-516.887	68.822	-0.191	-0.198
-515.872	151.537	-0.085	0.116
-514.858	205.057	-0.148	0.233
-513.843	-42.226	-0.480	0.248
-512.829	-50.378	0.163	0.078
-511.814	324.916	-0.051	0.099
-510.799	-200.000	0.031	0.187
-509.785	-200.000	0.002	0.057
-508.770	-200.000	-0.008	-0.230
-507.756	-159.835	-0.188	0.010
-506.741	-46.660	-0.262	-0.129
-505.726	-19.299	0.450	0.282
-504.712	-38.782	0.161	-0.086
-503.697	-106.065	0.115	-0.026
-502.683	769.923	0.085	0.234
-501.668	107.419	-0.019	0.022
-500.653	566.631	-0.035	0.085
-499.639	-39.179	-0.219	0.116
-498.624	380.382	0.158	0.327
-497.610	12.544	-0.135	-0.105
-496.595	-73.137	-0.239	-0.088
-495.581	800.000	-0.033	-0.137
-494.566	-77.478	-0.378	-0.133
-493.551	200.751	0.107	-0.166
-492.537	-200.000	-0.038	0.187
-491.522	-6.316	0.122	0.084
-490.508	800.000	0.065	0.255
-489.493	-117.054	0.145	0.027
-488.478	-71.365	-0.091	-0.035
-487.464	-151.973	-0.192	0.014
-486.449	349.097	0.169	0.337
-485.435	-85.175	-0.202	0.064
-484.420	-42.645	0.081	-0.042
-483.405	-20.149	-0.173	-0.108
-482.391	235.377	-0.069	-0.115
-481.376	341.716	-0.041	-0.080
-480.362	58.310	0.188	0.186
-479.347	-200.000	0.053	0.430
-478.332	-127.550	0.018	0.003
-477.318	-45.393	-0.081	0.041
-476.303	264.836	0.045	0.079
-475.289	-132.084	0.278	0.036
-474.274	535.998	0.030	0.072
-473.259	-185.947	0.266	-0.004
-472.245	-39.068	-0.163	-0.086
-471.230	-57.231	0.215	0.096
-470.216	-59.658	0.487	0.211
-469.201	-67.640	-0.103	0.041
-468.186	247.074	-0.088	-0.150
-467.172	800.000	-0.007	-0.023
-466.157	15.576	0.094	-0.075
-465.143	-82.798	-0.133	-0.043
-464.128	-55.183	0.238	0.108
-463.113	-180.216	-0.131	-0.003
-462.099	74.291	0.152	0.161
-461.084	-77.424	0.172	-0.060
-460.070	513.235	-0.029	0.069
-459.055	217.209	-0.206	-0.330
-458.040	-200.000	0.016	-0.126
-457.026	-55.429	0.335	-0.151
-456.011	-200.000	0.007	-0.193
-454.997	-3.933	0.124	0.087
-453.982	110.315	-0.254	-0.308
-452.968	34.493	-0.065	0.058
-451.953	-148.763	0.301	-0.025
-450.938	-141.649	-0.066	0.007
-449.924	239.125	-0.086	-0.144
-448.909	-37.129	0.441	0.238
-447.895	-107.965	0.219	0.048
-446.880	-15.351	-0.158	0.102
-445.865	701.581	0.034	-0.091
-444.851	97.032	-0.204	-0.236
-443.836	20.335	-0.255	-0.208
-442.822	355.834	0.010	0.020
-441.807	-53.784	-0.076	-0.035
-440.792	-105.095	-0.226	-0.052
-439.778	-141.247	0.367	0.038
-438.763	-57.457	0.159	0.070
-437.749	-87.740	-0.183	-0.056
-436.734	-80.308	0.106	-0.036
-435.719	-95.580	-0.186	0.050
-434.705	-70.110	-0.415	0.159
-433.690	154.340	0.131	0.182
-432.676	-97.536	-0.240	-0.063
-431.661	-107.865	0.293	0.064
-430.646	-39.390	-0.135	0.071
-429.632	458.672	0.135	-0.302
-428.617	-66.030	-0.203	-0.081
-427.603	0.947	0.188	0.136
-426.588	-94.872	-0.286	0.078
-425.573	-86.754	-0.087	0.027
-424.559	253.510	-0.188	-0.323
-423.544	586.348	-0.057	0.142
-422.530	-93.642	0.105	0.029
-421.515	119.645	-0.086	0.108
-420.500	-184.157	-0.149	-0.002
-419.486	20.974	0.108	0.088
-418.471	-59.530	-0.178	0.077
-417.457	24.065	-0.297	0.247
-416.442	-200.000	-0.095	0.474
-415.428	119.581	-0.171	0.214
-414.413	391.362	-0.008	-0.016
-413.398	-91.315	-0.083	0.024
-412.384	67.809	0.105	0.108
-411.369	35.659	0.134	0.118
-410.355	-43.658	-0.125	-0.063
-409.340	-167.849	-0.123	-0.005
-408.325	800.000	-0.052	0.195
-407.311	-200.000	-0.019	0.220
-406.296	800.000	-0.110	-0.325
-405.282	-200.000	-0.066	-0.354
-404.267	13.034	-0.190	-0.148
-403.252	-62.840	-0.100	0.041
-402.238	-200.000	-0.005	0.084
-401.223	-95.263	0.182	0.049
-400.209	-200.000	-0.000	-0.080
-399.194	765.751	-0.031	0.084
-398.179	-130.768	0.177	-0.024
-397.165	-175.691	0.355	-0.010
-396.150	379.634	-0.136	-0.280
-395.136	800.000	-0.163	0.537
-394.121	-3.642	-0.211	0.147
-393.106	9.603	-0.080	-0.061
-392.092	800.000	0.090	0.264
-391.077	800.000	0.011	-0.033
-390.063	441.916	-0.157	0.346
-389.048	-51.504	-0.195	0.092
-388.033	-153.921	-0.332	0.023
-387.019	-200.000	-0.093	-0.416
-386.004	-150.546	0.266	-0.020
-384.990	62.761	0.061	-0.061
-383.975	-200.000	-0.056	-0.254
-382.960	-198.006	0.044	-0.000
-381.946	-200.000	-0.020	0.112
-380.931	-200.000	-0.053	-0.260
-379.917	-88.391	0.299	-0.090
-378.902	-123.262	-0.409	0.066
-377.888	546.075	-0.023	0.055
-376.873	-24.868	-0.152	0.091
-375.858	524.089	0.034	0.080
-374.844	-21.411	0.232	-0.142
-373.829	175.236	0.285	-0.415
-372.815	-197.892	0.290	-0.002
-371.800	52.591	0.144	-0.139
-370.785	-200.000	0.005	0.109
-369.771	-0.771	-0.190	-0.135
-368.756	800.000	-0.014	-0.046
-367.742	-163.856	0.358	0.017
-366.727	19.471	-0.067	0.054
-365.712	90.457	0.111	0.125
-364.698	184.684	0.062	0.092
-363.683	55.402	-0.275	0.267
-362.669	26.909	0.155	0.130
-361.654	-78.179	-0.118	0.041
-360.639	19.162	-0.021	0.017
-359.625	-200.000	0.034	-0.305
-358.610	-98.964	-0.112	-0.028
-357.596	800.000	0.125	0.371
-356.581	-45.111	0.237	-0.118
-355.566	-183.018	0.073	-0.001
-354.552	-120.521	0.153	-0.026
-353.537	108.086	-0.115	0.138
-352.523	-45.560	-0.368	0.183
-351.508	-200.000	-0.015	0.117
-350.493	-72.019	0.342	0.128
-349.479	-136.689	-0.235	0.027
-348.464	200.437	0.104	-0.161
-347.450	-59.376	0.141	0.061
-346.435	-92.405	0.194	-0.055
-345.420	-200.000	-0.075	0.362
-344.406	4.012	0.180	-0.132
-343.391	366.930	-0.134	0.271
-342.377	800.000	0.037	-0.161
-341.362	-14.004	-0.153	0.099
-340.348	-122.570	-0.074	0.012
-339.333	-200.000	0.052	-0.231
-338.318	800.000	-0.052	-0.175
-337.304	139.049	0.174	-0.229
-336.289	-34.066	0.046	-0.025
-335.275	230.089	-0.082	-0.135
-334.260	60.018	-0.168	-0.167
-333.245	468.528	0.124	0.278
-332.231	-67.911	-0.133	0.052
-331.216	11.642	0.198	-0.152
-330.202	301.621	-0.175	0.324
-329.187	128.012	0.210	0.268
-328.172	60.610	-0.126	0.125
-327.158	-45.105	-0.165	-0.082
-326.143	782.733	0.095	0.262
-325.129	78.906	0.008	-0.008
-324.114	-5.242	0.051	0.035
-323.099	-36.497	0.264	0.142
-322.085	-200.000	0.005	0.111
-321.070	-2.507	0.122	-0.086
-320.056	39.389	-0.036	-0.032
-319.041	-67.943	-0.332	0.130
-318.026	73.324	-0.199	0.209
-317.012	-52.341	0.171	0.080
-315.997	-200.000	-0.013	-0.082
-314.983	338.109	0.046	-0.089
-313.968	-200.000	0.008	-0.371
-312.953	-101.296	-0.573	0.140
-311.939	14.703	-0.128	-0.100
-310.924	6.582	0.256	-0.191
-309.910	800.000	0.139	0.468
-308.895	800.000	-0.077	0.243
-307.880	76.646	0.131	0.139
-306.866	-101.149	0.071	-0.017
-305.851	-123.134	-0.195	-0.031
-304.837	-200.000	0.009	-0.185
-303.822	1.621	-0.103	0.074
-302.807	65.396	-0.119	0.121
-301.793	-200.000	-0.007	0.368
-300.778	-61.018	-0.314	0.133
-299.764	12.186	0.042	0.033
-298.749	-26.330	0.400	-0.235
-297.735	-139.126	0.166	-0.018
-296.720	791.440	0.092	0.252
-295.705	-66.136	0.046	0.018
-294.691	8.155	-0.080	-0.061
-293.676	-159.495	0.147	0.008
-292.662	-188.006	-0.394	0.005
-291.647	261.842	0.164	0.284
-290.632	-200.000	0.010	0.197
-289.618	-114.754	0.204	0.039
-288.603	-200.000	-0.050	-0.404
-287.589	-200.000	-0.001	0.178
-286.574	24.967	-0.216	0.180
-285.559	95.275	-0.150	0.171
-284.545	137.628	-0.049	-0.064
-283.530	68.647	-0.210	0.216
-282.516	-129.953	0.290	-0.040
-281.501	-77.672	0.379	0.131
-280.486	-63.914	0.091	-0.037
-279.472	-158.015	0.247	0.015
-278.457	-200.000	0.048	-0.401
-277.443	285.007	-0.273	0.492
-276.428	661.370	-0.090	0.232
-275.413	-135.054	-0.334	-0.040
-274.399	800.000	0.072	-0.225
-273.384	22.800	0.146	-0.120
-272.370	-187.964	0.060	0.001
-271.355	-24.178	0.258	0.154
-270.340	800.000	0.014	0.038
-269.326	-79.342	0.150	-0.051
-268.311	-44.161	0.088	0.044
-267.297	800.000	0.042	-0.133
-266.282	11.494	0.227	0.174
-265.267	398.754	0.082	0.171
-264.253	-106.151	0.127	0.029
-263.238	-84.282	-0.670	-0.212
-262.224	-12.869	0.256	-0.167
-261.209	-128.458	-0.054	-0.008
-260.195	86.369	0.065	-0.072
-259.180	-200.000	-0.064	-0.416
-258.165	-25.921	-0.342	-0.201
-257.151	79.595	-0.120	-0.128
-256.136	273.341	0.028	-0.050
-255.122	18.244	0.127	-0.102
-254.107	-32.760	-0.181	-0.101
-253.092	404.730	-0.040	-0.084
-252.078	-36.491	-0.146	0.079
-251.063	800.000	-0.075	0.309
-250.049	259.160	0.209	0.361
-249.034	800.000	-0.063	-0.224
-248.019	154.546	-0.061	0.084
-247.005	77.947	-0.147	-0.156
-245.990	551.103	0.061	0.147
-244.976	467.017	0.079	-0.178
-243.961	-103.210	0.235	0.056
-242.946	-29.260	0.126	0.072
-241.932	196.878	0.076	0.116
-240.917	247.015	0.139	0.235
-239.903	-200.000	-0.000	0.008
-238.888	-200.000	0.042	0.254
-237.873	800.000	-0.096	0.304
-236.859	40.157	0.054	-0.048
-235.844	659.800	0.092	-0.238
-234.830	738.790	0.067	0.179
-233.815	411.751	0.084	-0.178
-232.800	-200.000	-0.003	-0.161
-231.786	-158.197	0.344	0.020
-230.771	75.351	-0.092	0.097
-229.757	800.000	-0.054	-0.206
-228.742	800.000	0.069	-0.254
-227.727	520.778	0.009	-0.020
-226.713	76.318	0.374	0.396
-225.698	-200.000	-0.010	0.150
-224.684	61.215	-0.143	0.142
-223.669	279.854	0.144	0.256
-222.655	32.364	0.208	0.179
-221.640	560.939	0.048	0.115
-220.625	800.000	0.095	-0.317
-219.611	800.000	0.028	-0.093
-218.596	606.924	0.055	0.136
-217.582	-163.204	0.168	0.008
-216.567	800.000	0.073	-0.285
-215.552	279.552	-0.089	-0.159
-214.538	-90.806	-0.183	0.053
-213.523	-52.674	-0.272	-0.126
-212.509	763.999	0.108	-0.293
-211.494	-141.164	0.027	-0.003
-210.479	-24.284	0.233	-0.139
-209.465	-86.523	0.275	-0.084
-208.450	-200.000	0.006	0.146
-207.436	-51.906	-0.262	-0.122
-206.421	-200.000	0.005	0.212
-205.406	-200.000	-0.052	-0.254
-204.392	800.000	0.112	0.333
-203.377	-108.809	0.358	0.076
-202.363	-6.229	-0.161	-0.110
-201.348	-200.000	-0.022	0.104
-200.333	800.000	0.057	-0.172
-199.319	135.286	-0.085	0.111
-198.304	-63.015	0.234	-0.096
-197.290	542.480	-0.102	0.244
-196.275	-200.000	0.008	0.380
-195.260	800.000	-0.025	0.103
-194.246	-195.549	0.341	-0.002
-193.231	-162.988	-0.082	-0.004
-192.217	79.822	-0.171	0.183
-191.202	-200.000	0.040	0.190
-190.187	257.257	0.110	-0.188
-189.173	-64.801	-0.184	0.074
-188.158	184.132	0.144	-0.213
-187.144	-200.000	-0.010	-0.130
-186.129	-200.000	0.004	0.128
-185.114	26.702	0.571	0.477
-184.100	-148.859	-0.203	0.016
-183.085	800.000	0.061	-0.221
-182.071	-143.977	0.267	-0.025
-181.056	-200.000	-0.022	0.190
-180.042	-71.323	0.158	0.059
-179.027	800.000	0.099	-0.282
-178.012	45.412	0.137	-0.126
-176.998	-64.892	-0.073	0.030
-175.983	652.912	-0.187	-0.479
-174.969	188.033	0.067	-0.100
-173.954	142.020	0.073	0.096
-172.939	513.437	0.073	0.171
-171.925	-126.923	-0.442	0.065
-170.910	390.343	0.113	0.233
-169.896	800.000	0.088	-0.278
-168.881	560.482	-0.065	-0.156
-167.866	106.349	-0.252	-0.298
-166.852	607.375	0.139	-0.345
-165.837	-134.105	-0.378	-0.047
-164.823	231.272	0.114	-0.186
-163.808	483.416	0.052	0.119
-162.793	800.000	-0.142	-0.470
-161.779	800.000	-0.158	-0.499
-160.764	-72.984	0.076	-0.028
-159.750	369.554	-0.075	-0.151
-158.735	369.521	-0.052	0.105
-157.720	414.147	-0.070	-0.148
-156.706	-101.232	-0.127	-0.031
-155.691	10.765	-0.213	0.162
-154.677	8.944	0.358	-0.269
-153.662	-200.000	0.012	-0.284
-152.647	-30.357	0.188	0.106
-151.633	-200.000	0.017	0.212
-150.618	-200.000	0.004	-0.106
-149.604	162.954	0.047	-0.066
-148.589	-9.429	-0.039	0.026
-147.574	128.581	-0.229	0.290
-146.560	-103.111	0.154	0.036
-145.545	-200.000	-0.066	0.363
-144.531	800.000	-0.097	-0.272
-143.516	-200.000	-0.051	0.321
-142.502	34.666	-0.128	-0.111
-141.487	-200.000	0.029	-0.355
-140.472	251.717	-0.048	-0.082
-139.458	-13.464	0.141	0.091
-138.443	-200.000	0.021	-0.098
-137.429	0.728	-0.024	0.017
-136.414	4.888	0.141	-0.104
-135.399	-144.607	0.223	0.021
-134.385	608.543	-0.106	0.263
-133.370	237.533	0.084	0.138
-132.356	-107.757	0.131	0.028
-131.341	-30.253	-0.037	-0.021
-130.326	-200.000	-0.025	0.186
-129.312	78.070	0.247	0.262
-128.297	344.259	0.106	-0.207
-127.283	62.374	0.398	-0.396
-126.268	62.099	-0.245	-0.243
-125.253	800.000	-0.047	0.184
-124.239	-142.695	0.192	-0.019
-123.224	163.609	-0.067	0.093
-122.210	800.000	0.034	0.095
-121.195	-1.863	0.357	0.250
-120.180	215.039	-0.051	0.080
-119.166	800.000	0.070	0.196
-118.151	0.931	0.173	0.123
-117.137	38.879	0.088	-0.078
-116.122	-138.584	-0.362	0.040
-115.107	271.015	-0.113	-0.198
-114.093	75.132	0.154	0.161
-113.078	-37.422	-0.074	-0.039
-112.064	-63.436	-0.364	0.149
-111.049	800.000	0.027	0.112
-110.034	-85.643	0.357	-0.110
-109.020	-94.532	-0.216	-0.059
-108.005	87.949	0.158	0.174
-106.991	800.000	-0.051	-0.168
-105.976	38.316	-0.122	0.108
-104.962	-131.096	0.315	-0.042
-103.947	-144.482	-0.279	0.026
-102.932	7.020	-0.100	0.074
-101.918	111.013	-0.331	0.397
-100.903	-200.000	-0.051	0.263
-99.889	71.126	-0.064	0.066
-98.874	-199.224	0.118	0.001
-97.859	-78.403	-0.419	-0.143
-96.845	-200.000	0.008	-0.085
-95.830	85.593	-0.186	-0.203
-94.816	800.000	0.065	-0.181
-93.801	30.251	-0.093	-0.079
-92.786	-182.775	0.395	-0.007
-91.772	153.929	-0.247	-0.336
-90.757	-108.843	-0.168	0.036
-89.743	-200.000	-0.001	-0.066
-88.728	146.297	0.051	0.068
-87.713	-200.000	0.025	0.222
-86.699	-7.135	-0.115	-0.077
-85.684	-200.000	0.012	-0.242
-84.670	-74.935	0.078	0.028
-83.655	-171.294	0.146	-0.005
-82.640	2.707	-0.117	-0.084
-81.626	-135.603	0.152	-0.018
-80.611	-26.510	0.183	0.107
-79.597	-200.000	-0.022	-0.265
-78.582	-101.999	0.202	-0.049
-77.567	-19.690	-0.196	0.120
-76.553	-200.000	0.010	-0.310
-75.538	-200.000	0.066	-0.299
-74.524	124.187	0.116	-0.145
-73.509	49.284	-0.105	0.098
-72.494	172.267	0.126	-0.180
-71.480	92.061	-0.104	-0.116
-70.465	-121.684	-0.292	0.048
-69.451	-24.246	0.223	0.132
-68.436	-200.000	0.014	0.440
-67.422	134.262	0.309	0.398
-66.407	-127.009	0.141	-0.021
-65.392	305.471	-0.071	-0.132
-64.378	5.069	-0.187	0.136
-63.363	800.000	0.073	-0.224
-62.349	-200.000	0.009	-0.227
-61.334	10.390	-0.890	-0.672
-60.319	-200.000	0.074	0.428
-59.305	337.034	-0.371	-0.715
-58.290	800.000	0.298	0.966
-57.276	652.583	0.648	1.649
-56.261	-200.000	90.018	501.126
-55.246	541.223	1366.043	3229.889
-54.232	184.419	2609.257	3835.938
-53.217	114.989	2215.715	2682.885
-52.203	46.241	1662.825	1529.002
-51.188	38.732	1393.077	1233.881
-50.173	35.566	1349.510	1175.900
-49.159	54.832	1395.091	1335.933
-48.144	59.019	1414.032	1380.091
-47.130	39.278	1370.023	1216.645
-46.115	35.627	1352.434	1178.632
-45.100	35.447	1347.493	1173.185
-44.086	35.417	1345.026	1170.806
-43.071	35.275	1342.547	1167.735
-42.057	35.276	1340.591	1165.992
-41.042	35.328	1338.817	1164.721
-40.027	35.433	1337.095	1163.811
-39.013	35.392	1335.055	1161.745
-37.998	35.425	1333.169	1160.256
-36.984	35.501	1331.503	1159.220
-35.969	35.611	1329.427	1158.026
-34.954	35.495	1327.758	1155.827
-33.940	35.541	1326.438	1154.915
-32.925	35.583	1324.908	1153.788
-31.911	35.576	1323.738	1152.681
-30.896	35.562	1322.269	1151.273
-29.881	35.544	1320.613	1149.677
-28.867	35.648	1318.924	1148.780
-27.852	35.567	1318.118	1147.550
-26.838	35.606	1316.209	1146.074
-25.823	35.625	1314.499	1144.656
-24.809	35.615	1313.337	1143.537
-23.794	35.610	1311.904	1142.212
-22.779	35.574	1310.520	1140.750
-21.765	35.510	1309.210	1139.182
-20.750	35.577	1308.125	1138.592
-19.736	35.445	1306.361	1136.231
-18.721	35.485	1304.910	1135.163
-17.706	35.463	1303.903	1134.108
-16.692	35.477	1302.742	1133.135
-15.677	35.470	1301.370	1131.856
-14.663	35.488	1300.388	1131.066
-13.648	35.497	1299.006	1129.871
-12.633	35.434	1298.006	1128.584
-11.619	35.404	1297.221	1127.683
-10.604	35.417	1296.836	1127.379
-9.590	35.337	1296.078	1126.205
-8.575	35.490	1294.676	1125.841
-7.560	35.423	1293.874	1124.702
-6.546	35.439	1292.972	1123.969
-5.531	35.413	1292.082	1123.001
-4.517	35.439	1290.669	1121.881
-3.502	35.345	1290.506	1121.142
-2.487	35.573	1289.052	1121.168
-1.473	35.534	1285.196	1117.542
-0.458	34.643	1270.599	1099.676
0.556	29.955	1251.997	1063.415
1.571	26.460	1257.746	1047.995
2.586	25.690	1273.124	1056.200
3.600	24.586	1261.065	1039.684
4.615	16.961	1183.386	933.740
5.629	5.501	1100.627	809.381
6.644	0.488	1078.114	767.308
7.659	0.149	1075.385	763.576
8.673	0.052	1074.301	762.250
9.688	-0.137	1073.211	760.451
10.702	0.424	1071.496	762.003
11.717	7.577	1082.111	805.885
12.731	17.827	1097.291	869.610
13.746	21.787	1101.697	893.249
14.761	22.044	1101.934	894.671
15.775	21.983	1101.885	894.240
16.790	21.827	1100.644	892.358
17.804	21.740	1100.035	891.344
18.819	21.900	1099.571	891.704
19.834	21.880	1099.204	891.226
20.848	22.038	1098.509	891.387
21.863	21.964	1097.955	890.481
22.877	21.916	1097.511	889.798
23.892	21.827	1096.743	888.648
24.907	21.848	1095.889	887.982
25.921	21.853	1094.797	887.043
26.936	21.878	1093.236	885.827
27.950	21.860	1091.321	884.103
28.965	21.650	1089.800	881.737
29.980	21.842	1088.005	881.173
30.994	21.916	1087.156	880.779
32.009	21.820	1086.173	879.424
33.023	21.796	1084.676	878.014
34.038	21.988	1083.732	878.134
35.053	22.004	1083.524	877.968
36.067	21.956	1082.597	876.896
37.082	21.981	1081.895	876.376
38.096	22.199	1081.092	876.733
39.111	22.145	1080.756	876.115
40.126	21.969	1079.288	873.970
41.140	21.838	1076.560	871.034
42.155	21.538	1075.510	868.618
43.169	21.615	1074.389	868.020
44.184	21.544	1073.863	867.168
45.199	21.433	1072.781	865.668
46.213	21.591	1071.649	865.459
47.228	21.695	1071.356	865.659
48.242	21.797	1070.340	865.262
49.257	21.858	1069.461	864.777
50.271	21.963	1068.589	864.513
51.286	22.049	1067.916	864.314
52.301	21.951	1066.824	862.875
53.315	21.824	1066.091	861.581
54.330	21.847	1064.832	860.598
55.344	21.913	1064.263	860.386
56.359	21.848	1063.237	859.162
57.374	21.664	1062.332	857.456
58.388	21.683	1061.606	856.888
59.403	21.597	1060.682	855.646
60.417	21.615	1059.822	854.963
61.432	21.466	1059.197	853.655
62.447	21.679	1058.372	853.952
63.461	21.707	1057.773	853.530
64.476	21.767	1056.508	852.725
65.490	21.580	1055.691	851.084
66.505	21.626	1054.864	850.564
67.520	21.646	1054.564	850.346
68.534	21.430	1053.149	848.080
69.549	21.152	1052.115	845.826
70.563	21.212	1051.225	845.326
71.578	21.212	1050.473	844.645
72.593	21.147	1049.124	843.174
73.607	21.146	1048.812	842.845
74.622	21.543	1048.417	844.365
75.636	21.548	1047.889	843.893
76.651	21.428	1046.630	842.226
77.666	21.431	1045.803	841.497
78.680	21.315	1045.502	840.624
79.695	21.452	1044.615	840.497
80.709	21.549	1043.985	840.378
81.724	21.450	1043.148	839.158
82.739	21.636	1042.440	839.407
83.753	21.951	1041.668	840.216
84.768	22.188	1041.181	840.885
85.782	22.213	1040.245	840.173
86.797	22.172	1039.328	839.160
87.812	22.046	1038.107	837.499
88.826	21.983	1037.407	836.560
89.841	22.165	1036.524	836.643
90.855	22.339	1034.966	836.139
91.870	22.237	1034.445	835.158
92.884	22.087	1033.005	833.210
93.899	21.991	1032.221	832.051
94.914	22.187	1031.462	832.294
95.928	21.991	1030.553	830.560
96.943	21.759	1029.142	828.253
97.957	21.551	1027.758	826.084
98.972	21.366	1026.823	824.386
99.987	21.706	1026.165	825.388
101.001	21.920	1025.469	825.762
102.016	21.806	1024.877	824.673
103.030	21.808	1023.696	823.662
104.045	21.612	1022.971	822.085
105.060	21.326	1021.927	819.830
106.074	21.680	1021.299	820.916
107.089	22.040	1020.495	821.882
108.103	21.983	1019.257	820.545
109.118	21.615	1018.462	818.114
110.133	21.621	1017.567	817.347
111.147	21.441	1015.965	815.152
112.162	21.325	1014.833	813.632
113.176	21.619	1014.392	814.573
114.191	21.528	1013.651	813.485
115.206	21.102	1012.796	810.748
116.220	21.158	1011.709	810.065
117.235	21.325	1010.913	810.131
118.249	21.271	1009.836	808.945
119.264	21.287	1009.067	808.332
120.279	21.263	1008.567	807.748
121.293	21.484	1007.168	807.579
122.308	21.378	1006.371	806.378
123.322	21.249	1005.710	805.181
124.337	21.162	1004.037	803.369
125.352	20.730	1002.438	800.038
126.366	20.638	1001.381	798.699
127.381	21.443	1000.966	801.991
128.395	21.882	1000.804	803.801
129.410	21.933	1000.051	803.360
130.424	21.979	998.609	802.339
131.439	21.797	997.804	800.790
132.454	21.843	997.065	800.335
133.468	21.793	995.504	798.783
134.483	21.897	994.931	798.728
135.497	22.021	994.878	799.181
136.512	22.121	993.562	798.505
137.527	22.199	992.781	798.163
138.541	22.220	992.157	797.683
139.556	21.986	991.563	796.078
140.570	22.098	990.628	795.761
141.585	22.187	989.689	795.340
142.600	22.009	988.291	793.340
143.614	22.282	988.085	794.338
144.629	22.370	987.080	793.859
145.643	22.358	985.675	792.602
146.658	22.131	984.601	790.650
147.673	21.978	983.418	788.940
148.687	21.885	982.084	787.386
149.702	22.045	980.843	787.036
150.716	21.938	980.185	785.960
151.731	21.936	979.545	785.370
152.746	22.267	979.074	786.400
153.760	22.349	978.160	785.964
154.775	22.355	977.953	785.757
155.789	22.251	977.022	784.473
156.804	22.291	975.876	783.663
157.819	22.354	975.126	783.272
158.833	22.394	974.571	782.933
159.848	22.292	973.750	781.750
160.862	22.235	971.950	779.984
161.877	22.197	971.662	779.517
162.892	22.232	970.794	778.903
163.906	22.211	969.500	777.706
164.921	22.192	968.516	776.762
165.935	22.165	967.493	775.753
166.950	22.237	966.663	775.338
167.964	22.157	965.871	774.284
168.979	22.030	965.036	772.984
169.994	22.193	963.771	772.622
171.008	22.248	963.597	772.654
172.023	22.373	962.484	772.241
173.037	22.209	961.247	770.462
174.052	21.962	960.304	768.558
175.067	21.871	960.310	768.093
176.081	21.992	959.463	767.879
177.096	21.995	958.862	767.344
178.110	21.824	957.350	765.319
179.125	21.414	957.116	763.276
180.140	21.731	956.267	763.913
181.154	21.802	955.920	763.875
182.169	22.117	956.035	765.272
183.183	22.240	955.522	765.329
184.198	22.183	954.592	764.268
185.213	22.105	953.849	763.269
186.227	22.159	953.327	763.017
187.242	22.148	952.515	762.255
188.256	22.309	951.963	762.443
189.271	22.268	950.993	761.421
190.286	22.002	949.789	759.237
191.300	21.490	948.457	755.895
192.315	20.755	946.730	751.278
193.329	20.707	946.905	751.146
194.344	21.554	947.094	754.884
195.359	22.034	946.925	756.751
196.373	22.256	945.929	756.843
197.388	22.127	945.910	756.207
198.402	22.035	945.238	755.207
199.417	22.180	944.254	754.978
200.432	21.844	943.023	752.484
201.446	21.817	942.266	751.696
202.461	21.646	941.934	750.632
203.475	20.847	939.932	745.554
204.490	20.159	938.562	741.460
205.504	21.149	939.143	746.087
206.519	21.673	938.980	748.129
207.534	21.619	938.913	747.779
208.548	22.125	938.512	749.554
209.563	21.941	937.288	747.725
210.577	21.985	936.481	747.202
211.592	22.258	936.528	748.334
212.607	22.205	935.452	747.185
213.621	22.322	934.543	746.888
214.636	22.219	934.060	745.999
215.650	22.117	933.377	744.959
216.665	22.413	932.693	745.600
217.680	22.370	931.743	744.592
218.694	21.799	930.901	741.438
219.709	21.788	930.025	740.630
220.723	22.071	929.601	741.420
221.738	22.211	928.750	741.265
222.753	22.138	928.275	740.515
223.767	22.287	927.613	740.546
224.782	22.414	927.585	740.995
225.796	22.437	926.708	740.325
226.811	21.845	925.183	736.556
227.826	21.127	924.260	732.742
228.840	21.391	923.576	733.244
229.855	21.465	922.875	732.929
230.869	20.978	921.989	730.123
231.884	21.445	921.926	731.964
232.899	22.175	921.582	734.679
233.913	22.052	920.983	733.624
234.928	22.103	920.510	733.392
235.942	22.069	919.567	732.436
236.957	21.718	918.707	730.225
237.972	21.710	918.692	730.114
238.986	21.864	918.134	730.247
240.001	21.869	917.138	729.413
241.015	21.879	916.485	728.867
242.030	21.981	916.411	729.168
243.045	22.178	916.013	729.604
244.059	22.317	914.997	729.308
245.074	22.104	914.035	727.592
246.088	21.739	913.020	725.211
247.103	21.967	913.014	726.086
248.117	22.642	912.655	728.527
249.132	22.665	912.665	728.565
250.147	22.792	911.924	728.435
251.161	22.986	911.460	728.799
252.176	22.925	910.478	727.699
253.190	23.070	910.210	728.017
254.205	23.152	909.605	727.805
255.220	23.135	909.298	727.426
256.234	22.964	908.252	725.820
257.249	22.840	907.493	724.641
258.263	22.991	906.662	724.535
259.278	22.958	906.037	723.833
260.293	23.025	905.716	723.790
261.307	22.971	904.623	722.630
262.322	22.760	903.959	721.175
263.336	21.898	901.835	715.901
264.351	20.938	900.099	710.546
265.366	21.150	899.619	710.968
266.380	22.078	900.629	715.486
267.395	22.562	900.372	717.187
268.409	22.574	899.555	716.522
269.424	22.783	898.902	716.788
270.439	22.935	897.976	716.601
271.453	22.833	897.768	715.961
272.468	23.123	897.339	716.731
273.482	23.127	896.608	716.098
274.497	22.772	895.296	713.554
275.512	22.259	894.632	710.887
276.526	22.836	894.488	713.039
277.541	22.956	894.228	713.255
278.555	22.721	893.380	711.567
279.570	22.536	892.777	710.279
280.585	22.674	892.014	710.163
281.599	22.626	891.200	709.262
282.614	22.162	889.739	706.173
283.628	22.056	889.348	705.373
284.643	22.437	889.278	706.783
285.657	22.106	887.703	704.144
286.672	21.866	886.901	702.482
287.687	22.323	887.149	704.447
288.701	22.342	886.652	704.066
289.716	22.132	885.687	702.398
290.730	22.200	884.628	701.769
291.745	21.778	884.212	699.692
292.760	22.074	884.014	700.654
293.774	23.107	884.410	705.026
294.789	23.349	883.982	705.587
295.803	23.379	883.770	705.474
296.818	23.511	882.372	704.823
297.833	23.018	881.702	702.264
298.847	22.771	880.803	700.506
299.862	23.220	880.412	701.916
300.876	23.345	880.401	702.341
301.891	23.265	879.458	701.210
302.906	22.805	878.732	698.749
303.920	22.904	878.257	698.701
304.935	23.352	877.929	700.147
305.949	23.163	877.519	699.012
306.964	23.053	876.458	697.670
307.979	23.216	875.740	697.679
308.993	23.301	875.971	698.137
310.008	23.397	875.109	697.768
311.022	23.243	874.115	696.308
312.037	23.129	873.726	695.489
313.052	22.750	872.861	693.249
314.066	22.087	870.919	689.044
315.081	21.748	870.218	687.100
316.095	22.562	870.858	690.738
317.110	22.887	870.852	691.943
318.125	22.104	869.485	687.733
319.139	21.173	867.760	682.670
320.154	21.220	867.094	682.269
321.168	22.172	867.581	686.311
322.183	22.629	867.755	688.170
323.197	22.881	867.370	688.789
324.212	23.086	866.889	689.144
325.227	23.230	866.276	689.159
326.241	22.965	865.740	687.637
327.256	23.133	864.771	687.459
328.270	22.942	864.027	686.069
329.285	22.593	863.526	684.253
330.300	22.526	862.570	683.177
331.314	22.773	862.446	683.974
332.329	23.003	862.709	685.016
333.343	23.205	861.707	684.940
334.358	23.282	861.325	684.873
335.373	23.223	861.362	684.615
336.387	23.568	861.183	685.745
337.402	23.653	861.095	685.943
338.416	23.634	860.569	685.391
339.431	23.701	860.148	685.251
340.446	23.770	859.718	685.113
341.460	23.551	859.135	683.746
342.475	23.594	858.105	683.033
343.489	23.526	858.295	682.859
344.504	23.950	858.063	684.245
345.519	23.899	857.854	683.823
346.533	23.976	857.216	683.549
347.548	23.871	856.679	682.659
348.562	23.996	855.797	682.375
349.577	23.894	855.355	681.569
350.592	23.853	854.807	680.917
351.606	23.865	853.910	680.189
352.621	23.845	852.608	679.015
353.635	23.673	852.299	678.052
354.650	23.097	850.556	674.408
355.665	22.101	849.703	669.875
356.679	22.500	848.811	670.635
357.694	23.067	848.370	672.384
358.708	22.927	848.025	671.517
359.723	23.368	848.255	673.317
360.738	23.611	847.792	673.811
361.752	23.822	846.852	673.807
362.767	23.997	846.825	674.387
363.781	24.287	846.603	675.250
364.796	24.345	845.953	674.891
365.810	24.337	845.903	674.760
366.825	24.141	845.267	673.453
367.840	23.982	844.273	672.002
368.854	23.532	843.638	669.739
369.869	23.672	842.915	669.633
370.883	23.734	842.384	669.384
371.898	23.507	842.330	668.426
372.913	23.551	842.132	668.376
373.927	23.932	841.334	669.117
374.942	24.059	840.746	669.070
375.956	24.006	840.974	668.991
376.971	24.262	840.006	669.123
377.986	24.335	839.724	669.112
379.000	24.411	838.705	668.527
380.015	24.005	838.474	666.763
381.029	24.073	838.152	666.701
382.044	24.294	837.352	666.834
383.059	24.458	836.648	666.828
384.073	24.226	836.454	665.748
385.088	24.209	835.459	664.831
386.102	24.056	834.850	663.718
387.117	24.169	834.051	663.447
388.132	23.663	833.006	660.673
389.146	23.381	831.702	658.532
390.161	23.485	832.346	659.372
391.175	23.965	832.064	660.874
392.190	23.820	830.834	659.298
393.205	22.429	828.748	652.435
394.219	20.876	827.493	645.640
395.234	21.058	826.648	645.595
396.248	22.505	828.312	652.202
397.263	23.972	829.239	658.306
398.278	23.860	828.723	657.422
399.292	23.697	827.798	656.028
400.307	23.742	827.211	655.672
401.321	23.718	826.995	655.354
402.336	24.097	826.810	656.549
403.350	24.600	826.856	658.381
404.365	24.756	826.243	658.408
405.380	24.969	826.409	659.265
406.394	25.151	825.533	659.178
407.409	24.896	824.803	657.599
408.423	24.986	824.669	657.767
409.438	24.935	824.640	657.499
410.453	25.057	824.168	657.510
411.467	24.925	823.602	656.517
412.482	24.885	822.922	655.770
413.496	24.940	822.989	655.967
414.511	25.001	822.324	655.601
415.526	24.995	821.794	655.098
416.540	24.924	821.257	654.354
417.555	24.696	820.395	652.775
418.569	24.582	820.282	652.212
419.584	24.690	819.485	651.914
420.599	24.474	818.602	650.366
421.613	151.724	1367.211	1789.566
422.628	132.052	1447.190	1789.676
