DTS Sentinel unit serial number:	SN413079Multiplexer serial number:	ORYXHardware model number:	OX4-SRSoftware version number:	ORYX F/W v4.00 Oryx Data Collector v3.7.2.0data status	okinstallation	princeton_trtdifferential loss correction	single-endedforward channel	channel 1reverse channel	N/Adate	2019/09/10time	23:08:11forward acquisition time	60.00reverse acquisition time	0.00gamma	496.2192k internal	0.2332k external	0.2332temperature offset calibration	0.9940default loss term (dB/km)	0.3790temperature slope calibration	1.0000multiplexer offset coefficient	1.0000multiplexer slope coefficient	1.0000fibre end	0.00T internal ref (°C)	29.94T ext. ref 1 (°C)	-0.31T ext. ref 2 (°C)	23.33length (m)	temperature (°C)	Stokes	anti-Stokes-747.200	149.532	-0.078	0.106
-746.185	-12.436	-0.267	-0.176
-745.171	-150.563	-0.364	0.028
-744.156	0.125	0.348	0.250
-743.142	800.000	0.128	-0.529
-742.127	273.415	0.071	-0.127
-741.112	255.390	0.133	0.230
-740.098	-119.653	-0.407	-0.071
-739.083	800.000	0.027	0.107
-738.069	-29.160	0.131	-0.076
-737.054	117.326	0.244	0.301
-736.039	744.402	-0.126	-0.340
-735.025	150.443	-0.269	0.368
-734.010	-200.000	0.007	-0.446
-732.996	-172.073	-0.351	0.011
-731.981	-79.352	-0.197	0.067
-730.966	581.868	-0.054	0.134
-729.952	-200.000	-0.070	0.353
-728.937	-24.770	-0.053	0.032
-727.923	259.047	0.251	-0.435
-726.908	-69.412	-0.311	-0.120
-725.894	-12.897	-0.175	-0.114
-724.879	76.866	0.055	-0.059
-723.864	56.942	0.185	-0.181
-722.850	571.714	0.026	0.065
-721.835	-89.199	-0.242	-0.072
-720.821	-17.995	-0.291	0.184
-719.806	165.844	-0.075	-0.107
-718.791	-153.557	0.155	-0.011
-717.777	220.954	-0.167	-0.269
-716.762	800.000	0.098	-0.397
-715.748	701.058	0.012	-0.032
-714.733	51.338	0.210	0.200
-713.718	-84.341	-0.157	0.050
-712.704	-116.785	-0.140	-0.026
-711.689	79.029	-0.364	0.392
-710.675	93.400	-0.189	0.214
-709.660	7.163	-0.091	-0.068
-708.645	37.318	-0.297	-0.265
-707.631	30.233	0.155	-0.133
-706.616	-67.745	0.156	0.061
-705.602	-74.866	-0.173	0.062
-704.587	160.082	0.132	0.184
-703.572	302.606	-0.047	0.087
-702.558	304.847	-0.052	-0.097
-701.543	800.000	0.077	-0.225
-700.529	-27.220	0.298	-0.174
-699.514	3.748	0.194	0.142
-698.499	-200.000	0.020	0.258
-697.485	-122.938	0.164	-0.027
-696.470	219.516	-0.379	0.609
-695.456	168.719	-0.103	0.148
-694.441	-102.470	-0.295	0.071
-693.426	-200.000	-0.008	-0.205
-692.412	-86.150	-0.270	-0.084
-691.397	132.750	0.110	-0.143
-690.383	800.000	0.114	0.459
-689.368	-69.834	-0.329	0.126
-688.354	800.000	-0.086	-0.375
-687.339	532.229	-0.138	-0.327
-686.324	355.995	-0.071	0.141
-685.310	-143.692	0.162	0.015
-684.295	553.481	-0.136	-0.327
-683.281	-74.725	-0.074	-0.027
-682.266	142.766	-0.159	0.213
-681.251	362.917	-0.041	-0.083
-680.237	500.176	-0.066	-0.153
-679.222	408.541	-0.062	-0.131
-678.208	-200.000	0.052	0.278
-677.193	11.770	-0.002	-0.002
-676.178	-42.198	0.265	0.136
-675.164	15.399	-0.049	0.039
-674.149	-200.000	-0.087	-0.461
-673.135	235.394	0.181	-0.300
-672.120	-200.000	-0.028	-0.185
-671.105	27.183	0.198	0.167
-670.091	-53.197	0.165	-0.076
-669.076	193.433	0.081	-0.123
-668.062	115.853	-0.112	-0.138
-667.047	-62.809	0.060	0.025
-666.032	-15.540	-0.257	-0.164
-665.018	138.281	0.128	0.169
-664.003	82.280	-0.287	-0.312
-662.989	128.410	0.103	-0.132
-661.974	3.031	0.114	0.083
-660.959	-158.980	-0.198	-0.011
-659.945	314.951	0.038	-0.073
-658.930	-200.000	0.053	0.575
-657.916	-119.352	0.312	0.054
-656.901	-200.000	-0.106	-0.533
-655.886	-151.814	-0.027	-0.002
-654.872	507.616	0.204	-0.475
-653.857	-75.165	0.245	-0.088
-652.843	-200.000	0.004	0.173
-651.828	-109.840	-0.449	0.095
-650.814	-200.000	-0.022	0.117
-649.799	-15.651	-0.325	0.208
-648.784	800.000	0.036	0.104
-647.770	340.890	-0.063	-0.123
-646.755	-50.043	0.095	0.045
-645.741	800.000	-0.122	-0.384
-644.726	142.311	0.119	0.159
-643.711	-14.955	-0.146	0.094
-642.697	-200.000	-0.027	-0.358
-641.682	-48.171	-0.322	0.156
-640.668	800.000	-0.047	-0.162
-639.653	67.635	-0.126	0.129
-638.638	-121.537	-0.273	-0.045
-637.624	-200.000	-0.000	-0.095
-636.609	299.669	-0.122	-0.226
-635.595	395.128	0.053	0.111
-634.580	-25.770	0.219	0.129
-633.565	-123.583	-0.125	0.020
-632.551	71.629	-0.172	-0.179
-631.536	114.648	0.178	-0.218
-630.522	800.000	0.056	0.240
-629.507	-34.084	0.137	-0.075
-628.492	213.201	-0.066	-0.104
-627.478	-200.000	0.035	0.259
-626.463	-200.000	-0.022	0.309
-625.449	245.275	0.057	-0.096
-624.434	-200.000	0.026	0.155
-623.419	-121.697	0.209	0.035
-622.405	-200.000	0.062	0.276
-621.390	353.950	0.132	0.262
-620.376	-200.000	0.009	0.136
-619.361	-50.556	-0.192	0.091
-618.346	-30.696	0.477	-0.270
-617.332	-163.261	-0.145	0.007
-616.317	-60.661	0.191	0.081
-615.303	-195.248	0.322	-0.002
-614.288	13.642	-0.242	-0.188
-613.273	-103.076	-0.267	0.063
-612.259	-200.000	0.017	-0.145
-611.244	-142.746	-0.122	-0.012
-610.230	-55.320	-0.132	-0.059
-609.215	188.673	-0.187	-0.281
-608.201	1.100	-0.147	-0.106
-607.186	36.459	-0.167	0.148
-606.171	86.734	0.246	0.272
-605.157	-128.960	0.279	-0.039
-604.142	-200.000	0.033	-0.379
-603.128	273.308	-0.110	-0.194
-602.113	-164.285	0.262	0.012
-601.098	28.206	0.394	0.333
-600.084	507.172	0.058	0.134
-599.069	-59.589	-0.246	0.106
-598.055	800.000	-0.053	0.153
-597.040	-71.364	-0.118	0.044
-596.025	163.282	-0.134	-0.188
-595.011	280.113	-0.067	-0.120
-593.996	76.721	0.359	0.381
-592.982	-39.461	-0.272	-0.143
-591.967	-56.775	-0.340	-0.150
-590.952	287.580	0.141	0.254
-589.938	-80.084	-0.200	-0.067
-588.923	-67.597	-0.206	-0.081
-587.909	-200.000	-0.010	0.134
-586.894	-88.995	0.220	-0.065
-585.879	441.069	-0.077	0.168
-584.865	800.000	0.148	-0.553
-583.850	685.679	0.036	0.094
-582.836	-33.022	0.190	-0.106
-581.821	-6.388	-0.174	-0.118
-580.806	-200.000	0.018	0.091
-579.792	21.197	-0.239	-0.194
-578.777	-22.552	-0.251	-0.152
-577.763	-16.367	-0.201	-0.127
-576.748	-131.324	0.210	-0.028
-575.733	717.009	-0.061	-0.162
-574.719	372.699	0.055	-0.112
-573.704	-16.355	0.102	0.065
-572.690	-54.543	0.186	-0.084
-571.675	31.902	-0.097	-0.083
-570.661	-200.000	-0.030	0.272
-569.646	-200.000	-0.038	0.211
-568.631	26.293	0.204	-0.171
-567.617	137.074	-0.071	-0.093
-566.602	-131.535	0.282	0.037
-565.588	-141.931	-0.366	0.037
-564.573	-97.606	0.030	0.008
-563.558	-81.406	0.268	0.088
-562.544	22.480	0.113	0.093
-561.529	-91.201	0.271	-0.078
-560.515	-200.000	0.075	0.520
-559.500	16.941	-0.114	0.090
-558.485	-200.000	0.021	0.308
-557.471	-200.000	0.002	0.414
-556.456	-135.465	0.285	0.034
-555.442	5.935	-0.083	-0.061
-554.427	267.390	-0.036	0.063
-553.412	101.256	-0.175	0.203
-552.398	750.817	-0.106	0.287
-551.383	-33.452	0.044	0.024
-550.369	-41.010	0.125	0.065
-549.354	-91.700	-0.260	0.074
-548.339	57.552	0.172	-0.167
-547.325	-70.033	0.190	-0.072
-546.310	21.253	-0.104	0.085
-545.296	-21.018	-0.178	-0.109
-544.281	-172.988	0.066	0.002
-543.266	-175.593	0.501	0.014
-542.252	232.843	-0.099	-0.162
-541.237	17.107	-0.089	0.070
-540.223	-10.972	-0.086	-0.057
-539.208	-200.000	0.054	-0.380
-538.193	-49.006	-0.192	0.092
-537.179	544.899	-0.032	0.076
-536.164	800.000	0.042	0.120
-535.150	9.474	0.247	0.187
-534.135	-28.890	0.081	-0.047
-533.121	175.451	0.059	-0.086
-532.106	-16.149	0.273	0.173
-531.091	-144.572	-0.111	-0.010
-530.077	757.844	-0.037	0.100
-529.062	-85.811	-0.301	0.093
-528.048	-200.000	-0.004	-0.063
-527.033	-59.483	0.250	0.107
-526.018	-200.000	-0.031	0.205
-525.004	-200.000	0.012	-0.227
-523.989	-4.540	0.270	-0.186
-522.975	800.000	-0.054	0.155
-521.960	260.029	-0.096	0.166
-520.945	39.311	-0.187	0.167
-519.931	-21.294	-0.181	0.110
-518.916	649.318	0.137	-0.350
-517.902	-125.357	0.207	0.031
-516.887	-200.000	0.011	0.063
-515.872	249.855	0.213	0.360
-514.858	800.000	0.060	-0.224
-513.843	-200.000	-0.003	0.105
-512.829	-85.590	0.109	-0.034
-511.814	-200.000	-0.031	0.158
-510.799	-83.216	-0.146	-0.047
-509.785	-136.169	-0.594	-0.069
-508.770	7.555	-0.148	0.110
-507.756	-46.384	0.143	-0.070
-506.741	207.127	-0.157	0.244
-505.726	-73.737	0.082	0.030
-504.712	-35.396	0.053	0.029
-503.697	-200.000	-0.006	-0.451
-502.683	660.796	-0.067	0.171
-501.668	265.024	-0.122	0.212
-500.653	491.690	0.123	-0.282
-499.639	79.257	-0.127	0.135
-498.624	-134.453	-0.335	0.041
-497.610	-116.075	0.185	0.034
-496.595	193.233	-0.098	0.148
-495.581	17.227	0.006	-0.005
-494.566	-144.813	-0.145	0.013
-493.551	29.645	0.129	0.109
-492.537	-70.327	0.080	0.030
-491.522	-43.357	0.144	-0.073
-490.508	-199.611	-0.288	-0.001
-489.493	-200.000	-0.009	0.122
-488.478	-127.107	0.097	-0.014
-487.464	-45.019	0.157	0.078
-486.449	-59.690	-0.151	0.064
-485.435	333.647	-0.113	-0.218
-484.420	614.065	-0.078	0.194
-483.405	-82.943	0.499	-0.160
-482.391	-200.000	-0.046	0.390
-481.376	555.880	-0.115	0.276
-480.362	800.000	0.021	-0.062
-479.347	-4.339	-0.237	0.163
-478.332	694.731	-0.095	0.248
-477.318	-146.928	0.210	0.018
-476.303	649.372	-0.061	0.156
-475.289	-72.875	-0.284	0.104
-474.274	-200.000	-0.003	-0.157
-473.259	-11.801	-0.063	0.041
-472.245	-8.617	0.022	0.015
-471.230	-95.897	0.323	-0.086
-470.216	71.689	-0.238	-0.246
-469.201	174.411	0.104	-0.150
-468.186	-133.226	0.436	-0.055
-467.172	800.000	0.002	-0.006
-466.157	435.838	-0.046	0.100
-465.143	800.000	-0.042	0.181
-464.128	-200.000	-0.012	0.070
-463.113	800.000	-0.020	0.084
-462.099	-159.679	0.213	-0.012
-461.084	-200.000	-0.010	-0.250
-460.070	215.250	0.227	-0.359
-459.055	-103.537	-0.222	0.052
-458.040	344.273	0.167	-0.327
-457.026	-92.587	-0.173	0.048
-456.011	30.391	-0.078	0.066
-454.997	-59.031	-0.293	-0.126
-453.982	165.519	-0.056	0.078
-452.968	277.360	0.182	0.322
-451.953	96.323	0.185	-0.211
-450.938	48.920	0.182	-0.170
-449.924	-200.000	-0.017	0.191
-448.909	-200.000	-0.038	-0.328
-447.895	11.264	0.035	0.027
-446.880	-56.724	0.124	-0.054
-445.865	-200.000	-0.078	-0.565
-444.851	-6.109	-0.253	-0.172
-443.836	-200.000	-0.013	-0.356
-442.822	-174.698	0.188	0.005
-441.807	-63.985	-0.202	0.082
-440.792	16.857	0.090	-0.071
-439.778	-65.562	0.244	0.097
-438.763	-29.200	-0.395	0.225
-437.749	-75.547	0.376	0.133
-436.734	161.564	-0.195	-0.271
-435.719	-77.034	-0.117	-0.041
-434.705	-69.557	0.215	0.082
-433.690	-200.000	-0.061	0.449
-432.676	-200.000	-0.034	-0.159
-431.661	800.000	-0.014	-0.058
-430.646	246.527	-0.226	-0.379
-429.632	-169.239	0.255	0.009
-428.617	-3.107	-0.175	0.121
-427.603	800.000	0.104	-0.318
-426.588	-93.142	-0.273	-0.075
-425.573	48.890	0.205	0.192
-424.559	-119.852	-0.395	0.068
-423.544	-59.394	-0.156	0.067
-422.530	109.302	0.296	-0.352
-421.515	-200.000	0.015	0.083
-420.500	708.411	-0.093	0.244
-419.486	121.616	-0.150	0.185
-418.471	193.128	-0.198	0.298
-417.457	800.000	-0.041	-0.154
-416.442	19.987	0.139	0.111
-415.428	600.863	-0.071	0.175
-414.413	-189.310	0.219	-0.003
-413.398	8.215	0.256	0.191
-412.384	49.237	-0.046	-0.043
-411.369	635.214	-0.075	0.190
-410.355	526.631	-0.160	0.374
-409.340	58.806	0.286	-0.279
-408.325	297.729	-0.144	0.263
-407.311	800.000	0.076	-0.257
-406.296	281.989	-0.156	-0.277
-405.282	-149.067	-0.106	-0.008
-404.267	-120.343	0.074	-0.013
-403.252	58.259	0.174	-0.169
-402.238	79.968	0.153	-0.163
-401.223	353.528	-0.174	0.343
-400.209	-180.025	-0.326	-0.007
-399.194	-200.000	0.062	-0.335
-398.179	2.076	0.026	0.019
-397.165	-200.000	-0.038	0.259
-396.150	-119.710	0.132	0.023
-395.136	127.123	0.128	-0.162
-394.121	-154.346	-0.094	-0.006
-393.106	80.893	-0.061	-0.066
-392.092	-60.384	-0.201	0.085
-391.077	-62.164	0.125	-0.052
-390.063	-115.449	0.337	0.063
-389.048	260.129	-0.169	-0.291
-388.033	-88.995	-0.157	-0.046
-387.019	-30.536	0.373	-0.210
-386.004	99.627	0.217	-0.249
-384.990	-98.029	-0.301	0.077
-383.975	46.931	0.247	-0.228
-382.960	602.649	0.152	-0.374
-381.946	32.604	0.115	-0.099
-380.931	257.410	0.081	0.138
-379.917	-200.000	0.147	0.731
-378.902	-200.000	0.008	-0.335
-377.888	-52.893	0.341	0.156
-376.873	20.910	0.090	-0.072
-375.858	166.383	0.091	-0.127
-374.844	-32.107	-0.141	0.078
-373.829	-55.125	-0.130	-0.058
-372.815	138.018	0.158	-0.205
-371.800	800.000	-0.026	-0.073
-370.785	262.557	0.168	0.289
-369.771	-21.827	0.097	0.059
-368.756	-19.968	0.190	0.116
-367.742	800.000	0.041	-0.171
-366.727	-53.242	-0.232	0.105
-365.712	-200.000	0.044	-0.258
-364.698	800.000	0.017	-0.072
-363.683	800.000	0.037	-0.129
-362.669	800.000	0.061	0.244
-361.654	115.554	-0.257	-0.311
-360.639	-6.873	0.133	0.089
-359.625	122.816	-0.123	0.153
-358.610	229.097	0.144	0.233
-357.596	-200.000	-0.002	0.068
-356.581	-136.828	-0.235	0.027
-355.566	-200.000	0.003	-0.438
-354.552	-200.000	0.034	-0.198
-353.537	800.000	-0.045	-0.167
-352.523	306.224	-0.026	0.048
-351.508	60.129	0.204	-0.199
-350.493	800.000	-0.031	0.134
-349.479	439.476	0.135	0.293
-348.464	-200.000	-0.026	-0.275
-347.450	-59.717	-0.015	-0.006
-346.435	-200.000	-0.093	-0.403
-345.420	546.328	-0.105	-0.249
-344.406	320.529	0.041	0.076
-343.391	-200.000	-0.071	0.339
-342.377	-60.382	0.196	0.083
-341.362	-200.000	-0.016	-0.151
-340.348	45.258	-0.157	0.144
-339.333	800.000	-0.046	0.142
-338.318	800.000	-0.073	-0.229
-337.304	-158.795	0.250	-0.014
-336.289	800.000	-0.016	0.046
-335.275	-200.000	-0.003	-0.173
-334.260	113.545	0.101	0.122
-333.245	-87.336	0.094	-0.028
-332.231	7.314	-0.122	-0.090
-331.216	-97.595	-0.322	-0.083
-330.202	79.832	-0.167	0.177
-329.187	3.200	0.308	-0.222
-328.172	-187.057	-0.405	0.006
-327.158	292.479	-0.160	0.288
-326.143	5.217	0.073	0.053
-325.129	-156.630	0.204	-0.013
-324.114	800.000	-0.031	-0.110
-323.099	133.596	-0.250	-0.320
-322.085	-20.751	0.107	0.065
-321.070	37.518	0.147	-0.129
-320.056	21.705	-0.043	0.034
-319.041	80.506	-0.225	-0.240
-318.026	8.663	0.091	0.067
-317.012	-200.000	0.007	-0.173
-315.997	39.952	0.079	0.070
-314.983	79.546	-0.011	-0.012
-313.968	-50.749	-0.352	-0.164
-312.953	-66.926	0.078	0.031
-311.939	147.430	-0.163	0.218
-310.924	-200.000	-0.048	0.314
-309.910	323.568	-0.161	0.304
-308.895	-200.000	-0.001	0.032
-307.880	405.457	0.118	-0.247
-306.866	-152.844	-0.232	-0.016
-305.851	-200.000	-0.059	-0.294
-304.837	-56.447	-0.154	-0.068
-303.822	-88.439	-0.325	-0.096
-302.807	444.657	0.130	0.282
-301.793	-28.186	0.130	0.074
-300.778	-200.000	-0.061	-0.292
-299.764	800.000	-0.036	0.141
-298.749	111.701	0.084	-0.100
-297.735	-154.138	0.437	-0.029
-296.720	-63.224	0.237	-0.096
-295.705	800.000	-0.072	-0.257
-294.691	-68.248	0.242	-0.093
-293.676	-44.981	0.210	0.104
-292.662	151.130	-0.071	0.096
-291.647	27.477	-0.237	0.197
-290.632	83.351	0.271	-0.292
-289.618	407.932	0.047	-0.098
-288.603	-49.016	-0.300	0.142
-287.589	82.067	-0.103	0.110
-286.574	206.566	0.076	0.118
-285.559	-172.216	0.089	0.003
-284.545	-112.100	-0.223	-0.044
-283.530	-87.709	-0.125	-0.037
-282.516	-17.217	0.125	0.078
-281.501	95.640	-0.142	-0.161
-280.486	26.499	-0.176	0.146
-279.472	-150.381	-0.088	0.007
-278.457	-64.070	-0.198	-0.080
-277.443	-200.000	-0.009	0.223
-276.428	-99.908	0.217	0.054
-275.413	-82.341	0.121	-0.039
-274.399	-67.232	-0.167	-0.065
-273.384	233.559	0.059	0.096
-272.370	461.766	-0.213	-0.469
-271.355	-200.000	-0.013	0.239
-270.340	-200.000	-0.020	0.146
-269.326	-48.166	0.314	0.150
-268.311	-93.192	0.295	0.081
-267.297	303.365	0.171	-0.314
-266.282	-134.094	0.293	-0.036
-265.267	-126.151	0.026	0.004
-264.253	37.758	0.146	-0.128
-263.238	68.227	-0.121	-0.123
-262.224	139.689	-0.156	0.203
-261.209	262.811	0.143	-0.245
-260.195	23.278	-0.123	0.100
-259.180	-133.618	-0.150	-0.019
-258.165	-112.882	0.081	-0.016
-257.151	645.310	0.062	-0.157
-256.136	-200.000	-0.020	0.189
-255.122	-49.393	-0.270	-0.127
-254.107	-84.699	-0.025	0.008
-253.092	345.965	-0.073	0.142
-252.078	756.543	0.070	-0.187
-251.063	324.236	0.101	-0.190
-250.049	-161.088	-0.310	0.016
-249.034	-21.217	0.154	0.093
-248.019	-48.477	0.085	-0.041
-247.005	-62.240	-0.294	-0.121
-245.990	-85.844	0.039	-0.012
-244.976	-60.846	-0.058	-0.024
-243.961	-152.827	0.124	-0.009
-242.946	119.344	0.082	-0.101
-241.932	-149.343	-0.135	-0.011
-240.917	-200.000	-0.005	0.196
-239.903	635.627	0.073	-0.184
-238.888	-117.548	0.517	-0.092
-237.873	800.000	-0.083	0.242
-236.859	-14.712	-0.110	0.070
-235.844	-61.093	-0.256	-0.106
-234.830	800.000	-0.066	-0.259
-233.815	-200.000	-0.031	-0.248
-232.800	-65.331	0.236	0.094
-231.786	-71.272	-0.359	-0.133
-230.771	87.901	-0.080	0.088
-229.757	-11.831	0.348	0.225
-228.742	72.750	-0.352	0.363
-227.727	-200.000	0.027	0.179
-226.713	65.678	0.141	0.141
-225.698	693.006	0.130	-0.337
-224.684	68.086	-0.084	-0.085
-223.669	99.190	0.085	-0.097
-222.655	-200.000	0.028	0.341
-221.640	-81.269	-0.207	0.067
-220.625	242.623	-0.129	0.213
-219.611	-9.175	-0.087	0.057
-218.596	-123.887	0.097	0.015
-217.582	266.458	-0.078	-0.134
-216.567	-200.000	0.002	-0.010
-215.552	185.854	0.211	0.309
-214.538	800.000	0.058	0.207
-213.523	-17.836	-0.144	-0.089
-212.509	-26.957	0.319	0.184
-211.494	411.928	-0.094	0.196
-210.479	134.527	0.135	-0.172
-209.465	-112.402	0.149	0.029
-208.450	-30.255	0.046	0.026
-207.436	-158.245	-0.295	-0.017
-206.421	-93.154	-0.294	0.081
-205.406	-65.727	-0.208	0.082
-204.392	178.468	0.191	-0.275
-203.377	-200.000	0.000	0.153
-202.363	23.125	-0.144	-0.117
-201.348	-193.635	0.164	-0.001
-200.333	289.987	0.178	0.317
-199.319	-164.434	0.144	0.006
-198.304	-87.550	-0.218	0.065
-197.290	-198.113	0.341	-0.002
-196.275	-38.746	0.124	-0.064
-195.260	153.190	0.182	0.245
-194.246	-125.451	0.205	-0.031
-193.231	-56.929	-0.148	-0.064
-192.217	600.562	0.119	-0.291
-191.202	39.111	0.134	0.118
-190.187	-200.000	-0.035	-0.192
-189.173	-141.586	0.113	-0.011
-188.158	8.773	-0.307	-0.228
-187.144	-200.000	-0.019	0.302
-186.129	-102.126	0.221	-0.052
-185.114	-90.562	0.290	-0.083
-184.100	-200.000	-0.005	-0.194
-183.085	-58.524	-0.173	-0.074
-182.071	-177.987	0.171	-0.004
-181.056	800.000	0.038	-0.132
-180.042	-42.612	0.131	0.066
-179.027	-45.742	-0.356	-0.173
-178.012	-177.582	-0.179	-0.004
-176.998	-200.000	-0.003	-0.179
-175.983	-200.000	0.029	-0.262
-174.969	-65.108	0.296	0.117
-173.954	96.445	0.088	0.099
-172.939	92.612	0.271	-0.301
-171.925	-71.577	0.147	0.054
-170.910	-200.000	-0.034	-0.150
-169.896	-111.560	-0.062	-0.012
-168.881	-200.000	0.047	0.211
-167.866	-77.305	-0.167	0.057
-166.852	360.856	0.118	-0.233
-165.837	800.000	-0.074	0.261
-164.823	800.000	0.057	0.184
-163.808	-200.000	0.041	0.205
-162.793	-52.881	-0.188	0.085
-161.779	130.193	0.105	0.133
-160.764	-134.937	-0.278	-0.033
-159.750	-49.894	-0.418	-0.195
-158.735	-200.000	-0.042	0.273
-157.720	-96.766	0.159	-0.041
-156.706	-200.000	-0.020	-0.177
-155.691	-56.412	-0.182	-0.080
-154.677	445.555	0.068	0.146
-153.662	-0.676	-0.272	0.190
-152.647	-37.507	-0.221	0.116
-151.633	-87.568	0.180	-0.053
-150.618	129.685	-0.127	-0.160
-149.604	-200.000	-0.028	-0.180
-148.589	336.818	-0.070	-0.134
-147.574	-30.234	0.207	0.116
-146.560	-200.000	-0.027	-0.203
-145.545	-200.000	0.005	0.261
-144.531	1.871	0.065	0.046
-143.516	-200.000	-0.014	0.287
-142.502	150.193	-0.129	0.172
-141.487	146.151	0.017	-0.023
-140.472	-152.318	-0.322	0.023
-139.458	800.000	-0.017	0.055
-138.443	-150.488	-0.217	-0.016
-137.429	43.787	0.175	0.157
-136.414	-136.646	0.184	-0.021
-135.399	800.000	-0.111	-0.359
-134.385	18.872	-0.128	-0.101
-133.370	20.567	-0.260	-0.207
-132.356	-130.311	-0.150	-0.020
-131.341	800.000	-0.050	0.187
-130.326	51.104	-0.190	-0.177
-129.312	-57.965	-0.265	0.114
-128.297	308.906	0.105	0.193
-127.283	-111.708	0.150	0.030
-126.268	137.446	-0.126	-0.162
-125.253	46.674	0.100	-0.091
-124.239	-65.586	0.174	0.069
-123.224	-28.754	0.167	-0.094
-122.210	-24.552	-0.041	0.024
-121.195	-156.538	-0.080	0.005
-120.180	-200.000	0.034	0.290
-119.166	719.519	-0.158	0.412
-118.151	218.457	0.200	0.313
-117.137	-200.000	-0.055	0.268
-116.122	109.120	-0.125	0.147
-115.107	93.275	-0.049	0.054
-114.093	60.311	-0.139	0.135
-113.078	-83.669	-0.096	0.030
-112.064	21.758	-0.228	-0.182
-111.049	-200.000	0.031	-0.161
-110.034	-31.658	0.085	0.047
-109.020	418.751	0.058	-0.121
-108.005	-106.310	0.249	0.055
-106.991	-65.909	-0.042	-0.016
-105.976	-200.000	0.006	0.359
-104.962	-89.093	-0.241	-0.070
-103.947	-137.802	0.113	0.012
-102.932	331.518	0.018	0.035
-101.918	800.000	-0.029	-0.121
-100.903	-177.490	0.031	0.001
-99.889	75.454	-0.158	-0.163
-98.874	-200.000	0.025	0.338
-97.859	800.000	0.079	0.252
-96.845	109.094	-0.087	-0.102
-95.830	357.413	-0.072	-0.141
-94.816	-124.359	-0.450	0.069
-93.801	-72.613	-0.249	0.090
-92.786	-99.473	-0.181	0.045
-91.772	340.133	-0.126	0.242
-90.757	221.277	-0.136	0.215
-89.743	471.091	0.105	-0.232
-88.728	62.534	0.209	-0.205
-87.713	-200.000	-0.001	0.232
-86.699	-33.013	-0.070	0.038
-85.684	800.000	0.106	0.370
-84.670	-200.000	0.000	-0.095
-83.655	-200.000	-0.015	0.075
-82.640	-81.583	-0.191	-0.061
-81.626	20.586	-0.209	-0.166
-80.611	-58.205	-0.145	0.062
-79.597	56.902	0.323	0.309
-78.582	265.809	0.092	0.157
-77.567	317.183	-0.107	-0.199
-76.553	66.136	-0.141	-0.141
-75.538	800.000	0.039	-0.153
-74.524	333.265	-0.100	-0.189
-73.509	-190.689	-0.209	0.002
-72.494	800.000	0.032	-0.087
-71.480	144.997	0.121	-0.159
-70.465	770.878	0.052	-0.139
-69.451	-123.386	-0.179	0.028
-68.436	177.527	-0.127	-0.181
-67.422	-45.222	0.077	-0.038
-66.407	413.411	-0.073	-0.153
-65.392	-18.550	0.139	0.085
-64.378	-200.000	-0.049	0.390
-63.363	273.316	0.142	-0.245
-62.349	-20.565	0.157	-0.095
-61.334	251.341	-0.752	-1.254
-60.319	647.704	0.346	0.866
-59.305	556.294	-0.410	-0.967
-58.290	118.030	0.967	1.167
-57.276	538.333	0.536	1.247
-56.261	-200.000	104.697	613.534
-55.246	518.521	1490.074	3416.511
-54.232	179.374	2683.079	3845.721
-53.217	113.676	2154.091	2562.765
-52.203	42.005	1590.604	1413.493
-51.188	33.480	1325.537	1127.446
-50.173	30.468	1283.656	1074.392
-49.159	54.568	1337.755	1262.614
-48.144	55.576	1352.864	1282.763
-47.130	33.649	1308.163	1113.483
-46.115	30.152	1290.426	1078.050
-45.100	29.906	1285.755	1072.681
-44.086	29.843	1283.313	1070.236
-43.071	29.777	1280.840	1067.748
-42.057	29.698	1279.194	1065.877
-41.042	29.726	1277.287	1064.410
-40.027	29.848	1275.795	1063.825
-39.013	29.772	1274.055	1061.892
-37.998	29.846	1272.216	1060.746
-36.984	29.877	1270.480	1059.432
-35.969	29.880	1268.973	1058.151
-34.954	30.018	1266.353	1056.712
-33.940	29.963	1265.796	1055.889
-32.925	29.916	1264.913	1054.847
-31.911	30.032	1262.906	1053.788
-30.896	29.989	1261.681	1052.478
-29.881	30.019	1260.131	1051.317
-28.867	30.073	1258.539	1050.253
-27.852	30.140	1256.571	1048.946
-26.838	30.092	1255.709	1047.914
-25.823	30.142	1254.683	1047.301
-24.809	29.973	1253.408	1045.242
-23.794	29.970	1252.209	1044.179
-22.779	30.073	1251.142	1043.828
-21.765	30.002	1249.745	1042.225
-20.750	30.063	1248.163	1041.203
-19.736	29.908	1247.082	1039.392
-18.721	29.935	1245.933	1038.545
-17.706	30.000	1244.411	1037.602
-16.692	29.893	1243.621	1036.303
-15.677	29.880	1242.519	1035.268
-14.663	29.873	1241.516	1034.351
-13.648	29.835	1240.091	1032.910
-12.633	29.961	1238.807	1032.505
-11.619	29.948	1238.184	1031.872
-10.604	29.893	1237.771	1031.182
-9.590	29.815	1236.643	1029.763
-8.575	29.837	1235.713	1029.074
-7.560	29.906	1234.832	1028.680
-6.546	29.741	1234.599	1027.530
-5.531	29.831	1233.147	1026.780
-4.517	29.797	1232.308	1025.852
-3.502	29.912	1231.261	1025.574
-2.487	29.964	1230.137	1024.886
-1.473	29.806	1226.512	1020.954
-0.458	28.310	1211.718	1000.433
0.556	22.594	1194.624	962.623
1.571	18.933	1199.413	946.285
2.586	18.031	1213.981	952.666
3.600	17.844	1203.126	943.029
4.615	13.004	1132.587	862.428
5.629	4.072	1058.881	762.421
6.644	0.012	1038.849	728.293
7.659	-0.332	1036.678	725.042
8.673	-0.454	1035.635	723.660
9.688	-0.464	1034.106	722.482
10.702	-0.130	1032.669	723.024
11.717	5.522	1040.319	755.661
12.731	14.564	1053.179	808.962
13.746	18.975	1058.495	834.423
14.761	19.670	1059.210	838.283
15.775	19.696	1058.493	837.772
16.790	19.452	1057.633	835.833
17.804	19.324	1057.258	834.845
18.819	19.523	1056.537	835.162
19.834	19.591	1055.876	834.895
20.848	19.563	1055.371	834.287
21.863	19.663	1054.451	833.971
22.877	19.347	1054.380	832.311
23.892	19.362	1054.064	832.062
24.907	19.504	1052.923	831.774
25.921	19.526	1051.748	830.878
26.936	19.600	1050.047	829.813
27.950	19.382	1049.104	827.949
28.965	19.254	1046.778	825.429
29.980	19.365	1044.773	824.305
30.994	19.620	1044.205	825.003
32.009	19.611	1042.997	823.931
33.023	19.363	1041.726	821.671
34.038	19.461	1040.733	821.283
35.053	19.617	1040.089	821.445
36.067	19.592	1039.224	820.569
37.082	19.653	1038.856	820.496
38.096	19.795	1037.850	820.301
39.111	19.869	1036.980	819.895
40.126	19.699	1035.422	817.782
41.140	19.411	1033.863	815.119
42.155	19.218	1032.372	812.962
43.169	19.290	1031.555	812.585
44.184	19.384	1030.517	812.139
45.199	19.298	1029.091	810.538
46.213	19.325	1028.636	810.238
47.228	19.326	1027.878	809.572
48.242	19.297	1027.041	808.703
49.257	19.520	1025.833	808.729
50.271	19.537	1025.034	808.107
51.286	19.565	1024.268	807.560
52.301	19.627	1023.362	807.066
53.315	19.599	1021.997	805.788
54.330	19.576	1021.372	805.113
55.344	19.552	1020.863	804.532
56.359	19.539	1019.678	803.465
57.374	19.396	1018.632	801.906
58.388	19.472	1017.972	801.669
59.403	19.333	1017.368	800.476
60.417	19.212	1016.325	799.022
61.432	19.364	1015.543	799.042
62.447	19.462	1014.982	798.984
63.461	19.414	1014.038	797.950
64.476	19.177	1013.671	796.493
65.490	19.310	1012.278	795.943
66.505	19.360	1011.610	795.578
67.520	19.474	1010.549	795.195
68.534	19.222	1009.648	793.256
69.549	19.089	1008.153	791.401
70.563	19.063	1007.734	790.885
71.578	19.072	1006.829	790.143
72.593	18.798	1005.828	788.031
73.607	19.083	1005.287	788.846
74.622	19.278	1005.512	789.844
75.636	19.265	1004.532	788.947
76.651	19.131	1003.162	787.189
77.666	19.054	1003.114	786.728
78.680	19.203	1002.048	786.504
79.695	19.193	1001.430	785.903
80.709	19.311	1000.826	785.899
81.724	19.137	1000.093	784.458
82.739	19.343	999.276	784.686
83.753	19.651	998.745	785.603
84.768	19.952	997.280	785.747
85.782	19.808	996.551	784.450
86.797	19.810	995.561	783.607
87.812	19.722	994.906	782.626
88.826	19.779	994.349	782.377
89.841	19.789	993.206	781.453
90.855	19.934	992.134	781.193
91.870	19.787	990.951	779.530
92.884	19.521	990.304	777.754
93.899	19.652	988.929	777.195
94.914	19.813	987.951	777.083
95.928	19.570	987.078	775.237
96.943	19.408	986.102	773.672
97.957	19.291	984.330	771.690
98.972	19.200	983.213	770.342
99.987	19.414	982.491	770.661
101.001	19.583	982.132	771.067
102.016	19.473	981.362	769.903
103.030	19.405	980.411	768.789
104.045	19.290	979.094	767.174
105.060	18.943	978.493	765.094
106.074	19.358	977.613	766.180
107.089	19.743	977.294	767.573
108.103	19.722	975.454	765.968
109.118	19.285	975.007	763.614
110.133	19.440	973.596	763.125
111.147	19.330	972.445	761.671
112.162	19.197	971.521	760.290
113.176	19.419	971.027	760.815
114.191	19.257	969.807	759.078
115.206	19.014	968.706	757.084
116.220	18.966	968.552	756.683
117.235	19.294	966.715	756.623
118.249	19.204	966.292	755.829
119.264	19.064	965.267	754.346
120.279	19.078	965.176	754.271
121.293	19.314	963.823	754.177
122.308	19.167	963.465	753.187
123.322	19.240	962.134	752.399
124.337	18.965	960.663	749.984
125.352	18.617	959.030	747.126
126.366	18.635	957.588	746.018
127.381	19.157	958.210	748.706
128.395	19.625	957.362	750.006
129.410	19.772	956.172	749.646
130.424	19.615	955.281	748.202
131.439	19.561	954.166	747.030
132.454	19.547	953.453	746.344
133.468	19.579	952.350	745.553
134.483	19.670	951.834	745.475
135.497	19.822	951.049	745.451
136.512	19.765	950.042	744.348
137.527	19.990	948.973	744.415
138.541	19.748	948.926	743.270
139.556	19.889	947.505	742.697
140.570	19.835	947.069	742.057
141.585	19.678	946.064	740.533
142.600	19.668	944.846	739.471
143.614	19.957	944.235	740.162
144.629	20.050	943.380	739.823
145.643	19.980	942.132	738.480
146.658	19.874	940.754	736.885
147.673	19.658	940.035	735.336
148.687	19.628	939.029	734.358
149.702	19.677	937.967	733.672
150.716	19.702	937.374	733.249
151.731	19.671	936.791	732.594
152.746	20.007	936.084	733.401
153.760	20.050	935.468	733.034
154.775	20.048	934.324	732.063
155.789	19.935	934.124	731.366
156.804	19.986	932.733	730.426
157.819	19.958	931.845	729.549
158.833	20.055	931.243	729.424
159.848	20.079	930.290	728.713
160.862	19.857	929.086	726.772
161.877	20.145	928.067	727.118
162.892	20.077	927.420	726.263
163.906	19.914	926.668	724.927
164.921	19.966	925.728	724.345
165.935	19.981	924.957	723.742
166.950	19.944	923.846	722.654
167.964	20.064	922.825	722.289
168.979	19.993	921.504	720.895
169.994	19.914	920.802	719.954
171.008	19.957	920.627	719.932
172.023	20.085	919.084	719.194
173.037	19.705	918.473	717.077
174.052	19.642	917.422	715.933
175.067	19.689	917.093	715.807
176.081	19.878	916.534	716.087
177.096	19.778	915.718	714.976
178.110	19.545	914.700	713.153
179.125	19.398	914.034	711.964
180.140	19.603	913.706	712.491
181.154	19.617	913.247	712.130
182.169	19.875	913.521	713.343
183.183	20.059	912.199	713.004
184.198	19.882	911.825	711.920
185.213	19.919	911.020	711.384
186.227	20.034	909.963	710.966
187.242	19.959	909.822	710.486
188.256	20.074	908.738	710.045
189.271	20.017	907.714	708.953
190.286	19.760	907.115	707.368
191.300	19.331	905.708	704.456
192.315	18.580	904.166	700.132
193.329	18.511	904.314	699.901
194.344	19.447	904.473	703.782
195.359	19.862	904.560	705.480
196.373	20.058	903.445	705.345
197.388	19.744	902.596	703.344
198.402	19.666	902.137	702.606
199.417	19.788	901.360	702.436
200.432	19.448	900.241	700.122
201.446	19.269	900.138	699.254
202.461	19.480	898.972	699.142
203.475	18.564	897.401	694.152
204.490	17.955	895.921	690.485
205.504	18.975	896.310	694.845
206.519	19.496	896.529	697.060
207.534	19.548	895.938	696.745
208.548	20.015	895.232	698.020
209.563	19.716	894.138	695.902
210.577	19.758	893.939	695.852
211.592	20.155	893.537	697.075
212.607	19.981	892.266	695.325
213.621	20.154	891.902	695.673
214.636	20.082	891.547	695.044
215.650	20.027	890.331	693.814
216.665	20.113	890.040	693.873
217.680	19.934	889.304	692.522
218.694	19.547	887.922	689.837
219.709	19.477	887.275	688.992
220.723	19.874	886.692	690.065
221.738	19.781	886.071	689.149
222.753	19.919	885.841	689.457
223.767	19.984	885.074	689.060
224.782	20.224	884.689	689.651
225.796	20.110	884.110	688.688
226.811	19.424	883.080	685.099
227.826	19.036	881.440	682.232
228.840	19.170	880.920	682.297
229.855	19.202	880.165	681.781
230.869	18.939	879.123	679.874
231.884	19.242	879.421	681.239
232.899	20.005	878.939	683.822
233.913	19.880	878.649	683.043
234.928	20.028	877.755	682.868
235.942	19.762	877.277	681.390
236.957	19.434	876.496	679.430
237.972	19.563	876.005	679.498
238.986	19.826	875.069	679.744
240.001	19.717	874.501	678.818
241.015	19.812	873.985	678.730
242.030	19.828	873.212	678.131
243.045	19.909	873.261	678.424
244.059	20.070	872.498	678.402
245.074	19.836	871.449	676.612
246.088	19.606	870.255	674.727
247.103	19.856	870.189	675.595
248.117	20.458	870.019	677.750
249.132	20.512	869.207	677.270
250.147	20.602	868.695	677.161
251.161	20.825	868.298	677.659
252.176	20.648	868.109	676.762
253.190	20.824	867.161	676.649
254.205	20.896	866.654	676.473
255.220	20.992	865.806	676.121
256.234	20.766	864.835	674.428
257.249	20.533	864.193	672.965
258.263	20.684	863.299	672.796
259.278	20.735	862.927	672.642
260.293	20.792	862.663	672.597
261.307	20.655	861.922	671.429
262.322	20.473	860.702	669.719
263.336	19.621	858.763	664.874
264.351	18.655	857.196	659.891
265.366	18.759	857.014	660.092
266.380	19.841	857.599	664.642
267.395	20.288	857.392	666.139
268.409	20.184	856.650	665.106
269.424	20.534	855.760	665.696
270.439	20.457	855.846	665.407
271.453	20.543	854.841	664.896
272.468	20.791	854.610	665.608
273.482	20.995	854.170	665.985
274.497	20.410	852.904	662.708
275.512	20.230	851.665	661.000
276.526	20.598	851.925	662.546
277.541	20.790	851.520	662.902
278.555	20.299	850.118	659.886
279.570	20.338	849.326	659.360
280.585	20.495	848.884	659.555
281.599	20.328	848.270	658.387
282.614	19.849	846.949	655.488
283.628	19.879	846.579	655.259
284.643	20.187	846.254	656.116
285.657	19.855	845.074	653.886
286.672	19.601	844.581	652.489
287.687	20.262	844.153	654.595
288.701	20.150	843.734	653.790
289.716	19.921	842.744	652.101
290.730	19.871	841.963	651.250
291.745	19.617	841.201	649.648
292.760	19.955	841.056	650.750
293.774	20.868	841.409	654.399
294.789	21.180	841.001	655.194
295.803	21.185	840.381	654.673
296.818	21.296	839.613	654.432
297.833	20.869	838.972	652.273
298.847	20.723	837.874	650.818
299.862	20.865	838.012	651.397
300.876	21.199	837.600	652.266
301.891	21.012	836.661	650.783
302.906	20.520	835.727	648.161
303.920	20.719	835.212	648.448
304.935	20.991	835.181	649.377
305.949	20.988	834.588	648.849
306.964	20.960	833.607	647.925
307.979	20.821	833.227	647.054
308.993	21.393	832.808	648.795
310.008	21.270	832.220	647.825
311.022	20.959	831.714	646.221
312.037	20.931	830.794	645.345
313.052	20.659	830.062	643.713
314.066	19.920	828.552	639.756
315.081	19.409	828.473	637.750
316.095	20.468	828.128	641.338
317.110	20.850	828.211	642.756
318.125	19.989	826.826	638.451
319.139	19.200	825.063	634.131
320.154	19.133	825.040	633.810
321.168	19.920	825.481	636.990
322.183	20.542	825.048	638.885
323.197	20.747	825.147	639.659
324.212	20.833	824.719	639.588
325.227	21.068	824.085	639.899
326.241	20.941	823.294	638.765
327.256	20.793	822.273	637.374
328.270	20.670	821.891	636.571
329.285	20.520	821.040	635.308
330.300	20.420	820.349	634.353
331.314	20.713	820.123	635.191
332.329	20.979	819.785	635.844
333.343	21.066	819.535	635.907
334.358	20.922	819.344	635.180
335.373	21.118	819.099	635.650
336.387	21.368	818.717	636.206
337.402	21.400	818.422	636.037
338.416	21.339	817.880	635.336
339.431	21.428	817.905	635.623
340.446	21.537	817.153	635.377
341.460	21.328	816.727	634.234
342.475	21.211	816.121	633.283
343.489	21.250	816.090	633.344
344.504	21.599	816.002	634.484
345.519	21.649	815.752	634.415
346.533	21.734	814.842	633.960
347.548	21.666	814.572	633.445
348.562	21.694	813.683	632.800
349.577	21.683	813.301	632.406
350.592	21.695	812.847	632.041
351.606	21.686	811.797	631.137
352.621	21.743	810.764	630.484
353.635	21.484	810.291	629.127
354.650	20.955	808.471	625.762
355.665	19.965	807.083	621.081
356.679	20.467	807.484	623.135
357.694	20.870	806.837	624.024
358.708	20.702	806.007	622.726
359.723	21.025	806.125	623.921
360.738	21.402	805.915	625.048
361.752	21.772	805.205	625.764
362.767	21.879	804.639	625.650
363.781	22.048	804.113	625.788
364.796	22.023	804.176	625.695
365.810	22.134	803.718	625.676
366.825	22.125	802.929	624.976
367.840	21.694	802.631	623.156
368.854	21.354	801.487	621.005
369.869	21.498	801.199	621.239
370.883	21.460	800.815	620.748
371.898	21.523	799.954	620.252
372.913	21.536	799.815	620.136
373.927	21.503	799.895	620.026
374.942	21.790	799.140	620.399
375.956	21.899	798.633	620.338
376.971	21.903	798.678	620.332
377.986	22.145	798.332	620.862
379.000	22.038	797.260	619.596
380.015	21.697	797.241	618.323
381.029	21.830	796.537	618.192
382.044	22.069	795.997	618.562
383.059	22.081	795.103	617.853
384.073	22.052	795.273	617.827
385.088	22.151	794.367	617.416
386.102	21.858	793.966	616.023
387.117	21.885	793.104	615.395
388.132	21.423	792.165	612.991
389.146	21.257	790.997	611.454
390.161	21.465	791.044	612.162
391.175	21.754	790.836	612.958
392.190	21.376	789.863	610.830
393.205	20.128	787.907	604.911
394.219	18.950	786.158	599.410
395.234	18.911	786.436	599.432
396.248	20.469	787.820	605.873
397.263	21.703	788.289	610.484
398.278	21.768	787.486	610.032
399.292	21.552	787.301	609.085
400.307	21.611	786.657	608.735
401.321	21.694	785.938	608.413
402.336	21.947	785.791	609.127
403.350	22.315	786.097	610.585
404.365	22.513	785.642	610.864
405.380	22.641	785.340	611.020
406.394	22.835	784.612	611.072
407.409	22.714	784.196	610.273
408.423	22.563	783.881	609.453
409.438	22.776	783.569	609.895
410.453	22.713	783.109	609.263
411.467	22.629	782.600	608.523
412.482	22.654	782.244	608.280
413.496	22.730	782.055	608.342
414.511	22.768	781.593	608.059
415.526	22.775	780.862	607.460
416.540	22.679	780.092	606.478
417.555	22.288	779.463	604.590
418.569	22.431	779.405	604.983
419.584	22.413	778.950	604.516
420.599	22.245	778.155	603.266
421.613	159.456	1362.385	1799.284
422.628	137.792	1447.500	1799.358
