DTS Sentinel unit serial number:	SN413079Multiplexer serial number:	ORYXHardware model number:	OX4-SRSoftware version number:	ORYX F/W v4.00 Oryx Data Collector v3.7.2.0data status	okinstallation	princeton_trtdifferential loss correction	single-endedforward channel	channel 1reverse channel	N/Adate	2019/09/11time	08:24:11forward acquisition time	60.00reverse acquisition time	0.00gamma	496.2192k internal	0.2318k external	0.2318temperature offset calibration	0.9949default loss term (dB/km)	0.3790temperature slope calibration	1.0000multiplexer offset coefficient	1.0000multiplexer slope coefficient	1.0000fibre end	0.00T internal ref (°C)	32.87T ext. ref 1 (°C)	0.07T ext. ref 2 (°C)	30.65length (m)	temperature (°C)	Stokes	anti-Stokes-747.200	-200.000	0.024	0.129
-746.185	51.544	0.167	-0.161
-745.171	62.290	-0.171	0.172
-744.156	-200.000	-0.018	0.296
-743.142	1.731	0.076	0.056
-742.127	-4.363	0.168	0.118
-741.112	-28.161	-0.359	0.210
-740.098	621.476	-0.098	0.248
-739.083	-200.000	-0.036	0.425
-738.069	-141.521	0.295	0.030
-737.054	499.733	-0.086	0.202
-736.039	17.010	-0.178	-0.143
-735.025	187.760	0.025	0.038
-734.010	-200.000	-0.017	-0.186
-732.996	89.414	-0.291	0.328
-731.981	800.000	-0.046	0.169
-730.966	200.341	0.138	-0.214
-729.952	-39.354	-0.171	0.091
-728.937	-26.896	-0.109	0.065
-727.923	-53.711	-0.447	-0.207
-726.908	-156.442	-0.071	-0.004
-725.894	37.642	0.159	-0.143
-724.879	-200.000	-0.022	-0.199
-723.864	-51.788	-0.139	-0.065
-722.850	-113.466	-0.280	0.056
-721.835	192.821	-0.268	-0.410
-720.821	-101.148	0.082	0.020
-719.806	192.979	-0.175	-0.267
-718.791	800.000	-0.038	-0.125
-717.777	-200.000	-0.003	-0.149
-716.762	24.091	0.276	-0.231
-715.748	-98.905	0.166	-0.043
-714.733	-162.517	-0.405	-0.020
-713.718	-121.309	-0.207	0.035
-712.704	-200.000	-0.016	0.077
-711.689	-121.815	-0.212	-0.035
-710.675	-200.000	-0.049	-0.327
-709.660	-129.922	0.548	0.076
-708.645	-200.000	-0.011	-0.269
-707.631	800.000	-0.084	0.255
-706.616	-23.527	0.255	-0.155
-705.602	178.745	0.021	-0.031
-704.587	-34.712	0.081	-0.045
-703.572	127.846	-0.172	0.221
-702.558	-200.000	0.030	-0.213
-701.543	800.000	0.072	0.277
-700.529	-20.361	0.425	-0.264
-699.514	-200.000	-0.035	0.156
-698.499	-159.469	0.248	0.014
-697.485	-6.454	0.100	-0.069
-696.470	-200.000	0.011	0.287
-695.456	20.107	0.081	-0.066
-694.441	-106.321	0.046	-0.010
-693.426	103.540	0.066	0.078
-692.412	-47.675	-0.140	-0.069
-691.397	-200.000	-0.032	-0.176
-690.383	22.260	-0.259	-0.214
-689.368	800.000	-0.145	-0.439
-688.354	800.000	-0.103	-0.345
-687.339	244.110	-0.140	-0.237
-686.324	107.099	0.169	0.203
-685.310	119.954	-0.330	-0.413
-684.295	-126.578	-0.081	-0.012
-683.281	-55.819	0.097	0.044
-682.266	57.524	-0.121	-0.119
-681.251	59.504	0.231	0.230
-680.237	800.000	0.090	-0.311
-679.222	65.587	0.165	0.169
-678.208	223.457	0.081	-0.132
-677.193	346.459	-0.197	-0.392
-676.178	-156.893	0.178	-0.011
-675.164	-149.249	-0.497	-0.040
-674.149	3.643	0.183	0.135
-673.135	581.155	-0.144	0.356
-672.120	228.707	0.076	0.125
-671.105	-104.351	-0.262	-0.061
-670.091	288.240	0.114	0.208
-669.076	67.915	0.135	-0.140
-668.062	316.252	-0.075	0.144
-667.047	341.675	0.161	0.318
-666.032	-200.000	-0.092	-0.642
-665.018	-200.000	0.068	0.339
-664.003	220.702	-0.121	-0.197
-662.989	27.012	-0.089	-0.075
-661.974	378.475	-0.037	-0.077
-660.959	800.000	-0.074	-0.250
-659.945	800.000	-0.059	0.182
-658.930	-200.000	0.012	-0.107
-657.916	-50.250	0.126	-0.060
-656.901	515.356	0.065	0.153
-655.886	17.622	0.140	0.112
-654.872	-200.000	-0.065	0.399
-653.857	800.000	-0.024	0.103
-652.843	-200.000	-0.004	-0.109
-651.828	52.170	0.035	0.034
-650.814	800.000	0.047	0.151
-649.799	-200.000	0.051	0.269
-648.784	-158.785	0.349	-0.020
-647.770	-117.978	0.278	0.050
-646.755	-167.182	0.144	-0.006
-645.741	-160.420	-0.211	-0.011
-644.726	800.000	-0.073	-0.280
-643.711	-200.000	0.050	-0.226
-642.697	-35.772	-0.181	-0.099
-641.682	-36.360	0.258	0.140
-640.668	800.000	-0.062	0.246
-639.653	652.230	-0.153	-0.394
-638.638	800.000	0.088	-0.302
-637.624	800.000	0.079	-0.268
-636.609	-200.000	-0.004	0.382
-635.595	-75.401	0.091	0.033
-634.580	-200.000	-0.014	0.092
-633.565	-200.000	-0.060	-0.330
-632.551	-101.697	-0.308	0.075
-631.536	-200.000	0.040	0.256
-630.522	141.845	-0.159	-0.212
-629.507	330.703	0.089	-0.172
-628.492	470.619	0.146	0.331
-627.478	800.000	-0.061	0.237
-626.463	-68.170	0.150	-0.059
-625.449	800.000	-0.045	-0.173
-624.434	183.928	0.141	-0.211
-623.419	25.172	0.133	0.111
-622.405	-134.970	-0.176	0.021
-621.390	800.000	-0.027	0.075
-620.376	730.486	0.047	-0.128
-619.361	800.000	0.028	-0.078
-618.346	-70.428	0.190	-0.073
-617.332	-200.000	-0.026	-0.213
-616.317	-167.932	-0.136	0.005
-615.303	-100.418	0.205	-0.051
-614.288	-200.000	-0.031	-0.252
-613.273	0.285	-0.138	-0.099
-612.259	-48.018	0.146	0.071
-611.244	-55.954	-0.298	0.134
-610.230	200.369	0.134	-0.208
-609.215	250.865	0.062	0.107
-608.201	188.773	-0.059	-0.089
-607.186	740.272	0.061	0.164
-606.171	63.220	-0.060	0.060
-605.157	-133.764	-0.077	-0.010
-604.142	-200.000	-0.006	0.263
-603.128	19.740	-0.169	-0.137
-602.113	167.484	0.128	0.184
-601.098	311.061	-0.142	0.269
-600.084	-150.784	-0.174	-0.013
-599.069	800.000	-0.061	0.177
-598.055	-200.000	0.002	0.141
-597.040	-40.814	0.286	-0.149
-596.025	120.024	0.075	0.093
-595.011	299.961	0.085	0.158
-593.996	-101.363	0.359	-0.088
-592.982	-11.436	0.286	0.189
-591.967	-104.799	0.206	-0.048
-590.952	705.207	0.084	-0.224
-589.938	-150.551	-0.298	0.023
-588.923	143.507	0.039	-0.052
-587.909	55.878	0.080	0.078
-586.894	138.607	0.066	0.087
-585.879	-7.788	0.165	-0.112
-584.865	-200.000	0.056	-0.348
-583.850	800.000	-0.108	-0.314
-582.836	-31.946	0.200	0.113
-581.821	-105.682	-0.082	0.019
-580.806	-56.376	-0.208	0.093
-579.792	6.906	0.242	0.181
-578.777	168.992	0.089	0.127
-577.763	-26.466	0.271	0.160
-576.748	-35.687	-0.137	-0.075
-575.733	800.000	0.115	-0.431
-574.719	38.937	-0.194	-0.175
-573.704	-200.000	-0.083	-0.494
-572.690	512.972	0.019	-0.046
-571.675	-15.585	0.316	-0.203
-570.661	-90.908	-0.497	-0.144
-569.646	22.805	-0.160	-0.132
-568.631	-200.000	-0.016	0.280
-567.617	800.000	0.034	-0.145
-566.602	-200.000	0.002	-0.105
-565.588	-36.988	-0.094	0.051
-564.573	15.386	0.140	0.110
-563.558	-200.000	-0.035	-0.215
-562.544	800.000	0.033	0.106
-561.529	-121.070	0.156	-0.026
-560.515	69.940	-0.178	-0.185
-559.500	-13.489	0.071	0.046
-558.485	-33.306	-0.324	-0.180
-557.471	51.013	-0.042	0.040
-556.456	800.000	0.102	-0.374
-555.442	800.000	0.047	0.175
-554.427	-121.106	0.321	0.054
-553.412	106.113	-0.045	-0.053
-552.398	221.671	-0.020	-0.032
-551.383	800.000	-0.031	-0.130
-550.369	-200.000	0.003	0.099
-549.354	-72.611	-0.277	0.103
-548.339	-179.969	0.048	0.001
-547.325	370.149	-0.072	0.146
-546.310	33.619	-0.211	0.184
-545.296	800.000	0.084	0.341
-544.281	-92.736	0.390	0.110
-543.266	-78.490	0.204	0.070
-542.252	118.860	0.241	-0.299
-541.237	-110.346	0.210	-0.044
-540.223	-2.159	0.132	-0.093
-539.208	401.098	0.197	-0.415
-538.193	261.251	-0.152	-0.264
-537.179	48.148	-0.119	-0.112
-536.164	-53.294	0.293	-0.135
-535.150	-153.732	-0.389	-0.027
-534.135	800.000	0.024	0.086
-533.121	800.000	0.046	-0.166
-532.106	32.399	0.240	-0.208
-531.091	291.282	0.115	0.209
-530.077	-175.666	-0.302	-0.008
-529.062	-150.320	0.150	0.012
-528.048	-93.290	-0.085	-0.024
-527.033	-142.095	0.252	0.025
-526.018	800.000	-0.046	0.174
-525.004	313.849	0.035	0.066
-523.989	-54.713	0.134	-0.061
-522.975	-129.373	-0.059	-0.008
-521.960	-200.000	0.018	0.408
-520.945	-142.240	-0.179	-0.018
-519.931	695.376	0.079	-0.207
-518.916	-0.372	-0.371	0.264
-517.902	-120.688	-0.096	-0.016
-516.887	-200.000	0.014	-0.280
-515.872	-169.166	0.124	-0.005
-514.858	365.239	0.102	-0.206
-513.843	-139.665	0.111	-0.012
-512.829	-71.768	0.042	-0.016
-511.814	-167.101	-0.171	0.007
-510.799	49.581	0.174	0.164
-509.785	-29.128	0.142	0.082
-508.770	-60.417	0.263	-0.112
-507.756	-138.560	-0.446	0.049
-506.741	-200.000	-0.064	0.333
-505.726	47.796	0.228	-0.214
-504.712	-110.459	0.217	0.045
-503.697	-200.000	-0.099	-0.516
-502.683	-33.092	0.129	-0.072
-501.668	-200.000	0.018	-0.121
-500.653	-180.972	0.032	0.001
-499.639	-200.000	-0.027	0.132
-498.624	-200.000	-0.016	0.094
-497.610	26.455	-0.189	0.159
-496.595	76.297	-0.153	0.162
-495.581	800.000	0.124	0.468
-494.566	8.611	0.207	-0.157
-493.551	27.786	-0.165	-0.139
-492.537	800.000	-0.089	0.340
-491.522	-24.187	-0.160	0.096
-490.508	-165.198	0.256	0.011
-489.493	-200.000	-0.005	0.179
-488.478	105.276	0.311	0.368
-487.464	81.082	-0.067	0.072
-486.449	-59.294	-0.465	0.201
-485.435	-145.757	-0.276	-0.025
-484.420	198.186	-0.096	0.147
-483.405	-67.268	0.214	0.084
-482.391	213.284	-0.057	0.090
-481.376	516.179	0.145	-0.339
-480.362	86.150	-0.148	-0.164
-479.347	-200.000	0.018	0.221
-478.332	-200.000	0.054	-0.278
-477.318	-132.839	0.174	0.022
-476.303	-200.000	0.052	-0.234
-475.289	800.000	-0.030	0.083
-474.274	-200.000	0.033	-0.203
-473.259	-107.825	-0.305	0.067
-472.245	-200.000	-0.035	-0.235
-471.230	-112.534	-0.196	0.039
-470.216	-166.616	0.195	-0.008
-469.201	-85.079	0.280	-0.088
-468.186	-140.461	0.312	0.033
-467.172	800.000	-0.070	0.241
-466.157	-120.703	0.261	0.044
-465.143	-14.074	-0.018	-0.012
-464.128	43.008	0.267	0.244
-463.113	554.859	0.090	-0.217
-462.099	-21.534	-0.064	0.039
-461.084	11.717	0.287	-0.220
-460.070	800.000	0.095	-0.322
-459.055	95.459	0.053	-0.060
-458.040	-35.611	-0.110	0.060
-457.026	-200.000	0.024	-0.304
-456.011	-200.000	-0.003	0.141
-454.997	-200.000	-0.002	0.178
-453.982	-147.794	0.166	-0.014
-452.968	0.746	0.135	-0.096
-451.953	-116.096	-0.071	-0.013
-450.938	65.304	-0.184	0.186
-449.924	-200.000	-0.025	-0.174
-448.909	2.176	-0.343	-0.248
-447.895	214.459	0.049	-0.077
-446.880	-113.851	0.281	-0.055
-445.865	-200.000	-0.051	0.277
-444.851	-21.028	0.170	0.104
-443.836	800.000	-0.073	-0.225
-442.822	168.124	0.153	-0.218
-441.807	-200.000	-0.019	0.164
-440.792	800.000	-0.064	0.267
-439.778	-180.840	-0.214	0.004
-438.763	156.880	0.147	0.203
-437.749	-186.085	0.064	0.001
-436.734	31.801	0.210	-0.181
-435.719	97.619	-0.038	0.044
-434.705	-37.420	0.107	0.057
-433.690	-0.719	-0.203	0.144
-432.676	-200.000	0.011	-0.187
-431.661	177.813	0.089	-0.130
-430.646	-99.903	0.358	0.089
-429.632	-200.000	-0.001	0.156
-428.617	-103.142	0.203	-0.048
-427.603	71.996	-0.114	-0.119
-426.588	319.666	0.184	0.350
-425.573	146.135	-0.132	0.177
-424.559	-200.000	-0.012	-0.145
-423.544	-28.481	0.327	0.188
-422.530	-116.934	-0.070	0.013
-421.515	800.000	0.088	0.242
-420.500	-112.668	0.093	-0.018
-419.486	-194.825	0.273	0.002
-418.471	-41.106	-0.453	0.234
-417.457	397.616	-0.058	0.121
-416.442	128.819	0.151	0.192
-415.428	-200.000	-0.007	-0.079
-414.413	35.111	0.194	-0.170
-413.398	-120.024	-0.211	0.036
-412.384	800.000	0.078	0.229
-411.369	16.421	0.234	0.184
-410.355	-148.701	0.185	-0.015
-409.340	-9.494	-0.339	0.226
-408.325	-13.982	-0.262	-0.169
-407.311	119.402	0.082	-0.102
-406.296	800.000	0.018	-0.061
-405.282	-42.262	-0.244	-0.125
-404.267	-200.000	-0.005	-0.117
-403.252	37.254	0.257	0.227
-402.238	42.192	0.112	0.102
-401.223	21.424	0.242	-0.197
-400.209	295.630	0.178	-0.325
-399.194	800.000	-0.160	-0.445
-398.179	-67.808	-0.141	0.055
-397.165	-60.406	-0.375	-0.159
-396.150	145.135	-0.102	-0.136
-395.136	292.625	0.191	-0.348
-394.121	-200.000	-0.027	0.139
-393.106	21.015	-0.228	-0.185
-392.092	88.280	0.184	-0.204
-391.077	-200.000	0.035	0.262
-390.063	440.159	-0.101	0.219
-389.048	-200.000	-0.060	0.288
-388.033	48.164	0.130	0.121
-387.019	-141.986	-0.464	-0.046
-386.004	246.446	0.098	0.166
-384.990	116.853	-0.097	-0.119
-383.975	-200.000	-0.000	0.206
-382.960	150.876	0.163	0.221
-381.946	-200.000	-0.009	0.259
-380.931	443.232	-0.058	-0.127
-379.917	25.476	0.333	0.276
-378.902	6.956	0.185	0.138
-377.888	-200.000	-0.064	0.283
-376.873	6.114	0.175	-0.130
-375.858	-200.000	0.006	0.143
-374.844	-109.604	-0.181	-0.038
-373.829	702.662	0.051	-0.135
-372.815	458.508	-0.121	-0.267
-371.800	-200.000	-0.013	-0.095
-370.785	-2.930	0.157	0.109
-369.771	268.051	0.215	0.376
-368.756	800.000	0.053	-0.221
-367.742	-32.837	0.044	-0.024
-366.727	-200.000	-0.018	0.224
-365.712	148.076	0.189	0.255
-364.698	6.203	0.227	-0.168
-363.683	61.820	0.222	-0.221
-362.669	22.987	-0.170	-0.139
-361.654	-78.626	0.406	0.138
-360.639	-200.000	-0.017	0.367
-359.625	-200.000	-0.036	0.274
-358.610	-78.305	0.231	0.079
-357.596	-123.088	-0.081	0.013
-356.581	-24.117	-0.152	-0.091
-355.566	-65.044	0.124	0.050
-354.552	-100.860	0.327	-0.080
-353.537	-48.061	0.195	-0.094
-352.523	422.622	-0.121	-0.259
-351.508	46.328	-0.270	0.249
-350.493	53.518	0.195	-0.187
-349.479	-44.020	-0.293	-0.147
-348.464	-200.000	-0.017	0.084
-347.450	97.095	-0.063	-0.072
-346.435	153.580	0.171	0.233
-345.420	-24.342	-0.163	-0.097
-344.406	-100.099	-0.217	0.054
-343.391	-200.000	0.019	0.167
-342.377	192.988	-0.273	-0.411
-341.362	288.679	-0.098	-0.177
-340.348	-83.718	0.133	-0.042
-339.333	-200.000	0.044	-0.494
-338.318	347.524	-0.212	-0.417
-337.304	177.310	-0.069	-0.100
-336.289	93.611	-0.196	0.222
-335.275	299.956	0.091	0.167
-334.260	374.903	-0.097	-0.197
-333.245	-81.137	-0.040	0.013
-332.231	-200.000	-0.044	-0.198
-331.216	22.995	-0.195	-0.160
-330.202	-126.098	0.258	0.039
-329.187	-104.120	-0.313	-0.073
-328.172	149.456	-0.165	0.223
-327.158	331.511	0.067	-0.129
-326.143	-138.384	0.371	-0.041
-325.129	-98.915	0.276	0.070
-324.114	122.703	-0.136	0.170
-323.099	-120.469	0.155	-0.026
-322.085	162.789	-0.128	-0.179
-321.070	51.636	-0.050	-0.047
-320.056	68.512	-0.211	0.215
-319.041	-52.347	0.305	0.141
-318.026	97.351	-0.180	-0.205
-317.012	549.115	-0.150	-0.357
-315.997	45.167	-0.085	0.078
-314.983	2.022	-0.376	-0.270
-313.968	117.824	-0.172	-0.211
-312.953	365.757	-0.152	0.305
-311.939	800.000	0.057	0.220
-310.924	-88.345	0.183	0.054
-309.910	-200.000	-0.060	0.266
-308.895	-135.812	-0.334	-0.039
-307.880	-72.244	-0.180	0.066
-306.866	522.092	-0.028	-0.065
-305.851	-100.755	-0.439	0.108
-304.837	-145.968	-0.308	0.027
-303.822	-164.882	0.239	-0.011
-302.807	415.480	-0.108	0.230
-301.793	800.000	-0.084	0.239
-300.778	600.946	0.036	-0.088
-299.764	147.277	0.056	0.076
-298.749	-125.706	-0.402	0.061
-297.735	49.085	-0.400	0.373
-296.720	-23.198	-0.178	0.106
-295.705	-157.231	0.448	-0.027
-294.691	-153.741	-0.141	0.010
-293.676	16.633	-0.174	0.137
-292.662	51.889	-0.260	0.246
-291.647	-149.191	-0.401	-0.032
-290.632	359.046	0.156	-0.310
-289.618	-33.035	-0.238	-0.131
-288.603	-23.213	-0.167	0.100
-287.589	-200.000	0.061	0.460
-286.574	52.204	-0.080	0.076
-285.559	-174.141	-0.198	-0.006
-284.545	178.896	0.111	-0.162
-283.530	-8.841	0.163	0.109
-282.516	284.335	-0.105	-0.187
-281.501	-200.000	-0.046	-0.369
-280.486	-75.641	-0.093	-0.033
-279.472	56.771	0.192	-0.186
-278.457	800.000	0.069	-0.263
-277.443	157.203	-0.323	0.444
-276.428	-200.000	-0.076	-0.334
-275.413	-145.121	0.300	-0.027
-274.399	-69.781	0.163	0.062
-273.384	93.282	0.266	0.299
-272.370	427.276	0.103	0.221
-271.355	-52.718	0.296	0.136
-270.340	-54.412	-0.316	-0.142
-269.326	-110.563	0.340	0.070
-268.311	8.101	-0.230	0.172
-267.297	800.000	0.051	-0.174
-266.282	320.878	-0.229	-0.433
-265.267	800.000	-0.166	0.551
-264.253	29.851	-0.148	0.125
-263.238	-52.701	-0.312	-0.143
-262.224	144.730	0.049	-0.066
-261.209	-157.271	-0.164	0.010
-260.195	-113.563	0.522	-0.101
-259.180	197.905	-0.161	-0.245
-258.165	113.794	-0.113	-0.136
-257.151	-14.454	-0.088	-0.057
-256.136	-200.000	0.006	0.213
-255.122	-169.019	0.053	0.002
-254.107	800.000	0.067	0.201
-253.092	427.981	0.135	-0.290
-252.078	800.000	0.078	-0.262
-251.063	-200.000	0.055	-0.243
-250.049	-13.325	0.154	0.099
-249.034	-141.984	0.108	0.011
-248.019	-200.000	-0.024	-0.121
-247.005	-179.006	-0.237	-0.005
-245.990	-200.000	-0.003	0.110
-244.976	-0.214	0.212	-0.149
-243.961	-200.000	0.052	-0.268
-242.946	-126.316	0.159	0.024
-241.932	-41.972	-0.096	0.049
-240.917	146.366	0.153	0.203
-239.903	-180.224	-0.156	0.003
-238.888	736.180	-0.050	-0.134
-237.873	-143.131	0.096	-0.009
-236.859	-171.621	-0.327	0.011
-235.844	-200.000	0.011	-0.087
-234.830	800.000	-0.082	-0.325
-233.815	336.620	-0.138	0.266
-232.800	365.700	0.101	0.201
-231.786	800.000	-0.082	0.245
-230.771	-93.204	-0.123	-0.034
-229.757	-164.539	-0.112	0.005
-228.742	-138.770	-0.342	0.037
-227.727	-49.516	0.342	0.162
-226.713	218.180	-0.175	-0.278
-225.698	6.352	-0.148	0.109
-224.684	-200.000	-0.005	-0.219
-223.669	-146.823	0.279	0.024
-222.655	-142.161	0.132	0.013
-221.640	48.038	0.047	0.044
-220.625	-191.496	0.308	-0.003
-219.611	156.020	-0.267	-0.365
-218.596	-61.387	-0.177	-0.074
-217.582	800.000	0.064	0.257
-216.567	551.873	0.046	0.110
-215.552	-46.937	0.049	0.024
-214.538	552.596	0.087	0.207
-213.523	-118.883	-0.153	0.027
-212.509	800.000	-0.080	-0.284
-211.494	-200.000	0.011	-0.130
-210.479	-79.104	0.202	-0.068
-209.465	28.749	0.307	0.258
-208.450	66.991	0.150	0.152
-207.436	-128.906	-0.251	0.035
-206.421	-75.467	-0.267	-0.094
-205.406	-155.219	0.138	-0.009
-204.392	-200.000	0.016	-0.185
-203.377	319.999	-0.072	0.136
-202.363	469.992	-0.042	-0.094
-201.348	-34.151	-0.325	0.177
-200.333	-200.000	-0.036	0.193
-199.319	307.089	0.083	0.154
-198.304	133.435	-0.079	-0.102
-197.290	58.414	0.106	-0.103
-196.275	-49.420	0.204	0.097
-195.260	-200.000	-0.014	-0.186
-194.246	-200.000	0.032	0.162
-193.231	327.637	0.106	-0.201
-192.217	110.306	-0.105	0.125
-191.202	-138.018	-0.148	0.016
-190.187	223.699	-0.134	0.214
-189.173	-200.000	-0.012	0.292
-188.158	-55.410	-0.226	0.100
-187.144	52.458	0.199	0.188
-186.129	-61.524	-0.414	-0.172
-185.114	151.665	0.155	-0.209
-184.100	800.000	-0.094	0.305
-183.085	35.526	-0.216	-0.188
-182.071	31.980	-0.093	0.080
-181.056	800.000	0.011	0.032
-180.042	-17.466	0.101	-0.063
-179.027	-16.511	0.094	-0.059
-178.012	-200.000	-0.011	0.210
-176.998	-32.129	-0.236	0.130
-175.983	293.261	-0.097	-0.175
-174.969	800.000	-0.130	-0.382
-173.954	152.833	0.101	0.137
-172.939	-200.000	-0.009	0.076
-171.925	-22.604	-0.070	0.042
-170.910	-200.000	-0.091	0.486
-169.896	-35.141	0.201	0.109
-168.881	-97.302	-0.373	-0.096
-167.866	-200.000	-0.037	-0.204
-166.852	17.407	0.313	0.246
-165.837	699.080	-0.041	0.108
-164.823	-84.380	-0.341	-0.107
-163.808	800.000	-0.043	-0.166
-162.793	346.814	-0.059	0.115
-161.779	30.627	0.131	-0.111
-160.764	768.034	-0.102	-0.275
-159.750	75.371	0.118	0.123
-158.735	24.174	-0.182	-0.149
-157.720	800.000	-0.045	0.157
-156.706	-56.107	-0.306	0.135
-155.691	-200.000	-0.006	0.026
-154.677	-140.489	0.358	0.037
-153.662	-0.939	0.039	0.027
-152.647	-146.784	0.211	-0.018
-151.633	-58.330	0.052	0.022
-150.618	457.652	-0.112	-0.246
-149.604	-96.365	-0.106	0.028
-148.589	52.767	0.030	-0.028
-147.574	82.963	-0.062	0.067
-146.560	88.758	0.092	0.101
-145.545	-78.025	0.202	-0.069
-144.531	-19.464	0.198	0.121
-143.516	20.698	0.082	-0.066
-142.502	432.814	0.146	-0.314
-141.487	-200.000	0.024	-0.145
-140.472	-200.000	0.015	-0.104
-139.458	-200.000	0.081	-0.414
-138.443	169.681	0.134	-0.189
-137.429	-200.000	0.001	-0.075
-136.414	634.956	0.073	0.182
-135.399	533.758	0.117	0.274
-134.385	-163.491	0.133	0.006
-133.370	58.309	-0.057	-0.056
-132.356	9.528	0.089	-0.066
-131.341	404.506	0.176	-0.366
-130.326	-40.291	0.215	0.111
-129.312	-200.000	0.005	-0.189
-128.297	-121.734	0.206	-0.034
-127.283	800.000	0.069	0.244
-126.268	-165.642	0.034	0.001
-125.253	188.774	-0.148	0.218
-124.239	800.000	0.063	-0.228
-123.224	-200.000	0.009	-0.190
-122.210	-186.311	-0.321	0.005
-121.195	-69.659	-0.254	-0.096
-120.180	-60.653	-0.352	0.147
-119.166	49.206	-0.174	-0.162
-118.151	7.962	-0.137	0.102
-117.137	-161.039	-0.226	-0.012
-116.122	-200.000	-0.018	0.156
-115.107	-200.000	0.002	0.029
-114.093	-146.166	-0.372	0.032
-113.078	45.672	0.154	-0.140
-112.064	115.373	-0.128	0.154
-111.049	-200.000	-0.016	0.217
-110.034	-147.751	0.137	-0.011
-109.020	-159.692	0.288	-0.016
-108.005	-22.654	-0.113	0.068
-106.991	-66.462	-0.339	0.133
-105.976	54.440	-0.039	-0.037
-104.962	259.875	0.239	-0.407
-103.947	61.521	-0.230	-0.226
-102.932	315.382	-0.061	0.114
-101.918	-143.232	-0.180	-0.017
-100.903	800.000	-0.050	0.138
-99.889	-200.000	0.021	0.180
-98.874	9.298	-0.145	-0.108
-97.859	-17.974	0.256	-0.158
-96.845	-200.000	0.059	0.450
-95.830	85.662	0.261	0.283
-94.816	-55.700	0.107	0.047
-93.801	536.180	0.125	-0.293
-92.786	-200.000	0.022	0.351
-91.772	636.591	-0.056	-0.141
-90.757	-200.000	0.014	0.123
-89.743	-103.520	0.061	-0.014
-88.728	96.383	0.218	0.246
-87.713	-143.141	0.342	-0.033
-86.699	3.740	0.159	0.115
-85.684	363.555	-0.129	0.256
-84.670	732.148	0.066	0.175
-83.655	90.365	0.030	-0.033
-82.640	-139.092	0.071	-0.008
-81.626	249.249	0.131	-0.219
-80.611	199.316	0.234	-0.353
-79.597	-83.689	-0.565	-0.178
-78.582	-105.957	0.058	-0.013
-77.567	-184.248	0.120	-0.002
-76.553	-9.530	-0.237	0.156
-75.538	517.023	0.028	0.065
-74.524	-64.793	0.082	-0.033
-73.509	-200.000	0.067	-0.406
-72.494	-94.931	0.345	0.092
-71.480	-25.354	0.287	0.167
-70.465	465.719	-0.107	-0.237
-69.451	-51.714	-0.055	0.025
-68.436	473.595	-0.120	-0.268
-67.422	116.557	-0.042	-0.051
-66.407	-31.236	0.261	0.145
-65.392	70.214	0.172	0.175
-64.378	95.781	-0.066	-0.075
-63.363	-9.304	0.242	-0.159
-62.349	-90.043	0.277	0.080
-61.334	71.813	-0.794	-0.814
-60.319	68.882	0.342	0.347
-59.305	467.685	-0.386	-0.854
-58.290	122.450	0.745	0.917
-57.276	202.420	0.773	1.176
-56.261	-200.000	102.746	647.195
-55.246	635.112	1452.353	3630.923
-54.232	178.526	2670.934	3843.605
-53.217	121.461	2194.105	2693.513
-52.203	45.263	1633.558	1484.191
-51.188	36.398	1366.159	1187.012
-50.173	33.165	1322.883	1130.086
-49.159	57.605	1375.201	1324.112
-48.144	60.644	1391.803	1358.473
-47.130	36.807	1344.599	1170.569
-46.115	33.121	1326.889	1133.060
-45.100	32.835	1322.024	1127.157
-44.086	32.853	1319.780	1125.305
-43.071	32.677	1317.570	1122.330
-42.057	32.648	1315.274	1120.156
-41.042	32.745	1313.358	1119.053
-40.027	32.758	1312.173	1118.080
-39.013	32.878	1309.559	1116.519
-37.998	32.859	1307.667	1114.749
-36.984	32.873	1306.223	1113.552
-35.969	32.761	1304.833	1111.662
-34.954	32.867	1302.819	1110.529
-33.940	32.970	1301.870	1110.283
-32.925	32.952	1300.288	1108.782
-31.911	32.981	1298.464	1107.353
-30.896	33.011	1296.993	1106.229
-29.881	32.967	1295.920	1105.015
-28.867	33.047	1294.126	1103.909
-27.852	32.952	1293.021	1102.367
-26.838	33.031	1291.532	1101.514
-25.823	33.006	1289.881	1099.913
-24.809	32.954	1288.443	1098.343
-23.794	33.014	1287.330	1097.700
-22.779	32.981	1286.351	1096.628
-21.765	32.979	1284.990	1095.417
-20.750	32.949	1283.526	1093.948
-19.736	32.931	1282.543	1092.966
-18.721	32.897	1280.694	1091.148
-17.706	32.815	1280.441	1090.418
-16.692	32.797	1279.118	1089.142
-15.677	32.840	1277.852	1088.271
-14.663	32.740	1276.689	1086.660
-13.648	32.830	1275.386	1086.027
-12.633	32.837	1274.462	1085.236
-11.619	32.690	1274.252	1084.170
-10.604	32.768	1273.021	1083.526
-9.590	32.686	1271.911	1082.066
-8.575	32.809	1270.834	1081.813
-7.560	32.822	1269.976	1081.113
-6.546	32.758	1269.067	1079.930
-5.531	32.731	1268.458	1079.218
-4.517	32.839	1267.188	1078.712
-3.502	32.777	1266.794	1077.975
-2.487	32.759	1265.411	1076.652
-1.473	32.857	1261.998	1074.269
-0.458	31.992	1247.044	1056.626
0.556	27.120	1229.809	1021.633
1.571	23.972	1236.161	1009.002
2.586	23.346	1251.424	1017.773
3.600	22.110	1239.917	1001.284
4.615	15.054	1163.949	901.966
5.629	4.666	1084.874	788.205
6.644	0.308	1064.173	751.397
7.659	0.028	1061.439	748.007
8.673	0.016	1060.106	746.944
9.688	-0.071	1058.681	745.445
10.702	0.385	1056.809	746.314
11.717	6.806	1066.995	785.455
12.731	16.691	1081.041	845.309
13.746	21.120	1086.672	871.812
14.761	21.803	1087.204	875.578
15.775	21.869	1086.472	875.235
16.790	21.570	1085.644	873.001
17.804	21.588	1085.048	872.533
18.819	21.549	1084.763	872.034
19.834	21.643	1084.662	872.343
20.848	21.806	1083.914	872.479
21.863	21.787	1083.053	871.613
22.877	21.667	1082.465	870.465
23.892	21.566	1082.176	869.655
24.907	21.677	1081.595	869.661
25.921	21.579	1080.393	868.134
26.936	21.675	1078.758	867.218
27.950	21.571	1077.050	865.255
28.965	21.573	1074.680	863.282
29.980	21.562	1073.599	862.286
30.994	21.726	1072.527	862.152
32.009	21.883	1070.975	861.601
33.023	21.590	1070.464	859.675
34.038	21.751	1069.210	859.383
35.053	21.808	1069.177	859.557
36.067	21.788	1067.899	858.358
37.082	21.799	1067.563	858.067
38.096	22.030	1066.523	858.280
39.111	21.868	1065.988	856.985
40.126	21.853	1064.277	855.462
41.140	21.579	1062.245	852.416
42.155	21.227	1061.243	849.824
43.169	21.397	1060.591	850.054
44.184	21.449	1058.991	848.948
45.199	21.161	1058.044	846.718
46.213	21.340	1057.272	846.894
47.228	21.394	1056.329	846.326
48.242	21.551	1055.241	846.135
49.257	21.675	1054.409	845.993
50.271	21.779	1053.419	845.627
51.286	21.696	1053.065	844.866
52.301	21.758	1051.948	844.195
53.315	21.680	1051.303	843.226
54.330	21.567	1050.183	841.711
55.344	21.669	1049.586	841.647
56.359	21.674	1048.034	840.352
57.374	21.669	1047.033	839.453
58.388	21.617	1046.275	838.520
59.403	21.393	1045.887	837.063
60.417	21.371	1044.411	835.700
61.432	21.441	1044.189	835.784
62.447	21.352	1043.423	834.673
63.461	21.561	1042.616	834.949
64.476	21.477	1041.955	833.948
65.490	21.397	1040.679	832.473
66.505	21.492	1039.937	832.256
67.520	21.555	1039.427	832.073
68.534	21.389	1038.098	830.147
69.549	20.956	1037.041	827.174
70.563	21.071	1036.218	826.991
71.578	21.016	1035.701	826.245
72.593	20.902	1034.321	824.530
73.607	21.099	1033.983	825.119
74.622	21.299	1033.801	825.847
75.636	21.332	1032.626	824.989
76.651	21.231	1031.654	823.666
77.666	21.217	1030.841	822.877
78.680	21.228	1030.399	822.503
79.695	21.275	1030.005	822.337
80.709	21.427	1028.972	822.158
81.724	21.325	1028.392	821.140
82.739	21.356	1027.722	820.677
83.753	21.763	1026.835	821.805
84.768	21.902	1026.012	821.726
85.782	22.097	1025.346	822.030
86.797	22.076	1023.846	820.661
87.812	21.725	1023.387	818.581
88.826	21.987	1022.314	818.870
89.841	21.994	1021.270	817.993
90.855	21.945	1020.304	816.919
91.870	21.980	1019.348	816.246
92.884	21.855	1018.286	814.742
93.899	21.886	1016.981	813.770
94.914	22.066	1016.239	813.938
95.928	21.846	1014.796	811.691
96.943	21.556	1013.928	809.585
97.957	21.206	1013.083	807.220
98.972	21.255	1011.300	805.956
99.987	21.381	1011.193	806.380
101.001	21.656	1010.349	806.904
102.016	21.547	1009.536	805.682
103.030	21.623	1007.928	804.673
104.045	21.377	1007.989	803.523
105.060	21.198	1006.683	801.588
106.074	21.504	1006.080	802.439
107.089	21.837	1005.511	803.439
108.103	21.749	1004.190	801.912
109.118	21.358	1003.294	799.337
110.133	21.517	1002.264	799.172
111.147	21.227	1000.733	796.560
112.162	21.346	998.909	795.578
113.176	21.544	998.428	796.025
114.191	21.228	998.189	794.329
115.206	21.020	997.095	792.441
116.220	21.140	996.016	792.059
117.235	21.246	994.918	791.597
118.249	21.120	994.253	790.427
119.264	21.168	993.086	789.646
120.279	21.118	992.840	789.153
121.293	21.277	991.669	788.870
122.308	21.246	990.505	787.734
123.322	21.141	989.431	786.341
124.337	21.040	987.846	784.556
125.352	20.457	986.870	781.091
126.366	20.505	985.700	780.312
127.381	21.209	985.822	783.498
128.395	21.572	985.209	784.568
129.410	21.624	984.611	784.257
130.424	21.771	983.087	783.631
131.439	21.760	982.081	782.709
132.454	21.644	981.711	781.827
133.468	21.669	980.318	780.761
134.483	21.789	979.530	780.601
135.497	21.959	978.821	780.721
136.512	21.954	977.961	779.945
137.527	21.986	977.204	779.416
138.541	21.958	976.400	778.578
139.556	21.966	975.713	777.995
140.570	21.881	974.998	776.983
141.585	21.911	973.823	776.108
142.600	21.894	972.711	775.079
143.614	22.273	972.207	776.281
144.629	22.232	971.578	775.531
145.643	22.029	970.025	773.327
146.658	21.872	968.801	771.596
147.673	21.986	967.202	770.752
148.687	21.715	966.623	769.034
149.702	21.685	965.577	768.005
150.716	21.721	964.360	767.124
151.731	21.781	964.097	767.109
152.746	21.994	963.863	767.786
153.760	22.094	962.958	767.437
154.775	22.148	962.233	767.027
155.789	22.092	961.374	766.029
156.804	22.091	960.440	765.210
157.819	21.974	959.675	764.024
158.833	22.178	959.091	764.380
159.848	22.173	958.042	763.455
160.862	22.004	956.545	761.461
161.877	22.063	956.078	761.279
162.892	22.129	954.745	760.434
163.906	22.087	953.613	759.285
164.921	22.113	952.807	758.687
165.935	22.009	951.999	757.529
166.950	22.015	950.890	756.607
167.964	22.032	950.383	756.210
168.979	21.955	949.098	754.788
169.994	21.792	948.201	753.305
171.008	22.129	947.817	754.384
172.023	22.268	946.506	753.868
173.037	21.935	945.797	751.809
174.052	21.731	944.514	749.850
175.067	21.851	944.231	750.073
176.081	21.909	943.692	749.828
177.096	21.901	942.579	748.842
178.110	21.551	942.292	747.054
179.125	21.501	941.154	745.873
180.140	21.484	941.056	745.656
181.154	21.716	940.077	745.802
182.169	21.970	940.299	746.993
183.183	22.078	940.123	747.246
184.198	21.804	939.004	745.128
185.213	21.972	938.109	745.067
186.227	22.175	937.410	745.306
187.242	22.058	936.851	744.299
188.256	22.198	935.630	743.853
189.271	22.219	935.148	743.495
190.286	21.842	934.279	741.144
191.300	21.240	933.156	737.648
192.315	20.567	931.458	733.402
193.329	20.518	931.016	732.782
194.344	21.437	931.442	736.929
195.359	21.943	931.247	738.837
196.373	22.012	930.834	738.737
197.388	21.942	929.840	737.589
198.402	21.921	929.620	737.261
199.417	22.038	928.693	736.951
200.432	21.813	927.252	734.799
201.446	21.605	926.814	733.515
202.461	21.484	926.214	732.467
203.475	20.690	924.399	727.648
204.490	20.019	922.738	723.477
205.504	20.939	923.474	727.831
206.519	21.538	923.282	730.117
207.534	21.656	922.734	730.112
208.548	21.989	922.753	731.447
209.563	21.884	921.559	730.000
210.577	21.778	921.086	729.119
211.592	22.220	920.658	730.553
212.607	22.044	919.768	729.054
213.621	22.180	918.840	728.816
214.636	22.211	918.098	728.293
215.650	21.986	917.697	726.979
216.665	22.249	916.985	727.436
217.680	22.160	916.351	726.503
218.694	21.738	914.636	723.337
219.709	21.541	914.344	722.231
220.723	21.908	913.700	723.170
221.738	21.808	913.644	722.648
222.753	21.813	912.921	722.035
223.767	22.095	912.054	722.446
224.782	22.236	911.765	722.731
225.796	22.225	911.379	722.315
226.811	21.578	909.550	718.150
227.826	21.085	908.688	715.384
228.840	21.152	907.995	715.048
229.855	21.282	907.236	714.921
230.869	20.826	906.551	712.452
231.884	21.304	906.127	714.011
232.899	21.949	906.418	716.814
233.913	21.831	906.050	715.977
234.928	22.020	904.952	715.817
235.942	21.908	904.166	714.674
236.957	21.633	902.979	712.554
237.972	21.534	902.737	711.897
238.986	21.858	902.364	712.856
240.001	21.626	901.661	711.294
241.015	21.893	900.747	711.597
242.030	21.992	900.593	711.810
243.045	21.975	899.984	711.197
244.059	22.155	899.462	711.451
245.074	21.952	898.459	709.775
246.088	21.699	897.595	708.008
247.103	21.838	897.437	708.382
248.117	22.482	897.218	710.745
249.132	22.609	896.874	710.923
250.147	22.575	896.470	710.404
251.161	22.942	895.783	711.273
252.176	22.853	894.960	710.198
253.190	22.810	894.689	709.750
254.205	22.948	894.418	710.023
255.220	22.892	893.862	709.295
256.234	22.798	892.965	708.145
257.249	22.628	891.661	706.365
258.263	22.872	891.071	706.814
259.278	22.900	890.447	706.369
260.293	22.848	890.178	705.882
261.307	22.679	889.414	704.538
262.322	22.649	888.538	703.664
263.336	21.738	886.488	698.349
264.351	20.798	884.490	692.976
265.366	20.942	884.165	693.233
266.380	22.141	884.801	698.438
267.395	22.374	884.682	699.207
268.409	22.300	884.009	698.321
269.424	22.632	883.214	698.948
270.439	22.654	882.539	698.438
271.453	22.837	881.938	698.624
272.468	22.901	881.442	698.425
273.482	22.974	881.128	698.401
274.497	22.433	880.261	695.516
275.512	22.157	879.027	693.389
276.526	22.586	879.419	695.331
277.541	22.594	879.009	694.976
278.555	22.613	878.281	694.414
279.570	22.352	877.400	692.629
280.585	22.369	876.814	692.173
281.599	22.503	875.818	691.852
282.614	22.003	874.155	688.516
283.628	22.018	873.642	688.111
284.643	22.269	873.629	689.025
285.657	22.064	871.938	686.828
286.672	21.727	871.181	684.854
287.687	22.194	871.456	686.834
288.701	22.251	870.692	686.392
289.716	21.923	870.207	684.671
290.730	21.911	869.749	684.200
291.745	21.563	868.667	681.937
292.760	21.974	868.392	683.260
293.774	22.967	868.613	687.238
294.789	23.267	868.463	688.223
295.803	23.272	867.880	687.721
296.818	23.176	867.214	686.758
297.833	22.816	865.663	684.076
298.847	22.759	864.891	683.185
299.862	22.944	865.081	683.991
300.876	23.259	864.742	684.881
301.891	23.042	864.108	683.478
302.906	22.582	863.025	680.784
303.920	22.843	862.617	681.411
304.935	23.131	862.355	682.252
305.949	23.167	861.548	681.693
306.964	22.820	861.341	680.134
307.979	23.050	860.240	680.087
308.993	23.336	860.374	681.233
310.008	23.350	859.661	680.661
311.022	23.066	858.588	678.664
312.037	22.895	858.255	677.685
313.052	22.613	857.441	675.902
314.066	21.865	856.142	671.951
315.081	21.424	855.451	669.660
316.095	22.343	855.761	673.362
317.110	22.824	855.138	674.654
318.125	22.014	853.592	670.282
319.139	20.994	852.147	665.200
320.154	21.098	851.828	665.288
321.168	21.901	852.598	668.894
322.183	22.601	852.240	671.218
323.197	22.752	852.337	671.811
324.212	22.899	851.742	671.842
325.227	22.896	851.083	671.252
326.241	22.961	850.244	670.777
327.256	22.695	850.043	669.549
328.270	22.706	849.333	668.974
329.285	22.504	848.386	667.401
330.300	22.400	847.265	666.068
331.314	22.587	847.182	666.649
332.329	23.052	846.957	668.171
333.343	23.130	846.696	668.202
334.358	22.978	846.191	667.170
335.373	23.142	846.233	667.765
336.387	23.378	846.246	668.605
337.402	23.425	845.972	668.507
338.416	23.302	845.305	667.459
339.431	23.463	844.854	667.648
340.446	23.666	844.696	668.228
341.460	23.451	843.924	666.752
342.475	23.467	843.384	666.324
343.489	23.395	843.166	665.824
344.504	23.657	842.862	666.509
345.519	23.723	842.913	666.736
346.533	23.969	841.761	666.689
347.548	23.897	841.624	666.253
348.562	23.848	840.766	665.329
349.577	23.857	840.415	665.027
350.592	23.788	839.667	664.119
351.606	23.825	839.094	663.747
352.621	23.653	838.170	662.313
353.635	23.523	837.358	661.130
354.650	22.882	835.895	657.528
355.665	21.969	834.395	652.899
356.679	22.507	834.177	654.668
357.694	22.892	833.668	655.641
358.708	22.834	833.050	654.881
359.723	23.158	833.183	656.131
360.738	23.326	832.950	656.510
361.752	23.556	832.401	656.873
362.767	23.869	832.263	657.862
363.781	24.148	831.849	658.511
364.796	24.177	831.326	658.146
365.810	24.243	830.564	657.727
366.825	24.122	830.334	657.039
367.840	23.925	829.497	655.594
368.854	23.489	828.612	653.231
369.869	23.436	828.603	652.972
370.883	23.518	827.758	652.548
371.898	23.539	827.351	652.246
372.913	23.601	826.793	651.975
373.927	23.730	826.562	652.210
374.942	23.761	826.522	652.237
375.956	23.859	826.073	652.182
376.971	23.917	825.694	652.040
377.986	24.223	825.271	652.768
379.000	24.023	824.534	651.397
380.015	23.992	823.653	650.527
381.029	24.039	823.306	650.367
382.044	24.133	822.958	650.379
383.059	24.227	822.220	650.082
384.073	24.127	821.747	649.285
385.088	24.162	820.941	648.719
386.102	23.944	820.463	647.488
387.117	23.908	819.767	646.752
388.132	23.525	818.452	644.266
389.146	23.140	817.745	642.254
390.161	23.452	817.586	643.205
391.175	23.801	817.825	644.604
392.190	23.667	816.207	642.786
393.205	22.232	814.328	636.062
394.219	20.808	812.479	629.418
395.234	20.775	812.544	629.294
396.248	22.454	813.722	636.224
397.263	23.813	814.560	641.732
398.278	23.738	814.054	641.006
399.292	23.621	813.380	639.997
400.307	23.530	813.154	639.434
401.321	23.432	813.322	639.157
402.336	23.835	813.157	640.423
403.350	24.384	812.351	641.706
404.365	24.530	812.342	642.167
405.380	24.883	811.832	642.978
406.394	24.888	811.359	642.563
407.409	24.809	810.810	641.787
408.423	24.651	810.665	641.049
409.438	24.727	810.220	640.914
410.453	24.777	810.074	640.919
411.467	24.743	809.235	640.079
412.482	24.728	808.771	639.601
413.496	24.699	809.002	639.623
414.511	24.849	808.045	639.347
415.526	25.000	807.086	639.068
416.540	24.647	806.750	637.488
417.555	24.507	806.175	636.479
418.569	24.519	805.706	636.095
419.584	24.568	804.867	635.549
420.599	24.330	804.744	634.549
421.613	155.955	1365.845	1796.332
422.628	135.471	1447.589	1796.455
