DTS Sentinel unit serial number:	SN413079Multiplexer serial number:	ORYXHardware model number:	OX4-SRSoftware version number:	ORYX F/W v4.00 Oryx Data Collector v3.7.2.0data status	okinstallation	princeton_trtdifferential loss correction	single-endedforward channel	channel 1reverse channel	N/Adate	2019/09/12time	04:04:11forward acquisition time	60.00reverse acquisition time	0.00gamma	496.2192k internal	0.2322k external	0.2322temperature offset calibration	1.0081default loss term (dB/km)	0.3790temperature slope calibration	1.0000multiplexer offset coefficient	1.0000multiplexer slope coefficient	1.0000fibre end	0.00T internal ref (°C)	32.05T ext. ref 1 (°C)	2.17T ext. ref 2 (°C)	25.84length (m)	temperature (°C)	Stokes	anti-Stokes-747.200	-105.061	0.242	-0.056
-746.185	-200.000	0.016	0.236
-745.171	-200.000	0.009	0.346
-744.156	-200.000	0.014	0.224
-743.142	-168.259	0.110	-0.004
-742.127	-20.899	0.203	0.126
-741.112	13.152	-0.157	-0.123
-740.098	-52.949	-0.053	-0.025
-739.083	-120.009	0.285	0.049
-738.069	-200.000	0.009	0.057
-737.054	-1.430	0.351	0.250
-736.039	-86.860	-0.201	0.062
-735.025	800.000	-0.035	0.135
-734.010	-58.212	-0.470	0.207
-732.996	57.085	0.209	-0.205
-731.981	-55.464	-0.167	0.076
-730.966	218.787	0.123	-0.199
-729.952	-114.252	0.181	0.035
-728.937	-98.700	-0.133	0.034
-727.923	63.418	0.059	-0.060
-726.908	18.122	-0.045	-0.036
-725.894	-200.000	-0.047	0.320
-724.879	-56.126	-0.220	-0.099
-723.864	280.764	0.038	0.069
-722.850	8.767	-0.386	0.294
-721.835	-136.887	0.260	-0.030
-720.821	-56.402	0.022	0.010
-719.806	-119.085	-0.290	0.051
-718.791	264.124	-0.127	0.222
-717.777	-81.246	-0.075	-0.025
-716.762	219.169	-0.110	-0.177
-715.748	-200.000	0.066	-0.310
-714.733	-149.130	0.163	-0.013
-713.718	-13.940	0.106	-0.069
-712.704	97.403	0.134	-0.155
-711.689	-87.997	0.175	0.053
-710.675	113.355	0.072	0.088
-709.660	511.862	0.071	0.166
-708.645	800.000	-0.015	-0.063
-707.631	-82.891	0.213	-0.069
-706.616	-45.203	0.270	0.135
-705.602	236.224	-0.152	-0.254
-704.587	26.559	-0.240	-0.203
-703.572	-51.277	0.250	0.118
-702.558	153.022	0.045	0.062
-701.543	46.979	0.131	0.123
-700.529	-105.143	0.402	-0.093
-699.514	-200.000	0.007	-0.178
-698.499	306.561	-0.118	-0.221
-697.485	118.973	0.069	-0.086
-696.470	-159.156	-0.303	-0.017
-695.456	80.717	-0.185	-0.201
-694.441	-53.396	-0.122	0.056
-693.426	-200.000	-0.003	-0.263
-692.412	112.879	-0.305	-0.372
-691.397	-118.620	-0.130	0.023
-690.383	250.308	0.050	0.085
-689.368	-200.000	0.011	-0.196
-688.354	-200.000	-0.068	-0.428
-687.339	800.000	0.020	-0.083
-686.324	182.062	-0.170	-0.253
-685.310	-140.149	-0.130	-0.014
-684.295	192.923	-0.159	0.242
-683.281	-87.497	0.138	-0.042
-682.266	321.669	-0.168	0.321
-681.251	-114.879	-0.310	0.059
-680.237	475.553	0.046	-0.104
-679.222	800.000	-0.123	-0.432
-678.208	170.349	-0.240	-0.346
-677.193	-123.692	-0.428	-0.068
-676.178	-45.463	-0.199	0.099
-675.164	230.500	0.089	0.147
-674.149	-146.664	0.240	0.021
-673.135	-178.136	-0.362	0.009
-672.120	-200.000	0.040	0.179
-671.105	158.632	-0.122	0.171
-670.091	-69.014	-0.277	0.107
-669.076	43.686	-0.093	-0.086
-668.062	-19.068	-0.103	0.064
-667.047	800.000	-0.040	-0.152
-666.032	-78.313	-0.266	-0.092
-665.018	9.178	-0.236	0.180
-664.003	-55.910	-0.447	-0.201
-662.989	-109.366	0.387	0.083
-661.974	-158.373	0.208	0.012
-660.959	793.821	-0.080	0.222
-659.945	-200.000	-0.018	0.171
-658.930	-119.097	0.163	-0.029
-657.916	800.000	0.099	0.332
-656.901	203.836	-0.045	0.070
-655.886	-151.271	-0.276	0.021
-654.872	800.000	0.105	-0.331
-653.857	-133.749	0.103	-0.013
-652.843	-120.143	-0.199	-0.034
-651.828	-80.096	-0.255	0.086
-650.814	186.132	-0.257	-0.384
-649.799	22.958	0.136	-0.112
-648.784	22.879	0.213	0.176
-647.770	-200.000	0.037	0.376
-646.755	800.000	-0.085	-0.333
-645.741	-200.000	-0.007	-0.174
-644.726	154.902	0.226	-0.312
-643.711	800.000	0.122	0.365
-642.697	800.000	0.014	0.056
-641.682	-35.447	0.077	0.042
-640.668	-34.644	0.172	-0.095
-639.653	-55.067	-0.266	-0.121
-638.638	-47.085	-0.296	-0.145
-637.624	-122.366	-0.262	-0.043
-636.609	-112.632	0.122	0.024
-635.595	-150.576	-0.228	0.018
-634.580	381.052	0.072	-0.149
-633.565	800.000	-0.030	-0.113
-632.551	82.527	-0.161	0.176
-631.536	130.418	0.063	-0.081
-630.522	268.454	0.259	0.457
-629.507	592.799	-0.028	0.071
-628.492	-200.000	0.023	0.246
-627.478	264.758	-0.062	0.109
-626.463	-200.000	0.006	-0.050
-625.449	-200.000	-0.032	0.437
-624.434	-63.138	0.334	-0.138
-623.419	-182.853	0.295	-0.005
-622.405	195.714	0.165	-0.252
-621.390	-94.329	-0.140	-0.039
-620.376	-97.430	0.116	0.030
-619.361	177.083	0.287	-0.421
-618.346	-200.000	-0.015	-0.223
-617.332	-41.534	-0.172	-0.089
-616.317	-200.000	-0.040	-0.209
-615.303	800.000	0.079	-0.258
-614.288	-28.371	-0.370	-0.215
-613.273	-15.659	0.211	-0.135
-612.259	-104.463	0.094	0.022
-611.244	-200.000	0.013	-0.170
-610.230	-57.980	-0.188	0.082
-609.215	-138.734	-0.345	0.038
-608.201	-113.616	0.064	-0.013
-607.186	-200.000	-0.010	-0.189
-606.171	94.728	0.180	-0.206
-605.157	164.502	0.049	-0.070
-604.142	-20.518	-0.227	-0.140
-603.128	-137.929	-0.140	0.016
-602.113	452.773	-0.064	-0.142
-601.098	-20.421	0.112	0.069
-600.084	-200.000	0.024	-0.133
-599.069	398.390	-0.082	-0.173
-598.055	800.000	0.054	-0.223
-597.040	268.158	0.191	0.336
-596.025	215.873	0.085	-0.136
-595.011	-33.314	0.135	-0.075
-593.996	-49.560	-0.350	-0.167
-592.982	-134.615	-0.230	0.028
-591.967	35.455	0.145	0.128
-590.952	773.732	-0.046	0.126
-589.938	-2.847	-0.093	0.065
-588.923	-47.956	0.369	-0.179
-587.909	91.216	-0.156	-0.176
-586.894	-114.817	-0.143	0.027
-585.879	68.832	0.245	0.253
-584.865	-53.709	0.180	0.082
-583.850	800.000	-0.068	-0.213
-582.836	-111.757	-0.239	0.049
-581.821	205.047	-0.255	0.397
-580.806	-200.000	-0.047	-0.395
-579.792	197.294	0.052	-0.080
-578.777	265.164	0.113	-0.198
-577.763	-41.751	-0.062	-0.032
-576.748	800.000	-0.123	0.397
-575.733	-73.067	0.116	0.043
-574.719	-90.117	-0.464	-0.136
-573.704	-75.909	-0.249	-0.089
-572.690	434.658	-0.110	-0.239
-571.675	-22.623	0.081	-0.049
-570.661	-101.956	0.299	-0.073
-569.646	-47.222	0.422	-0.207
-568.631	35.132	0.150	0.132
-567.617	-7.964	0.154	0.104
-566.602	-200.000	-0.001	0.096
-565.588	103.310	-0.034	-0.040
-564.573	308.196	0.223	0.417
-563.558	-189.924	0.250	0.003
-562.544	-82.535	-0.708	-0.231
-561.529	-36.733	-0.070	0.038
-560.515	32.777	-0.046	0.040
-559.500	-131.218	-0.161	-0.022
-558.485	-200.000	0.018	-0.081
-557.471	-97.396	0.249	0.065
-556.456	9.300	-0.046	-0.035
-555.442	142.987	0.105	-0.141
-554.427	-48.175	0.395	-0.191
-553.412	18.227	-0.152	0.122
-552.398	-161.434	-0.166	-0.009
-551.383	-200.000	0.113	0.525
-550.369	-200.000	-0.008	-0.464
-549.354	555.923	-0.024	-0.058
-548.339	-48.595	-0.415	-0.200
-547.325	-200.000	0.007	-0.290
-546.310	708.003	0.064	0.168
-545.296	-200.000	0.019	0.404
-544.281	-9.725	0.093	0.062
-543.266	800.000	0.134	-0.377
-542.252	710.772	-0.116	0.309
-541.237	577.719	0.134	0.328
-540.223	-200.000	-0.040	-0.188
-539.208	-200.000	0.025	-0.362
-538.193	257.148	-0.102	-0.175
-537.179	-200.000	-0.093	0.449
-536.164	259.974	-0.140	0.242
-535.150	581.375	-0.006	0.016
-534.135	-107.846	0.236	-0.051
-533.121	-200.000	-0.062	-0.549
-532.106	10.389	-0.079	0.060
-531.091	-200.000	0.012	-0.118
-530.077	253.069	-0.212	-0.362
-529.062	-78.342	0.177	0.061
-528.048	-10.199	0.307	0.204
-527.033	-143.990	0.172	0.016
-526.018	-9.974	-0.186	0.124
-525.004	38.071	-0.339	-0.302
-523.989	-149.862	0.286	0.022
-522.975	-141.655	0.313	-0.032
-521.960	-102.999	0.180	-0.043
-520.945	157.985	-0.053	-0.074
-519.931	800.000	-0.012	0.048
-518.916	0.407	-0.282	0.202
-517.902	-152.282	-0.416	0.030
-516.887	34.489	-0.369	-0.323
-515.872	-50.725	0.138	-0.065
-514.858	-71.550	-0.046	-0.017
-513.843	109.245	0.106	-0.127
-512.829	-89.832	0.058	0.017
-511.814	-200.000	0.013	-0.143
-510.799	38.398	-0.054	-0.048
-509.785	38.758	0.196	0.175
-508.770	86.185	-0.198	-0.218
-507.756	27.460	0.264	-0.222
-506.741	16.225	-0.264	-0.209
-505.726	-162.926	-0.287	-0.014
-504.712	-153.094	0.325	0.023
-503.697	-200.000	0.028	-0.140
-502.683	-51.183	-0.246	0.115
-501.668	-171.714	-0.266	0.009
-500.653	-200.000	-0.040	0.297
-499.639	122.681	-0.046	0.057
-498.624	-83.009	-0.202	-0.065
-497.610	243.214	-0.086	0.144
-496.595	-91.510	0.100	0.028
-495.581	54.471	-0.188	-0.181
-494.566	-31.303	0.175	-0.098
-493.551	659.624	-0.084	0.216
-492.537	800.000	0.041	0.138
-491.522	125.968	-0.089	-0.112
-490.508	800.000	-0.042	0.141
-489.493	235.891	-0.025	-0.042
-488.478	-200.000	-0.020	-0.357
-487.464	-200.000	0.010	-0.089
-486.449	-178.577	-0.264	-0.006
-485.435	-200.000	-0.016	0.179
-484.420	32.820	-0.144	-0.124
-483.405	-139.499	-0.241	0.026
-482.391	-82.783	0.226	-0.073
-481.376	800.000	0.028	-0.116
-480.362	800.000	-0.067	0.206
-479.347	-74.441	-0.227	0.082
-478.332	91.510	-0.074	-0.083
-477.318	-59.874	0.059	0.025
-476.303	-200.000	0.052	0.279
-475.289	-200.000	0.013	0.180
-474.274	36.582	-0.195	0.172
-473.259	-150.687	-0.094	-0.007
-472.245	-9.527	-0.261	0.174
-471.230	800.000	-0.039	-0.137
-470.216	-93.858	-0.316	-0.087
-469.201	-130.228	0.169	0.023
-468.186	-40.490	-0.164	0.085
-467.172	188.580	-0.206	0.308
-466.157	215.955	-0.092	0.146
-465.143	-77.264	-0.198	-0.069
-464.128	525.751	-0.060	-0.142
-463.113	-123.385	0.391	0.062
-462.099	44.820	-0.100	-0.092
-461.084	33.577	-0.077	-0.067
-460.070	367.707	0.019	0.038
-459.055	-63.690	0.281	-0.115
-458.040	477.085	-0.077	-0.174
-457.026	142.650	-0.154	-0.204
-456.011	588.111	-0.067	-0.165
-454.997	-77.317	0.065	0.023
-453.982	-138.614	-0.135	-0.015
-452.968	-73.827	-0.275	-0.100
-451.953	800.000	0.049	-0.137
-450.938	112.823	-0.228	0.276
-449.924	-36.302	-0.204	0.110
-448.909	599.498	-0.074	0.184
-447.895	-200.000	0.004	-0.211
-446.880	-200.000	-0.021	-0.269
-445.865	-174.471	-0.259	0.007
-444.851	120.720	-0.016	-0.019
-443.836	12.298	0.009	0.007
-442.822	141.462	0.233	-0.307
-441.807	365.030	-0.067	-0.134
-440.792	800.000	0.031	-0.134
-439.778	394.851	0.037	-0.077
-438.763	142.153	0.059	-0.078
-437.749	800.000	0.101	0.421
-436.734	-95.838	0.337	-0.090
-435.719	629.098	0.047	0.118
-434.705	-15.683	-0.030	-0.019
-433.690	800.000	0.109	-0.363
-432.676	-116.053	0.297	-0.055
-431.661	-139.009	0.239	-0.026
-430.646	-169.189	0.329	0.012
-429.632	33.670	-0.137	0.119
-428.617	223.339	-0.118	-0.190
-427.603	61.448	0.190	-0.189
-426.588	63.863	-0.127	-0.128
-425.573	265.181	0.083	-0.144
-424.559	-135.628	0.111	-0.013
-423.544	-47.992	0.101	-0.049
-422.530	800.000	-0.047	0.188
-421.515	-139.896	0.025	0.003
-420.500	-9.811	0.096	0.064
-419.486	-160.230	-0.060	-0.003
-418.471	58.183	0.056	0.055
-417.457	52.143	-0.118	-0.112
-416.442	800.000	0.098	0.317
-415.428	800.000	0.079	0.238
-414.413	800.000	-0.045	0.178
-413.398	27.607	0.209	-0.175
-412.384	0.999	-0.061	-0.044
-411.369	242.725	-0.171	0.286
-410.355	35.460	-0.077	0.067
-409.340	-113.212	0.094	0.019
-408.325	800.000	0.089	-0.280
-407.311	439.739	0.179	-0.391
-406.296	-72.890	0.173	-0.064
-405.282	800.000	-0.160	0.577
-404.267	-200.000	-0.019	-0.105
-403.252	429.723	0.024	-0.052
-402.238	-88.117	0.143	-0.043
-401.223	-52.926	-0.255	-0.117
-400.209	-9.758	0.244	0.162
-399.194	-113.965	0.328	-0.063
-398.179	-118.948	-0.221	0.039
-397.165	31.204	0.328	-0.281
-396.150	-84.337	-0.202	-0.064
-395.136	-114.539	-0.146	-0.028
-394.121	692.223	0.087	0.227
-393.106	4.414	-0.123	0.090
-392.092	800.000	-0.091	0.275
-391.077	68.458	0.119	0.121
-390.063	4.600	-0.319	-0.233
-389.048	800.000	0.112	0.329
-388.033	-22.129	-0.229	0.139
-387.019	266.405	0.056	0.098
-386.004	22.591	0.261	-0.212
-384.990	519.296	-0.129	0.301
-383.975	800.000	-0.043	-0.182
-382.960	-128.044	-0.228	-0.033
-381.946	-4.648	0.196	0.135
-380.931	800.000	0.066	0.257
-379.917	-200.000	-0.042	0.216
-378.902	-200.000	-0.012	0.337
-377.888	-124.056	0.246	0.039
-376.873	-91.933	-0.058	-0.016
-375.858	-37.503	0.293	-0.156
-374.844	-123.782	-0.096	0.015
-373.829	800.000	0.024	-0.077
-372.815	-200.000	-0.062	0.423
-371.800	-90.075	-0.291	-0.085
-370.785	130.292	0.242	-0.309
-369.771	126.909	-0.245	0.309
-368.756	-90.186	0.181	0.052
-367.742	387.744	0.073	0.151
-366.727	-200.000	0.049	0.292
-365.712	-200.000	-0.010	-0.067
-364.698	213.614	-0.210	0.330
-363.683	-66.646	-0.265	0.105
-362.669	20.671	0.333	0.269
-361.654	-49.583	-0.311	-0.147
-360.639	-200.000	-0.012	-0.215
-359.625	475.634	-0.086	0.194
-358.610	-40.654	-0.199	-0.103
-357.596	-26.558	-0.218	-0.127
-356.581	29.776	-0.095	0.081
-355.566	375.667	-0.096	-0.194
-354.552	-200.000	-0.006	0.178
-353.537	800.000	0.027	-0.083
-352.523	-200.000	0.007	0.156
-351.508	251.065	0.085	-0.143
-350.493	141.451	-0.145	-0.192
-349.479	75.135	0.169	-0.178
-348.464	518.840	-0.143	0.334
-347.450	218.412	0.103	-0.164
-346.435	125.501	0.151	-0.190
-345.420	-1.648	0.265	0.186
-344.406	800.000	0.065	0.227
-343.391	137.066	0.052	0.067
-342.377	800.000	0.158	-0.441
-341.362	-138.069	-0.095	0.011
-340.348	-44.571	-0.133	-0.066
-339.333	-42.746	-0.136	0.069
-338.318	11.055	-0.212	-0.161
-337.304	-55.158	0.382	0.171
-336.289	77.706	0.226	-0.240
-335.275	466.927	0.041	0.091
-334.260	-200.000	-0.029	-0.132
-333.245	748.737	0.041	-0.110
-332.231	96.639	-0.063	0.072
-331.216	-82.700	0.510	0.164
-330.202	-200.000	-0.041	0.570
-329.187	125.555	0.140	0.176
-328.172	-60.900	-0.361	-0.152
-327.158	43.354	0.254	-0.231
-326.143	209.918	0.097	-0.151
-325.129	800.000	0.114	0.335
-324.114	800.000	0.137	-0.414
-323.099	-12.849	-0.219	0.142
-322.085	605.991	-0.040	0.099
-321.070	-28.005	-0.155	0.089
-320.056	-95.685	0.054	-0.014
-319.041	-86.882	-0.085	0.026
-318.026	-53.963	0.266	-0.120
-317.012	164.706	0.222	0.311
-315.997	-200.000	-0.035	0.252
-314.983	79.152	-0.153	0.163
-313.968	152.154	0.102	-0.138
-312.953	133.798	-0.133	-0.170
-311.939	-50.781	0.070	-0.033
-310.924	5.069	-0.065	-0.047
-309.910	800.000	0.048	0.137
-308.895	-200.000	0.064	0.412
-307.880	-200.000	0.006	0.036
-306.866	-95.028	-0.154	-0.041
-305.851	237.450	0.153	0.252
-304.837	101.782	0.111	0.129
-303.822	-47.343	0.031	-0.015
-302.807	444.691	-0.087	-0.191
-301.793	-200.000	0.026	-0.178
-300.778	-57.903	0.219	-0.095
-299.764	197.640	-0.016	-0.024
-298.749	-200.000	0.020	0.292
-297.735	800.000	0.121	-0.373
-296.720	799.092	-0.055	-0.150
-295.705	-63.761	0.200	-0.081
-294.691	-200.000	0.012	0.100
-293.676	-56.688	0.115	0.050
-292.662	800.000	0.086	0.235
-291.647	88.217	0.295	0.325
-290.632	184.636	-0.222	-0.327
-289.618	587.106	0.071	-0.175
-288.603	-164.172	-0.175	0.008
-287.589	-103.810	0.203	-0.047
-286.574	-69.513	-0.194	-0.074
-285.559	-43.651	-0.187	0.094
-284.545	-96.811	0.092	-0.024
-283.530	202.841	0.091	-0.140
-282.516	-59.276	0.224	0.096
-281.501	-62.294	-0.199	0.082
-280.486	-200.000	-0.033	0.161
-279.472	800.000	-0.062	0.220
-278.457	-138.695	-0.568	-0.062
-277.443	-200.000	0.011	0.110
-276.428	319.918	0.086	-0.162
-275.413	-109.186	-0.096	0.020
-274.399	-200.000	0.015	0.143
-273.384	309.039	0.097	0.179
-272.370	405.201	0.077	0.160
-271.355	57.448	0.161	-0.156
-270.340	-200.000	-0.047	-0.215
-269.326	-200.000	-0.084	-0.402
-268.311	800.000	0.026	-0.081
-267.297	800.000	-0.076	-0.235
-266.282	800.000	-0.116	0.342
-265.267	90.077	-0.122	-0.135
-264.253	800.000	0.060	0.191
-263.238	800.000	0.035	0.143
-262.224	-74.262	0.289	-0.104
-261.209	509.841	-0.146	0.337
-260.195	-200.000	0.008	0.125
-259.180	81.525	0.046	-0.049
-258.165	244.230	0.170	-0.283
-257.151	-60.676	-0.340	-0.143
-256.136	104.214	0.247	-0.288
-255.122	403.650	-0.134	-0.279
-254.107	-30.005	0.105	-0.059
-253.092	433.540	0.141	0.304
-252.078	188.890	-0.084	-0.125
-251.063	-75.494	0.358	-0.126
-250.049	464.573	-0.018	-0.041
-249.034	-200.000	-0.033	0.156
-248.019	79.378	-0.146	-0.155
-247.005	206.479	-0.068	-0.105
-245.990	312.609	0.113	0.210
-244.976	441.863	0.085	0.184
-243.961	165.166	-0.188	0.264
-242.946	-91.747	0.051	-0.014
-241.932	141.039	0.160	-0.210
-240.917	-155.903	0.188	0.012
-239.903	-34.276	0.218	-0.119
-238.888	-79.358	-0.073	0.024
-237.873	-199.779	-0.413	0.002
-236.859	-200.000	-0.075	0.338
-235.844	-173.938	-0.208	0.006
-234.830	21.973	0.177	-0.143
-233.815	-98.027	-0.334	-0.085
-232.800	-200.000	-0.009	0.194
-231.786	-63.693	0.490	0.199
-230.771	-200.000	0.001	-0.041
-229.757	108.529	-0.150	0.177
-228.742	-123.315	0.186	-0.029
-227.727	-165.444	-0.075	0.003
-226.713	-30.392	0.065	-0.036
-225.698	-124.626	0.256	0.039
-224.684	-200.000	0.035	0.209
-223.669	208.762	-0.209	-0.324
-222.655	-128.396	0.057	0.008
-221.640	758.943	-0.101	-0.270
-220.625	-200.000	0.005	-0.290
-219.611	130.099	0.100	-0.127
-218.596	-170.651	-0.022	-0.001
-217.582	7.890	-0.154	0.115
-216.567	-102.045	0.165	0.039
-215.552	-200.000	0.008	-0.085
-214.538	209.142	-0.131	0.202
-213.523	-200.000	-0.046	0.209
-212.509	800.000	-0.072	-0.219
-211.494	412.878	-0.036	0.075
-210.479	-200.000	-0.230	0.001
-209.465	440.767	0.113	-0.244
-208.450	142.071	-0.258	0.339
-207.436	78.671	0.068	0.072
-206.421	-24.017	0.194	-0.115
-205.406	6.738	-0.187	0.138
-204.392	-96.240	-0.171	-0.045
-203.377	123.197	0.087	-0.108
-202.363	-143.090	-0.298	0.028
-201.348	223.556	0.206	-0.328
-200.333	800.000	-0.081	-0.273
-199.319	98.291	0.119	0.135
-198.304	-200.000	-0.006	0.025
-197.290	703.735	-0.125	-0.325
-196.275	-2.375	0.166	-0.115
-195.260	-99.142	0.084	0.021
-194.246	739.313	-0.141	0.375
-193.231	-140.807	0.274	-0.028
-192.217	-200.000	0.048	-0.229
-191.202	37.072	-0.204	-0.178
-190.187	800.000	0.085	0.232
-189.173	83.648	-0.157	-0.169
-188.158	74.837	-0.116	-0.120
-187.144	800.000	-0.075	0.317
-186.129	-22.925	-0.103	0.062
-185.114	-41.835	-0.059	-0.030
-184.100	-200.000	0.048	0.263
-183.085	800.000	-0.055	-0.206
-182.071	-156.282	-0.285	0.018
-181.056	108.183	0.146	0.172
-180.042	-129.950	0.153	-0.021
-179.027	94.133	0.295	0.331
-178.012	-200.000	0.012	-0.173
-176.998	214.699	-0.198	0.310
-175.983	11.499	0.247	0.187
-174.969	147.681	0.208	0.277
-173.954	-21.104	-0.254	-0.154
-172.939	-53.068	0.460	-0.209
-171.925	466.886	-0.046	0.101
-170.910	300.501	0.094	-0.170
-169.896	22.799	-0.106	0.086
-168.881	-85.526	-0.119	-0.037
-167.866	-49.573	0.145	-0.068
-166.852	-128.321	-0.263	0.037
-165.837	800.000	-0.062	0.178
-164.823	695.076	0.026	0.068
-163.808	82.531	-0.057	0.061
-162.793	59.840	0.092	0.090
-161.779	-66.601	0.401	0.157
-160.764	311.144	0.106	0.197
-159.750	-64.841	0.061	-0.024
-158.735	157.690	0.185	0.253
-157.720	800.000	-0.034	0.116
-156.706	-112.810	0.295	0.058
-155.691	337.018	-0.124	-0.238
-154.677	490.974	-0.042	0.094
-153.662	-200.000	-0.010	0.323
-152.647	-40.385	-0.110	0.056
-151.633	45.532	0.136	0.124
-150.618	800.000	0.034	0.136
-149.604	161.638	-0.208	0.287
-148.589	-99.099	0.167	-0.042
-147.574	411.203	0.136	0.284
-146.560	318.231	-0.132	-0.247
-145.545	-40.464	0.267	0.137
-144.531	65.238	-0.104	-0.104
-143.516	52.405	0.313	-0.295
-142.502	-200.000	-0.035	-0.383
-141.487	-200.000	0.008	0.092
-140.472	34.243	-0.080	-0.069
-139.458	-49.088	-0.272	-0.128
-138.443	145.812	0.036	0.048
-137.429	28.602	0.212	0.177
-136.414	-100.801	-0.460	-0.112
-135.399	89.690	0.201	-0.222
-134.385	-113.827	0.210	-0.040
-133.370	-72.600	-0.224	0.081
-132.356	90.484	0.089	-0.098
-131.341	-70.325	0.293	-0.109
-130.326	-117.661	-0.304	-0.054
-129.312	800.000	0.060	-0.209
-128.297	42.852	0.125	0.113
-127.283	78.165	0.199	0.209
-126.268	-200.000	0.001	-0.090
-125.253	-200.000	0.027	0.456
-124.239	540.070	-0.121	0.284
-123.224	115.945	-0.235	-0.284
-122.210	-87.355	0.231	-0.069
-121.195	-200.000	0.001	-0.149
-120.180	-200.000	0.009	0.162
-119.166	670.796	0.087	-0.221
-118.151	-200.000	-0.033	-0.158
-117.137	490.983	0.089	-0.200
-116.122	435.845	0.192	0.412
-115.107	-98.909	0.127	0.032
-114.093	484.248	0.075	-0.169
-113.078	268.091	-0.124	0.214
-112.064	19.933	0.132	0.105
-111.049	329.168	-0.098	0.185
-110.034	-200.000	-0.027	0.188
-109.020	-50.470	0.263	-0.122
-108.005	-133.432	0.228	-0.028
-106.991	-1.493	0.193	-0.134
-105.976	610.273	-0.135	0.332
-104.962	800.000	0.057	0.220
-103.947	82.327	0.100	0.107
-102.932	208.399	0.041	0.064
-101.918	800.000	0.115	-0.460
-100.903	89.957	-0.194	-0.214
-99.889	-58.393	-0.149	-0.064
-98.874	800.000	-0.087	0.289
-97.859	-200.000	-0.006	-0.188
-96.845	-200.000	-0.044	0.245
-95.830	800.000	0.014	-0.050
-94.816	-103.864	-0.172	0.040
-93.801	-2.041	-0.107	0.074
-92.786	-108.716	-0.026	-0.005
-91.772	49.302	0.210	0.194
-90.757	-200.000	0.029	-0.193
-89.743	51.390	-0.237	0.222
-88.728	14.365	0.161	0.124
-87.713	130.423	0.165	-0.208
-86.699	33.573	-0.099	0.085
-85.684	-200.000	-0.043	0.313
-84.670	-200.000	-0.043	0.272
-83.655	-106.700	0.226	0.049
-82.640	-156.150	-0.189	-0.012
-81.626	377.060	0.029	-0.058
-80.611	800.000	-0.076	-0.297
-79.597	30.164	-0.256	-0.215
-78.582	-200.000	0.000	0.057
-77.567	800.000	0.012	-0.034
-76.553	-200.000	-0.016	0.265
-75.538	-99.346	-0.339	-0.084
-74.524	-120.159	0.231	0.039
-73.509	20.574	0.198	-0.158
-72.494	309.570	0.072	0.133
-71.480	-200.000	-0.003	0.196
-70.465	-103.096	-0.188	0.044
-69.451	77.400	0.160	0.168
-68.436	-113.300	0.305	-0.059
-67.422	-200.000	-0.004	0.050
-66.407	-145.413	-0.357	0.032
-65.392	-7.983	0.201	-0.133
-64.378	-116.780	0.267	-0.048
-63.363	-200.000	0.035	-0.309
-62.349	240.338	0.130	0.213
-61.334	54.582	-0.939	-0.891
-60.319	800.000	0.187	0.681
-59.305	131.464	-0.401	-0.507
-58.290	179.549	0.863	1.242
-57.276	800.000	0.502	1.699
-56.261	-200.000	96.282	598.526
-55.246	564.840	1365.058	3253.660
-54.232	162.823	2540.687	3507.647
-53.217	113.855	2133.961	2550.874
-52.203	44.043	1598.077	1440.530
-51.188	35.657	1336.736	1154.793
-50.173	32.374	1295.251	1099.755
-49.159	54.290	1343.025	1271.216
-48.144	56.715	1359.362	1301.040
-47.130	35.668	1318.174	1138.638
-46.115	32.223	1300.744	1103.356
-45.100	32.103	1295.339	1098.023
-44.086	31.968	1293.339	1095.499
-43.071	31.924	1290.658	1092.928
-42.057	31.843	1288.904	1090.928
-41.042	32.009	1286.750	1090.027
-40.027	31.944	1285.652	1088.675
-39.013	31.996	1283.791	1087.357
-37.998	31.997	1281.825	1085.656
-36.984	32.040	1279.866	1084.202
-35.969	32.061	1278.627	1083.227
-34.954	31.992	1276.914	1081.339
-33.940	32.096	1275.184	1080.425
-32.925	32.174	1274.046	1079.869
-31.911	32.098	1272.517	1078.094
-30.896	32.103	1271.033	1076.822
-29.881	32.192	1269.636	1076.107
-28.867	32.176	1268.515	1075.020
-27.852	32.220	1266.735	1073.724
-26.838	32.193	1265.767	1072.704
-25.823	32.159	1264.460	1071.360
-24.809	32.188	1262.715	1070.002
-23.794	32.173	1261.965	1069.239
-22.779	32.184	1260.399	1067.935
-21.765	32.221	1259.129	1067.028
-20.750	32.041	1258.137	1065.120
-19.736	32.023	1256.653	1063.723
-18.721	31.930	1255.400	1062.093
-17.706	31.979	1254.150	1061.272
-16.692	31.939	1253.261	1060.251
-15.677	31.981	1251.958	1059.341
-14.663	32.056	1250.369	1058.377
-13.648	32.063	1248.957	1057.178
-12.633	31.941	1248.901	1056.402
-11.619	31.962	1248.025	1055.741
-10.604	31.926	1247.154	1054.757
-9.590	32.030	1245.972	1054.301
-8.575	31.953	1245.393	1053.339
-7.560	31.895	1244.454	1052.175
-6.546	31.985	1243.384	1051.731
-5.531	31.850	1242.762	1050.409
-4.517	32.104	1241.310	1050.561
-3.502	31.994	1241.036	1049.673
-2.487	31.942	1239.714	1048.223
-1.473	31.859	1235.369	1044.043
-0.458	30.439	1220.683	1023.772
0.556	27.711	1203.997	988.432
1.571	24.638	1210.821	977.174
2.586	24.123	1226.032	986.506
3.600	23.734	1215.451	975.774
4.615	17.601	1142.740	885.538
5.629	7.304	1065.155	775.216
6.644	2.596	1044.230	737.303
7.659	2.130	1042.090	733.489
8.673	2.010	1040.659	731.842
9.688	1.956	1038.825	730.231
10.702	2.576	1038.365	732.807
11.717	9.508	1048.013	772.924
12.731	19.637	1062.066	832.257
13.746	24.419	1067.788	859.768
14.761	25.314	1068.927	864.923
15.775	25.386	1068.465	864.824
16.790	25.114	1068.005	863.062
17.804	25.177	1067.310	862.727
18.819	25.293	1067.223	863.139
19.834	25.379	1066.389	862.804
20.848	25.355	1066.584	862.769
21.863	25.550	1064.870	862.241
22.877	25.342	1064.587	860.937
23.892	25.236	1064.202	860.044
24.907	25.387	1063.123	859.818
25.921	25.318	1062.302	858.746
26.936	25.210	1060.563	856.748
27.950	25.189	1059.241	855.505
28.965	25.234	1057.331	854.102
29.980	25.119	1056.076	852.466
30.994	25.377	1055.404	853.071
32.009	25.338	1054.485	852.070
33.023	25.180	1053.193	850.203
34.038	25.174	1052.650	849.658
35.053	25.500	1051.641	850.312
36.067	25.374	1050.990	849.116
37.082	25.510	1050.450	849.244
38.096	25.627	1049.259	848.762
39.111	25.599	1049.042	848.378
40.126	25.541	1047.573	846.842
41.140	25.066	1045.958	843.229
42.155	24.810	1044.216	840.543
43.169	25.016	1043.513	840.870
44.184	25.010	1042.355	839.837
45.199	25.050	1041.392	839.173
46.213	24.948	1040.933	838.250
47.228	25.258	1039.537	838.505
48.242	25.327	1039.106	838.405
49.257	25.348	1038.752	838.142
50.271	25.418	1038.058	837.831
51.286	25.395	1037.071	836.853
52.301	25.450	1035.752	835.974
53.315	25.385	1035.128	835.094
54.330	25.242	1034.249	833.644
55.344	25.258	1034.016	833.459
56.359	25.239	1032.511	832.085
57.374	25.099	1031.517	830.558
58.388	24.990	1030.810	829.413
59.403	25.091	1029.861	829.044
60.417	25.013	1028.958	827.885
61.432	25.130	1028.355	827.866
62.447	25.202	1027.770	827.653
63.461	25.129	1027.497	827.023
64.476	25.117	1025.873	825.589
65.490	25.028	1025.335	824.671
66.505	24.980	1025.060	824.158
67.520	25.098	1024.243	823.970
68.534	24.927	1022.786	821.937
69.549	24.497	1022.075	819.324
70.563	24.699	1020.719	819.090
71.578	24.720	1019.777	818.355
72.593	24.435	1019.294	816.592
73.607	24.641	1019.388	817.536
74.622	24.937	1018.531	818.131
75.636	24.888	1017.735	817.196
76.651	24.783	1016.979	816.036
77.666	24.739	1016.318	815.233
78.680	24.794	1015.411	814.683
79.695	24.852	1015.370	814.844
80.709	24.929	1014.425	814.361
81.724	24.850	1014.129	813.694
82.739	24.934	1013.139	813.208
83.753	25.293	1012.765	814.465
84.768	25.653	1011.551	815.050
85.782	25.565	1010.877	814.035
86.797	25.617	1009.620	813.189
87.812	25.641	1008.558	812.370
88.826	25.520	1008.001	811.300
89.841	25.587	1007.306	810.972
90.855	25.623	1006.338	810.285
91.870	25.667	1005.502	809.735
92.884	25.557	1003.919	807.898
93.899	25.409	1003.370	806.720
94.914	25.663	1002.401	807.005
95.928	25.453	1001.667	805.402
96.943	25.171	1000.599	803.212
97.957	24.985	999.448	801.384
98.972	24.830	998.371	799.758
99.987	25.175	997.641	800.642
101.001	25.359	996.921	800.814
102.016	25.278	996.173	799.779
103.030	25.130	995.457	798.476
104.045	25.027	994.453	797.141
105.060	24.935	993.434	795.848
106.074	25.188	992.646	796.266
107.089	25.376	991.905	796.435
108.103	25.321	991.060	795.446
109.118	25.046	990.211	793.476
110.133	25.000	989.098	792.310
111.147	24.766	987.988	790.314
112.162	24.870	986.747	789.714
113.176	24.958	986.852	790.114
114.191	24.973	985.452	788.990
115.206	24.695	984.606	787.020
116.220	24.646	983.960	786.220
117.235	24.768	982.742	785.710
118.249	24.668	982.234	784.798
119.264	24.665	981.459	784.095
120.279	24.762	980.765	783.897
121.293	24.770	979.792	783.084
122.308	24.959	978.813	783.059
123.322	24.708	977.531	780.870
124.337	24.565	976.895	779.668
125.352	24.155	975.161	776.429
126.366	24.083	974.157	775.246
127.381	24.828	974.661	778.821
128.395	25.251	973.684	779.808
129.410	25.383	973.238	779.959
130.424	25.368	971.984	778.818
131.439	25.252	970.984	777.446
132.454	25.170	970.754	776.837
133.468	25.198	969.416	775.822
134.483	25.254	968.794	775.497
135.497	25.586	967.770	776.040
136.512	25.627	966.793	775.364
137.527	25.703	965.880	774.889
138.541	25.680	965.549	774.457
139.556	25.575	964.741	773.288
140.570	25.686	963.937	773.055
141.585	25.715	962.872	772.255
142.600	25.454	962.006	770.374
143.614	25.722	961.635	771.155
144.629	25.803	960.746	770.722
145.643	25.657	959.550	769.069
146.658	25.558	958.323	767.599
147.673	25.371	957.183	765.820
148.687	25.347	956.089	764.771
149.702	25.446	954.841	764.128
150.716	25.439	954.387	763.668
151.731	25.445	954.132	763.423
152.746	25.617	953.464	763.551
153.760	25.655	952.614	762.964
154.775	26.001	951.904	763.792
155.789	25.662	951.580	762.030
156.804	25.567	950.908	761.022
157.819	25.835	949.355	760.843
158.833	25.933	948.959	760.873
159.848	25.909	947.851	759.816
160.862	25.674	946.886	757.985
161.877	25.768	945.451	757.166
162.892	25.900	944.430	756.833
163.906	25.627	943.951	755.239
164.921	25.575	943.105	754.274
165.935	25.604	942.457	753.812
166.950	25.716	941.603	753.531
167.964	25.730	940.178	752.383
168.979	25.599	939.083	750.893
169.994	25.559	938.489	750.187
171.008	25.757	937.662	750.281
172.023	25.810	936.683	749.655
173.037	25.583	935.958	748.063
174.052	25.454	934.861	746.583
175.067	25.575	934.399	746.652
176.081	25.437	934.178	745.834
177.096	25.435	933.391	745.134
178.110	25.294	932.026	743.394
179.125	25.030	931.674	741.954
180.140	25.134	931.150	741.901
181.154	25.391	931.032	742.804
182.169	25.580	930.836	743.366
183.183	25.764	931.009	744.196
184.198	25.661	929.607	742.584
185.213	25.682	928.960	742.089
186.227	25.761	928.130	741.686
187.242	25.730	927.999	741.387
188.256	25.765	927.215	740.842
189.271	25.858	926.503	740.587
190.286	25.465	924.905	737.634
191.300	24.684	923.753	733.445
192.315	24.107	922.155	729.750
193.329	24.130	921.936	729.604
194.344	25.010	922.050	733.236
195.359	25.591	922.294	735.742
196.373	25.750	921.332	735.559
197.388	25.415	921.410	734.185
198.402	25.502	920.589	733.822
199.417	25.452	920.260	733.292
200.432	25.346	918.888	731.701
201.446	25.140	918.116	730.182
202.461	25.117	918.036	729.959
203.475	24.356	915.678	724.930
204.490	23.614	914.023	720.545
205.504	24.712	914.441	725.264
206.519	25.127	915.120	727.424
207.534	25.236	914.678	727.452
208.548	25.758	914.081	729.026
209.563	25.468	912.983	726.912
210.577	25.352	912.470	725.970
211.592	25.889	912.195	727.857
212.607	25.751	911.354	726.566
213.621	25.899	910.644	726.531
214.636	25.943	909.973	726.109
215.650	25.722	909.569	724.833
216.665	25.883	909.009	724.970
217.680	25.872	907.928	724.000
218.694	25.326	906.764	720.818
219.709	25.072	906.341	719.396
220.723	25.583	905.788	720.943
221.738	25.547	905.192	720.263
222.753	25.529	904.542	719.607
223.767	25.719	904.411	720.202
224.782	25.671	904.308	719.865
225.796	25.850	903.640	719.984
226.811	25.209	901.988	716.045
227.826	24.619	900.904	712.770
228.840	24.753	900.247	712.719
229.855	24.867	899.369	712.413
230.869	24.605	898.288	710.454
231.884	24.790	898.428	711.237
232.899	25.643	898.470	714.598
233.913	25.544	897.758	713.577
234.928	25.497	897.152	712.844
235.942	25.375	896.782	712.003
236.957	25.222	895.746	710.513
237.972	25.246	895.176	710.094
238.986	25.261	894.766	709.764
240.001	25.449	894.320	710.088
241.015	25.535	893.768	709.929
242.030	25.619	893.069	709.641
243.045	25.701	892.558	709.496
244.059	25.806	892.334	709.668
245.074	25.364	891.667	707.335
246.088	25.267	890.534	705.994
247.103	25.519	890.180	706.639
248.117	26.020	890.488	708.791
249.132	26.382	889.998	709.759
250.147	26.311	889.926	709.363
251.161	26.526	889.341	709.674
252.176	26.553	888.324	708.907
253.190	26.670	887.883	708.948
254.205	26.755	887.148	708.634
255.220	26.742	886.618	708.097
256.234	26.573	885.610	706.567
257.249	26.392	885.498	705.708
258.263	26.416	884.137	704.655
259.278	26.563	883.979	705.042
260.293	26.708	883.170	704.896
261.307	26.509	882.526	703.546
262.322	26.247	881.525	701.669
263.336	25.477	880.120	697.500
264.351	24.467	878.056	691.893
265.366	24.625	877.916	692.332
266.380	25.647	878.595	696.768
267.395	26.081	878.418	698.247
268.409	26.117	877.613	697.683
269.424	26.229	877.040	697.596
270.439	26.273	876.876	697.575
271.453	26.431	875.751	697.230
272.468	26.563	875.760	697.681
273.482	26.679	875.136	697.568
274.497	26.110	874.255	694.618
275.512	25.788	873.338	692.587
276.526	26.196	873.354	694.108
277.541	26.464	872.820	694.651
278.555	26.135	872.154	692.798
279.570	26.138	870.806	691.678
280.585	26.191	870.830	691.839
281.599	26.311	869.250	690.980
282.614	25.646	868.509	687.790
283.628	25.407	868.230	686.592
284.643	25.872	867.725	687.909
285.657	25.487	866.514	685.422
286.672	25.227	865.857	683.850
287.687	25.752	866.046	685.937
288.701	25.898	865.295	685.840
289.716	25.603	864.314	683.880
290.730	25.443	863.908	682.891
291.745	25.206	862.934	681.161
292.760	25.551	862.673	682.201
293.774	26.566	863.273	686.466
294.789	26.941	862.713	687.381
295.803	26.906	862.335	686.887
296.818	27.026	861.481	686.601
297.833	26.471	860.618	683.755
298.847	26.369	860.043	682.854
299.862	26.625	860.047	683.763
300.876	26.810	859.832	684.229
301.891	26.807	858.396	683.012
302.906	26.341	857.703	680.648
303.920	26.349	857.709	680.624
304.935	26.744	857.700	682.043
305.949	26.770	856.510	681.132
306.964	26.517	855.953	679.680
307.979	26.620	855.353	679.529
308.993	26.946	855.086	680.481
310.008	26.981	854.734	680.271
311.022	26.540	853.866	677.867
312.037	26.562	853.171	677.340
313.052	26.349	851.992	675.547
314.066	25.408	850.614	670.884
315.081	25.095	849.895	669.088
316.095	26.139	850.403	673.327
317.110	26.416	850.224	674.159
318.125	25.660	848.307	669.763
319.139	24.626	846.730	664.618
320.154	24.626	846.680	664.517
321.168	25.502	847.065	668.018
322.183	26.198	847.124	670.594
323.197	26.300	846.998	670.813
324.212	26.532	846.721	671.394
325.227	26.724	846.154	671.597
326.241	26.362	845.450	669.639
327.256	26.380	844.304	668.737
328.270	26.206	844.371	668.088
329.285	26.080	843.127	666.579
330.300	25.975	842.313	665.488
331.314	26.097	842.305	665.873
332.329	26.626	842.398	667.840
333.343	26.648	842.017	667.560
334.358	26.567	841.632	666.896
335.373	26.691	841.315	667.043
336.387	26.937	841.284	667.864
337.402	27.007	841.164	667.968
338.416	27.070	840.642	667.727
339.431	27.151	840.453	667.815
340.446	27.368	839.910	668.121
341.460	27.072	839.334	666.519
342.475	27.097	838.655	666.010
343.489	27.207	838.470	666.209
344.504	27.429	838.118	666.681
345.519	27.673	837.513	667.033
346.533	27.670	837.252	666.757
347.548	27.515	836.793	665.764
348.562	27.504	836.219	665.211
349.577	27.420	835.671	664.408
350.592	27.449	834.808	663.770
351.606	27.503	834.043	663.299
352.621	27.225	833.040	661.433
353.635	26.991	832.937	660.440
354.650	26.526	831.057	657.201
355.665	25.613	829.929	652.939
356.679	26.034	829.743	654.265
357.694	26.529	829.189	655.563
358.708	26.584	828.579	655.220
359.723	26.849	828.561	656.108
360.738	27.124	828.366	656.890
361.752	27.373	827.656	657.167
362.767	27.685	827.645	658.228
363.781	27.933	826.837	658.420
364.796	27.882	826.634	658.018
365.810	27.889	826.364	657.770
366.825	27.879	825.972	657.361
367.840	27.658	824.938	655.686
368.854	27.216	824.215	653.466
369.869	27.238	824.061	653.364
370.883	27.227	823.188	652.576
371.898	27.142	823.160	652.192
372.913	27.310	822.745	652.407
373.927	27.330	822.385	652.133
374.942	27.400	821.899	651.943
375.956	27.711	821.384	652.590
376.971	27.849	821.160	652.848
377.986	27.882	820.681	652.527
379.000	27.878	820.034	651.941
380.015	27.760	819.541	651.070
381.029	27.801	818.748	650.528
382.044	27.907	818.181	650.397
383.059	27.873	817.773	649.894
384.073	27.911	817.468	649.731
385.088	27.910	816.841	649.170
386.102	27.611	816.050	647.424
387.117	27.516	815.382	646.497
388.132	27.209	814.216	644.430
389.146	26.777	813.083	641.946
390.161	27.094	813.277	643.163
391.175	27.548	813.405	644.814
392.190	27.175	812.130	642.429
393.205	25.835	809.732	635.751
394.219	24.369	807.981	629.153
395.234	24.254	807.890	628.623
396.248	25.974	809.668	636.020
397.263	27.334	810.814	641.667
398.278	27.390	809.895	641.078
399.292	27.110	809.129	639.430
400.307	27.027	808.723	638.761
401.321	27.176	808.314	638.905
402.336	27.736	808.251	640.767
403.350	28.143	808.055	641.983
404.365	28.398	807.937	642.725
405.380	28.514	807.800	642.966
406.394	28.572	807.276	642.697
407.409	28.489	806.989	642.120
408.423	28.552	806.405	641.819
409.438	28.497	806.235	641.434
410.453	28.572	805.602	641.136
411.467	28.539	804.707	640.255
412.482	28.584	804.836	640.454
413.496	28.589	804.721	640.326
414.511	28.573	804.244	639.834
415.526	28.541	803.602	639.155
416.540	28.411	802.421	637.707
417.555	28.171	802.096	636.556
418.569	28.401	801.725	637.007
419.584	28.247	800.979	635.820
420.599	28.025	800.602	634.696
421.613	111.783	1286.590	1459.644
422.628	96.471	1357.407	1459.774
