DTS Sentinel unit serial number:	SN413079Multiplexer serial number:	ORYXHardware model number:	OX4-SRSoftware version number:	ORYX F/W v4.00 Oryx Data Collector v3.7.2.0data status	okinstallation	princeton_trtdifferential loss correction	single-endedforward channel	channel 1reverse channel	N/Adate	2019/09/10time	20:20:11forward acquisition time	60.00reverse acquisition time	0.00gamma	496.2192k internal	0.2326k external	0.2326temperature offset calibration	0.9935default loss term (dB/km)	0.3790temperature slope calibration	1.0000multiplexer offset coefficient	1.0000multiplexer slope coefficient	1.0000fibre end	0.00T internal ref (°C)	32.19T ext. ref 1 (°C)	-0.31T ext. ref 2 (°C)	25.28length (m)	temperature (°C)	Stokes	anti-Stokes-747.200	60.079	-0.164	0.164
-746.185	400.887	0.095	-0.200
-745.171	-14.650	0.359	0.233
-744.156	81.110	-0.295	0.321
-743.142	-148.377	0.153	0.013
-742.127	-120.130	-0.104	0.018
-741.112	800.000	0.071	-0.275
-740.098	59.772	0.160	-0.159
-739.083	-200.000	0.006	-0.185
-738.069	-200.000	-0.001	-0.024
-737.054	199.958	-0.117	0.181
-736.039	800.000	0.051	-0.160
-735.025	192.627	-0.158	-0.240
-734.010	-13.401	0.235	-0.153
-732.996	-71.259	-0.314	-0.119
-731.981	-99.179	0.179	-0.046
-730.966	800.000	-0.058	0.239
-729.952	-103.672	0.082	-0.019
-728.937	78.582	-0.319	-0.344
-727.923	-42.744	-0.210	-0.108
-726.908	-40.314	-0.252	-0.132
-725.894	5.654	0.184	-0.137
-724.879	794.506	-0.129	-0.358
-723.864	290.377	0.182	-0.333
-722.850	28.034	-0.103	-0.088
-721.835	-189.703	-0.224	0.003
-720.821	133.441	0.078	0.101
-719.806	-200.000	-0.022	-0.380
-718.791	12.992	0.008	-0.006
-717.777	158.982	-0.242	-0.339
-716.762	793.211	0.123	-0.340
-715.748	-89.237	-0.256	-0.076
-714.733	21.131	0.198	0.162
-713.718	499.423	-0.045	0.104
-712.704	-200.000	-0.051	0.280
-711.689	47.163	0.093	0.087
-710.675	-45.477	-0.069	-0.034
-709.660	175.228	0.229	-0.334
-708.645	800.000	-0.050	-0.156
-707.631	-110.758	0.218	0.045
-706.616	-200.000	0.021	-0.115
-705.602	367.504	0.071	0.145
-704.587	-127.971	-0.199	0.029
-703.572	-81.646	0.208	0.069
-702.558	-200.000	-0.065	0.296
-701.543	-200.000	0.008	-0.192
-700.529	141.439	-0.086	-0.115
-699.514	147.980	-0.113	0.154
-698.499	32.287	0.292	-0.254
-697.485	-30.308	0.242	-0.138
-696.470	-10.113	0.118	0.079
-695.456	203.263	0.283	-0.441
-694.441	-200.000	0.052	-0.270
-693.426	502.284	-0.013	0.031
-692.412	161.533	-0.174	-0.245
-691.397	607.423	0.089	-0.222
-690.383	71.839	-0.362	-0.379
-689.368	-200.000	0.019	0.182
-688.354	-200.000	0.013	0.109
-687.339	31.066	0.168	0.145
-686.324	407.371	0.103	-0.219
-685.310	25.904	0.143	0.120
-684.295	47.695	-0.142	0.133
-683.281	-200.000	-0.028	-0.193
-682.266	149.182	0.115	-0.156
-681.251	800.000	-0.065	-0.259
-680.237	-200.000	-0.047	-0.378
-679.222	-92.594	-0.260	-0.073
-678.208	-200.000	0.056	-0.296
-677.193	76.578	0.131	-0.140
-676.178	166.172	0.095	-0.136
-675.164	232.026	-0.084	-0.139
-674.149	-200.000	0.001	0.249
-673.135	158.406	0.215	-0.301
-672.120	-200.000	-0.048	-0.253
-671.105	-114.947	0.102	-0.020
-670.091	30.344	0.044	-0.038
-669.076	-200.000	-0.017	0.208
-668.062	-129.424	-0.085	0.012
-667.047	-32.837	-0.050	-0.028
-666.032	32.990	-0.128	-0.112
-665.018	-199.182	-0.232	0.001
-664.003	-32.461	-0.058	-0.032
-662.989	-102.029	-0.133	-0.032
-661.974	-200.000	-0.301	0.000
-660.959	-112.327	0.229	-0.046
-659.945	-9.546	-0.384	0.257
-658.930	-145.884	0.130	0.012
-657.916	66.272	0.186	0.190
-656.901	-72.390	0.331	-0.123
-655.886	23.961	-0.198	-0.164
-654.872	-37.564	0.189	-0.101
-653.857	-86.607	-0.151	0.047
-652.843	-161.856	-0.243	-0.012
-651.828	-145.441	-0.293	0.026
-650.814	105.915	-0.093	-0.111
-649.799	-141.465	-0.284	0.029
-648.784	32.179	0.303	-0.263
-647.770	-40.270	-0.163	0.085
-646.755	24.269	-0.168	-0.139
-645.741	-200.000	0.041	0.198
-644.726	69.299	0.162	0.168
-643.711	800.000	-0.045	0.128
-642.697	-26.033	-0.166	-0.098
-641.682	400.139	0.194	0.408
-640.668	800.000	0.049	0.174
-639.653	-200.000	-0.032	-0.197
-638.638	-40.716	-0.215	0.112
-637.624	629.510	0.133	-0.339
-636.609	48.511	0.068	-0.064
-635.595	-24.821	0.090	-0.054
-634.580	282.887	0.161	0.290
-633.565	-107.837	0.240	0.052
-632.551	50.916	0.199	-0.190
-631.536	44.866	-0.246	-0.227
-630.522	-200.000	0.039	0.281
-629.507	-17.577	-0.365	0.230
-628.492	800.000	-0.049	0.159
-627.478	800.000	-0.059	-0.226
-626.463	201.129	-0.083	-0.129
-625.449	-200.000	0.004	-0.143
-624.434	-46.707	-0.290	0.143
-623.419	-86.738	0.273	0.084
-622.405	800.000	0.067	0.224
-621.390	-139.919	-0.387	-0.041
-620.376	215.271	-0.354	-0.564
-619.361	-185.055	-0.127	-0.002
-618.346	-200.000	0.022	-0.114
-617.332	800.000	-0.085	0.248
-616.317	572.268	-0.054	-0.133
-615.303	258.816	0.098	-0.170
-614.288	-101.574	-0.253	0.062
-613.273	-176.217	0.054	0.001
-612.259	7.881	-0.121	-0.091
-611.244	-19.639	-0.341	0.212
-610.230	-67.742	-0.132	-0.052
-609.215	126.912	-0.144	-0.183
-608.201	285.181	0.201	0.363
-607.186	171.675	-0.179	-0.258
-606.171	800.000	0.032	0.090
-605.157	-52.123	-0.127	-0.059
-604.142	-94.767	0.211	0.057
-603.128	-131.553	-0.099	-0.013
-602.113	-138.731	-0.235	0.026
-601.098	582.802	-0.061	-0.150
-600.084	-112.229	0.202	0.041
-599.069	86.653	0.108	-0.119
-598.055	-101.109	0.112	-0.027
-597.040	161.853	0.101	0.142
-596.025	-57.676	0.014	0.006
-595.011	-68.758	0.470	-0.182
-593.996	76.735	0.288	0.306
-592.982	-152.290	0.151	-0.011
-591.967	-200.000	0.034	0.379
-590.952	9.849	-0.030	-0.023
-589.938	-131.931	-0.209	0.027
-588.923	-94.008	-0.118	0.032
-587.909	579.019	-0.035	0.085
-586.894	276.048	-0.143	0.254
-585.879	800.000	0.020	-0.082
-584.865	208.707	-0.129	0.202
-583.850	-200.000	-0.021	0.106
-582.836	-162.572	-0.146	-0.007
-581.821	-43.657	0.129	0.065
-580.806	800.000	0.097	-0.302
-579.792	-160.501	0.333	0.018
-578.777	-50.400	-0.188	0.089
-577.763	-200.000	-0.010	0.205
-576.748	-129.169	-0.380	-0.053
-575.733	-44.670	-0.067	0.034
-574.719	-140.367	0.280	0.029
-573.704	-139.454	0.302	0.032
-572.690	800.000	-0.047	-0.153
-571.675	225.843	-0.118	0.192
-570.661	800.000	0.042	0.121
-569.646	383.109	-0.079	0.163
-568.631	-75.750	-0.118	-0.042
-567.617	-129.085	0.251	-0.035
-566.602	-137.677	-0.161	-0.018
-565.588	-24.976	0.184	0.110
-564.573	-200.000	-0.005	-0.027
-563.558	-53.832	0.181	-0.083
-562.544	-165.724	0.211	0.009
-561.529	-33.435	-0.275	-0.152
-560.515	234.042	0.031	-0.051
-559.500	-139.436	-0.508	0.055
-558.485	-3.001	-0.174	-0.122
-557.471	-44.696	0.283	-0.141
-556.456	-69.535	-0.160	0.062
-555.442	-200.000	-0.049	0.354
-554.427	800.000	-0.032	-0.116
-553.412	-200.000	0.012	-0.208
-552.398	4.056	0.119	-0.087
-551.383	800.000	-0.010	0.038
-550.369	267.280	-0.087	-0.151
-549.354	-95.684	0.293	0.078
-548.339	154.768	0.142	-0.195
-547.325	142.957	-0.161	-0.214
-546.310	-200.000	-0.060	-0.328
-545.296	490.056	0.062	-0.143
-544.281	386.374	-0.051	0.106
-543.266	-200.000	-0.001	-0.162
-542.252	337.988	-0.036	-0.071
-541.237	-200.000	0.045	-0.250
-540.223	800.000	0.069	0.235
-539.208	280.499	0.071	0.127
-538.193	800.000	0.031	0.125
-537.179	54.153	-0.071	-0.068
-536.164	-134.174	0.037	-0.005
-535.150	-14.556	0.364	-0.234
-534.135	-200.000	0.023	0.104
-533.121	-200.000	-0.031	0.163
-532.106	-160.552	-0.182	0.010
-531.091	113.485	-0.200	0.243
-530.077	-144.619	0.241	0.022
-529.062	-99.763	-0.382	0.096
-528.048	-89.625	0.312	-0.092
-527.033	-101.492	-0.391	0.095
-526.018	533.868	0.094	-0.224
-525.004	-117.608	0.284	-0.051
-523.989	8.343	0.113	-0.085
-522.975	62.118	0.164	-0.163
-521.960	-142.158	-0.068	-0.007
-520.945	203.125	-0.196	-0.304
-519.931	140.437	0.042	-0.055
-518.916	497.114	-0.153	0.351
-517.902	-200.000	-0.053	0.000
-516.887	104.231	-0.058	-0.069
-515.872	-132.324	-0.174	0.022
-514.858	100.933	-0.142	0.165
-513.843	32.766	-0.138	-0.119
-512.829	-200.000	-0.017	0.384
-511.814	551.172	-0.118	-0.283
-510.799	367.292	-0.113	-0.227
-509.785	-200.000	0.006	-0.120
-508.770	-76.067	0.361	-0.127
-507.756	-200.000	-0.033	-0.324
-506.741	-57.897	-0.352	-0.154
-505.726	662.219	-0.023	0.058
-504.712	86.415	0.307	-0.339
-503.697	-200.000	-0.007	-0.039
-502.683	-200.000	0.038	0.238
-501.668	30.959	0.220	-0.188
-500.653	259.751	-0.061	0.105
-499.639	373.620	-0.014	-0.028
-498.624	798.248	-0.021	0.057
-497.610	-51.721	-0.111	0.052
-496.595	-79.691	0.151	-0.051
-495.581	-200.000	0.023	0.130
-494.566	197.980	-0.147	-0.225
-493.551	-123.527	0.051	-0.008
-492.537	-69.518	0.130	0.050
-491.522	-200.000	-0.062	0.277
-490.508	152.836	-0.087	-0.119
-489.493	149.716	-0.154	-0.208
-488.478	-200.000	-0.024	0.278
-487.464	-91.511	-0.072	0.020
-486.449	221.991	-0.188	0.302
-485.435	294.150	0.065	0.119
-484.420	-200.000	-0.021	0.214
-483.405	-126.812	-0.051	-0.007
-482.391	5.743	-0.054	-0.040
-481.376	55.847	0.184	-0.178
-480.362	-70.818	0.178	0.067
-479.347	-144.683	0.178	-0.016
-478.332	65.550	-0.125	0.126
-477.318	-93.843	-0.378	-0.104
-476.303	656.777	-0.099	-0.255
-475.289	-200.000	-0.007	0.148
-474.274	-54.996	0.124	0.056
-473.259	-127.877	0.298	-0.043
-472.245	203.053	-0.100	0.155
-471.230	-138.876	0.273	-0.030
-470.216	-200.000	-0.039	0.220
-469.201	186.092	-0.099	-0.147
-468.186	169.196	0.223	-0.318
-467.172	29.183	-0.044	0.037
-466.157	51.573	0.432	0.410
-465.143	31.752	0.069	-0.059
-464.128	-110.345	0.073	-0.015
-463.113	-114.297	0.126	0.024
-462.099	69.875	0.149	0.153
-461.084	-200.000	0.018	0.080
-460.070	-156.575	0.164	0.010
-459.055	-54.477	0.201	0.091
-458.040	-113.858	-0.315	-0.061
-457.026	40.216	0.243	0.218
-456.011	473.000	-0.062	0.140
-454.997	-72.523	-0.209	-0.077
-453.982	612.559	0.105	-0.261
-452.968	120.294	-0.092	0.113
-451.953	24.048	-0.173	0.143
-450.938	79.866	-0.051	-0.055
-449.924	-132.238	-0.341	0.044
-448.909	800.000	0.016	-0.050
-447.895	-62.384	0.260	0.108
-446.880	-156.832	0.088	0.005
-445.865	114.566	0.122	-0.149
-444.851	481.055	0.198	-0.448
-443.836	-75.534	0.113	0.040
-442.822	-148.282	-0.149	-0.012
-441.807	396.799	0.087	-0.182
-440.792	177.537	-0.016	-0.023
-439.778	203.081	-0.156	0.241
-438.763	-200.000	0.003	0.250
-437.749	39.341	0.305	-0.272
-436.734	153.984	0.177	-0.241
-435.719	-142.062	0.246	-0.024
-434.705	-42.774	-0.081	0.041
-433.690	-52.976	-0.324	-0.149
-432.676	-200.000	-0.049	-0.241
-431.661	100.365	-0.228	-0.264
-430.646	-187.034	0.168	0.002
-429.632	-200.000	0.058	-0.306
-428.617	316.397	0.100	0.188
-427.603	-39.015	0.157	0.082
-426.588	-200.000	-0.034	0.376
-425.573	-0.633	0.117	-0.083
-424.559	800.000	0.044	-0.151
-423.544	-162.228	0.330	-0.016
-422.530	79.149	0.244	-0.260
-421.515	-103.406	-0.197	0.046
-420.500	-44.249	-0.087	-0.043
-419.486	33.595	0.065	-0.056
-418.471	-200.000	-0.081	0.415
-417.457	-71.307	-0.354	0.132
-416.442	-200.000	0.052	-0.245
-415.428	800.000	-0.032	-0.115
-414.413	-189.918	-0.284	0.003
-413.398	800.000	-0.082	-0.340
-412.384	800.000	-0.035	-0.129
-411.369	-102.218	-0.524	-0.126
-410.355	246.856	0.031	0.052
-409.340	-67.011	-0.095	0.037
-408.325	-79.707	0.053	-0.018
-407.311	97.224	0.188	0.214
-406.296	800.000	0.060	0.196
-405.282	-200.000	-0.026	-0.136
-404.267	316.027	-0.153	-0.287
-403.252	-125.298	-0.110	-0.017
-402.238	-200.000	0.027	-0.135
-401.223	-113.674	0.309	0.060
-400.209	800.000	-0.074	-0.223
-399.194	104.291	0.078	0.091
-398.179	-168.198	0.044	0.002
-397.165	-55.428	-0.172	0.077
-396.150	159.443	-0.130	0.180
-395.136	-200.000	-0.019	-0.535
-394.121	51.556	0.188	0.178
-393.106	26.684	-0.148	-0.124
-392.092	-126.459	0.487	-0.072
-391.077	-100.527	-0.196	-0.048
-390.063	-49.283	0.066	0.031
-389.048	152.232	-0.224	0.304
-388.033	-200.000	-0.009	0.064
-387.019	346.495	-0.035	-0.069
-386.004	200.426	-0.234	0.358
-384.990	-200.000	-0.013	-0.202
-383.975	-112.618	0.165	0.033
-382.960	-74.855	0.146	-0.052
-381.946	-91.820	0.244	0.069
-380.931	-48.092	-0.021	0.010
-379.917	41.394	-0.110	0.099
-378.902	800.000	-0.018	0.075
-377.888	-200.000	0.016	0.151
-376.873	800.000	0.062	-0.255
-375.858	-140.518	0.159	0.016
-374.844	-145.080	0.351	-0.032
-373.829	-118.912	-0.331	0.058
-372.815	114.498	-0.238	0.289
-371.800	396.882	-0.081	-0.168
-370.785	-200.000	-0.047	0.225
-369.771	18.086	-0.150	-0.119
-368.756	-150.191	-0.290	-0.022
-367.742	-140.671	-0.069	0.007
-366.727	-194.125	0.302	-0.002
-365.712	-64.975	0.077	-0.031
-364.698	501.053	0.123	-0.282
-363.683	-76.333	0.147	-0.051
-362.669	111.736	-0.042	-0.050
-361.654	-66.622	-0.108	-0.042
-360.639	454.482	0.132	-0.290
-359.625	484.968	-0.105	0.237
-358.610	-43.925	-0.145	0.072
-357.596	800.000	-0.096	-0.311
-356.581	800.000	0.024	0.071
-355.566	449.020	-0.068	-0.149
-354.552	-200.000	0.084	-0.399
-353.537	107.914	-0.073	0.086
-352.523	118.863	-0.249	-0.306
-351.508	800.000	-0.049	-0.186
-350.493	-200.000	0.029	-0.199
-349.479	116.679	-0.208	0.253
-348.464	-31.411	0.250	-0.140
-347.450	-200.000	0.006	0.138
-346.435	433.942	0.132	0.284
-345.420	-200.000	-0.013	0.195
-344.406	30.979	0.131	-0.111
-343.391	-55.052	0.113	0.050
-342.377	-200.000	-0.059	-0.274
-341.362	-200.000	0.089	-0.507
-340.348	-120.850	-0.158	-0.027
-339.333	-200.000	0.007	-0.192
-338.318	-18.462	0.184	0.114
-337.304	188.114	-0.234	0.347
-336.289	-113.357	-0.270	0.053
-335.275	-200.000	0.017	-0.142
-334.260	199.674	-0.224	-0.342
-333.245	-14.480	0.117	0.074
-332.231	-168.602	-0.064	0.002
-331.216	-200.000	-0.010	-0.309
-330.202	-20.605	-0.105	0.064
-329.187	-153.797	-0.143	0.010
-328.172	800.000	0.064	0.207
-327.158	-58.377	-0.233	-0.101
-326.143	-42.091	-0.336	-0.170
-325.129	-109.385	-0.156	-0.033
-324.114	-20.377	0.208	0.127
-323.099	88.400	-0.209	-0.231
-322.085	535.241	-0.070	0.166
-321.070	103.465	-0.088	0.103
-320.056	-200.000	0.024	-0.113
-319.041	113.855	-0.141	-0.170
-318.026	93.392	0.117	0.132
-317.012	9.478	0.242	0.182
-315.997	-131.216	0.356	0.047
-314.983	-83.797	-0.148	-0.047
-313.968	-7.766	-0.324	0.217
-312.953	93.649	0.184	0.207
-311.939	78.772	-0.244	0.258
-310.924	-200.000	0.010	0.242
-309.910	286.011	-0.142	0.255
-308.895	5.911	0.120	0.088
-307.880	800.000	0.089	0.261
-306.866	-200.000	0.090	0.530
-305.851	364.527	0.051	0.103
-304.837	372.976	-0.191	0.386
-303.822	96.249	0.231	0.262
-302.807	-200.000	-0.027	0.138
-301.793	-200.000	0.003	0.069
-300.778	-200.000	-0.012	-0.101
-299.764	800.000	-0.068	-0.269
-298.749	800.000	0.104	0.298
-297.735	454.500	-0.140	0.309
-296.720	492.741	-0.130	0.296
-295.705	54.925	0.169	-0.161
-294.691	37.479	-0.186	0.163
-293.676	332.065	-0.108	0.207
-292.662	-200.000	0.032	0.291
-291.647	69.573	0.158	-0.162
-290.632	-79.088	0.034	0.011
-289.618	12.191	0.095	-0.073
-288.603	-108.551	0.113	-0.024
-287.589	88.297	0.169	-0.186
-286.574	-146.837	0.154	0.013
-285.559	-200.000	-0.032	-0.395
-284.545	-59.126	-0.184	0.079
-283.530	-179.389	-0.167	-0.004
-282.516	618.978	-0.117	0.291
-281.501	800.000	0.053	-0.157
-280.486	403.965	0.038	-0.080
-279.472	-200.000	0.029	0.284
-278.457	453.976	-0.193	0.423
-277.443	201.358	0.132	-0.201
-276.428	-37.200	-0.215	0.114
-275.413	-200.000	0.003	0.085
-274.399	348.161	-0.118	0.231
-273.384	71.453	-0.054	-0.055
-272.370	-94.365	0.329	-0.089
-271.355	38.897	-0.123	-0.109
-270.340	-197.791	0.235	0.001
-269.326	82.927	-0.056	0.060
-268.311	-182.232	-0.076	0.001
-267.297	800.000	-0.043	0.175
-266.282	-155.222	0.208	-0.013
-265.267	-37.144	-0.063	0.033
-264.253	800.000	0.040	-0.128
-263.238	-5.063	0.095	0.065
-262.224	-200.000	-0.055	-0.392
-261.209	-159.411	0.176	0.010
-260.195	217.978	-0.085	0.135
-259.180	-7.827	-0.237	0.158
-258.165	-200.000	-0.043	0.354
-257.151	-200.000	0.001	0.039
-256.136	37.668	-0.131	-0.115
-255.122	800.000	-0.055	-0.204
-254.107	121.240	-0.146	0.180
-253.092	-33.093	-0.167	0.091
-252.078	307.283	-0.105	-0.193
-251.063	109.162	0.218	-0.258
-250.049	220.005	0.101	-0.160
-249.034	-82.059	-0.248	-0.080
-248.019	-78.362	0.176	-0.060
-247.005	472.637	0.091	-0.204
-245.990	18.376	-0.338	-0.267
-244.976	-28.454	0.153	0.087
-243.961	-73.342	-0.052	-0.019
-242.946	-200.000	-0.018	0.335
-241.932	-105.705	0.275	0.062
-240.917	-200.000	0.024	-0.236
-239.903	800.000	-0.025	-0.103
-238.888	54.053	-0.149	0.141
-237.873	-103.601	-0.161	0.037
-236.859	-130.235	0.212	-0.029
-235.844	-23.766	0.351	-0.208
-234.830	182.998	-0.070	-0.103
-233.815	-43.399	0.060	0.030
-232.800	-200.000	0.003	-0.186
-231.786	800.000	0.136	0.439
-230.771	174.514	-0.228	-0.326
-229.757	-77.113	0.308	0.106
-228.742	-200.000	-0.029	0.336
-227.727	393.625	-0.152	-0.312
-226.713	-16.330	-0.049	0.030
-225.698	-90.593	-0.206	-0.059
-224.684	-161.704	-0.210	0.011
-223.669	-120.102	-0.138	0.023
-222.655	-48.352	-0.242	-0.115
-221.640	-136.649	0.203	0.023
-220.625	-28.884	0.286	0.162
-219.611	200.954	-0.087	-0.132
-218.596	-200.000	-0.009	-0.191
-217.582	800.000	-0.021	-0.062
-216.567	105.793	-0.267	0.311
-215.552	800.000	-0.081	0.282
-214.538	-74.247	0.309	-0.111
-213.523	26.485	0.120	0.099
-212.509	211.914	0.124	-0.192
-211.494	800.000	0.097	-0.314
-210.479	-200.000	0.028	0.291
-209.465	89.554	-0.100	0.110
-208.450	-200.000	-0.001	0.173
-207.436	-10.830	0.106	-0.069
-206.421	23.115	-0.123	-0.100
-205.406	-50.675	0.122	-0.057
-204.392	-200.000	0.029	-0.313
-203.377	-146.275	0.153	-0.013
-202.363	-200.000	-0.002	-0.103
-201.348	64.002	-0.282	-0.280
-200.333	-200.000	0.022	0.120
-199.319	-19.805	0.456	0.278
-198.304	44.634	0.187	0.170
-197.290	-200.000	0.016	0.078
-196.275	-112.067	-0.241	-0.048
-195.260	-187.764	-0.109	0.001
-194.246	-130.045	0.112	0.015
-193.231	-123.762	-0.292	-0.046
-192.217	41.823	0.185	-0.166
-191.202	-137.124	0.413	-0.047
-190.187	194.546	0.082	-0.122
-189.173	-169.609	-0.230	0.008
-188.158	-146.907	0.399	0.034
-187.144	-196.884	0.264	0.002
-186.129	800.000	0.049	0.169
-185.114	-65.629	0.209	0.083
-184.100	-20.087	0.447	0.272
-183.085	2.610	-0.127	-0.091
-182.071	-44.041	-0.177	-0.088
-181.056	309.282	-0.056	-0.104
-180.042	76.540	0.113	-0.118
-179.027	800.000	0.049	-0.193
-178.012	119.655	0.154	-0.188
-176.998	-200.000	0.005	0.032
-175.983	276.902	0.091	0.159
-174.969	-29.391	0.162	-0.092
-173.954	-21.932	-0.310	0.186
-172.939	215.392	0.365	0.571
-171.925	-200.000	0.116	-0.583
-170.910	224.212	-0.125	-0.200
-169.896	800.000	-0.047	0.201
-168.881	204.955	0.219	-0.335
-167.866	-94.254	-0.393	-0.106
-166.852	-200.000	0.038	0.191
-165.837	543.074	-0.121	0.286
-164.823	-18.990	0.320	0.196
-163.808	-83.114	0.545	0.173
-162.793	159.121	0.125	-0.171
-161.779	527.639	0.069	-0.160
-160.764	-0.562	0.153	-0.107
-159.750	89.107	-0.196	0.215
-158.735	20.593	-0.290	0.231
-157.720	78.253	-0.059	0.063
-156.706	296.107	-0.035	0.064
-155.691	-200.000	-0.046	-0.266
-154.677	-178.069	0.092	0.002
-153.662	-30.326	0.159	-0.089
-152.647	274.478	0.080	0.139
-151.633	-97.282	-0.234	0.060
-150.618	104.000	0.217	0.251
-149.604	800.000	-0.110	0.426
-148.589	17.609	0.102	0.080
-147.574	-87.353	-0.295	0.088
-146.560	-148.942	0.122	0.010
-145.545	-200.000	0.102	0.000
-144.531	770.838	-0.056	-0.150
-143.516	-54.531	-0.159	0.071
-142.502	341.540	0.016	-0.031
-141.487	2.979	0.070	-0.050
-140.472	312.031	-0.066	-0.121
-139.458	-80.077	0.176	-0.058
-138.443	800.000	0.121	0.365
-137.429	-25.245	0.040	-0.023
-136.414	-186.348	0.256	0.004
-135.399	247.246	0.027	-0.044
-134.385	298.498	0.071	-0.128
-133.370	-200.000	-0.012	-0.055
-132.356	-200.000	-0.006	-0.161
-131.341	-116.517	-0.265	-0.048
-130.326	800.000	-0.028	0.110
-129.312	-100.379	0.409	0.100
-128.297	-53.442	0.318	-0.143
-127.283	-200.000	0.006	0.067
-126.268	14.252	0.222	-0.170
-125.253	93.350	-0.175	-0.195
-124.239	800.000	0.145	0.428
-123.224	800.000	0.070	-0.201
-122.210	42.408	-0.285	-0.255
-121.195	-200.000	-0.031	0.356
-120.180	659.093	-0.048	0.121
-119.166	-66.467	0.298	-0.116
-118.151	-174.054	-0.121	-0.003
-117.137	-105.419	-0.149	-0.033
-116.122	-200.000	-0.042	0.198
-115.107	-174.898	-0.406	-0.011
-114.093	28.331	0.323	0.269
-113.078	40.102	0.224	0.198
-112.064	227.836	-0.055	0.088
-111.049	69.166	-0.227	0.230
-110.034	800.000	0.086	0.338
-109.020	800.000	-0.085	0.312
-108.005	-200.000	0.013	0.158
-106.991	-200.000	0.055	0.291
-105.976	-56.827	-0.292	0.127
-104.962	110.057	-0.263	0.310
-103.947	-61.158	0.237	0.098
-102.932	-3.370	0.159	-0.109
-101.918	-200.000	-0.076	-0.342
-100.903	800.000	0.086	-0.311
-99.889	800.000	-0.045	0.133
-98.874	106.578	-0.261	-0.305
-97.859	-51.330	-0.281	0.129
-96.845	11.954	-0.100	-0.075
-95.830	-67.965	-0.112	0.043
-94.816	-200.000	0.027	-0.287
-93.801	-37.950	-0.073	-0.038
-92.786	191.972	0.008	0.011
-91.772	-79.606	0.149	0.050
-90.757	196.135	-0.087	-0.130
-89.743	-91.319	-0.203	-0.057
-88.728	-200.000	-0.018	-0.099
-87.713	-150.282	-0.126	-0.010
-86.699	-60.676	0.268	0.112
-85.684	-127.277	-0.191	-0.027
-84.670	-200.000	0.006	-0.170
-83.655	-200.000	-0.010	0.227
-82.640	-106.830	0.227	0.049
-81.626	-200.000	-0.030	-0.246
-80.611	-5.239	-0.154	-0.104
-79.597	-71.772	-0.110	0.040
-78.582	-21.131	0.089	-0.054
-77.567	1.829	-0.041	0.029
-76.553	-117.078	-0.119	0.021
-75.538	-95.348	0.414	-0.109
-74.524	304.187	-0.102	-0.185
-73.509	284.613	-0.063	-0.112
-72.494	-72.696	0.358	0.130
-71.480	-112.980	-0.038	-0.007
-70.465	194.572	-0.135	-0.200
-69.451	1.833	-0.132	-0.093
-68.436	-89.322	-0.107	0.031
-67.422	744.204	0.065	0.172
-66.407	4.386	-0.090	0.065
-65.392	-28.301	0.230	0.130
-64.378	162.402	-0.136	0.188
-63.363	-4.125	0.289	0.196
-62.349	54.178	0.176	0.166
-61.334	136.147	-0.703	-0.899
-60.319	194.285	0.447	0.665
-59.305	-200.000	-0.188	-0.962
-58.290	268.036	0.556	0.956
-57.276	302.225	0.771	1.401
-56.261	-200.000	98.602	596.588
-55.246	604.336	1406.756	3437.932
-54.232	191.550	2597.510	3841.146
-53.217	117.711	2150.301	2598.824
-52.203	43.986	1606.033	1444.904
-51.188	35.668	1344.285	1159.457
-50.173	32.393	1303.105	1104.704
-49.159	54.021	1352.840	1276.797
-48.144	56.227	1367.667	1303.919
-47.130	35.753	1325.260	1143.374
-46.115	32.281	1308.122	1108.124
-45.100	32.180	1303.152	1103.275
-44.086	32.090	1300.490	1100.450
-43.071	32.025	1298.582	1098.413
-42.057	32.036	1296.281	1096.485
-41.042	32.067	1294.380	1095.017
-40.027	32.108	1292.871	1093.935
-39.013	32.153	1290.901	1092.485
-37.998	32.179	1289.131	1091.099
-36.984	32.088	1287.711	1089.320
-35.969	32.233	1285.731	1088.445
-34.954	32.261	1284.210	1087.275
-33.940	32.201	1283.125	1085.966
-32.925	32.173	1281.789	1084.629
-31.911	32.326	1279.980	1083.941
-30.896	32.333	1278.534	1082.710
-29.881	32.340	1277.169	1081.553
-28.867	32.265	1276.084	1080.160
-27.852	32.326	1274.570	1079.187
-26.838	32.328	1272.495	1077.402
-25.823	32.254	1271.614	1076.189
-24.809	32.264	1270.122	1074.939
-23.794	32.269	1269.044	1074.010
-22.779	32.266	1267.944	1073.024
-21.765	32.283	1265.893	1071.342
-20.750	32.332	1265.181	1070.973
-19.736	32.167	1263.661	1068.708
-18.721	32.251	1262.343	1068.027
-17.706	32.150	1261.492	1066.688
-16.692	32.083	1260.355	1065.308
-15.677	32.193	1258.888	1064.648
-14.663	32.056	1257.913	1063.004
-13.648	32.101	1256.674	1062.171
-12.633	32.055	1256.216	1061.479
-11.619	32.078	1255.392	1060.871
-10.604	32.147	1254.360	1060.349
-9.590	32.128	1253.382	1059.373
-8.575	32.080	1252.462	1058.280
-7.560	32.059	1251.568	1057.365
-6.546	32.094	1250.482	1056.605
-5.531	32.078	1249.727	1055.832
-4.517	32.119	1248.785	1055.226
-3.502	32.177	1247.689	1054.586
-2.487	32.061	1246.676	1053.036
-1.473	32.026	1242.958	1049.657
-0.458	30.520	1227.744	1028.440
0.556	24.648	1209.409	988.862
1.571	20.733	1214.142	970.852
2.586	19.816	1228.718	977.241
3.600	19.551	1218.045	967.182
4.615	14.280	1146.415	882.363
5.629	4.618	1069.909	775.414
6.644	0.016	1049.369	737.915
7.659	-0.363	1046.772	734.166
8.673	-0.430	1045.732	733.046
9.688	-0.462	1044.314	731.829
10.702	-0.070	1042.175	732.174
11.717	5.785	1050.899	766.942
12.731	14.695	1063.772	820.213
13.746	18.522	1068.076	842.298
14.761	18.650	1068.266	843.000
15.775	18.361	1067.729	841.086
16.790	18.130	1066.494	838.902
17.804	18.180	1065.483	838.279
18.819	18.135	1065.540	838.031
19.834	18.253	1064.580	837.776
20.848	18.359	1063.971	837.743
21.863	18.276	1063.453	836.855
22.877	17.997	1063.307	835.305
23.892	18.056	1062.528	834.907
24.907	18.084	1062.281	834.775
25.921	18.142	1060.628	833.682
26.936	18.122	1059.222	832.409
27.950	18.234	1057.212	831.298
28.965	18.020	1055.688	828.986
29.980	18.144	1053.641	827.906
30.994	18.312	1052.574	827.808
32.009	18.298	1051.451	826.785
33.023	18.127	1050.154	824.868
34.038	18.174	1049.130	824.217
35.053	18.300	1048.211	824.030
36.067	18.253	1047.709	823.333
37.082	18.403	1046.982	823.408
38.096	18.538	1045.673	822.956
39.111	18.555	1045.028	822.456
40.126	18.489	1043.737	821.052
41.140	18.033	1041.957	817.397
42.155	17.879	1040.496	815.447
43.169	18.097	1039.362	815.524
44.184	18.157	1038.292	814.898
45.199	17.919	1037.788	813.298
46.213	18.031	1036.403	812.673
47.228	18.068	1035.333	811.936
48.242	18.063	1034.672	811.324
49.257	18.100	1033.820	810.759
50.271	18.235	1032.722	810.465
51.286	18.307	1031.471	809.754
52.301	18.334	1030.639	809.156
53.315	18.239	1030.187	808.279
54.330	18.242	1028.749	807.094
55.344	18.278	1028.405	806.925
56.359	18.284	1026.937	805.730
57.374	18.024	1026.061	803.746
58.388	18.073	1025.592	803.539
59.403	18.032	1024.872	802.712
60.417	17.957	1023.594	801.289
61.432	17.983	1023.130	800.976
62.447	18.129	1022.291	800.931
63.461	18.106	1021.646	800.247
64.476	18.108	1020.291	799.126
65.490	18.114	1019.307	798.311
66.505	18.142	1018.520	797.757
67.520	18.111	1017.718	796.912
68.534	17.945	1016.815	795.361
69.549	17.721	1015.895	793.528
70.563	17.580	1014.943	792.060
71.578	17.780	1013.690	791.938
72.593	17.738	1012.946	791.096
73.607	17.804	1012.321	790.841
74.622	17.997	1012.609	791.893
75.636	18.060	1011.101	790.934
76.651	18.077	1009.760	789.891
77.666	17.839	1009.406	788.448
78.680	17.977	1008.825	788.559
79.695	17.907	1008.312	787.768
80.709	17.987	1007.526	787.452
81.724	17.930	1006.310	786.171
82.739	18.124	1005.602	786.439
83.753	18.287	1005.154	786.768
84.768	18.477	1004.011	786.678
85.782	18.549	1003.078	786.204
86.797	18.434	1002.161	784.891
87.812	18.309	1001.252	783.538
88.826	18.392	999.986	782.855
89.841	18.514	999.144	782.683
90.855	18.397	998.424	781.518
91.870	18.541	997.055	781.035
92.884	18.366	995.873	779.241
93.899	18.313	995.039	778.281
94.914	18.427	994.502	778.308
95.928	18.340	993.361	776.954
96.943	18.199	992.062	775.230
97.957	17.906	990.908	772.933
98.972	17.763	989.915	771.443
99.987	17.998	989.124	771.818
101.001	18.338	988.041	772.439
102.016	18.247	987.603	771.620
103.030	18.075	986.787	770.138
104.045	17.911	985.579	768.390
105.060	17.812	984.584	767.101
106.074	18.001	983.911	767.357
107.089	18.376	983.343	768.529
108.103	18.453	981.837	767.631
109.118	18.104	981.109	765.428
110.133	18.274	979.914	765.189
111.147	18.085	978.751	763.370
112.162	18.010	977.575	762.052
113.176	18.058	977.236	761.932
114.191	18.050	976.132	760.968
115.206	17.718	975.199	758.696
116.220	17.824	974.119	758.262
117.235	17.820	973.331	757.563
118.249	17.848	972.793	757.202
119.264	17.841	971.680	756.237
120.279	17.849	971.296	755.907
121.293	18.023	970.248	755.793
122.308	18.048	969.557	755.298
123.322	18.049	967.901	753.947
124.337	17.976	966.090	752.149
125.352	17.475	965.010	749.039
126.366	17.393	963.501	747.442
127.381	17.917	963.960	750.033
128.395	18.344	963.050	751.130
129.410	18.393	962.077	750.520
130.424	18.313	960.860	749.154
131.439	18.328	959.666	748.223
132.454	18.244	958.950	747.232
133.468	18.400	957.769	746.926
134.483	18.399	956.774	746.080
135.497	18.607	956.184	746.459
136.512	18.543	955.830	745.838
137.527	18.644	954.283	745.003
138.541	18.506	953.572	743.783
139.556	18.549	952.669	743.201
140.570	18.552	951.801	742.468
141.585	18.534	950.555	741.354
142.600	18.413	950.167	740.465
143.614	18.637	949.462	740.815
144.629	18.799	948.430	740.645
145.643	18.585	947.203	738.699
146.658	18.516	946.244	737.588
147.673	18.480	945.422	736.727
148.687	18.339	944.382	735.246
149.702	18.450	943.388	734.883
150.716	18.277	942.721	733.557
151.731	18.304	942.350	733.321
152.746	18.650	941.741	734.261
153.760	18.812	940.449	733.882
154.775	18.754	939.994	733.215
155.789	18.604	939.464	732.094
156.804	18.568	938.254	730.934
157.819	18.782	937.077	730.864
158.833	18.742	936.715	730.344
159.848	18.782	935.285	729.335
160.862	18.486	934.433	727.352
161.877	18.701	933.484	727.458
162.892	18.741	933.036	727.217
163.906	18.760	931.493	726.029
164.921	18.645	931.113	725.182
165.935	18.839	929.758	724.881
166.950	18.733	928.535	723.419
167.964	18.740	927.934	722.916
168.979	18.541	927.123	721.380
169.994	18.624	925.961	720.764
171.008	18.698	925.626	720.749
172.023	18.565	924.865	719.536
173.037	18.412	923.627	717.868
174.052	18.296	922.723	716.617
175.067	18.359	922.269	716.461
176.081	18.706	921.353	717.137
177.096	18.754	920.326	716.476
178.110	18.288	919.584	713.893
179.125	18.203	918.920	712.957
180.140	18.420	918.231	713.262
181.154	18.368	918.118	712.896
182.169	18.439	918.139	713.147
183.183	18.709	917.537	713.738
184.198	18.710	916.238	712.666
185.213	18.555	915.816	711.632
186.227	18.666	914.966	711.370
187.242	18.666	914.109	710.639
188.256	18.787	913.195	710.369
189.271	18.819	912.592	709.968
190.286	18.612	911.402	708.126
191.300	18.100	910.352	705.135
192.315	17.574	908.537	701.501
193.329	17.328	908.481	700.382
194.344	18.203	908.655	704.056
195.359	18.527	908.465	705.180
196.373	18.680	907.703	705.154
197.388	18.559	906.990	704.042
198.402	18.555	906.158	703.318
199.417	18.621	905.558	703.060
200.432	18.156	904.399	700.195
201.446	18.050	903.519	699.020
202.461	18.127	903.111	698.958
203.475	17.398	901.453	694.635
204.490	16.856	900.257	691.441
205.504	17.649	900.958	695.157
206.519	18.196	900.960	697.328
207.534	18.385	900.174	697.424
208.548	18.740	899.897	698.593
209.563	18.371	899.163	696.463
210.577	18.421	898.306	695.939
211.592	18.868	897.582	697.132
212.607	18.733	896.737	695.868
213.621	18.834	896.382	695.938
214.636	18.835	895.608	695.279
215.650	18.784	894.692	694.300
216.665	18.924	893.857	694.157
217.680	18.880	893.359	693.531
218.694	18.290	892.169	690.168
219.709	18.303	891.677	689.777
220.723	18.563	891.117	690.332
221.738	18.568	890.379	689.717
222.753	18.638	890.077	689.705
223.767	18.571	889.557	688.971
224.782	18.758	889.240	689.416
225.796	18.818	888.074	688.692
226.811	18.273	886.690	685.377
227.826	17.653	885.770	682.123
228.840	17.973	885.187	682.894
229.855	17.956	884.377	682.141
230.869	17.682	883.265	680.128
231.884	17.943	883.272	681.117
232.899	18.726	883.116	684.057
233.913	18.776	882.521	683.735
234.928	18.698	881.913	682.891
235.942	18.638	881.272	682.094
236.957	18.480	879.707	680.197
237.972	18.412	879.390	679.624
238.986	18.591	879.062	680.017
240.001	18.584	878.364	679.393
241.015	18.447	877.845	678.386
242.030	18.692	877.464	679.002
243.045	18.805	876.531	678.665
244.059	18.919	876.214	678.812
245.074	18.705	874.992	676.959
246.088	18.349	874.070	674.786
247.103	18.658	873.921	675.827
248.117	19.022	873.826	677.125
249.132	19.250	873.055	677.365
250.147	19.134	872.657	676.540
251.161	19.378	871.672	676.674
252.176	19.477	871.007	676.485
253.190	19.409	870.621	675.862
254.205	19.415	870.665	675.858
255.220	19.311	869.921	674.814
256.234	19.268	869.010	673.878
257.249	19.237	867.641	672.639
258.263	19.399	867.092	672.784
259.278	19.292	866.589	671.918
260.293	19.397	865.751	671.617
261.307	19.250	865.015	670.413
262.322	19.219	863.896	669.366
263.336	18.413	861.744	664.515
264.351	17.330	860.125	659.013
265.366	17.533	859.784	659.481
266.380	18.611	860.391	664.063
267.395	19.012	860.075	665.313
268.409	19.107	859.133	664.892
269.424	19.206	859.007	665.118
270.439	19.392	858.018	665.012
271.453	19.383	858.011	664.910
272.468	19.627	857.406	665.322
273.482	19.570	856.578	664.404
274.497	18.975	855.638	661.328
275.512	18.692	854.924	659.630
276.526	19.118	854.550	660.919
277.541	19.370	854.273	661.615
278.555	19.069	852.820	659.275
279.570	18.984	852.073	658.316
280.585	19.045	851.846	658.314
281.599	19.170	850.865	657.976
282.614	18.782	849.552	655.421
283.628	18.612	849.547	654.711
284.643	18.911	848.899	655.293
285.657	18.572	847.783	653.085
286.672	18.345	846.771	651.382
287.687	18.936	846.900	653.672
288.701	18.955	846.212	653.158
289.716	18.537	845.627	651.061
290.730	18.569	844.837	650.516
291.745	18.353	843.644	648.721
292.760	18.587	843.820	649.687
293.774	19.646	843.636	653.495
294.789	19.802	843.598	653.995
295.803	19.842	843.093	653.700
296.818	19.822	842.287	652.942
297.833	19.569	841.306	651.169
298.847	19.543	840.527	650.408
299.862	19.724	839.803	650.471
300.876	19.684	840.222	650.591
301.891	19.737	838.953	649.748
302.906	19.270	837.908	647.127
303.920	19.338	837.416	646.947
304.935	19.566	837.384	647.721
305.949	19.668	836.671	647.494
306.964	19.444	836.299	646.308
307.979	19.597	835.835	646.466
308.993	19.763	835.992	647.151
310.008	19.973	834.831	646.981
311.022	19.780	834.081	645.622
312.037	19.583	833.349	644.264
313.052	19.469	832.369	643.025
314.066	18.807	830.985	639.432
315.081	18.361	830.982	637.714
316.095	19.130	830.958	640.502
317.110	19.613	830.451	641.850
318.125	18.842	828.982	637.798
319.139	18.014	827.593	633.601
320.154	18.028	827.496	633.525
321.168	18.654	827.987	636.164
322.183	19.359	827.739	638.529
323.197	19.343	827.751	638.424
324.212	19.716	827.094	639.240
325.227	19.679	826.448	638.548
326.241	19.731	825.501	637.952
327.256	19.544	825.260	637.017
328.270	19.429	824.770	636.161
329.285	19.459	823.462	635.206
330.300	19.211	822.907	633.808
331.314	19.459	822.261	634.166
332.329	19.775	822.141	635.178
333.343	19.762	821.852	634.851
334.358	19.766	821.544	634.574
335.373	19.872	820.791	634.322
336.387	20.072	820.773	634.986
337.402	20.284	820.265	635.312
338.416	20.006	820.272	634.245
339.431	19.963	819.927	633.764
340.446	20.199	819.181	633.994
341.460	20.109	818.787	633.304
342.475	19.962	818.298	632.333
343.489	19.993	817.954	632.124
344.504	20.316	817.687	633.040
345.519	20.310	817.362	632.709
346.533	20.545	816.682	632.984
347.548	20.367	816.408	632.068
348.562	20.370	816.076	631.764
349.577	20.267	815.293	630.729
350.592	20.472	814.523	630.824
351.606	20.377	813.912	629.947
352.621	20.318	813.403	629.284
353.635	20.375	812.187	628.496
354.650	19.568	810.917	624.540
355.665	18.771	809.386	620.427
356.679	19.050	809.376	621.371
357.694	19.528	808.879	622.660
358.708	19.459	808.522	622.081
359.723	19.829	808.136	623.064
360.738	20.334	807.702	624.488
361.752	20.254	807.400	623.914
362.767	20.519	806.764	624.319
363.781	20.769	805.968	624.545
364.796	20.658	805.922	624.053
365.810	20.838	805.711	624.480
366.825	20.709	805.442	623.758
367.840	20.462	804.122	621.795
368.854	20.041	803.791	619.976
369.869	20.105	803.490	619.919
370.883	20.374	802.500	620.062
371.898	20.204	802.173	619.145
372.913	20.142	802.092	618.807
373.927	20.457	801.470	619.396
374.942	20.571	801.162	619.512
375.956	20.487	800.930	618.977
376.971	20.504	800.392	618.566
377.986	20.857	800.105	619.547
379.000	20.582	799.772	618.254
380.015	20.587	798.844	617.500
381.029	20.568	798.137	616.832
382.044	20.802	797.827	617.368
383.059	20.769	797.097	616.632
384.073	20.908	796.615	616.696
385.088	20.858	796.344	616.255
386.102	20.743	795.598	615.217
387.117	20.704	794.848	614.443
388.132	20.463	793.850	612.770
389.146	19.844	793.277	610.089
390.161	20.125	793.063	610.862
391.175	20.401	793.024	611.750
392.190	20.197	792.209	610.351
393.205	19.093	789.991	604.712
394.219	17.882	788.778	599.478
395.234	17.837	788.703	599.211
396.248	19.295	790.040	605.299
397.263	20.575	790.317	609.951
398.278	20.677	789.743	609.811
399.292	20.423	788.979	608.275
400.307	20.337	788.525	607.571
401.321	20.412	788.223	607.548
402.336	20.959	787.880	609.142
403.350	21.086	787.930	609.571
404.365	21.066	787.791	609.339
405.380	21.407	787.140	609.970
406.394	21.586	785.998	609.654
407.409	21.397	786.046	608.980
408.423	21.304	785.641	608.288
409.438	21.351	785.630	608.392
410.453	21.382	784.728	607.745
411.467	21.522	784.024	607.634
412.482	21.383	783.993	607.071
413.496	21.491	783.415	606.945
414.511	21.406	783.305	606.512
415.526	21.400	782.967	606.176
416.540	21.318	781.976	605.070
417.555	21.137	781.271	603.844
418.569	21.164	781.063	603.724
419.584	21.086	780.326	602.832
420.599	20.982	779.760	601.982
421.613	157.638	1361.170	1794.408
422.628	136.231	1445.878	1794.498
