DTS Sentinel unit serial number:	SN413079Multiplexer serial number:	ORYXHardware model number:	OX4-SRSoftware version number:	ORYX F/W v4.00 Oryx Data Collector v3.7.2.0data status	okinstallation	princeton_trtdifferential loss correction	single-endedforward channel	channel 1reverse channel	N/Adate	2019/09/11time	08:52:11forward acquisition time	60.00reverse acquisition time	0.00gamma	496.2192k internal	0.2311k external	0.2311temperature offset calibration	0.9949default loss term (dB/km)	0.3790temperature slope calibration	1.0000multiplexer offset coefficient	1.0000multiplexer slope coefficient	1.0000fibre end	0.00T internal ref (°C)	33.87T ext. ref 1 (°C)	0.09T ext. ref 2 (°C)	31.06length (m)	temperature (°C)	Stokes	anti-Stokes-747.200	-13.175	0.065	-0.043
-746.185	800.000	0.085	0.376
-745.171	50.132	-0.076	0.073
-744.156	53.667	0.391	0.381
-743.142	147.719	0.048	0.066
-742.127	-45.619	-0.247	0.124
-741.112	33.263	-0.169	-0.148
-740.098	-200.000	0.066	0.389
-739.083	247.895	0.165	-0.283
-738.069	-108.184	-0.208	0.046
-737.054	-65.798	-0.136	-0.055
-736.039	39.301	-0.210	0.190
-735.025	-71.934	-0.143	-0.054
-734.010	630.850	0.088	-0.227
-732.996	178.715	-0.128	-0.189
-731.981	84.076	-0.197	0.219
-730.966	115.632	-0.069	-0.085
-729.952	95.402	0.064	-0.074
-728.937	-20.398	-0.420	-0.262
-727.923	171.459	-0.066	0.097
-726.908	-200.000	-0.012	-0.098
-725.894	207.361	-0.060	-0.095
-724.879	143.851	0.155	-0.209
-723.864	2.829	-0.172	-0.126
-722.850	64.069	0.162	-0.165
-721.835	800.000	0.077	-0.231
-720.821	-50.797	-0.266	-0.127
-719.806	176.693	-0.142	0.209
-718.791	-34.348	0.228	-0.127
-717.777	-200.000	0.004	-0.072
-716.762	-86.278	0.211	-0.066
-715.748	161.731	-0.114	-0.161
-714.733	800.000	0.076	-0.299
-713.718	55.275	-0.139	0.136
-712.704	-93.180	-0.384	-0.108
-711.689	648.963	-0.165	-0.427
-710.675	-200.000	0.018	0.093
-709.660	18.215	-0.069	-0.056
-708.645	-200.000	0.025	-0.314
-707.631	106.500	0.127	0.153
-706.616	23.774	-0.253	0.211
-705.602	-29.956	0.370	-0.214
-704.587	800.000	-0.139	-0.398
-703.572	-200.000	0.074	-0.380
-702.558	256.149	0.093	0.162
-701.543	-200.000	0.027	-0.141
-700.529	64.112	0.214	0.218
-699.514	525.369	0.064	-0.153
-698.499	385.782	-0.122	-0.255
-697.485	-118.322	0.442	0.080
-696.470	-60.241	-0.093	0.040
-695.456	-97.891	0.223	0.058
-694.441	-86.219	-0.159	-0.050
-693.426	-110.796	0.044	-0.009
-692.412	-200.000	-0.025	0.135
-691.397	-16.628	0.372	0.239
-690.383	-200.000	-0.003	-0.149
-689.368	230.911	-0.179	0.297
-688.354	-49.384	0.197	-0.095
-687.339	-144.947	-0.454	-0.042
-686.324	-32.306	0.154	-0.087
-685.310	-124.934	0.563	-0.088
-684.295	-200.000	-0.019	-0.359
-683.281	75.879	0.201	0.216
-682.266	48.043	-0.076	0.072
-681.251	-200.000	0.019	0.413
-680.237	-4.789	0.249	0.174
-679.222	-68.989	0.247	-0.097
-678.208	800.000	-0.063	0.207
-677.193	-200.000	0.020	0.172
-676.178	-78.353	0.211	0.073
-675.164	-200.000	0.048	-0.254
-674.149	800.000	-0.028	0.115
-673.135	-185.761	-0.039	0.001
-672.120	-97.891	-0.151	0.040
-671.105	-22.902	0.097	0.059
-670.091	-14.789	0.142	-0.092
-669.076	-74.555	0.168	-0.061
-668.062	-39.227	-0.274	-0.146
-667.047	-200.000	0.022	0.263
-666.032	-135.132	0.174	0.021
-665.018	185.553	0.068	0.102
-664.003	-136.197	0.055	0.006
-662.989	-91.259	0.083	0.024
-661.974	-94.785	0.179	0.049
-660.959	309.597	-0.073	-0.138
-659.945	-70.132	0.355	0.137
-658.930	182.382	0.196	0.292
-657.916	5.038	0.240	0.178
-656.901	-33.601	-0.128	0.071
-655.886	-200.000	0.021	0.311
-654.872	800.000	-0.044	-0.183
-653.857	-113.991	-0.224	0.044
-652.843	590.434	-0.155	-0.387
-651.828	-59.559	-0.153	-0.067
-650.814	-60.547	-0.266	0.114
-649.799	-39.116	0.148	-0.079
-648.784	-147.986	0.138	0.012
-647.770	-200.000	0.041	0.210
-646.755	483.109	0.054	0.123
-645.741	800.000	-0.076	0.214
-644.726	76.961	0.042	-0.045
-643.711	32.448	0.278	-0.243
-642.697	452.152	0.075	-0.168
-641.682	2.494	0.155	0.114
-640.668	-112.374	-0.118	-0.024
-639.653	461.573	-0.044	-0.098
-638.638	112.606	-0.130	0.159
-637.624	58.648	-0.049	-0.049
-636.609	-200.000	0.008	-0.206
-635.595	-200.000	-0.022	0.108
-634.580	-69.472	-0.350	0.136
-633.565	67.973	-0.086	0.089
-632.551	-40.168	-0.321	-0.169
-631.536	-154.537	0.404	0.027
-630.522	-200.000	0.069	-0.308
-629.507	800.000	-0.075	0.243
-628.492	-47.463	0.351	0.172
-627.478	-200.000	-0.010	-0.102
-626.463	-144.754	0.408	-0.038
-625.449	-200.000	0.032	0.259
-624.434	-200.000	0.004	-0.029
-623.419	-45.892	-0.269	0.134
-622.405	-8.118	0.081	0.055
-621.390	-126.165	0.167	0.025
-620.376	499.906	0.166	-0.386
-619.361	298.005	0.064	-0.119
-618.346	315.940	-0.105	-0.200
-617.332	33.611	-0.050	0.044
-616.317	614.564	0.061	-0.154
-615.303	-200.000	0.011	-0.314
-614.288	230.955	-0.174	-0.287
-613.273	223.500	-0.109	0.178
-612.259	139.364	0.150	0.200
-611.244	-104.242	-0.263	-0.062
-610.230	-78.546	-0.032	0.011
-609.215	584.606	-0.103	-0.256
-608.201	12.003	-0.290	0.225
-607.186	-111.673	0.304	-0.062
-606.171	-200.000	0.042	-0.191
-605.157	-200.000	-0.017	-0.236
-604.142	-8.473	-0.165	0.112
-603.128	-123.670	0.155	0.025
-602.113	22.572	0.088	-0.073
-601.098	670.411	-0.103	0.269
-600.084	-64.163	-0.166	-0.068
-599.069	-200.000	0.010	-0.215
-598.055	-191.875	0.121	-0.001
-597.040	124.903	-0.143	0.181
-596.025	-15.947	-0.177	-0.114
-595.011	800.000	-0.031	-0.111
-593.996	-100.495	-0.118	-0.030
-592.982	245.731	0.077	0.130
-591.967	-109.905	0.088	-0.019
-590.952	-170.074	0.391	-0.014
-589.938	354.793	0.050	-0.100
-588.923	-200.000	0.046	-0.296
-587.909	800.000	-0.007	0.027
-586.894	-200.000	-0.009	0.131
-585.879	-2.688	-0.230	0.162
-584.865	93.808	-0.103	0.118
-583.850	27.489	-0.167	-0.141
-582.836	201.925	-0.052	0.081
-581.821	800.000	0.091	0.253
-580.806	-44.838	-0.127	-0.064
-579.792	-93.875	0.038	-0.011
-578.777	-57.296	-0.128	-0.057
-577.763	-88.063	0.141	0.043
-576.748	25.666	-0.091	0.076
-575.733	-200.000	0.020	-0.091
-574.719	27.189	0.104	-0.088
-573.704	27.458	0.183	-0.155
-572.690	-55.913	0.119	0.054
-571.675	-200.000	0.002	-0.092
-570.661	479.080	-0.102	-0.234
-569.646	132.218	-0.100	0.130
-568.631	200.773	0.134	-0.208
-567.617	17.275	0.280	-0.224
-566.602	-108.816	-0.099	0.021
-565.588	69.316	0.116	-0.120
-564.573	-200.000	0.045	-0.313
-563.558	113.774	0.197	0.241
-562.544	145.650	-0.109	-0.147
-561.529	-143.711	0.421	-0.040
-560.515	147.122	-0.074	-0.100
-559.500	-109.298	0.377	0.081
-558.485	-101.835	-0.103	-0.025
-557.471	-200.000	0.001	0.026
-556.456	35.176	-0.014	0.013
-555.442	560.777	-0.026	0.062
-554.427	-36.804	-0.234	-0.127
-553.412	-117.282	0.067	0.012
-552.398	311.563	0.065	-0.122
-551.383	-200.000	-0.003	-0.226
-550.369	-120.264	0.095	-0.016
-549.354	132.492	-0.150	0.195
-548.339	108.478	0.127	-0.153
-547.325	-200.000	0.026	0.302
-546.310	-63.114	-0.026	-0.011
-545.296	-177.032	0.276	-0.007
-544.281	800.000	0.067	0.201
-543.266	-133.822	-0.094	0.012
-542.252	-200.000	0.030	-0.257
-541.237	410.862	-0.047	-0.100
-540.223	-66.824	0.043	-0.017
-539.208	-159.248	0.110	-0.006
-538.193	86.529	-0.103	0.115
-537.179	634.971	-0.051	0.131
-536.164	141.555	0.079	-0.106
-535.150	-123.756	-0.300	-0.048
-534.135	-200.000	-0.010	0.216
-533.121	-26.099	0.104	0.062
-532.106	800.000	0.045	0.142
-531.091	-9.343	-0.109	0.074
-530.077	586.069	-0.127	-0.314
-529.062	-36.176	-0.185	-0.100
-528.048	-4.560	-0.200	-0.139
-527.033	-61.542	-0.094	-0.040
-526.018	43.558	-0.021	0.019
-525.004	180.079	0.125	-0.184
-523.989	459.886	0.074	0.166
-522.975	-153.316	-0.263	-0.018
-521.960	-62.568	0.305	-0.128
-520.945	-90.727	-0.183	0.053
-519.931	690.550	-0.037	-0.099
-518.916	9.253	0.080	-0.061
-517.902	36.802	0.163	0.145
-516.887	-35.857	0.256	-0.139
-515.872	145.968	-0.169	0.228
-514.858	-97.972	-0.251	-0.065
-513.843	75.686	0.211	0.224
-512.829	-200.000	-0.017	-0.235
-511.814	-28.561	0.075	0.044
-510.799	336.925	0.052	-0.101
-509.785	-84.653	0.136	-0.043
-508.770	117.112	0.018	-0.022
-507.756	151.842	-0.126	0.173
-506.741	94.139	0.142	0.162
-505.726	-17.223	0.149	-0.094
-504.712	-7.722	-0.199	0.135
-503.697	-104.759	-0.094	-0.022
-502.683	-200.000	0.026	-0.179
-501.668	-200.000	0.044	-0.205
-500.653	-101.312	0.153	-0.038
-499.639	-26.929	-0.203	-0.119
-498.624	323.051	0.023	-0.044
-497.610	-36.071	0.128	-0.070
-496.595	800.000	-0.045	0.147
-495.581	-30.208	0.240	0.137
-494.566	100.449	0.023	-0.027
-493.551	-112.923	-0.367	0.073
-492.537	800.000	-0.052	0.182
-491.522	91.186	-0.147	0.166
-490.508	140.965	-0.148	0.196
-489.493	-124.027	-0.173	0.027
-488.478	-42.502	0.097	-0.050
-487.464	-77.331	0.215	0.075
-486.449	-200.000	0.013	-0.120
-485.435	223.370	-0.126	0.204
-484.420	800.000	0.014	-0.060
-483.405	-11.825	-0.188	0.124
-482.391	299.420	0.134	0.249
-481.376	-18.982	-0.243	-0.152
-480.362	2.008	-0.290	0.211
-479.347	-139.969	-0.348	0.037
-478.332	-4.467	0.059	-0.041
-477.318	-200.000	0.012	0.123
-476.303	672.449	0.072	0.187
-475.289	-150.218	-0.192	-0.015
-474.274	-141.072	-0.226	-0.023
-473.259	800.000	-0.023	-0.074
-472.245	121.352	0.129	0.161
-471.230	300.949	0.105	-0.195
-470.216	-139.081	-0.180	-0.020
-469.201	800.000	0.036	0.113
-468.186	46.841	0.078	-0.073
-467.172	-200.000	0.010	-0.177
-466.157	-82.950	-0.106	0.034
-465.143	-111.336	-0.434	-0.089
-464.128	-115.924	-0.040	-0.007
-463.113	4.024	0.207	-0.152
-462.099	459.499	0.029	-0.064
-461.084	-9.965	-0.161	0.107
-460.070	213.632	-0.178	-0.282
-459.055	-130.497	-0.077	-0.010
-458.040	-122.186	-0.261	0.043
-457.026	-77.358	-0.287	0.100
-456.011	172.263	0.092	-0.133
-454.997	145.474	-0.125	0.168
-453.982	-25.925	0.046	0.027
-452.968	-200.000	0.008	0.207
-451.953	218.724	0.085	-0.137
-450.938	80.563	0.189	0.204
-449.924	-31.669	-0.115	-0.065
-448.909	147.315	0.318	-0.430
-447.895	57.221	0.199	-0.195
-446.880	137.068	0.201	0.263
-445.865	800.000	0.101	0.301
-444.851	38.227	-0.058	-0.051
-443.836	73.775	0.305	-0.320
-442.822	-200.000	0.022	0.136
-441.807	-109.532	-0.083	-0.018
-440.792	-200.000	0.039	0.215
-439.778	789.184	-0.116	0.320
-438.763	158.130	0.035	-0.048
-437.749	-200.000	-0.038	0.505
-436.734	-119.611	-0.046	-0.008
-435.719	-0.804	-0.214	0.152
-434.705	-200.000	0.017	-0.136
-433.690	-45.696	0.127	-0.063
-432.676	-171.715	0.371	-0.012
-431.661	23.242	0.242	-0.199
-430.646	495.995	0.032	-0.074
-429.632	-200.000	-0.006	-0.145
-428.617	-200.000	0.008	0.268
-427.603	586.691	0.079	0.195
-426.588	-200.000	-0.014	0.131
-425.573	299.789	0.122	0.225
-424.559	219.173	0.177	0.284
-423.544	289.554	-0.143	-0.259
-422.530	-173.395	0.233	0.007
-421.515	-136.723	-0.184	-0.021
-420.500	-99.483	-0.198	-0.050
-419.486	137.551	0.044	0.058
-418.471	14.311	0.289	0.226
-417.457	-63.242	-0.183	-0.075
-416.442	24.909	0.283	-0.235
-415.428	-85.707	-0.072	0.022
-414.413	9.548	-0.057	0.044
-413.398	185.660	-0.021	0.032
-412.384	-200.000	0.002	-0.062
-411.369	573.374	-0.086	-0.211
-410.355	-114.789	0.103	-0.020
-409.340	69.972	-0.035	-0.036
-408.325	-70.200	0.173	-0.066
-407.311	138.677	0.085	0.111
-406.296	-82.222	-0.175	-0.057
-405.282	-72.447	0.282	-0.104
-404.267	29.843	0.156	0.133
-403.252	-200.000	0.019	-0.204
-402.238	-117.368	-0.156	-0.028
-401.223	-100.701	-0.271	-0.067
-400.209	-147.904	-0.243	0.020
-399.194	-39.052	-0.182	-0.096
-398.179	272.073	-0.087	-0.154
-397.165	-145.687	-0.106	0.010
-396.150	-100.801	-0.270	-0.066
-395.136	-19.405	0.125	0.078
-394.121	800.000	-0.038	0.137
-393.106	93.262	-0.054	-0.061
-392.092	-64.865	-0.260	-0.105
-391.077	-15.309	0.197	-0.126
-390.063	89.162	0.100	0.111
-389.048	88.415	0.202	-0.224
-388.033	264.479	0.143	-0.250
-387.019	-163.122	-0.360	0.017
-386.004	-200.000	-0.015	-0.085
-384.990	-20.202	0.113	0.070
-383.975	-186.065	0.157	0.002
-382.960	800.000	-0.096	0.304
-381.946	-24.053	-0.264	0.158
-380.931	-200.000	0.049	0.301
-379.917	-112.465	-0.255	-0.051
-378.902	-200.000	0.009	-0.239
-377.888	800.000	0.037	0.153
-376.873	-88.594	-0.313	0.093
-375.858	-137.501	0.240	0.027
-374.844	-116.301	-0.259	-0.048
-373.829	124.294	-0.067	0.085
-372.815	-200.000	0.042	0.190
-371.800	-5.395	0.201	-0.138
-370.785	-25.384	0.287	-0.170
-369.771	-5.981	-0.023	0.016
-368.756	115.369	0.136	-0.166
-367.742	12.168	-0.149	0.114
-366.727	-117.944	0.150	0.027
-365.712	122.406	-0.147	0.184
-364.698	7.630	0.312	0.234
-363.683	-200.000	0.083	0.445
-362.669	-200.000	0.014	0.063
-361.654	-137.476	-0.174	0.020
-360.639	-101.332	0.311	0.076
-359.625	40.746	0.237	0.214
-358.610	90.661	-0.099	0.111
-357.596	-31.532	-0.181	0.102
-356.581	-200.000	-0.041	0.282
-355.566	-142.859	-0.135	-0.013
-354.552	-200.000	0.035	0.279
-353.537	-88.850	0.362	0.107
-352.523	-200.000	-0.055	-0.329
-351.508	-200.000	-0.041	-0.283
-350.493	330.661	0.052	0.100
-349.479	800.000	-0.029	-0.121
-348.464	91.747	0.161	0.181
-347.450	-200.000	0.008	0.163
-346.435	50.308	0.088	-0.083
-345.420	-26.419	0.314	-0.184
-344.406	800.000	0.143	0.405
-343.391	64.608	-0.089	-0.090
-342.377	-92.470	-0.024	0.007
-341.362	-167.636	-0.114	-0.005
-340.348	36.389	-0.139	-0.122
-339.333	-200.000	-0.005	0.106
-338.318	8.337	0.164	0.123
-337.304	54.872	0.188	-0.181
-336.289	477.698	0.132	0.298
-335.275	181.470	-0.136	-0.200
-334.260	800.000	-0.072	0.213
-333.245	-200.000	0.048	0.266
-332.231	257.547	0.047	0.081
-331.216	143.170	-0.241	-0.320
-330.202	58.777	-0.057	0.056
-329.187	-200.000	-0.026	0.462
-328.172	115.667	0.070	-0.085
-327.158	220.510	0.077	-0.123
-326.143	-72.350	0.030	-0.011
-325.129	-14.227	0.217	-0.140
-324.114	-32.123	0.229	-0.128
-323.099	266.768	-0.082	0.143
-322.085	-200.000	-0.054	-0.252
-321.070	-200.000	0.004	-0.295
-320.056	800.000	-0.064	0.200
-319.041	-14.888	-0.228	-0.146
-318.026	226.948	0.042	0.068
-317.012	-73.489	0.168	0.061
-315.997	528.648	-0.037	0.086
-314.983	40.568	0.107	0.096
-313.968	151.392	-0.268	0.364
-312.953	227.633	-0.099	0.162
-311.939	-200.000	-0.038	-0.170
-310.924	54.272	0.238	0.228
-309.910	77.725	0.228	0.242
-308.895	-200.000	-0.020	-0.383
-307.880	27.969	-0.188	0.158
-306.866	128.922	0.241	-0.307
-305.851	-200.000	0.017	-0.262
-304.837	17.765	-0.036	-0.029
-303.822	800.000	0.047	0.165
-302.807	-33.063	-0.096	-0.053
-301.793	-48.671	-0.169	-0.081
-300.778	-138.740	-0.371	-0.040
-299.764	-136.900	0.128	0.015
-298.749	-142.658	-0.114	0.011
-297.735	-200.000	-0.045	-0.421
-296.720	-106.630	-0.076	-0.017
-295.705	-200.000	-0.075	0.361
-294.691	210.351	0.070	0.110
-293.676	354.424	0.058	-0.114
-292.662	-119.894	-0.360	0.062
-291.647	-15.862	-0.088	0.056
-290.632	80.619	-0.105	-0.112
-289.618	-57.120	0.146	0.064
-288.603	-1.638	-0.233	0.164
-287.589	51.081	-0.392	0.370
-286.574	-200.000	-0.001	-0.130
-285.559	-1.052	0.228	0.161
-284.545	67.052	0.068	0.069
-283.530	-200.000	-0.001	-0.034
-282.516	-200.000	-0.023	-0.214
-281.501	-107.810	0.117	0.025
-280.486	163.038	-0.110	0.155
-279.472	16.619	-0.208	0.164
-278.457	160.266	-0.052	-0.073
-277.443	157.437	0.127	0.175
-276.428	248.555	0.153	0.259
-275.413	120.817	0.094	-0.116
-274.399	68.004	0.046	-0.047
-273.384	-200.000	-0.033	0.245
-272.370	198.507	-0.099	-0.152
-271.355	-53.669	-0.262	-0.119
-270.340	-200.000	0.032	0.197
-269.326	800.000	0.066	-0.184
-268.311	-62.498	-0.305	-0.126
-267.297	-33.269	-0.273	0.150
-266.282	271.565	0.164	-0.287
-265.267	18.614	-0.266	0.212
-264.253	-31.275	0.085	-0.047
-263.238	-133.487	0.307	-0.038
-262.224	169.624	0.029	0.041
-261.209	-53.929	-0.032	0.015
-260.195	310.482	-0.031	-0.058
-259.180	540.914	0.056	-0.133
-258.165	800.000	0.062	-0.171
-257.151	48.303	0.081	0.076
-256.136	-145.370	0.356	-0.032
-255.122	-58.824	-0.229	-0.099
-254.107	-65.079	-0.222	0.089
-253.092	118.908	-0.103	0.127
-252.078	-15.343	0.256	-0.163
-251.063	-200.000	0.055	-0.284
-250.049	230.764	0.036	-0.059
-249.034	-122.577	-0.267	0.043
-248.019	25.578	0.235	-0.195
-247.005	373.618	-0.035	-0.070
-245.990	456.349	0.045	0.099
-244.976	-12.979	0.156	-0.101
-243.961	-61.580	-0.365	0.153
-242.946	-200.000	0.024	0.114
-241.932	-200.000	-0.051	-0.468
-240.917	-200.000	0.002	0.056
-239.903	-41.799	0.139	0.071
-238.888	251.995	0.101	-0.171
-237.873	800.000	0.051	-0.174
-236.859	-200.000	-0.006	0.056
-235.844	-200.000	0.086	0.445
-234.830	-95.494	-0.039	0.010
-233.815	19.919	0.178	-0.143
-232.800	-200.000	0.021	-0.349
-231.786	32.220	-0.112	0.096
-230.771	105.154	0.160	0.188
-229.757	705.204	-0.080	0.209
-228.742	-99.736	-0.099	-0.025
-227.727	-200.000	-0.004	-0.022
-226.713	52.912	-0.166	0.158
-225.698	800.000	-0.016	-0.057
-224.684	-200.000	-0.015	-0.431
-223.669	30.510	0.116	-0.099
-222.655	-156.767	-0.385	0.024
-221.640	-100.675	-0.202	-0.050
-220.625	-85.583	-0.255	-0.079
-219.611	-200.000	-0.016	0.291
-218.596	-200.000	-0.004	0.160
-217.582	-200.000	-0.004	0.272
-216.567	-85.057	0.291	0.091
-215.552	165.318	0.268	0.377
-214.538	624.720	0.063	0.158
-213.523	800.000	-0.054	0.228
-212.509	-2.018	-0.103	0.072
-211.494	-84.777	-0.423	-0.132
-210.479	15.279	-0.260	-0.202
-209.465	-6.902	0.173	0.117
-208.450	469.670	0.167	-0.374
-207.436	-6.040	-0.304	-0.207
-206.421	800.000	0.056	0.228
-205.406	-200.000	0.030	0.207
-204.392	370.120	-0.075	-0.152
-203.377	73.156	0.243	-0.253
-202.363	421.565	-0.107	0.228
-201.348	-200.000	0.022	0.329
-200.333	244.187	-0.047	-0.079
-199.319	151.213	0.248	-0.335
-198.304	290.492	-0.104	-0.187
-197.290	282.757	0.121	-0.217
-196.275	25.003	-0.157	0.130
-195.260	-200.000	-0.001	-0.022
-194.246	-200.000	0.010	0.060
-193.231	121.824	-0.120	-0.149
-192.217	248.587	0.135	-0.228
-191.202	-167.386	0.147	-0.006
-190.187	-200.000	-0.062	-0.298
-189.173	284.461	0.210	0.375
-188.158	340.596	0.139	0.270
-187.144	-98.205	-0.570	-0.145
-186.129	46.021	-0.149	-0.137
-185.114	800.000	0.063	-0.256
-184.100	-21.339	-0.091	-0.055
-183.085	-128.474	0.393	0.055
-182.071	-200.000	0.008	-0.246
-181.056	-150.581	-0.093	0.007
-180.042	23.987	-0.150	0.123
-179.027	117.215	0.036	-0.044
-178.012	36.681	0.172	0.150
-176.998	495.979	-0.051	0.117
-175.983	-200.000	0.478	0.002
-174.969	-23.128	-0.129	0.077
-173.954	-106.534	0.201	-0.044
-172.939	303.836	0.134	0.247
-171.925	-200.000	-0.061	-0.307
-170.910	43.775	0.223	0.202
-169.896	353.828	0.082	0.162
-168.881	-200.000	-0.004	0.045
-167.866	-56.041	-0.132	0.058
-166.852	75.996	-0.127	0.134
-165.837	147.911	0.072	-0.096
-164.823	561.729	0.097	0.234
-163.808	-200.000	0.020	0.193
-162.793	88.093	-0.156	-0.171
-161.779	293.087	0.233	-0.422
-160.764	255.619	0.170	-0.289
-159.750	128.108	0.072	0.091
-158.735	800.000	0.106	-0.320
-157.720	-143.968	-0.081	0.008
-156.706	-198.644	-0.389	0.002
-155.691	-200.000	0.019	-0.229
-154.677	-68.802	0.263	0.101
-153.662	-108.753	-0.283	0.060
-152.647	-200.000	0.007	-0.340
-151.633	12.367	0.158	-0.120
-150.618	83.873	0.126	0.137
-149.604	-148.704	0.275	-0.022
-148.589	-68.977	-0.040	-0.015
-147.574	-30.066	0.132	0.074
-146.560	-131.961	0.357	-0.046
-145.545	242.274	-0.149	0.247
-144.531	14.368	-0.109	0.084
-143.516	-200.000	0.010	-0.066
-142.502	-128.483	0.139	0.020
-141.487	-48.954	0.267	-0.127
-140.472	800.000	-0.131	-0.412
-139.458	-22.892	0.318	0.190
-138.443	-120.616	0.284	-0.048
-137.429	-120.940	-0.071	-0.012
-136.414	-96.608	0.074	-0.019
-135.399	258.809	0.097	-0.167
-134.385	-58.815	-0.049	0.021
-133.370	88.251	0.190	0.209
-132.356	-58.366	-0.229	0.099
-131.341	-142.934	0.227	0.022
-130.326	-58.111	-0.071	0.031
-129.312	173.374	-0.029	-0.042
-128.297	193.409	-0.176	0.264
-127.283	-200.000	0.037	-0.393
-126.268	-136.943	0.380	0.043
-125.253	-90.716	-0.016	-0.004
-124.239	-105.868	0.040	-0.009
-123.224	66.831	0.119	0.120
-122.210	-146.934	0.236	-0.020
-121.195	-200.000	-0.037	0.223
-120.180	98.406	-0.161	0.184
-119.166	-1.736	0.159	-0.111
-118.151	58.902	0.045	-0.043
-117.137	-176.996	-0.328	-0.008
-116.122	-25.722	0.199	0.116
-115.107	322.104	-0.174	0.329
-114.093	161.878	0.149	-0.206
-113.078	4.756	-0.288	-0.209
-112.064	-41.595	0.316	-0.161
-111.049	-82.881	0.438	0.140
-110.034	-127.935	-0.493	0.070
-109.020	-40.791	0.210	-0.108
-108.005	-69.857	0.082	-0.031
-106.991	-112.337	0.410	-0.081
-105.976	-44.612	-0.395	-0.195
-104.962	800.000	0.040	0.168
-103.947	-68.976	-0.078	0.030
-102.932	241.655	-0.124	0.205
-101.918	80.619	0.123	-0.131
-100.903	214.277	0.175	-0.274
-99.889	-9.618	0.288	-0.190
-98.874	-74.458	0.079	0.028
-97.859	-11.860	-0.135	-0.088
-96.845	-37.274	-0.275	0.146
-95.830	360.265	-0.144	-0.286
-94.816	-130.274	-0.211	-0.028
-93.801	-12.667	0.325	0.210
-92.786	-29.436	0.131	0.074
-91.772	-200.000	0.008	0.294
-90.757	-5.923	-0.313	0.212
-89.743	-104.712	0.281	0.064
-88.728	-97.973	0.174	-0.044
-87.713	-118.749	0.160	-0.028
-86.699	111.582	0.186	-0.222
-85.684	167.952	0.101	-0.142
-84.670	114.585	-0.246	-0.297
-83.655	-200.000	-0.025	0.423
-82.640	-200.000	-0.010	-0.074
-81.626	46.507	0.090	-0.083
-80.611	-87.260	0.465	-0.140
-79.597	-141.425	0.210	-0.021
-78.582	-200.000	-0.009	-0.290
-77.567	-79.651	0.135	0.045
-76.553	-200.000	-0.042	-0.223
-75.538	-71.751	0.127	-0.047
-74.524	-113.642	-0.124	-0.024
-73.509	100.679	0.329	0.378
-72.494	61.058	-0.138	-0.135
-71.480	-77.889	-0.137	0.047
-70.465	71.321	0.086	0.088
-69.451	-200.000	0.002	-0.066
-68.436	152.978	0.284	-0.384
-67.422	-86.117	-0.135	0.041
-66.407	-62.340	0.390	-0.160
-65.392	-115.118	0.107	-0.020
-64.378	-85.902	-0.365	0.112
-63.363	3.685	0.262	-0.189
-62.349	77.770	0.115	0.121
-61.334	104.802	-0.980	-1.142
-60.319	-200.000	0.061	0.480
-59.305	800.000	-0.301	-0.885
-58.290	485.570	0.292	0.657
-57.276	-200.000	0.362	1.601
-56.261	-200.000	98.611	559.246
-55.246	589.097	1403.801	3418.703
-54.232	182.172	2637.758	3840.656
-53.217	117.734	2201.231	2677.897
-52.203	45.596	1645.764	1502.113
-51.188	37.434	1377.933	1207.197
-50.173	34.200	1334.822	1149.885
-49.159	55.512	1385.562	1325.283
-48.144	59.161	1402.672	1364.024
-47.130	37.760	1356.036	1189.814
-46.115	34.134	1337.867	1151.930
-45.100	33.916	1333.265	1146.602
-44.086	33.773	1331.418	1144.111
-43.071	33.632	1329.297	1141.391
-42.057	33.734	1326.755	1139.778
-41.042	33.629	1325.463	1137.991
-40.027	33.848	1323.113	1137.239
-39.013	33.798	1321.128	1135.192
-37.998	33.750	1319.497	1133.454
-36.984	33.869	1317.289	1132.225
-35.969	33.964	1315.621	1131.310
-34.954	33.919	1314.049	1129.647
-33.940	33.855	1312.919	1128.252
-32.925	33.838	1311.603	1126.977
-31.911	33.957	1310.223	1126.452
-30.896	33.991	1308.772	1125.362
-29.881	34.055	1307.078	1124.235
-28.867	34.008	1305.689	1122.722
-27.852	33.934	1304.371	1121.106
-26.838	33.980	1302.772	1119.959
-25.823	33.994	1301.687	1119.062
-24.809	33.954	1300.044	1117.371
-23.794	33.999	1298.610	1116.355
-22.779	33.998	1297.618	1115.458
-21.765	33.890	1296.703	1113.994
-20.750	33.943	1294.794	1112.615
-19.736	33.848	1293.539	1110.936
-18.721	33.903	1292.027	1109.919
-17.706	33.792	1290.801	1108.173
-16.692	33.810	1289.881	1107.442
-15.677	33.910	1288.508	1106.804
-14.663	33.850	1287.469	1105.516
-13.648	33.889	1286.579	1104.937
-12.633	33.834	1285.380	1103.545
-11.619	33.762	1284.780	1102.564
-10.604	33.733	1283.663	1101.395
-9.590	33.782	1282.771	1100.871
-8.575	33.839	1281.357	1099.944
-7.560	33.793	1280.735	1099.101
-6.546	33.836	1279.743	1098.455
-5.531	33.714	1278.911	1096.991
-4.517	33.711	1278.180	1096.300
-3.502	33.776	1277.332	1095.906
-2.487	33.835	1276.242	1095.267
-1.473	33.854	1272.429	1092.060
-0.458	32.819	1257.847	1073.616
0.556	27.779	1239.843	1036.715
1.571	24.333	1245.062	1021.295
2.586	23.648	1260.456	1029.860
3.600	22.528	1249.171	1014.105
4.615	15.531	1172.700	913.991
5.629	4.761	1093.075	796.960
6.644	0.377	1071.960	759.450
7.659	0.121	1068.828	755.879
8.673	-0.174	1068.122	753.829
9.688	0.028	1066.139	753.375
10.702	0.361	1065.016	754.182
11.717	7.151	1074.786	795.226
12.731	17.071	1089.382	856.229
13.746	21.292	1094.509	881.529
14.761	21.849	1095.015	884.664
15.775	21.868	1094.235	884.056
16.790	21.589	1093.789	882.210
17.804	21.562	1093.042	881.393
18.819	21.700	1092.446	881.530
19.834	21.675	1092.050	881.006
20.848	21.686	1092.086	881.010
21.863	21.771	1091.195	880.643
22.877	21.786	1090.061	879.726
23.892	21.755	1089.609	879.125
24.907	21.660	1088.792	877.911
25.921	21.728	1087.735	877.325
26.936	21.686	1086.417	875.973
27.950	21.612	1084.596	874.059
28.965	21.590	1082.621	872.280
29.980	21.521	1081.306	870.800
30.994	21.673	1080.787	871.061
32.009	21.741	1079.043	869.918
33.023	21.618	1077.777	868.207
34.038	21.641	1077.509	868.029
35.053	21.712	1076.996	867.889
36.067	21.797	1075.628	867.131
37.082	21.852	1074.968	866.795
38.096	21.935	1074.574	866.809
39.111	22.002	1073.939	866.555
40.126	21.839	1072.064	864.162
41.140	21.531	1070.457	861.273
42.155	21.312	1068.899	858.868
43.169	21.374	1068.165	858.504
44.184	21.509	1067.103	858.240
45.199	21.367	1066.084	856.649
46.213	21.364	1065.175	855.826
47.228	21.511	1064.459	855.893
48.242	21.575	1062.876	854.859
49.257	21.668	1062.175	854.671
50.271	21.890	1061.594	855.212
51.286	21.739	1061.068	853.974
52.301	21.801	1059.969	853.319
53.315	21.724	1059.095	852.164
54.330	21.728	1057.766	851.038
55.344	21.767	1056.839	850.406
56.359	21.718	1056.060	849.467
57.374	21.542	1055.277	847.909
58.388	21.536	1054.396	847.097
59.403	21.490	1053.285	845.908
60.417	21.287	1052.694	844.377
61.432	21.449	1052.155	844.651
62.447	21.586	1051.190	844.467
63.461	21.531	1050.328	843.432
64.476	21.494	1049.680	842.660
65.490	21.419	1048.589	841.347
66.505	21.455	1047.479	840.558
67.520	21.577	1047.321	840.941
68.534	21.232	1046.078	838.215
69.549	21.077	1044.783	836.360
70.563	20.999	1044.167	835.420
71.578	21.040	1043.420	834.943
72.593	20.867	1042.336	833.173
73.607	21.078	1041.626	833.539
74.622	21.303	1041.582	834.507
75.636	21.384	1040.323	833.810
76.651	21.157	1039.989	832.385
77.666	21.163	1038.996	831.549
78.680	21.142	1038.652	831.099
79.695	21.417	1037.289	831.243
80.709	21.305	1036.939	830.356
81.724	21.319	1036.446	829.953
82.739	21.379	1035.695	829.561
83.753	21.748	1034.725	830.462
84.768	22.013	1034.163	831.191
85.782	22.155	1032.990	830.848
86.797	21.869	1032.198	828.786
87.812	21.846	1031.046	827.679
88.826	21.882	1029.993	826.930
89.841	22.055	1029.085	826.943
90.855	22.025	1027.835	825.725
91.870	21.967	1027.379	825.012
92.884	21.761	1026.552	823.309
93.899	21.767	1025.275	822.239
94.914	21.956	1024.487	822.417
95.928	21.782	1023.415	820.671
96.943	21.621	1022.195	818.869
97.957	21.300	1021.015	816.351
98.972	21.294	1020.093	815.512
99.987	21.406	1019.226	815.269
101.001	21.605	1018.941	815.899
102.016	21.715	1017.658	815.309
103.030	21.643	1016.804	814.217
104.045	21.353	1015.919	812.093
105.060	21.326	1014.439	810.710
106.074	21.488	1013.967	811.013
107.089	21.901	1013.216	812.255
108.103	21.575	1012.360	809.986
109.118	21.470	1011.090	808.415
110.133	21.405	1010.397	807.487
111.147	21.275	1008.953	805.661
112.162	21.227	1007.739	804.399
113.176	21.400	1007.277	804.757
114.191	21.494	1006.145	804.213
115.206	21.117	1005.088	801.568
116.220	21.052	1004.327	800.592
117.235	21.185	1003.609	800.558
118.249	21.178	1002.851	799.852
119.264	21.125	1001.868	798.755
120.279	21.038	1001.593	798.066
121.293	21.199	1000.665	797.989
122.308	21.265	999.454	797.258
123.322	21.128	998.210	795.567
124.337	21.118	996.804	794.332
125.352	20.616	995.130	790.646
126.366	20.437	994.580	789.326
127.381	21.262	994.345	792.816
128.395	21.617	994.171	794.215
129.410	21.786	992.535	793.604
130.424	21.638	991.949	792.398
131.439	21.649	991.180	791.760
132.454	21.650	990.240	790.943
133.468	21.586	989.328	789.858
134.483	21.758	988.108	789.591
135.497	21.998	987.313	789.964
136.512	21.846	986.782	788.785
137.527	22.096	985.451	788.777
138.541	21.906	984.920	787.427
139.556	22.034	984.552	787.637
140.570	22.025	983.403	786.610
141.585	22.055	982.231	785.734
142.600	21.991	981.138	784.504
143.614	22.144	980.744	784.805
144.629	22.226	980.147	784.624
145.643	22.028	978.538	782.383
146.658	21.972	976.845	780.711
147.673	21.824	975.873	779.207
148.687	21.784	974.898	778.181
149.702	21.802	973.485	777.066
150.716	21.664	973.028	776.023
151.731	21.816	972.385	776.113
152.746	22.023	971.842	776.528
153.760	22.086	971.426	776.402
154.775	22.283	970.068	776.120
155.789	22.039	969.938	774.870
156.804	22.078	968.435	773.771
157.819	22.151	968.087	773.749
158.833	22.193	967.403	773.317
159.848	22.114	966.335	772.046
160.862	22.122	964.825	770.810
161.877	22.056	963.855	769.676
162.892	22.190	962.961	769.480
163.906	22.117	961.642	768.042
164.921	22.077	960.929	767.228
165.935	22.252	960.097	767.261
166.950	22.086	959.060	765.639
167.964	22.228	957.866	765.235
168.979	21.995	957.177	763.603
169.994	21.958	956.517	762.852
171.008	22.132	955.984	763.111
172.023	22.130	955.055	762.296
173.037	21.904	954.025	760.424
174.052	21.695	952.927	758.579
175.067	21.767	952.207	758.252
176.081	21.825	951.685	758.019
177.096	21.828	951.345	757.691
178.110	21.628	950.084	755.758
179.125	21.566	949.026	754.585
180.140	21.626	948.468	754.333
181.154	21.622	948.735	754.457
182.169	21.986	948.269	755.589
183.183	22.084	948.007	755.734
184.198	22.071	946.923	754.749
185.213	22.011	946.348	753.966
186.227	22.081	945.314	753.376
187.242	22.046	944.705	752.672
188.256	22.139	943.728	752.225
189.271	22.143	943.628	752.097
190.286	21.873	941.967	749.552
191.300	21.287	940.574	745.878
192.315	20.674	939.084	742.018
193.329	20.485	938.708	740.849
194.344	21.407	939.750	745.539
195.359	21.845	939.766	747.350
196.373	21.992	939.008	747.309
197.388	21.784	938.379	745.856
198.402	21.957	937.368	745.724
199.417	21.984	936.631	745.185
200.432	21.682	935.467	742.913
201.446	21.401	934.607	740.973
202.461	21.489	934.267	741.012
203.475	20.576	932.691	735.832
204.490	19.952	931.108	731.880
205.504	20.973	931.578	736.504
206.519	21.459	931.656	738.553
207.534	21.666	930.746	738.638
208.548	22.116	930.781	740.498
209.563	21.732	929.968	738.169
210.577	21.825	929.039	737.756
211.592	22.075	928.752	738.513
212.607	22.191	927.653	738.061
213.621	22.194	927.066	737.543
214.636	22.003	926.955	736.588
215.650	22.064	925.949	735.977
216.665	22.208	925.313	736.012
217.680	22.039	924.286	734.420
218.694	21.631	922.837	731.500
219.709	21.651	922.394	731.168
220.723	21.991	922.066	732.264
221.738	21.931	921.559	731.547
222.753	21.965	920.778	731.003
223.767	22.014	920.674	731.058
224.782	22.238	919.980	731.375
225.796	22.285	919.346	731.000
226.811	21.530	917.756	726.541
227.826	20.976	916.395	723.103
228.840	21.192	915.931	723.566
229.855	21.203	915.313	723.061
230.869	20.938	914.037	720.891
231.884	21.273	914.583	722.642
232.899	21.891	914.924	725.405
233.913	21.850	913.519	724.060
234.928	21.938	912.781	723.774
235.942	21.867	912.244	722.990
236.957	21.471	911.275	720.528
237.972	21.537	910.904	720.444
238.986	21.651	910.411	720.457
240.001	21.569	909.861	719.620
241.015	21.802	909.137	719.942
242.030	21.895	908.489	719.748
243.045	22.058	907.850	719.846
244.059	22.243	907.723	720.440
245.074	21.889	906.599	718.035
246.088	21.567	905.565	715.836
247.103	21.816	905.256	716.545
248.117	22.286	905.364	718.488
249.132	22.549	905.053	719.251
250.147	22.731	904.296	719.327
251.161	22.813	903.854	719.246
252.176	22.776	903.203	718.515
253.190	22.896	902.544	718.413
254.205	23.004	902.058	718.405
255.220	22.818	901.644	717.255
256.234	22.874	900.548	716.547
257.249	22.717	899.776	715.232
258.263	22.681	898.981	714.390
259.278	22.909	898.105	714.553
260.293	22.962	897.721	714.400
261.307	22.800	896.934	713.056
262.322	22.625	895.905	711.469
263.336	21.720	894.377	706.546
264.351	20.805	892.366	701.210
265.366	20.920	892.082	701.389
266.380	22.008	892.880	706.333
267.395	22.441	892.065	707.368
268.409	22.467	891.590	707.033
269.424	22.777	890.965	707.717
270.439	22.581	890.566	706.551
271.453	22.755	889.933	706.684
272.468	22.916	889.738	707.112
273.482	22.902	889.005	706.408
274.497	22.383	887.719	703.255
275.512	22.221	886.661	701.706
276.526	22.628	886.768	703.351
277.541	22.753	886.347	703.456
278.555	22.289	886.057	701.312
279.570	22.325	884.770	700.374
280.585	22.434	884.510	700.539
281.599	22.438	883.469	699.672
282.614	21.897	882.061	696.346
283.628	21.892	881.752	696.020
284.643	22.161	881.561	696.875
285.657	21.740	880.429	694.251
286.672	21.597	879.345	692.772
287.687	22.174	879.508	695.119
288.701	22.106	878.843	694.265
289.716	21.852	877.997	692.533
290.730	21.952	876.986	692.067
291.745	21.465	876.188	689.455
292.760	21.827	876.202	690.832
293.774	22.868	876.327	694.969
294.789	23.165	875.983	695.805
295.803	23.175	875.750	695.598
296.818	23.263	874.681	695.030
297.833	22.722	873.934	692.253
298.847	22.580	872.963	690.867
299.862	23.029	872.832	692.462
300.876	23.154	872.286	692.457
301.891	23.020	871.925	691.584
302.906	22.669	870.547	689.057
303.920	22.765	870.526	689.354
304.935	23.182	870.140	690.616
305.949	23.187	869.200	689.829
306.964	22.910	868.664	688.264
307.979	22.818	868.583	687.780
308.993	23.317	868.041	689.231
310.008	23.236	867.548	688.466
311.022	22.997	866.517	686.658
312.037	23.002	865.725	685.987
313.052	22.731	864.556	683.950
314.066	21.738	863.530	679.233
315.081	21.586	862.449	677.734
316.095	22.354	863.206	681.243
317.110	22.803	862.937	682.708
318.125	22.030	861.248	678.325
319.139	20.909	860.251	673.153
320.154	21.085	859.623	673.280
321.168	21.781	860.121	676.296
322.183	22.524	860.060	679.057
323.197	22.703	859.449	679.202
324.212	22.916	859.293	679.836
325.227	23.015	858.617	679.623
326.241	22.807	858.065	678.328
327.256	22.789	857.666	677.883
328.270	22.745	856.653	676.852
329.285	22.496	855.597	675.007
330.300	22.297	854.915	673.646
331.314	22.547	854.694	674.370
332.329	22.959	854.435	675.680
333.343	23.174	854.362	676.386
334.358	23.004	853.952	675.350
335.373	23.180	853.365	675.499
336.387	23.338	853.492	676.144
337.402	23.425	853.245	676.218
338.416	23.374	852.686	675.521
339.431	23.485	852.303	675.580
340.446	23.620	852.064	675.845
341.460	23.578	851.708	675.345
342.475	23.232	851.278	673.629
343.489	23.367	850.268	673.281
344.504	23.725	849.961	674.336
345.519	23.876	849.683	674.630
346.533	23.833	849.580	674.327
347.548	23.859	848.635	673.614
348.562	23.880	848.335	673.398
349.577	23.814	847.675	672.565
350.592	23.749	846.841	671.597
351.606	23.716	846.300	670.985
352.621	23.727	845.115	670.026
353.635	23.587	844.163	668.684
354.650	22.976	842.959	665.372
355.665	22.006	841.243	660.313
356.679	22.539	840.992	662.061
357.694	22.925	840.895	663.377
358.708	22.747	840.552	662.376
359.723	23.177	840.321	663.750
360.738	23.498	840.036	664.670
361.752	23.375	839.939	664.074
362.767	23.790	839.149	664.942
363.781	24.210	838.418	665.876
364.796	24.124	838.214	665.332
365.810	24.323	837.797	665.684
366.825	24.140	837.289	664.542
367.840	23.888	836.550	662.957
368.854	23.544	835.486	660.773
369.869	23.507	835.394	660.503
370.883	23.591	834.920	660.384
371.898	23.437	834.724	659.596
372.913	23.563	834.256	659.637
373.927	23.785	833.395	659.721
374.942	23.864	833.078	659.707
375.956	23.830	833.128	659.560
376.971	23.985	832.504	659.583
377.986	24.181	832.279	660.073
379.000	24.015	831.470	658.759
380.015	23.762	831.187	657.542
381.029	24.121	830.206	658.033
382.044	24.132	829.885	657.760
383.059	24.143	829.179	657.182
384.073	24.148	828.713	656.773
385.088	24.234	827.966	656.440
386.102	24.015	827.502	655.207
387.117	24.022	826.880	654.682
388.132	23.432	825.908	651.687
389.146	23.110	824.833	649.600
390.161	23.429	824.814	650.699
391.175	23.832	824.619	651.967
392.190	23.560	823.415	649.960
393.205	22.220	821.582	643.556
394.219	20.747	819.502	636.486
395.234	20.749	819.339	636.309
396.248	22.380	820.923	643.454
397.263	23.645	821.614	648.562
398.278	23.637	821.447	648.345
399.292	23.448	820.753	647.048
400.307	23.531	820.161	646.828
401.321	23.591	819.789	646.696
402.336	23.893	819.878	647.810
403.350	24.299	819.704	649.091
404.365	24.653	819.681	650.305
405.380	24.857	819.157	650.572
406.394	24.754	818.945	649.973
407.409	24.593	818.425	648.917
408.423	24.776	817.540	648.822
409.438	24.646	817.524	648.282
410.453	24.810	816.892	648.317
411.467	24.833	816.155	647.759
412.482	24.854	815.573	647.316
413.496	24.820	815.649	647.193
414.511	24.765	815.091	646.494
415.526	24.788	814.700	646.211
416.540	24.814	813.662	645.424
417.555	24.327	813.365	643.377
418.569	24.671	812.636	643.983
419.584	24.405	812.327	642.720
420.599	24.240	811.867	641.707
421.613	154.345	1365.756	1793.621
422.628	134.245	1446.469	1793.727
