DTS Sentinel unit serial number:	SN413079Multiplexer serial number:	ORYXHardware model number:	OX4-SRSoftware version number:	ORYX F/W v4.00 Oryx Data Collector v3.7.2.0data status	okinstallation	princeton_trtdifferential loss correction	single-endedforward channel	channel 1reverse channel	N/Adate	2019/09/10time	22:40:11forward acquisition time	60.00reverse acquisition time	0.00gamma	496.2192k internal	0.2332k external	0.2332temperature offset calibration	0.9937default loss term (dB/km)	0.3790temperature slope calibration	1.0000multiplexer offset coefficient	1.0000multiplexer slope coefficient	1.0000fibre end	0.00T internal ref (°C)	30.25T ext. ref 1 (°C)	-0.32T ext. ref 2 (°C)	23.74length (m)	temperature (°C)	Stokes	anti-Stokes-747.200	-200.000	0.025	0.214
-746.185	-20.981	-0.363	0.223
-745.171	-113.982	0.202	0.039
-744.156	57.202	0.223	0.219
-743.142	-115.515	0.286	0.054
-742.127	54.402	-0.194	0.188
-741.112	-18.633	-0.132	0.083
-740.098	-189.559	-0.076	0.001
-739.083	53.576	0.136	0.131
-738.069	146.667	-0.117	0.158
-737.054	-22.879	-0.106	0.064
-736.039	-200.000	-0.002	0.239
-735.025	-83.769	0.179	0.057
-734.010	-113.230	0.112	0.022
-732.996	-80.257	-0.217	-0.073
-731.981	-200.000	-0.005	0.080
-730.966	-52.794	0.159	0.074
-729.952	4.392	-0.085	0.063
-728.937	112.036	0.299	-0.363
-727.923	124.001	-0.130	-0.164
-726.908	800.000	0.032	0.114
-725.894	66.263	-0.096	0.098
-724.879	-71.601	0.186	0.070
-723.864	389.554	-0.130	0.272
-722.850	-200.000	-0.034	-0.230
-721.835	15.975	-0.179	-0.142
-720.821	-18.022	-0.044	-0.028
-719.806	-200.000	-0.036	-0.204
-718.791	-123.228	-0.247	0.040
-717.777	-105.873	0.261	0.059
-716.762	-160.486	0.216	-0.012
-715.748	349.449	0.030	-0.060
-714.733	800.000	-0.098	-0.354
-713.718	156.001	-0.056	-0.078
-712.704	-152.885	0.172	-0.012
-711.689	-88.906	0.128	0.038
-710.675	-200.000	0.049	0.236
-709.660	544.557	0.147	-0.353
-708.645	-200.000	-0.004	0.385
-707.631	800.000	0.156	0.455
-706.616	-200.000	0.089	-0.439
-705.602	109.015	0.074	-0.089
-704.587	-36.319	0.246	0.133
-703.572	213.803	-0.097	-0.154
-702.558	-68.581	0.265	-0.103
-701.543	-35.274	-0.269	0.147
-700.529	-105.652	0.294	-0.067
-699.514	800.000	-0.062	-0.261
-698.499	438.771	0.181	-0.396
-697.485	139.025	-0.233	0.307
-696.470	28.160	-0.057	0.049
-695.456	-29.393	0.251	0.144
-694.441	-108.528	-0.062	0.013
-693.426	12.104	-0.273	0.211
-692.412	-27.517	0.154	0.090
-691.397	-104.257	-0.215	-0.050
-690.383	108.920	-0.084	-0.101
-689.368	181.889	0.071	0.105
-688.354	-200.000	-0.006	-0.333
-687.339	-87.822	0.189	-0.057
-686.324	82.043	-0.201	-0.219
-685.310	187.181	0.149	-0.223
-684.295	-200.000	0.027	-0.361
-683.281	128.592	0.157	-0.201
-682.266	59.182	-0.071	0.070
-681.251	83.778	-0.270	-0.295
-680.237	-158.015	0.422	0.025
-679.222	72.411	0.066	-0.069
-678.208	-10.184	-0.203	0.135
-677.193	170.376	0.163	-0.234
-676.178	-52.017	0.352	0.164
-675.164	378.659	0.097	-0.199
-674.149	374.189	-0.037	-0.075
-673.135	191.065	-0.132	-0.199
-672.120	-200.000	0.007	0.087
-671.105	710.439	-0.117	0.310
-670.091	-200.000	-0.072	0.320
-669.076	55.559	-0.142	0.138
-668.062	-200.000	0.029	0.242
-667.047	236.299	0.196	-0.326
-666.032	-200.000	-0.058	-0.268
-665.018	-57.202	0.217	-0.096
-664.003	-53.381	-0.117	-0.054
-662.989	-200.000	0.011	0.067
-661.974	238.082	-0.130	-0.216
-660.959	-154.494	0.401	-0.027
-659.945	-81.700	-0.289	0.095
-658.930	-200.000	-0.046	-0.226
-657.916	-200.000	-0.031	-0.300
-656.901	59.980	0.229	-0.227
-655.886	-134.933	0.270	0.033
-654.872	-200.000	0.004	0.184
-653.857	-18.136	0.350	0.219
-652.843	800.000	0.092	-0.317
-651.828	-148.379	0.159	-0.013
-650.814	-200.000	-0.005	-0.052
-649.799	-200.000	0.024	-0.274
-648.784	-154.719	-0.076	0.005
-647.770	-27.842	-0.146	-0.085
-646.755	800.000	-0.074	0.254
-645.741	207.385	-0.132	0.207
-644.726	27.926	0.092	0.077
-643.711	-164.867	-0.011	-0.000
-642.697	250.925	0.227	0.387
-641.682	800.000	0.051	0.163
-640.668	-82.399	0.196	-0.064
-639.653	-42.719	-0.346	0.176
-638.638	142.094	-0.244	0.325
-637.624	-84.954	0.358	-0.113
-636.609	240.739	-0.042	-0.071
-635.595	48.120	0.146	-0.137
-634.580	-200.000	-0.048	0.224
-633.565	106.075	-0.115	0.137
-632.551	-79.459	0.133	0.045
-631.536	-50.412	-0.164	-0.078
-630.522	-15.928	-0.454	-0.289
-629.507	-180.740	0.121	0.002
-628.492	-200.000	-0.024	-0.238
-627.478	-128.316	-0.153	-0.022
-626.463	-200.000	-0.007	0.132
-625.449	-105.680	-0.284	-0.064
-624.434	-85.290	0.265	-0.083
-623.419	-200.000	0.004	-0.378
-622.405	800.000	-0.092	-0.304
-621.390	-176.020	-0.284	0.008
-620.376	800.000	-0.013	-0.040
-619.361	407.404	0.093	0.197
-618.346	800.000	-0.045	-0.125
-617.332	-64.220	0.165	-0.067
-616.317	-141.196	0.192	-0.020
-615.303	-200.000	0.046	0.291
-614.288	-200.000	0.001	0.268
-613.273	25.554	-0.179	-0.149
-612.259	800.000	-0.078	-0.217
-611.244	-109.877	-0.260	0.055
-610.230	800.000	-0.086	-0.345
-609.215	-105.075	-0.435	-0.100
-608.201	-200.000	0.030	0.255
-607.186	-36.850	-0.197	0.106
-606.171	-119.871	0.268	-0.046
-605.157	200.653	-0.047	-0.073
-604.142	-72.122	-0.182	-0.067
-603.128	-74.124	0.119	0.043
-602.113	292.390	-0.236	0.430
-601.098	800.000	0.064	0.206
-600.084	26.946	-0.128	0.107
-599.069	800.000	-0.098	-0.293
-598.055	516.747	-0.040	-0.093
-597.040	385.189	0.055	-0.113
-596.025	-10.240	0.089	-0.059
-595.011	662.003	0.023	-0.060
-593.996	79.713	-0.252	-0.271
-592.982	800.000	-0.032	-0.127
-591.967	-169.378	-0.198	-0.007
-590.952	800.000	-0.043	-0.154
-589.938	86.668	0.131	-0.145
-588.923	-69.344	0.132	-0.051
-587.909	-200.000	0.028	-0.176
-586.894	-54.020	0.085	0.039
-585.879	800.000	-0.072	0.289
-584.865	135.784	-0.100	0.130
-583.850	100.965	-0.168	0.196
-582.836	219.298	-0.068	-0.109
-581.821	-95.001	-0.131	-0.035
-580.806	-200.000	0.062	-0.326
-579.792	450.633	-0.043	-0.095
-578.777	259.897	-0.054	0.093
-577.763	-108.687	-0.032	0.007
-576.748	-79.085	-0.156	0.053
-575.733	86.335	0.097	-0.107
-574.719	800.000	-0.077	0.240
-573.704	379.267	0.018	0.038
-572.690	149.250	-0.137	0.186
-571.675	395.621	-0.151	-0.314
-570.661	8.348	0.349	-0.262
-569.646	-69.800	-0.310	-0.118
-568.631	-33.651	-0.066	0.037
-567.617	800.000	-0.060	-0.190
-566.602	198.605	0.172	0.264
-565.588	216.243	0.214	-0.340
-564.573	-96.017	-0.095	0.025
-563.558	-69.640	0.256	0.098
-562.544	139.007	0.031	-0.040
-561.529	800.000	-0.051	0.144
-560.515	-17.537	0.157	0.099
-559.500	-85.329	-0.207	0.065
-558.485	-95.209	-0.131	0.035
-557.471	579.802	-0.070	-0.171
-556.456	-200.000	-0.004	-0.103
-555.442	-101.896	-0.220	-0.053
-554.427	167.407	-0.090	-0.128
-553.412	-200.000	-0.038	-0.295
-552.398	800.000	-0.134	-0.423
-551.383	-67.443	0.256	0.101
-550.369	-200.000	0.016	0.099
-549.354	139.522	0.250	0.329
-548.339	-6.525	-0.416	0.283
-547.325	165.610	0.249	0.351
-546.310	-54.720	0.383	-0.173
-545.296	77.362	0.193	-0.205
-544.281	-176.176	0.211	-0.006
-543.266	19.523	-0.125	0.100
-542.252	10.534	0.150	0.114
-541.237	-95.410	0.215	0.058
-540.223	231.171	0.065	0.107
-539.208	10.712	0.222	0.169
-538.193	-200.000	0.026	-0.197
-537.179	-113.100	-0.175	-0.034
-536.164	59.238	0.225	-0.221
-535.150	340.540	0.123	-0.239
-534.135	456.339	0.012	0.027
-533.121	-200.000	-0.146	0.000
-532.106	-200.000	0.001	-0.046
-531.091	530.616	-0.053	-0.124
-530.077	161.079	0.148	0.207
-529.062	320.027	-0.043	0.082
-528.048	-46.178	0.100	-0.049
-527.033	90.101	0.069	0.077
-526.018	800.000	0.047	0.132
-525.004	349.639	-0.064	0.127
-523.989	526.774	0.090	0.212
-522.975	-51.633	0.072	-0.033
-521.960	-6.593	-0.174	0.118
-520.945	-42.351	-0.145	-0.074
-519.931	-93.409	0.359	0.099
-518.916	-200.000	0.039	-0.222
-517.902	-92.510	-0.443	0.124
-516.887	-136.973	0.114	-0.013
-515.872	53.537	0.145	-0.138
-514.858	-97.805	-0.103	-0.027
-513.843	-29.183	0.134	0.076
-512.829	63.809	0.194	0.194
-511.814	800.000	-0.083	0.240
-510.799	-200.000	-0.013	0.123
-509.785	-71.137	-0.188	0.070
-508.770	76.536	0.092	0.098
-507.756	368.078	0.093	-0.187
-506.741	-10.556	0.032	0.021
-505.726	-0.299	0.160	0.114
-504.712	159.504	0.087	-0.121
-503.697	-200.000	0.001	-0.124
-502.683	174.304	-0.129	-0.186
-501.668	-77.340	-0.119	-0.041
-500.653	800.000	0.095	0.340
-499.639	184.662	-0.164	-0.242
-498.624	800.000	0.053	0.156
-497.610	800.000	-0.141	0.406
-496.595	-127.082	0.220	-0.032
-495.581	63.525	-0.147	-0.147
-494.566	800.000	0.033	0.106
-493.551	-126.184	0.318	-0.047
-492.537	233.625	-0.189	0.310
-491.522	165.927	-0.189	0.267
-490.508	-156.088	-0.109	-0.007
-489.493	800.000	-0.067	-0.209
-488.478	-12.221	-0.336	0.219
-487.464	-200.000	0.009	-0.278
-486.449	132.877	-0.205	-0.264
-485.435	222.315	0.167	-0.268
-484.420	-200.000	-0.016	-0.416
-483.405	-200.000	-0.011	0.131
-482.391	-200.000	-0.003	0.129
-481.376	-84.368	0.150	-0.047
-480.362	-114.601	0.174	0.033
-479.347	284.802	0.111	-0.199
-478.332	128.970	-0.068	0.086
-477.318	800.000	0.028	0.082
-476.303	-71.427	0.395	0.147
-475.289	114.405	0.120	0.145
-474.274	-22.991	0.327	0.196
-473.259	-92.811	-0.287	0.080
-472.245	-30.894	-0.066	0.037
-471.230	-50.988	0.330	0.154
-470.216	-66.341	-0.192	-0.076
-469.201	-200.000	-0.001	0.250
-468.186	800.000	0.027	0.086
-467.172	66.096	-0.013	-0.013
-466.157	-97.828	0.436	0.112
-465.143	53.743	-0.133	0.127
-464.128	205.447	0.183	-0.282
-463.113	20.715	0.132	-0.106
-462.099	800.000	-0.044	-0.133
-461.084	-200.000	-0.034	0.286
-460.070	-200.000	-0.019	0.295
-459.055	-44.140	0.228	-0.114
-458.040	-120.221	-0.319	-0.054
-457.026	-200.000	0.071	0.356
-456.011	-100.149	-0.177	0.044
-454.997	-200.000	-0.032	-0.179
-453.982	-90.427	0.060	0.017
-452.968	123.521	0.122	0.152
-451.953	159.051	-0.162	0.224
-450.938	298.794	-0.041	0.075
-449.924	-200.000	-0.023	-0.204
-448.909	344.798	0.105	-0.205
-447.895	-168.334	0.229	-0.009
-446.880	-149.663	-0.092	-0.007
-445.865	-45.533	0.314	0.155
-444.851	224.346	-0.090	-0.145
-443.836	-10.155	0.327	-0.216
-442.822	-35.943	-0.234	-0.126
-441.807	-70.902	0.201	0.075
-440.792	92.982	0.068	-0.077
-439.778	30.069	0.139	-0.118
-438.763	-200.000	-0.016	-0.160
-437.749	-48.945	0.012	0.005
-436.734	414.491	-0.193	-0.408
-435.719	-135.003	-0.239	0.029
-434.705	135.119	0.179	0.231
-433.690	3.854	-0.128	-0.093
-432.676	38.928	0.100	-0.089
-431.661	341.269	-0.079	-0.153
-430.646	-158.405	0.027	-0.002
-429.632	-142.390	-0.099	0.010
-428.617	-69.701	0.220	0.083
-427.603	800.000	0.036	0.139
-426.588	-200.000	-0.040	0.182
-425.573	409.333	0.144	-0.302
-424.559	-101.839	0.115	0.028
-423.544	-64.063	0.227	-0.092
-422.530	-200.000	-0.014	-0.087
-421.515	357.860	0.191	-0.378
-420.500	-93.100	-0.237	-0.066
-419.486	272.745	0.094	0.165
-418.471	13.684	0.104	-0.080
-417.457	106.139	0.085	-0.099
-416.442	-132.266	0.119	-0.015
-415.428	7.017	0.173	-0.128
-414.413	-87.088	0.208	-0.063
-413.398	134.237	0.111	-0.143
-412.384	576.565	0.024	-0.058
-411.369	-28.152	-0.226	-0.130
-410.355	-55.192	-0.087	-0.039
-409.340	800.000	-0.082	-0.271
-408.325	60.488	-0.165	0.163
-407.311	247.887	-0.153	0.257
-406.296	-200.000	-0.048	-0.242
-405.282	245.955	-0.066	0.111
-404.267	800.000	0.006	0.024
-403.252	19.839	-0.046	-0.036
-402.238	96.292	0.099	0.112
-401.223	-200.000	0.021	-0.329
-400.209	16.136	-0.336	-0.263
-399.194	-90.241	0.091	-0.026
-398.179	307.774	0.143	0.265
-397.165	147.401	-0.148	0.197
-396.150	-118.957	0.261	-0.045
-395.136	-103.075	-0.143	0.034
-394.121	-123.817	0.181	0.028
-393.106	-200.000	0.036	0.182
-392.092	125.004	-0.191	0.238
-391.077	328.564	0.161	-0.308
-390.063	-20.140	-0.093	-0.057
-389.048	-110.755	-0.181	-0.037
-388.033	800.000	-0.081	-0.231
-387.019	12.004	-0.314	-0.240
-386.004	-109.117	0.107	-0.023
-384.990	-53.672	-0.194	-0.088
-383.975	-70.017	0.057	-0.022
-382.960	-70.715	0.193	0.072
-381.946	800.000	0.009	-0.030
-380.931	8.850	0.166	0.124
-379.917	-41.344	0.080	0.041
-378.902	-170.982	0.260	-0.009
-377.888	-200.000	-0.036	-0.197
-376.873	469.798	0.021	0.048
-375.858	64.068	-0.104	0.104
-374.844	372.547	0.019	-0.038
-373.829	-28.371	0.329	0.188
-372.815	218.816	-0.105	0.166
-371.800	-200.000	0.007	-0.054
-370.785	-117.803	-0.208	0.037
-369.771	287.154	-0.240	0.430
-368.756	-188.004	-0.059	-0.001
-367.742	260.974	0.179	0.308
-366.727	-200.000	0.030	-0.182
-365.712	800.000	-0.015	0.045
-364.698	277.251	0.030	0.053
-363.683	-200.000	-0.044	-0.201
-362.669	-130.681	-0.078	0.010
-361.654	-83.213	-0.316	-0.101
-360.639	-174.779	-0.043	-0.001
-359.625	800.000	0.045	-0.142
-358.610	800.000	0.031	0.090
-357.596	-123.878	-0.181	-0.028
-356.581	-200.000	0.007	0.052
-355.566	299.626	-0.172	0.314
-354.552	-200.000	0.025	0.314
-353.537	-125.314	0.051	-0.008
-352.523	-161.616	-0.126	0.006
-351.508	800.000	0.055	-0.227
-350.493	-112.542	-0.089	-0.018
-349.479	-117.626	-0.101	0.018
-348.464	58.995	-0.066	-0.064
-347.450	-55.129	-0.356	0.159
-346.435	275.983	0.122	-0.215
-345.420	421.587	0.104	0.221
-344.406	-200.000	-0.007	0.268
-343.391	11.673	0.297	-0.226
-342.377	161.790	0.191	-0.265
-341.362	800.000	-0.152	0.416
-340.348	800.000	-0.086	-0.358
-339.333	25.382	0.287	-0.236
-338.318	8.117	0.295	0.219
-337.304	161.390	-0.099	-0.137
-336.289	-200.000	-0.028	0.179
-335.275	571.898	-0.030	0.072
-334.260	-200.000	-0.005	0.028
-333.245	-18.178	-0.139	-0.086
-332.231	-200.000	-0.055	0.270
-331.216	249.299	-0.185	0.311
-330.202	-101.395	-0.411	0.099
-329.187	-200.000	-0.042	0.342
-328.172	81.584	-0.073	-0.078
-327.158	-200.000	0.018	-0.181
-326.143	-200.000	-0.115	-0.000
-325.129	17.903	0.130	0.102
-324.114	590.951	-0.129	0.316
-323.099	345.477	-0.126	0.244
-322.085	-133.477	-0.120	-0.015
-321.070	57.054	0.227	0.219
-320.056	-200.000	-0.023	-0.298
-319.041	-0.383	-0.279	-0.196
-318.026	-56.788	0.092	0.040
-317.012	-95.502	-0.158	0.042
-315.997	-200.000	0.020	-0.152
-314.983	-200.000	-0.021	-0.232
-313.968	-200.000	0.006	-0.076
-312.953	-56.076	-0.228	0.100
-311.939	-200.000	0.012	0.294
-310.924	699.069	0.084	-0.220
-309.910	-128.178	-0.416	-0.059
-308.895	-49.373	-0.206	0.097
-307.880	188.152	-0.197	-0.291
-306.866	282.599	-0.069	-0.122
-305.851	176.398	-0.081	-0.117
-304.837	-85.494	0.083	-0.026
-303.822	522.654	-0.181	0.421
-302.807	111.147	0.166	0.198
-301.793	166.444	-0.172	-0.241
-300.778	62.296	-0.092	-0.091
-299.764	-75.349	0.073	0.026
-298.749	-200.000	0.004	0.038
-297.735	-124.381	0.230	0.035
-296.720	581.371	-0.077	-0.187
-295.705	281.750	0.088	0.157
-294.691	-200.000	0.024	0.120
-293.676	339.341	0.119	-0.230
-292.662	800.000	-0.072	0.207
-291.647	54.875	-0.076	-0.072
-290.632	-156.832	0.219	0.013
-289.618	7.584	0.294	-0.217
-288.603	800.000	0.030	-0.096
-287.589	-106.679	0.093	-0.020
-286.574	800.000	0.015	-0.064
-285.559	-20.268	-0.226	-0.138
-284.545	161.205	-0.107	-0.148
-283.530	15.722	0.101	-0.078
-282.516	-200.000	-0.008	0.053
-281.501	-173.321	0.188	0.006
-280.486	-96.741	-0.276	0.072
-279.472	-200.000	0.058	-0.520
-278.457	-70.552	-0.447	0.167
-277.443	95.649	-0.073	-0.082
-276.428	-89.990	0.430	-0.124
-275.413	22.946	-0.058	-0.047
-274.399	-200.000	-0.005	-0.184
-273.384	-200.000	-0.025	0.218
-272.370	-200.000	0.008	0.228
-271.355	205.574	-0.174	-0.267
-270.340	-200.000	0.081	-0.577
-269.326	179.142	0.147	0.212
-268.311	346.778	-0.066	0.128
-267.297	593.991	-0.102	0.248
-266.282	253.093	-0.046	0.077
-265.267	-149.716	-0.233	-0.018
-264.253	28.896	0.200	0.167
-263.238	91.170	-0.341	0.378
-262.224	-200.000	0.014	0.385
-261.209	31.262	-0.223	0.189
-260.195	-184.109	0.445	-0.007
-259.180	-75.187	-0.140	-0.049
-258.165	-78.823	-0.270	-0.091
-257.151	92.385	-0.203	0.226
-256.136	107.355	-0.120	-0.141
-255.122	160.731	-0.127	0.176
-254.107	-72.106	0.241	0.088
-253.092	-91.231	-0.193	-0.055
-252.078	-6.886	0.155	-0.104
-251.063	-53.237	0.216	-0.098
-250.049	800.000	-0.155	0.428
-249.034	575.789	0.115	0.278
-248.019	209.709	0.132	0.204
-247.005	-69.792	0.373	0.140
-245.990	456.489	-0.092	0.202
-244.976	370.484	0.114	0.228
-243.961	-56.150	0.112	-0.049
-242.946	59.209	0.226	0.219
-241.932	-51.265	-0.216	0.100
-240.917	800.000	0.051	0.191
-239.903	172.911	0.175	-0.248
-238.888	6.459	-0.220	0.161
-237.873	-15.094	-0.062	0.039
-236.859	197.005	0.129	0.193
-235.844	-81.001	-0.130	-0.042
-234.830	132.929	0.056	0.071
-233.815	-127.201	-0.211	0.030
-232.800	80.818	0.288	-0.307
-231.786	-99.268	0.214	0.053
-230.771	-200.000	-0.015	-0.194
-229.757	-200.000	-0.026	-0.323
-228.742	-200.000	0.002	-0.244
-227.727	774.699	0.096	-0.258
-226.713	317.567	-0.084	-0.157
-225.698	-200.000	0.027	0.455
-224.684	112.598	-0.102	0.121
-223.669	-92.707	-0.192	0.053
-222.655	-200.000	0.033	0.352
-221.640	301.770	0.089	-0.162
-220.625	800.000	-0.052	-0.143
-219.611	465.127	-0.215	-0.475
-218.596	501.274	0.068	-0.156
-217.582	-94.830	-0.211	-0.056
-216.567	-165.480	-0.252	0.011
-215.552	-200.000	-0.011	0.057
-214.538	439.530	0.036	0.077
-213.523	-61.163	0.178	0.074
-212.509	778.212	-0.027	0.073
-211.494	-36.103	-0.131	0.070
-210.479	-79.246	0.108	-0.036
-209.465	37.036	0.015	0.013
-208.450	800.000	0.072	0.255
-207.436	-39.483	0.123	-0.064
-206.421	275.664	-0.139	-0.244
-205.406	11.237	-0.151	-0.114
-204.392	-200.000	0.005	-0.304
-203.377	-67.530	0.196	0.076
-202.363	6.457	-0.077	-0.056
-201.348	-66.339	0.251	-0.098
-200.333	2.551	0.068	-0.048
-199.319	-200.000	0.032	0.343
-198.304	-200.000	0.012	0.129
-197.290	-200.000	0.060	-0.338
-196.275	-93.894	-0.193	0.052
-195.260	-116.748	0.332	0.060
-194.246	800.000	-0.068	-0.190
-193.231	102.628	-0.084	-0.097
-192.217	-180.683	-0.332	-0.007
-191.202	-86.262	-0.244	0.074
-190.187	-99.144	0.606	0.151
-189.173	-141.350	-0.359	0.036
-188.158	95.102	-0.114	-0.127
-187.144	-46.298	0.412	-0.200
-186.129	-200.000	-0.078	-0.347
-185.114	60.842	-0.138	-0.135
-184.100	667.819	0.070	0.179
-183.085	10.082	0.394	0.295
-182.071	-82.561	-0.085	-0.027
-181.056	-200.000	0.023	-0.185
-180.042	-88.544	0.242	0.071
-179.027	-200.000	0.013	0.162
-178.012	-68.704	-0.188	0.071
-176.998	66.397	-0.140	-0.140
-175.983	-200.000	0.012	0.199
-174.969	-71.516	0.288	0.106
-173.954	41.011	0.176	0.157
-172.939	96.461	-0.040	0.046
-171.925	10.431	0.408	-0.306
-170.910	-2.274	0.284	-0.196
-169.896	31.346	-0.155	-0.131
-168.881	800.000	-0.032	-0.135
-167.866	-200.000	0.016	-0.082
-166.852	-200.000	-0.005	0.208
-165.837	-34.919	0.257	-0.138
-164.823	80.414	0.183	-0.194
-163.808	800.000	0.063	0.179
-162.793	205.410	-0.174	0.266
-161.779	416.599	0.129	0.271
-160.764	-200.000	0.047	-0.262
-159.750	124.601	-0.075	0.093
-158.735	-115.843	0.275	0.051
-157.720	524.560	0.022	-0.050
-156.706	279.816	-0.062	-0.110
-155.691	89.496	0.068	-0.075
-154.677	-156.937	0.280	0.017
-153.662	159.584	0.178	0.244
-152.647	248.239	-0.177	-0.295
-151.633	800.000	0.047	-0.156
-150.618	189.002	-0.052	0.077
-149.604	-35.891	-0.125	-0.066
-148.589	-143.990	0.206	-0.019
-147.574	22.695	0.036	-0.029
-146.560	142.404	-0.068	0.089
-145.545	800.000	0.171	0.485
-144.531	31.317	0.301	0.254
-143.516	-66.372	0.102	-0.040
-142.502	-200.000	-0.019	-0.089
-141.487	-18.712	-0.311	-0.190
-140.472	-91.350	0.361	0.102
-139.458	-98.137	0.126	0.032
-138.443	-117.262	0.225	-0.040
-137.429	800.000	0.087	0.368
-136.414	-139.486	0.132	-0.014
-135.399	-171.558	-0.192	-0.006
-134.385	389.607	0.083	-0.169
-133.370	-0.923	0.220	-0.153
-132.356	800.000	-0.083	0.237
-131.341	-200.000	-0.023	0.146
-130.326	306.429	0.162	-0.295
-129.312	101.021	-0.133	-0.152
-128.297	133.908	-0.190	-0.242
-127.283	-9.480	0.207	0.135
-126.268	-200.000	0.011	0.596
-125.253	11.892	-0.191	0.144
-124.239	-200.000	0.375	-0.001
-123.224	44.330	0.150	0.135
-122.210	-14.037	0.246	0.156
-121.195	426.681	0.034	0.072
-120.180	-64.089	-0.152	0.061
-119.166	72.458	0.255	0.261
-118.151	800.000	-0.072	-0.269
-117.137	-51.633	0.245	0.112
-116.122	-36.088	0.102	0.054
-115.107	-26.187	0.334	0.193
-114.093	-41.111	-0.077	0.039
-113.078	102.678	-0.227	0.260
-112.064	206.978	-0.117	0.179
-111.049	182.713	-0.079	-0.114
-110.034	-200.000	0.004	-0.129
-109.020	66.526	0.171	-0.170
-108.005	71.410	0.109	-0.111
-106.991	144.672	0.142	0.186
-105.976	-90.105	-0.256	-0.073
-104.962	800.000	-0.029	0.078
-103.947	-200.000	0.039	0.261
-102.932	345.318	0.113	0.217
-101.918	183.270	0.237	0.343
-100.903	307.827	-0.086	-0.158
-99.889	645.199	0.079	0.198
-98.874	42.795	0.135	-0.121
-97.859	-98.409	-0.180	-0.045
-96.845	444.556	0.142	-0.305
-95.830	143.761	0.120	0.157
-94.816	69.242	0.258	0.260
-93.801	-154.031	0.341	-0.023
-92.786	191.615	-0.056	-0.083
-91.772	-20.060	0.016	-0.010
-90.757	-0.909	0.125	-0.087
-89.743	145.057	-0.215	-0.282
-88.728	95.094	-0.070	-0.078
-87.713	-42.413	0.324	0.162
-86.699	-200.000	-0.017	0.359
-85.684	366.022	0.067	0.132
-84.670	104.866	0.030	-0.035
-83.655	-193.211	-0.046	0.000
-82.640	70.728	0.185	0.188
-81.626	-41.234	0.147	-0.074
-80.611	467.972	-0.049	0.109
-79.597	275.052	-0.224	-0.388
-78.582	-154.972	-0.405	-0.026
-77.567	-14.458	-0.104	0.066
-76.553	116.772	0.078	-0.094
-75.538	136.949	-0.036	0.046
-74.524	416.148	-0.097	-0.203
-73.509	800.000	-0.093	0.312
-72.494	65.356	0.131	0.130
-71.480	-126.885	0.329	0.047
-70.465	-157.694	-0.280	0.016
-69.451	181.600	0.216	0.312
-68.436	-200.000	0.106	0.000
-67.422	206.447	0.171	-0.261
-66.407	-50.715	-0.068	-0.031
-65.392	-200.000	0.012	0.201
-64.378	139.154	-0.117	-0.151
-63.363	407.676	0.048	-0.100
-62.349	5.308	0.028	0.020
-61.334	65.583	-1.118	-1.109
-60.319	235.996	0.227	0.367
-59.305	-200.000	-0.221	-1.133
-58.290	319.982	0.644	1.197
-57.276	280.790	0.840	1.471
-56.261	-200.000	103.230	615.917
-55.246	526.146	1474.308	3400.451
-54.232	181.678	2668.318	3845.659
-53.217	115.074	2150.871	2570.638
-52.203	42.402	1589.998	1415.677
-51.188	33.899	1323.380	1128.039
-50.173	30.659	1282.600	1074.551
-49.159	54.470	1335.950	1260.272
-48.144	55.479	1351.926	1281.235
-47.130	33.858	1307.389	1113.987
-46.115	30.406	1289.455	1078.654
-45.100	30.177	1284.991	1073.549
-44.086	30.173	1282.280	1071.220
-43.071	30.029	1280.078	1068.511
-42.057	30.127	1277.679	1067.030
-41.042	30.132	1276.198	1065.780
-40.027	30.139	1274.908	1064.696
-39.013	30.139	1272.860	1062.948
-37.998	30.213	1271.298	1062.021
-36.984	30.172	1269.659	1060.377
-35.969	30.220	1267.659	1058.937
-34.954	30.292	1266.074	1057.982
-33.940	30.259	1264.894	1056.768
-32.925	30.195	1264.108	1055.703
-31.911	30.307	1261.657	1054.253
-30.896	30.307	1260.639	1053.359
-29.881	30.430	1259.289	1052.887
-28.867	30.395	1258.095	1051.650
-27.852	30.315	1256.538	1049.855
-26.838	30.332	1255.228	1048.814
-25.823	30.383	1253.457	1047.576
-24.809	30.344	1252.423	1046.454
-23.794	30.365	1250.913	1045.266
-22.779	30.333	1249.993	1044.278
-21.765	30.345	1248.451	1043.014
-20.750	30.242	1247.522	1041.618
-19.736	30.360	1245.791	1040.795
-18.721	30.271	1244.510	1039.187
-17.706	30.236	1243.907	1038.446
-16.692	30.133	1242.558	1036.700
-15.677	30.131	1241.922	1036.118
-14.663	30.268	1240.098	1035.322
-13.648	30.224	1239.239	1034.318
-12.633	30.273	1237.900	1033.431
-11.619	30.160	1237.764	1032.644
-10.604	30.181	1237.063	1032.138
-9.590	30.241	1235.898	1031.460
-8.575	30.220	1234.885	1030.455
-7.560	30.030	1234.242	1028.825
-6.546	30.225	1232.903	1028.746
-5.531	30.197	1232.140	1027.915
-4.517	30.099	1231.570	1026.854
-3.502	30.160	1230.598	1026.343
-2.487	30.223	1229.362	1025.621
-1.473	30.110	1225.737	1021.929
-0.458	28.631	1210.564	1001.179
0.556	22.876	1192.645	962.829
1.571	19.161	1197.839	946.553
2.586	18.438	1211.761	953.449
3.600	18.054	1201.285	943.005
4.615	13.192	1130.173	861.802
5.629	4.196	1055.918	761.105
6.644	-0.088	1036.032	726.036
7.659	-0.200	1033.215	723.455
8.673	-0.435	1032.740	721.928
9.688	-0.546	1031.466	720.441
10.702	-0.000	1029.495	721.618
11.717	5.687	1037.676	754.742
12.731	14.859	1049.878	808.075
13.746	18.745	1055.227	830.961
14.761	19.437	1056.024	834.866
15.775	19.584	1054.868	834.590
16.790	19.283	1054.131	832.477
17.804	19.134	1053.732	831.369
18.819	19.284	1052.973	831.423
19.834	19.318	1052.693	831.291
20.848	19.373	1052.110	831.020
21.863	19.376	1051.770	830.693
22.877	19.197	1051.086	829.218
23.892	19.132	1050.819	828.623
24.907	19.371	1049.803	828.897
25.921	19.462	1048.313	828.083
26.936	19.351	1046.915	826.375
27.950	19.226	1045.816	824.832
28.965	19.129	1043.917	822.798
29.980	19.081	1042.418	821.316
30.994	19.545	1040.900	822.261
32.009	19.347	1039.985	820.521
33.023	19.312	1038.042	818.750
34.038	19.364	1037.832	818.760
35.053	19.467	1037.104	818.598
36.067	19.445	1036.084	817.616
37.082	19.477	1035.549	817.274
38.096	19.599	1034.628	817.050
39.111	19.738	1033.558	816.793
40.126	19.477	1032.581	814.715
41.140	19.206	1030.487	811.715
42.155	19.092	1028.990	809.930
43.169	19.120	1028.295	809.440
44.184	19.221	1027.116	808.915
45.199	19.118	1025.787	807.316
46.213	19.042	1025.037	806.298
47.228	19.045	1024.476	805.797
48.242	19.393	1022.650	805.917
49.257	19.337	1022.449	805.425
50.271	19.368	1021.642	804.861
51.286	19.454	1020.979	804.671
52.301	19.445	1019.932	803.735
53.315	19.322	1018.988	802.345
54.330	19.371	1018.081	801.788
55.344	19.453	1016.741	801.043
56.359	19.296	1016.367	799.948
57.374	19.223	1014.959	798.432
58.388	19.375	1014.187	798.458
59.403	19.175	1013.683	797.065
60.417	18.948	1012.647	795.128
61.432	18.966	1011.915	794.565
62.447	19.205	1011.518	795.287
63.461	19.286	1010.343	794.667
64.476	19.260	1009.124	793.518
65.490	19.011	1008.519	791.829
66.505	19.178	1007.832	791.987
67.520	19.199	1007.098	791.433
68.534	19.018	1005.801	789.517
69.549	18.755	1004.761	787.424
70.563	18.912	1003.975	787.458
71.578	18.844	1002.716	786.088
72.593	18.677	1002.583	785.150
73.607	18.763	1001.906	784.943
74.622	19.240	1001.170	786.476
75.636	19.047	1000.770	785.213
76.651	18.932	999.590	783.691
77.666	18.802	998.961	782.538
78.680	19.081	997.808	782.832
79.695	19.014	997.756	782.421
80.709	19.151	996.860	782.268
81.724	19.088	996.024	781.260
82.739	19.214	995.112	781.045
83.753	19.482	994.858	781.990
84.768	19.548	993.520	781.169
85.782	19.695	992.918	781.293
86.797	19.492	991.912	779.513
87.812	19.475	990.635	778.363
88.826	19.486	990.010	777.856
89.841	19.556	988.824	777.169
90.855	19.685	987.486	776.630
91.870	19.620	986.803	775.732
92.884	19.393	985.871	773.911
93.899	19.342	984.761	772.743
94.914	19.569	984.142	773.203
95.928	19.425	982.709	771.367
96.943	19.177	981.871	769.532
97.957	18.977	980.385	767.408
98.972	18.815	979.426	765.867
99.987	19.141	978.600	766.607
101.001	19.285	978.035	766.737
102.016	19.327	977.028	766.064
103.030	19.232	976.344	765.041
104.045	18.947	975.183	762.797
105.060	18.865	973.931	761.388
106.074	18.983	973.720	761.676
107.089	19.533	972.894	763.398
108.103	19.392	972.092	762.076
109.118	19.204	970.546	759.969
110.133	19.312	969.542	759.593
111.147	19.076	968.144	757.390
112.162	18.939	967.351	756.099
113.176	19.181	966.325	756.295
114.191	19.063	965.431	755.011
115.206	18.803	964.245	752.878
116.220	18.705	964.030	752.211
117.235	18.835	963.433	752.252
118.249	19.004	961.476	751.392
119.264	18.849	961.077	750.336
120.279	18.991	960.131	750.155
121.293	19.056	959.532	749.903
122.308	19.000	959.142	749.284
123.322	19.002	957.299	747.790
124.337	18.993	956.157	746.793
125.352	18.407	954.354	742.780
126.366	18.273	953.696	741.621
127.381	19.007	953.043	744.223
128.395	19.368	952.642	745.405
129.410	19.413	951.692	744.790
130.424	19.464	950.471	743.986
131.439	19.350	949.414	742.602
132.454	19.353	948.835	742.099
133.468	19.250	948.197	741.092
134.483	19.553	947.101	741.468
135.497	19.577	946.500	741.037
136.512	19.610	945.344	740.208
137.527	19.721	944.173	739.700
138.541	19.711	943.440	739.018
139.556	19.535	943.036	737.884
140.570	19.527	942.071	737.028
141.585	19.554	941.310	736.484
142.600	19.599	939.925	735.527
143.614	19.795	938.957	735.539
144.629	19.720	938.824	735.049
145.643	19.795	937.206	734.038
146.658	19.688	936.218	732.743
147.673	19.433	935.179	730.787
148.687	19.421	934.441	730.092
149.702	19.359	933.220	728.815
150.716	19.405	932.248	728.184
151.731	19.695	931.394	728.676
152.746	19.870	931.109	729.127
153.760	19.806	931.002	728.706
154.775	19.801	929.942	727.790
155.789	19.667	929.504	726.821
156.804	19.668	928.307	725.826
157.819	19.861	927.270	725.762
158.833	19.873	926.373	725.045
159.848	19.776	925.563	723.940
160.862	19.643	924.607	722.571
161.877	19.870	923.143	722.310
162.892	19.878	922.480	721.763
163.906	19.831	921.596	720.811
164.921	19.740	921.292	720.131
165.935	19.824	920.285	719.628
166.950	19.890	918.976	718.816
167.964	19.641	918.367	717.240
168.979	19.653	917.383	716.460
169.994	19.628	916.228	715.392
171.008	19.885	915.805	716.059
172.023	19.802	915.039	715.056
173.037	19.544	914.206	713.277
174.052	19.556	912.998	712.318
175.067	19.578	912.401	711.883
176.081	19.638	912.146	711.867
177.096	19.802	910.877	711.489
178.110	19.355	910.276	709.117
179.125	19.187	909.280	707.591
180.140	19.264	909.270	707.836
181.154	19.399	908.988	708.108
182.169	19.670	908.660	708.903
183.183	19.671	908.273	708.541
184.198	19.670	907.364	707.763
185.213	19.737	906.299	707.144
186.227	19.873	905.598	707.093
187.242	19.844	904.914	706.379
188.256	19.771	904.432	705.642
189.271	19.909	903.211	705.188
190.286	19.549	902.680	703.244
191.300	19.113	901.264	700.305
192.315	18.552	899.502	696.594
193.329	18.471	899.279	696.031
194.344	19.271	899.575	699.446
195.359	19.646	899.455	700.815
196.373	19.735	898.960	700.726
197.388	19.598	898.028	699.385
198.402	19.596	897.573	698.961
199.417	19.575	896.668	698.110
200.432	19.349	896.047	696.650
201.446	19.089	895.155	694.845
202.461	19.325	893.946	694.799
203.475	18.169	892.581	689.021
204.490	17.685	891.760	686.377
205.504	18.649	891.806	690.233
206.519	19.376	891.559	692.903
207.534	19.380	891.076	692.479
208.548	19.669	891.120	693.616
209.563	19.412	890.340	691.913
210.577	19.373	889.655	691.166
211.592	19.865	889.185	692.710
212.607	19.901	887.883	691.775
213.621	19.895	887.480	691.380
214.636	19.899	886.909	690.888
215.650	19.777	885.969	689.607
216.665	19.953	885.791	690.111
217.680	19.713	884.643	688.199
218.694	19.456	883.672	686.361
219.709	19.120	883.195	684.593
220.723	19.625	882.370	685.899
221.738	19.840	881.689	686.163
222.753	19.760	880.819	685.108
223.767	19.826	880.440	685.015
224.782	19.836	880.318	684.898
225.796	19.957	879.425	684.622
226.811	19.319	878.027	680.952
227.826	18.762	876.736	677.694
228.840	19.052	876.296	678.439
229.855	19.035	875.866	677.978
230.869	18.681	874.729	675.644
231.884	18.911	874.808	676.550
232.899	19.679	874.785	679.494
233.913	19.657	874.073	678.795
234.928	19.700	873.132	678.172
235.942	19.668	872.596	677.569
236.957	19.405	871.727	675.806
237.972	19.287	871.214	674.888
238.986	19.610	870.361	675.428
240.001	19.495	869.860	674.530
241.015	19.668	869.390	674.781
242.030	19.802	868.887	674.853
243.045	19.666	868.440	673.917
244.059	19.843	867.718	673.986
245.074	19.671	866.690	672.460
246.088	19.261	865.836	670.145
247.103	19.574	865.473	671.020
248.117	20.250	865.025	673.237
249.132	20.317	864.786	673.253
250.147	20.319	864.142	672.699
251.161	20.555	863.537	673.080
252.176	20.455	863.008	672.222
253.190	20.412	862.520	671.618
254.205	20.562	862.172	671.867
255.220	20.575	861.308	671.185
256.234	20.383	860.695	669.905
257.249	20.319	859.913	668.993
258.263	20.280	859.207	668.235
259.278	20.497	858.476	668.438
260.293	20.616	857.862	668.359
261.307	20.323	857.362	666.785
262.322	20.295	856.261	665.762
263.336	19.461	853.926	660.699
264.351	18.458	852.329	655.566
265.366	18.686	852.005	656.131
266.380	19.685	853.094	660.734
267.395	20.139	852.647	662.063
268.409	19.900	852.167	660.720
269.424	20.361	851.579	661.964
270.439	20.327	850.850	661.211
271.453	20.378	850.390	660.989
272.468	20.421	850.215	660.956
273.482	20.693	849.331	661.246
274.497	20.345	847.650	658.559
275.512	19.868	847.086	656.253
276.526	20.287	847.225	657.892
277.541	20.469	846.335	657.832
278.555	20.028	846.008	655.851
279.570	19.982	844.637	654.556
280.585	20.189	844.153	654.905
281.599	20.129	843.455	654.079
282.614	19.655	841.975	651.085
283.628	19.599	841.867	650.733
284.643	20.013	841.394	651.868
285.657	19.641	840.438	649.672
286.672	19.419	840.113	648.529
287.687	20.083	839.669	650.623
288.701	19.979	839.199	649.810
289.716	19.614	838.125	647.555
290.730	19.742	837.620	647.586
291.745	19.467	836.393	645.553
292.760	19.665	836.470	646.293
293.774	20.701	836.677	650.269
294.789	20.846	836.493	650.612
295.803	20.925	835.724	650.252
296.818	21.073	835.168	650.314
297.833	20.508	834.253	647.437
298.847	20.424	833.876	646.777
299.862	20.714	833.557	647.550
300.876	20.961	833.098	648.056
301.891	20.800	832.356	646.822
302.906	20.266	831.293	643.956
303.920	20.396	830.899	644.078
304.935	20.757	830.557	645.094
305.949	20.797	829.886	644.662
306.964	20.569	828.705	642.847
307.979	20.684	828.599	643.132
308.993	21.026	828.665	644.390
310.008	20.953	827.810	643.401
311.022	20.736	827.154	642.033
312.037	20.465	827.181	640.998
313.052	20.580	825.409	639.989
314.066	19.646	824.385	635.703
315.081	19.428	823.702	634.320
316.095	20.147	824.308	637.376
317.110	20.555	823.929	638.525
318.125	19.844	822.562	634.801
319.139	18.943	821.500	630.621
320.154	18.948	820.785	630.035
321.168	19.891	820.655	633.334
322.183	20.331	821.049	635.191
323.197	20.446	820.735	635.313
324.212	20.708	820.157	635.765
325.227	20.730	819.590	635.352
326.241	20.665	818.961	634.569
327.256	20.590	818.449	633.843
328.270	20.399	817.733	632.535
329.285	20.257	816.977	631.379
330.300	20.121	816.286	630.295
331.314	20.448	815.566	630.873
332.329	20.716	815.402	631.663
333.343	20.834	815.082	631.786
334.358	20.811	814.612	631.282
335.373	20.813	814.635	631.252
336.387	21.056	814.320	631.832
337.402	21.102	814.498	632.081
338.416	20.998	813.570	630.926
339.431	21.197	813.246	631.342
340.446	21.251	813.289	631.515
341.460	21.198	812.447	630.611
342.475	21.080	811.674	629.532
343.489	21.212	811.041	629.461
344.504	21.382	811.383	630.281
345.519	21.364	811.186	630.009
346.533	21.581	810.301	630.046
347.548	21.555	809.748	629.468
348.562	21.434	809.461	628.755
349.577	21.380	808.891	628.063
350.592	21.711	808.019	628.518
351.606	21.633	807.099	627.465
352.621	21.411	806.382	626.058
353.635	21.299	805.482	624.902
354.650	20.637	804.289	621.556
355.665	19.782	802.818	617.314
356.679	20.101	803.017	618.551
357.694	20.690	802.277	620.026
358.708	20.694	801.713	619.553
359.723	20.813	801.719	619.926
360.738	21.253	801.180	621.016
361.752	21.363	800.877	621.119
362.767	21.548	800.491	621.422
363.781	21.720	799.905	621.521
364.796	21.819	799.342	621.381
365.810	21.946	799.020	621.526
366.825	21.923	798.630	621.083
367.840	21.607	798.071	619.478
368.854	21.155	797.024	617.013
369.869	21.218	796.905	617.088
370.883	21.336	796.333	617.006
371.898	21.153	796.025	616.068
372.913	21.281	795.794	616.287
373.927	21.407	795.326	616.314
374.942	21.541	794.951	616.441
375.956	21.534	794.443	615.968
376.971	21.727	793.936	616.198
377.986	21.824	793.711	616.309
379.000	21.719	793.262	615.539
380.015	21.670	792.428	614.665
381.029	21.759	791.905	614.516
382.044	21.855	791.909	614.804
383.059	21.790	791.268	614.021
384.073	21.864	790.414	613.565
385.088	21.778	790.241	613.076
386.102	21.725	789.113	611.961
387.117	21.777	788.617	611.703
388.132	21.344	787.569	609.328
389.146	20.841	786.907	607.007
390.161	21.203	786.890	608.204
391.175	21.441	786.475	608.657
392.190	21.234	785.388	607.043
393.205	20.138	783.522	601.743
394.219	18.603	782.004	595.201
395.234	18.840	781.728	595.763
396.248	20.272	783.199	601.800
397.263	21.677	783.593	606.920
398.278	21.660	783.486	606.724
399.292	21.273	782.969	604.931
400.307	21.382	782.531	604.916
401.321	21.330	782.355	604.550
402.336	21.702	781.759	605.319
403.350	21.965	781.748	606.165
404.365	22.036	781.825	606.416
405.380	22.386	781.186	607.074
406.394	22.506	780.627	607.002
407.409	22.372	779.912	605.929
408.423	22.403	779.662	605.788
409.438	22.381	779.051	605.185
410.453	22.587	778.670	605.542
411.467	22.349	778.574	604.596
412.482	22.399	778.026	604.291
413.496	22.639	777.594	604.723
414.511	22.419	777.330	603.710
415.526	22.549	776.505	603.461
416.540	22.304	775.836	602.051
417.555	22.176	775.028	600.931
418.569	22.349	774.563	601.108
419.584	22.140	774.290	600.130
420.599	21.989	773.617	599.041
421.613	159.784	1360.593	1798.967
422.628	137.977	1446.088	1799.070
