DTS Sentinel unit serial number:	SN413079Multiplexer serial number:	ORYXHardware model number:	OX4-SRSoftware version number:	ORYX F/W v4.00 Oryx Data Collector v3.7.2.0data status	okinstallation	princeton_trtdifferential loss correction	single-endedforward channel	channel 1reverse channel	N/Adate	2019/09/11time	23:04:11forward acquisition time	60.00reverse acquisition time	0.00gamma	496.2192k internal	0.2317k external	0.2317temperature offset calibration	1.0058default loss term (dB/km)	0.3790temperature slope calibration	1.0000multiplexer offset coefficient	1.0000multiplexer slope coefficient	1.0000fibre end	0.00T internal ref (°C)	34.56T ext. ref 1 (°C)	1.83T ext. ref 2 (°C)	29.31length (m)	temperature (°C)	Stokes	anti-Stokes-747.200	-59.010	-0.202	0.089
-746.185	614.192	0.139	0.352
-745.171	800.000	0.073	-0.309
-744.156	755.086	0.113	0.310
-743.142	62.624	-0.108	0.109
-742.127	-200.000	-0.031	-0.362
-741.112	-48.311	-0.168	-0.082
-740.098	-6.704	-0.246	0.169
-739.083	216.162	0.042	-0.068
-738.069	-200.000	0.016	0.466
-737.054	-145.809	-0.163	0.015
-736.039	-22.399	0.098	0.060
-735.025	25.954	0.111	0.094
-734.010	-83.140	-0.209	0.068
-732.996	154.249	-0.200	0.278
-731.981	-64.728	-0.243	-0.100
-730.966	-116.558	-0.188	0.035
-729.952	-137.987	-0.253	-0.029
-728.937	-123.859	-0.254	-0.041
-727.923	800.000	0.047	0.136
-726.908	-99.407	-0.311	-0.079
-725.894	39.693	-0.176	-0.160
-724.879	86.189	-0.042	-0.046
-723.864	341.809	-0.016	-0.031
-722.850	-200.000	0.001	-0.380
-721.835	800.000	0.031	0.110
-720.821	0.483	-0.264	0.191
-719.806	-149.078	0.238	-0.019
-718.791	-88.935	-0.341	-0.102
-717.777	-32.362	0.233	0.131
-716.762	-11.604	-0.073	-0.049
-715.748	-30.550	-0.223	0.128
-714.733	89.545	-0.181	0.205
-713.718	-119.965	-0.098	-0.017
-712.704	61.892	-0.213	-0.214
-711.689	125.760	-0.032	0.040
-710.675	-37.427	0.271	0.147
-709.660	233.490	0.152	-0.254
-708.645	-62.257	0.083	0.035
-707.631	800.000	0.106	0.464
-706.616	258.938	0.064	-0.112
-705.602	736.691	0.097	0.262
-704.587	-142.872	-0.210	-0.021
-703.572	-76.209	0.161	-0.057
-702.558	-200.000	0.003	0.072
-701.543	456.161	-0.010	0.022
-700.529	800.000	0.075	0.307
-699.514	-1.947	-0.347	0.246
-698.499	11.714	-0.105	0.082
-697.485	-97.201	0.250	0.066
-696.470	-200.000	0.013	-0.205
-695.456	172.234	-0.176	0.256
-694.441	212.315	-0.264	0.421
-693.426	0.703	-0.113	0.081
-692.412	-200.000	-0.016	0.078
-691.397	-59.276	-0.202	0.088
-690.383	-62.505	-0.332	0.140
-689.368	800.000	0.073	0.268
-688.354	-61.338	-0.353	-0.150
-687.339	-148.248	-0.366	0.031
-686.324	262.585	-0.172	-0.301
-685.310	301.899	0.080	0.150
-684.295	-157.716	-0.222	-0.013
-683.281	25.409	-0.176	0.148
-682.266	-200.000	0.004	-0.019
-681.251	800.000	-0.031	-0.104
-680.237	800.000	-0.034	0.101
-679.222	-139.234	-0.136	0.015
-678.208	-200.000	-0.008	-0.053
-677.193	-129.963	-0.169	-0.023
-676.178	65.442	-0.201	0.206
-675.164	51.244	-0.036	0.034
-674.149	800.000	0.107	0.468
-673.135	-56.507	0.297	-0.133
-672.120	-25.604	0.199	-0.118
-671.105	110.386	-0.149	-0.181
-670.091	779.721	0.037	0.101
-669.076	225.343	-0.150	0.246
-668.062	-106.808	0.077	0.017
-667.047	548.406	-0.127	-0.307
-666.032	193.397	0.028	-0.043
-665.018	800.000	-0.056	0.159
-664.003	800.000	0.041	0.138
-662.989	516.414	0.050	-0.118
-661.974	-164.160	-0.182	-0.008
-660.959	-145.473	0.049	-0.004
-659.945	-137.852	-0.227	0.026
-658.930	-200.000	0.037	0.204
-657.916	208.656	0.101	0.159
-656.901	-200.000	0.008	-0.039
-655.886	-23.666	0.269	-0.163
-654.872	-29.184	0.030	-0.017
-653.857	-200.000	-0.015	0.249
-652.843	-111.394	-0.153	-0.031
-651.828	531.010	-0.099	0.235
-650.814	-200.000	0.012	-0.069
-649.799	-50.994	-0.078	-0.037
-648.784	-87.232	-0.296	-0.091
-647.770	-200.000	0.002	-0.240
-646.755	800.000	-0.187	-0.589
-645.741	-200.000	0.026	-0.258
-644.726	164.942	-0.063	-0.090
-643.711	-131.525	-0.222	0.030
-642.697	26.886	-0.089	0.075
-641.682	-4.892	0.090	0.063
-640.668	-200.000	0.002	-0.228
-639.653	800.000	0.037	0.113
-638.638	800.000	0.045	0.144
-637.624	-46.317	0.237	-0.117
-636.609	-200.000	0.011	0.076
-635.595	637.865	0.107	0.274
-634.580	-200.000	-0.005	0.393
-633.565	-53.921	0.318	0.146
-632.551	35.022	-0.136	-0.120
-631.536	784.297	-0.114	-0.315
-630.522	41.935	0.209	0.191
-629.507	-2.100	-0.359	0.254
-628.492	-41.652	0.184	0.095
-627.478	229.029	0.076	-0.125
-626.463	-200.000	-0.030	-0.240
-625.449	800.000	0.049	-0.151
-624.434	52.355	0.046	-0.045
-623.419	83.333	-0.149	-0.163
-622.405	156.362	0.027	-0.038
-621.390	-122.128	0.260	-0.043
-620.376	180.489	0.372	0.550
-619.361	-23.355	-0.149	0.090
-618.346	-84.262	0.192	0.061
-617.332	-130.514	0.061	-0.008
-616.317	-115.794	-0.167	-0.031
-615.303	-24.391	-0.167	-0.101
-614.288	266.258	-0.070	-0.123
-613.273	158.353	-0.090	0.126
-612.259	-146.088	0.309	-0.027
-611.244	-200.000	-0.008	-0.053
-610.230	-18.271	-0.238	-0.150
-609.215	165.451	0.115	0.163
-608.201	800.000	0.064	-0.268
-607.186	-29.810	0.307	0.177
-606.171	575.306	-0.130	-0.321
-605.157	73.573	0.244	0.257
-604.142	-22.101	-0.175	-0.107
-603.128	-99.175	0.218	-0.055
-602.113	-200.000	0.046	-0.441
-601.098	-200.000	0.055	-0.326
-600.084	-123.508	0.226	0.036
-599.069	12.242	0.436	0.338
-598.055	-78.562	0.278	-0.096
-597.040	-26.952	0.147	0.086
-596.025	-200.000	-0.032	0.527
-595.011	51.133	-0.109	0.104
-593.996	-66.868	-0.212	0.084
-592.982	76.492	0.120	0.128
-591.967	-200.000	-0.017	-0.189
-590.952	601.676	-0.058	-0.144
-589.938	-2.431	-0.087	0.061
-588.923	610.091	-0.033	0.084
-587.909	-200.000	-0.028	0.196
-586.894	598.799	0.028	-0.071
-585.879	-122.864	-0.287	0.047
-584.865	800.000	-0.056	0.197
-583.850	222.473	-0.170	-0.275
-582.836	-47.104	0.163	0.080
-581.821	-155.810	-0.265	0.017
-580.806	0.979	0.287	-0.207
-579.792	105.994	-0.106	-0.126
-578.777	800.000	-0.090	0.288
-577.763	-13.930	0.073	-0.048
-576.748	-60.264	0.333	0.143
-575.733	-27.463	-0.103	0.060
-574.719	-73.295	-0.076	-0.028
-573.704	-61.418	-0.239	-0.101
-572.690	-200.000	0.011	-0.232
-571.675	-32.398	-0.363	-0.204
-570.661	266.914	-0.028	0.049
-569.646	716.598	0.095	-0.254
-568.631	-200.000	-0.000	0.252
-567.617	-106.283	0.349	0.079
-566.602	672.574	-0.076	0.199
-565.588	-6.285	-0.138	0.095
-564.573	221.039	-0.245	-0.395
-563.558	-20.480	-0.103	-0.064
-562.544	179.286	-0.129	-0.189
-561.529	-62.617	-0.496	-0.207
-560.515	18.585	-0.113	-0.091
-559.500	167.073	-0.159	0.227
-558.485	110.290	0.031	-0.037
-557.471	141.986	0.069	0.092
-556.456	120.327	-0.107	-0.134
-555.442	10.972	0.089	0.068
-554.427	-128.769	-0.383	0.054
-553.412	405.756	0.095	0.202
-552.398	-200.000	-0.002	0.280
-551.383	52.274	-0.295	-0.282
-550.369	130.016	0.077	-0.099
-549.354	534.292	0.100	0.238
-548.339	-80.006	-0.028	-0.009
-547.325	-138.628	-0.074	-0.008
-546.310	800.000	0.012	0.047
-545.296	360.202	0.017	0.035
-544.281	204.301	0.129	0.200
-543.266	-21.778	0.222	-0.136
-542.252	-69.817	-0.376	-0.144
-541.237	123.304	0.244	-0.308
-540.223	446.135	-0.021	-0.047
-539.208	-200.000	-0.007	-0.538
-538.193	-15.813	-0.157	-0.100
-537.179	294.920	0.110	0.202
-536.164	-49.049	-0.477	-0.229
-535.150	-200.000	-0.026	0.130
-534.135	-82.864	-0.057	0.018
-533.121	-133.872	0.122	-0.015
-532.106	-124.649	-0.303	-0.047
-531.091	-55.727	-0.101	-0.045
-530.077	-106.262	-0.247	0.055
-529.062	178.535	-0.046	0.068
-528.048	-66.819	-0.089	0.035
-527.033	-132.441	0.025	0.003
-526.018	45.736	-0.070	-0.065
-525.004	-119.129	0.366	-0.064
-523.989	-200.000	-0.047	0.264
-522.975	6.464	0.111	0.082
-521.960	607.467	0.090	-0.225
-520.945	81.904	0.060	-0.065
-519.931	800.000	0.094	-0.354
-518.916	221.999	-0.108	0.175
-517.902	800.000	-0.037	0.134
-516.887	-171.800	-0.085	0.003
-515.872	-95.783	0.108	0.029
-514.858	129.953	-0.192	0.247
-513.843	-200.000	0.001	-0.294
-512.829	800.000	0.041	0.168
-511.814	25.128	0.154	0.128
-510.799	-200.000	0.016	0.151
-509.785	-111.750	-0.312	-0.063
-508.770	198.342	-0.090	-0.139
-507.756	98.831	-0.083	-0.096
-506.741	800.000	0.134	0.426
-505.726	-74.723	-0.084	-0.030
-504.712	73.031	-0.095	0.100
-503.697	-68.355	0.167	0.065
-502.683	-14.720	-0.155	0.100
-501.668	-117.468	-0.480	0.087
-500.653	-200.000	-0.040	-0.314
-499.639	800.000	0.055	-0.164
-498.624	458.222	-0.045	0.101
-497.610	84.426	0.170	-0.186
-496.595	-148.029	-0.318	0.027
-495.581	-151.311	-0.192	0.014
-494.566	-59.665	-0.164	-0.071
-493.551	-123.460	0.125	-0.020
-492.537	-34.876	0.316	-0.173
-491.522	-91.155	0.068	-0.019
-490.508	262.109	-0.152	-0.263
-489.493	-61.166	0.222	0.094
-488.478	1.480	0.025	0.018
-487.464	-153.535	-0.244	-0.017
-486.449	-33.871	0.194	-0.107
-485.435	18.368	0.275	0.220
-484.420	-200.000	-0.021	0.222
-483.405	-147.862	-0.032	0.003
-482.391	-23.288	0.217	0.131
-481.376	-200.000	-0.039	0.290
-480.362	-187.993	-0.399	0.005
-479.347	-93.245	-0.094	-0.026
-478.332	800.000	0.111	-0.385
-477.318	35.364	0.213	0.188
-476.303	175.774	0.087	0.126
-475.289	97.221	0.130	0.149
-474.274	-200.000	0.046	-0.233
-473.259	-9.599	-0.228	-0.153
-472.245	-82.552	0.070	0.023
-471.230	22.210	-0.089	-0.073
-470.216	71.627	0.222	-0.231
-469.201	-200.000	-0.062	-0.317
-468.186	-137.149	-0.196	0.022
-467.172	46.547	-0.192	0.178
-466.157	201.546	-0.112	-0.173
-465.143	-114.060	0.041	0.008
-464.128	-200.000	0.038	-0.278
-463.113	42.137	0.096	-0.088
-462.099	16.396	-0.124	-0.098
-461.084	800.000	0.120	-0.459
-460.070	242.511	0.094	0.157
-459.055	34.339	0.086	-0.075
-458.040	-200.000	0.031	-0.406
-457.026	800.000	-0.044	0.182
-456.011	800.000	0.105	-0.433
-454.997	-200.000	0.043	0.223
-453.982	-48.116	0.094	-0.045
-452.968	81.026	-0.147	-0.159
-451.953	61.883	-0.260	-0.260
-450.938	101.584	0.149	-0.173
-449.924	32.908	0.131	-0.114
-448.909	102.667	0.212	0.249
-447.895	60.170	-0.180	-0.178
-446.880	-151.157	-0.310	0.023
-445.865	-39.943	0.217	0.113
-444.851	-57.157	-0.485	0.214
-443.836	343.232	0.111	0.218
-442.822	800.000	-0.067	0.261
-441.807	800.000	-0.169	0.516
-440.792	800.000	0.079	0.321
-439.778	163.709	-0.107	-0.151
-438.763	-118.041	-0.169	0.030
-437.749	8.260	-0.142	-0.107
-436.734	-26.098	-0.198	0.117
-435.719	-143.210	0.089	0.009
-434.705	-200.000	0.043	-0.263
-433.690	-11.426	-0.043	0.028
-432.676	178.737	-0.076	0.112
-431.661	800.000	0.118	0.369
-430.646	44.003	-0.038	0.035
-429.632	-57.256	0.106	0.047
-428.617	800.000	0.079	0.322
-427.603	-41.831	-0.085	0.043
-426.588	49.954	-0.069	0.065
-425.573	101.213	0.090	-0.105
-424.559	-120.866	0.062	0.011
-423.544	209.794	0.091	-0.143
-422.530	800.000	0.047	-0.161
-421.515	-84.160	0.283	-0.090
-420.500	-200.000	-0.044	0.245
-419.486	222.919	0.094	-0.151
-418.471	8.169	0.091	0.068
-417.457	800.000	0.057	0.185
-416.442	88.093	-0.075	0.083
-415.428	-178.848	0.123	0.003
-414.413	-11.993	-0.125	0.082
-413.398	359.755	-0.127	-0.254
-412.384	-97.393	-0.107	-0.028
-411.369	82.620	0.128	-0.139
-410.355	116.653	-0.052	0.064
-409.340	438.857	-0.102	0.224
-408.325	-17.846	-0.116	-0.073
-407.311	111.868	0.183	-0.221
-406.296	-109.753	-0.195	-0.041
-405.282	73.947	-0.114	0.119
-404.267	-200.000	-0.018	-0.230
-403.252	-200.000	-0.057	0.255
-402.238	53.311	-0.378	0.361
-401.223	-60.576	-0.088	-0.037
-400.209	800.000	0.014	-0.054
-399.194	-25.074	0.279	0.165
-398.179	126.977	-0.290	-0.367
-397.165	-52.662	0.188	0.087
-396.150	51.771	0.299	0.284
-395.136	-200.000	0.005	-0.419
-394.121	-7.865	-0.086	-0.058
-393.106	49.506	0.299	0.281
-392.092	-87.056	-0.269	-0.082
-391.077	319.872	-0.098	-0.186
-390.063	2.964	-0.182	0.132
-389.048	-99.638	0.399	-0.100
-388.033	-181.833	0.232	0.004
-387.019	-63.193	0.232	-0.096
-386.004	-200.000	-0.008	-0.193
-384.990	153.409	0.105	0.143
-383.975	588.506	0.113	-0.277
-382.960	-92.901	-0.465	-0.130
-381.946	71.868	0.082	-0.085
-380.931	-200.000	-0.037	-0.245
-379.917	-19.069	0.320	0.199
-378.902	2.891	-0.115	0.083
-377.888	-49.520	0.081	-0.039
-376.873	-94.269	-0.123	0.034
-375.858	34.975	-0.196	-0.171
-374.844	-84.704	0.270	-0.085
-373.829	-83.757	-0.257	-0.082
-372.815	52.749	0.085	0.081
-371.800	95.921	-0.169	0.192
-370.785	-139.224	-0.174	-0.019
-369.771	800.000	0.044	0.149
-368.756	-186.959	0.121	-0.002
-367.742	-200.000	0.011	-0.062
-366.727	156.115	0.059	-0.081
-365.712	-54.040	0.180	-0.082
-364.698	17.421	-0.150	0.119
-363.683	-140.960	-0.166	0.017
-362.669	-150.849	-0.032	-0.002
-361.654	36.680	-0.079	0.069
-360.639	396.579	0.033	0.068
-359.625	-200.000	-0.097	-0.428
-358.610	-8.128	0.058	-0.039
-357.596	800.000	0.077	-0.275
-356.581	-9.133	-0.173	0.116
-355.566	-49.542	-0.317	-0.151
-354.552	-126.403	-0.206	0.031
-353.537	-66.454	0.355	-0.140
-352.523	459.982	-0.093	-0.207
-351.508	-13.774	-0.026	0.017
-350.493	-48.661	-0.136	0.065
-349.479	-141.387	0.321	0.032
-348.464	16.945	-0.095	-0.075
-347.450	51.030	-0.217	0.205
-346.435	212.988	-0.194	0.305
-345.420	131.275	-0.223	0.286
-344.406	-4.075	0.109	-0.075
-343.391	-94.084	-0.182	0.050
-342.377	-77.385	0.197	-0.068
-341.362	-47.931	-0.182	0.088
-340.348	-61.664	0.135	0.057
-339.333	-61.851	0.108	0.045
-338.318	-200.000	0.003	0.099
-337.304	800.000	-0.018	0.065
-336.289	-200.000	-0.094	-0.421
-335.275	-200.000	-0.005	0.248
-334.260	40.183	0.194	-0.174
-333.245	-200.000	0.011	-0.215
-332.231	-200.000	0.022	-0.304
-331.216	-142.578	0.181	0.018
-330.202	-49.998	-0.173	0.082
-329.187	245.620	-0.155	0.261
-328.172	-19.997	-0.096	-0.059
-327.158	800.000	-0.093	-0.264
-326.143	65.366	-0.038	0.039
-325.129	-128.735	0.435	-0.061
-324.114	101.350	-0.063	0.073
-323.099	-200.000	-0.041	0.204
-322.085	-87.926	0.124	0.037
-321.070	-104.128	0.333	-0.077
-320.056	800.000	0.079	0.237
-319.041	68.182	0.128	0.130
-318.026	6.354	-0.233	-0.172
-317.012	69.386	0.245	-0.251
-315.997	189.876	0.090	0.134
-314.983	-178.998	-0.219	-0.005
-313.968	-200.000	0.033	0.154
-312.953	-156.538	0.070	-0.004
-311.939	-200.000	-0.019	0.157
-310.924	643.875	-0.030	-0.076
-309.910	300.414	0.153	0.281
-308.895	189.988	0.100	0.149
-307.880	800.000	-0.051	0.153
-306.866	-200.000	-0.013	0.199
-305.851	-56.239	-0.217	-0.096
-304.837	-94.715	0.194	-0.053
-303.822	-200.000	0.010	-0.084
-302.807	-200.000	-0.018	-0.349
-301.793	-127.298	-0.287	-0.042
-300.778	436.150	0.171	-0.371
-299.764	-3.617	0.202	0.140
-298.749	-1.908	-0.137	-0.096
-297.735	800.000	0.035	0.135
-296.720	252.857	0.247	-0.420
-295.705	108.440	-0.286	0.340
-294.691	386.686	0.062	0.127
-293.676	85.326	-0.086	-0.094
-292.662	-80.792	0.283	-0.094
-291.647	54.965	-0.091	0.087
-290.632	-58.993	0.343	-0.147
-289.618	231.584	-0.114	0.185
-288.603	-97.483	0.202	0.052
-287.589	-200.000	0.012	-0.296
-286.574	-108.161	0.115	-0.025
-285.559	335.099	-0.083	0.161
-284.545	-109.932	0.581	0.121
-283.530	-200.000	-0.063	0.291
-282.516	507.227	0.092	0.213
-281.501	-166.150	0.073	0.003
-280.486	50.273	0.083	0.078
-279.472	-200.000	-0.021	0.485
-278.457	-200.000	0.079	0.488
-277.443	-39.380	-0.206	-0.107
-276.428	-200.000	0.014	-0.099
-275.413	-200.000	0.008	0.369
-274.399	-69.147	0.334	0.128
-273.384	800.000	-0.141	0.556
-272.370	21.366	-0.084	0.068
-271.355	138.531	-0.068	-0.089
-270.340	-200.000	-0.036	0.175
-269.326	-171.654	-0.243	0.008
-268.311	-120.021	0.211	0.036
-267.297	270.396	0.095	0.165
-266.282	-4.802	-0.144	-0.099
-265.267	780.188	-0.033	0.091
-264.253	-60.322	0.200	0.084
-263.238	-167.551	0.169	-0.007
-262.224	-99.292	0.262	0.066
-261.209	-149.795	0.164	-0.013
-260.195	-200.000	-0.009	0.436
-259.180	-160.806	0.163	0.009
-258.165	-200.000	0.034	-0.156
-257.151	177.988	0.228	0.330
-256.136	-78.961	0.092	0.031
-255.122	290.511	0.146	0.263
-254.107	-2.019	-0.276	-0.192
-253.092	143.408	0.183	-0.242
-252.078	-200.000	-0.007	0.034
-251.063	481.370	0.047	0.107
-250.049	-123.084	-0.509	0.081
-249.034	-141.566	0.611	0.061
-248.019	642.869	-0.069	0.176
-247.005	496.183	0.064	-0.146
-245.990	-118.068	-0.068	-0.012
-244.976	14.614	-0.265	-0.205
-243.961	-200.000	-0.179	-0.000
-242.946	-200.000	-0.003	0.203
-241.932	-179.666	0.063	-0.001
-240.917	19.226	-0.071	0.056
-239.903	-65.544	0.047	0.019
-238.888	92.367	0.236	0.264
-237.873	-200.000	-0.032	-0.226
-236.859	67.177	0.178	0.180
-235.844	-176.077	0.091	-0.002
-234.830	594.193	-0.162	-0.397
-233.815	-200.000	0.004	-0.268
-232.800	4.370	-0.133	-0.096
-231.786	-26.423	0.142	-0.083
-230.771	-200.000	0.022	-0.125
-229.757	-200.000	-0.017	0.107
-228.742	17.533	0.382	-0.301
-227.727	27.270	-0.213	-0.178
-226.713	187.474	0.077	0.114
-225.698	-200.000	0.058	-0.268
-224.684	-21.606	0.162	-0.098
-223.669	12.687	0.064	0.049
-222.655	-59.012	-0.180	-0.077
-221.640	800.000	-0.083	0.348
-220.625	-113.880	0.253	0.049
-219.611	286.456	-0.111	-0.198
-218.596	800.000	0.137	-0.402
-217.582	14.375	-0.104	0.080
-216.567	-147.707	-0.347	0.029
-215.552	7.068	-0.328	0.243
-214.538	-200.000	-0.016	-0.074
-213.523	-165.715	-0.350	-0.015
-212.509	800.000	-0.014	-0.057
-211.494	-47.970	-0.169	0.081
-210.479	-200.000	0.034	-0.232
-209.465	-36.719	-0.018	-0.010
-208.450	-200.000	0.005	-0.173
-207.436	-200.000	0.015	-0.401
-206.421	37.817	0.164	-0.145
-205.406	130.718	-0.076	-0.097
-204.392	420.950	0.006	0.013
-203.377	-124.441	-0.054	0.008
-202.363	-200.000	0.021	0.135
-201.348	-116.326	-0.078	-0.014
-200.333	-29.663	-0.059	-0.034
-199.319	800.000	-0.054	0.218
-198.304	233.735	-0.161	0.262
-197.290	180.028	0.108	-0.157
-196.275	232.177	-0.255	-0.414
-195.260	165.942	0.211	-0.296
-194.246	800.000	0.135	0.437
-193.231	34.597	0.325	0.282
-192.217	-178.922	-0.177	0.004
-191.202	-200.000	-0.046	0.332
-190.187	-200.000	-0.029	0.397
-189.173	800.000	-0.134	0.406
-188.158	207.738	0.249	0.385
-187.144	54.723	-0.050	-0.048
-186.129	-2.915	0.087	0.060
-185.114	-101.573	-0.231	-0.056
-184.100	421.754	-0.103	0.219
-183.085	26.372	-0.232	0.192
-182.071	-200.000	0.021	-0.112
-181.056	-97.752	0.265	-0.068
-180.042	437.202	0.055	0.118
-179.027	50.255	-0.182	-0.170
-178.012	55.980	0.055	0.053
-176.998	0.415	0.093	-0.066
-175.983	360.039	0.096	0.190
-174.969	-99.611	0.309	0.077
-173.954	-106.059	0.205	0.046
-172.939	-200.000	-0.069	-0.310
-171.925	-63.474	-0.095	0.039
-170.910	800.000	0.147	-0.489
-169.896	-20.166	-0.194	0.118
-168.881	627.245	0.106	0.265
-167.866	-200.000	-0.019	0.179
-166.852	-102.825	0.193	0.045
-165.837	800.000	0.083	-0.314
-164.823	-145.993	0.442	-0.039
-163.808	69.261	-0.212	0.216
-162.793	125.283	0.159	-0.198
-161.779	-138.073	0.163	-0.018
-160.764	-200.000	0.004	0.034
-159.750	401.101	-0.241	-0.500
-158.735	-133.306	0.175	-0.022
-157.720	-200.000	-0.039	0.259
-156.706	305.912	0.087	-0.161
-155.691	-200.000	0.058	0.306
-154.677	-4.560	-0.117	0.080
-153.662	-200.000	-0.010	-0.267
-152.647	100.255	-0.047	-0.054
-151.633	383.126	0.104	-0.212
-150.618	243.107	-0.054	0.089
-149.604	511.295	0.053	-0.123
-148.589	-200.000	-0.025	0.239
-147.574	-124.500	0.183	-0.028
-146.560	-65.425	0.104	0.041
-145.545	800.000	0.078	0.313
-144.531	-200.000	0.043	0.215
-143.516	364.461	-0.170	-0.338
-142.502	-200.000	-0.015	0.244
-141.487	426.634	0.078	0.166
-140.472	-83.631	-0.225	-0.071
-139.458	303.000	0.169	0.310
-138.443	-200.000	-0.016	0.171
-137.429	-6.979	-0.148	0.099
-136.414	-36.105	-0.050	-0.027
-135.399	800.000	-0.028	-0.094
-134.385	216.902	-0.142	-0.223
-133.370	800.000	-0.016	0.046
-132.356	-200.000	-0.019	0.098
-131.341	-104.357	0.151	0.035
-130.326	240.384	-0.200	-0.330
-129.312	-196.107	0.327	-0.002
-128.297	-200.000	-0.005	0.180
-127.283	1.191	0.270	0.192
-126.268	94.831	-0.107	0.120
-125.253	34.468	0.135	-0.117
-124.239	231.429	-0.278	-0.451
-123.224	109.587	0.324	-0.383
-122.210	-200.000	-0.042	0.475
-121.195	-12.215	0.244	0.157
-120.180	682.696	0.121	0.313
-119.166	-49.708	-0.171	-0.080
-118.151	800.000	0.094	-0.277
-117.137	-8.299	0.241	-0.160
-116.122	-200.000	0.005	0.309
-115.107	-200.000	0.012	-0.227
-114.093	447.976	0.169	0.368
-113.078	-200.000	-0.029	0.590
-112.064	-79.160	-0.168	0.056
-111.049	-1.841	-0.152	-0.106
-110.034	800.000	0.065	0.268
-109.020	-22.731	-0.163	0.097
-108.005	-92.240	-0.118	-0.033
-106.991	-17.740	0.343	0.213
-105.976	-200.000	-0.102	0.470
-104.962	-200.000	-0.008	0.074
-103.947	0.248	-0.221	0.156
-102.932	-21.274	-0.246	-0.148
-101.918	398.720	0.049	-0.101
-100.903	-71.726	-0.159	0.059
-99.889	-16.883	-0.019	0.012
-98.874	261.050	0.126	0.215
-97.859	-200.000	-0.004	0.231
-96.845	-178.012	0.289	0.007
-95.830	-104.237	-0.484	0.111
-94.816	-57.066	0.161	0.070
-93.801	92.200	-0.098	-0.109
-92.786	604.853	0.082	-0.202
-91.772	-135.433	-0.190	0.022
-90.757	255.772	-0.073	-0.123
-89.743	281.569	0.099	-0.175
-88.728	165.410	0.148	-0.207
-87.713	-100.477	0.099	0.024
-86.699	116.505	-0.246	0.298
-85.684	-200.000	0.027	-0.248
-84.670	-200.000	0.010	-0.054
-83.655	-10.206	0.128	0.084
-82.640	145.910	-0.259	0.342
-81.626	349.218	-0.035	0.068
-80.611	24.126	0.212	-0.173
-79.597	71.984	-0.146	-0.149
-78.582	295.572	-0.170	-0.308
-77.567	505.508	-0.036	-0.083
-76.553	-72.994	0.273	0.099
-75.538	116.396	0.164	0.199
-74.524	-200.000	-0.006	0.127
-73.509	9.672	0.055	-0.041
-72.494	-3.640	-0.055	-0.038
-71.480	-150.035	-0.143	-0.011
-70.465	800.000	-0.025	-0.104
-69.451	54.361	-0.275	0.261
-68.436	78.386	0.230	0.242
-67.422	-200.000	-0.014	-0.080
-66.407	-42.699	-0.168	0.084
-65.392	-23.943	0.121	-0.072
-64.378	-200.000	0.003	-0.309
-63.363	-200.000	-0.055	0.317
-62.349	659.362	-0.120	0.306
-61.334	-29.984	-0.862	-0.484
-60.319	-39.816	0.415	0.214
-59.305	-200.000	-0.080	-0.806
-58.290	167.803	0.588	0.824
-57.276	800.000	0.698	1.960
-56.261	-200.000	97.849	587.089
-55.246	558.669	1386.117	3296.793
-54.232	153.838	2586.096	3493.704
-53.217	115.618	2157.823	2600.289
-52.203	46.289	1614.674	1474.912
-51.188	38.132	1351.137	1184.905
-50.173	34.732	1308.370	1127.334
-49.159	58.602	1358.488	1314.389
-48.144	62.456	1376.575	1354.909
-47.130	38.376	1330.429	1168.015
-46.115	34.639	1312.918	1130.524
-45.100	34.648	1307.671	1126.012
-44.086	34.493	1305.727	1123.383
-43.071	34.401	1303.482	1120.862
-42.057	34.349	1301.381	1118.706
-41.042	34.315	1300.014	1117.288
-40.027	34.495	1298.017	1116.583
-39.013	34.426	1296.592	1114.910
-37.998	34.534	1294.034	1113.296
-36.984	34.517	1292.471	1111.807
-35.969	34.651	1290.558	1110.898
-34.954	34.545	1289.513	1109.335
-33.940	34.615	1287.833	1108.257
-32.925	34.625	1286.706	1107.300
-31.911	34.724	1284.814	1106.202
-30.896	34.748	1283.309	1104.997
-29.881	34.632	1282.524	1103.610
-28.867	34.723	1280.615	1102.449
-27.852	34.615	1279.520	1100.839
-26.838	34.702	1278.053	1100.034
-25.823	34.784	1276.210	1098.876
-24.809	34.611	1275.459	1097.192
-23.794	34.578	1274.720	1096.321
-22.779	34.574	1273.093	1094.854
-21.765	34.654	1271.394	1093.808
-20.750	34.581	1270.067	1092.206
-19.736	34.472	1268.861	1090.506
-18.721	34.566	1267.625	1089.935
-17.706	34.581	1266.775	1089.248
-16.692	34.528	1265.802	1088.062
-15.677	34.474	1264.706	1086.771
-14.663	34.452	1263.786	1085.811
-13.648	34.433	1262.258	1084.348
-12.633	34.455	1261.456	1083.742
-11.619	34.550	1260.469	1083.392
-10.604	34.501	1259.382	1082.132
-9.590	34.643	1258.368	1082.027
-8.575	34.398	1257.697	1080.019
-7.560	34.476	1256.800	1079.647
-6.546	34.564	1255.141	1078.675
-5.531	34.416	1255.001	1077.676
-4.517	34.548	1253.836	1077.379
-3.502	34.659	1252.698	1076.982
-2.487	34.504	1252.445	1075.847
-1.473	34.453	1248.614	1072.231
-0.458	33.045	1233.130	1051.065
0.556	29.706	1215.333	1013.196
1.571	25.991	1220.192	996.669
2.586	25.123	1236.052	1004.672
3.600	24.324	1225.059	991.208
4.615	17.732	1151.644	897.161
5.629	6.888	1073.509	782.762
6.644	2.198	1051.440	743.812
7.659	1.789	1048.803	739.893
8.673	1.765	1047.297	738.651
9.688	1.580	1046.317	736.997
10.702	2.193	1045.009	738.975
11.717	8.922	1054.461	778.348
12.731	19.062	1069.383	838.976
13.746	23.881	1075.385	867.177
14.761	24.704	1076.332	871.878
15.775	24.779	1075.537	871.525
16.790	24.586	1074.516	869.681
17.804	24.595	1074.131	869.336
18.819	24.702	1073.597	869.344
19.834	24.745	1073.146	869.111
20.848	24.825	1072.721	869.081
21.863	24.850	1071.853	868.419
22.877	24.701	1071.908	867.665
23.892	24.610	1071.039	866.442
24.907	24.741	1069.868	866.055
25.921	24.620	1068.800	864.527
26.936	24.693	1067.734	863.944
27.950	24.673	1065.776	862.183
28.965	24.565	1064.095	860.227
29.980	24.599	1062.947	859.388
30.994	24.735	1062.271	859.420
32.009	24.787	1061.006	858.568
33.023	24.619	1059.620	856.566
34.038	24.641	1059.030	856.121
35.053	24.866	1058.314	856.542
36.067	24.637	1057.943	855.071
37.082	24.789	1057.393	855.277
38.096	24.940	1056.446	855.159
39.111	25.019	1055.739	854.886
40.126	24.919	1054.241	853.119
41.140	24.528	1052.362	849.664
42.155	24.331	1051.003	847.556
43.169	24.321	1050.361	846.916
44.184	24.307	1049.169	845.813
45.199	24.306	1048.196	844.949
46.213	24.334	1047.665	844.581
47.228	24.585	1046.766	844.968
48.242	24.651	1045.866	844.479
49.257	24.597	1045.207	843.617
50.271	24.947	1044.442	844.573
51.286	24.767	1043.872	843.192
52.301	24.813	1042.916	842.562
53.315	24.590	1042.046	840.732
54.330	24.584	1040.845	839.664
55.344	24.676	1040.187	839.488
56.359	24.680	1039.227	838.661
57.374	24.481	1038.106	836.745
58.388	24.492	1037.446	836.191
59.403	24.354	1037.076	835.174
60.417	24.308	1036.210	834.190
61.432	24.504	1035.332	834.325
62.447	24.436	1035.166	833.799
63.461	24.439	1034.109	832.887
64.476	24.529	1032.625	832.037
65.490	24.456	1031.630	830.821
66.505	24.546	1031.020	830.675
67.520	24.557	1030.258	830.040
68.534	24.179	1029.886	827.911
69.549	23.997	1028.235	825.665
70.563	24.079	1027.449	825.341
71.578	24.027	1026.631	824.372
72.593	23.943	1025.619	823.098
73.607	23.888	1025.386	822.583
74.622	24.284	1024.948	823.987
75.636	24.339	1024.122	823.503
76.651	24.111	1023.740	822.073
77.666	24.088	1022.572	820.957
78.680	24.231	1021.965	821.057
79.695	24.199	1021.650	820.582
80.709	24.398	1020.501	820.503
81.724	24.334	1019.629	819.434
82.739	24.303	1019.358	819.004
83.753	24.723	1018.473	820.146
84.768	25.020	1017.883	820.957
85.782	25.119	1017.074	820.688
86.797	25.036	1015.769	819.180
87.812	24.899	1014.890	817.776
88.826	24.878	1014.247	817.086
89.841	25.107	1013.359	817.346
90.855	24.981	1012.577	816.067
91.870	25.004	1011.560	815.278
92.884	24.811	1010.259	813.282
93.899	24.825	1009.338	812.533
94.914	25.031	1008.423	812.658
95.928	24.852	1007.344	810.906
96.943	24.469	1006.682	808.569
97.957	24.372	1005.246	806.901
98.972	24.295	1004.279	805.707
99.987	24.449	1003.759	805.917
101.001	24.799	1002.611	806.499
102.016	24.725	1001.801	805.446
103.030	24.615	1000.924	804.172
104.045	24.546	999.862	802.939
105.060	24.213	998.795	800.513
106.074	24.407	998.583	801.143
107.089	24.762	998.021	802.214
108.103	24.684	996.967	800.947
109.118	24.550	995.337	798.966
110.133	24.413	995.222	798.191
111.147	24.284	993.279	795.987
112.162	24.206	992.201	794.707
113.176	24.409	992.259	795.588
114.191	24.352	991.237	794.443
115.206	23.939	990.399	791.864
116.220	24.022	989.286	791.272
117.235	24.192	988.585	791.397
118.249	24.057	987.679	790.004
119.264	24.012	987.075	789.250
120.279	24.108	986.696	789.305
121.293	24.170	985.633	788.657
122.308	24.192	984.835	788.046
123.322	24.024	983.651	786.285
124.337	24.144	982.238	785.616
125.352	23.557	981.038	782.000
126.366	23.530	980.004	780.988
127.381	24.231	980.085	784.070
128.395	24.633	979.544	785.334
129.410	24.710	978.678	784.910
130.424	24.606	977.614	783.531
131.439	24.644	976.747	782.934
132.454	24.560	976.080	781.960
133.468	24.638	974.903	781.288
134.483	24.772	973.723	780.861
135.497	24.938	973.831	781.602
136.512	25.005	972.770	780.972
137.527	24.944	972.009	780.025
138.541	24.887	971.078	778.963
139.556	24.798	970.444	777.998
140.570	24.987	969.649	778.115
141.585	24.986	968.603	777.202
142.600	25.002	967.319	776.172
143.614	25.218	966.939	776.732
144.629	25.069	966.434	775.612
145.643	25.136	964.711	774.451
146.658	24.999	963.224	772.597
147.673	24.789	962.296	770.880
148.687	24.739	961.329	769.823
149.702	24.722	960.248	768.816
150.716	24.701	959.423	767.999
151.731	24.802	959.163	768.157
152.746	24.976	958.664	768.434
153.760	25.156	957.996	768.604
154.775	25.138	957.286	767.889
155.789	25.066	956.618	766.977
156.804	24.952	955.539	765.555
157.819	25.160	955.200	766.105
158.833	25.171	954.353	765.406
159.848	25.227	953.090	764.561
160.862	25.095	951.833	762.925
161.877	25.033	950.984	761.912
162.892	25.137	950.014	761.510
163.906	25.085	948.451	759.970
164.921	24.983	948.363	759.399
165.935	25.022	947.224	758.586
166.950	24.977	946.560	757.795
167.964	25.125	945.268	757.322
168.979	24.872	944.540	755.601
169.994	24.832	943.402	754.455
171.008	25.083	943.107	755.212
172.023	25.288	941.604	754.805
173.037	24.998	940.580	752.697
174.052	24.722	939.979	750.989
175.067	24.730	939.627	750.675
176.081	24.985	938.974	751.158
177.096	24.865	938.289	750.040
178.110	24.507	937.425	747.785
179.125	24.472	936.430	746.778
180.140	24.447	935.900	746.185
181.154	24.617	936.000	746.908
182.169	24.980	935.900	748.280
183.183	25.174	935.648	748.823
184.198	24.969	934.534	747.010
185.213	24.986	934.081	746.651
186.227	25.031	933.232	746.096
187.242	25.075	932.375	745.525
188.256	25.146	931.853	745.340
189.271	25.124	931.099	744.579
190.286	24.816	929.939	742.308
191.300	24.229	928.304	738.503
192.315	23.442	926.840	734.018
193.329	23.399	926.325	733.367
194.344	24.323	926.841	737.534
195.359	24.890	926.877	739.843
196.373	24.920	926.325	739.461
197.388	24.851	926.022	738.866
198.402	24.908	925.204	738.387
199.417	24.887	924.328	737.533
200.432	24.715	923.499	736.099
201.446	24.569	922.868	734.930
202.461	24.656	922.346	734.805
203.475	23.683	920.325	729.138
204.490	23.126	918.791	725.574
205.504	23.973	919.181	729.294
206.519	24.545	919.041	731.459
207.534	24.555	918.793	731.238
208.548	25.011	918.461	732.775
209.563	24.992	916.929	731.411
210.577	24.687	916.814	730.011
211.592	25.162	916.436	731.581
212.607	25.211	915.331	730.837
213.621	25.124	915.173	730.288
214.636	25.148	914.249	729.587
215.650	25.166	913.383	728.902
216.665	25.213	913.210	728.889
217.680	25.174	911.916	727.636
218.694	24.717	910.941	724.939
219.709	24.595	910.537	724.059
220.723	25.083	910.034	725.574
221.738	25.090	909.333	724.979
222.753	25.059	908.807	724.371
223.767	25.031	908.733	724.132
224.782	25.399	907.829	724.834
225.796	25.359	907.561	724.395
226.811	24.610	906.187	720.214
227.826	24.069	904.704	716.794
228.840	24.192	904.341	716.939
229.855	24.309	903.507	716.685
230.869	23.775	902.635	713.785
231.884	24.205	902.949	715.699
232.899	24.930	903.106	718.671
233.913	24.944	902.158	717.909
234.928	24.888	901.367	716.991
235.942	24.774	901.089	716.249
236.957	24.551	899.792	714.263
237.972	24.551	899.735	714.156
238.986	24.632	899.246	714.029
240.001	24.667	898.338	713.383
241.015	24.844	897.996	713.753
242.030	24.944	897.357	713.584
243.045	25.065	896.797	713.557
244.059	25.216	896.372	713.754
245.074	24.931	895.499	711.865
246.088	24.492	894.751	709.463
247.103	24.796	894.264	710.222
248.117	25.510	894.445	713.133
249.132	25.733	893.820	713.459
250.147	25.770	893.435	713.233
251.161	25.873	892.931	713.175
252.176	25.764	892.621	712.435
253.190	25.877	892.112	712.412
254.205	26.109	891.636	712.885
255.220	25.963	890.769	711.553
256.234	25.894	889.884	710.511
257.249	25.791	889.069	709.393
258.263	25.815	888.337	708.838
259.278	25.912	887.727	708.672
260.293	25.950	887.447	708.533
261.307	25.866	886.517	707.400
262.322	25.774	885.513	706.173
263.336	24.849	884.022	701.301
264.351	23.742	882.121	695.399
265.366	23.946	881.652	695.767
266.380	25.002	882.549	700.544
267.395	25.506	882.299	702.254
268.409	25.458	881.484	701.356
269.424	25.614	880.882	701.423
270.439	25.671	880.517	701.292
271.453	25.845	879.320	700.955
272.468	25.883	879.596	701.258
273.482	25.879	879.148	700.823
274.497	25.502	878.048	698.421
275.512	25.266	876.750	696.410
276.526	25.513	877.063	697.557
277.541	25.771	876.796	698.283
278.555	25.595	875.758	696.715
279.570	25.386	875.165	695.372
280.585	25.707	874.753	696.224
281.599	25.518	873.674	694.574
282.614	24.989	872.240	691.331
283.628	24.973	871.741	690.814
284.643	25.350	871.715	692.186
285.657	24.847	870.853	689.500
286.672	24.684	869.572	687.798
287.687	25.212	869.887	690.019
288.701	25.321	869.286	689.900
289.716	24.911	868.503	687.644
290.730	24.834	867.964	686.860
291.745	24.572	866.674	684.774
292.760	24.855	866.880	685.959
293.774	25.957	867.102	690.298
294.789	26.294	866.610	691.134
295.803	26.180	866.473	690.528
296.818	26.157	866.028	690.023
297.833	25.872	864.334	687.527
298.847	25.664	863.853	686.290
299.862	26.100	863.074	687.269
300.876	26.150	863.282	687.565
301.891	26.159	862.463	686.886
302.906	25.663	861.647	684.289
303.920	25.915	861.382	684.976
304.935	26.245	861.053	685.910
305.949	26.176	860.066	684.799
306.964	26.036	859.469	683.733
307.979	26.111	859.150	683.702
308.993	26.219	859.367	684.224
310.008	26.406	858.221	683.959
311.022	25.939	857.534	681.584
312.037	26.074	856.570	681.270
313.052	25.573	856.168	678.999
314.066	24.813	854.442	674.705
315.081	24.495	853.864	672.991
316.095	25.352	853.853	676.150
317.110	25.910	854.002	678.309
318.125	24.983	852.223	673.355
319.139	23.977	850.693	668.308
320.154	23.914	850.583	667.927
321.168	24.833	851.101	671.725
322.183	25.679	850.972	674.735
323.197	25.726	850.510	674.488
324.212	26.052	849.943	675.198
325.227	25.951	849.566	674.463
326.241	25.881	848.866	673.586
327.256	25.660	848.399	672.328
328.270	25.623	847.705	671.580
329.285	25.376	846.753	669.845
330.300	25.304	846.067	668.975
331.314	25.616	845.582	669.693
332.329	26.070	845.378	671.163
333.343	26.038	845.261	670.892
334.358	26.043	844.823	670.503
335.373	26.040	844.935	670.522
336.387	26.486	844.468	671.749
337.402	26.540	844.357	671.800
338.416	26.502	843.793	671.151
339.431	26.468	843.579	670.797
340.446	26.782	843.155	671.562
341.460	26.647	842.419	670.417
342.475	26.372	842.061	669.054
343.489	26.489	841.707	669.148
344.504	26.828	841.426	670.120
345.519	27.009	840.971	670.365
346.533	26.867	840.699	669.563
347.548	26.985	840.205	669.546
348.562	26.917	839.565	668.727
349.577	26.856	838.739	667.787
350.592	26.994	837.971	667.622
351.606	26.771	837.566	666.422
352.621	26.680	836.406	665.105
353.635	26.604	835.803	664.287
354.650	25.937	834.403	660.672
355.665	24.802	833.484	655.730
356.679	25.314	833.176	657.303
357.694	26.033	832.472	659.319
358.708	25.807	831.518	657.679
359.723	26.134	831.752	659.000
360.738	26.476	831.471	659.968
361.752	26.615	830.689	659.797
362.767	26.768	830.903	660.464
363.781	26.905	830.897	660.901
364.796	27.084	830.001	660.782
365.810	27.262	829.801	661.211
366.825	27.291	829.209	660.785
367.840	26.878	828.583	658.727
368.854	26.457	827.731	656.466
369.869	26.455	827.092	655.892
370.883	26.679	826.469	656.153
371.898	26.417	826.288	655.004
372.913	26.499	825.913	654.944
373.927	26.738	825.254	655.228
374.942	26.783	825.147	655.248
375.956	27.083	824.490	655.751
376.971	27.053	824.412	655.523
377.986	27.181	824.001	655.601
379.000	27.072	823.547	654.789
380.015	26.879	823.082	653.663
381.029	27.044	822.389	653.651
382.044	27.219	821.603	653.598
383.059	27.201	821.243	653.188
384.073	27.305	820.371	652.810
385.088	27.182	819.570	651.672
386.102	26.888	818.897	650.026
387.117	26.947	818.454	649.831
388.132	26.819	817.308	648.406
389.146	26.081	816.856	645.349
390.161	26.587	816.515	646.833
391.175	27.085	816.007	648.151
392.190	26.619	815.324	645.889
393.205	25.136	813.196	638.865
394.219	23.772	811.547	632.659
395.234	23.815	810.948	632.290
396.248	25.275	812.891	638.951
397.263	26.709	813.502	644.479
398.278	26.809	813.025	644.403
399.292	26.533	812.555	642.990
400.307	26.472	812.020	642.296
401.321	26.702	811.332	642.508
402.336	26.880	811.457	643.181
403.350	27.417	811.407	644.989
404.365	27.763	811.181	645.976
405.380	27.877	810.571	645.838
406.394	27.819	810.578	645.578
407.409	27.704	810.042	644.690
408.423	27.796	809.486	644.515
409.438	27.918	809.448	644.860
410.453	28.012	808.596	644.456
411.467	27.833	808.242	643.485
412.482	27.879	807.505	643.004
413.496	28.060	807.434	643.528
414.511	28.010	807.105	643.030
415.526	27.883	806.673	642.182
416.540	27.771	805.919	641.134
417.555	27.516	805.494	639.842
418.569	27.467	805.039	639.254
419.584	27.651	804.178	639.159
420.599	27.415	803.921	638.068
421.613	108.751	1281.605	1445.687
422.628	93.858	1351.225	1445.809
