DTS Sentinel unit serial number:	SN413079Multiplexer serial number:	ORYXHardware model number:	OX4-SRSoftware version number:	ORYX F/W v4.00 Oryx Data Collector v3.7.2.0data status	okinstallation	princeton_trtdifferential loss correction	single-endedforward channel	channel 1reverse channel	N/Adate	2019/09/11time	04:48:11forward acquisition time	60.00reverse acquisition time	0.00gamma	496.2192k internal	0.2331k external	0.2331temperature offset calibration	0.9922default loss term (dB/km)	0.3790temperature slope calibration	1.0000multiplexer offset coefficient	1.0000multiplexer slope coefficient	1.0000fibre end	0.00T internal ref (°C)	29.50T ext. ref 1 (°C)	-0.27T ext. ref 2 (°C)	23.35length (m)	temperature (°C)	Stokes	anti-Stokes-747.200	-137.167	0.330	-0.038
-746.185	-181.011	-0.392	-0.008
-745.171	322.623	-0.137	-0.262
-744.156	44.401	-0.209	0.193
-743.142	-74.774	0.076	0.027
-742.127	43.989	0.136	-0.126
-741.112	800.000	-0.066	-0.208
-740.098	-200.000	-0.027	0.122
-739.083	83.656	-0.122	-0.134
-738.069	-119.172	0.293	0.051
-737.054	58.893	0.068	0.068
-736.039	-5.437	-0.273	-0.189
-735.025	-55.867	0.363	0.163
-734.010	-200.000	-0.044	-0.347
-732.996	-12.411	-0.236	-0.155
-731.981	-200.000	0.004	0.100
-730.966	-200.000	-0.017	-0.398
-729.952	-137.700	0.239	0.027
-728.937	-85.630	-0.148	0.046
-727.923	-46.198	0.281	-0.139
-726.908	-64.050	-0.217	-0.089
-725.894	-84.823	0.099	-0.031
-724.879	12.686	-0.214	-0.166
-723.864	671.460	-0.073	-0.190
-722.850	-124.667	0.107	-0.017
-721.835	110.069	-0.076	0.091
-720.821	800.000	0.045	-0.124
-719.806	-200.000	-0.032	0.169
-718.791	800.000	-0.153	-0.432
-717.777	-200.000	0.001	-0.102
-716.762	-29.127	0.193	-0.111
-715.748	51.786	-0.118	0.113
-714.733	-200.000	-0.010	0.098
-713.718	-200.000	-0.000	0.103
-712.704	-200.000	0.012	-0.324
-711.689	800.000	0.028	-0.107
-710.675	-31.830	-0.170	-0.096
-709.660	-200.000	-0.015	-0.145
-708.645	-15.806	0.126	0.081
-707.631	-13.111	0.036	0.024
-706.616	800.000	-0.045	-0.162
-705.602	194.296	0.168	-0.256
-704.587	463.331	-0.128	-0.287
-703.572	-200.000	-0.064	-0.284
-702.558	-58.728	0.123	-0.054
-701.543	-154.440	-0.041	0.003
-700.529	676.749	-0.045	0.118
-699.514	-71.350	0.191	0.072
-698.499	-34.279	-0.211	-0.116
-697.485	-5.638	-0.114	-0.078
-696.470	-122.010	0.375	-0.062
-695.456	-47.392	-0.088	-0.043
-694.441	68.095	0.227	-0.234
-693.426	590.441	-0.056	0.138
-692.412	-33.649	-0.260	0.144
-691.397	-150.279	-0.426	0.033
-690.383	800.000	-0.087	-0.305
-689.368	-157.310	0.294	-0.018
-688.354	41.212	-0.169	0.153
-687.339	-200.000	-0.016	0.190
-686.324	-128.067	-0.330	-0.048
-685.310	-63.627	-0.209	-0.086
-684.295	-155.977	-0.217	0.014
-683.281	-67.269	0.285	0.113
-682.266	-57.635	-0.202	0.089
-681.251	-11.412	0.144	-0.095
-680.237	-62.913	0.449	-0.186
-679.222	46.964	0.172	0.161
-678.208	18.605	-0.148	0.119
-677.193	-98.710	0.132	0.034
-676.178	127.986	-0.209	-0.267
-675.164	-137.334	0.110	0.013
-674.149	-76.707	-0.145	0.051
-673.135	758.073	0.067	-0.183
-672.120	749.184	-0.081	0.219
-671.105	-200.000	0.023	0.125
-670.091	-77.012	-0.396	0.139
-669.076	-57.045	-0.372	0.165
-668.062	800.000	0.092	0.294
-667.047	543.901	0.054	-0.129
-666.032	-135.111	0.033	-0.004
-665.018	-200.000	-0.011	0.149
-664.003	800.000	-0.056	0.234
-662.989	-64.725	-0.239	-0.097
-661.974	366.960	-0.077	0.156
-660.959	-54.483	-0.054	0.024
-659.945	160.206	-0.095	-0.132
-658.930	613.568	0.059	0.149
-657.916	-200.000	-0.009	0.051
-656.901	-125.959	0.295	0.044
-655.886	800.000	-0.090	-0.258
-654.872	60.210	-0.051	-0.051
-653.857	800.000	0.132	-0.393
-652.843	189.018	-0.094	-0.141
-651.828	-167.971	-0.201	-0.008
-650.814	161.997	0.178	0.250
-649.799	31.636	-0.274	0.237
-648.784	800.000	0.021	-0.070
-647.770	62.780	0.107	-0.107
-646.755	-136.796	0.301	-0.035
-645.741	-200.000	-0.023	-0.476
-644.726	-71.607	0.576	-0.216
-643.711	-200.000	-0.035	0.267
-642.697	23.016	-0.235	0.194
-641.682	31.245	-0.083	-0.071
-640.668	-90.831	-0.240	-0.069
-639.653	-200.000	-0.018	-0.191
-638.638	-76.561	-0.092	0.032
-637.624	-144.676	-0.198	-0.018
-636.609	296.512	0.110	0.202
-635.595	278.189	-0.036	0.064
-634.580	60.858	-0.235	0.234
-633.565	128.203	-0.140	0.179
-632.551	527.306	0.100	0.236
-631.536	-27.340	-0.496	-0.289
-630.522	125.766	-0.061	-0.077
-629.507	154.337	-0.085	0.116
-628.492	231.982	-0.186	0.306
-627.478	-200.000	-0.046	-0.268
-626.463	-200.000	0.061	-0.289
-625.449	-200.000	-0.048	-0.254
-624.434	-85.308	-0.210	0.066
-623.419	-170.272	0.345	-0.012
-622.405	0.121	0.231	-0.165
-621.390	-200.000	0.002	0.096
-620.376	-116.337	-0.240	0.044
-619.361	69.854	-0.072	0.074
-618.346	-97.905	0.363	0.094
-617.332	-57.198	-0.028	-0.012
-616.317	-200.000	0.055	-0.267
-615.303	-79.287	-0.106	0.036
-614.288	800.000	-0.018	-0.075
-613.273	-183.477	-0.223	-0.004
-612.259	52.217	-0.054	0.052
-611.244	68.311	-0.207	-0.213
-610.230	-70.893	-0.173	0.065
-609.215	29.420	-0.152	0.130
-608.201	221.892	0.221	-0.356
-607.186	2.338	-0.114	-0.082
-606.171	-91.956	-0.376	0.107
-605.157	398.410	0.014	0.030
-604.142	-11.683	-0.113	-0.075
-603.128	-200.000	-0.008	-0.073
-602.113	300.093	0.173	0.319
-601.098	-200.000	-0.008	0.042
-600.084	128.008	0.142	-0.181
-599.069	-72.156	-0.309	-0.115
-598.055	-200.000	-0.039	-0.193
-597.040	-42.373	0.169	-0.086
-596.025	-78.911	0.337	-0.115
-595.011	-200.000	0.075	-0.371
-593.996	526.545	0.076	-0.179
-592.982	-8.133	-0.161	-0.108
-591.967	-22.077	0.202	-0.123
-590.952	800.000	-0.026	-0.110
-589.938	-119.174	-0.205	0.036
-588.923	-154.898	0.290	-0.019
-587.909	800.000	0.076	-0.225
-586.894	796.882	0.049	0.136
-585.879	-94.913	0.215	0.058
-584.865	80.721	-0.038	-0.041
-583.850	-58.589	-0.289	0.126
-582.836	-113.518	-0.118	-0.023
-581.821	8.961	0.199	-0.150
-580.806	-56.448	0.153	0.068
-579.792	-148.682	-0.043	0.004
-578.777	800.000	-0.036	-0.122
-577.763	-152.706	0.389	-0.028
-576.748	725.371	0.060	0.161
-575.733	-200.000	-0.001	-0.051
-574.719	-74.981	0.146	-0.052
-573.704	-33.198	-0.162	-0.090
-572.690	209.481	0.181	-0.283
-571.675	143.772	0.066	0.088
-570.661	619.602	0.021	-0.052
-569.646	800.000	-0.028	-0.113
-568.631	-33.119	-0.188	-0.104
-567.617	-145.283	-0.369	0.033
-566.602	-116.805	0.366	-0.067
-565.588	53.494	0.227	0.217
-564.573	-119.091	-0.166	0.029
-563.558	169.773	-0.091	-0.130
-562.544	-35.557	-0.180	0.098
-561.529	800.000	0.062	-0.176
-560.515	36.085	-0.198	-0.174
-559.500	-185.382	0.364	0.006
-558.485	-99.480	-0.020	0.005
-557.471	202.439	-0.139	-0.215
-556.456	800.000	0.043	-0.156
-555.442	103.822	-0.324	-0.380
-554.427	-171.878	0.201	-0.007
-553.412	-59.350	0.007	-0.003
-552.398	378.552	-0.107	0.219
-551.383	37.142	0.379	0.335
-550.369	229.793	0.050	-0.082
-549.354	-130.766	0.175	-0.024
-548.339	800.000	-0.080	0.248
-547.325	-200.000	-0.008	-0.112
-546.310	-200.000	-0.012	0.311
-545.296	214.509	0.170	0.268
-544.281	-113.559	0.332	-0.065
-543.266	-23.435	0.058	0.035
-542.252	-200.000	-0.056	0.337
-541.237	33.358	-0.196	-0.170
-540.223	-97.898	-0.167	-0.043
-539.208	-128.624	-0.031	-0.004
-538.193	800.000	-0.030	0.105
-537.179	-51.886	-0.226	0.105
-536.164	-49.176	0.345	0.165
-535.150	55.277	0.074	0.071
-534.135	800.000	-0.053	0.200
-533.121	28.037	-0.175	-0.147
-532.106	302.215	0.090	0.166
-531.091	25.720	0.064	0.054
-530.077	-200.000	0.001	-0.066
-529.062	-7.580	-0.195	-0.132
-528.048	-10.455	-0.157	-0.104
-527.033	49.922	0.208	-0.196
-526.018	-93.529	-0.231	0.064
-525.004	-200.000	-0.022	0.433
-523.989	403.644	0.129	0.271
-522.975	-90.069	0.323	-0.094
-521.960	-127.138	-0.391	-0.057
-520.945	-200.000	0.021	-0.106
-519.931	-131.561	-0.208	0.027
-518.916	417.374	0.112	0.240
-517.902	-65.819	-0.428	-0.171
-516.887	49.119	0.171	-0.161
-515.872	352.611	-0.121	0.240
-514.858	-200.000	-0.023	-0.158
-513.843	800.000	-0.100	-0.325
-512.829	-187.170	0.268	0.004
-511.814	141.938	-0.130	-0.172
-510.799	242.728	0.033	-0.055
-509.785	180.757	-0.111	-0.162
-508.770	741.329	0.067	-0.178
-507.756	-61.213	-0.349	-0.147
-506.741	665.864	-0.124	-0.320
-505.726	527.495	-0.174	0.409
-504.712	-30.755	-0.242	0.137
-503.697	74.231	-0.224	0.234
-502.683	233.266	0.157	0.257
-501.668	-122.184	-0.226	0.037
-500.653	-17.607	-0.332	-0.208
-499.639	171.106	0.079	0.113
-498.624	-200.000	0.048	0.356
-497.610	-192.471	-0.525	0.005
-496.595	-6.766	-0.120	0.081
-495.581	29.800	0.127	-0.107
-494.566	10.407	0.114	-0.086
-493.551	-200.000	0.036	-0.207
-492.537	65.698	0.136	0.137
-491.522	800.000	0.102	0.347
-490.508	15.559	-0.084	0.066
-489.493	-4.906	0.152	-0.104
-488.478	-200.000	0.003	-0.145
-487.464	225.839	-0.105	0.170
-486.449	45.555	-0.349	-0.321
-485.435	-0.484	0.380	-0.269
-484.420	40.895	0.130	0.117
-483.405	372.532	-0.196	-0.397
-482.391	-200.000	-0.005	-0.123
-481.376	-101.585	0.219	0.053
-480.362	15.249	-0.249	-0.195
-479.347	-200.000	0.016	0.103
-478.332	310.817	0.039	0.072
-477.318	-12.141	-0.273	-0.178
-476.303	-107.957	-0.410	0.089
-475.289	293.635	0.038	0.070
-474.274	-110.403	-0.246	0.051
-473.259	229.430	0.158	0.257
-472.245	-200.000	0.008	-0.299
-471.230	-19.506	-0.159	-0.098
-470.216	800.000	0.119	0.435
-469.201	800.000	0.014	-0.050
-468.186	800.000	-0.055	-0.162
-467.172	800.000	0.050	-0.210
-466.157	341.986	-0.207	0.403
-465.143	100.701	0.049	0.057
-464.128	105.927	0.021	-0.025
-463.113	-69.987	0.130	-0.049
-462.099	-200.000	0.045	-0.297
-461.084	-104.715	0.325	0.074
-460.070	-200.000	-0.067	0.321
-459.055	10.583	-0.140	0.106
-458.040	-200.000	0.020	0.361
-457.026	-114.297	-0.076	-0.015
-456.011	54.345	-0.149	-0.143
-454.997	-200.000	-0.021	-0.122
-453.982	800.000	0.068	-0.231
-452.968	-34.450	0.103	0.056
-451.953	-200.000	-0.036	0.183
-450.938	373.162	0.053	-0.107
-449.924	-200.000	-0.023	-0.125
-448.909	-65.024	0.159	-0.064
-447.895	-122.317	0.135	0.022
-446.880	-200.000	-0.019	-0.180
-445.865	-172.385	-0.111	0.004
-444.851	800.000	0.049	0.170
-443.836	-47.715	0.202	-0.097
-442.822	648.969	-0.064	0.164
-441.807	176.343	-0.187	0.270
-440.792	-200.000	0.012	0.060
-439.778	186.027	-0.040	0.059
-438.763	-127.763	-0.289	-0.041
-437.749	65.944	-0.129	0.130
-436.734	-102.944	-0.314	-0.074
-435.719	-200.000	-0.019	0.438
-434.705	-119.395	-0.089	-0.015
-433.690	800.000	0.048	-0.205
-432.676	51.781	0.195	0.185
-431.661	221.498	0.172	0.275
-430.646	-100.697	-0.286	0.070
-429.632	67.348	-0.160	0.162
-428.617	682.610	0.019	0.049
-427.603	-44.742	0.094	-0.047
-426.588	-118.430	-0.504	0.089
-425.573	-6.469	0.375	0.254
-424.559	-100.619	0.252	0.062
-423.544	-53.956	0.068	0.031
-422.530	-56.698	-0.198	0.087
-421.515	-99.441	0.100	0.025
-420.500	135.100	-0.029	-0.037
-419.486	-128.083	0.209	-0.030
-418.471	17.916	0.268	0.212
-417.457	180.468	0.100	-0.146
-416.442	519.722	-0.104	-0.243
-415.428	99.257	-0.067	-0.077
-414.413	-40.806	-0.150	-0.077
-413.398	-12.316	0.068	-0.044
-412.384	-41.083	0.217	-0.111
-411.369	449.690	-0.057	0.125
-410.355	-75.359	-0.078	0.028
-409.340	-200.000	-0.024	0.321
-408.325	-200.000	0.041	0.354
-407.311	-118.291	-0.008	-0.001
-406.296	-200.000	-0.019	-0.309
-405.282	-200.000	-0.003	-0.198
-404.267	800.000	0.026	-0.077
-403.252	14.932	-0.093	-0.072
-402.238	-152.803	-0.093	-0.007
-401.223	603.971	0.028	0.069
-400.209	800.000	-0.061	-0.210
-399.194	41.324	-0.200	0.180
-398.179	-153.244	0.293	0.020
-397.165	61.897	-0.205	-0.203
-396.150	140.702	-0.019	-0.024
-395.136	-83.967	-0.203	-0.064
-394.121	535.602	0.153	-0.361
-393.106	-45.846	-0.268	-0.131
-392.092	-92.890	0.032	-0.009
-391.077	185.396	-0.079	-0.116
-390.063	74.867	0.092	0.096
-389.048	6.719	0.135	-0.100
-388.033	8.258	0.198	0.148
-387.019	-71.364	0.127	0.047
-386.004	800.000	-0.144	-0.435
-384.990	-200.000	-0.031	-0.619
-383.975	-200.000	0.034	0.282
-382.960	-102.732	0.061	0.014
-381.946	249.124	-0.077	-0.129
-380.931	-200.000	-0.028	-0.241
-379.917	106.209	0.130	-0.153
-378.902	95.854	-0.138	0.156
-377.888	159.933	-0.146	-0.202
-376.873	-17.556	-0.340	0.212
-375.858	-200.000	-0.034	0.270
-374.844	800.000	-0.024	0.096
-373.829	-200.000	0.025	-0.110
-372.815	183.139	0.261	0.382
-371.800	-65.682	-0.107	-0.043
-370.785	376.077	0.174	-0.353
-369.771	-173.375	0.089	-0.003
-368.756	34.310	0.470	-0.406
-367.742	-33.420	0.055	0.030
-366.727	-161.978	-0.087	-0.004
-365.712	800.000	0.108	0.334
-364.698	800.000	-0.047	-0.145
-363.683	800.000	-0.090	0.260
-362.669	-80.790	-0.259	-0.085
-361.654	44.644	0.260	0.237
-360.639	171.360	-0.068	0.096
-359.625	174.842	0.165	-0.237
-358.610	-24.134	-0.219	-0.130
-357.596	-200.000	-0.001	-0.079
-356.581	-75.020	0.300	0.107
-355.566	39.559	0.232	-0.206
-354.552	-115.987	0.161	0.030
-353.537	-177.241	0.387	-0.010
-352.523	-86.884	0.195	-0.059
-351.508	-200.000	0.015	-0.288
-350.493	-107.318	0.160	0.035
-349.479	144.796	-0.025	0.033
-348.464	-200.000	-0.009	0.119
-347.450	800.000	0.155	0.458
-346.435	153.227	0.163	0.222
-345.420	31.599	-0.193	0.164
-344.406	-200.000	-0.057	0.304
-343.391	49.503	0.313	0.292
-342.377	-1.089	0.131	0.092
-341.362	-17.752	-0.247	-0.154
-340.348	-82.602	-0.102	0.033
-339.333	172.633	-0.020	-0.029
-338.318	800.000	-0.084	0.260
-337.304	-65.194	0.308	0.123
-336.289	-200.000	0.050	0.276
-335.275	48.044	0.184	-0.170
-334.260	28.385	-0.017	0.014
-333.245	37.148	0.071	0.062
-332.231	365.751	-0.065	0.129
-331.216	-101.019	0.150	-0.037
-330.202	-124.519	0.225	-0.035
-329.187	800.000	0.023	-0.097
-328.172	143.386	-0.136	-0.180
-327.158	58.423	-0.125	0.122
-326.143	-85.276	0.165	-0.051
-325.129	296.709	-0.083	0.151
-324.114	363.041	0.052	0.103
-323.099	-200.000	-0.060	0.267
-322.085	179.658	0.107	0.155
-321.070	279.364	0.032	-0.057
-320.056	-125.946	0.207	-0.031
-319.041	0.211	0.142	0.100
-318.026	-94.734	0.326	0.088
-317.012	-121.809	0.306	-0.050
-315.997	-179.254	0.186	0.004
-314.983	-200.000	-0.067	-0.380
-313.968	800.000	0.054	0.224
-312.953	800.000	0.098	0.272
-311.939	-50.246	0.076	0.035
-310.924	75.792	-0.087	-0.091
-309.910	134.931	-0.216	0.277
-308.895	26.345	-0.142	0.117
-307.880	-200.000	-0.006	0.031
-306.866	-14.752	0.090	0.057
-305.851	127.861	-0.190	0.239
-304.837	32.477	0.185	0.158
-303.822	-1.203	-0.282	0.197
-302.807	-200.000	-0.023	-0.240
-301.793	-41.192	-0.112	-0.057
-300.778	-97.516	-0.174	0.045
-299.764	734.333	-0.040	0.106
-298.749	252.127	0.057	0.097
-297.735	152.522	-0.074	0.100
-296.720	-200.000	0.144	-0.001
-295.705	-200.000	-0.073	-0.389
-294.691	62.345	0.116	0.115
-293.676	-34.284	0.337	-0.183
-292.662	70.033	-0.130	0.132
-291.647	-50.546	0.480	-0.224
-290.632	-56.484	-0.076	-0.033
-289.618	40.096	-0.087	0.078
-288.603	-104.557	0.229	0.052
-287.589	-78.022	0.112	-0.038
-286.574	-41.142	-0.144	0.073
-285.559	-32.157	-0.042	0.023
-284.545	800.000	-0.102	0.316
-283.530	168.960	-0.065	0.092
-282.516	-200.000	0.023	0.364
-281.501	-200.000	0.023	0.267
-280.486	19.272	0.170	0.135
-279.472	-46.892	-0.107	-0.052
-278.457	-105.524	0.153	-0.034
-277.443	-51.943	0.100	0.046
-276.428	-200.000	-0.006	-0.246
-275.413	-200.000	0.020	-0.411
-274.399	0.111	0.217	-0.153
-273.384	-200.000	0.011	-0.071
-272.370	800.000	0.018	0.057
-271.355	-87.617	-0.196	-0.058
-270.340	800.000	0.034	0.127
-269.326	-200.000	-0.019	-0.418
-268.311	-200.000	-0.032	-0.276
-267.297	-37.691	0.307	-0.162
-266.282	-200.000	0.008	0.180
-265.267	18.087	-0.199	0.157
-264.253	-107.532	-0.286	-0.062
-263.238	-53.068	0.187	-0.085
-262.224	-126.343	0.253	-0.037
-261.209	-129.248	0.073	-0.010
-260.195	-45.037	0.139	0.068
-259.180	-200.000	-0.021	0.294
-258.165	-200.000	0.028	-0.150
-257.151	67.730	-0.133	-0.134
-256.136	-200.000	0.029	-0.354
-255.122	-39.049	-0.296	-0.154
-254.107	79.123	-0.080	-0.084
-253.092	17.320	0.205	0.160
-252.078	-75.629	0.113	0.040
-251.063	-200.000	-0.016	0.175
-250.049	-103.332	0.295	-0.069
-249.034	-5.902	0.180	0.122
-248.019	722.353	0.038	-0.100
-247.005	-45.152	-0.210	-0.103
-245.990	87.186	0.213	-0.233
-244.976	214.660	-0.055	0.087
-243.961	2.509	0.050	0.036
-242.946	120.290	-0.208	0.255
-241.932	4.559	0.227	-0.164
-240.917	32.728	-0.282	0.241
-239.903	-38.938	-0.109	0.057
-238.888	-133.359	-0.169	-0.021
-237.873	-121.438	-0.133	0.022
-236.859	-36.647	0.260	0.138
-235.844	-200.000	0.005	0.023
-234.830	414.028	0.094	0.197
-233.815	73.314	-0.185	-0.190
-232.800	140.063	0.070	0.092
-231.786	57.696	-0.155	-0.150
-230.771	439.283	0.052	-0.112
-229.757	179.869	0.165	-0.239
-228.742	73.580	-0.284	0.294
-227.727	800.000	0.020	0.071
-226.713	261.159	0.168	-0.288
-225.698	135.027	-0.067	0.086
-224.684	281.726	-0.173	0.306
-223.669	133.153	0.172	0.219
-222.655	199.874	0.085	-0.128
-221.640	-16.892	0.228	0.142
-220.625	-200.000	0.056	-0.281
-219.611	324.320	0.102	-0.193
-218.596	85.895	0.133	0.144
-217.582	-9.018	0.127	0.084
-216.567	-22.500	0.256	0.153
-215.552	-200.000	-0.076	0.507
-214.538	78.243	-0.041	0.043
-213.523	-93.924	-0.210	0.057
-212.509	72.171	0.235	0.241
-211.494	53.698	0.166	0.157
-210.479	-108.891	-0.424	-0.089
-209.465	-200.000	0.004	-0.183
-208.450	-92.460	0.549	-0.152
-207.436	233.385	-0.046	0.075
-206.421	10.388	-0.246	-0.185
-205.406	-27.276	0.194	0.111
-204.392	-49.068	-0.357	0.169
-203.377	-69.895	0.066	0.025
-202.363	800.000	-0.173	-0.678
-201.348	-32.946	0.025	0.014
-200.333	-13.256	0.218	0.139
-199.319	13.732	-0.060	-0.046
-198.304	-47.885	-0.446	-0.213
-197.290	-200.000	0.012	-0.329
-196.275	800.000	-0.142	0.415
-195.260	-24.115	-0.290	0.171
-194.246	308.664	-0.110	-0.202
-193.231	185.714	0.100	0.146
-192.217	-200.000	-0.010	0.329
-191.202	-125.233	-0.231	-0.035
-190.187	745.622	0.072	-0.191
-189.173	303.509	0.117	-0.213
-188.158	-21.820	0.081	0.049
-187.144	-200.000	-0.026	0.329
-186.129	-103.925	0.108	0.025
-185.114	-68.909	-0.220	-0.083
-184.100	-130.956	-0.269	-0.035
-183.085	7.243	0.118	-0.087
-182.071	800.000	-0.117	-0.362
-181.056	-98.051	0.394	0.100
-180.042	-155.828	0.294	-0.018
-179.027	-116.092	0.208	0.038
-178.012	-50.393	-0.346	-0.161
-176.998	387.708	0.080	-0.163
-175.983	-57.915	-0.375	-0.161
-174.969	72.320	0.251	-0.257
-173.954	-150.620	0.062	-0.005
-172.939	650.871	0.070	0.175
-171.925	538.871	-0.016	0.038
-170.910	266.096	-0.066	0.113
-169.896	-106.212	-0.159	0.035
-168.881	214.658	-0.058	-0.090
-167.866	-200.000	0.028	-0.360
-166.852	255.867	-0.146	0.246
-165.837	780.317	-0.042	-0.114
-164.823	-200.000	0.054	0.254
-163.808	-19.547	-0.155	-0.095
-162.793	-200.000	0.018	-0.186
-161.779	-9.183	0.215	-0.142
-160.764	-29.570	-0.185	-0.104
-159.750	-71.893	0.255	-0.093
-158.735	-119.345	-0.212	-0.036
-157.720	386.082	-0.079	0.161
-156.706	190.647	-0.066	-0.097
-155.691	800.000	-0.020	-0.080
-154.677	471.957	-0.036	0.080
-153.662	-62.307	-0.114	0.047
-152.647	-103.755	0.263	0.061
-151.633	800.000	-0.059	0.167
-150.618	339.811	-0.089	0.170
-149.604	-117.183	-0.318	-0.057
-148.589	-200.000	0.040	-0.179
-147.574	-200.000	-0.017	0.173
-146.560	-42.931	-0.260	0.130
-145.545	-200.000	0.005	-0.301
-144.531	401.611	0.072	-0.148
-143.516	-83.950	0.244	-0.076
-142.502	-68.615	-0.209	-0.080
-141.487	-63.578	0.189	-0.076
-140.472	-200.000	-0.000	-0.042
-139.458	-193.181	-0.181	0.002
-138.443	243.520	-0.054	-0.090
-137.429	-200.000	0.022	0.382
-136.414	-162.517	-0.288	-0.014
-135.399	111.610	0.035	-0.041
-134.385	-76.270	-0.083	0.029
-133.370	-60.735	-0.284	-0.118
-132.356	-200.000	-0.087	0.000
-131.341	800.000	-0.072	0.204
-130.326	-200.000	0.041	0.298
-129.312	800.000	0.133	0.488
-128.297	-56.433	-0.267	0.117
-127.283	-200.000	0.028	-0.138
-126.268	-200.000	0.008	0.168
-125.253	195.364	-0.094	0.141
-124.239	11.848	0.129	0.097
-123.224	31.569	0.122	-0.103
-122.210	-63.500	-0.166	-0.067
-121.195	800.000	0.068	-0.224
-120.180	69.090	0.064	-0.064
-119.166	-200.000	0.195	-0.000
-118.151	491.921	-0.151	-0.340
-117.137	124.114	0.195	-0.241
-116.122	24.876	0.244	-0.199
-115.107	-8.345	-0.191	0.126
-114.093	-200.000	-0.055	-0.343
-113.078	-189.480	0.083	-0.001
-112.064	-108.480	-0.183	0.039
-111.049	98.613	0.158	0.179
-110.034	-164.883	-0.236	0.010
-109.020	800.000	0.000	-0.001
-108.005	-200.000	0.023	-0.338
-106.991	-178.123	-0.285	0.007
-105.976	254.996	-0.183	-0.308
-104.962	-200.000	0.044	0.277
-103.947	480.105	0.096	-0.214
-102.932	-105.131	0.108	0.024
-101.918	128.220	0.141	-0.176
-100.903	-128.542	0.241	-0.033
-99.889	-116.609	-0.271	-0.049
-98.874	189.553	-0.094	0.139
-97.859	407.700	-0.103	0.214
-96.845	-169.095	-0.181	-0.007
-95.830	-92.460	-0.308	-0.085
-94.816	742.301	-0.114	-0.300
-93.801	-124.587	-0.246	0.037
-92.786	-106.061	0.255	0.056
-91.772	102.965	0.136	0.157
-90.757	-200.000	0.044	-0.212
-89.743	-200.000	0.008	-0.078
-88.728	-145.989	0.287	0.025
-87.713	-200.000	0.012	0.094
-86.699	-141.121	-0.180	0.018
-85.684	422.591	0.067	-0.142
-84.670	-84.802	0.263	-0.081
-83.655	277.162	-0.034	-0.060
-82.640	-66.528	0.081	0.032
-81.626	-200.000	0.053	-0.323
-80.611	69.984	0.234	-0.236
-79.597	9.169	-0.211	0.156
-78.582	252.395	-0.044	-0.074
-77.567	-200.000	-0.015	-0.180
-76.553	45.581	0.250	0.227
-75.538	-123.146	0.444	0.070
-74.524	-70.180	0.167	-0.062
-73.509	-182.566	-0.198	0.004
-72.494	-104.930	0.280	0.063
-71.480	-48.524	-0.382	0.180
-70.465	-74.436	0.206	-0.073
-69.451	-34.997	-0.167	-0.089
-68.436	-200.000	-0.029	-0.174
-67.422	-131.232	-0.244	0.032
-66.407	-69.300	-0.384	-0.145
-65.392	237.347	0.157	0.256
-64.378	800.000	0.018	-0.062
-63.363	-200.000	-0.004	0.046
-62.349	-200.000	0.040	0.382
-61.334	122.826	-0.710	-0.871
-60.319	42.179	0.440	0.392
-59.305	281.104	-0.569	-0.997
-58.290	113.590	0.980	1.166
-57.276	800.000	0.458	1.279
-56.261	-200.000	106.033	615.991
-55.246	507.331	1510.067	3432.415
-54.232	176.193	2702.648	3844.977
-53.217	111.966	2165.409	2562.375
-52.203	41.499	1599.629	1418.351
-51.188	33.005	1333.445	1131.668
-50.173	29.919	1292.068	1078.559
-49.159	54.635	1346.340	1271.493
-48.144	55.008	1361.658	1288.120
-47.130	33.201	1316.272	1118.076
-46.115	29.671	1298.792	1082.550
-45.100	29.445	1294.118	1077.294
-44.086	29.380	1291.374	1074.588
-43.071	29.212	1289.347	1071.878
-42.057	29.370	1287.106	1070.890
-41.042	29.433	1285.239	1069.662
-40.027	29.491	1283.502	1068.509
-39.013	29.341	1281.798	1066.179
-37.998	29.406	1280.074	1065.082
-36.984	29.448	1278.731	1064.159
-35.969	29.526	1276.459	1062.680
-34.954	29.529	1274.499	1061.019
-33.940	29.534	1273.517	1060.188
-32.925	29.456	1272.211	1058.612
-31.911	29.671	1270.693	1058.542
-30.896	29.649	1269.164	1057.095
-29.881	29.531	1268.131	1055.520
-28.867	29.530	1266.373	1054.012
-27.852	29.494	1265.080	1052.686
-26.838	29.696	1263.496	1052.477
-25.823	29.655	1262.231	1051.148
-24.809	29.593	1260.973	1049.709
-23.794	29.588	1259.678	1048.558
-22.779	29.546	1258.390	1047.205
-21.765	29.698	1256.799	1046.703
-20.750	29.530	1255.895	1044.960
-19.736	29.501	1254.505	1043.596
-18.721	29.408	1253.453	1042.156
-17.706	29.480	1252.336	1041.590
-16.692	29.549	1250.817	1040.676
-15.677	29.465	1250.470	1039.868
-14.663	29.520	1249.030	1038.940
-13.648	29.481	1248.139	1037.940
-12.633	29.399	1247.009	1036.498
-11.619	29.416	1246.084	1035.781
-10.604	29.387	1245.379	1034.991
-9.590	29.449	1244.176	1034.299
-8.575	29.397	1243.614	1033.500
-7.560	29.418	1242.769	1032.874
-6.546	29.535	1241.212	1032.195
-5.531	29.413	1240.414	1030.810
-4.517	29.463	1239.911	1030.627
-3.502	29.394	1239.444	1029.814
-2.487	29.472	1238.130	1029.118
-1.473	29.499	1234.150	1025.919
-0.458	28.010	1219.335	1005.379
0.556	22.095	1202.457	968.270
1.571	18.747	1207.269	953.500
2.586	17.993	1221.989	960.797
3.600	17.911	1211.254	951.817
4.615	13.421	1140.671	872.649
5.629	4.609	1066.314	772.088
6.644	0.070	1046.166	735.285
7.659	-0.298	1043.778	731.747
8.673	-0.393	1042.616	730.404
9.688	-0.458	1040.828	728.771
10.702	0.166	1039.255	730.634
11.717	5.970	1048.024	765.076
12.731	15.046	1060.870	818.979
13.746	19.527	1066.401	845.167
14.761	20.659	1067.239	851.297
15.775	20.582	1067.091	850.729
16.790	20.356	1066.331	848.942
17.804	20.462	1065.656	848.847
18.819	20.468	1065.144	848.392
19.834	20.582	1064.395	848.278
20.848	20.597	1064.430	848.303
21.863	20.481	1063.943	847.275
22.877	20.538	1063.103	846.811
23.892	20.347	1062.775	845.543
24.907	20.537	1061.707	845.545
25.921	20.588	1060.307	844.601
26.936	20.517	1059.085	843.206
27.950	20.478	1057.512	841.690
28.965	20.311	1055.931	839.552
29.980	20.374	1054.256	838.448
30.994	20.635	1053.020	838.652
32.009	20.636	1052.017	837.784
33.023	20.478	1050.321	835.599
34.038	20.493	1050.095	835.417
35.053	20.517	1049.396	834.904
36.067	20.537	1048.638	834.323
37.082	20.688	1047.269	833.883
38.096	20.697	1047.036	833.667
39.111	20.762	1046.602	833.558
40.126	20.705	1044.570	831.594
41.140	20.374	1042.984	828.680
42.155	20.218	1041.600	826.761
43.169	20.213	1040.905	826.115
44.184	20.125	1040.281	825.125
45.199	20.137	1038.917	824.029
46.213	20.267	1037.793	823.679
47.228	20.399	1036.918	823.539
48.242	20.458	1036.156	823.140
49.257	20.484	1035.389	822.584
50.271	20.602	1034.390	822.272
51.286	20.705	1033.573	822.038
52.301	20.791	1032.457	821.485
53.315	20.542	1031.635	819.584
54.330	20.473	1030.894	818.598
55.344	20.490	1030.223	818.071
56.359	20.439	1029.247	816.986
57.374	20.247	1028.443	815.369
58.388	20.295	1027.425	814.719
59.403	20.271	1026.643	813.914
60.417	20.194	1025.549	812.612
61.432	20.426	1024.600	812.876
62.447	20.477	1024.119	812.660
63.461	20.478	1023.256	811.906
64.476	20.364	1022.438	810.657
65.490	20.134	1022.101	809.243
66.505	20.313	1021.189	809.284
67.520	20.350	1020.500	808.840
68.534	20.248	1018.921	807.042
69.549	19.830	1018.151	804.416
70.563	19.896	1017.549	804.174
71.578	19.870	1016.427	803.096
72.593	19.798	1015.287	801.792
73.607	19.937	1014.763	801.953
74.622	20.089	1014.851	802.653
75.636	20.255	1013.850	802.557
76.651	20.031	1013.012	800.789
77.666	20.033	1012.224	800.104
78.680	20.152	1011.435	799.959
79.695	20.260	1010.809	799.893
80.709	20.167	1010.093	798.823
81.724	20.214	1009.639	798.612
82.739	20.378	1008.192	798.150
83.753	20.614	1007.916	798.948
84.768	20.846	1006.836	799.085
85.782	20.848	1006.331	798.623
86.797	20.883	1004.956	797.618
87.812	20.671	1004.086	795.888
88.826	20.787	1003.117	795.581
89.841	20.744	1002.464	794.795
90.855	20.865	1001.406	794.439
91.870	20.716	1000.651	793.090
92.884	20.474	999.877	791.306
93.899	20.743	997.945	790.931
94.914	20.878	997.556	791.164
95.928	20.633	996.255	788.952
96.943	20.388	995.170	786.913
97.957	20.051	994.194	784.542
98.972	20.002	993.062	783.362
99.987	20.428	991.939	784.327
101.001	20.418	991.867	784.157
102.016	20.424	991.043	783.463
103.030	20.247	989.880	781.678
104.045	20.300	988.550	780.795
105.060	20.036	987.923	779.045
106.074	20.314	987.277	779.717
107.089	20.745	986.273	780.789
108.103	20.533	985.452	779.119
109.118	20.328	984.104	777.066
110.133	20.355	983.139	776.356
111.147	20.129	982.185	774.527
112.162	20.020	980.970	773.010
113.176	20.258	980.491	773.625
114.191	20.205	979.796	772.775
115.206	19.876	978.366	770.116
116.220	19.773	977.987	769.288
117.235	19.945	977.001	769.209
118.249	19.981	976.042	768.546
119.264	19.841	975.462	767.399
120.279	19.994	974.185	767.007
121.293	20.035	973.736	766.768
122.308	20.253	972.041	766.328
123.322	20.122	971.009	764.866
124.337	19.875	969.768	762.733
125.352	19.474	968.208	759.674
126.366	19.347	967.284	758.322
127.381	20.191	967.079	761.805
128.395	20.553	966.845	763.143
129.410	20.580	965.589	762.202
130.424	20.591	964.385	761.233
131.439	20.451	963.719	760.028
132.454	20.511	962.879	759.558
133.468	20.492	961.841	758.590
134.483	20.459	961.356	757.998
135.497	20.709	960.808	758.587
136.512	20.826	959.788	758.225
137.527	20.829	958.696	757.306
138.541	20.824	958.141	756.781
139.556	20.770	957.273	755.792
140.570	20.779	956.288	754.987
141.585	20.703	955.436	753.921
142.600	20.596	954.556	752.696
143.614	20.884	953.921	753.371
144.629	21.150	952.590	753.405
145.643	20.792	951.487	750.921
146.658	20.747	950.518	749.898
147.673	20.657	949.390	748.554
148.687	20.649	948.199	747.511
149.702	20.499	947.405	746.176
150.716	20.573	946.700	745.874
151.731	20.662	946.267	745.848
152.746	20.797	945.378	745.661
153.760	20.966	944.523	745.643
154.775	20.905	944.172	745.040
155.789	20.841	943.058	743.819
156.804	20.902	942.073	743.238
157.819	20.871	941.611	742.674
158.833	20.977	940.693	742.338
159.848	21.032	939.714	741.731
160.862	20.635	938.854	739.300
161.877	20.990	937.597	739.750
162.892	20.848	937.236	738.799
163.906	20.796	935.945	737.495
164.921	20.940	934.644	737.014
165.935	20.944	934.012	736.468
166.950	20.867	932.999	735.281
167.964	20.970	932.140	734.972
168.979	20.651	931.275	732.879
169.994	20.743	930.053	732.242
171.008	20.899	930.085	732.857
172.023	20.858	929.132	731.871
173.037	20.596	927.171	729.164
174.052	20.653	926.187	728.562
175.067	20.592	926.114	728.186
176.081	20.775	925.378	728.306
177.096	20.676	924.768	727.347
178.110	20.379	924.163	725.567
179.125	20.203	923.189	724.004
180.140	20.292	922.652	723.890
181.154	20.375	922.664	724.181
182.169	20.757	922.386	725.494
183.183	20.888	921.490	725.270
184.198	20.786	920.817	724.251
185.213	20.749	920.183	723.533
186.227	20.922	919.351	723.534
187.242	20.841	918.637	722.574
188.256	21.016	917.842	722.610
189.271	20.885	916.903	721.263
190.286	20.595	916.290	719.518
191.300	20.180	914.463	716.304
192.315	19.470	912.983	712.154
193.329	19.431	912.863	711.836
194.344	20.341	912.820	715.491
195.359	20.761	913.128	717.399
196.373	20.786	912.567	716.999
197.388	20.605	911.721	715.527
198.402	20.652	911.188	715.240
199.417	20.797	910.314	715.085
200.432	20.504	909.322	713.040
201.446	20.330	908.589	711.690
202.461	20.348	908.231	711.421
203.475	19.471	906.297	706.253
204.490	18.863	904.921	702.632
205.504	19.879	905.521	707.190
206.519	20.355	905.305	708.906
207.534	20.446	904.904	708.900
208.548	20.975	904.491	710.669
209.563	20.624	903.464	708.371
210.577	20.606	903.066	707.923
211.592	20.934	902.719	708.923
212.607	20.864	901.935	707.959
213.621	20.989	901.416	707.996
214.636	21.027	900.420	707.308
215.650	20.751	899.750	705.598
216.665	21.027	899.091	706.136
217.680	21.017	898.355	705.457
218.694	20.453	897.378	702.348
219.709	20.379	896.551	701.339
220.723	20.708	896.323	702.428
221.738	20.770	895.858	702.252
222.753	20.697	895.008	701.226
223.767	20.897	894.482	701.561
224.782	21.099	894.130	702.036
225.796	21.031	893.441	701.157
226.811	20.388	892.119	697.475
227.826	19.692	890.731	693.538
228.840	19.977	890.353	694.323
229.855	20.075	889.606	694.074
230.869	19.692	888.740	691.804
231.884	20.183	888.889	693.821
232.899	20.946	888.744	696.700
233.913	20.792	888.254	695.638
234.928	20.700	887.424	694.559
235.942	20.633	886.689	693.655
236.957	20.356	885.896	691.869
237.972	20.468	885.311	691.799
238.986	20.576	884.832	691.791
240.001	20.365	884.072	690.299
241.015	20.668	883.329	690.862
242.030	20.707	883.090	690.766
243.045	20.924	882.741	691.293
244.059	20.916	882.164	690.748
245.074	20.787	880.998	689.264
246.088	20.519	879.998	687.361
247.103	20.700	880.037	688.045
248.117	21.312	880.003	690.379
249.132	21.323	879.578	690.028
250.147	21.449	879.026	690.028
251.161	21.590	878.270	689.932
252.176	21.526	877.759	689.216
253.190	21.660	877.478	689.461
254.205	21.685	876.831	688.991
255.220	21.690	875.883	688.204
256.234	21.658	875.450	687.677
257.249	21.556	874.584	686.536
258.263	21.526	873.599	685.586
259.278	21.534	873.341	685.355
260.293	21.672	872.673	685.310
261.307	21.611	871.758	684.291
262.322	21.369	870.896	682.610
263.336	20.517	869.298	677.973
264.351	19.552	867.374	672.657
265.366	19.622	867.161	672.703
266.380	20.742	867.643	677.380
267.395	21.171	867.206	678.645
268.409	21.192	866.842	678.382
269.424	21.413	866.143	678.634
270.439	21.361	865.382	677.775
271.453	21.485	865.442	678.243
272.468	21.719	864.636	678.460
273.482	21.663	864.336	677.946
274.497	21.365	862.818	675.546
275.512	20.932	862.170	673.307
276.526	21.361	862.183	674.913
277.541	21.493	861.937	675.171
278.555	21.336	860.827	673.634
279.570	20.955	860.083	671.526
280.585	21.409	859.247	672.561
281.599	21.380	858.417	671.738
282.614	20.799	857.256	668.542
283.628	20.719	857.184	668.118
284.643	21.078	856.433	668.852
285.657	20.686	855.303	666.409
286.672	20.335	855.044	664.805
287.687	20.916	854.948	666.894
288.701	21.047	853.835	666.466
289.716	20.775	852.901	664.644
290.730	20.697	852.400	663.894
291.745	20.329	851.695	661.886
292.760	20.809	851.577	663.563
293.774	21.678	852.074	667.203
294.789	21.940	851.835	667.954
295.803	22.084	850.915	667.722
296.818	21.977	850.339	666.804
297.833	21.615	849.071	664.378
298.847	21.554	848.537	663.669
299.862	21.635	848.575	663.948
300.876	22.009	848.001	664.857
301.891	21.796	847.717	663.767
302.906	21.495	846.303	661.465
303.920	21.592	845.813	661.390
304.935	21.751	846.256	662.279
305.949	21.826	845.080	661.581
306.964	21.558	844.164	659.795
307.979	21.730	844.159	660.383
308.993	22.166	843.656	661.572
310.008	22.042	843.339	660.800
311.022	21.891	841.990	659.115
312.037	21.728	841.853	658.337
313.052	21.489	840.596	656.400
314.066	20.547	839.396	651.873
315.081	20.380	838.814	650.738
316.095	21.344	838.516	654.060
317.110	21.700	838.750	655.515
318.125	20.927	837.295	651.435
319.139	19.883	835.659	646.208
320.154	19.866	835.506	645.966
321.168	20.741	836.071	649.612
322.183	21.438	835.822	651.963
323.197	21.565	835.454	652.090
324.212	21.771	835.215	652.612
325.227	21.771	834.572	652.055
326.241	21.801	833.548	651.306
327.256	21.543	833.390	650.168
328.270	21.575	832.340	649.410
329.285	21.462	831.660	648.403
330.300	21.192	830.947	646.788
331.314	21.394	830.595	647.205
332.329	21.927	830.364	648.941
333.343	21.738	830.262	648.103
334.358	21.777	830.006	647.991
335.373	21.762	829.512	647.492
336.387	22.276	829.282	649.152
337.402	22.377	829.026	649.268
338.416	22.127	828.696	648.031
339.431	22.443	828.245	648.786
340.446	22.583	827.916	648.984
341.460	22.238	827.144	647.054
342.475	22.129	826.899	646.403
343.489	22.253	826.383	646.400
344.504	22.421	826.535	647.080
345.519	22.685	826.011	647.581
346.533	22.634	825.398	646.854
347.548	22.614	824.938	646.363
348.562	22.587	824.491	645.856
349.577	22.575	823.558	645.027
350.592	22.581	823.141	644.665
351.606	22.560	822.713	644.196
352.621	22.573	821.575	643.296
353.635	22.497	820.605	642.200
354.650	21.782	819.169	638.419
355.665	20.824	817.520	633.591
356.679	21.135	818.109	635.127
357.694	21.634	817.503	636.410
358.708	21.517	816.808	635.390
359.723	21.985	816.652	636.909
360.738	22.345	816.512	638.050
361.752	22.399	815.520	637.417
362.767	22.577	815.703	638.147
363.781	22.964	815.078	639.001
364.796	22.965	814.758	638.697
365.810	22.957	814.404	638.335
366.825	22.915	813.895	637.728
367.840	22.680	813.140	636.230
368.854	22.303	812.121	634.019
369.869	22.474	811.576	634.152
370.883	22.397	811.313	633.613
371.898	22.186	811.295	632.786
372.913	22.300	810.917	632.845
373.927	22.460	810.128	632.748
374.942	22.617	809.981	633.140
375.956	22.452	810.385	632.806
376.971	22.730	809.344	632.935
377.986	22.971	808.691	633.235
379.000	22.834	808.212	632.313
380.015	22.660	807.700	631.232
381.029	22.786	807.138	631.186
382.044	22.967	806.361	631.170
383.059	22.924	806.124	630.775
384.073	22.973	805.626	630.504
385.088	22.972	805.073	630.014
386.102	22.854	804.258	628.900
387.117	22.747	803.386	627.781
388.132	22.282	802.409	625.310
389.146	21.894	801.189	622.927
390.161	22.313	801.505	624.604
391.175	22.593	801.446	625.497
392.190	22.212	800.194	623.113
393.205	20.975	798.299	617.206
394.219	19.653	796.805	611.324
395.234	19.611	796.693	611.033
396.248	21.355	797.821	618.017
397.263	22.715	798.589	623.366
398.278	22.592	798.271	622.629
399.292	22.301	797.624	621.041
400.307	22.276	796.923	620.353
401.321	22.390	796.798	620.603
402.336	22.864	796.423	621.924
403.350	23.096	796.557	622.793
404.365	23.406	796.145	623.505
405.380	23.442	796.111	623.550
406.394	23.664	795.417	623.732
407.409	23.478	794.657	622.426
408.423	23.412	794.585	622.084
409.438	23.681	793.751	622.321
410.453	23.668	793.519	622.039
411.467	23.563	792.802	621.052
412.482	23.595	792.266	620.689
413.496	23.756	792.613	621.470
414.511	23.552	792.073	620.280
415.526	23.623	791.263	619.837
416.540	23.434	790.794	618.757
417.555	23.197	790.203	617.411
418.569	23.271	789.569	617.120
419.584	23.298	789.083	616.778
420.599	23.136	788.571	615.760
421.613	157.617	1365.683	1798.685
422.628	136.426	1449.760	1798.781
