DTS Sentinel unit serial number:	SN413079Multiplexer serial number:	ORYXHardware model number:	OX4-SRSoftware version number:	ORYX F/W v4.00 Oryx Data Collector v3.7.2.0data status	okinstallation	princeton_trtdifferential loss correction	single-endedforward channel	channel 1reverse channel	N/Adate	2019/09/12time	04:20:11forward acquisition time	60.00reverse acquisition time	0.00gamma	496.2192k internal	0.2324k external	0.2324temperature offset calibration	1.0083default loss term (dB/km)	0.3790temperature slope calibration	1.0000multiplexer offset coefficient	1.0000multiplexer slope coefficient	1.0000fibre end	0.00T internal ref (°C)	31.75T ext. ref 1 (°C)	2.25T ext. ref 2 (°C)	25.47length (m)	temperature (°C)	Stokes	anti-Stokes-747.200	-114.677	0.280	-0.054
-746.185	2.763	0.087	0.064
-745.171	-142.694	-0.095	-0.009
-744.156	382.274	0.083	0.171
-743.142	86.661	0.262	0.292
-742.127	540.571	0.105	0.251
-741.112	-100.629	0.308	0.077
-740.098	319.361	0.143	0.273
-739.083	102.367	-0.047	0.055
-738.069	-200.000	0.040	0.221
-737.054	62.802	0.078	-0.079
-736.039	-25.328	-0.258	-0.154
-735.025	81.567	0.238	0.260
-734.010	-64.525	-0.476	-0.195
-732.996	-161.620	-0.356	0.018
-731.981	-70.340	0.057	-0.022
-730.966	49.135	-0.112	0.106
-729.952	-53.347	0.228	-0.105
-728.937	89.003	-0.284	-0.319
-727.923	800.000	0.039	-0.165
-726.908	313.815	0.131	-0.249
-725.894	74.067	0.129	-0.136
-724.879	-73.279	0.125	-0.046
-723.864	162.131	0.079	-0.112
-722.850	-200.000	0.023	0.274
-721.835	-200.000	-0.004	0.126
-720.821	168.655	-0.030	0.043
-719.806	113.980	-0.363	0.445
-718.791	-21.920	-0.138	-0.085
-717.777	-200.000	-0.031	-0.297
-716.762	197.762	-0.200	0.308
-715.748	80.012	0.291	-0.315
-714.733	240.396	-0.004	-0.006
-713.718	63.081	-0.147	0.149
-712.704	-74.639	-0.199	0.072
-711.689	-89.378	-0.230	0.068
-710.675	-164.970	0.049	0.002
-709.660	-107.199	-0.252	0.056
-708.645	-126.924	-0.328	-0.049
-707.631	-16.503	0.047	-0.030
-706.616	211.122	0.012	-0.020
-705.602	-200.000	-0.059	-0.615
-704.587	-200.000	0.024	-0.136
-703.572	97.873	-0.222	-0.257
-702.558	800.000	-0.045	0.142
-701.543	46.619	-0.109	0.102
-700.529	-145.681	0.058	-0.005
-699.514	-200.000	0.004	-0.042
-698.499	-153.502	0.387	-0.027
-697.485	67.164	-0.057	-0.058
-696.470	-43.803	0.113	-0.057
-695.456	-102.042	-0.175	-0.042
-694.441	-200.000	0.029	0.373
-693.426	103.637	-0.196	0.232
-692.412	38.286	0.126	-0.113
-691.397	-124.015	-0.424	0.067
-690.383	237.078	-0.097	-0.163
-689.368	-120.361	-0.179	-0.031
-688.354	276.112	-0.057	0.102
-687.339	207.481	0.290	0.455
-686.324	46.056	0.295	-0.275
-685.310	-200.000	-0.023	0.285
-684.295	122.567	-0.196	-0.247
-683.281	176.692	-0.028	-0.040
-682.266	-112.219	-0.355	-0.072
-681.251	-8.674	0.164	-0.111
-680.237	224.056	-0.040	0.065
-679.222	450.730	0.058	-0.129
-678.208	238.278	-0.180	0.302
-677.193	-100.049	-0.208	0.052
-676.178	-200.000	-0.017	0.238
-675.164	577.687	-0.072	-0.178
-674.149	-46.424	0.229	0.113
-673.135	713.255	0.166	-0.444
-672.120	58.137	-0.164	-0.161
-671.105	-84.264	0.187	-0.059
-670.091	633.167	-0.055	-0.140
-669.076	-88.346	-0.396	0.119
-668.062	-200.000	-0.006	0.314
-667.047	-73.344	0.367	0.135
-666.032	800.000	0.094	-0.272
-665.018	146.775	0.074	-0.100
-664.003	-200.000	0.028	0.336
-662.989	800.000	-0.092	0.281
-661.974	-67.321	0.372	0.147
-660.959	100.787	0.098	0.115
-659.945	83.997	-0.089	-0.097
-658.930	-24.772	0.171	-0.102
-657.916	-60.736	-0.177	-0.076
-656.901	-200.000	-0.031	-0.250
-655.886	336.608	-0.132	-0.257
-654.872	-113.708	-0.260	-0.051
-653.857	-84.211	0.138	0.044
-652.843	140.919	0.010	-0.014
-651.828	-14.339	-0.176	0.114
-650.814	-84.482	-0.349	0.111
-649.799	-200.000	-0.034	-0.250
-648.784	272.893	-0.031	0.056
-647.770	-94.236	-0.202	-0.056
-646.755	-79.455	-0.206	-0.070
-645.741	232.051	0.116	-0.192
-644.726	-8.197	0.239	0.162
-643.711	800.000	-0.041	-0.121
-642.697	57.519	-0.145	0.142
-641.682	800.000	0.039	0.163
-640.668	-17.769	0.239	-0.151
-639.653	-200.000	-0.059	0.316
-638.638	561.595	-0.025	-0.060
-637.624	-200.000	-0.020	-0.111
-636.609	-89.841	0.553	-0.162
-635.595	106.642	-0.097	0.116
-634.580	477.827	0.135	0.308
-633.565	-29.020	0.328	0.189
-632.551	579.722	-0.023	0.056
-631.536	800.000	0.027	0.078
-630.522	54.460	0.200	0.194
-629.507	-200.000	-0.050	0.228
-628.492	-35.006	0.115	0.063
-627.478	-70.423	0.099	0.038
-626.463	-88.718	-0.289	-0.086
-625.449	77.030	-0.114	-0.122
-624.434	67.642	0.034	-0.034
-623.419	-79.925	0.238	0.080
-622.405	-200.000	0.004	-0.061
-621.390	-141.892	0.272	0.027
-620.376	-138.555	0.383	-0.042
-619.361	-96.122	0.124	-0.033
-618.346	-20.022	-0.298	0.185
-617.332	15.710	-0.155	-0.123
-616.317	204.304	-0.032	0.050
-615.303	-200.000	0.000	0.239
-614.288	474.465	-0.119	0.270
-613.273	800.000	0.016	-0.062
-612.259	-113.794	0.179	-0.035
-611.244	-47.356	0.061	0.030
-610.230	87.421	0.155	-0.172
-609.215	-24.585	0.188	-0.113
-608.201	500.646	0.146	-0.337
-607.186	34.677	0.127	-0.112
-606.171	75.423	-0.171	0.182
-605.157	113.524	-0.122	-0.149
-604.142	-89.719	0.314	0.092
-603.128	-145.315	-0.182	-0.016
-602.113	-138.403	-0.232	0.026
-601.098	-200.000	-0.045	-0.552
-600.084	-17.940	0.107	-0.067
-599.069	7.340	0.185	0.139
-598.055	-155.485	-0.117	0.008
-597.040	-59.316	-0.232	-0.100
-596.025	289.074	0.068	-0.124
-595.011	221.867	0.023	-0.037
-593.996	317.256	-0.133	-0.253
-592.982	800.000	-0.048	0.162
-591.967	-103.643	0.129	-0.030
-590.952	-119.858	-0.378	-0.065
-589.938	86.148	0.100	0.110
-588.923	-108.452	-0.437	-0.095
-587.909	35.218	0.059	0.052
-586.894	-200.000	0.006	0.274
-585.879	-200.000	-0.079	-0.396
-584.865	232.965	0.129	-0.213
-583.850	24.185	0.161	0.133
-582.836	-107.868	-0.356	-0.078
-581.821	800.000	0.107	-0.299
-580.806	-159.287	-0.159	-0.009
-579.792	-12.829	0.133	0.087
-578.777	172.719	-0.190	-0.275
-577.763	-71.853	0.147	-0.055
-576.748	-200.000	-0.027	0.202
-575.733	528.331	-0.063	0.149
-574.719	24.882	-0.339	0.282
-573.704	-165.953	-0.234	-0.010
-572.690	-123.887	0.031	0.005
-571.675	274.235	0.047	-0.084
-570.661	7.993	-0.293	-0.221
-569.646	43.672	0.300	0.275
-568.631	-171.253	0.176	0.006
-567.617	341.115	-0.098	0.192
-566.602	-200.000	0.004	0.030
-565.588	-78.478	-0.232	-0.080
-564.573	-66.375	-0.331	0.132
-563.558	489.564	-0.126	-0.288
-562.544	1.700	-0.081	0.058
-561.529	-9.751	0.195	-0.130
-560.515	15.711	0.205	0.161
-559.500	-121.762	-0.211	0.035
-558.485	-31.449	-0.215	-0.121
-557.471	-200.000	0.009	-0.119
-556.456	66.158	0.076	0.078
-555.442	800.000	-0.033	0.127
-554.427	-82.315	-0.257	-0.084
-553.412	800.000	0.080	0.226
-552.398	-136.085	0.312	-0.037
-551.383	-122.178	-0.208	-0.034
-550.369	-102.482	0.299	0.072
-549.354	-3.012	-0.162	0.113
-548.339	391.852	0.146	-0.303
-547.325	-200.000	-0.026	-0.166
-546.310	-200.000	-0.046	-0.236
-545.296	422.921	0.084	-0.181
-544.281	-133.505	-0.286	0.036
-543.266	-97.541	0.433	-0.113
-542.252	183.044	-0.067	-0.099
-541.237	454.060	-0.132	0.294
-540.223	-37.237	0.261	-0.140
-539.208	-108.155	-0.491	0.106
-538.193	-57.906	-0.348	-0.152
-537.179	-60.589	0.202	0.086
-536.164	-163.422	0.224	0.011
-535.150	-145.193	-0.193	0.018
-534.135	-200.000	-0.001	0.052
-533.121	-184.533	-0.103	0.002
-532.106	-97.689	0.420	-0.109
-531.091	102.159	-0.141	-0.165
-530.077	-12.141	0.068	-0.045
-529.062	-130.569	0.178	0.024
-528.048	314.448	0.152	-0.287
-527.033	1.905	-0.182	0.132
-526.018	-50.912	0.189	-0.089
-525.004	-200.000	0.033	-0.221
-523.989	-56.361	0.114	0.051
-522.975	-200.000	-0.009	0.074
-521.960	-200.000	0.016	0.086
-520.945	-87.869	0.162	-0.049
-519.931	88.965	0.078	0.087
-518.916	-86.432	-0.150	0.046
-517.902	49.179	-0.158	0.148
-516.887	-200.000	-0.002	0.396
-515.872	226.083	0.160	0.260
-514.858	-102.993	0.199	-0.047
-513.843	-184.666	-0.167	-0.003
-512.829	-99.298	0.239	0.060
-511.814	234.554	0.035	0.058
-510.799	-178.730	-0.232	-0.005
-509.785	2.446	0.268	0.194
-508.770	715.196	-0.065	-0.171
-507.756	4.602	-0.227	-0.167
-506.741	-200.000	0.019	-0.547
-505.726	-2.385	-0.193	0.135
-504.712	185.330	-0.085	0.126
-503.697	-68.884	-0.063	-0.024
-502.683	-47.147	-0.216	0.105
-501.668	-59.780	-0.244	0.105
-500.653	763.383	0.065	-0.176
-499.639	132.661	0.028	0.036
-498.624	-37.789	0.295	-0.157
-497.610	37.126	0.377	-0.334
-496.595	-200.000	-0.049	-0.244
-495.581	800.000	-0.104	0.397
-494.566	71.969	-0.072	-0.075
-493.551	-43.361	0.160	0.081
-492.537	776.111	0.024	-0.067
-491.522	-200.000	-0.002	0.076
-490.508	-92.978	-0.118	-0.033
-489.493	279.534	-0.147	0.262
-488.478	-18.186	-0.146	-0.091
-487.464	327.093	-0.050	0.096
-486.449	221.923	0.169	0.271
-485.435	-111.722	0.101	0.020
-484.420	72.526	-0.135	-0.141
-483.405	-200.000	-0.436	-0.002
-482.391	-110.041	-0.353	0.074
-481.376	800.000	-0.041	0.159
-480.362	-75.779	0.150	0.053
-479.347	-132.846	0.037	-0.005
-478.332	-192.071	-0.043	-0.000
-477.318	-142.815	-0.183	0.018
-476.303	-58.492	0.216	0.094
-475.289	-36.615	0.229	0.123
-474.274	-36.544	-0.167	0.090
-473.259	-86.738	-0.079	0.024
-472.245	29.825	0.047	0.040
-471.230	319.351	-0.080	-0.152
-470.216	680.209	-0.038	0.100
-469.201	-110.586	-0.243	0.050
-468.186	800.000	-0.068	0.282
-467.172	-98.321	0.391	-0.100
-466.157	-101.278	-0.178	-0.043
-465.143	70.119	0.211	-0.218
-464.128	-173.458	-0.105	0.003
-463.113	54.913	-0.252	-0.243
-462.099	-25.585	0.350	-0.207
-461.084	-127.635	-0.290	0.042
-460.070	122.891	-0.189	-0.236
-459.055	173.898	0.065	-0.093
-458.040	-62.707	-0.259	-0.107
-457.026	-200.000	0.004	-0.120
-456.011	45.724	-0.029	0.027
-454.997	-23.575	0.095	-0.057
-453.982	229.346	0.134	-0.219
-452.968	-200.000	0.015	0.115
-451.953	-200.000	0.005	0.094
-450.938	34.375	-0.059	-0.051
-449.924	263.521	-0.116	-0.202
-448.909	800.000	-0.091	-0.315
-447.895	-87.683	0.131	-0.040
-446.880	171.612	0.133	-0.191
-445.865	-113.828	0.064	0.012
-444.851	800.000	0.069	0.195
-443.836	46.072	-0.133	0.122
-442.822	-114.923	-0.301	0.057
-441.807	-36.620	0.180	0.097
-440.792	-103.244	0.317	-0.075
-439.778	366.968	0.052	0.104
-438.763	555.869	-0.058	0.140
-437.749	-200.000	0.048	-0.537
-436.734	-106.323	-0.416	-0.093
-435.719	797.500	0.042	0.116
-434.705	12.330	0.196	0.150
-433.690	-40.269	0.073	-0.038
-432.676	-200.000	0.075	0.349
-431.661	319.307	0.163	0.308
-430.646	-12.841	-0.146	-0.095
-429.632	44.355	0.124	0.114
-428.617	-58.852	0.099	-0.043
-427.603	787.937	0.097	-0.267
-426.588	68.376	0.067	0.069
-425.573	-200.000	0.016	-0.287
-424.559	-200.000	0.003	-0.047
-423.544	-3.468	-0.270	0.187
-422.530	-74.204	0.336	0.121
-421.515	-57.426	0.165	0.072
-420.500	-109.810	-0.384	0.080
-419.486	-200.000	-0.013	0.065
-418.471	66.430	-0.125	-0.127
-417.457	189.309	0.138	0.207
-416.442	295.120	-0.055	-0.100
-415.428	212.270	-0.063	-0.099
-414.413	175.339	0.174	0.251
-413.398	-6.889	0.078	-0.053
-412.384	485.068	-0.072	-0.164
-411.369	-200.000	0.027	0.152
-410.355	70.127	0.092	0.095
-409.340	379.826	0.077	0.156
-408.325	-9.408	0.219	0.146
-407.311	-13.742	0.342	-0.220
-406.296	18.143	-0.180	0.143
-405.282	-200.000	0.034	0.148
-404.267	180.439	-0.084	0.123
-403.252	-151.077	-0.464	0.035
-402.238	347.331	0.070	0.138
-401.223	500.411	-0.118	0.272
-400.209	-200.000	-0.026	0.194
-399.194	214.016	-0.035	-0.055
-398.179	40.780	-0.095	0.085
-397.165	148.402	0.245	-0.329
-396.150	88.253	0.124	-0.137
-395.136	495.593	-0.050	-0.115
-394.121	570.686	-0.129	-0.313
-393.106	492.688	-0.120	0.274
-392.092	-200.000	0.019	-0.122
-391.077	800.000	-0.021	-0.067
-390.063	344.678	0.055	0.108
-389.048	26.335	-0.217	-0.181
-388.033	177.223	0.123	-0.179
-387.019	-152.023	0.171	-0.012
-386.004	-200.000	-0.022	0.143
-384.990	800.000	-0.018	-0.067
-383.975	362.010	-0.151	-0.301
-382.960	800.000	0.021	0.060
-381.946	147.793	0.236	-0.317
-380.931	122.991	0.048	0.060
-379.917	800.000	0.111	-0.385
-378.902	-39.870	-0.072	-0.038
-377.888	-200.000	-0.016	-0.166
-376.873	33.195	0.151	-0.130
-375.858	17.291	0.095	-0.075
-374.844	40.015	-0.223	0.199
-373.829	364.662	-0.043	0.086
-372.815	-178.240	-0.408	0.010
-371.800	-95.613	0.238	-0.063
-370.785	-69.859	-0.145	-0.055
-369.771	-135.820	-0.328	0.039
-368.756	-200.000	0.009	0.115
-367.742	744.395	0.102	0.274
-366.727	-76.128	0.079	-0.028
-365.712	-48.598	0.093	0.044
-364.698	800.000	0.060	-0.223
-363.683	473.868	0.109	-0.244
-362.669	-4.809	-0.117	0.080
-361.654	102.964	0.199	0.231
-360.639	321.170	0.082	0.155
-359.625	234.742	-0.142	0.234
-358.610	256.041	-0.155	-0.265
-357.596	800.000	-0.094	-0.262
-356.581	-83.204	-0.047	-0.015
-355.566	-127.766	0.156	-0.022
-354.552	-200.000	-0.020	-0.115
-353.537	78.891	0.248	-0.264
-352.523	-200.000	-0.019	0.225
-351.508	-8.024	0.240	0.161
-350.493	-200.000	0.083	0.372
-349.479	-37.096	0.335	0.178
-348.464	-200.000	-0.049	-0.288
-347.450	214.436	-0.181	-0.285
-346.435	-191.820	-0.529	-0.005
-345.420	-191.038	-0.131	-0.001
-344.406	-126.279	0.229	0.034
-343.391	254.002	-0.027	0.045
-342.377	-54.156	-0.221	0.100
-341.362	8.940	0.157	-0.118
-340.348	85.172	-0.305	-0.333
-339.333	-200.000	0.045	-0.328
-338.318	-200.000	-0.008	0.095
-337.304	800.000	-0.058	0.234
-336.289	720.688	-0.118	0.311
-335.275	-200.000	0.022	0.198
-334.260	142.002	0.115	-0.151
-333.245	48.557	0.202	0.188
-332.231	-25.166	-0.359	0.211
-331.216	-200.000	0.007	-0.078
-330.202	800.000	-0.084	-0.301
-329.187	78.083	0.325	0.345
-328.172	379.219	-0.047	0.095
-327.158	-71.444	-0.191	0.071
-326.143	1.485	-0.328	0.234
-325.129	-30.314	0.333	0.188
-324.114	-153.781	-0.314	0.021
-323.099	115.651	-0.138	-0.168
-322.085	-49.136	0.258	0.123
-321.070	-45.298	0.197	-0.097
-320.056	-5.627	-0.339	0.231
-319.041	18.009	-0.041	0.032
-318.026	234.100	0.156	-0.255
-317.012	-80.301	-0.097	-0.032
-315.997	-200.000	-0.021	-0.204
-314.983	-160.250	-0.280	-0.015
-313.968	744.400	-0.124	-0.330
-312.953	41.778	-0.258	-0.232
-311.939	-114.743	0.203	0.038
-310.924	-54.293	0.397	0.179
-309.910	-167.124	0.019	0.001
-308.895	-90.256	-0.217	0.062
-307.880	-109.694	-0.283	0.059
-306.866	91.691	-0.131	0.147
-305.851	-151.044	0.305	-0.023
-304.837	-200.000	-0.064	-0.295
-303.822	393.778	-0.108	-0.223
-302.807	234.389	-0.098	0.161
-301.793	-149.711	0.284	0.022
-300.778	-86.441	0.438	-0.134
-299.764	-53.040	0.321	0.146
-298.749	15.726	0.184	0.143
-297.735	-3.264	0.193	0.133
-296.720	-68.248	0.070	0.027
-295.705	51.295	-0.029	-0.028
-294.691	576.870	-0.027	-0.064
-293.676	-102.358	-0.264	-0.063
-292.662	74.252	-0.156	0.162
-291.647	41.474	0.155	0.139
-290.632	32.040	-0.173	-0.148
-289.618	48.983	0.165	0.154
-288.603	306.116	0.027	0.050
-287.589	184.623	-0.050	-0.073
-286.574	98.830	0.112	0.128
-285.559	-200.000	0.000	-0.267
-284.545	39.739	-0.159	-0.141
-283.530	16.859	0.107	0.084
-282.516	72.982	-0.234	0.243
-281.501	-18.345	-0.281	0.174
-280.486	-155.102	-0.162	0.011
-279.472	-200.000	-0.011	-0.092
-278.457	-163.576	-0.418	-0.020
-277.443	800.000	0.027	-0.111
-276.428	-200.000	0.012	0.173
-275.413	145.978	0.067	0.090
-274.399	-149.635	0.251	-0.020
-273.384	-200.000	0.012	-0.351
-272.370	-58.520	0.043	0.018
-271.355	-101.896	-0.043	-0.010
-270.340	-200.000	0.002	0.014
-269.326	-109.215	0.172	0.036
-268.311	42.281	-0.152	-0.137
-267.297	800.000	0.050	0.198
-266.282	-46.370	0.303	-0.148
-265.267	77.313	-0.092	-0.097
-264.253	223.151	0.084	0.134
-263.238	198.013	-0.251	0.380
-262.224	-200.000	0.038	0.180
-261.209	-59.742	0.401	-0.170
-260.195	-200.000	-0.003	-0.174
-259.180	429.149	-0.030	0.065
-258.165	290.731	-0.089	-0.161
-257.151	387.846	0.195	-0.400
-256.136	800.000	-0.046	-0.152
-255.122	88.375	0.091	0.100
-254.107	71.766	0.051	-0.052
-253.092	-200.000	0.003	0.348
-252.078	-74.956	-0.187	0.066
-251.063	574.725	-0.160	0.388
-250.049	191.073	-0.051	-0.076
-249.034	153.465	-0.211	-0.286
-248.019	19.810	0.076	-0.061
-247.005	43.948	0.111	0.101
-245.990	95.777	0.019	0.022
-244.976	800.000	-0.004	-0.016
-243.961	-81.122	-0.189	-0.062
-242.946	-54.935	0.288	-0.129
-241.932	29.375	-0.195	0.164
-240.917	689.696	-0.120	-0.312
-239.903	-41.605	0.168	0.085
-238.888	-200.000	0.051	0.296
-237.873	-200.000	0.015	0.252
-236.859	-200.000	-0.015	-0.112
-235.844	-33.324	-0.328	0.179
-234.830	-200.000	0.037	0.260
-233.815	800.000	-0.042	0.133
-232.800	-200.000	0.005	-0.063
-231.786	-71.408	-0.228	-0.084
-230.771	-165.444	0.195	-0.008
-229.757	-118.724	-0.177	0.031
-228.742	106.237	-0.057	-0.067
-227.727	-124.294	-0.136	-0.021
-226.713	-7.988	-0.241	-0.161
-225.698	-156.228	0.212	0.013
-224.684	-169.740	-0.070	-0.002
-223.669	-56.673	0.040	-0.018
-222.655	15.771	0.088	0.068
-221.640	800.000	0.030	-0.089
-220.625	-200.000	-0.001	-0.211
-219.611	116.320	0.143	-0.174
-218.596	27.227	0.131	-0.109
-217.582	-14.200	0.085	-0.054
-216.567	217.909	-0.155	-0.244
-215.552	-134.189	-0.113	0.014
-214.538	-74.929	0.042	0.015
-213.523	273.773	-0.221	0.386
-212.509	-130.405	-0.122	-0.016
-211.494	-83.829	0.202	0.063
-210.479	59.415	-0.232	0.226
-209.465	13.742	0.088	0.068
-208.450	-200.000	0.056	0.354
-207.436	-121.623	-0.303	-0.050
-206.421	-97.280	-0.251	-0.065
-205.406	180.181	0.131	0.190
-204.392	-76.399	0.077	-0.027
-203.377	-200.000	-0.008	-0.047
-202.363	-31.095	-0.187	-0.104
-201.348	-200.000	-0.032	0.145
-200.333	-200.000	0.033	0.164
-199.319	-62.038	0.055	0.023
-198.304	-169.924	0.148	0.005
-197.290	97.648	-0.126	-0.143
-196.275	800.000	0.080	0.262
-195.260	-200.000	0.057	-0.309
-194.246	16.417	-0.269	-0.210
-193.231	39.857	-0.172	0.153
-192.217	163.593	0.027	0.037
-191.202	678.186	0.054	-0.138
-190.187	-115.917	0.213	-0.039
-189.173	-67.007	0.231	0.090
-188.158	290.318	-0.174	-0.312
-187.144	800.000	0.133	-0.417
-186.129	-24.469	0.345	0.203
-185.114	-187.221	0.156	-0.002
-184.100	-89.040	-0.146	0.043
-183.085	-77.692	0.243	-0.083
-182.071	49.527	-0.109	-0.101
-181.056	4.326	0.245	-0.177
-180.042	-200.000	-0.047	0.472
-179.027	41.427	-0.079	-0.071
-178.012	-200.000	0.010	0.198
-176.998	-200.000	-0.023	0.191
-175.983	18.173	0.262	0.206
-174.969	138.763	-0.092	-0.120
-173.954	122.423	-0.035	-0.043
-172.939	112.427	0.195	0.233
-171.925	-16.786	0.303	0.189
-170.910	-57.069	0.154	0.067
-169.896	84.331	0.133	-0.143
-168.881	-200.000	-0.021	0.097
-167.866	-94.709	-0.266	0.071
-166.852	52.582	-0.129	-0.122
-165.837	-78.233	0.201	-0.068
-164.823	399.779	0.028	-0.059
-163.808	92.970	-0.026	-0.029
-162.793	-169.359	0.265	0.010
-161.779	800.000	0.055	0.225
-160.764	-62.817	-0.219	0.089
-159.750	58.125	0.174	-0.169
-158.735	800.000	0.083	0.268
-157.720	-63.474	0.114	-0.046
-156.706	800.000	-0.036	-0.124
-155.691	40.111	0.032	0.029
-154.677	-24.415	0.209	0.123
-153.662	8.684	0.094	-0.070
-152.647	-36.007	-0.053	0.028
-151.633	-157.614	0.299	-0.018
-150.618	-125.284	0.257	-0.039
-149.604	135.569	-0.119	-0.153
-148.589	800.000	0.060	0.234
-147.574	-27.486	0.256	-0.147
-146.560	-28.708	-0.311	-0.176
-145.545	-139.515	-0.268	0.028
-144.531	-200.000	0.010	-0.093
-143.516	496.816	-0.048	-0.109
-142.502	66.237	-0.091	0.091
-141.487	69.444	-0.333	0.338
-140.472	-40.226	-0.365	-0.187
-139.458	42.110	0.220	-0.197
-138.443	-69.776	0.238	0.089
-137.429	800.000	0.020	-0.057
-136.414	-134.742	0.179	-0.021
-135.399	65.772	-0.241	-0.241
-134.385	-67.060	-0.307	0.119
-133.370	208.948	0.126	-0.194
-132.356	800.000	0.072	0.277
-131.341	14.731	0.047	-0.036
-130.326	122.284	0.062	0.077
-129.312	-11.915	-0.215	0.139
-128.297	800.000	0.081	0.273
-127.283	-80.784	-0.303	0.099
-126.268	-4.502	-0.102	0.070
-125.253	203.564	-0.188	-0.286
-124.239	78.691	-0.013	0.014
-123.224	115.511	-0.106	0.128
-122.210	113.078	0.124	-0.149
-121.195	-70.362	-0.150	-0.056
-120.180	11.218	-0.180	-0.136
-119.166	800.000	0.103	0.418
-118.151	-200.000	-0.028	-0.149
-117.137	-20.277	-0.150	0.091
-116.122	31.859	-0.135	0.115
-115.107	-64.170	0.117	0.047
-114.093	165.146	0.014	0.020
-113.078	-200.000	0.064	-0.287
-112.064	83.699	-0.147	0.158
-111.049	-168.814	0.253	0.009
-110.034	85.427	-0.069	-0.075
-109.020	800.000	-0.090	-0.246
-108.005	-200.000	0.001	-0.030
-106.991	-56.094	0.257	-0.113
-105.976	-200.000	-0.036	-0.217
-104.962	-200.000	-0.019	0.168
-103.947	-155.516	-0.288	-0.018
-102.932	127.464	-0.179	-0.224
-101.918	-116.383	0.391	0.071
-100.903	800.000	0.053	0.188
-99.889	98.079	-0.212	-0.240
-98.874	-52.663	-0.146	0.066
-97.859	-185.292	-0.204	0.003
-96.845	81.151	0.239	0.254
-95.830	-200.000	0.030	0.217
-94.816	-121.426	-0.025	0.004
-93.801	307.262	0.050	0.092
-92.786	209.120	0.146	0.225
-91.772	61.022	-0.084	0.082
-90.757	-155.861	0.090	0.006
-89.743	605.175	0.066	0.163
-88.728	194.222	0.143	0.214
-87.713	88.989	0.184	-0.201
-86.699	74.466	-0.304	-0.315
-85.684	-71.868	0.114	-0.042
-84.670	-113.562	-0.334	-0.064
-83.655	42.857	0.382	-0.342
-82.640	132.066	0.238	-0.302
-81.626	489.951	0.026	-0.058
-80.611	-200.000	-0.005	-0.156
-79.597	-88.389	-0.388	-0.114
-78.582	13.980	0.222	-0.170
-77.567	-65.707	-0.049	0.019
-76.553	359.767	-0.153	0.301
-75.538	-80.205	-0.238	-0.079
-74.524	131.342	-0.181	0.228
-73.509	377.222	-0.029	0.058
-72.494	-200.000	0.001	0.066
-71.480	324.916	-0.122	0.230
-70.465	13.437	0.182	0.139
-69.451	785.513	0.105	0.283
-68.436	-179.266	-0.532	0.012
-67.422	-107.403	0.087	-0.019
-66.407	-200.000	0.106	0.000
-65.392	-54.898	0.081	-0.036
-64.378	150.419	-0.040	-0.054
-63.363	-47.161	-0.085	-0.041
-62.349	-102.788	0.136	-0.032
-61.334	-2.797	-1.186	-0.815
-60.319	60.886	0.354	0.345
-59.305	-200.000	-0.104	-0.813
-58.290	800.000	0.365	1.155
-57.276	800.000	0.555	1.507
-56.261	-200.000	97.944	601.510
-55.246	544.856	1374.344	3226.566
-54.232	161.642	2550.282	3507.654
-53.217	112.987	2131.436	2538.804
-52.203	43.731	1593.571	1433.292
-51.188	35.372	1332.140	1148.338
-50.173	32.145	1290.489	1093.637
-49.159	55.441	1338.618	1272.925
-48.144	57.455	1354.758	1300.132
-47.130	35.469	1313.489	1132.654
-46.115	31.871	1296.195	1096.696
-45.100	31.776	1290.477	1091.260
-44.086	31.759	1288.525	1089.467
-43.071	31.576	1286.172	1086.375
-42.057	31.652	1283.930	1084.879
-41.042	31.602	1282.744	1083.545
-40.027	31.621	1281.013	1082.148
-39.013	31.612	1279.757	1080.994
-37.998	31.703	1277.807	1079.827
-36.984	31.794	1275.630	1078.469
-35.969	31.784	1273.999	1076.989
-34.954	31.663	1272.523	1075.004
-33.940	31.813	1270.687	1074.271
-32.925	31.883	1269.711	1073.803
-31.911	31.840	1268.155	1072.200
-30.896	31.846	1266.716	1070.973
-29.881	31.816	1265.309	1069.568
-28.867	31.823	1263.871	1068.354
-27.852	31.920	1262.498	1067.704
-26.838	31.863	1261.227	1066.262
-25.823	31.845	1259.634	1064.770
-24.809	31.806	1258.331	1063.406
-23.794	31.865	1257.040	1062.604
-22.779	31.763	1256.087	1061.180
-21.765	31.819	1254.608	1060.207
-20.750	31.887	1253.249	1059.398
-19.736	31.697	1252.458	1057.614
-18.721	31.723	1250.766	1056.291
-17.706	31.712	1249.716	1055.299
-16.692	31.689	1248.612	1054.196
-15.677	31.787	1247.268	1053.573
-14.663	31.695	1246.570	1052.422
-13.648	31.719	1245.550	1051.654
-12.633	31.777	1243.960	1050.597
-11.619	31.700	1243.704	1049.908
-10.604	31.770	1242.356	1049.118
-9.590	31.597	1242.097	1047.892
-8.575	31.561	1241.275	1046.952
-7.560	31.577	1240.164	1046.061
-6.546	31.698	1238.809	1045.556
-5.531	31.687	1237.893	1044.676
-4.517	31.581	1237.730	1043.909
-3.502	31.629	1236.902	1043.437
-2.487	31.631	1235.602	1042.309
-1.473	31.530	1231.496	1038.241
-0.458	30.208	1216.290	1018.129
0.556	27.533	1200.260	983.537
1.571	24.649	1207.127	973.396
2.586	24.132	1222.884	983.161
3.600	23.743	1211.857	972.077
4.615	17.536	1138.679	881.281
5.629	7.244	1062.381	772.224
6.644	2.635	1041.436	734.870
7.659	2.225	1039.341	731.368
8.673	2.030	1038.191	729.559
9.688	2.111	1036.637	728.792
10.702	2.644	1035.575	730.520
11.717	9.397	1045.384	769.774
12.731	19.337	1059.448	828.037
13.746	24.206	1064.814	855.598
14.761	25.383	1066.103	862.215
15.775	25.346	1066.193	862.030
16.790	25.131	1064.853	859.842
17.804	25.202	1064.399	859.740
18.819	25.278	1064.114	859.795
19.834	25.365	1063.536	859.668
20.848	25.407	1063.531	859.790
21.863	25.461	1062.669	859.278
22.877	25.313	1062.005	857.957
23.892	25.352	1061.270	857.473
24.907	25.405	1060.757	857.233
25.921	25.436	1059.435	856.236
26.936	25.344	1058.205	854.731
27.950	25.230	1056.878	853.040
28.965	25.185	1055.007	851.244
29.980	25.260	1053.748	850.504
30.994	25.485	1052.435	850.437
32.009	25.402	1051.834	849.482
33.023	25.439	1049.987	848.091
34.038	25.290	1049.623	847.017
35.053	25.468	1048.867	847.173
36.067	25.419	1048.068	846.223
37.082	25.384	1047.501	845.524
38.096	25.560	1047.242	846.069
39.111	25.604	1046.019	845.211
40.126	25.690	1044.202	844.074
41.140	25.309	1043.076	841.302
42.155	25.046	1041.299	838.566
43.169	25.075	1040.484	837.968
44.184	25.013	1040.197	837.375
45.199	25.028	1039.079	836.472
46.213	25.111	1038.428	836.258
47.228	25.210	1037.739	836.093
48.242	25.309	1036.656	835.606
49.257	25.357	1035.924	835.164
50.271	25.518	1035.306	835.343
51.286	25.508	1034.289	834.403
52.301	25.561	1033.318	833.789
53.315	25.495	1032.376	832.648
54.330	25.355	1031.721	831.399
55.344	25.492	1030.829	831.243
56.359	25.279	1030.266	829.727
57.374	25.201	1029.032	828.304
58.388	25.209	1028.387	827.744
59.403	24.919	1027.761	825.831
60.417	24.925	1026.686	824.923
61.432	25.031	1026.137	824.898
62.447	25.192	1025.091	824.724
63.461	25.172	1024.779	824.306
64.476	25.138	1023.922	823.389
65.490	25.133	1022.600	822.229
66.505	25.254	1021.913	822.158
67.520	25.226	1021.479	821.607
68.534	24.863	1020.744	819.286
69.549	24.727	1019.257	817.395
70.563	24.685	1018.213	816.293
71.578	24.796	1017.588	816.226
72.593	24.468	1016.497	813.785
73.607	24.595	1016.663	814.425
74.622	24.997	1016.009	815.661
75.636	25.008	1015.514	815.239
76.651	24.737	1014.389	813.034
77.666	24.732	1013.879	812.531
78.680	24.821	1013.042	812.191
79.695	24.948	1012.316	812.114
80.709	24.988	1011.706	811.733
81.724	25.049	1010.574	811.030
82.739	25.029	1010.449	810.767
83.753	25.462	1009.784	812.120
84.768	25.766	1008.632	812.495
85.782	25.824	1008.244	812.368
86.797	25.636	1007.250	810.651
87.812	25.460	1006.180	808.927
88.826	25.593	1005.360	808.795
89.841	25.710	1004.356	808.436
90.855	25.793	1003.203	807.811
91.870	25.629	1002.655	806.563
92.884	25.372	1001.938	804.763
93.899	25.336	1000.954	803.741
94.914	25.715	1000.118	804.692
95.928	25.458	998.969	802.551
96.943	25.247	997.686	800.506
97.957	24.973	996.284	798.091
98.972	24.831	995.405	796.682
99.987	25.155	995.075	797.792
101.001	25.289	994.649	797.974
102.016	25.272	993.349	796.786
103.030	25.375	992.030	796.112
104.045	25.197	991.065	794.481
105.060	24.931	990.452	792.740
106.074	25.136	990.145	793.331
107.089	25.447	989.416	794.052
108.103	25.332	988.149	792.460
109.118	25.055	987.066	790.299
110.133	25.215	986.091	790.151
111.147	24.689	985.554	787.334
112.162	24.763	983.974	786.329
113.176	25.043	983.678	787.255
114.191	25.082	982.572	786.473
115.206	24.684	981.781	784.022
116.220	24.705	981.110	783.507
117.235	24.771	980.142	782.957
118.249	24.721	979.366	782.050
119.264	24.822	978.438	781.681
120.279	24.818	977.671	780.979
121.293	24.762	977.166	780.263
122.308	24.845	976.246	779.820
123.322	24.715	975.001	778.191
124.337	24.637	973.709	776.755
125.352	24.180	972.096	773.413
126.366	24.127	971.233	772.429
127.381	24.956	971.284	775.995
128.395	25.352	970.678	777.158
129.410	25.380	970.106	776.751
130.424	25.401	969.007	775.891
131.439	25.313	968.309	774.884
132.454	25.227	967.584	773.868
133.468	25.313	966.726	773.482
134.483	25.465	965.685	773.233
135.497	25.651	965.242	773.613
136.512	25.517	964.326	772.231
137.527	25.579	963.301	771.612
138.541	25.729	962.578	771.605
139.556	25.588	962.307	770.715
140.570	25.667	961.640	770.453
141.585	25.709	960.102	769.329
142.600	25.582	959.174	767.978
143.614	25.731	959.129	768.511
144.629	25.878	958.107	768.251
145.643	25.618	956.588	765.855
146.658	25.599	955.048	764.475
147.673	25.526	954.179	763.401
148.687	25.225	953.818	761.766
149.702	25.261	952.264	760.611
150.716	25.254	951.718	760.080
151.731	25.445	951.227	760.428
152.746	25.703	950.274	760.691
153.760	25.705	949.970	760.389
154.775	25.880	949.085	760.351
155.789	25.797	948.411	759.394
156.804	25.771	947.299	758.328
157.819	25.796	946.484	757.713
158.833	25.893	945.844	757.540
159.848	25.902	944.756	756.641
160.862	25.651	943.825	754.773
161.877	25.694	942.854	754.110
162.892	25.861	941.532	753.686
163.906	25.677	940.774	752.242
164.921	25.760	939.857	751.791
165.935	25.720	939.189	751.022
166.950	25.754	938.033	750.173
167.964	25.614	937.450	749.057
168.979	25.617	936.523	748.262
169.994	25.512	935.593	747.016
171.008	25.910	934.867	748.025
172.023	25.764	934.167	746.790
173.037	25.801	932.645	745.663
174.052	25.533	932.083	744.036
175.067	25.539	931.433	743.477
176.081	25.484	930.858	742.728
177.096	25.481	930.539	742.393
178.110	25.139	929.626	740.189
179.125	25.103	929.011	739.483
180.140	25.152	928.267	739.030
181.154	25.368	927.980	739.623
182.169	25.664	928.179	740.938
183.183	25.690	927.663	740.564
184.198	25.765	926.531	739.903
185.213	25.697	926.091	739.209
186.227	25.742	925.166	738.588
187.242	25.567	925.220	737.850
188.256	25.705	924.183	737.521
189.271	25.793	923.290	737.106
190.286	25.530	922.472	735.312
191.300	24.953	920.604	731.400
192.315	23.999	919.236	726.360
193.329	24.003	918.528	725.750
194.344	24.951	919.139	730.035
195.359	25.595	918.936	732.431
196.373	25.697	918.478	732.417
197.388	25.420	918.069	730.899
198.402	25.495	917.828	730.947
199.417	25.821	916.217	730.923
200.432	25.408	915.807	728.856
201.446	25.239	915.275	727.683
202.461	25.168	914.890	727.028
203.475	24.425	912.668	722.191
204.490	23.774	911.076	718.236
205.504	24.556	911.673	721.805
206.519	25.308	911.627	724.742
207.534	25.233	911.149	723.994
208.548	25.858	910.895	726.248
209.563	25.513	910.182	724.228
210.577	25.479	909.176	723.224
211.592	25.927	908.874	724.721
212.607	25.777	908.483	723.744
213.621	25.850	907.659	723.318
214.636	25.803	906.788	722.372
215.650	25.821	906.077	721.811
216.665	25.935	906.056	722.189
217.680	25.844	904.998	720.917
218.694	25.446	903.972	718.442
219.709	25.209	903.010	716.672
220.723	25.530	902.529	717.507
221.738	25.644	902.039	717.509
222.753	25.541	901.865	716.893
223.767	25.870	901.011	717.465
224.782	25.951	901.168	717.847
225.796	25.825	900.506	716.757
226.811	25.241	898.948	713.133
227.826	24.504	897.433	708.940
228.840	24.840	897.032	709.895
229.855	25.041	896.118	709.905
230.869	24.634	895.174	707.483
231.884	24.816	895.689	708.547
232.899	25.559	895.360	711.164
233.913	25.539	894.464	710.313
234.928	25.608	894.137	710.264
235.942	25.471	893.688	709.301
236.957	25.221	892.533	707.335
237.972	25.259	892.285	707.229
238.986	25.410	891.695	707.292
240.001	25.345	891.018	706.437
241.015	25.390	890.580	706.205
242.030	25.690	889.618	706.556
243.045	25.622	889.996	706.526
244.059	25.843	889.150	706.661
245.074	25.649	888.515	705.333
246.088	25.269	887.521	702.992
247.103	25.503	886.986	703.420
248.117	26.108	887.174	705.874
249.132	26.360	886.748	706.461
250.147	26.610	885.958	706.743
251.161	26.531	886.052	706.449
252.176	26.357	885.389	705.178
253.190	26.639	884.297	705.346
254.205	26.749	883.976	705.453
255.220	26.644	883.468	704.577
256.234	26.596	882.742	703.749
257.249	26.407	881.863	702.251
258.263	26.533	881.067	702.046
259.278	26.477	880.645	701.429
260.293	26.601	880.360	701.622
261.307	26.348	879.992	700.288
262.322	26.383	878.476	699.154
263.336	25.442	877.164	694.412
264.351	24.326	875.176	688.471
265.366	24.623	874.782	689.247
266.380	25.776	875.422	694.136
267.395	26.237	874.815	695.370
268.409	26.144	874.291	694.533
269.424	26.295	874.122	694.920
270.439	26.361	873.296	694.455
271.453	26.403	872.802	694.162
272.468	26.643	872.486	694.770
273.482	26.766	871.938	694.741
274.497	26.135	871.128	691.620
275.512	25.907	869.898	689.709
276.526	26.285	870.156	691.298
277.541	26.445	869.552	691.369
278.555	26.233	869.073	690.118
279.570	26.097	868.015	688.696
280.585	26.277	867.330	688.779
281.599	26.087	866.788	687.564
282.614	25.531	865.162	684.099
283.628	25.659	864.991	684.391
284.643	25.949	864.596	685.118
285.657	25.557	863.426	682.644
286.672	25.239	862.901	680.959
287.687	25.949	862.580	683.340
288.701	26.012	862.154	683.182
289.716	25.495	861.498	680.642
290.730	25.608	860.591	680.295
291.745	25.338	859.793	678.582
292.760	25.618	859.835	679.612
293.774	26.727	860.255	684.072
294.789	26.949	859.681	684.394
295.803	26.979	859.231	684.089
296.818	26.923	858.465	683.207
297.833	26.491	857.219	680.530
298.847	26.298	856.730	679.359
299.862	26.572	856.550	680.185
300.876	26.842	856.423	681.038
301.891	26.810	855.501	680.124
302.906	26.334	854.654	677.608
303.920	26.455	854.364	677.770
304.935	26.801	854.374	679.012
305.949	26.913	853.439	678.630
306.964	26.586	852.697	676.755
307.979	26.622	852.276	676.498
308.993	27.065	852.218	678.045
310.008	27.050	851.288	677.190
311.022	26.632	850.546	674.982
312.037	26.493	849.936	673.920
313.052	26.229	849.097	672.215
314.066	25.579	847.178	668.219
315.081	25.187	846.925	666.505
316.095	26.070	847.236	669.971
317.110	26.468	847.051	671.241
318.125	25.700	845.632	667.215
319.139	24.666	843.789	661.873
320.154	24.575	843.692	661.404
321.168	25.501	844.346	665.284
322.183	26.227	844.601	668.115
323.197	26.485	843.782	668.360
324.212	26.599	843.479	668.484
325.227	26.657	842.852	668.140
326.241	26.468	842.396	667.023
327.256	26.300	841.918	665.965
328.270	26.356	841.168	665.518
329.285	26.252	840.133	664.260
330.300	26.087	839.039	662.729
331.314	26.137	839.356	663.106
332.329	26.597	839.239	664.642
333.343	26.763	839.089	665.074
334.358	26.643	838.256	663.917
335.373	26.734	838.398	664.303
336.387	27.088	838.159	665.353
337.402	27.225	838.176	665.807
338.416	26.980	837.710	664.481
339.431	27.190	837.233	664.813
340.446	27.342	836.833	664.994
341.460	27.177	836.466	664.038
342.475	27.144	835.264	662.905
343.489	27.081	835.537	662.834
344.504	27.289	835.355	663.389
345.519	27.505	834.669	663.574
346.533	27.800	834.111	664.145
347.548	27.434	834.318	662.916
348.562	27.492	833.312	662.270
349.577	27.685	832.528	662.291
350.592	27.472	832.028	661.060
351.606	27.430	831.376	660.330
352.621	27.428	830.406	659.497
353.635	27.351	829.416	658.374
354.650	26.450	828.313	654.182
355.665	25.522	826.574	649.401
356.679	26.170	826.806	651.864
357.694	26.491	826.181	652.472
358.708	26.449	825.630	651.830
359.723	26.755	825.659	652.895
360.738	27.143	825.262	653.922
361.752	27.292	824.675	653.933
362.767	27.532	824.295	654.437
363.781	27.870	824.101	655.438
364.796	27.939	823.535	655.177
365.810	28.030	823.302	655.262
366.825	27.942	822.882	654.553
367.840	27.657	822.238	652.963
368.854	27.190	821.226	650.429
369.869	27.153	821.073	650.119
370.883	27.262	820.438	649.947
371.898	27.166	820.029	649.224
372.913	27.400	819.639	649.693
373.927	27.460	819.116	649.436
374.942	27.549	819.346	649.878
375.956	27.638	818.558	649.512
376.971	27.592	818.259	649.055
377.986	27.766	817.978	649.391
379.000	27.820	817.186	648.899
380.015	27.747	816.355	647.922
381.029	27.816	816.031	647.854
382.044	27.873	815.357	647.461
383.059	27.725	814.875	646.496
384.073	27.962	814.199	646.741
385.088	27.805	814.294	646.205
386.102	27.748	812.969	644.896
387.117	27.687	812.214	644.024
388.132	27.228	811.188	641.534
389.146	26.968	810.113	639.712
390.161	27.143	810.343	640.452
391.175	27.572	810.444	641.988
392.190	27.365	809.269	640.272
393.205	25.852	807.279	633.328
394.219	24.362	805.565	626.697
395.234	24.309	805.388	626.316
396.248	26.103	806.734	633.611
397.263	27.566	807.548	639.332
398.278	27.287	807.047	637.903
399.292	27.144	806.232	636.698
400.307	27.254	805.775	636.670
401.321	27.201	805.733	636.393
402.336	27.704	805.347	637.791
403.350	27.939	806.092	639.148
404.365	28.326	805.319	639.828
405.380	28.645	805.028	640.656
406.394	28.626	804.509	640.117
407.409	28.573	803.946	639.430
408.423	28.514	803.352	638.693
409.438	28.663	803.227	639.058
410.453	28.612	802.769	638.461
411.467	28.442	802.407	637.524
412.482	28.469	802.023	637.255
413.496	28.647	801.722	637.580
414.511	28.620	800.856	636.739
415.526	28.547	800.378	636.052
416.540	28.583	799.881	635.723
417.555	28.267	799.116	633.968
418.569	28.219	798.866	633.545
419.584	28.312	798.383	633.427
420.599	28.185	797.657	632.359
421.613	112.025	1286.728	1459.701
422.628	96.604	1357.970	1459.804
