DTS Sentinel unit serial number:	SN413079Multiplexer serial number:	ORYXHardware model number:	OX4-SRSoftware version number:	ORYX F/W v4.00 Oryx Data Collector v3.7.2.0data status	okinstallation	princeton_trtdifferential loss correction	single-endedforward channel	channel 1reverse channel	N/Adate	2019/09/12time	00:08:11forward acquisition time	60.00reverse acquisition time	0.00gamma	496.2192k internal	0.2318k external	0.2318temperature offset calibration	1.0071default loss term (dB/km)	0.3790temperature slope calibration	1.0000multiplexer offset coefficient	1.0000multiplexer slope coefficient	1.0000fibre end	0.00T internal ref (°C)	33.66T ext. ref 1 (°C)	2.00T ext. ref 2 (°C)	28.27length (m)	temperature (°C)	Stokes	anti-Stokes-747.200	186.638	0.065	-0.098
-746.185	-200.000	-0.069	0.313
-745.171	98.994	0.071	-0.083
-744.156	-200.000	-0.023	-0.119
-743.142	800.000	-0.030	-0.087
-742.127	-200.000	0.048	0.398
-741.112	-154.874	0.493	0.033
-740.098	-34.593	-0.051	-0.028
-739.083	15.083	0.257	0.204
-738.069	-153.584	0.212	-0.015
-737.054	379.175	0.045	0.093
-736.039	-167.993	-0.160	-0.006
-735.025	-200.000	0.002	0.010
-734.010	-151.360	0.056	0.004
-732.996	9.774	-0.157	0.120
-731.981	-200.000	-0.018	-0.454
-730.966	322.690	-0.049	0.095
-729.952	800.000	0.073	-0.208
-728.937	578.709	0.225	-0.558
-727.923	34.594	0.223	-0.197
-726.908	-30.604	-0.202	-0.116
-725.894	-91.236	0.297	-0.086
-724.879	-89.951	-0.295	-0.087
-723.864	514.701	0.105	0.249
-722.850	2.743	-0.058	-0.043
-721.835	-149.428	-0.419	-0.034
-720.821	-65.689	-0.224	0.091
-719.806	-120.891	0.331	-0.056
-718.791	309.974	0.107	-0.203
-717.777	610.745	-0.128	0.322
-716.762	-72.060	-0.235	0.088
-715.748	800.000	-0.066	0.262
-714.733	-22.892	0.239	-0.146
-713.718	-200.000	0.009	-0.263
-712.704	310.926	0.139	-0.263
-711.689	13.382	-0.264	-0.207
-710.675	-200.000	0.023	0.334
-709.660	-81.663	0.160	0.053
-708.645	-200.000	0.029	0.174
-707.631	800.000	0.055	-0.224
-706.616	182.444	-0.117	0.174
-705.602	233.832	0.132	-0.219
-704.587	104.044	-0.120	-0.143
-703.572	-87.438	0.410	-0.125
-702.558	22.523	-0.179	-0.148
-701.543	800.000	0.020	-0.058
-700.529	-124.990	0.357	-0.056
-699.514	-59.985	0.256	0.110
-698.499	-165.898	-0.117	-0.005
-697.485	-200.000	-0.004	-0.259
-696.470	-110.090	0.169	-0.036
-695.456	434.359	-0.096	-0.211
-694.441	315.882	0.106	0.203
-693.426	103.298	0.055	-0.065
-692.412	-34.100	0.112	0.062
-691.397	-4.149	0.173	-0.121
-690.383	246.989	-0.071	0.121
-689.368	337.090	0.070	0.137
-688.354	800.000	-0.119	-0.332
-687.339	-46.941	-0.280	-0.138
-686.324	-46.375	-0.243	0.121
-685.310	273.344	-0.022	0.039
-684.295	800.000	0.027	-0.115
-683.281	309.035	-0.096	-0.181
-682.266	563.206	-0.075	-0.182
-681.251	57.876	-0.307	0.304
-680.237	800.000	-0.084	0.333
-679.222	-63.381	0.288	-0.120
-678.208	-200.000	0.361	-0.001
-677.193	-57.532	0.179	-0.079
-676.178	38.776	-0.193	-0.174
-675.164	-200.000	-0.015	-0.252
-674.149	800.000	0.045	-0.167
-673.135	85.577	0.039	0.043
-672.120	144.775	-0.177	0.238
-671.105	-99.738	0.172	0.044
-670.091	521.728	-0.169	0.399
-669.076	566.709	0.143	0.351
-668.062	-91.734	-0.347	-0.100
-667.047	800.000	-0.040	-0.150
-666.032	-200.000	-0.076	-0.344
-665.018	800.000	0.019	-0.054
-664.003	220.507	-0.177	-0.286
-662.989	-200.000	0.061	-0.280
-661.974	478.621	0.042	0.096
-660.959	100.296	0.227	0.266
-659.945	-13.810	-0.246	0.161
-658.930	301.187	0.017	-0.031
-657.916	-200.000	-0.001	0.017
-656.901	162.746	0.073	0.103
-655.886	43.291	-0.083	-0.077
-654.872	-197.358	-0.203	-0.001
-653.857	-200.000	0.024	-0.133
-652.843	216.423	0.013	0.021
-651.828	-118.449	-0.307	-0.055
-650.814	-150.151	-0.398	-0.031
-649.799	220.779	-0.142	0.229
-648.784	532.856	0.054	0.129
-647.770	-144.090	-0.234	0.022
-646.755	-84.545	-0.072	-0.023
-645.741	-200.000	0.011	-0.382
-644.726	180.816	0.067	0.099
-643.711	107.358	-0.238	-0.286
-642.697	-86.128	-0.309	-0.096
-641.682	-200.000	-0.019	-0.097
-640.668	62.987	0.165	0.167
-639.653	480.727	0.053	0.120
-638.638	344.752	-0.147	-0.291
-637.624	-128.943	0.179	-0.025
-636.609	800.000	-0.059	0.213
-635.595	250.371	0.063	-0.108
-634.580	-200.000	0.026	0.355
-633.565	800.000	-0.028	-0.106
-632.551	-165.169	-0.105	-0.005
-631.536	-17.473	-0.105	0.066
-630.522	125.286	-0.195	-0.248
-629.507	800.000	0.027	0.085
-628.492	-151.592	0.284	0.021
-627.478	-200.000	0.008	-0.171
-626.463	62.361	-0.233	0.235
-625.449	502.815	-0.137	0.319
-624.434	-200.000	0.048	-0.253
-623.419	-200.000	-0.044	-0.384
-622.405	274.604	-0.138	-0.247
-621.390	147.791	0.132	0.179
-620.376	-200.000	-0.012	-0.334
-619.361	239.935	-0.126	0.212
-618.346	-151.978	0.191	-0.014
-617.332	-76.066	-0.307	-0.109
-616.317	195.994	0.029	0.045
-615.303	-41.270	-0.293	-0.152
-614.288	-101.552	-0.190	0.046
-613.273	-200.000	-0.017	-0.117
-612.259	-200.000	-0.030	0.248
-611.244	800.000	0.055	0.169
-610.230	-121.716	0.205	-0.034
-609.215	800.000	0.059	0.186
-608.201	209.208	-0.250	-0.394
-607.186	-43.049	0.365	-0.186
-606.171	431.082	0.063	-0.137
-605.157	-13.802	-0.083	0.054
-604.142	-36.475	-0.182	0.098
-603.128	-116.928	-0.199	-0.037
-602.113	-124.671	0.335	-0.052
-601.098	-50.333	0.307	0.146
-600.084	-200.000	0.002	0.133
-599.069	25.754	-0.179	-0.150
-598.055	143.704	0.116	-0.156
-597.040	150.216	0.052	0.072
-596.025	579.923	0.054	-0.133
-595.011	-98.802	0.313	0.080
-593.996	-13.121	0.125	0.082
-592.982	312.983	-0.109	0.205
-591.967	299.841	-0.196	0.364
-590.952	-59.733	0.122	-0.053
-589.938	356.056	0.146	0.293
-588.923	800.000	0.106	0.305
-587.909	-200.000	-0.008	-0.243
-586.894	-200.000	0.021	0.133
-585.879	39.491	-0.136	0.123
-584.865	800.000	0.041	-0.138
-583.850	-107.395	0.139	0.031
-582.836	-107.969	-0.293	0.064
-581.821	97.603	0.075	-0.087
-580.806	-200.000	0.012	0.149
-579.792	-200.000	0.041	0.273
-578.777	116.847	0.181	-0.223
-577.763	-67.766	0.166	0.065
-576.748	-97.537	0.030	-0.008
-575.733	47.394	0.093	-0.087
-574.719	-111.433	-0.233	0.048
-573.704	16.480	-0.231	0.184
-572.690	-105.068	-0.156	-0.036
-571.675	470.788	0.098	-0.221
-570.661	-116.528	0.304	0.056
-569.646	413.905	-0.086	0.183
-568.631	800.000	0.031	-0.130
-567.617	11.724	-0.069	0.053
-566.602	-200.000	-0.048	-0.529
-565.588	74.813	0.045	-0.048
-564.573	15.929	-0.267	-0.211
-563.558	315.976	0.048	-0.091
-562.544	-75.011	0.460	-0.165
-561.529	50.226	0.350	0.332
-560.515	-0.215	-0.043	0.031
-559.500	98.332	0.108	0.126
-558.485	-159.035	0.094	-0.005
-557.471	193.078	-0.282	-0.429
-556.456	-108.959	-0.163	-0.035
-555.442	-152.918	-0.055	0.004
-554.427	-200.000	0.017	-0.242
-553.412	14.891	0.022	0.017
-552.398	567.115	0.091	0.222
-551.383	800.000	-0.057	0.171
-550.369	-200.000	-0.034	0.267
-549.354	-36.123	-0.309	0.167
-548.339	14.732	0.100	0.078
-547.325	-200.000	-0.015	0.072
-546.310	-200.000	0.000	-0.185
-545.296	215.007	-0.030	-0.048
-544.281	-123.041	-0.300	0.048
-543.266	-71.905	-0.042	-0.016
-542.252	31.129	0.255	-0.220
-541.237	-85.137	-0.106	-0.033
-540.223	40.744	-0.195	0.177
-539.208	-140.621	-0.330	0.034
-538.193	-91.668	-0.048	-0.014
-537.179	767.977	-0.011	-0.029
-536.164	264.035	0.070	-0.123
-535.150	800.000	-0.069	-0.239
-534.135	-108.088	0.295	-0.064
-533.121	491.066	-0.103	-0.237
-532.106	-11.260	0.226	0.149
-531.091	174.214	0.102	-0.147
-530.077	-93.145	-0.131	0.036
-529.062	139.756	0.147	0.194
-528.048	-71.793	0.195	-0.073
-527.033	20.157	-0.114	-0.093
-526.018	-63.461	0.150	0.062
-525.004	-88.997	-0.141	-0.042
-523.989	-32.744	-0.192	0.107
-522.975	-143.803	0.330	-0.031
-521.960	-200.000	-0.018	-0.084
-520.945	55.838	0.102	0.099
-519.931	-11.933	0.403	0.265
-518.916	513.561	0.103	-0.242
-517.902	-189.420	0.125	0.001
-516.887	-85.177	0.222	-0.070
-515.872	-200.000	0.029	0.200
-514.858	78.036	-0.165	-0.176
-513.843	-200.000	-0.046	0.363
-512.829	800.000	-0.054	-0.219
-511.814	-200.000	0.000	0.137
-510.799	-107.233	-0.094	0.021
-509.785	-122.223	-0.216	-0.035
-508.770	-200.000	0.022	-0.156
-507.756	-45.036	0.418	-0.209
-506.741	800.000	0.045	-0.131
-505.726	94.081	0.108	-0.123
-504.712	-74.357	0.065	-0.024
-503.697	106.196	0.094	-0.111
-502.683	170.182	-0.059	0.085
-501.668	-200.000	-0.017	0.134
-500.653	-200.000	0.007	0.043
-499.639	139.555	0.102	0.135
-498.624	522.718	0.095	-0.223
-497.610	6.069	-0.511	-0.379
-496.595	-168.215	-0.387	0.015
-495.581	9.921	0.182	-0.139
-494.566	800.000	0.012	0.034
-493.551	-90.819	0.119	-0.034
-492.537	56.075	-0.449	-0.437
-491.522	88.173	-0.124	-0.138
-490.508	18.514	0.151	0.121
-489.493	-166.393	0.289	0.012
-488.478	-128.927	-0.191	-0.027
-487.464	-58.397	-0.429	0.187
-486.449	466.656	-0.115	0.259
-485.435	20.375	0.158	-0.128
-484.420	236.859	-0.114	-0.190
-483.405	-4.646	0.292	-0.202
-482.391	800.000	0.041	-0.128
-481.376	-102.924	0.252	0.060
-480.362	247.715	-0.184	0.312
-479.347	318.058	-0.151	0.287
-478.332	372.454	-0.095	0.193
-477.318	98.275	0.064	-0.074
-476.303	-95.639	0.454	-0.122
-475.289	-108.282	0.274	0.059
-474.274	-100.782	-0.271	0.067
-473.259	800.000	-0.047	-0.160
-472.245	67.252	-0.232	0.237
-471.230	20.854	-0.168	0.136
-470.216	-180.951	-0.069	0.001
-469.201	759.814	0.054	-0.147
-468.186	284.569	0.051	0.091
-467.172	-120.914	-0.220	-0.037
-466.157	140.355	0.173	-0.228
-465.143	-113.628	-0.264	-0.052
-464.128	-200.000	-0.001	-0.060
-463.113	-161.575	0.060	0.003
-462.099	-133.436	-0.160	0.020
-461.084	-200.000	-0.044	0.377
-460.070	383.072	-0.084	0.173
-459.055	-1.989	0.097	-0.068
-458.040	373.966	0.061	0.125
-457.026	-200.000	-0.003	0.272
-456.011	4.108	-0.220	0.161
-454.997	-125.281	-0.158	-0.024
-453.982	-200.000	0.014	0.315
-452.968	523.565	-0.150	0.352
-451.953	-195.119	0.365	-0.003
-450.938	800.000	-0.103	-0.302
-449.924	271.625	-0.153	0.269
-448.909	-200.000	0.036	0.269
-447.895	23.945	0.185	-0.153
-446.880	-200.000	-0.021	0.230
-445.865	800.000	0.071	0.261
-444.851	-57.225	0.072	-0.032
-443.836	800.000	-0.098	0.286
-442.822	-57.491	0.335	-0.147
-441.807	86.202	-0.192	0.211
-440.792	423.642	-0.032	0.068
-439.778	-72.437	-0.112	0.042
-438.763	17.325	-0.118	-0.094
-437.749	800.000	0.017	-0.073
-436.734	102.744	-0.136	-0.159
-435.719	4.143	-0.220	-0.161
-434.705	-200.000	0.017	-0.446
-433.690	70.691	0.165	-0.171
-432.676	77.788	0.062	0.066
-431.661	-117.514	-0.145	0.026
-430.646	87.731	-0.129	-0.143
-429.632	83.623	-0.052	-0.057
-428.617	44.009	-0.146	-0.134
-427.603	93.981	0.176	0.199
-426.588	27.092	-0.264	-0.221
-425.573	158.530	-0.057	-0.078
-424.559	-66.546	-0.222	-0.088
-423.544	551.311	0.091	-0.218
-422.530	-80.889	0.281	-0.093
-421.515	-55.731	-0.141	-0.063
-420.500	98.896	0.159	-0.183
-419.486	-66.070	0.134	-0.053
-418.471	732.303	0.085	0.227
-417.457	-34.648	-0.239	-0.131
-416.442	-44.770	0.092	0.046
-415.428	89.634	-0.132	0.147
-414.413	36.604	-0.313	-0.276
-413.398	119.600	0.168	-0.208
-412.384	219.518	-0.105	-0.168
-411.369	-24.269	0.350	-0.209
-410.355	42.146	0.022	0.020
-409.340	-146.306	-0.155	-0.014
-408.325	99.830	0.103	0.119
-407.311	-2.146	-0.415	-0.291
-406.296	-36.958	0.436	-0.234
-405.282	-200.000	-0.019	0.168
-404.267	-137.858	-0.121	-0.014
-403.252	800.000	0.058	0.250
-402.238	-200.000	0.028	-0.247
-401.223	172.689	0.119	-0.171
-400.209	237.647	-0.041	0.067
-399.194	458.523	0.086	0.190
-398.179	-200.000	-0.028	0.473
-397.165	800.000	-0.011	-0.032
-396.150	-67.241	0.218	-0.086
-395.136	-66.991	0.356	-0.140
-394.121	800.000	0.085	0.237
-393.106	800.000	0.009	0.029
-392.092	-200.000	-0.001	-0.260
-391.077	800.000	-0.078	0.268
-390.063	11.689	0.198	-0.151
-389.048	-56.327	-0.090	0.040
-388.033	27.231	0.341	0.286
-387.019	158.798	-0.301	0.417
-386.004	-105.687	-0.018	0.004
-384.990	-4.950	0.250	0.172
-383.975	65.098	0.146	0.147
-382.960	-200.000	0.009	-0.339
-381.946	-182.985	0.224	0.004
-380.931	-200.000	0.052	-0.535
-379.917	98.461	-0.125	-0.144
-378.902	-200.000	-0.028	0.259
-377.888	198.277	0.115	0.175
-376.873	-11.888	0.220	0.144
-375.858	292.850	0.136	0.248
-374.844	477.602	-0.034	-0.078
-373.829	201.782	-0.103	-0.158
-372.815	-135.289	-0.161	-0.019
-371.800	-93.431	0.096	-0.026
-370.785	800.000	0.049	0.170
-369.771	363.533	0.094	-0.189
-368.756	-200.000	0.049	-0.417
-367.742	86.585	0.092	0.102
-366.727	197.192	0.212	0.323
-365.712	-87.340	-0.224	-0.068
-364.698	193.580	0.068	-0.103
-363.683	-200.000	0.077	-0.422
-362.669	800.000	0.053	0.156
-361.654	800.000	0.094	-0.300
-360.639	-200.000	-0.024	0.110
-359.625	48.882	0.098	-0.092
-358.610	64.888	0.076	0.077
-357.596	-10.676	-0.218	0.144
-356.581	-41.057	0.157	0.081
-355.566	131.849	-0.145	0.186
-354.552	-200.000	-0.024	0.213
-353.537	-200.000	0.010	-0.111
-352.523	-200.000	0.023	-0.247
-351.508	-82.783	-0.281	-0.091
-350.493	-123.410	0.158	-0.025
-349.479	-200.000	-0.036	0.261
-348.464	97.841	0.034	0.039
-347.450	-146.643	0.139	-0.012
-346.435	-42.315	0.174	0.089
-345.420	746.088	-0.161	0.432
-344.406	800.000	0.028	-0.093
-343.391	314.841	-0.042	-0.079
-342.377	-24.856	-0.295	0.175
-341.362	568.147	0.096	-0.231
-340.348	-68.340	-0.197	-0.076
-339.333	132.026	-0.075	0.097
-338.318	33.635	-0.197	0.170
-337.304	-6.926	0.127	-0.086
-336.289	-58.554	-0.274	0.118
-335.275	-95.702	-0.256	-0.068
-334.260	-64.168	0.177	0.072
-333.245	-5.765	0.062	0.042
-332.231	-200.000	-0.016	-0.086
-331.216	28.203	-0.335	-0.282
-330.202	-200.000	0.000	0.140
-329.187	-104.091	0.320	0.074
-328.172	-32.844	-0.198	-0.109
-327.158	11.611	0.117	-0.089
-326.143	-124.441	-0.214	0.033
-325.129	-200.000	-0.046	-0.337
-324.114	260.710	0.195	-0.336
-323.099	800.000	0.071	0.264
-322.085	539.585	0.082	-0.194
-321.070	-200.000	0.017	0.128
-320.056	-109.188	0.235	-0.050
-319.041	-200.000	0.026	-0.392
-318.026	-200.000	-0.003	0.036
-317.012	-200.000	0.009	0.336
-315.997	25.559	-0.063	-0.052
-314.983	39.011	0.221	-0.197
-313.968	-200.000	-0.023	0.517
-312.953	426.808	-0.118	0.253
-311.939	-81.659	-0.186	0.061
-310.924	-113.948	-0.151	-0.029
-309.910	82.653	0.291	-0.314
-308.895	17.845	-0.090	-0.071
-307.880	554.371	-0.110	-0.263
-306.866	-58.209	0.473	0.205
-305.851	-114.696	0.065	0.012
-304.837	-95.962	0.260	0.069
-303.822	31.324	-0.152	-0.130
-302.807	-77.290	-0.153	0.053
-301.793	-65.575	0.083	0.033
-300.778	-96.101	-0.137	0.036
-299.764	-14.317	-0.186	-0.119
-298.749	800.000	0.029	-0.097
-297.735	21.555	-0.119	0.096
-296.720	-130.213	-0.415	0.056
-295.705	262.378	0.161	0.278
-294.691	-67.750	0.157	0.061
-293.676	-58.693	0.234	0.101
-292.662	-126.024	-0.143	-0.021
-291.647	527.365	-0.109	-0.256
-290.632	-27.233	0.333	-0.193
-289.618	-61.210	0.402	-0.169
-288.603	-119.737	-0.320	-0.055
-287.589	98.806	-0.048	0.055
-286.574	-127.325	0.324	-0.047
-285.559	800.000	-0.056	-0.193
-284.545	-51.453	0.073	0.034
-283.530	-200.000	0.012	0.136
-282.516	800.000	-0.053	0.158
-281.501	31.670	0.123	0.105
-280.486	-123.266	-0.159	-0.025
-279.472	107.173	0.234	0.276
-278.457	-200.000	0.014	0.188
-277.443	-1.572	-0.156	-0.109
-276.428	-126.179	-0.212	-0.031
-275.413	86.998	0.113	-0.124
-274.399	-90.524	-0.382	-0.110
-273.384	-200.000	-0.002	-0.099
-272.370	736.220	0.093	0.247
-271.355	-46.111	-0.345	0.169
-270.340	-83.536	-0.086	0.027
-269.326	-143.381	0.231	0.022
-268.311	-83.920	-0.219	0.069
-267.297	607.541	-0.069	-0.172
-266.282	-200.000	-0.004	0.037
-265.267	277.570	0.060	-0.105
-264.253	-200.000	-0.021	0.148
-263.238	165.287	-0.198	0.277
-262.224	-147.952	-0.167	0.014
-261.209	8.259	0.282	0.210
-260.195	195.889	-0.048	-0.072
-259.180	800.000	-0.153	0.427
-258.165	200.282	-0.152	0.232
-257.151	-200.000	-0.003	0.325
-256.136	-200.000	0.019	0.197
-255.122	119.134	-0.082	0.101
-254.107	107.837	-0.148	-0.175
-253.092	-144.473	0.214	-0.020
-252.078	-200.000	0.007	0.150
-251.063	-136.453	0.261	-0.030
-250.049	211.340	-0.033	-0.052
-249.034	30.868	0.099	-0.084
-248.019	-75.341	-0.136	-0.048
-247.005	-145.487	0.156	-0.014
-245.990	529.228	0.026	-0.062
-244.976	7.002	-0.251	-0.185
-243.961	-200.000	0.033	-0.317
-242.946	-14.835	0.146	-0.093
-241.932	94.825	0.249	0.281
-240.917	172.499	-0.118	0.168
-239.903	536.753	0.070	0.166
-238.888	-8.696	0.440	-0.293
-237.873	800.000	-0.068	-0.188
-236.859	-147.880	0.244	0.020
-235.844	223.058	0.092	-0.148
-234.830	-51.426	0.251	-0.116
-233.815	3.584	-0.188	0.136
-232.800	59.799	0.077	0.075
-231.786	-28.098	0.247	-0.142
-230.771	280.218	-0.157	-0.279
-229.757	800.000	-0.051	0.218
-228.742	-200.000	0.045	0.238
-227.727	69.157	-0.155	-0.158
-226.713	131.950	0.141	-0.180
-225.698	800.000	-0.062	-0.255
-224.684	296.719	-0.028	-0.051
-223.669	-36.386	0.060	-0.032
-222.655	-198.932	0.091	0.000
-221.640	73.589	-0.132	0.137
-220.625	-42.932	-0.314	-0.158
-219.611	109.921	0.128	-0.152
-218.596	257.180	0.068	-0.116
-217.582	-200.000	0.018	0.083
-216.567	44.523	-0.158	0.144
-215.552	-200.000	-0.077	0.360
-214.538	-200.000	-0.006	-0.065
-213.523	-200.000	0.044	-0.202
-212.509	88.020	0.171	0.188
-211.494	-200.000	0.024	0.438
-210.479	3.481	-0.171	-0.124
-209.465	-200.000	-0.038	0.260
-208.450	132.677	0.176	-0.224
-207.436	-200.000	0.020	-0.123
-206.421	-99.119	0.200	-0.050
-205.406	320.978	0.129	0.243
-204.392	800.000	-0.090	0.296
-203.377	-39.734	-0.163	-0.084
-202.363	-200.000	-0.041	0.191
-201.348	-10.186	0.123	-0.081
-200.333	-98.272	0.092	-0.023
-199.319	576.229	0.089	-0.216
-198.304	-200.000	0.004	-0.063
-197.290	352.773	0.094	0.184
-196.275	104.022	-0.125	-0.146
-195.260	-148.618	-0.171	-0.014
-194.246	-78.981	0.402	-0.135
-193.231	274.536	-0.178	-0.313
-192.217	212.969	-0.066	0.103
-191.202	-200.000	-0.019	0.181
-190.187	31.303	-0.093	-0.079
-189.173	800.000	-0.052	-0.149
-188.158	74.070	0.220	0.228
-187.144	-47.040	-0.050	-0.024
-186.129	250.751	0.116	0.195
-185.114	489.489	0.129	0.291
-184.100	-200.000	0.055	-0.382
-183.085	232.724	-0.055	0.090
-182.071	-200.000	0.003	-0.025
-181.056	-27.838	0.016	0.009
-180.042	-130.315	-0.037	0.005
-179.027	-200.000	-0.027	0.118
-178.012	-91.974	0.065	-0.018
-176.998	-16.640	-0.219	-0.137
-175.983	160.938	0.205	0.283
-174.969	151.016	-0.175	0.236
-173.954	50.069	0.157	0.147
-172.939	-200.000	-0.010	-0.523
-171.925	-114.393	-0.380	-0.072
-170.910	91.384	0.103	-0.115
-169.896	-168.972	-0.103	-0.004
-168.881	-200.000	-0.047	0.331
-167.866	-200.000	-0.038	0.275
-166.852	-200.000	-0.049	0.338
-165.837	106.812	-0.165	-0.194
-164.823	97.151	0.114	0.130
-163.808	103.193	0.127	-0.147
-162.793	-90.951	0.155	-0.044
-161.779	193.531	-0.236	-0.353
-160.764	-122.503	-0.141	0.023
-159.750	-200.000	0.017	-0.083
-158.735	800.000	-0.061	-0.241
-157.720	-200.000	0.017	-0.145
-156.706	3.156	0.276	0.199
-155.691	335.498	-0.043	0.082
-154.677	-168.266	-0.372	0.014
-153.662	329.070	-0.131	-0.249
-152.647	-178.929	0.153	-0.003
-151.633	-66.591	-0.157	0.062
-150.618	112.684	-0.269	0.323
-149.604	114.907	-0.089	0.107
-148.589	105.947	-0.039	-0.046
-147.574	-100.340	-0.231	-0.057
-146.560	-27.028	-0.194	0.112
-145.545	800.000	-0.051	0.147
-144.531	10.729	-0.183	0.138
-143.516	-9.017	0.145	0.096
-142.502	-17.955	-0.116	-0.072
-141.487	49.012	0.229	-0.212
-140.472	-200.000	-0.017	0.123
-139.458	28.441	-0.220	0.184
-138.443	362.091	0.097	-0.192
-137.429	-171.477	-0.332	-0.011
-136.414	-200.000	0.011	0.147
-135.399	160.322	-0.064	0.088
-134.385	-200.000	0.019	0.219
-133.370	-200.000	-0.042	0.236
-132.356	800.000	0.083	0.247
-131.341	141.190	-0.218	0.285
-130.326	395.267	-0.078	0.161
-129.312	-59.300	-0.028	-0.012
-128.297	-108.759	0.092	0.019
-127.283	97.970	0.059	0.067
-126.268	-44.703	-0.335	0.165
-125.253	37.248	0.214	0.187
-124.239	2.116	0.145	0.103
-123.224	800.000	-0.046	-0.195
-122.210	-124.323	0.408	0.063
-121.195	-200.000	0.015	0.215
-120.180	-49.511	0.286	-0.135
-119.166	120.351	-0.089	0.109
-118.151	236.068	0.139	0.227
-117.137	-200.000	0.018	-0.282
-116.122	227.201	0.226	-0.363
-115.107	-71.607	0.056	0.021
-114.093	-39.788	0.174	-0.090
-113.078	-181.864	-0.218	-0.004
-112.064	108.072	0.092	0.109
-111.049	-21.194	-0.078	0.047
-110.034	422.626	0.049	0.104
-109.020	74.020	0.135	-0.140
-108.005	113.984	-0.230	0.276
-106.991	-37.589	0.213	-0.112
-105.976	-156.889	-0.304	-0.018
-104.962	46.885	-0.244	0.224
-103.947	12.122	0.054	0.041
-102.932	800.000	-0.054	-0.211
-101.918	40.147	0.204	0.181
-100.903	-53.963	0.406	0.183
-99.889	-59.404	-0.106	0.045
-98.874	-135.354	0.281	-0.033
-97.859	-200.000	0.028	-0.154
-96.845	270.678	-0.139	-0.241
-95.830	-76.657	-0.035	-0.012
-94.816	57.262	-0.279	0.269
-93.801	-118.346	-0.360	-0.063
-92.786	-150.977	0.308	0.023
-91.772	-65.747	-0.051	0.020
-90.757	236.586	0.128	0.209
-89.743	-80.328	-0.161	0.053
-88.728	107.167	0.162	0.190
-87.713	-97.732	-0.241	-0.062
-86.699	70.351	-0.171	0.174
-85.684	-58.870	-0.237	-0.101
-84.670	-200.000	-0.067	0.378
-83.655	800.000	0.025	-0.084
-82.640	-71.304	0.285	-0.105
-81.626	-200.000	0.015	0.093
-80.611	-82.055	-0.341	-0.110
-79.597	-103.520	-0.188	-0.043
-78.582	-44.839	0.148	-0.073
-77.567	-142.007	-0.232	0.023
-76.553	-95.506	-0.073	-0.019
-75.538	208.046	0.017	0.026
-74.524	251.128	-0.163	0.273
-73.509	-47.888	0.344	-0.164
-72.494	384.990	0.034	0.068
-71.480	-17.064	-0.119	0.074
-70.465	-6.778	-0.039	0.026
-69.451	-53.678	-0.266	-0.120
-68.436	-35.310	0.098	0.052
-67.422	-15.896	0.101	-0.063
-66.407	12.441	0.137	-0.104
-65.392	-89.799	0.140	-0.040
-64.378	-79.199	0.050	0.017
-63.363	-63.058	0.325	0.132
-62.349	186.870	-0.140	-0.205
-61.334	57.745	-0.855	-0.824
-60.319	43.069	0.677	0.608
-59.305	178.075	-0.422	-0.607
-58.290	800.000	0.409	1.171
-57.276	800.000	0.465	1.725
-56.261	-200.000	96.520	577.167
-55.246	543.739	1385.884	3259.076
-54.232	156.027	2575.459	3498.497
-53.217	111.753	2150.271	2557.079
-52.203	44.942	1609.431	1459.844
-51.188	37.135	1346.848	1174.598
-50.173	33.870	1304.943	1118.818
-49.159	56.417	1351.982	1294.621
-48.144	58.692	1369.395	1324.849
-47.130	37.358	1326.313	1157.838
-46.115	33.834	1309.096	1121.988
-45.100	33.618	1304.248	1116.518
-44.086	33.520	1301.846	1113.840
-43.071	33.456	1299.738	1111.614
-42.057	33.464	1297.658	1109.839
-41.042	33.511	1296.114	1108.751
-40.027	33.524	1294.792	1107.653
-39.013	33.588	1292.760	1106.244
-37.998	33.601	1290.878	1104.666
-36.984	33.542	1289.560	1103.150
-35.969	33.605	1287.754	1101.926
-34.954	33.731	1285.748	1100.897
-33.940	33.724	1284.833	1100.028
-32.925	33.688	1283.495	1098.634
-31.911	33.815	1281.655	1097.747
-30.896	33.859	1280.204	1096.717
-29.881	33.756	1279.272	1095.278
-28.867	33.870	1277.481	1094.361
-27.852	33.804	1276.205	1092.843
-26.838	33.829	1274.909	1091.836
-25.823	33.784	1273.714	1090.507
-24.809	33.749	1272.247	1089.009
-23.794	33.697	1270.845	1087.467
-22.779	33.710	1270.049	1086.815
-21.765	33.722	1268.614	1085.613
-20.750	33.728	1266.872	1084.113
-19.736	33.652	1265.978	1082.871
-18.721	33.552	1264.894	1081.333
-17.706	33.591	1263.666	1080.460
-16.692	33.660	1262.115	1079.484
-15.677	33.586	1261.296	1078.321
-14.663	33.604	1260.191	1077.434
-13.648	33.625	1259.135	1076.610
-12.633	33.571	1257.956	1075.256
-11.619	33.597	1257.245	1074.753
-10.604	33.527	1256.758	1073.893
-9.590	33.467	1256.354	1073.164
-8.575	33.602	1254.666	1072.447
-7.560	33.537	1253.560	1071.093
-6.546	33.596	1252.799	1070.730
-5.531	33.575	1251.828	1069.741
-4.517	33.597	1250.964	1069.083
-3.502	33.603	1250.219	1068.440
-2.487	33.620	1249.103	1067.539
-1.473	33.553	1245.293	1063.866
-0.458	32.086	1230.632	1043.154
0.556	29.154	1212.654	1006.244
1.571	25.582	1218.607	991.440
2.586	24.780	1233.995	999.393
3.600	24.318	1223.418	988.182
4.615	18.020	1150.408	896.201
5.629	7.155	1072.315	781.895
6.644	2.424	1050.805	743.206
7.659	1.948	1048.032	738.874
8.673	1.899	1046.386	737.411
9.688	1.722	1045.368	735.775
10.702	2.323	1044.377	737.913
11.717	9.072	1054.351	777.683
12.731	19.352	1068.879	838.579
13.746	24.252	1074.349	866.685
14.761	24.916	1075.437	870.717
15.775	25.051	1074.471	870.513
16.790	24.854	1073.622	868.794
17.804	24.772	1073.599	868.298
18.819	24.916	1072.983	868.420
19.834	25.067	1072.273	868.505
20.848	25.128	1071.665	868.231
21.863	24.966	1071.510	867.241
22.877	24.923	1070.694	866.296
23.892	24.955	1070.244	866.008
24.907	25.031	1069.347	865.575
25.921	24.930	1068.625	864.425
26.936	24.891	1067.179	862.993
27.950	24.871	1065.534	861.489
28.965	24.825	1063.255	859.352
29.980	24.903	1061.933	858.580
30.994	25.066	1061.444	858.888
32.009	24.997	1060.354	857.602
33.023	24.930	1058.925	856.050
34.038	25.087	1057.847	855.852
35.053	25.106	1057.818	855.843
36.067	25.178	1056.323	854.900
37.082	25.124	1056.099	854.385
38.096	25.251	1055.573	854.490
39.111	25.360	1054.996	854.469
40.126	25.088	1053.604	851.970
41.140	24.847	1051.606	849.135
42.155	24.579	1050.433	846.843
43.169	24.620	1049.749	846.414
44.184	24.763	1048.703	846.170
45.199	24.612	1047.531	844.438
46.213	24.704	1046.795	844.201
47.228	24.791	1045.904	843.820
48.242	24.910	1045.634	844.090
49.257	24.906	1044.775	843.299
50.271	25.072	1043.942	843.334
51.286	25.151	1043.018	842.887
52.301	25.001	1042.077	841.347
53.315	25.140	1041.091	841.127
54.330	24.919	1040.535	839.569
55.344	24.936	1039.817	838.993
56.359	24.960	1038.587	838.040
57.374	24.739	1037.937	836.409
58.388	24.799	1036.959	835.825
59.403	24.763	1036.086	834.883
60.417	24.561	1035.253	833.196
61.432	24.677	1034.496	833.052
62.447	24.855	1034.021	833.424
63.461	24.735	1033.340	832.244
64.476	24.660	1032.593	831.218
65.490	24.559	1031.773	830.017
66.505	24.821	1030.264	829.947
67.520	24.696	1030.398	829.397
68.534	24.621	1028.856	827.738
69.549	24.144	1027.895	824.680
70.563	24.061	1027.369	823.804
71.578	24.370	1026.125	824.162
72.593	24.008	1025.448	821.871
73.607	24.215	1025.055	822.442
74.622	24.470	1024.599	823.176
75.636	24.522	1023.699	822.623
76.651	24.335	1022.775	820.947
77.666	24.275	1022.238	820.167
78.680	24.478	1021.258	820.237
79.695	24.690	1020.646	820.651
80.709	24.649	1020.412	820.202
81.724	24.525	1019.279	818.649
82.739	24.758	1018.278	818.841
83.753	24.988	1017.941	819.546
84.768	25.233	1017.205	820.002
85.782	25.383	1016.542	820.080
86.797	25.281	1015.732	818.889
87.812	25.182	1014.465	817.342
88.826	25.172	1013.816	816.702
89.841	25.277	1012.790	816.282
90.855	25.262	1012.086	815.573
91.870	25.159	1011.219	814.338
92.884	25.014	1010.015	812.635
93.899	25.128	1008.759	812.069
94.914	25.240	1008.088	811.967
95.928	25.041	1006.964	810.088
96.943	24.872	1005.776	808.299
97.957	24.658	1004.617	806.330
98.972	24.403	1003.653	804.335
99.987	24.813	1003.148	805.707
101.001	25.009	1002.478	805.981
102.016	24.828	1001.442	804.262
103.030	24.858	1000.363	803.458
104.045	24.809	999.409	802.400
105.060	24.637	998.467	800.802
106.074	24.754	997.970	800.857
107.089	25.007	997.454	801.506
108.103	24.939	996.497	800.362
109.118	24.677	995.081	797.981
110.133	24.603	994.212	796.887
111.147	24.455	992.743	794.977
112.162	24.424	991.898	794.096
113.176	24.582	991.636	794.515
114.191	24.504	990.471	793.168
115.206	24.317	989.144	791.206
116.220	24.354	988.523	790.803
117.235	24.451	988.128	790.848
118.249	24.377	987.047	789.581
119.264	24.295	986.576	788.773
120.279	24.385	985.789	788.474
121.293	24.491	984.581	787.902
122.308	24.442	983.973	787.131
123.322	24.370	982.378	785.469
124.337	24.273	981.672	784.409
125.352	23.767	979.853	780.664
126.366	23.789	978.783	779.836
127.381	24.394	979.308	782.842
128.395	24.841	978.570	784.142
129.410	24.999	977.972	784.287
130.424	24.947	976.920	783.144
131.439	24.988	976.151	782.641
132.454	24.879	975.594	781.646
133.468	24.822	974.627	780.553
134.483	24.932	973.903	780.387
135.497	25.075	973.329	780.478
136.512	25.256	971.761	779.940
137.527	25.197	971.399	779.321
138.541	25.208	970.417	778.516
139.556	25.202	970.003	778.089
140.570	25.307	968.769	777.484
141.585	25.270	967.712	776.406
142.600	25.189	966.901	775.336
143.614	25.508	966.106	776.010
144.629	25.536	965.572	775.631
145.643	25.275	964.421	773.512
146.658	25.215	962.727	771.827
147.673	25.156	961.260	770.329
148.687	25.015	960.722	769.224
149.702	24.853	959.842	767.759
150.716	24.941	958.619	767.090
151.731	25.073	958.434	767.439
152.746	25.320	957.674	767.816
153.760	25.498	957.159	768.100
154.775	25.421	956.563	767.225
155.789	25.371	955.900	766.411
156.804	25.358	954.693	765.318
157.819	25.456	953.766	764.926
158.833	25.463	953.467	764.650
159.848	25.476	952.560	763.907
160.862	25.297	951.219	762.007
161.877	25.443	950.322	761.838
162.892	25.396	949.269	760.728
163.906	25.223	947.992	758.908
164.921	25.291	947.396	758.651
165.935	25.362	946.349	758.044
166.950	25.530	944.955	757.568
167.964	25.415	944.782	756.878
168.979	25.141	943.779	754.853
169.994	25.127	942.485	753.693
171.008	25.381	942.405	754.630
172.023	25.370	941.859	754.081
173.037	25.364	940.134	752.604
174.052	24.956	939.436	750.273
175.067	25.113	938.681	750.258
176.081	25.155	938.345	750.102
177.096	25.082	937.787	749.286
178.110	24.712	936.663	746.772
179.125	24.594	935.813	745.538
180.140	24.721	935.396	745.668
181.154	24.929	935.134	746.260
182.169	25.274	935.187	747.674
183.183	25.433	934.261	747.531
184.198	25.207	933.743	746.110
185.213	25.202	933.354	745.712
186.227	25.394	932.727	745.941
187.242	25.244	931.742	744.465
188.256	25.397	930.937	744.391
189.271	25.591	929.944	744.335
190.286	25.142	929.082	741.720
191.300	24.467	927.427	737.549
192.315	23.798	926.128	733.688
193.329	23.778	925.795	733.276
194.344	24.670	926.396	737.369
195.359	25.154	926.206	739.147
196.373	25.373	925.567	739.474
197.388	25.195	924.894	738.142
198.402	25.170	924.536	737.685
199.417	25.217	924.023	737.405
200.432	25.063	922.455	735.457
201.446	24.827	921.758	733.867
202.461	24.841	921.383	733.562
203.475	23.985	919.608	728.580
204.490	23.237	918.643	724.689
205.504	24.258	918.660	728.815
206.519	24.761	918.696	730.838
207.534	24.848	918.226	730.752
208.548	25.328	917.930	732.412
209.563	25.006	916.802	730.133
210.577	25.077	916.480	730.103
211.592	25.427	916.209	731.245
212.607	25.489	915.030	730.494
213.621	25.419	914.602	729.805
214.636	25.486	913.913	729.458
215.650	25.420	913.171	728.536
216.665	25.522	912.553	728.393
217.680	25.455	911.673	727.353
218.694	25.037	910.420	724.600
219.709	24.902	910.225	723.834
220.723	25.181	909.763	724.529
221.738	25.148	909.260	723.931
222.753	25.208	908.497	723.503
223.767	25.396	908.093	723.875
224.782	25.590	907.921	724.455
225.796	25.554	907.073	723.568
226.811	24.830	905.774	719.561
227.826	24.153	904.690	715.915
228.840	24.416	904.103	716.444
229.855	24.507	903.460	716.236
230.869	24.068	902.315	713.505
231.884	24.563	902.284	715.400
232.899	25.156	902.542	717.914
233.913	25.230	901.840	717.590
234.928	25.069	901.183	716.359
235.942	25.091	900.324	715.703
236.957	24.782	899.509	713.757
237.972	24.793	898.961	713.304
238.986	24.954	898.359	713.406
240.001	24.924	897.907	712.863
241.015	24.870	897.621	712.358
242.030	25.131	896.983	712.826
243.045	25.334	896.571	713.244
244.059	25.434	895.866	713.014
245.074	25.156	895.110	711.247
246.088	24.996	893.923	709.609
247.103	25.277	893.564	710.372
248.117	25.603	893.892	711.859
249.132	25.818	894.008	712.741
250.147	26.058	892.877	712.723
251.161	26.185	892.397	712.779
252.176	26.195	891.689	712.193
253.190	26.160	891.655	711.964
254.205	26.298	890.868	711.815
255.220	26.350	890.209	711.428
256.234	26.127	889.301	709.767
257.249	25.928	888.670	708.416
258.263	26.137	888.194	708.794
259.278	26.253	887.327	708.493
260.293	26.312	886.566	708.055
261.307	26.080	886.194	706.788
262.322	25.995	885.276	705.662
263.336	25.127	883.511	700.800
264.351	24.057	881.567	695.023
265.366	24.190	881.307	695.275
266.380	25.415	881.807	700.384
267.395	25.662	881.666	701.175
268.409	25.674	881.051	700.668
269.424	25.923	880.178	700.882
270.439	25.959	879.869	700.715
271.453	25.874	879.727	700.211
272.468	26.215	879.158	701.019
273.482	26.139	878.626	700.237
274.497	25.857	877.522	698.201
275.512	25.436	876.516	695.709
276.526	25.905	876.191	697.206
277.541	25.936	876.170	697.245
278.555	25.870	875.170	696.133
279.570	25.781	873.913	694.730
280.585	25.806	873.947	694.791
281.599	25.870	872.822	694.082
282.614	25.122	871.850	690.368
283.628	25.240	871.363	690.375
284.643	25.596	871.232	691.581
285.657	25.168	869.950	688.858
286.672	24.931	869.152	687.255
287.687	25.480	869.139	689.291
288.701	25.520	868.636	688.983
289.716	25.210	867.627	686.936
290.730	25.209	867.133	686.482
291.745	24.980	865.705	684.414
292.760	25.304	866.222	686.002
293.774	26.140	866.737	689.544
294.789	26.559	866.040	690.527
295.803	26.505	865.454	689.792
296.818	26.639	864.614	689.573
297.833	26.089	863.691	686.683
298.847	25.973	863.106	685.717
299.862	26.251	862.762	686.437
300.876	26.564	862.690	687.510
301.891	26.442	861.766	686.250
302.906	25.996	860.967	683.863
303.920	26.205	860.646	684.337
304.935	26.454	860.610	685.193
305.949	26.385	859.906	684.310
306.964	26.123	859.228	682.720
307.979	26.118	858.820	682.317
308.993	26.625	858.586	683.985
310.008	26.645	857.831	683.399
311.022	26.293	856.900	681.267
312.037	26.208	856.360	680.458
313.052	25.970	855.137	678.531
314.066	25.130	853.452	673.979
315.081	24.806	852.820	672.202
316.095	25.607	853.531	675.715
317.110	26.145	853.195	677.406
318.125	25.368	851.181	672.840
319.139	24.123	850.165	667.315
320.154	24.171	850.084	667.370
321.168	25.210	850.186	671.282
322.183	25.887	850.280	673.831
323.197	26.074	849.878	674.152
324.212	26.244	849.688	674.575
325.227	26.155	849.443	673.989
326.241	26.082	848.642	673.020
327.256	25.980	847.707	671.841
328.270	25.889	847.438	671.230
329.285	25.629	846.604	669.540
330.300	25.503	845.646	668.255
331.314	25.812	845.237	669.023
332.329	26.198	845.067	670.260
333.343	26.352	844.899	670.639
334.358	26.311	844.729	670.294
335.373	26.437	844.035	670.149
336.387	26.645	844.395	671.145
337.402	26.731	844.016	671.107
338.416	26.577	843.712	670.233
339.431	26.932	842.974	670.902
340.446	27.032	842.748	671.030
341.460	26.800	842.430	669.861
342.475	26.648	841.504	668.505
343.489	26.735	841.346	668.641
344.504	27.185	840.851	669.846
345.519	27.230	840.792	669.908
346.533	27.187	840.272	669.275
347.548	27.117	839.904	668.667
348.562	27.211	838.979	668.217
349.577	26.929	838.694	666.892
350.592	26.969	838.116	666.521
351.606	27.010	837.129	665.825
352.621	27.010	836.138	664.980
353.635	26.921	835.232	663.877
354.650	26.273	833.909	660.399
355.665	25.251	832.700	655.650
356.679	25.731	832.397	657.107
357.694	26.255	831.948	658.604
358.708	26.115	831.130	657.388
359.723	26.486	831.324	658.834
360.738	26.819	831.284	659.955
361.752	26.961	830.677	659.934
362.767	27.216	830.284	660.490
363.781	27.603	829.708	661.377
364.796	27.485	829.784	660.950
365.810	27.555	829.404	660.842
366.825	27.452	828.875	659.989
367.840	27.118	828.239	658.217
368.854	26.762	827.328	656.144
369.869	26.860	826.841	656.056
370.883	26.810	826.313	655.399
371.898	26.863	825.885	655.190
372.913	26.945	825.433	655.072
373.927	27.047	825.230	655.221
374.942	27.144	824.723	655.109
375.956	27.126	824.312	654.660
376.971	27.112	824.254	654.507
377.986	27.499	823.933	655.586
379.000	27.389	823.386	654.695
380.015	27.169	822.551	653.185
381.029	27.354	821.700	653.115
382.044	27.542	821.462	653.540
383.059	27.466	820.643	652.560
384.073	27.496	820.253	652.299
385.088	27.283	819.847	651.158
386.102	27.427	818.385	650.453
387.117	27.225	818.055	649.411
388.132	26.946	817.145	647.637
389.146	26.484	815.906	644.951
390.161	26.688	816.400	646.010
391.175	27.128	815.903	647.128
392.190	26.854	814.939	645.331
393.205	25.482	812.981	638.851
394.219	23.925	811.132	631.815
395.234	24.028	810.756	631.833
396.248	25.590	812.237	638.481
397.263	27.045	813.001	644.191
398.278	26.951	812.859	643.687
399.292	26.666	812.119	642.033
400.307	26.654	811.675	641.585
401.321	26.827	811.510	642.009
402.336	27.134	811.569	643.086
403.350	27.663	811.016	644.460
404.365	27.946	811.027	645.412
405.380	28.180	810.602	645.843
406.394	28.168	809.765	645.078
407.409	28.012	809.757	644.463
408.423	28.133	809.167	644.364
409.438	28.221	808.702	644.244
410.453	28.293	808.118	643.975
411.467	28.068	807.589	642.708
412.482	28.128	807.293	642.626
413.496	28.217	807.133	642.753
414.511	28.088	806.965	642.112
415.526	28.310	806.520	642.478
416.540	28.084	805.583	640.883
417.555	27.888	804.768	639.491
418.569	27.810	804.631	639.055
419.584	28.036	803.606	638.971
420.599	27.678	803.518	637.595
421.613	109.622	1284.339	1450.611
422.628	94.598	1354.404	1450.707
