DTS Sentinel unit serial number:	SN413079Multiplexer serial number:	ORYXHardware model number:	OX4-SRSoftware version number:	ORYX F/W v4.00 Oryx Data Collector v3.7.2.0data status	okinstallation	princeton_trtdifferential loss correction	single-endedforward channel	channel 1reverse channel	N/Adate	2019/09/11time	00:56:11forward acquisition time	60.00reverse acquisition time	0.00gamma	496.2192k internal	0.2331k external	0.2331temperature offset calibration	0.9932default loss term (dB/km)	0.3790temperature slope calibration	1.0000multiplexer offset coefficient	1.0000multiplexer slope coefficient	1.0000fibre end	0.00T internal ref (°C)	29.14T ext. ref 1 (°C)	-0.30T ext. ref 2 (°C)	22.87length (m)	temperature (°C)	Stokes	anti-Stokes-747.200	-103.346	0.132	-0.031
-746.185	13.620	0.078	-0.061
-745.171	-134.261	-0.117	-0.014
-744.156	800.000	-0.145	0.407
-743.142	-33.954	-0.101	0.056
-742.127	800.000	0.094	0.272
-741.112	-200.000	-0.005	0.045
-740.098	-50.293	-0.246	0.117
-739.083	126.684	0.075	-0.096
-738.069	-161.407	0.137	0.007
-737.054	476.176	0.104	-0.236
-736.039	454.955	-0.178	-0.398
-735.025	-19.534	0.130	0.081
-734.010	-141.763	-0.353	0.036
-732.996	-200.000	-0.018	-0.282
-731.981	-106.002	-0.420	-0.095
-730.966	82.553	0.080	0.087
-729.952	800.000	0.087	0.288
-728.937	283.368	-0.129	0.234
-727.923	-100.225	-0.200	-0.050
-726.908	19.924	0.245	-0.199
-725.894	114.434	-0.161	-0.197
-724.879	-34.034	0.109	0.060
-723.864	37.624	-0.190	-0.170
-722.850	-27.065	-0.259	0.152
-721.835	88.745	-0.191	0.214
-720.821	65.922	0.102	-0.104
-719.806	-82.103	-0.283	-0.093
-718.791	-200.000	-0.019	0.089
-717.777	-158.974	-0.318	0.018
-716.762	27.417	-0.280	0.237
-715.748	157.655	-0.030	-0.042
-714.733	191.283	0.146	-0.220
-713.718	-106.507	-0.076	0.017
-712.704	-95.492	-0.328	-0.088
-711.689	109.636	0.129	-0.155
-710.675	18.812	-0.341	0.275
-709.660	391.881	0.100	0.210
-708.645	-108.147	0.252	0.055
-707.631	-140.193	-0.197	0.021
-706.616	214.743	-0.082	-0.130
-705.602	-86.186	0.141	0.044
-704.587	60.445	0.098	0.098
-703.572	-40.669	0.437	0.228
-702.558	-105.807	-0.063	-0.014
-701.543	-47.883	0.068	-0.033
-700.529	800.000	-0.033	0.141
-699.514	-200.000	-0.039	0.192
-698.499	-78.353	-0.165	0.057
-697.485	800.000	0.054	-0.221
-696.470	467.676	-0.093	-0.210
-695.456	261.051	-0.122	-0.212
-694.441	-83.094	-0.276	-0.089
-693.426	-85.527	-0.192	0.060
-692.412	-154.159	0.320	-0.022
-691.397	89.091	0.237	0.265
-690.383	-143.307	0.358	-0.035
-689.368	-100.800	-0.354	0.087
-688.354	-8.503	-0.077	0.052
-687.339	86.836	0.218	0.242
-686.324	-1.735	-0.090	-0.064
-685.310	-171.848	0.322	0.011
-684.295	-8.876	-0.067	-0.045
-683.281	4.403	0.141	-0.104
-682.266	-84.848	0.245	-0.077
-681.251	-117.232	0.177	0.032
-680.237	-28.741	-0.343	0.198
-679.222	424.585	0.101	-0.218
-678.208	800.000	0.044	0.145
-677.193	800.000	0.067	-0.197
-676.178	18.659	-0.148	-0.119
-675.164	-78.853	-0.159	-0.054
-674.149	182.241	0.053	0.078
-673.135	-102.533	-0.185	-0.044
-672.120	-62.272	0.127	-0.053
-671.105	-18.797	-0.242	-0.151
-670.091	-25.797	0.244	0.144
-669.076	-98.292	0.240	0.062
-668.062	100.630	-0.185	0.216
-667.047	283.735	0.198	0.358
-666.032	22.545	-0.196	0.161
-665.018	179.748	0.070	0.103
-664.003	462.673	-0.155	-0.346
-662.989	342.309	0.085	0.167
-661.974	-122.134	-0.158	-0.026
-660.959	738.897	-0.096	0.259
-659.945	800.000	-0.040	-0.152
-658.930	78.170	-0.175	-0.188
-657.916	-106.998	-0.148	0.033
-656.901	-200.000	-0.043	-0.199
-655.886	-88.674	-0.291	-0.087
-654.872	-200.000	-0.034	0.218
-653.857	-48.552	-0.051	-0.025
-652.843	800.000	0.032	-0.102
-651.828	-200.000	0.018	0.240
-650.814	-21.319	0.123	0.076
-649.799	249.516	-0.043	-0.074
-648.784	-200.000	0.011	0.146
-647.770	8.742	0.121	0.092
-646.755	123.383	0.169	0.213
-645.741	-200.000	0.000	0.033
-644.726	-25.034	-0.285	-0.170
-643.711	-12.061	-0.184	0.120
-642.697	-200.000	-0.031	0.319
-641.682	-200.000	0.019	-0.138
-640.668	59.200	0.093	-0.092
-639.653	800.000	0.036	-0.101
-638.638	-200.000	-0.015	0.072
-637.624	800.000	0.047	-0.203
-636.609	800.000	-0.043	0.129
-635.595	-107.570	0.289	0.063
-634.580	-200.000	0.009	-0.232
-633.565	218.798	0.075	-0.120
-632.551	-160.865	0.233	-0.012
-631.536	219.470	0.152	-0.244
-630.522	-104.779	-0.312	0.072
-629.507	-2.071	0.083	-0.058
-628.492	-20.386	-0.339	0.209
-627.478	-200.000	-0.012	0.104
-626.463	800.000	-0.084	-0.291
-625.449	9.019	-0.019	0.014
-624.434	-200.000	-0.010	-0.185
-623.419	120.586	-0.088	0.109
-622.405	-200.000	-0.066	-0.301
-621.390	-126.834	-0.235	0.035
-620.376	-18.384	-0.130	-0.082
-619.361	-200.000	-0.002	0.276
-618.346	-143.246	-0.158	0.015
-617.332	-164.322	0.335	0.015
-616.317	-200.000	0.005	-0.147
-615.303	-200.000	-0.057	-0.279
-614.288	134.025	0.200	-0.260
-613.273	94.160	-0.116	0.132
-612.259	-95.441	0.193	0.052
-611.244	0.515	-0.206	0.147
-610.230	-137.371	0.201	-0.023
-609.215	100.507	-0.063	0.073
-608.201	-47.898	-0.332	-0.161
-607.186	-34.672	0.323	-0.177
-606.171	217.843	-0.181	-0.288
-605.157	28.615	0.075	-0.064
-604.142	800.000	-0.045	-0.192
-603.128	-45.918	0.290	0.143
-602.113	-13.317	-0.420	0.273
-601.098	-18.101	0.299	-0.187
-600.084	-82.559	-0.216	0.070
-599.069	120.226	0.018	0.022
-598.055	368.451	0.228	0.461
-597.040	-155.021	0.455	-0.030
-596.025	-30.580	0.076	-0.043
-595.011	84.659	-0.272	0.297
-593.996	800.000	-0.015	0.047
-592.982	-200.000	-0.049	0.489
-591.967	619.091	-0.111	0.278
-590.952	-62.073	-0.119	0.050
-589.938	-105.064	0.189	-0.043
-588.923	744.621	-0.084	-0.225
-587.909	-155.130	0.048	0.003
-586.894	-147.084	-0.258	-0.022
-585.879	-34.479	-0.124	-0.068
-584.865	65.907	0.069	0.070
-583.850	481.160	-0.026	-0.058
-582.836	-99.886	0.198	-0.050
-581.821	-200.000	-0.023	-0.171
-580.806	52.655	0.078	-0.075
-579.792	-200.000	0.050	0.272
-578.777	-200.000	0.012	-0.080
-577.763	-196.371	-0.067	0.000
-576.748	-54.621	0.232	0.105
-575.733	-70.299	-0.337	-0.128
-574.719	-99.707	-0.192	0.048
-573.704	-90.069	-0.203	-0.059
-572.690	279.652	-0.079	-0.141
-571.675	109.771	0.146	-0.175
-570.661	70.136	0.081	0.084
-569.646	-89.721	0.063	-0.018
-568.631	-200.000	-0.009	-0.100
-567.617	800.000	-0.081	0.237
-566.602	-120.427	-0.141	-0.024
-565.588	785.410	0.080	0.220
-564.573	95.879	-0.117	-0.134
-563.558	-51.193	-0.188	0.088
-562.544	74.363	-0.153	0.161
-561.529	-18.964	0.193	-0.120
-560.515	59.880	0.072	0.071
-559.500	170.424	0.150	0.214
-558.485	70.713	-0.199	0.205
-557.471	51.575	0.166	-0.158
-556.456	-200.000	-0.023	-0.239
-555.442	-200.000	-0.063	-0.297
-554.427	-200.000	0.015	-0.137
-553.412	613.456	0.139	-0.347
-552.398	-73.738	-0.155	-0.056
-551.383	-131.135	-0.121	-0.016
-550.369	511.088	-0.071	-0.164
-549.354	-200.000	0.020	0.408
-548.339	-62.944	0.237	-0.098
-547.325	281.840	0.158	-0.284
-546.310	-18.250	-0.212	0.133
-545.296	638.359	0.046	-0.116
-544.281	-200.000	-0.011	0.252
-543.266	-56.086	0.107	-0.048
-542.252	-174.245	-0.264	0.008
-541.237	19.849	0.100	-0.081
-540.223	-67.019	-0.149	0.059
-539.208	286.204	-0.104	-0.187
-538.193	30.642	0.050	0.043
-537.179	-134.169	0.077	-0.009
-536.164	72.888	0.033	-0.034
-535.150	651.288	-0.117	0.300
-534.135	587.674	0.096	0.236
-533.121	719.662	-0.148	-0.393
-532.106	142.539	-0.162	-0.215
-531.091	-200.000	-0.033	0.278
-530.077	-97.831	0.420	0.108
-529.062	-36.405	0.195	0.105
-528.048	800.000	-0.030	-0.119
-527.033	-200.000	-0.003	0.176
-526.018	152.519	0.127	0.173
-525.004	453.211	0.115	0.255
-523.989	173.583	0.073	-0.105
-522.975	24.387	-0.173	0.142
-521.960	-147.259	-0.331	-0.028
-520.945	-92.254	-0.328	0.092
-519.931	-86.151	0.305	-0.094
-518.916	132.800	0.058	0.074
-517.902	85.545	-0.128	0.140
-516.887	43.444	-0.036	0.033
-515.872	-200.000	0.052	0.326
-514.858	-200.000	-0.006	0.063
-513.843	800.000	0.027	0.109
-512.829	297.722	0.176	0.323
-511.814	-73.273	0.169	-0.062
-510.799	800.000	0.053	0.187
-509.785	479.729	0.053	-0.119
-508.770	-200.000	-0.028	-0.000
-507.756	135.528	-0.191	-0.248
-506.741	202.398	-0.142	-0.219
-505.726	8.013	-0.004	-0.003
-504.712	800.000	0.049	-0.155
-503.697	-134.643	-0.061	0.007
-502.683	89.884	0.049	-0.055
-501.668	482.017	-0.078	-0.176
-500.653	-200.000	-0.029	0.213
-499.639	152.135	0.165	0.224
-498.624	-114.884	0.232	0.044
-497.610	-200.000	-0.003	-0.238
-496.595	-200.000	-0.054	-0.305
-495.581	-124.680	0.400	-0.062
-494.566	-183.729	-0.340	-0.006
-493.551	-47.495	0.147	-0.071
-492.537	-122.556	-0.402	0.065
-491.522	-117.242	-0.217	0.039
-490.508	177.351	0.027	0.039
-489.493	800.000	-0.125	-0.435
-488.478	260.098	0.081	0.140
-487.464	-88.943	0.259	-0.077
-486.449	439.016	-0.116	0.252
-485.435	-41.146	0.267	0.137
-484.420	-9.307	0.100	0.067
-483.405	-104.594	-0.102	-0.023
-482.391	-44.693	-0.138	-0.069
-481.376	658.944	0.058	0.148
-480.362	-200.000	0.012	-0.323
-479.347	-200.000	-0.005	0.142
-478.332	157.325	-0.133	0.183
-477.318	121.545	-0.171	-0.213
-476.303	144.240	0.036	-0.048
-475.289	-200.000	0.019	0.167
-474.274	-157.386	0.069	-0.004
-473.259	-42.622	-0.137	-0.070
-472.245	-39.987	0.183	0.095
-471.230	-38.360	-0.334	0.176
-470.216	316.791	-0.078	-0.147
-469.201	-54.278	0.180	-0.081
-468.186	7.691	0.067	0.050
-467.172	-118.186	-0.197	-0.035
-466.157	37.543	0.312	-0.275
-465.143	106.155	-0.144	-0.170
-464.128	67.058	0.111	-0.112
-463.113	-200.000	0.035	0.168
-462.099	-179.046	0.034	0.001
-461.084	-158.179	-0.139	-0.008
-460.070	25.887	0.079	-0.065
-459.055	-173.047	-0.254	-0.008
-458.040	388.410	-0.113	0.233
-457.026	223.651	0.100	-0.161
-456.011	-200.000	0.003	0.417
-454.997	150.456	-0.073	0.099
-453.982	71.160	0.041	0.043
-452.968	-200.000	-0.003	-0.255
-451.953	-69.508	0.166	-0.063
-450.938	-55.650	-0.123	0.055
-449.924	-15.076	0.192	-0.122
-448.909	-72.558	-0.359	0.132
-447.895	267.770	-0.178	-0.310
-446.880	33.141	0.151	-0.130
-445.865	437.245	-0.189	0.410
-444.851	-200.000	-0.045	-0.217
-443.836	75.705	0.157	-0.165
-442.822	800.000	-0.026	-0.104
-441.807	-91.378	-0.146	-0.042
-440.792	7.349	0.070	-0.052
-439.778	65.266	0.098	-0.098
-438.763	37.171	0.169	-0.148
-437.749	-200.000	-0.029	-0.248
-436.734	-107.264	0.324	-0.071
-435.719	349.947	-0.171	0.335
-434.705	163.768	-0.053	0.074
-433.690	292.470	0.104	0.188
-432.676	36.930	-0.177	-0.155
-431.661	7.157	-0.290	0.215
-430.646	800.000	-0.018	0.050
-429.632	-200.000	0.094	0.633
-428.617	-200.000	-0.015	0.102
-427.603	-20.451	-0.172	-0.105
-426.588	58.465	-0.136	-0.132
-425.573	-26.190	0.072	-0.042
-424.559	10.906	0.227	-0.172
-423.544	-200.000	-0.005	0.124
-422.530	-200.000	-0.022	-0.170
-421.515	-117.187	-0.152	0.027
-420.500	4.677	0.016	0.012
-419.486	718.120	0.054	-0.143
-418.471	-197.654	-0.133	-0.001
-417.457	229.709	0.154	0.249
-416.442	294.016	0.186	0.337
-415.428	-42.567	-0.294	-0.149
-414.413	46.376	-0.129	-0.119
-413.398	471.476	0.098	-0.219
-412.384	282.413	0.065	-0.116
-411.369	-125.591	0.468	0.071
-410.355	0.974	0.181	0.129
-409.340	-56.034	0.223	0.099
-408.325	-36.727	0.102	0.054
-407.311	285.138	0.112	-0.200
-406.296	-21.995	-0.129	0.078
-405.282	-110.177	-0.434	0.090
-404.267	4.567	0.160	-0.117
-403.252	-200.000	-0.020	0.204
-402.238	99.147	-0.124	-0.143
-401.223	-200.000	0.029	-0.146
-400.209	-129.804	0.083	-0.011
-399.194	-200.000	0.032	-0.211
-398.179	124.542	0.203	-0.253
-397.165	-155.068	-0.050	-0.003
-396.150	35.294	0.074	0.064
-395.136	800.000	-0.114	-0.326
-394.121	-200.000	0.035	-0.219
-393.106	-34.269	-0.061	-0.033
-392.092	308.448	-0.068	0.126
-391.077	94.615	0.053	-0.060
-390.063	-200.000	0.037	0.194
-389.048	800.000	-0.126	0.347
-388.033	-127.127	0.150	0.022
-387.019	-200.000	-0.002	0.096
-386.004	9.920	-0.222	0.168
-384.990	-131.120	0.157	0.021
-383.975	-59.522	-0.249	0.106
-382.960	-42.402	-0.216	-0.109
-381.946	-7.993	0.268	-0.179
-380.931	195.002	-0.080	0.121
-379.917	-200.000	-0.002	-0.187
-378.902	-200.000	0.001	-0.017
-377.888	-32.805	-0.109	-0.060
-376.873	800.000	-0.063	-0.204
-375.858	-118.460	0.018	-0.003
-374.844	129.940	0.101	0.129
-373.829	-101.421	-0.237	-0.057
-372.815	62.253	-0.274	0.271
-371.800	-71.660	0.179	0.066
-370.785	-181.121	0.113	0.002
-369.771	-41.293	-0.087	0.044
-368.756	-99.029	-0.343	-0.086
-367.742	100.456	0.143	0.164
-366.727	800.000	0.010	-0.029
-365.712	257.550	0.077	0.131
-364.698	-93.280	0.090	0.025
-363.683	36.803	-0.034	0.030
-362.669	-200.000	-0.016	-0.127
-361.654	-118.537	-0.063	0.011
-360.639	14.150	0.296	-0.229
-359.625	-28.782	-0.102	0.058
-358.610	125.982	0.054	0.068
-357.596	54.192	-0.191	0.183
-356.581	128.609	0.195	-0.246
-355.566	-151.850	-0.230	-0.017
-354.552	-200.000	-0.040	-0.203
-353.537	42.567	0.080	-0.072
-352.523	67.176	-0.132	0.133
-351.508	800.000	0.065	0.261
-350.493	-79.255	-0.141	0.048
-349.479	-200.000	-0.037	-0.376
-348.464	47.817	-0.039	-0.037
-347.450	-139.412	-0.237	0.025
-346.435	132.867	0.078	-0.099
-345.420	-200.000	-0.023	-0.129
-344.406	-109.208	0.254	0.053
-343.391	800.000	0.080	-0.238
-342.377	151.189	-0.042	-0.057
-341.362	800.000	0.029	0.089
-340.348	123.035	-0.138	-0.171
-339.333	-200.000	-0.034	0.196
-338.318	-48.701	-0.101	-0.048
-337.304	101.780	0.121	-0.140
-336.289	225.870	-0.113	0.182
-335.275	35.393	0.266	-0.231
-334.260	-113.728	0.225	0.044
-333.245	800.000	-0.052	0.182
-332.231	-200.000	-0.018	0.316
-331.216	-200.000	-0.020	-0.123
-330.202	-93.746	-0.130	0.035
-329.187	-16.696	0.217	0.136
-328.172	-144.694	-0.199	-0.018
-327.158	427.886	0.132	0.283
-326.143	502.374	-0.089	-0.203
-325.129	-126.690	0.158	-0.023
-324.114	682.821	-0.076	-0.195
-323.099	-123.618	-0.033	0.005
-322.085	800.000	0.045	0.159
-321.070	381.949	0.099	-0.202
-320.056	-200.000	-0.009	-0.110
-319.041	-134.583	-0.234	-0.028
-318.026	-119.162	-0.367	0.063
-317.012	-28.794	0.203	-0.115
-315.997	-200.000	0.004	-0.028
-314.983	-40.310	-0.105	-0.054
-313.968	426.283	0.102	0.218
-312.953	-200.000	0.002	-0.059
-311.939	144.566	0.165	0.218
-310.924	-58.949	-0.301	-0.129
-309.910	71.395	0.253	0.259
-308.895	513.212	0.117	0.270
-307.880	39.416	0.055	0.049
-306.866	111.916	0.068	-0.081
-305.851	-46.738	-0.050	0.024
-304.837	-4.420	0.202	-0.138
-303.822	520.248	0.082	-0.190
-302.807	160.415	0.273	0.376
-301.793	122.421	0.083	0.102
-300.778	-200.000	0.066	-0.327
-299.764	190.139	0.078	-0.115
-298.749	-55.142	-0.063	0.028
-297.735	247.416	0.028	0.047
-296.720	800.000	0.048	0.181
-295.705	800.000	0.080	-0.240
-294.691	-116.826	-0.244	0.044
-293.676	125.932	-0.020	-0.025
-292.662	115.960	0.162	-0.196
-291.647	800.000	-0.076	-0.320
-290.632	613.825	0.096	-0.237
-289.618	-43.521	0.171	0.085
-288.603	28.332	-0.079	0.066
-287.589	-200.000	-0.016	-0.219
-286.574	800.000	-0.054	0.172
-285.559	-25.509	-0.187	0.109
-284.545	265.576	-0.051	0.089
-283.530	515.037	0.082	-0.190
-282.516	606.600	0.080	-0.198
-281.501	10.109	0.400	0.301
-280.486	-101.454	0.112	-0.027
-279.472	513.492	0.085	-0.196
-278.457	800.000	0.013	0.040
-277.443	-200.000	-0.006	-0.215
-276.428	-200.000	0.021	-0.094
-275.413	800.000	0.059	-0.208
-274.399	397.973	-0.103	0.214
-273.384	238.293	0.135	0.222
-272.370	-139.319	-0.171	0.018
-271.355	76.988	-0.019	0.020
-270.340	8.350	-0.031	-0.023
-269.326	-146.800	-0.362	-0.031
-268.311	-17.630	0.203	-0.126
-267.297	647.283	-0.018	-0.045
-266.282	-39.912	0.081	0.042
-265.267	800.000	-0.045	-0.140
-264.253	394.881	-0.019	0.039
-263.238	132.626	-0.125	-0.160
-262.224	-200.000	-0.042	0.240
-261.209	551.101	0.118	-0.279
-260.195	11.508	-0.078	-0.059
-259.180	30.647	0.245	0.207
-258.165	800.000	-0.025	0.078
-257.151	657.211	-0.131	0.333
-256.136	800.000	-0.028	-0.102
-255.122	-200.000	-0.038	0.191
-254.107	-72.210	-0.187	0.068
-253.092	800.000	0.014	0.048
-252.078	-13.882	0.177	-0.113
-251.063	70.584	-0.071	-0.073
-250.049	232.535	-0.102	0.165
-249.034	-10.867	0.297	0.194
-248.019	9.268	-0.108	0.081
-247.005	9.515	0.176	0.132
-245.990	332.581	0.028	0.053
-244.976	634.723	0.058	-0.145
-243.961	-200.000	-0.009	-0.185
-242.946	-200.000	-0.045	0.351
-241.932	296.589	0.018	0.032
-240.917	-23.170	0.335	-0.199
-239.903	195.767	-0.114	-0.171
-238.888	130.563	0.054	-0.069
-237.873	-200.000	-0.017	-0.373
-236.859	-131.328	-0.469	0.061
-235.844	-200.000	0.104	0.500
-234.830	-130.716	-0.202	-0.027
-233.815	800.000	0.077	-0.265
-232.800	-200.000	0.007	-0.254
-231.786	-80.742	-0.222	-0.073
-230.771	273.925	-0.129	-0.225
-229.757	129.986	0.101	-0.127
-228.742	3.331	0.223	-0.160
-227.727	46.016	0.117	-0.107
-226.713	-29.895	-0.073	-0.041
-225.698	-64.476	0.031	0.012
-224.684	800.000	0.065	0.196
-223.669	-37.587	-0.127	-0.067
-222.655	-173.329	0.465	-0.014
-221.640	-132.199	-0.260	0.033
-220.625	-8.597	0.191	-0.126
-219.611	97.808	-0.226	-0.256
-218.596	-200.000	0.033	0.263
-217.582	266.328	-0.214	-0.368
-216.567	-139.787	0.152	-0.016
-215.552	478.593	-0.098	0.219
-214.538	-200.000	0.007	0.246
-213.523	-200.000	0.016	-0.069
-212.509	33.952	-0.050	-0.043
-211.494	82.077	0.288	0.308
-210.479	800.000	0.123	-0.479
-209.465	800.000	0.089	0.295
-208.450	-75.532	-0.027	0.010
-207.436	-200.000	0.023	0.099
-206.421	34.537	0.137	-0.118
-205.406	-77.363	-0.129	0.044
-204.392	62.908	0.249	0.245
-203.377	422.985	0.075	0.158
-202.363	160.930	-0.211	-0.291
-201.348	10.174	0.161	0.120
-200.333	-200.000	0.004	0.044
-199.319	236.534	0.116	-0.189
-198.304	26.079	-0.257	0.211
-197.290	-82.738	0.312	0.099
-196.275	102.213	-0.175	-0.202
-195.260	44.968	-0.249	-0.225
-194.246	-88.852	-0.104	-0.030
-193.231	800.000	0.072	0.200
-192.217	-200.000	-0.005	0.086
-191.202	-135.983	-0.324	0.037
-190.187	168.251	0.117	-0.163
-189.173	-200.000	-0.375	-0.001
-188.158	-22.488	0.162	-0.097
-187.144	38.418	0.193	0.170
-186.129	-98.651	0.101	0.025
-185.114	800.000	0.093	0.266
-184.100	800.000	0.107	0.344
-183.085	0.457	0.235	0.165
-182.071	800.000	0.036	-0.136
-181.056	-93.156	-0.095	0.026
-180.042	102.022	0.189	-0.217
-179.027	-200.000	-0.003	0.172
-178.012	-200.000	-0.038	0.192
-176.998	85.131	-0.115	0.124
-175.983	-145.072	0.202	-0.018
-174.969	179.831	0.083	-0.120
-173.954	-66.051	-0.247	0.097
-172.939	-64.012	-0.223	-0.090
-171.925	-105.593	-0.235	-0.052
-170.910	-19.331	0.233	0.142
-169.896	-200.000	0.075	0.338
-168.881	-200.000	0.051	-0.275
-167.866	-200.000	0.074	-0.485
-166.852	294.774	-0.201	-0.362
-165.837	-157.558	-0.250	0.015
-164.823	-42.869	0.241	0.120
-163.808	6.793	0.170	-0.125
-162.793	-85.186	-0.120	0.037
-161.779	-166.940	0.148	0.006
-160.764	800.000	0.082	0.351
-159.750	-200.000	-0.036	0.199
-158.735	676.823	-0.091	0.233
-157.720	-15.988	0.294	0.184
-156.706	56.795	-0.329	0.315
-155.691	800.000	-0.012	0.048
-154.677	-103.325	0.214	0.050
-153.662	-85.736	0.294	-0.090
-152.647	-49.225	-0.231	0.109
-151.633	-124.812	-0.413	0.063
-150.618	-200.000	-0.013	0.093
-149.604	-54.196	0.358	0.160
-148.589	220.371	0.177	-0.279
-147.574	-98.738	-0.079	-0.020
-146.560	-63.524	0.242	-0.098
-145.545	17.289	-0.231	-0.180
-144.531	800.000	-0.054	0.173
-143.516	-98.401	0.531	0.134
-142.502	-115.822	0.122	0.022
-141.487	-200.000	-0.085	0.374
-140.472	-79.983	0.287	0.095
-139.458	73.253	0.157	-0.162
-138.443	-162.680	-0.377	0.018
-137.429	-200.000	0.083	0.369
-136.414	-200.000	-0.014	-0.104
-135.399	72.648	-0.254	0.260
-134.385	-137.061	0.298	0.033
-133.370	292.759	-0.141	-0.253
-132.356	15.999	0.348	0.269
-131.341	70.031	-0.184	0.186
-130.326	-17.537	-0.193	-0.119
-129.312	193.284	0.056	-0.083
-128.297	800.000	-0.050	-0.177
-127.283	-167.256	0.303	0.012
-126.268	-23.966	0.273	0.160
-125.253	32.757	0.151	-0.128
-124.239	-84.930	-0.247	0.076
-123.224	381.359	0.040	-0.082
-122.210	-200.000	0.045	0.257
-121.195	-163.709	0.234	-0.011
-120.180	800.000	0.069	0.251
-119.166	-82.925	0.095	-0.030
-118.151	29.622	0.167	0.140
-117.137	-200.000	-0.054	0.312
-116.122	-200.000	-0.007	-0.056
-115.107	57.529	-0.281	-0.270
-114.093	345.915	-0.029	-0.056
-113.078	65.042	-0.049	0.049
-112.064	-39.439	0.132	0.068
-111.049	-200.000	-0.044	0.200
-110.034	74.175	-0.094	-0.097
-109.020	214.598	0.119	-0.185
-108.005	-200.000	-0.012	-0.229
-106.991	800.000	0.026	-0.084
-105.976	-123.641	0.113	-0.018
-104.962	-85.774	0.058	0.018
-103.947	559.912	-0.088	-0.209
-102.932	158.581	-0.158	0.215
-101.918	-200.000	-0.001	0.037
-100.903	201.650	-0.064	-0.097
-99.889	-200.000	-0.304	0.001
-98.874	79.007	0.166	0.175
-97.859	-152.946	0.115	0.008
-96.845	-156.814	-0.194	-0.012
-95.830	444.539	-0.051	-0.109
-94.816	495.638	0.060	0.136
-93.801	-200.000	0.029	-0.266
-92.786	-200.000	0.014	-0.274
-91.772	-66.875	-0.406	0.157
-90.757	-200.000	0.004	0.064
-89.743	-96.670	0.416	0.107
-88.728	61.492	-0.066	-0.065
-87.713	287.009	-0.048	-0.085
-86.699	426.921	0.021	0.045
-85.684	0.783	0.082	0.057
-84.670	-19.157	-0.191	0.117
-83.655	800.000	-0.024	-0.075
-82.640	-200.000	-0.006	-0.323
-81.626	-148.471	0.384	0.031
-80.611	-83.594	0.331	-0.104
-79.597	63.491	-0.087	0.086
-78.582	648.967	0.125	0.313
-77.567	-61.543	0.340	0.140
-76.553	-200.000	0.002	-0.120
-75.538	-157.920	0.460	0.027
-74.524	800.000	0.090	0.321
-73.509	-166.613	0.148	0.006
-72.494	-28.312	0.317	-0.179
-71.480	87.549	-0.031	0.033
-70.465	-200.000	0.021	0.314
-69.451	-200.000	0.046	0.248
-68.436	-200.000	0.055	0.372
-67.422	-200.000	0.062	0.334
-66.407	-200.000	-0.019	0.318
-65.392	-116.174	-0.163	-0.030
-64.378	-200.000	-0.039	0.191
-63.363	800.000	0.019	0.078
-62.349	-2.512	0.109	-0.075
-61.334	85.811	-1.046	-1.127
-60.319	30.901	0.856	0.718
-59.305	-200.000	-0.162	-1.021
-58.290	101.783	0.792	0.905
-57.276	-200.000	0.305	1.519
-56.261	-200.000	107.506	626.983
-55.246	524.516	1514.069	3488.817
-54.232	176.267	2702.456	3845.225
-53.217	111.829	2160.042	2554.730
-52.203	41.108	1599.146	1415.078
-51.188	32.646	1336.724	1132.246
-50.173	29.560	1295.608	1079.368
-49.159	53.828	1350.304	1270.426
-48.144	53.976	1365.459	1285.514
-47.130	32.773	1319.937	1118.602
-46.115	29.271	1302.653	1083.365
-45.100	29.079	1297.848	1078.202
-44.086	29.029	1294.914	1075.432
-43.071	28.901	1292.872	1072.946
-42.057	29.027	1290.174	1071.398
-41.042	29.055	1288.804	1070.383
-40.027	28.908	1287.699	1068.565
-39.013	29.105	1285.083	1067.496
-37.998	29.099	1283.417	1066.035
-36.984	29.104	1281.829	1064.702
-35.969	29.050	1279.825	1062.684
-34.954	29.126	1278.655	1062.108
-33.940	29.130	1276.980	1060.695
-32.925	29.097	1275.810	1059.495
-31.911	29.085	1274.482	1058.281
-30.896	29.213	1272.959	1057.706
-29.881	29.323	1271.064	1056.722
-28.867	29.224	1269.791	1055.057
-27.852	29.209	1268.747	1054.062
-26.838	29.287	1266.620	1052.696
-25.823	29.282	1265.512	1051.705
-24.809	29.109	1264.544	1049.872
-23.794	29.136	1263.419	1049.052
-22.779	29.198	1261.632	1047.878
-21.765	29.145	1260.677	1046.741
-20.750	29.236	1259.109	1045.917
-19.736	29.232	1257.785	1044.752
-18.721	29.243	1256.739	1043.904
-17.706	29.161	1255.483	1042.354
-16.692	29.113	1254.497	1041.226
-15.677	29.056	1253.785	1040.267
-14.663	29.242	1252.269	1040.019
-13.648	29.166	1251.512	1038.920
-12.633	29.105	1250.612	1037.789
-11.619	29.121	1249.735	1037.113
-10.604	29.072	1248.880	1036.082
-9.590	29.070	1248.134	1035.411
-8.575	29.144	1247.058	1034.895
-7.560	29.112	1246.125	1033.901
-6.546	29.087	1245.315	1033.048
-5.531	28.933	1244.865	1031.767
-4.517	29.034	1243.914	1031.503
-3.502	29.165	1242.533	1031.052
-2.487	29.032	1241.968	1029.798
-1.473	29.026	1238.070	1026.490
-0.458	27.609	1222.810	1005.987
0.556	22.085	1205.659	969.764
1.571	18.627	1211.346	955.036
2.586	17.861	1225.863	962.076
3.600	17.708	1215.286	952.837
4.615	12.951	1144.328	872.031
5.629	4.106	1070.463	771.767
6.644	-0.116	1050.884	736.905
7.659	-0.330	1048.151	733.876
8.673	-0.374	1046.803	732.649
9.688	-0.389	1045.122	731.337
10.702	-0.041	1043.450	731.798
11.717	5.499	1051.581	764.559
12.731	14.637	1064.597	818.978
13.746	19.195	1070.678	846.023
14.761	20.044	1071.114	850.463
15.775	20.056	1070.305	849.806
16.790	19.914	1069.865	848.686
17.804	19.699	1069.469	847.241
18.819	19.910	1068.611	847.520
19.834	20.000	1068.186	847.548
20.848	19.951	1067.605	846.773
21.863	19.967	1067.372	846.594
22.877	20.008	1066.523	846.046
23.892	19.906	1065.971	845.031
24.907	19.912	1065.291	844.450
25.921	20.001	1064.060	843.834
26.936	19.876	1062.890	842.221
27.950	19.875	1061.537	841.071
28.965	19.741	1059.242	838.528
29.980	19.834	1057.841	837.793
30.994	19.982	1056.675	837.511
32.009	20.036	1055.320	836.623
33.023	19.778	1054.009	834.269
34.038	19.841	1053.654	834.217
35.053	20.097	1052.793	834.692
36.067	19.993	1052.134	833.595
37.082	20.025	1051.381	833.083
38.096	20.228	1050.519	833.298
39.111	20.145	1049.860	832.302
40.126	20.177	1047.799	830.749
41.140	19.873	1046.485	828.180
42.155	19.635	1044.834	825.663
43.169	19.696	1044.077	825.285
44.184	19.642	1043.194	824.254
45.199	19.424	1042.207	822.361
46.213	19.658	1040.867	822.346
47.228	19.828	1040.039	822.428
48.242	19.799	1039.263	821.603
49.257	19.957	1038.592	821.752
50.271	20.093	1037.521	821.478
51.286	20.002	1036.974	820.538
52.301	20.058	1036.142	820.071
53.315	19.991	1034.567	818.436
54.330	19.932	1034.180	817.781
55.344	19.938	1033.609	817.282
56.359	19.922	1031.963	815.835
57.374	19.807	1030.872	814.360
58.388	19.836	1030.166	813.867
59.403	19.929	1029.055	813.353
60.417	19.658	1028.310	811.418
61.432	19.763	1027.899	811.517
62.447	19.842	1027.228	811.284
63.461	19.869	1026.710	810.931
64.476	19.876	1025.058	809.587
65.490	19.763	1024.174	808.287
66.505	19.881	1023.494	808.231
67.520	19.842	1022.600	807.274
68.534	19.654	1021.697	805.614
69.549	19.233	1020.617	802.728
70.563	19.424	1020.001	803.060
71.578	19.409	1019.219	802.303
72.593	19.187	1018.419	800.572
73.607	19.329	1017.802	800.676
74.622	19.567	1017.654	801.596
75.636	19.685	1016.759	801.367
76.651	19.477	1015.870	799.628
77.666	19.321	1015.722	798.717
78.680	19.508	1014.864	798.839
79.695	19.643	1013.719	798.491
80.709	19.733	1013.065	798.324
81.724	19.618	1012.212	797.049
82.739	19.682	1011.406	796.637
83.753	19.982	1010.771	797.449
84.768	20.185	1010.101	797.784
85.782	20.302	1009.247	797.579
86.797	20.258	1008.209	796.483
87.812	20.060	1006.814	794.403
88.826	20.142	1006.414	794.395
89.841	20.215	1005.067	793.592
90.855	20.168	1004.610	792.949
91.870	20.155	1003.306	791.791
92.884	20.079	1002.326	790.601
93.899	20.112	1001.279	789.853
94.914	20.193	1000.438	789.488
95.928	20.153	999.182	788.245
96.943	19.880	997.722	785.786
97.957	19.522	996.973	783.503
98.972	19.540	995.758	782.560
99.987	19.742	995.230	782.988
101.001	19.931	994.201	782.964
102.016	19.829	993.710	782.048
103.030	19.796	992.429	780.824
104.045	19.627	991.882	779.560
105.060	19.535	990.426	777.934
106.074	19.731	989.954	778.374
107.089	20.147	989.772	780.037
108.103	19.972	988.259	777.991
109.118	19.768	987.102	776.093
110.133	19.886	986.011	775.697
111.147	19.605	984.751	773.380
112.162	19.580	983.544	772.249
113.176	19.819	982.801	772.665
114.191	19.679	982.345	771.616
115.206	19.330	981.329	769.192
116.220	19.343	980.462	768.502
117.235	19.508	979.617	768.508
118.249	19.483	978.506	767.457
119.264	19.467	977.673	766.660
120.279	19.459	977.251	766.228
121.293	19.592	976.514	766.173
122.308	19.604	975.514	765.375
123.322	19.506	974.184	763.829
124.337	19.424	972.768	762.290
125.352	18.857	971.251	758.531
126.366	18.965	970.194	758.112
127.381	19.605	970.202	760.874
128.395	20.006	969.500	762.022
129.410	20.051	968.818	761.613
130.424	20.021	967.906	760.698
131.439	20.021	966.502	759.528
132.454	19.944	965.881	758.635
133.468	19.869	965.298	757.781
134.483	20.008	964.386	757.605
135.497	20.183	963.820	757.859
136.512	20.063	962.987	756.614
137.527	20.246	961.472	756.156
138.541	20.236	961.139	755.783
139.556	20.106	960.446	754.606
140.570	20.162	959.371	753.938
141.585	20.211	958.479	753.381
142.600	20.090	957.243	751.817
143.614	20.342	956.804	752.499
144.629	20.600	955.579	752.588
145.643	20.425	954.812	751.157
146.658	20.114	953.518	748.734
147.673	20.187	952.263	747.996
148.687	20.135	951.287	746.939
149.702	19.964	950.570	745.572
150.716	19.949	949.845	744.874
151.731	20.136	948.928	744.892
152.746	20.368	948.334	745.355
153.760	20.511	947.280	745.076
154.775	20.386	947.282	744.474
155.789	20.427	946.106	743.659
156.804	20.274	945.069	742.126
157.819	20.473	944.323	742.325
158.833	20.496	943.455	741.675
159.848	20.494	942.508	740.854
160.862	20.363	941.500	739.437
161.877	20.427	940.430	738.806
162.892	20.504	940.064	738.780
163.906	20.391	938.540	737.038
164.921	20.337	937.251	735.733
165.935	20.511	936.043	735.453
166.950	20.450	935.509	734.713
167.964	20.387	934.924	733.922
168.979	20.207	934.080	732.432
169.994	20.261	933.063	731.797
171.008	20.469	932.472	732.146
172.023	20.510	931.390	731.404
173.037	20.150	930.298	728.969
174.052	20.117	929.061	727.799
175.067	20.295	928.639	728.149
176.081	20.387	927.889	727.883
177.096	20.204	927.516	726.758
178.110	19.940	926.424	724.734
179.125	19.756	926.213	723.736
180.140	19.867	925.832	723.839
181.154	19.978	925.143	723.701
182.169	20.233	925.013	724.600
183.183	20.375	924.448	724.682
184.198	20.310	923.487	723.597
185.213	20.225	922.421	722.340
186.227	20.471	921.496	722.580
187.242	20.252	921.448	721.565
188.256	20.492	920.126	721.462
189.271	20.622	919.292	721.283
190.286	20.134	918.592	718.648
191.300	19.664	917.173	715.528
192.315	19.135	915.332	711.841
193.329	18.976	915.534	711.278
194.344	19.798	915.632	714.691
195.359	20.344	915.617	716.873
196.373	20.398	915.269	716.759
197.388	20.237	914.535	715.458
198.402	20.187	913.557	714.422
199.417	20.318	912.884	714.372
200.432	19.891	911.961	711.829
201.446	19.785	911.337	710.845
202.461	19.773	910.745	710.272
203.475	18.998	909.141	705.778
204.490	18.504	907.467	702.394
205.504	19.318	908.289	706.304
206.519	20.040	907.720	708.753
207.534	20.079	907.087	708.357
208.548	20.347	907.399	709.634
209.563	20.112	906.257	707.718
210.577	20.145	905.411	707.126
211.592	20.400	905.506	708.180
212.607	20.362	904.328	707.042
213.621	20.458	903.997	707.112
214.636	20.424	903.044	706.163
215.650	20.424	902.230	705.466
216.665	20.527	902.005	705.645
217.680	20.364	901.039	704.166
218.694	19.999	899.422	701.361
219.709	19.871	899.029	700.475
220.723	20.252	898.585	701.610
221.738	20.259	897.976	701.101
222.753	20.248	897.658	700.745
223.767	20.433	896.921	700.855
224.782	20.484	896.571	700.724
225.796	20.312	896.293	699.752
226.811	19.818	894.351	696.185
227.826	19.342	893.459	693.515
228.840	19.615	892.759	694.007
229.855	19.561	892.277	693.355
230.869	19.208	890.929	690.828
231.884	19.635	891.406	692.851
232.899	20.289	891.424	695.425
233.913	20.261	890.226	694.319
234.928	20.206	889.733	693.652
235.942	20.165	889.251	693.050
236.957	19.970	887.858	691.128
237.972	19.994	887.241	690.682
238.986	20.078	886.942	690.722
240.001	20.112	886.559	690.497
241.015	20.209	885.849	690.269
242.030	20.310	885.742	690.528
243.045	20.402	884.817	690.109
244.059	20.495	884.218	689.951
245.074	20.239	883.304	688.160
246.088	19.891	882.111	685.793
247.103	20.197	882.216	687.027
248.117	20.722	882.128	688.974
249.132	20.800	881.756	688.932
250.147	21.028	880.592	688.862
251.161	21.074	880.119	688.613
252.176	20.924	879.725	687.651
253.190	21.215	879.114	688.261
254.205	21.290	878.404	687.940
255.220	21.167	877.964	687.053
256.234	21.156	877.123	686.287
257.249	21.112	876.060	685.222
258.263	21.096	875.518	684.676
259.278	21.067	874.909	684.025
260.293	21.198	874.659	684.283
261.307	21.084	873.803	683.107
262.322	20.939	872.749	681.653
263.336	20.121	870.872	676.933
264.351	19.054	868.928	671.202
265.366	19.254	868.725	671.769
266.380	20.196	869.451	675.941
267.395	20.737	868.701	677.405
268.409	20.636	868.243	676.598
269.424	20.814	868.223	677.213
270.439	20.922	867.234	676.803
271.453	21.085	866.154	676.529
272.468	21.206	866.248	677.013
273.482	21.297	865.498	676.718
274.497	20.905	864.254	674.173
275.512	20.515	863.858	672.296
276.526	20.975	863.804	673.970
277.541	21.087	862.978	673.701
278.555	20.669	862.142	671.375
279.570	20.612	861.446	670.554
280.585	20.783	861.038	670.835
281.599	20.828	859.993	670.137
282.614	20.174	858.553	666.443
283.628	20.232	858.449	666.524
284.643	20.641	857.541	667.331
285.657	20.298	856.509	665.155
286.672	19.943	856.138	663.445
287.687	20.547	856.007	665.600
288.701	20.597	855.277	665.164
289.716	20.239	854.324	662.998
290.730	20.080	854.188	662.225
291.745	19.900	852.847	660.439
292.760	20.318	852.923	662.035
293.774	21.252	852.924	665.537
294.789	21.647	852.671	666.783
295.803	21.567	852.307	666.138
296.818	21.535	851.587	665.392
297.833	21.268	850.233	663.265
298.847	21.123	849.554	662.124
299.862	21.365	849.521	662.957
300.876	21.549	849.278	663.407
301.891	21.442	848.123	662.043
302.906	21.032	847.335	659.816
303.920	21.112	847.205	659.959
304.935	21.322	847.011	660.546
305.949	21.472	845.863	660.157
306.964	21.085	845.480	658.341
307.979	21.194	845.159	658.441
308.993	21.581	844.489	659.320
310.008	21.600	843.892	658.866
311.022	21.401	843.322	657.616
312.037	21.335	842.581	656.731
313.052	20.907	842.050	654.653
314.066	20.149	840.494	650.541
315.081	19.994	839.771	649.343
316.095	20.935	840.234	653.173
317.110	21.194	839.914	653.836
318.125	20.444	838.230	649.662
319.139	19.481	836.739	644.853
320.154	19.542	836.411	644.770
321.168	20.299	836.619	647.702
322.183	21.182	836.306	650.692
323.197	21.050	836.506	650.299
324.212	21.300	836.225	650.955
325.227	21.471	835.171	650.712
326.241	21.133	834.764	649.081
327.256	21.111	834.250	648.541
328.270	21.144	833.500	648.023
329.285	20.904	832.543	646.334
330.300	20.681	831.947	644.989
331.314	21.027	831.619	645.957
332.329	21.327	831.068	646.584
333.343	21.314	831.124	646.520
334.358	21.464	830.462	646.504
335.373	21.460	830.039	646.102
336.387	21.739	830.028	647.065
337.402	21.789	830.139	647.281
338.416	21.626	830.081	646.576
339.431	21.807	828.885	646.253
340.446	21.972	828.799	646.737
341.460	21.816	828.453	645.837
342.475	21.560	828.009	644.490
343.489	21.720	827.546	644.662
344.504	22.025	827.368	645.587
345.519	22.071	827.045	645.449
346.533	22.143	826.433	645.178
347.548	22.179	825.803	644.761
348.562	22.134	825.378	644.205
349.577	22.096	825.031	643.740
350.592	22.080	823.940	642.771
351.606	22.228	823.033	642.549
352.621	21.855	822.414	640.648
353.635	21.889	821.645	640.116
354.650	21.331	819.912	636.674
355.665	20.243	819.022	631.967
356.679	20.721	818.784	633.469
357.694	21.096	817.984	634.157
358.708	21.173	817.404	633.929
359.723	21.504	817.438	635.103
360.738	21.869	817.398	636.338
361.752	21.920	816.690	635.915
362.767	22.218	816.215	636.568
363.781	22.313	816.143	636.801
364.796	22.407	815.772	636.794
365.810	22.495	815.468	636.819
366.825	22.401	814.733	635.851
367.840	22.237	813.537	634.268
368.854	21.806	812.772	632.061
369.869	21.748	812.723	631.759
370.883	21.902	812.506	632.089
371.898	21.780	811.646	630.927
372.913	21.921	811.363	631.157
373.927	22.029	811.226	631.382
374.942	22.082	810.771	631.165
375.956	22.254	810.196	631.276
376.971	22.284	809.944	631.132
377.986	22.481	809.320	631.298
379.000	22.413	808.637	630.466
380.015	22.184	808.115	629.181
381.029	22.258	807.535	628.940
382.044	22.307	807.046	628.680
383.059	22.339	806.701	628.469
384.073	22.545	806.033	628.627
385.088	22.381	805.626	627.670
386.102	22.163	804.740	626.145
387.117	22.365	803.500	625.845
388.132	21.870	802.928	623.585
389.146	21.358	802.376	621.283
390.161	21.867	801.946	622.700
391.175	22.097	801.806	623.354
392.190	21.826	800.827	621.576
393.205	20.482	799.173	615.479
394.219	19.246	797.366	609.666
395.234	19.193	797.008	609.151
396.248	20.905	798.486	616.283
397.263	22.169	799.194	621.247
398.278	22.157	798.758	620.812
399.292	21.847	798.133	619.178
400.307	21.767	797.963	618.707
401.321	22.248	796.827	619.465
402.336	22.488	797.032	620.418
403.350	22.793	796.690	621.170
404.365	22.795	796.814	621.220
405.380	23.183	796.205	622.054
406.394	23.149	795.818	621.575
407.409	23.081	795.254	620.841
408.423	22.968	795.281	620.410
409.438	23.052	794.984	620.417
410.453	23.116	794.598	620.288
411.467	23.162	793.314	619.393
412.482	23.101	792.862	618.772
413.496	23.153	793.158	619.126
414.511	23.169	792.566	618.667
415.526	23.121	791.978	617.988
416.540	22.974	791.220	616.828
417.555	22.695	790.787	615.461
418.569	22.830	790.154	615.385
419.584	22.849	789.775	615.100
420.599	22.601	789.147	613.694
421.613	158.132	1365.382	1798.853
422.628	136.912	1449.342	1798.941
