DTS Sentinel unit serial number:	SN413079Multiplexer serial number:	ORYXHardware model number:	OX4-SRSoftware version number:	ORYX F/W v4.00 Oryx Data Collector v3.7.2.0data status	okinstallation	princeton_trtdifferential loss correction	single-endedforward channel	channel 1reverse channel	N/Adate	2019/09/10time	17:00:11forward acquisition time	60.00reverse acquisition time	0.00gamma	496.2192k internal	0.2299k external	0.2299temperature offset calibration	0.9923default loss term (dB/km)	0.3790temperature slope calibration	1.0000multiplexer offset coefficient	1.0000multiplexer slope coefficient	1.0000fibre end	0.00T internal ref (°C)	37.62T ext. ref 1 (°C)	-0.33T ext. ref 2 (°C)	32.20length (m)	temperature (°C)	Stokes	anti-Stokes-747.200	157.681	-0.013	-0.018
-746.185	772.066	0.067	0.187
-745.171	-147.741	-0.129	0.011
-744.156	109.667	0.151	0.185
-743.142	125.747	0.193	-0.249
-742.127	-74.421	-0.296	0.109
-741.112	-64.238	0.034	-0.014
-740.098	-59.321	0.439	0.193
-739.083	-111.961	0.329	-0.068
-738.069	-200.000	-0.016	-0.126
-737.054	-18.818	-0.065	-0.041
-736.039	800.000	0.047	0.146
-735.025	-100.817	-0.380	0.095
-734.010	104.698	0.088	-0.106
-732.996	82.910	0.108	-0.119
-731.981	-200.000	-0.048	0.232
-730.966	-200.000	0.002	0.204
-729.952	15.395	-0.397	0.318
-728.937	448.700	-0.120	-0.269
-727.923	-200.000	-0.003	0.057
-726.908	-24.226	0.202	-0.123
-725.894	689.163	0.115	0.308
-724.879	-76.327	-0.205	-0.074
-723.864	-200.000	0.029	-0.435
-722.850	-90.410	-0.172	0.051
-721.835	-200.000	0.024	-0.201
-720.821	237.172	-0.030	-0.050
-719.806	-14.882	0.247	-0.161
-718.791	244.359	-0.075	-0.128
-717.777	-118.110	0.240	0.044
-716.762	72.625	0.115	-0.122
-715.748	195.687	0.153	-0.237
-714.733	446.867	-0.069	-0.154
-713.718	762.965	-0.011	-0.031
-712.704	-45.461	-0.197	0.100
-711.689	6.853	-0.130	-0.099
-710.675	-200.000	0.012	-0.280
-709.660	231.167	-0.132	-0.220
-708.645	-200.000	-0.052	-0.245
-707.631	-39.943	-0.370	0.197
-706.616	-200.000	0.001	0.208
-705.602	37.750	-0.220	0.199
-704.587	800.000	-0.088	0.325
-703.572	250.530	-0.056	-0.097
-702.558	-97.906	-0.443	-0.117
-701.543	54.388	-0.115	-0.113
-700.529	618.321	-0.070	0.179
-699.514	-44.117	0.114	-0.058
-698.499	165.328	-0.043	0.062
-697.485	-8.910	0.093	0.063
-696.470	-19.301	-0.127	-0.080
-695.456	-64.942	-0.365	0.150
-694.441	450.197	-0.067	-0.151
-693.426	-200.000	-0.069	-0.532
-692.412	67.605	-0.119	-0.124
-691.397	-0.608	0.159	0.115
-690.383	-115.368	-0.394	0.076
-689.368	35.844	-0.150	-0.134
-688.354	22.666	0.153	0.127
-687.339	295.582	-0.063	-0.117
-686.324	-132.765	0.062	-0.008
-685.310	111.739	-0.066	-0.081
-684.295	-82.553	-0.125	0.041
-683.281	-105.519	-0.203	0.047
-682.266	-38.617	0.066	-0.036
-681.251	-92.100	-0.201	0.058
-680.237	-200.000	-0.013	-0.135
-679.222	-200.000	0.001	-0.254
-678.208	-54.375	-0.039	-0.018
-677.193	-200.000	-0.041	-0.400
-676.178	-75.880	-0.055	-0.020
-675.164	-83.414	-0.064	-0.021
-674.149	800.000	-0.081	-0.231
-673.135	50.420	-0.249	0.240
-672.120	-200.000	0.030	-0.524
-671.105	-200.000	-0.031	0.185
-670.091	781.732	-0.077	0.213
-669.076	-129.268	-0.084	-0.012
-668.062	-156.349	0.069	-0.004
-667.047	-200.000	0.053	0.307
-666.032	-86.566	-0.092	-0.029
-665.018	195.699	-0.071	-0.110
-664.003	-77.848	-0.153	-0.054
-662.989	634.913	-0.077	0.199
-661.974	5.547	-0.446	-0.335
-660.959	-200.000	-0.055	0.251
-659.945	-200.000	-0.013	-0.072
-658.930	-200.000	0.002	-0.168
-657.916	-200.000	-0.100	-0.499
-656.901	-31.937	0.182	-0.104
-655.886	-200.000	0.026	0.174
-654.872	-6.830	-0.181	-0.125
-653.857	-200.000	0.014	0.088
-652.843	-200.000	-0.016	0.075
-651.828	800.000	-0.107	-0.393
-650.814	138.242	-0.076	0.101
-649.799	517.459	0.070	-0.167
-648.784	-49.889	0.194	-0.093
-647.770	-37.419	-0.154	-0.084
-646.755	37.683	-0.206	-0.186
-645.741	-147.199	0.171	-0.015
-644.726	18.182	-0.136	0.110
-643.711	-126.345	0.089	-0.013
-642.697	26.539	0.143	0.122
-641.682	4.931	-0.055	0.041
-640.668	-91.291	-0.389	0.113
-639.653	-13.038	-0.148	0.098
-638.638	-67.962	-0.256	-0.101
-637.624	-200.000	-0.019	-0.116
-636.609	189.712	-0.115	0.176
-635.595	800.000	-0.055	0.193
-634.580	800.000	0.107	0.368
-633.565	185.103	0.145	0.219
-632.551	-30.887	0.190	-0.109
-631.536	98.884	-0.212	-0.249
-630.522	-19.522	0.087	0.054
-629.507	-200.000	-0.054	0.387
-628.492	-125.599	0.217	-0.033
-627.478	-58.890	-0.191	0.084
-626.463	227.193	-0.144	-0.238
-625.449	-200.000	0.010	0.243
-624.434	-112.014	-0.376	0.077
-623.419	-142.225	0.216	0.022
-622.405	-6.024	-0.145	0.100
-621.390	125.357	-0.107	-0.138
-620.376	-200.000	0.033	-0.169
-619.361	-161.925	-0.311	-0.016
-618.346	-51.401	-0.239	-0.113
-617.332	-7.925	-0.346	-0.237
-616.317	-142.561	0.149	0.015
-615.303	-200.000	0.017	0.379
-614.288	392.483	-0.067	0.142
-613.273	-79.651	0.366	-0.125
-612.259	800.000	0.070	0.266
-611.244	-49.272	-0.098	-0.048
-610.230	-200.000	0.026	-0.131
-609.215	-200.000	0.020	-0.096
-608.201	295.685	0.088	-0.164
-607.186	319.141	0.134	0.257
-606.171	800.000	-0.072	0.202
-605.157	-109.116	-0.326	-0.070
-604.142	-200.000	0.047	0.227
-603.128	-25.931	-0.160	0.095
-602.113	126.455	-0.125	-0.160
-601.098	79.856	-0.074	-0.081
-600.084	-37.767	-0.429	0.232
-599.069	-200.000	0.009	-0.124
-598.055	-200.000	0.107	-0.540
-597.040	540.935	-0.073	-0.176
-596.025	315.265	-0.086	0.165
-595.011	-200.000	-0.013	0.185
-593.996	21.892	-0.107	-0.088
-592.982	-200.000	-0.034	-0.167
-591.967	-76.827	0.217	0.077
-590.952	-65.018	-0.286	-0.117
-589.938	142.514	-0.022	0.029
-588.923	800.000	0.021	0.077
-587.909	-200.000	0.002	-0.322
-586.894	800.000	0.038	0.141
-585.879	331.650	-0.143	-0.280
-584.865	800.000	-0.098	-0.358
-583.850	197.837	-0.109	0.169
-582.836	-146.407	0.259	0.023
-581.821	34.484	-0.283	-0.250
-580.806	-95.770	-0.069	-0.019
-579.792	341.376	0.101	-0.201
-578.777	11.647	0.031	0.024
-577.763	-28.616	0.160	-0.093
-576.748	-200.000	-0.044	0.394
-575.733	-47.443	0.294	0.145
-574.719	-77.544	-0.211	0.074
-573.704	-200.000	-0.039	-0.359
-572.690	469.889	-0.137	-0.312
-571.675	-200.000	0.034	0.199
-570.661	-112.830	0.461	-0.093
-569.646	24.900	-0.086	-0.072
-568.631	350.282	0.024	-0.048
-567.617	-79.496	0.161	0.055
-566.602	-82.265	-0.067	-0.022
-565.588	-200.000	0.020	0.209
-564.573	-13.586	-0.164	0.107
-563.558	-200.000	-0.027	0.119
-562.544	257.768	-0.124	-0.217
-561.529	-200.000	0.051	0.250
-560.515	359.540	0.117	0.236
-559.500	-200.000	-0.009	0.106
-558.485	-104.194	0.217	0.051
-557.471	-13.315	-0.219	-0.144
-556.456	-101.660	-0.050	0.012
-555.442	-86.477	0.445	-0.139
-554.427	-200.000	-0.003	-0.104
-553.412	168.378	-0.052	-0.075
-552.398	-78.727	0.127	0.044
-551.383	-200.000	-0.028	0.212
-550.369	-93.560	0.029	-0.008
-549.354	-200.000	-0.005	0.257
-548.339	291.891	0.036	-0.066
-547.325	800.000	0.018	0.062
-546.310	-116.294	-0.394	0.074
-545.296	800.000	0.067	-0.286
-544.281	-87.934	0.326	-0.099
-543.266	-200.000	-0.019	-0.238
-542.252	-29.904	0.035	0.020
-541.237	-26.169	0.244	0.145
-540.223	-152.280	0.042	-0.003
-539.208	-200.000	0.063	-0.280
-538.193	129.372	0.096	0.124
-537.179	34.177	0.160	-0.141
-536.164	-150.389	-0.403	-0.031
-535.150	-37.755	0.108	-0.058
-534.135	-181.299	-0.189	0.004
-533.121	-200.000	0.053	-0.506
-532.106	-65.363	0.288	-0.117
-531.091	-200.000	-0.011	0.223
-530.077	-159.418	-0.243	0.014
-529.062	800.000	0.040	0.132
-528.048	88.838	-0.131	0.148
-527.033	-62.139	0.174	0.073
-526.018	-73.196	0.263	-0.098
-525.004	84.959	0.080	0.089
-523.989	148.308	0.167	-0.229
-522.975	-90.148	-0.131	0.039
-521.960	-47.658	-0.133	0.065
-520.945	-200.000	-0.038	0.347
-519.931	767.002	0.134	-0.368
-518.916	-72.927	0.185	-0.069
-517.902	-88.784	0.189	-0.057
-516.887	-60.713	-0.165	0.071
-515.872	-18.721	0.240	0.151
-514.858	60.021	0.213	0.213
-513.843	70.271	0.180	-0.188
-512.829	98.053	-0.078	-0.091
-511.814	-44.102	0.270	-0.137
-510.799	-176.102	-0.272	0.007
-509.785	236.762	-0.068	0.115
-508.770	-200.000	-0.036	-0.305
-507.756	81.735	-0.068	0.074
-506.741	280.398	0.093	0.167
-505.726	-125.968	-0.346	0.053
-504.712	117.281	-0.118	-0.147
-503.697	-124.900	0.276	-0.043
-502.683	185.816	-0.058	-0.088
-501.668	459.507	0.088	0.197
-500.653	230.164	0.054	-0.090
-499.639	397.572	0.149	0.315
-498.624	193.036	-0.084	0.129
-497.610	395.105	-0.031	0.066
-496.595	800.000	0.082	-0.301
-495.581	516.674	0.078	-0.184
-494.566	-191.213	-0.203	-0.002
-493.551	475.477	0.089	0.204
-492.537	-72.906	-0.150	0.056
-491.522	-115.667	-0.196	0.037
-490.508	-200.000	-0.047	0.214
-489.493	-139.515	0.324	-0.035
-488.478	74.741	-0.081	-0.086
-487.464	-200.000	-0.052	-0.398
-486.449	-13.665	0.183	-0.120
-485.435	-200.000	0.007	0.091
-484.420	1.915	-0.092	-0.067
-483.405	10.917	0.298	-0.230
-482.391	681.824	-0.074	0.196
-481.376	-131.140	-0.324	0.044
-480.362	-37.150	-0.259	0.140
-479.347	800.000	-0.051	-0.153
-478.332	211.317	-0.076	-0.121
-477.318	66.039	-0.245	-0.250
-476.303	72.052	0.259	0.273
-475.289	800.000	-0.056	-0.195
-474.274	599.687	-0.087	0.217
-473.259	-116.856	0.152	0.028
-472.245	741.361	0.057	0.156
-471.230	-200.000	0.008	-0.088
-470.216	20.595	-0.277	-0.226
-469.201	355.616	0.243	0.488
-468.186	-13.664	0.069	0.045
-467.172	195.124	0.162	0.249
-466.157	-200.000	-0.022	-0.112
-465.143	-200.000	0.105	-0.500
-464.128	-200.000	0.016	-0.434
-463.113	60.986	-0.228	-0.228
-462.099	-91.174	-0.084	0.024
-461.084	91.555	-0.079	0.089
-460.070	759.180	-0.110	-0.301
-459.055	394.776	0.042	0.089
-458.040	13.786	-0.232	0.182
-457.026	-127.921	-0.350	0.051
-456.011	-4.369	-0.263	0.183
-454.997	-114.116	0.222	0.043
-453.982	-151.027	0.133	-0.010
-452.968	10.782	-0.311	-0.239
-451.953	464.552	0.124	0.280
-450.938	292.072	0.080	0.147
-449.924	-200.000	-0.008	-0.193
-448.909	-175.777	0.183	0.005
-447.895	-116.453	0.187	0.035
-446.880	51.849	-0.221	-0.212
-445.865	193.333	-0.186	0.284
-444.851	90.713	-0.134	0.151
-443.836	-31.609	-0.154	-0.087
-442.822	-25.105	-0.065	0.039
-441.807	-34.042	0.254	0.141
-440.792	219.175	0.131	-0.211
-439.778	-34.841	-0.221	0.122
-438.763	-137.092	-0.386	0.044
-437.749	-16.556	0.072	-0.046
-436.734	-128.394	-0.071	-0.010
-435.719	-33.297	-0.109	-0.061
-434.705	83.037	0.130	0.143
-433.690	-39.925	0.070	0.037
-432.676	535.362	0.131	-0.314
-431.661	101.047	0.137	-0.160
-430.646	-6.494	0.126	0.086
-429.632	-75.106	0.141	-0.051
-428.617	-149.019	-0.402	0.033
-427.603	84.880	0.089	0.099
-426.588	104.181	0.123	0.146
-425.573	-200.000	-0.087	0.398
-424.559	-127.092	0.255	0.038
-423.544	-14.452	-0.161	-0.104
-422.530	-200.000	-0.006	0.112
-421.515	57.036	-0.222	-0.218
-420.500	-141.802	-0.540	0.055
-419.486	-17.471	-0.171	-0.108
-418.471	-79.903	-0.098	-0.033
-417.457	104.223	0.205	-0.243
-416.442	-200.000	-0.031	0.140
-415.428	158.698	-0.148	-0.206
-414.413	-200.000	-0.008	-0.166
-413.398	313.805	0.095	-0.179
-412.384	-44.797	0.041	0.021
-411.369	-128.198	-0.112	-0.016
-410.355	-122.624	-0.073	-0.012
-409.340	-55.700	0.239	0.107
-408.325	41.645	0.054	0.049
-407.311	-123.018	0.326	-0.053
-406.296	85.046	-0.179	-0.197
-405.282	-121.053	-0.221	-0.037
-404.267	306.528	-0.030	0.056
-403.252	-102.617	-0.317	0.076
-402.238	-25.557	0.148	0.088
-401.223	800.000	0.053	0.232
-400.209	75.977	0.076	-0.081
-399.194	-127.868	-0.260	-0.038
-398.179	-200.000	-0.026	-0.289
-397.165	-181.494	-0.152	-0.003
-396.150	467.017	0.084	0.189
-395.136	800.000	-0.035	-0.139
-394.121	55.570	0.198	-0.193
-393.106	148.025	0.208	-0.282
-392.092	273.991	0.129	-0.230
-391.077	2.276	0.134	0.098
-390.063	-200.000	0.031	0.140
-389.048	-85.440	-0.128	0.040
-388.033	-121.714	-0.302	-0.050
-387.019	-155.315	0.411	0.027
-386.004	-200.000	-0.010	0.203
-384.990	107.164	0.032	-0.038
-383.975	-200.000	0.023	0.243
-382.960	-11.786	0.021	0.014
-381.946	-174.744	-0.106	0.003
-380.931	-200.000	-0.040	0.333
-379.917	-96.539	-0.241	0.064
-378.902	-200.000	-0.021	-0.176
-377.888	-126.012	-0.236	-0.036
-376.873	-92.884	0.095	0.027
-375.858	49.437	0.116	-0.110
-374.844	58.864	-0.113	-0.111
-373.829	43.519	0.072	0.066
-372.815	-200.000	0.001	0.237
-371.800	-200.000	0.025	0.217
-370.785	36.396	-0.136	-0.121
-369.771	800.000	0.054	0.175
-368.756	306.178	0.241	0.451
-367.742	800.000	-0.090	0.265
-366.727	41.618	-0.018	-0.016
-365.712	-135.445	0.355	-0.043
-364.698	161.156	0.079	0.112
-363.683	427.911	0.032	0.069
-362.669	-103.887	0.124	0.029
-361.654	-9.454	-0.268	0.180
-360.639	-200.000	-0.091	0.436
-359.625	-91.897	0.294	-0.084
-358.610	-134.017	0.182	-0.023
-357.596	800.000	-0.028	0.121
-356.581	-63.194	0.296	-0.123
-355.566	-14.612	0.231	0.149
-354.552	27.777	-0.279	-0.236
-353.537	-200.000	0.043	0.261
-352.523	-200.000	-0.004	0.324
-351.508	800.000	0.074	0.221
-350.493	82.777	-0.139	-0.152
-349.479	166.936	0.043	-0.062
-348.464	800.000	-0.003	-0.008
-347.450	-200.000	-0.004	-0.242
-346.435	737.456	-0.109	-0.293
-345.420	-63.227	-0.323	-0.134
-344.406	-196.916	0.132	0.001
-343.391	-155.702	-0.213	-0.014
-342.377	524.693	0.118	0.278
-341.362	444.318	-0.043	0.094
-340.348	-160.464	0.441	0.024
-339.333	-200.000	-0.027	-0.194
-338.318	-28.242	0.266	-0.154
-337.304	-200.000	0.032	-0.175
-336.289	800.000	-0.113	-0.375
-335.275	-88.061	-0.242	0.073
-334.260	-109.218	-0.273	0.058
-333.245	-132.149	-0.237	0.031
-332.231	-64.829	-0.217	-0.088
-331.216	-69.001	-0.193	0.075
-330.202	126.319	0.057	0.072
-329.187	-200.000	0.039	-0.205
-328.172	-200.000	-0.022	-0.407
-327.158	169.653	-0.075	0.107
-326.143	-60.803	-0.194	0.082
-325.129	800.000	0.025	0.086
-324.114	-160.670	0.241	0.013
-323.099	4.337	0.223	-0.164
-322.085	32.938	-0.098	0.085
-321.070	-21.861	-0.180	-0.110
-320.056	-200.000	0.020	0.248
-319.041	-68.304	-0.112	0.044
-318.026	-200.000	0.014	0.068
-317.012	589.332	0.136	-0.336
-315.997	433.165	-0.127	-0.276
-314.983	-128.701	0.285	0.040
-313.968	-56.605	0.173	-0.077
-312.953	-1.814	0.190	0.134
-311.939	-200.000	0.004	0.198
-310.924	-200.000	-0.019	0.091
-309.910	-200.000	-0.015	0.088
-308.895	-140.491	-0.176	-0.018
-307.880	168.343	0.235	-0.335
-306.866	-200.000	-0.018	-0.145
-305.851	155.718	0.057	0.079
-304.837	65.525	-0.205	0.208
-303.822	-23.524	-0.053	0.032
-302.807	192.643	-0.219	-0.331
-301.793	-64.874	0.247	-0.100
-300.778	-82.483	-0.276	-0.090
-299.764	181.709	0.037	-0.054
-298.749	276.557	0.127	0.226
-297.735	-200.000	0.023	0.157
-296.720	194.357	0.170	0.258
-295.705	-55.356	-0.201	0.090
-294.691	89.750	0.076	-0.085
-293.676	-51.776	0.328	0.153
-292.662	-200.000	-0.010	-0.096
-291.647	800.000	-0.048	0.177
-290.632	189.888	0.099	0.149
-289.618	-191.166	0.113	0.001
-288.603	-200.000	0.035	0.243
-287.589	45.368	0.196	0.181
-286.574	-53.153	0.367	-0.169
-285.559	-200.000	-0.015	-0.148
-284.545	-127.204	0.107	-0.016
-283.530	-51.940	0.041	-0.019
-282.516	109.128	-0.116	0.140
-281.501	-200.000	-0.142	0.000
-280.486	-200.000	-0.014	-0.088
-279.472	-176.701	0.326	-0.008
-278.457	468.555	0.037	-0.084
-277.443	-38.287	0.172	-0.091
-276.428	-28.857	0.161	-0.093
-275.413	180.671	0.081	-0.119
-274.399	800.000	-0.065	0.232
-273.384	800.000	-0.052	-0.156
-272.370	-76.254	0.288	0.102
-271.355	-150.799	0.049	-0.004
-270.340	-151.850	-0.207	0.015
-269.326	-118.889	-0.115	0.020
-268.311	12.638	-0.309	0.239
-267.297	-165.610	-0.100	-0.004
-266.282	-142.059	0.028	-0.003
-265.267	-76.628	-0.234	-0.082
-264.253	-200.000	0.044	-0.195
-263.238	78.469	-0.074	0.080
-262.224	3.196	0.105	-0.076
-261.209	182.150	0.077	-0.114
-260.195	-8.927	-0.433	-0.290
-259.180	-33.650	0.360	-0.199
-258.165	53.142	-0.365	-0.350
-257.151	546.284	-0.116	0.279
-256.136	-83.549	-0.387	-0.124
-255.122	226.997	0.052	-0.085
-254.107	116.669	0.115	0.141
-253.092	-70.297	-0.159	-0.060
-252.078	-57.448	0.163	0.071
-251.063	800.000	0.023	0.092
-250.049	12.516	0.159	0.123
-249.034	800.000	-0.067	-0.273
-248.019	-25.853	0.103	0.061
-247.005	-101.111	-0.420	-0.103
-245.990	-200.000	-0.072	-0.470
-244.976	633.535	0.041	0.105
-243.961	-157.287	-0.148	0.009
-242.946	-43.877	0.315	-0.159
-241.932	185.310	0.117	-0.173
-240.917	-39.172	-0.181	0.095
-239.903	250.349	0.090	0.154
-238.888	800.000	-0.056	-0.242
-237.873	-200.000	0.005	-0.119
-236.859	781.991	0.113	0.310
-235.844	-200.000	-0.004	-0.249
-234.830	3.724	-0.180	-0.132
-233.815	-200.000	0.003	-0.392
-232.800	17.396	0.130	-0.104
-231.786	-17.687	-0.107	0.067
-230.771	20.046	0.196	0.158
-229.757	-159.749	-0.147	-0.008
-228.742	526.246	0.079	-0.187
-227.727	-5.475	0.136	-0.093
-226.713	361.019	-0.094	0.188
-225.698	7.009	0.198	-0.148
-224.684	473.718	-0.120	0.271
-223.669	-166.680	0.148	0.006
-222.655	365.068	0.100	0.201
-221.640	-200.000	-0.072	0.388
-220.625	779.151	0.056	0.154
-219.611	-26.921	0.262	0.153
-218.596	298.465	-0.031	-0.057
-217.582	507.366	0.084	0.196
-216.567	323.743	0.166	0.317
-215.552	-200.000	0.084	0.398
-214.538	156.654	0.270	0.373
-213.523	206.254	-0.079	0.122
-212.509	16.920	0.018	0.014
-211.494	-122.712	0.235	-0.038
-210.479	-200.000	0.177	0.001
-209.465	-18.727	-0.308	-0.192
-208.450	321.717	0.046	-0.088
-207.436	-67.766	0.316	0.123
-206.421	800.000	-0.019	-0.056
-205.406	-14.762	-0.142	0.091
-204.392	-104.197	-0.214	-0.050
-203.377	-200.000	0.019	0.306
-202.363	800.000	0.042	0.121
-201.348	-123.087	-0.156	-0.025
-200.333	284.660	-0.097	0.174
-199.319	-75.647	0.060	-0.021
-198.304	-200.000	0.043	0.351
-197.290	10.365	0.093	-0.071
-196.275	-111.609	-0.118	-0.024
-195.260	228.731	-0.113	0.185
-194.246	-0.609	0.289	-0.204
-193.231	-57.166	0.219	0.096
-192.217	-7.601	-0.248	-0.168
-191.202	-69.912	0.146	-0.056
-190.187	-200.000	0.048	-0.256
-189.173	18.653	0.097	-0.078
-188.158	28.989	0.123	0.104
-187.144	-200.000	-0.017	0.078
-186.129	-198.285	-0.329	0.002
-185.114	-129.998	0.229	0.031
-184.100	17.227	-0.130	0.103
-183.085	0.677	0.110	-0.079
-182.071	-90.283	-0.198	-0.057
-181.056	21.078	-0.236	0.191
-180.042	-91.603	0.217	-0.062
-179.027	-200.000	0.033	-0.231
-178.012	428.041	0.134	-0.289
-176.998	109.641	-0.227	-0.271
-175.983	-53.168	-0.113	-0.052
-174.969	323.817	0.128	-0.243
-173.954	-8.912	-0.184	0.123
-172.939	743.178	-0.045	0.120
-171.925	-5.938	0.197	0.135
-170.910	283.539	0.023	0.042
-169.896	449.161	-0.083	0.182
-168.881	-136.546	0.162	0.019
-167.866	-200.000	0.015	0.126
-166.852	-27.520	0.087	0.050
-165.837	800.000	0.042	0.169
-164.823	-104.478	-0.050	-0.012
-163.808	-200.000	0.007	0.239
-162.793	204.343	0.161	0.249
-161.779	355.749	0.159	-0.316
-160.764	-64.946	-0.097	-0.039
-159.750	252.532	0.031	-0.053
-158.735	-93.022	0.337	-0.094
-157.720	-95.088	0.063	-0.017
-156.706	-120.447	0.371	0.063
-155.691	-200.000	-0.073	-0.392
-154.677	399.266	0.116	0.243
-153.662	13.712	0.052	-0.040
-152.647	103.019	0.075	-0.088
-151.633	-58.850	-0.216	-0.093
-150.618	800.000	-0.064	-0.188
-149.604	-37.560	-0.202	0.107
-148.589	96.127	-0.140	-0.159
-147.574	261.582	-0.059	0.101
-146.560	-79.149	0.260	-0.088
-145.545	242.475	-0.209	0.348
-144.531	143.915	-0.129	-0.172
-143.516	6.722	0.090	-0.067
-142.502	-124.814	-0.099	-0.015
-141.487	372.463	-0.201	0.407
-140.472	-81.636	-0.251	0.082
-139.458	-107.418	-0.121	0.027
-138.443	408.626	0.038	-0.079
-137.429	-33.373	-0.306	0.169
-136.414	-77.527	0.322	0.111
-135.399	-76.854	0.139	0.048
-134.385	-56.612	-0.079	0.035
-133.370	-200.000	0.040	0.273
-132.356	-200.000	-0.011	0.191
-131.341	-98.539	-0.244	-0.062
-130.326	558.420	-0.044	-0.107
-129.312	403.628	-0.145	0.304
-128.297	-200.000	-0.032	0.504
-127.283	-86.363	0.363	-0.111
-126.268	-200.000	0.024	0.247
-125.253	-191.613	0.182	-0.002
-124.239	58.755	0.137	-0.134
-123.224	-131.029	-0.223	0.030
-122.210	720.184	-0.073	0.193
-121.195	627.901	0.186	0.467
-120.180	799.850	-0.115	-0.316
-119.166	-54.705	-0.301	0.136
-118.151	-99.948	0.188	-0.047
-117.137	50.408	-0.149	0.140
-116.122	2.987	-0.102	0.074
-115.107	-200.000	0.045	0.207
-114.093	-13.844	-0.112	0.072
-113.078	800.000	-0.063	-0.239
-112.064	-19.823	-0.102	0.063
-111.049	205.426	-0.165	-0.255
-110.034	-158.057	0.356	0.021
-109.020	6.241	-0.150	0.111
-108.005	-38.983	-0.098	0.051
-106.991	258.102	0.259	-0.445
-105.976	-146.808	0.051	-0.004
-104.962	110.271	-0.167	0.199
-103.947	74.828	0.250	0.261
-102.932	5.018	0.075	-0.055
-101.918	122.220	0.177	0.220
-100.903	-41.374	0.211	-0.108
-99.889	800.000	-0.054	0.158
-98.874	57.029	0.240	-0.233
-97.859	159.407	0.202	0.280
-96.845	-200.000	-0.008	-0.165
-95.830	-200.000	0.014	0.090
-94.816	-71.859	0.081	-0.030
-93.801	74.208	-0.177	0.185
-92.786	313.460	0.163	0.305
-91.772	-41.468	-0.267	0.137
-90.757	-36.035	0.482	0.259
-89.743	209.063	0.077	0.120
-88.728	610.709	-0.107	-0.266
-87.713	-200.000	-0.005	0.134
-86.699	800.000	-0.023	-0.084
-85.684	-54.317	0.086	-0.039
-84.670	-200.000	-0.016	0.226
-83.655	-200.000	0.031	0.180
-82.640	162.417	0.198	0.275
-81.626	-90.499	0.088	-0.025
-80.611	268.782	-0.286	-0.498
-79.597	-7.873	0.170	-0.114
-78.582	-18.543	0.209	0.130
-77.567	-175.512	-0.135	-0.004
-76.553	165.490	0.138	0.194
-75.538	-36.387	0.175	-0.094
-74.524	290.368	0.102	-0.184
-73.509	-58.588	-0.032	-0.014
-72.494	46.118	-0.150	-0.138
-71.480	-200.000	0.035	0.274
-70.465	-32.008	-0.190	-0.105
-69.451	29.391	0.187	-0.158
-68.436	122.214	0.201	-0.250
-67.422	-145.386	-0.200	-0.018
-66.407	-156.475	-0.309	0.019
-65.392	-150.482	-0.332	-0.025
-64.378	278.978	-0.086	0.152
-63.363	-133.322	0.110	-0.014
-62.349	769.045	-0.048	-0.131
-61.334	1.594	-0.994	-0.711
-60.319	57.510	0.363	0.352
-59.305	-200.000	-0.043	-0.499
-58.290	363.460	0.498	0.993
-57.276	533.400	0.568	1.336
-56.261	-200.000	85.536	504.024
-55.246	550.267	1375.269	3275.661
-54.232	180.442	2626.874	3827.769
-53.217	118.796	2255.931	2767.511
-52.203	48.598	1702.687	1584.599
-51.188	40.975	1431.772	1283.472
-50.173	37.709	1387.194	1222.996
-49.159	56.684	1428.449	1380.444
-48.144	61.175	1447.771	1427.620
-47.130	41.404	1406.754	1263.566
-46.115	37.722	1389.785	1225.167
-45.100	37.479	1384.961	1219.342
-44.086	37.527	1382.272	1217.232
-43.071	37.456	1379.833	1214.588
-42.057	37.379	1377.655	1212.143
-41.042	37.459	1375.778	1210.945
-40.027	37.490	1374.283	1209.772
-39.013	37.481	1372.504	1208.099
-37.998	37.518	1370.659	1206.662
-36.984	37.649	1368.906	1205.877
-35.969	37.649	1366.959	1204.116
-34.954	37.740	1364.986	1202.892
-33.940	37.675	1363.575	1201.201
-32.925	37.666	1362.370	1200.033
-31.911	37.790	1360.462	1199.071
-30.896	37.683	1359.283	1197.327
-29.881	37.873	1357.881	1197.211
-28.867	37.804	1356.175	1195.233
-27.852	37.690	1354.614	1193.112
-26.838	37.665	1353.318	1191.772
-25.823	37.710	1351.966	1190.807
-24.809	37.720	1350.474	1189.510
-23.794	37.683	1349.056	1187.987
-22.779	37.738	1348.004	1187.348
-21.765	37.707	1346.479	1185.770
-20.750	37.764	1345.401	1185.122
-19.736	37.640	1343.486	1182.635
-18.721	37.615	1342.916	1181.934
-17.706	37.632	1341.229	1180.503
-16.692	37.685	1339.835	1179.553
-15.677	37.527	1339.045	1177.851
-14.663	37.520	1337.407	1176.324
-13.648	37.574	1336.470	1175.780
-12.633	37.551	1335.557	1174.792
-11.619	37.453	1334.603	1173.309
-10.604	37.521	1333.740	1172.918
-9.590	37.504	1333.033	1172.145
-8.575	37.563	1331.977	1171.524
-7.560	37.562	1330.938	1170.564
-6.546	37.495	1330.174	1169.437
-5.531	37.450	1329.254	1168.316
-4.517	37.538	1328.268	1167.928
-3.502	37.465	1327.767	1167.005
-2.487	37.534	1326.346	1166.121
-1.473	37.563	1322.466	1162.835
-0.458	36.404	1307.322	1142.623
0.556	30.486	1287.678	1100.913
1.571	26.490	1291.977	1080.685
2.586	25.210	1307.767	1086.048
3.600	24.301	1296.620	1071.235
4.615	17.581	1218.518	968.546
5.629	5.926	1133.791	839.123
6.644	0.033	1109.164	789.939
7.659	-0.421	1106.165	785.354
8.673	-0.422	1104.615	784.180
9.688	-0.509	1103.498	782.859
10.702	-0.161	1101.874	783.454
11.717	6.301	1112.052	824.560
12.731	15.385	1124.769	881.866
13.746	16.902	1125.897	890.650
14.761	15.209	1123.080	879.463
15.775	14.662	1121.905	875.598
16.790	14.296	1120.672	872.636
17.804	14.221	1119.971	871.620
18.819	14.116	1119.754	870.829
19.834	14.148	1118.696	870.096
20.848	14.077	1118.267	869.311
21.863	14.056	1117.297	868.370
22.877	14.086	1116.878	868.126
23.892	13.984	1116.044	866.871
24.907	14.053	1115.288	866.563
25.921	14.080	1114.503	866.017
26.936	14.097	1112.669	864.603
27.950	14.061	1111.276	863.259
28.965	13.911	1109.122	860.731
29.980	13.969	1107.028	859.331
30.994	14.064	1106.121	859.040
32.009	14.011	1104.619	857.528
33.023	13.938	1103.047	855.853
34.038	14.023	1102.289	855.627
35.053	14.121	1101.973	855.808
36.067	14.145	1100.825	854.968
37.082	14.178	1099.769	854.238
38.096	14.270	1098.934	853.989
39.111	14.282	1097.734	853.043
40.126	14.194	1096.363	851.451
41.140	14.062	1094.992	849.636
42.155	13.892	1093.885	847.834
43.169	13.978	1092.591	847.196
44.184	14.058	1091.056	846.336
45.199	13.905	1090.340	844.927
46.213	13.927	1088.983	843.913
47.228	13.907	1087.758	842.790
48.242	13.917	1086.492	841.785
49.257	13.933	1085.618	841.115
50.271	14.068	1084.213	840.633
51.286	14.045	1083.241	839.689
52.301	14.008	1082.549	838.892
53.315	14.064	1081.517	838.298
54.330	14.045	1080.674	837.474
55.344	13.990	1079.846	836.483
56.359	14.046	1078.330	835.518
57.374	14.020	1077.208	834.441
58.388	14.003	1076.337	833.612
59.403	13.912	1075.869	832.718
60.417	13.810	1074.737	831.258
61.432	13.986	1073.868	831.390
62.447	14.034	1073.030	830.908
63.461	13.974	1072.197	829.890
64.476	13.978	1071.210	829.074
65.490	14.012	1070.564	828.669
66.505	14.147	1069.673	828.579
67.520	14.147	1068.772	827.805
68.534	13.952	1068.116	826.255
69.549	13.764	1067.330	824.639
70.563	13.918	1066.118	824.394
71.578	13.869	1065.238	823.402
72.593	13.914	1064.735	823.160
73.607	13.985	1063.983	822.858
74.622	14.028	1063.766	822.830
75.636	13.941	1062.715	821.514
76.651	13.830	1062.032	820.365
77.666	13.836	1060.581	819.200
78.680	13.905	1060.201	819.178
79.695	14.068	1059.180	819.116
80.709	14.085	1058.440	818.558
81.724	13.928	1057.613	817.072
82.739	13.981	1057.364	817.067
83.753	14.117	1056.126	816.708
84.768	14.090	1055.157	815.755
85.782	14.109	1054.024	814.896
86.797	14.116	1052.931	814.015
87.812	14.059	1051.873	812.847
88.826	14.060	1051.044	812.136
89.841	14.120	1050.089	811.620
90.855	14.221	1048.776	811.028
91.870	14.062	1047.993	809.577
92.884	13.941	1047.151	808.265
93.899	14.159	1045.670	808.108
94.914	14.122	1045.212	807.503
95.928	13.979	1043.912	805.736
96.943	14.076	1042.728	805.221
97.957	13.813	1041.873	803.215
98.972	13.629	1040.654	801.316
99.987	13.855	1039.874	801.735
101.001	14.011	1038.866	801.642
102.016	14.006	1038.363	801.160
103.030	13.920	1036.989	799.610
104.045	13.820	1036.064	798.347
105.060	13.712	1035.303	797.169
106.074	13.923	1034.196	797.261
107.089	14.217	1033.603	798.142
108.103	14.130	1032.696	796.954
109.118	14.074	1031.568	795.745
110.133	14.091	1030.329	794.801
111.147	14.124	1029.425	794.190
112.162	13.990	1028.378	792.677
113.176	13.998	1027.722	792.137
114.191	13.999	1026.489	791.122
115.206	13.855	1025.649	789.718
116.220	13.840	1024.590	788.763
117.235	14.011	1023.597	788.738
118.249	14.030	1022.619	788.005
119.264	13.970	1021.990	787.170
120.279	14.079	1020.929	786.796
121.293	14.067	1020.085	786.021
122.308	14.086	1019.279	785.422
123.322	14.089	1017.450	783.953
124.337	13.922	1016.513	782.378
125.352	13.715	1014.683	779.926
126.366	13.647	1013.573	778.683
127.381	13.892	1013.030	779.347
128.395	14.178	1011.700	779.597
129.410	14.261	1010.901	779.301
130.424	14.186	1009.649	777.917
131.439	14.071	1009.083	776.874
132.454	14.067	1007.977	775.935
133.468	14.141	1007.044	775.494
134.483	14.176	1006.459	775.134
135.497	14.258	1005.344	774.589
136.512	14.304	1004.425	774.028
137.527	14.276	1003.428	773.063
138.541	14.261	1002.737	772.392
139.556	14.271	1001.797	771.646
140.570	14.170	1000.909	770.426
141.585	14.163	999.537	769.268
142.600	14.212	998.174	768.378
143.614	14.414	997.707	768.882
144.629	14.337	996.898	767.834
145.643	14.308	995.893	766.858
146.658	14.251	994.466	765.431
147.673	14.199	993.825	764.629
148.687	14.167	992.914	763.717
149.702	14.197	991.775	762.909
150.716	14.203	990.773	762.101
151.731	14.074	990.450	761.194
152.746	14.386	989.208	761.596
153.760	14.429	988.755	761.377
154.775	14.288	988.220	760.257
155.789	14.248	987.132	759.167
156.804	14.332	986.286	758.834
157.819	14.227	985.699	757.836
158.833	14.306	984.685	757.347
159.848	14.406	983.648	756.938
160.862	14.186	982.796	755.216
161.877	14.172	982.491	754.853
162.892	14.414	980.978	754.720
163.906	14.389	979.794	753.631
164.921	14.379	978.399	752.444
165.935	14.353	977.741	751.752
166.950	14.427	976.750	751.260
167.964	14.256	975.888	749.759
168.979	14.311	974.616	748.964
169.994	14.321	973.326	747.950
171.008	14.293	972.967	747.482
172.023	14.288	972.308	746.888
173.037	14.155	971.135	745.326
174.052	14.091	970.235	744.282
175.067	14.287	969.524	744.548
176.081	14.369	969.123	744.539
177.096	14.362	968.614	744.052
178.110	14.334	967.193	742.770
179.125	14.223	966.779	741.892
180.140	14.214	966.151	741.302
181.154	14.125	965.926	740.671
182.169	14.324	965.046	740.814
183.183	14.415	964.322	740.596
184.198	14.426	963.411	739.879
185.213	14.315	963.048	739.045
186.227	14.428	962.132	738.776
187.242	14.311	961.324	737.573
188.256	14.358	960.581	737.143
189.271	14.376	959.567	736.379
190.286	14.193	959.072	735.127
191.300	14.095	957.968	733.784
192.315	13.887	956.467	731.652
193.329	13.845	955.896	730.967
194.344	14.130	956.032	732.259
195.359	14.535	955.041	733.218
196.373	14.425	954.404	732.182
197.388	14.155	954.303	730.852
198.402	14.180	953.363	730.177
199.417	14.182	952.464	729.434
200.432	13.975	951.341	727.602
201.446	13.869	950.692	726.576
202.461	13.957	949.936	726.321
203.475	13.784	948.825	724.652
204.490	13.507	948.062	722.794
205.504	13.835	947.883	724.023
206.519	14.084	947.236	724.554
207.534	14.099	946.659	724.113
208.548	14.446	946.406	725.365
209.563	14.347	945.157	723.914
210.577	14.311	944.281	723.021
211.592	14.486	943.766	723.324
212.607	14.323	943.070	722.018
213.621	14.392	942.187	721.578
214.636	14.442	941.554	721.246
215.650	14.372	940.378	719.978
216.665	14.590	939.869	720.465
217.680	14.590	938.972	719.714
218.694	14.272	937.727	717.329
219.709	14.122	937.456	716.409
220.723	14.250	937.104	716.629
221.738	14.401	936.243	716.557
222.753	14.405	935.527	715.963
223.767	14.452	934.480	715.299
224.782	14.576	934.098	715.477
225.796	14.547	933.122	714.540
226.811	14.175	932.138	712.131
227.826	13.931	931.474	710.519
228.840	14.061	930.702	710.423
229.855	14.104	929.827	709.875
230.869	13.936	928.847	708.346
231.884	14.180	928.442	709.017
232.899	14.548	927.794	710.025
233.913	14.573	927.381	709.754
234.928	14.403	927.027	708.697
235.942	14.543	926.203	708.596
236.957	14.462	925.377	707.561
237.972	14.557	924.496	707.228
238.986	14.495	924.460	706.871
240.001	14.573	922.914	705.958
241.015	14.664	922.399	705.885
242.030	14.469	922.094	704.768
243.045	14.601	921.700	704.962
244.059	14.686	920.641	704.447
245.074	14.585	919.535	703.112
246.088	14.273	918.574	701.003
247.103	14.412	917.758	700.900
248.117	14.481	917.849	701.199
249.132	14.672	916.466	700.885
250.147	14.662	915.786	700.260
251.161	14.781	915.110	700.178
252.176	14.636	914.827	699.292
253.190	14.823	913.834	699.256
254.205	14.772	913.144	698.454
255.220	14.936	912.280	698.416
256.234	14.888	911.483	697.542
257.249	14.793	910.831	696.586
258.263	14.845	909.985	696.093
259.278	14.940	908.950	695.634
260.293	14.939	908.589	695.291
261.307	14.748	907.647	693.719
262.322	14.674	906.809	692.711
263.336	14.314	905.442	690.109
264.351	13.855	904.160	687.172
265.366	14.006	903.460	687.204
266.380	14.319	903.679	688.608
267.395	14.739	903.098	689.838
268.409	14.573	902.502	688.637
269.424	14.741	901.865	688.782
270.439	14.858	900.885	688.454
271.453	14.860	900.484	688.097
272.468	14.942	899.728	687.794
273.482	14.970	899.053	687.330
274.497	14.926	898.006	686.291
275.512	14.682	897.038	684.488
276.526	14.897	896.478	684.884
277.541	14.799	896.341	684.316
278.555	14.594	895.156	682.512
279.570	14.646	893.926	681.726
280.585	14.738	893.584	681.782
281.599	14.748	892.921	681.255
282.614	14.565	891.953	679.712
283.628	14.662	891.682	679.838
284.643	14.787	890.841	679.644
285.657	14.546	889.884	677.877
286.672	14.457	888.996	676.780
287.687	14.637	888.829	677.321
288.701	14.757	888.364	677.397
289.716	14.622	886.969	675.725
290.730	14.591	886.464	675.153
291.745	14.469	885.694	674.015
292.760	14.648	885.357	674.424
293.774	14.925	885.169	675.339
294.789	15.021	884.657	675.273
295.803	15.236	884.036	675.606
296.818	15.361	883.017	675.273
297.833	15.109	882.336	673.678
298.847	15.182	881.347	673.157
299.862	15.139	881.073	672.715
300.876	15.308	880.276	672.726
301.891	15.151	879.614	671.531
302.906	14.952	878.727	669.999
303.920	14.921	878.119	669.349
304.935	15.094	877.891	669.809
305.949	15.067	877.415	669.278
306.964	15.290	876.175	669.163
307.979	15.383	875.846	669.227
308.993	15.201	875.819	668.419
310.008	15.264	875.061	668.031
311.022	15.219	873.818	666.845
312.037	15.233	873.542	666.633
313.052	15.201	872.937	665.983
314.066	14.831	871.794	663.585
315.081	14.696	870.800	662.231
316.095	15.043	870.976	663.683
317.110	15.236	870.658	664.148
318.125	14.971	869.383	662.066
319.139	14.521	868.918	659.876
320.154	14.624	868.014	659.538
321.168	15.025	867.965	661.025
322.183	15.235	867.661	661.563
323.197	15.419	867.038	661.756
324.212	15.408	866.686	661.385
325.227	15.531	866.202	661.442
326.241	15.573	865.057	660.674
327.256	15.447	864.885	659.989
328.270	15.245	864.484	658.830
329.285	15.453	863.403	658.765
330.300	15.293	862.885	657.684
331.314	15.321	862.326	657.312
332.329	15.396	861.885	657.211
333.343	15.295	861.401	656.386
334.358	15.418	860.741	656.308
335.373	15.478	860.444	656.259
336.387	15.578	860.280	656.465
337.402	15.504	859.569	655.574
338.416	15.402	859.081	654.747
339.431	15.452	858.554	654.483
340.446	15.636	858.183	654.858
341.460	15.390	857.730	653.498
342.475	15.330	857.350	652.916
343.489	15.241	856.656	651.986
344.504	15.469	856.433	652.645
345.519	15.496	856.154	652.476
346.533	15.771	855.442	652.946
347.548	15.661	855.127	652.221
348.562	15.771	854.118	651.821
349.577	15.739	853.633	651.266
350.592	15.738	853.174	650.855
351.606	15.753	852.530	650.366
352.621	15.732	851.642	649.550
353.635	15.700	850.950	648.839
354.650	15.509	850.227	647.493
355.665	15.163	848.858	645.063
356.679	15.187	848.386	644.738
357.694	15.311	847.855	644.755
358.708	15.385	847.253	644.523
359.723	15.757	846.640	645.431
360.738	15.761	846.444	645.237
361.752	15.739	845.829	644.628
362.767	15.890	844.957	644.486
363.781	15.911	844.764	644.358
364.796	15.989	844.331	644.272
365.810	15.943	843.779	643.618
366.825	15.941	843.481	643.327
367.840	15.800	842.681	642.121
368.854	15.794	841.857	641.412
369.869	15.662	841.513	640.591
370.883	15.623	841.415	640.312
371.898	15.552	840.577	639.347
372.913	15.740	840.141	639.673
373.927	15.854	839.415	639.498
374.942	15.965	839.742	640.112
375.956	15.806	839.136	638.991
376.971	15.976	838.341	638.971
377.986	15.954	837.852	638.460
379.000	15.819	837.677	637.757
380.015	15.900	836.862	637.388
381.029	15.881	836.164	636.727
382.044	15.818	835.680	636.067
383.059	15.859	835.069	635.698
384.073	15.971	834.302	635.479
385.088	16.147	833.685	635.619
386.102	16.144	833.492	635.405
387.117	16.046	833.190	634.747
388.132	15.951	831.906	633.357
389.146	15.879	830.940	632.295
390.161	15.768	830.950	631.829
391.175	15.695	830.451	631.120
392.190	15.687	829.893	630.611
393.205	15.600	828.997	629.548
394.219	15.416	828.415	628.362
395.234	15.414	828.108	628.064
396.248	15.698	828.112	629.076
397.263	16.089	828.058	630.439
398.278	16.186	827.484	630.310
399.292	16.224	827.079	630.087
400.307	16.325	826.347	629.851
401.321	16.364	825.791	629.517
402.336	16.236	825.297	628.608
403.350	16.197	824.822	628.045
404.365	16.197	824.571	627.798
405.380	16.408	824.032	628.118
406.394	16.452	823.137	627.543
407.409	16.242	822.720	626.391
408.423	16.222	822.412	626.025
409.438	16.267	822.063	625.871
410.453	16.519	821.495	626.316
411.467	16.569	821.264	626.271
412.482	16.483	820.788	625.534
413.496	16.637	820.525	625.848
414.511	16.581	819.959	625.155
415.526	16.518	820.144	625.006
416.540	16.467	818.831	623.763
417.555	16.281	818.235	622.569
418.569	16.237	818.094	622.244
419.584	16.463	817.060	622.233
420.599	16.232	816.947	621.243
421.613	150.961	1357.995	1780.335
422.628	131.499	1436.829	1780.455
