DTS Sentinel unit serial number:	SN413079Multiplexer serial number:	ORYXHardware model number:	OX4-SRSoftware version number:	ORYX F/W v4.00 Oryx Data Collector v3.7.2.0data status	okinstallation	princeton_trtdifferential loss correction	single-endedforward channel	channel 1reverse channel	N/Adate	2019/09/11time	12:36:11forward acquisition time	60.00reverse acquisition time	0.00gamma	496.2192k internal	0.2294k external	0.2294temperature offset calibration	0.9942default loss term (dB/km)	0.3790temperature slope calibration	1.0000multiplexer offset coefficient	1.0000multiplexer slope coefficient	1.0000fibre end	0.00T internal ref (°C)	40.69T ext. ref 1 (°C)	0.20T ext. ref 2 (°C)	38.15length (m)	temperature (°C)	Stokes	anti-Stokes-747.200	-200.000	0.028	0.128
-746.185	666.366	0.088	-0.231
-745.171	-153.865	-0.231	0.016
-744.156	239.473	-0.114	0.195
-743.142	570.931	-0.076	0.190
-742.127	800.000	0.056	-0.197
-741.112	745.278	-0.045	-0.124
-740.098	-69.425	0.404	-0.158
-739.083	471.058	0.209	0.481
-738.069	-200.000	-0.004	0.156
-737.054	800.000	0.044	-0.167
-736.039	-158.268	-0.485	0.029
-735.025	-21.198	0.282	0.176
-734.010	800.000	-0.047	-0.163
-732.996	800.000	-0.105	-0.455
-731.981	22.436	-0.079	0.066
-730.966	299.733	0.160	0.301
-729.952	-200.000	0.010	-0.316
-728.937	-46.607	0.222	-0.111
-727.923	800.000	-0.130	-0.419
-726.908	358.618	-0.073	0.149
-725.894	50.145	0.110	0.106
-724.879	-200.000	-0.003	-0.130
-723.864	-98.581	-0.258	0.067
-722.850	-86.461	-0.064	-0.020
-721.835	800.000	0.023	-0.077
-720.821	-82.433	0.115	0.038
-719.806	-200.000	0.024	-0.354
-718.791	-22.375	0.370	0.229
-717.777	-94.831	0.319	-0.088
-716.762	-29.040	-0.296	0.173
-715.748	506.364	0.041	-0.096
-714.733	132.751	0.059	-0.077
-713.718	469.832	0.138	-0.317
-712.704	165.057	0.101	-0.146
-711.689	-89.066	-0.540	-0.163
-710.675	-49.610	-0.408	-0.198
-709.660	-125.760	-0.330	0.051
-708.645	217.186	0.044	-0.072
-707.631	-48.381	-0.181	0.089
-706.616	-98.116	-0.192	-0.051
-705.602	800.000	0.043	-0.150
-704.587	-175.219	0.167	0.005
-703.572	-200.000	0.024	-0.141
-702.558	430.201	-0.098	-0.216
-701.543	-173.542	-0.129	0.004
-700.529	-77.596	-0.278	0.098
-699.514	111.285	0.189	-0.232
-698.499	-38.464	-0.237	0.128
-697.485	-141.699	0.159	0.016
-696.470	82.593	-0.153	-0.170
-695.456	-153.458	-0.076	-0.005
-694.441	301.676	0.137	-0.259
-693.426	318.545	0.041	-0.078
-692.412	293.797	0.135	-0.252
-691.397	113.254	-0.147	-0.182
-690.383	-200.000	-0.030	0.179
-689.368	-108.117	-0.428	0.095
-688.354	159.857	0.213	-0.302
-687.339	191.761	-0.121	-0.186
-686.324	345.595	0.008	0.015
-685.310	65.883	0.082	0.085
-684.295	106.704	-0.162	-0.196
-683.281	-153.365	-0.640	0.045
-682.266	-57.059	-0.471	0.212
-681.251	-119.200	0.174	0.031
-680.237	800.000	-0.013	-0.050
-679.222	-116.085	0.203	0.038
-678.208	339.732	0.043	-0.085
-677.193	30.923	0.054	-0.047
-676.178	322.868	-0.125	0.243
-675.164	-128.460	0.181	0.026
-674.149	614.470	0.107	-0.273
-673.135	800.000	0.064	0.188
-672.120	-140.887	0.184	-0.019
-671.105	-94.314	-0.297	0.083
-670.091	-68.189	0.082	0.032
-669.076	-96.197	-0.094	0.025
-668.062	303.567	-0.057	0.108
-667.047	105.798	-0.178	-0.214
-666.032	-200.000	-0.014	-0.304
-665.018	800.000	-0.156	-0.571
-664.003	681.066	-0.048	-0.127
-662.989	-16.067	0.201	0.130
-661.974	-8.744	0.253	0.173
-660.959	399.685	-0.099	0.211
-659.945	6.940	-0.219	0.167
-658.930	150.344	-0.117	-0.162
-657.916	115.020	0.056	-0.070
-656.901	-200.000	-0.073	0.413
-655.886	34.286	-0.227	-0.202
-654.872	-151.079	0.206	-0.016
-653.857	701.677	0.055	-0.147
-652.843	227.776	0.071	0.117
-651.828	-131.603	0.128	-0.017
-650.814	2.124	-0.250	-0.184
-649.799	203.945	-0.276	-0.436
-648.784	581.022	0.031	-0.078
-647.770	72.262	0.198	-0.210
-646.755	224.505	-0.099	0.162
-645.741	-84.775	0.442	-0.142
-644.726	-19.074	-0.007	-0.004
-643.711	253.994	-0.084	-0.147
-642.697	-45.211	0.221	-0.112
-641.682	-12.070	0.185	-0.124
-640.668	800.000	-0.068	-0.230
-639.653	337.362	-0.146	-0.288
-638.638	-153.199	0.160	0.011
-637.624	622.329	0.024	-0.062
-636.609	449.325	-0.071	-0.160
-635.595	-125.712	-0.019	0.003
-634.580	-200.000	-0.000	-0.193
-633.565	148.136	0.020	-0.028
-632.551	-199.545	-0.261	-0.001
-631.536	-200.000	0.012	-0.334
-630.522	441.359	-0.200	-0.445
-629.507	85.918	0.065	-0.073
-628.492	-27.264	-0.230	0.136
-627.478	800.000	0.050	-0.199
-626.463	-200.000	-0.039	-0.205
-625.449	-200.000	0.003	-0.043
-624.434	55.314	-0.214	0.210
-623.419	357.127	0.057	0.116
-622.405	-200.000	-0.042	0.264
-621.390	-27.594	0.210	0.124
-620.376	-75.648	-0.195	0.071
-619.361	40.456	-0.251	0.230
-618.346	800.000	-0.070	-0.304
-617.332	778.582	-0.119	0.332
-616.317	-124.434	-0.290	-0.046
-615.303	75.620	-0.189	-0.204
-614.288	40.604	0.186	-0.171
-613.273	-200.000	0.035	-0.410
-612.259	-41.625	0.248	-0.130
-611.244	3.965	-0.115	-0.086
-610.230	-31.691	-0.074	-0.042
-609.215	800.000	-0.072	-0.287
-608.201	96.733	-0.156	-0.181
-607.186	67.992	-0.169	-0.175
-606.171	9.964	-0.224	-0.173
-605.157	70.924	0.211	0.223
-604.142	-104.877	0.271	-0.063
-603.128	800.000	-0.050	-0.145
-602.113	293.086	0.074	-0.137
-601.098	800.000	-0.038	-0.122
-600.084	677.234	-0.036	-0.094
-599.069	-49.119	-0.080	0.039
-598.055	-122.279	-0.214	0.036
-597.040	-68.044	0.240	-0.095
-596.025	21.556	-0.100	-0.083
-595.011	320.819	0.071	0.138
-593.996	79.225	0.142	-0.155
-592.982	-200.000	0.011	-0.266
-591.967	-116.750	-0.096	0.018
-590.952	-23.240	-0.115	-0.071
-589.938	204.343	-0.124	-0.196
-588.923	-200.000	-0.040	-0.217
-587.909	800.000	-0.102	-0.301
-586.894	800.000	-0.048	0.144
-585.879	-159.449	-0.394	-0.022
-584.865	-117.254	-0.053	0.010
-583.850	9.058	-0.164	0.126
-582.836	-200.000	0.023	0.244
-581.821	-70.738	-0.094	0.036
-580.806	3.177	-0.103	0.076
-579.792	-88.768	0.193	-0.058
-578.777	386.425	0.108	0.227
-577.763	-30.343	0.318	0.183
-576.748	800.000	-0.064	-0.244
-575.733	-81.862	-0.089	-0.030
-574.719	98.314	0.294	-0.344
-573.704	-122.006	0.247	-0.041
-572.690	243.695	0.077	0.131
-571.675	-105.996	-0.393	0.090
-570.661	82.045	-0.051	0.056
-569.646	185.699	-0.107	0.161
-568.631	-56.062	-0.331	-0.150
-567.617	800.000	-0.022	-0.064
-566.602	800.000	-0.111	0.359
-565.588	-200.000	0.023	0.113
-564.573	353.337	0.132	0.266
-563.558	577.080	-0.039	0.097
-562.544	-110.382	0.258	0.054
-561.529	-162.221	-0.213	0.011
-560.515	652.777	-0.099	-0.258
-559.500	800.000	-0.145	-0.438
-558.485	-39.563	-0.276	0.147
-557.471	489.289	-0.031	0.071
-556.456	398.844	-0.140	-0.297
-555.442	-200.000	0.090	0.408
-554.427	8.167	0.171	-0.130
-553.412	-5.436	0.419	-0.292
-552.398	-4.632	-0.150	0.105
-551.383	-98.653	0.262	0.068
-550.369	-23.980	0.194	-0.118
-549.354	44.770	-0.092	-0.085
-548.339	188.551	0.277	-0.420
-547.325	800.000	-0.088	0.272
-546.310	800.000	0.026	-0.103
-545.296	30.512	0.182	-0.158
-544.281	800.000	0.061	0.230
-543.266	-137.263	-0.052	0.006
-542.252	-12.374	-0.182	-0.121
-541.237	-112.336	-0.290	0.059
-540.223	-130.497	-0.198	-0.027
-539.208	84.380	-0.182	-0.202
-538.193	-53.897	-0.133	0.062
-537.179	-11.800	-0.166	-0.110
-536.164	-154.923	-0.145	-0.010
-535.150	-152.498	-0.026	0.002
-534.135	750.658	0.161	-0.440
-533.121	15.726	-0.037	0.030
-532.106	-200.000	-0.040	-0.179
-531.091	-165.893	-0.312	-0.014
-530.077	-200.000	-0.029	0.281
-529.062	-38.924	-0.245	0.131
-528.048	118.098	0.225	0.281
-527.033	9.897	0.106	0.081
-526.018	-36.229	0.077	0.042
-525.004	-157.987	0.483	-0.029
-523.989	-83.096	-0.148	0.048
-522.975	-146.823	0.118	0.010
-521.960	7.643	0.085	0.064
-520.945	347.223	-0.042	-0.084
-519.931	50.201	-0.068	0.065
-518.916	18.281	-0.070	-0.057
-517.902	-200.000	-0.015	-0.166
-516.887	-113.484	0.197	0.039
-515.872	241.255	-0.053	-0.090
-514.858	272.422	-0.112	-0.200
-513.843	800.000	0.027	0.080
-512.829	-91.952	0.111	-0.032
-511.814	-51.885	0.131	-0.062
-510.799	-48.445	-0.157	-0.077
-509.785	-200.000	0.002	-0.112
-508.770	800.000	0.082	-0.295
-507.756	577.772	-0.148	-0.366
-506.741	800.000	-0.051	-0.223
-505.726	800.000	-0.075	-0.278
-504.712	800.000	-0.079	-0.294
-503.697	-200.000	0.012	0.240
-502.683	-65.329	-0.263	0.107
-501.668	24.981	0.149	-0.125
-500.653	-15.346	-0.124	0.081
-499.639	800.000	0.058	0.202
-498.624	213.534	0.100	0.161
-497.610	82.239	0.085	0.093
-496.595	-133.703	0.220	-0.028
-495.581	-94.239	0.205	-0.057
-494.566	-82.356	0.201	0.066
-493.551	-200.000	0.017	-0.156
-492.537	105.460	-0.245	-0.293
-491.522	-45.993	0.505	-0.252
-490.508	-3.354	-0.377	-0.266
-489.493	-127.473	0.188	0.028
-488.478	-21.466	0.182	-0.113
-487.464	-104.543	-0.275	0.064
-486.449	255.893	0.137	0.238
-485.435	800.000	-0.035	-0.114
-484.420	648.030	-0.137	0.355
-483.405	212.403	0.187	0.299
-482.391	800.000	-0.010	-0.041
-481.376	-135.909	0.431	0.051
-480.362	159.874	0.070	-0.098
-479.347	800.000	-0.122	-0.397
-478.332	-57.023	-0.138	0.062
-477.318	800.000	-0.033	-0.098
-476.303	-21.283	-0.231	-0.143
-475.289	557.647	0.154	-0.376
-474.274	-12.330	-0.077	0.051
-473.259	92.237	0.219	0.249
-472.245	-200.000	0.038	-0.346
-471.230	-118.954	-0.182	0.032
-470.216	800.000	-0.069	-0.230
-469.201	327.674	0.177	0.344
-468.186	-29.399	-0.207	0.120
-467.172	164.149	-0.219	0.312
-466.157	-125.952	0.447	0.068
-465.143	-163.540	-0.019	-0.001
-464.128	179.359	0.104	0.154
-463.113	-200.000	0.013	-0.134
-462.099	800.000	0.067	0.254
-461.084	-91.777	-0.270	0.077
-460.070	86.303	-0.096	0.107
-459.055	-200.000	-0.047	-0.300
-458.040	36.305	0.064	0.057
-457.026	178.872	0.110	-0.163
-456.011	-49.790	-0.279	0.134
-454.997	-200.000	-0.014	0.113
-453.982	-103.763	-0.204	-0.048
-452.968	-81.865	-0.020	0.006
-451.953	-106.913	-0.053	0.012
-450.938	-55.978	0.322	-0.145
-449.924	-82.522	0.234	0.077
-448.909	-200.000	0.001	0.193
-447.895	359.237	0.157	-0.316
-446.880	-200.000	0.023	-0.145
-445.865	-200.000	-0.030	0.416
-444.851	10.565	-0.303	-0.234
-443.836	63.045	-0.081	0.082
-442.822	-200.000	0.035	0.165
-441.807	-59.454	-0.159	-0.069
-440.792	49.652	-0.297	0.283
-439.778	-200.000	0.016	0.172
-438.763	466.137	0.098	0.222
-437.749	-200.000	0.059	0.340
-436.734	-144.516	-0.243	-0.023
-435.719	-71.711	-0.376	-0.142
-434.705	5.404	-0.142	0.106
-433.690	30.150	0.301	-0.259
-432.676	-30.219	0.227	0.130
-431.661	314.120	-0.052	0.099
-430.646	-200.000	-0.004	-0.152
-429.632	800.000	-0.056	-0.217
-428.617	17.674	-0.029	-0.023
-427.603	217.503	0.176	0.284
-426.588	-30.825	-0.261	-0.149
-425.573	284.619	-0.111	0.201
-424.559	94.315	0.053	0.060
-423.544	42.161	0.152	0.140
-422.530	-200.000	-0.013	0.117
-421.515	-200.000	0.021	-0.265
-420.500	-200.000	-0.002	0.050
-419.486	-122.442	0.208	0.034
-418.471	-4.476	-0.296	-0.206
-417.457	46.456	-0.239	0.224
-416.442	19.227	-0.128	-0.103
-415.428	-53.381	-0.099	0.046
-414.413	144.578	-0.146	0.198
-413.398	-200.000	-0.032	0.172
-412.384	800.000	0.114	0.491
-411.369	-103.516	0.428	-0.101
-410.355	-13.595	-0.141	0.092
-409.340	-200.000	0.020	-0.330
-408.325	301.689	0.135	0.252
-407.311	-64.263	-0.291	0.120
-406.296	-200.000	-0.080	0.785
-405.282	757.918	0.072	0.198
-404.267	281.453	-0.131	0.237
-403.252	49.374	-0.179	0.170
-402.238	42.583	0.202	0.185
-401.223	36.778	0.034	0.031
-400.209	244.505	-0.106	-0.180
-399.194	514.691	0.088	0.208
-398.179	800.000	0.053	-0.161
-397.165	5.647	0.141	-0.105
-396.150	53.431	-0.260	0.251
-395.136	-17.269	-0.258	0.164
-394.121	663.433	-0.002	-0.006
-393.106	-10.772	-0.160	-0.107
-392.092	-129.878	0.174	0.024
-391.077	-200.000	0.003	-0.016
-390.063	16.928	0.107	-0.085
-389.048	-158.083	-0.322	-0.019
-388.033	800.000	-0.147	-0.417
-387.019	-165.180	-0.266	0.012
-386.004	249.848	-0.026	0.045
-384.990	59.092	0.028	-0.028
-383.975	163.102	-0.093	-0.132
-382.960	-31.710	0.040	0.023
-381.946	-200.000	0.071	0.350
-380.931	-135.508	0.015	0.002
-379.917	-200.000	0.068	-0.402
-378.902	-43.401	0.258	-0.131
-377.888	161.150	0.087	-0.123
-376.873	-200.000	0.012	0.228
-375.858	95.467	-0.088	0.101
-374.844	-200.000	-0.000	-0.065
-373.829	37.232	-0.181	-0.162
-372.815	-39.250	0.243	-0.129
-371.800	-75.743	-0.150	-0.054
-370.785	-78.224	0.123	-0.043
-369.771	-153.116	-0.340	0.024
-368.756	-186.633	-0.320	0.005
-367.742	280.453	-0.055	0.099
-366.727	-200.000	0.055	0.290
-365.712	218.118	-0.032	-0.052
-364.698	-0.483	0.280	0.200
-363.683	8.289	-0.383	-0.290
-362.669	-200.000	0.021	0.195
-361.654	14.578	-0.174	0.137
-360.639	-19.706	0.156	0.097
-359.625	225.834	-0.135	0.220
-358.610	-51.622	0.143	0.067
-357.596	273.252	-0.092	0.164
-356.581	146.353	0.130	0.176
-355.566	-136.705	0.082	-0.010
-354.552	321.168	-0.186	-0.357
-353.537	401.666	0.139	0.293
-352.523	-57.210	0.329	-0.146
-351.508	-200.000	0.047	0.271
-350.493	-143.159	-0.242	0.023
-349.479	-161.905	0.152	-0.008
-348.464	800.000	0.081	-0.290
-347.450	-130.430	-0.226	-0.031
-346.435	120.513	-0.192	0.241
-345.420	-107.289	0.178	0.039
-344.406	404.651	0.119	0.253
-343.391	776.769	-0.085	0.233
-342.377	-200.000	0.030	-0.176
-341.362	-11.549	-0.151	0.100
-340.348	229.245	-0.041	0.067
-339.333	136.313	-0.173	0.227
-338.318	-136.407	0.208	0.024
-337.304	-200.000	-0.069	-0.306
-336.289	-37.149	-0.135	-0.073
-335.275	339.165	-0.052	0.101
-334.260	-46.393	0.223	-0.110
-333.245	800.000	0.081	-0.283
-332.231	-200.000	-0.017	0.193
-331.216	-200.000	0.056	-0.247
-330.202	-35.815	0.238	0.130
-329.187	85.333	-0.075	-0.083
-328.172	146.390	-0.084	0.113
-327.158	-41.878	-0.120	0.062
-326.143	-41.870	0.117	0.060
-325.129	-200.000	0.027	-0.177
-324.114	19.077	0.143	-0.116
-323.099	-113.390	0.401	0.079
-322.085	-200.000	0.065	0.344
-321.070	-90.592	0.398	0.116
-320.056	150.475	-0.210	0.286
-319.041	-34.702	0.125	-0.069
-318.026	27.964	0.083	-0.070
-317.012	387.408	-0.141	-0.293
-315.997	-200.000	-0.003	0.211
-314.983	201.339	-0.081	0.126
-313.968	65.661	0.258	0.263
-312.953	212.686	0.085	0.135
-311.939	-125.763	-0.318	-0.048
-310.924	-121.466	-0.355	0.059
-309.910	48.470	-0.177	0.166
-308.895	-111.314	-0.181	-0.037
-307.880	-3.838	-0.162	-0.113
-306.866	451.797	-0.031	0.069
-305.851	-127.851	0.090	-0.013
-304.837	315.987	0.267	0.507
-303.822	800.000	-0.124	0.481
-302.807	-136.993	-0.056	0.006
-301.793	-200.000	-0.023	-0.179
-300.778	-44.659	0.229	0.115
-299.764	-109.946	0.095	-0.020
-298.749	98.810	0.124	0.143
-297.735	-200.000	0.075	0.343
-296.720	161.585	-0.085	0.120
-295.705	-62.320	-0.279	-0.117
-294.691	128.467	-0.103	0.132
-293.676	-105.446	0.240	0.055
-292.662	-24.394	0.277	-0.166
-291.647	-68.306	-0.301	0.117
-290.632	800.000	-0.157	0.477
-289.618	-200.000	-0.058	0.357
-288.603	-200.000	-0.036	0.223
-287.589	-86.827	0.305	-0.093
-286.574	15.533	-0.118	0.093
-285.559	-90.350	0.301	0.088
-284.545	-37.317	0.376	-0.202
-283.530	-116.533	0.454	-0.084
-282.516	-99.824	0.247	0.062
-281.501	-200.000	-0.018	0.238
-280.486	-2.826	0.092	-0.064
-279.472	113.484	-0.150	-0.183
-278.457	193.685	0.163	-0.248
-277.443	-136.191	-0.129	0.015
-276.428	-200.000	0.052	0.413
-275.413	800.000	-0.025	0.097
-274.399	-200.000	0.043	0.367
-273.384	800.000	-0.075	-0.313
-272.370	28.429	-0.182	-0.155
-271.355	183.733	0.066	-0.098
-270.340	103.136	0.128	-0.151
-269.326	-200.000	-0.033	0.166
-268.311	-200.000	0.023	0.182
-267.297	535.187	-0.021	-0.051
-266.282	-200.000	-0.043	0.213
-265.267	-76.077	0.367	-0.130
-264.253	-71.407	0.092	0.034
-263.238	-58.505	0.033	0.014
-262.224	189.043	0.122	0.183
-261.209	-18.460	0.100	-0.062
-260.195	-200.000	-0.019	-0.366
-259.180	800.000	0.031	-0.116
-258.165	682.999	-0.066	0.173
-257.151	245.560	0.132	-0.223
-256.136	800.000	0.050	0.218
-255.122	52.046	-0.274	-0.262
-254.107	-110.330	0.234	0.049
-253.092	-200.000	-0.006	-0.132
-252.078	-39.887	0.172	-0.090
-251.063	35.231	0.308	-0.271
-250.049	-161.250	-0.072	-0.004
-249.034	-16.903	0.396	-0.251
-248.019	800.000	0.058	-0.221
-247.005	-25.441	0.150	0.089
-245.990	81.771	-0.029	0.031
-244.976	378.855	-0.110	-0.225
-243.961	-200.000	0.038	-0.167
-242.946	237.453	0.058	-0.097
-241.932	555.781	-0.111	0.267
-240.917	100.275	0.203	-0.237
-239.903	53.836	0.179	-0.172
-238.888	-200.000	-0.015	0.220
-237.873	800.000	-0.028	-0.101
-236.859	800.000	-0.067	-0.229
-235.844	-116.688	0.175	0.032
-234.830	138.342	0.140	0.184
-233.815	329.780	0.053	0.103
-232.800	-39.980	-0.268	-0.140
-231.786	-107.531	0.266	-0.058
-230.771	-126.876	-0.101	0.015
-229.757	27.556	0.149	0.125
-228.742	-32.700	-0.260	-0.145
-227.727	14.442	-0.240	-0.187
-226.713	-133.844	-0.053	-0.007
-225.698	286.938	0.079	0.143
-224.684	43.986	-0.274	-0.252
-223.669	-200.000	-0.001	-0.248
-222.655	471.343	-0.092	-0.207
-221.640	125.312	0.171	-0.216
-220.625	54.762	0.115	0.112
-219.611	218.270	-0.137	-0.219
-218.596	-84.536	-0.099	-0.031
-217.582	588.504	-0.118	0.290
-216.567	45.727	-0.127	0.118
-215.552	88.957	0.056	0.062
-214.538	-200.000	0.060	0.467
-213.523	-149.594	-0.269	-0.021
-212.509	-200.000	0.057	0.380
-211.494	-82.914	-0.168	-0.054
-210.479	176.820	0.155	0.226
-209.465	-162.258	0.255	0.013
-208.450	4.613	0.031	-0.022
-207.436	168.755	-0.299	-0.427
-206.421	-45.141	0.074	-0.037
-205.406	228.170	0.134	0.219
-204.392	-200.000	-0.038	0.312
-203.377	-29.967	-0.267	-0.152
-202.363	-13.094	-0.122	0.079
-201.348	-102.699	-0.050	-0.012
-200.333	-99.808	0.161	0.040
-199.319	223.020	0.049	0.079
-198.304	399.665	0.089	-0.187
-197.290	632.634	0.085	0.215
-196.275	146.141	0.351	0.472
-195.260	-200.000	-0.012	-0.196
-194.246	-85.242	-0.221	-0.069
-193.231	60.553	0.134	0.133
-192.217	457.954	-0.062	-0.137
-191.202	-103.324	0.111	-0.026
-190.187	36.059	0.103	-0.091
-189.173	1.935	-0.121	0.087
-188.158	-200.000	0.024	0.244
-187.144	-200.000	0.014	0.227
-186.129	-82.539	0.078	-0.025
-185.114	-90.490	0.139	-0.040
-184.100	-139.231	-0.628	0.068
-183.085	-128.449	-0.041	-0.006
-182.071	-44.380	-0.025	-0.013
-181.056	421.524	0.027	-0.059
-180.042	-86.954	0.473	0.144
-179.027	314.861	0.195	0.368
-178.012	-97.890	0.455	0.118
-176.998	-200.000	0.037	-0.244
-175.983	-200.000	-0.040	-0.258
-174.969	-30.633	0.079	-0.045
-173.954	201.024	-0.117	0.180
-172.939	5.135	-0.068	0.050
-171.925	-123.385	0.391	-0.062
-170.910	-88.392	0.083	0.025
-169.896	-98.612	0.332	0.085
-168.881	60.367	-0.140	-0.138
-167.866	-146.624	0.232	0.020
-166.852	293.697	-0.079	-0.145
-165.837	-200.000	-0.003	-0.319
-164.823	68.764	-0.191	0.196
-163.808	114.514	0.203	-0.247
-162.793	27.458	-0.091	-0.077
-161.779	143.348	-0.119	-0.159
-160.764	3.348	0.311	-0.226
-159.750	231.838	-0.045	0.073
-158.735	154.115	-0.221	0.303
-157.720	800.000	-0.061	-0.193
-156.706	-200.000	-0.013	0.156
-155.691	-54.299	0.139	0.063
-154.677	-174.066	-0.351	-0.010
-153.662	-200.000	0.030	0.167
-152.647	-9.689	0.090	-0.060
-151.633	800.000	-0.030	0.120
-150.618	-103.415	-0.006	0.001
-149.604	-130.246	0.278	0.038
-148.589	105.861	0.156	-0.185
-147.574	-194.075	-0.311	-0.003
-146.560	24.946	0.179	0.148
-145.545	194.366	-0.188	0.285
-144.531	-17.952	-0.066	0.041
-143.516	-132.456	0.242	-0.031
-142.502	-40.315	-0.208	0.108
-141.487	-125.101	-0.079	-0.012
-140.472	24.075	-0.256	0.211
-139.458	-177.538	-0.364	0.009
-138.443	182.268	0.167	0.246
-137.429	-200.000	0.058	0.347
-136.414	800.000	0.041	-0.160
-135.399	-171.954	-0.161	-0.005
-134.385	-61.450	-0.324	-0.136
-133.370	143.387	-0.163	-0.217
-132.356	-200.000	-0.003	0.041
-131.341	46.941	-0.189	0.176
-130.326	-200.000	0.042	0.326
-129.312	-93.105	0.226	0.063
-128.297	-85.170	-0.153	-0.048
-127.283	-200.000	-0.016	0.177
-126.268	323.877	-0.063	0.121
-125.253	-53.169	0.232	-0.106
-124.239	-65.434	0.357	0.143
-123.224	-199.002	-0.157	0.001
-122.210	-144.086	0.056	-0.005
-121.195	200.811	0.236	-0.362
-120.180	-33.178	0.221	-0.122
-119.166	44.361	0.165	0.151
-118.151	4.114	0.154	-0.112
-117.137	-162.890	0.105	-0.005
-116.122	-109.683	-0.462	-0.097
-115.107	-168.698	0.082	0.003
-114.093	-136.264	0.183	-0.021
-113.078	-141.538	0.382	0.038
-112.064	97.308	0.208	-0.239
-111.049	365.357	-0.045	-0.091
-110.034	-62.611	0.285	-0.118
-109.020	113.892	-0.363	0.440
-108.005	357.498	0.068	0.135
-106.991	489.195	0.121	0.275
-105.976	133.999	-0.022	0.029
-104.962	-132.621	-0.324	0.041
-103.947	-50.442	-0.217	0.102
-102.932	18.238	0.124	0.098
-101.918	-110.594	-0.219	-0.045
-100.903	19.727	-0.242	0.194
-99.889	171.654	0.236	0.337
-98.874	-200.000	-0.019	0.247
-97.859	800.000	-0.006	-0.025
-96.845	-42.183	-0.172	-0.088
-95.830	-43.774	0.062	-0.031
-94.816	-160.873	0.300	-0.016
-93.801	-61.891	0.084	0.035
-92.786	800.000	0.025	-0.076
-91.772	-200.000	0.011	0.201
-90.757	-175.613	-0.095	-0.003
-89.743	61.556	-0.289	0.287
-88.728	-123.606	-0.165	0.026
-87.713	-97.118	-0.369	0.096
-86.699	28.245	0.095	0.080
-85.684	800.000	-0.024	-0.088
-84.670	-200.000	0.025	0.323
-83.655	-171.816	-0.113	0.004
-82.640	405.826	0.136	-0.287
-81.626	-200.000	0.020	0.266
-80.611	-93.425	-0.091	-0.025
-79.597	-40.830	0.155	0.080
-78.582	-137.509	-0.194	0.022
-77.567	25.384	0.281	0.233
-76.553	800.000	-0.023	0.067
-75.538	-200.000	0.033	0.414
-74.524	-200.000	-0.001	0.056
-73.509	59.049	-0.111	-0.108
-72.494	-81.015	-0.266	0.088
-71.480	-200.000	-0.005	-0.111
-70.465	-200.000	-0.016	-0.093
-69.451	146.726	0.056	-0.075
-68.436	-200.000	-0.025	0.129
-67.422	2.234	-0.078	-0.056
-66.407	181.684	-0.112	-0.164
-65.392	-78.344	-0.114	0.039
-64.378	-64.981	0.208	-0.084
-63.363	-200.000	-0.029	-0.522
-62.349	406.842	0.213	0.447
-61.334	125.355	-0.773	-0.971
-60.319	-107.934	0.125	0.027
-59.305	83.492	-0.518	-0.562
-58.290	491.550	0.404	0.921
-57.276	715.643	0.637	1.682
-56.261	-200.000	75.853	512.610
-55.246	531.792	1327.858	3126.148
-54.232	143.700	2581.129	3422.894
-53.217	116.073	2248.308	2739.843
-52.203	52.797	1688.101	1606.077
-51.188	44.613	1408.044	1288.068
-50.173	40.970	1361.800	1223.357
-49.159	58.925	1397.005	1366.832
-48.144	65.901	1415.777	1428.387
-47.130	44.793	1378.651	1262.092
-46.115	40.909	1361.851	1222.831
-45.100	40.681	1357.230	1217.236
-44.086	40.507	1354.915	1214.044
-43.071	40.428	1352.416	1211.274
-42.057	40.514	1349.930	1209.522
-41.042	40.483	1348.386	1207.904
-40.027	40.603	1346.433	1206.841
-39.013	40.621	1344.505	1205.174
-37.998	40.696	1342.572	1203.848
-36.984	40.621	1341.064	1201.988
-35.969	40.763	1338.910	1200.874
-34.954	40.739	1337.065	1199.023
-33.940	40.719	1336.059	1197.957
-32.925	40.772	1334.627	1196.943
-31.911	40.856	1333.195	1196.113
-30.896	40.800	1331.385	1194.107
-29.881	40.792	1330.089	1192.852
-28.867	40.764	1328.538	1191.245
-27.852	40.764	1327.029	1189.846
-26.838	40.791	1325.406	1188.506
-25.823	40.826	1324.152	1187.540
-24.809	40.751	1322.914	1185.936
-23.794	40.654	1321.965	1184.457
-22.779	40.642	1320.501	1183.030
-21.765	40.823	1318.688	1182.434
-20.750	40.747	1317.356	1180.740
-19.736	40.716	1316.013	1179.307
-18.721	40.751	1314.607	1178.205
-17.706	40.681	1313.604	1176.845
-16.692	40.663	1312.505	1175.708
-15.677	40.657	1311.303	1174.550
-14.663	40.606	1310.191	1173.206
-13.648	40.578	1309.070	1171.992
-12.633	40.654	1307.503	1170.991
-11.619	40.641	1307.073	1170.478
-10.604	40.620	1306.266	1169.590
-9.590	40.643	1304.823	1168.385
-8.575	40.481	1304.404	1167.010
-7.560	40.655	1302.938	1166.675
-6.546	40.624	1302.513	1166.067
-5.531	40.494	1301.309	1164.180
-4.517	40.667	1300.470	1164.397
-3.502	40.651	1299.553	1163.434
-2.487	40.742	1298.191	1162.705
-1.473	40.810	1294.626	1159.860
-0.458	39.993	1280.195	1142.166
0.556	34.775	1260.706	1103.018
1.571	30.992	1264.470	1084.258
2.586	29.825	1279.022	1089.769
3.600	28.077	1268.062	1070.115
4.615	19.510	1188.509	955.681
5.629	6.571	1102.319	819.441
6.644	0.663	1077.373	770.748
7.659	0.183	1074.743	766.359
8.673	0.043	1073.348	764.584
9.688	-0.066	1072.085	763.060
10.702	0.449	1071.257	765.018
11.717	8.283	1083.110	813.462
12.731	19.376	1099.350	882.677
13.746	22.711	1102.848	902.498
14.761	22.320	1101.645	899.438
15.775	22.220	1101.203	898.483
16.790	22.074	1100.003	896.678
17.804	22.028	1099.163	895.680
18.819	21.962	1099.088	895.203
19.834	21.972	1098.861	894.989
20.848	22.074	1098.087	894.801
21.863	22.099	1097.708	894.543
22.877	21.969	1096.907	893.147
23.892	22.081	1095.710	892.661
24.907	22.016	1095.583	892.151
25.921	21.966	1094.320	890.791
26.936	22.063	1092.529	889.742
27.950	21.977	1091.191	888.139
28.965	21.725	1089.513	885.424
29.980	21.949	1087.812	885.093
30.994	22.017	1087.219	884.872
32.009	22.021	1086.117	883.917
33.023	21.814	1084.554	881.526
34.038	21.922	1083.533	881.163
35.053	22.040	1082.956	881.207
36.067	22.141	1081.777	880.674
37.082	22.191	1081.290	880.454
38.096	22.375	1080.738	880.846
39.111	22.216	1080.188	879.525
40.126	22.341	1078.064	878.342
41.140	21.898	1076.336	874.648
42.155	21.645	1075.179	872.368
43.169	21.705	1074.316	871.893
44.184	21.653	1073.546	870.932
45.199	21.586	1072.301	869.510
46.213	21.600	1071.556	868.899
47.228	21.913	1070.201	869.276
48.242	21.914	1069.486	868.623
49.257	22.017	1068.791	868.490
50.271	22.137	1068.057	868.409
51.286	22.118	1067.349	867.665
52.301	22.147	1066.247	866.836
53.315	22.091	1065.541	865.906
54.330	21.951	1064.749	864.497
55.344	22.105	1063.731	864.350
56.359	21.929	1063.028	862.837
57.374	21.876	1061.566	861.316
58.388	21.962	1060.992	861.195
59.403	21.726	1060.102	859.240
60.417	21.623	1059.469	858.148
61.432	21.623	1059.569	858.150
62.447	21.852	1058.050	857.968
63.461	21.821	1057.426	857.233
64.476	21.811	1056.324	856.213
65.490	21.705	1055.208	854.715
66.505	21.817	1054.470	854.590
67.520	21.873	1053.901	854.328
68.534	21.616	1053.014	852.280
69.549	21.374	1051.573	849.860
70.563	21.440	1050.732	849.430
71.578	21.298	1050.227	848.256
72.593	21.337	1048.994	847.374
73.607	21.362	1048.329	846.882
74.622	21.693	1048.231	848.330
75.636	21.674	1047.492	847.566
76.651	21.494	1046.376	845.721
77.666	21.522	1045.454	845.035
78.680	21.469	1045.134	844.444
79.695	21.594	1044.016	844.070
80.709	21.694	1043.508	844.066
81.724	21.689	1042.517	843.167
82.739	21.657	1042.219	842.695
83.753	21.911	1041.967	843.641
84.768	22.327	1040.870	844.672
85.782	22.571	1039.763	844.870
86.797	22.341	1038.715	842.844
87.812	22.239	1037.981	841.682
88.826	22.274	1036.863	840.868
89.841	22.309	1035.816	840.114
90.855	22.368	1034.807	839.504
91.870	22.196	1034.303	838.198
92.884	22.211	1032.646	836.854
93.899	22.166	1031.672	835.775
94.914	22.320	1031.152	836.014
95.928	22.015	1030.211	833.730
96.943	21.895	1028.625	831.800
97.957	21.751	1027.502	830.138
98.972	21.567	1026.300	828.225
99.987	21.802	1026.189	829.171
101.001	21.960	1025.400	829.207
102.016	21.992	1024.661	828.687
103.030	22.032	1022.766	827.270
104.045	21.831	1022.175	825.775
105.060	21.618	1021.559	824.200
106.074	21.809	1020.569	824.226
107.089	22.145	1019.765	825.081
108.103	21.945	1018.861	823.338
109.118	21.849	1017.315	821.568
110.133	21.809	1016.412	820.580
111.147	21.665	1015.163	818.824
112.162	21.496	1014.267	817.238
113.176	21.676	1013.773	817.611
114.191	21.712	1012.578	816.740
115.206	21.327	1011.375	813.904
116.220	21.364	1010.797	813.542
117.235	21.552	1009.620	813.396
118.249	21.583	1008.871	812.866
119.264	21.415	1007.920	811.247
120.279	21.351	1007.892	810.856
121.293	21.502	1006.669	810.498
122.308	21.582	1006.006	810.264
123.322	21.417	1004.950	808.579
124.337	21.462	1002.972	807.124
125.352	21.013	1001.431	803.742
126.366	21.020	1000.094	802.632
127.381	21.698	1000.226	805.788
128.395	21.993	1000.539	807.324
129.410	22.084	999.355	806.715
130.424	22.057	998.132	805.533
131.439	22.073	997.392	804.938
132.454	22.017	996.383	803.793
133.468	21.999	994.974	802.505
134.483	22.170	994.570	802.892
135.497	22.445	993.878	803.515
136.512	22.314	993.085	802.203
137.527	22.256	992.432	801.341
138.541	22.430	991.387	801.218
139.556	22.277	990.807	799.983
140.570	22.327	990.112	799.580
141.585	22.450	988.665	798.898
142.600	22.292	987.890	797.485
143.614	22.523	987.220	797.922
144.629	22.574	986.718	797.676
145.643	22.588	984.742	796.070
146.658	22.464	983.394	794.352
147.673	22.166	982.830	792.483
148.687	22.115	981.408	791.033
149.702	22.064	980.001	789.601
150.716	22.039	979.548	789.057
151.731	22.202	978.681	789.016
152.746	22.378	978.410	789.521
153.760	22.458	977.788	789.307
154.775	22.535	976.949	788.902
155.789	22.498	975.620	787.595
156.804	22.404	975.465	786.981
157.819	22.422	974.362	786.099
158.833	22.494	973.946	786.019
159.848	22.550	972.309	784.877
160.862	22.445	971.237	783.475
161.877	22.440	970.216	782.561
162.892	22.395	969.506	781.715
163.906	22.469	968.286	780.994
164.921	22.377	967.736	780.071
165.935	22.531	966.190	779.440
166.950	22.410	965.406	778.204
167.964	22.500	964.705	777.967
168.979	22.247	963.595	775.887
169.994	22.254	962.600	775.047
171.008	22.395	962.318	775.374
172.023	22.271	961.736	774.288
173.037	22.325	960.071	773.116
174.052	22.222	958.986	771.721
175.067	22.159	958.531	771.010
176.081	22.268	958.315	771.249
177.096	22.225	957.577	770.398
178.110	21.997	956.168	768.198
179.125	21.796	955.646	766.832
180.140	21.908	955.350	767.015
181.154	21.975	954.796	766.798
182.169	22.235	955.035	768.056
183.183	22.303	954.954	768.219
184.198	22.269	953.295	766.668
185.213	22.375	952.732	766.609
186.227	22.383	952.336	766.260
187.242	22.511	951.125	765.774
188.256	22.534	950.861	765.591
189.271	22.504	949.990	764.693
190.286	22.169	949.092	762.452
191.300	21.574	947.455	758.492
192.315	20.908	945.743	754.171
193.329	20.790	945.424	753.340
194.344	21.666	945.915	757.455
195.359	22.349	945.578	760.069
196.373	22.426	944.987	759.859
197.388	22.289	944.259	758.615
198.402	22.250	943.846	758.046
199.417	22.357	943.232	757.947
200.432	22.058	942.091	755.677
201.446	21.833	941.377	754.070
202.461	21.985	940.911	754.286
203.475	21.171	939.197	749.351
204.490	20.353	937.274	744.244
205.504	21.238	937.994	748.548
206.519	21.938	937.477	751.064
207.534	21.900	937.531	750.877
208.548	22.392	937.374	752.792
209.563	22.111	936.247	750.620
210.577	22.118	935.790	750.214
211.592	22.558	935.024	751.413
212.607	22.475	934.232	750.357
213.621	22.362	933.891	749.535
214.636	22.485	933.165	749.408
215.650	22.379	932.278	748.179
216.665	22.576	931.586	748.394
217.680	22.527	930.758	747.454
218.694	22.152	929.515	744.802
219.709	21.872	929.071	743.195
220.723	22.228	928.345	744.054
221.738	22.255	927.989	743.816
222.753	22.246	927.672	743.460
223.767	22.498	926.684	743.664
224.782	22.544	926.369	743.541
225.796	22.614	925.695	743.229
226.811	21.894	924.558	739.217
227.826	21.298	923.148	735.517
228.840	21.552	922.608	736.089
229.855	21.687	921.790	735.941
230.869	21.236	920.738	733.142
231.884	21.590	920.872	734.670
232.899	22.300	921.110	737.775
233.913	22.377	920.019	737.155
234.928	22.202	919.606	736.030
235.942	22.334	918.787	735.861
236.957	22.012	917.974	733.799
237.972	21.901	917.222	732.668
238.986	22.054	917.031	733.088
240.001	21.997	916.241	732.156
241.015	22.130	915.581	732.118
242.030	22.258	915.274	732.342
243.045	22.392	914.862	732.502
244.059	22.428	914.474	732.277
245.074	22.276	913.218	730.575
246.088	21.921	912.406	728.389
247.103	22.196	911.648	728.858
248.117	22.571	912.145	730.746
249.132	22.889	911.680	731.625
250.147	23.140	910.574	731.712
251.161	23.254	910.392	731.976
252.176	23.095	909.765	730.747
253.190	23.328	909.001	731.033
254.205	23.309	908.936	730.834
255.220	23.252	908.193	729.939
256.234	23.249	906.759	728.709
257.249	23.193	906.219	727.980
258.263	23.065	905.988	727.206
259.278	23.244	905.032	727.108
260.293	23.209	904.374	726.373
261.307	23.215	903.480	725.612
262.322	22.895	903.096	723.929
263.336	22.138	901.021	719.108
264.351	21.143	899.193	713.517
265.366	21.328	898.946	714.013
266.380	22.267	899.810	718.474
267.395	22.831	898.803	719.909
268.409	22.776	898.259	719.187
269.424	23.005	897.910	719.774
270.439	22.969	897.610	719.325
271.453	23.109	896.871	719.237
272.468	23.114	896.741	719.090
273.482	23.234	895.957	718.884
274.497	22.886	895.008	716.647
275.512	22.455	893.956	713.994
276.526	22.883	893.778	715.523
277.541	23.052	893.448	715.881
278.555	22.703	892.499	713.647
279.570	22.656	891.844	712.867
280.585	22.706	891.443	712.687
281.599	22.843	890.464	712.394
282.614	22.401	888.840	709.249
283.628	22.140	889.001	708.266
284.643	22.611	888.407	709.628
285.657	22.238	887.013	706.952
286.672	22.081	885.732	705.235
287.687	22.777	885.840	708.052
288.701	22.824	885.169	707.643
289.716	22.240	885.137	705.214
290.730	22.179	884.462	704.368
291.745	22.069	883.205	702.866
292.760	22.294	883.130	703.642
293.774	23.220	883.507	707.585
294.789	23.450	883.211	708.202
295.803	23.438	882.822	707.784
296.818	23.784	881.843	708.313
297.833	23.211	880.501	704.891
298.847	23.126	879.629	703.792
299.862	23.245	879.867	704.394
300.876	23.498	879.771	705.263
301.891	23.557	878.600	704.497
302.906	23.020	877.846	701.696
303.920	23.295	877.269	702.267
304.935	23.489	877.463	703.125
305.949	23.463	876.718	702.367
306.964	23.085	875.813	700.080
307.979	23.242	875.384	700.298
308.993	23.551	875.236	701.338
310.008	23.524	874.451	700.542
311.022	23.418	873.604	699.382
312.037	23.348	873.113	698.653
313.052	23.204	871.642	696.844
314.066	22.345	870.149	692.214
315.081	21.800	869.740	689.685
316.095	22.666	870.089	693.305
317.110	23.288	869.748	695.415
318.125	22.471	868.046	690.790
319.139	21.383	866.626	685.337
320.154	21.368	866.374	685.017
321.168	22.176	866.802	688.461
322.183	23.064	866.598	691.713
323.197	23.126	866.472	691.793
324.212	23.230	866.346	692.038
325.227	23.243	865.730	691.537
326.241	23.055	865.041	690.192
327.256	23.055	864.376	689.600
328.270	23.014	863.591	688.754
329.285	22.850	862.662	687.312
330.300	22.732	861.779	686.090
331.314	22.939	861.726	686.793
332.329	23.146	861.727	687.535
333.343	23.451	861.138	688.191
334.358	23.486	860.693	687.907
335.373	23.475	860.338	687.522
336.387	23.866	860.187	688.856
337.402	23.863	860.362	688.922
338.416	23.859	859.738	688.348
339.431	23.980	859.119	688.260
340.446	24.097	859.107	688.641
341.460	23.807	858.500	686.974
342.475	23.739	857.999	686.249
343.489	23.727	857.748	685.940
344.504	24.079	857.448	686.996
345.519	24.275	856.863	687.222
346.533	24.262	856.594	686.898
347.548	24.165	855.883	685.893
348.562	24.167	855.285	685.359
349.577	24.246	854.854	685.260
350.592	24.131	853.910	683.999
351.606	24.115	853.445	683.503
352.621	24.000	852.762	682.456
353.635	24.023	851.704	681.638
354.650	23.411	850.055	677.918
355.665	22.472	848.383	672.939
356.679	22.798	848.868	674.510
357.694	23.162	848.213	675.319
358.708	23.153	847.807	674.900
359.723	23.536	847.611	676.147
360.738	23.804	847.323	676.875
361.752	23.875	846.643	676.545
362.767	24.204	846.485	677.610
363.781	24.515	845.977	678.324
364.796	24.532	845.608	678.031
365.810	24.520	845.455	677.806
366.825	24.588	844.814	677.490
367.840	24.210	844.010	675.352
368.854	23.833	843.263	673.265
369.869	23.892	842.277	672.641
370.883	23.926	842.459	672.858
371.898	23.811	841.706	671.763
372.913	23.910	841.410	671.838
373.927	23.986	841.161	671.869
374.942	24.166	840.777	672.183
375.956	24.211	840.550	672.111
376.971	24.330	840.159	672.187
377.986	24.507	839.697	672.426
379.000	24.422	838.966	671.458
380.015	24.258	838.261	670.222
381.029	24.426	837.805	670.428
382.044	24.641	837.329	670.796
383.059	24.594	836.559	669.942
384.073	24.593	836.184	669.577
385.088	24.601	835.118	668.695
386.102	24.343	834.774	667.394
387.117	24.388	833.597	666.563
388.132	23.943	832.834	664.232
389.146	23.460	831.918	661.643
390.161	23.790	832.076	662.940
391.175	24.205	831.763	664.180
392.190	23.998	830.473	662.320
393.205	22.561	829.098	655.823
394.219	20.881	827.566	648.307
395.234	20.974	826.820	648.010
396.248	22.578	827.993	654.838
397.263	24.198	828.769	661.409
398.278	24.067	828.262	660.463
399.292	23.755	827.592	658.714
400.307	23.923	827.406	659.130
401.321	24.052	826.707	658.990
402.336	24.452	826.099	659.927
403.350	24.649	826.911	661.245
404.365	24.882	826.595	661.797
405.380	25.254	826.020	662.654
406.394	25.301	825.490	662.341
407.409	25.154	825.099	661.428
408.423	25.199	824.535	661.081
409.438	25.100	824.365	660.523
410.453	25.372	823.944	661.127
411.467	25.106	823.306	659.582
412.482	25.156	823.149	659.579
413.496	25.153	822.939	659.340
414.511	25.138	822.418	658.810
415.526	25.258	821.721	658.635
416.540	25.060	821.104	657.355
417.555	24.807	820.246	655.684
418.569	24.968	819.766	655.831
419.584	24.958	819.490	655.517
420.599	24.629	819.015	653.875
421.613	93.088	1261.237	1374.804
422.628	80.141	1325.684	1374.928
