DTS Sentinel unit serial number:	SN413079Multiplexer serial number:	ORYXHardware model number:	OX4-SRSoftware version number:	ORYX F/W v4.00 Oryx Data Collector v3.7.2.0data status	okinstallation	princeton_trtdifferential loss correction	single-endedforward channel	channel 1reverse channel	N/Adate	2019/09/12time	05:00:11forward acquisition time	60.00reverse acquisition time	0.00gamma	496.2192k internal	0.2323k external	0.2323temperature offset calibration	1.0054default loss term (dB/km)	0.3790temperature slope calibration	1.0000multiplexer offset coefficient	1.0000multiplexer slope coefficient	1.0000fibre end	0.00T internal ref (°C)	31.75T ext. ref 1 (°C)	1.76T ext. ref 2 (°C)	27.05length (m)	temperature (°C)	Stokes	anti-Stokes-747.200	-25.238	0.245	0.147
-746.185	-200.000	0.047	0.256
-745.171	154.044	0.093	-0.129
-744.156	251.355	-0.034	0.058
-743.142	98.398	0.189	-0.220
-742.127	138.430	0.074	0.099
-741.112	-84.114	-0.181	0.058
-740.098	108.254	-0.139	0.167
-739.083	314.882	-0.045	-0.085
-738.069	387.621	-0.139	0.290
-737.054	-113.810	0.162	-0.032
-736.039	-51.506	-0.208	0.098
-735.025	-38.877	-0.379	0.202
-734.010	-58.218	0.091	0.040
-732.996	9.989	-0.194	0.149
-731.981	276.291	-0.053	-0.095
-730.966	50.320	0.090	-0.086
-729.952	-92.545	-0.436	0.124
-728.937	-114.723	-0.309	-0.060
-727.923	190.406	0.213	-0.322
-726.908	-123.092	-0.183	0.030
-725.894	301.728	0.051	-0.094
-724.879	-200.000	0.009	0.241
-723.864	800.000	-0.058	-0.200
-722.850	-23.151	0.092	-0.056
-721.835	-200.000	0.002	-0.048
-720.821	443.829	0.085	-0.189
-719.806	-200.000	-0.013	0.060
-718.791	60.619	-0.088	-0.088
-717.777	-200.000	-0.003	0.018
-716.762	248.150	0.101	-0.172
-715.748	800.000	0.050	0.162
-714.733	-25.413	-0.163	-0.097
-713.718	130.015	0.056	-0.072
-712.704	14.094	0.246	0.193
-711.689	97.639	0.118	-0.136
-710.675	133.732	0.167	0.218
-709.660	7.947	0.386	0.292
-708.645	-200.000	-0.033	0.167
-707.631	141.228	-0.204	-0.273
-706.616	-200.000	0.015	0.275
-705.602	296.785	-0.164	-0.303
-704.587	-200.000	-0.001	0.168
-703.572	252.639	-0.060	-0.103
-702.558	127.090	0.068	0.087
-701.543	800.000	0.059	-0.219
-700.529	90.427	0.277	-0.312
-699.514	393.690	0.071	-0.148
-698.499	338.114	0.175	0.343
-697.485	10.653	-0.224	0.172
-696.470	-200.000	0.040	0.325
-695.456	-200.000	0.020	-0.139
-694.441	-42.218	-0.345	0.178
-693.426	-200.000	-0.003	0.185
-692.412	-117.905	0.148	-0.027
-691.397	-115.721	-0.450	0.085
-690.383	137.999	0.113	-0.149
-689.368	-43.156	0.214	-0.109
-688.354	122.904	0.077	-0.098
-687.339	-59.145	-0.310	-0.135
-686.324	669.707	-0.022	0.058
-685.310	-55.332	0.194	0.088
-684.295	-84.585	0.206	-0.065
-683.281	-54.781	0.295	0.134
-682.266	800.000	-0.099	-0.297
-681.251	-83.467	-0.139	0.045
-680.237	237.486	-0.164	-0.274
-679.222	296.682	-0.144	-0.266
-678.208	46.972	-0.254	-0.238
-677.193	160.759	0.142	0.200
-676.178	385.850	0.101	-0.210
-675.164	-6.765	-0.195	-0.133
-674.149	-63.787	0.193	0.080
-673.135	264.653	-0.088	0.154
-672.120	-200.000	-0.020	0.167
-671.105	-200.000	0.016	-0.289
-670.091	99.583	-0.036	-0.042
-669.076	122.191	-0.295	-0.371
-668.062	-33.358	-0.236	-0.132
-667.047	200.799	0.118	0.182
-666.032	-3.442	-0.142	-0.099
-665.018	-200.000	-0.005	0.239
-664.003	-119.732	0.378	-0.066
-662.989	90.362	0.029	0.033
-661.974	-34.351	-0.366	0.202
-660.959	90.294	0.236	-0.265
-659.945	488.019	0.077	0.178
-658.930	267.904	0.081	0.143
-657.916	-18.981	0.176	-0.110
-656.901	-171.353	0.102	-0.003
-655.886	800.000	-0.038	-0.134
-654.872	-152.790	-0.129	0.009
-653.857	-200.000	0.009	0.174
-652.843	-139.875	-0.346	0.037
-651.828	800.000	0.023	-0.091
-650.814	-200.000	-0.002	0.199
-649.799	77.611	0.106	-0.114
-648.784	183.183	0.058	-0.086
-647.770	-200.000	-0.006	-0.116
-646.755	-93.420	-0.457	0.127
-645.741	198.515	-0.182	-0.280
-644.726	725.914	0.143	-0.384
-643.711	-200.000	0.011	-0.121
-642.697	-200.000	-0.013	0.262
-641.682	-92.635	0.383	-0.108
-640.668	-200.000	0.006	-0.109
-639.653	-44.708	-0.348	-0.175
-638.638	-49.652	0.177	0.084
-637.624	114.975	-0.083	0.102
-636.609	129.871	0.118	-0.151
-635.595	800.000	0.065	-0.247
-634.580	-103.292	-0.039	0.009
-633.565	-77.798	0.077	-0.027
-632.551	-200.000	-0.004	0.027
-631.536	60.868	-0.058	0.057
-630.522	-33.704	0.272	-0.151
-629.507	368.758	-0.087	-0.177
-628.492	159.024	-0.174	0.243
-627.478	-90.886	-0.291	-0.084
-626.463	-200.000	0.068	0.422
-625.449	-42.663	-0.313	-0.160
-624.434	-200.000	0.009	0.158
-623.419	-65.578	0.044	-0.018
-622.405	89.590	-0.141	-0.158
-621.390	800.000	-0.070	-0.303
-620.376	-150.351	-0.230	-0.018
-619.361	-200.000	0.023	-0.101
-618.346	45.536	0.229	-0.212
-617.332	-90.815	-0.274	0.079
-616.317	-4.795	0.470	-0.326
-615.303	-200.000	0.011	0.342
-614.288	324.877	0.126	-0.243
-613.273	-18.396	-0.092	-0.058
-612.259	-200.000	-0.044	-0.335
-611.244	-87.885	0.277	-0.084
-610.230	-23.783	-0.201	0.121
-609.215	-78.756	-0.221	0.076
-608.201	-108.945	-0.259	-0.056
-607.186	277.942	0.088	0.158
-606.171	-200.000	0.013	-0.194
-605.157	127.345	-0.103	0.131
-604.142	-200.000	-0.009	0.130
-603.128	-200.000	0.012	0.155
-602.113	-163.569	-0.378	-0.018
-601.098	147.995	-0.039	0.053
-600.084	-47.340	-0.238	0.116
-599.069	-200.000	0.023	-0.135
-598.055	76.735	-0.041	0.043
-597.040	278.118	0.166	-0.297
-596.025	522.685	-0.070	0.164
-595.011	53.163	-0.143	0.137
-593.996	-15.754	-0.073	-0.047
-592.982	-78.540	0.267	-0.092
-591.967	-45.617	-0.088	-0.044
-590.952	-118.426	-0.168	-0.030
-589.938	-91.014	0.245	-0.071
-588.923	800.000	-0.073	0.214
-587.909	-126.982	-0.398	-0.059
-586.894	-185.004	0.377	0.006
-585.879	349.031	-0.162	0.321
-584.865	-84.259	0.130	0.041
-583.850	-90.631	-0.278	0.081
-582.836	800.000	-0.087	-0.290
-581.821	-200.000	-0.001	0.096
-580.806	-200.000	-0.023	-0.123
-579.792	118.528	-0.044	-0.054
-578.777	92.319	-0.176	-0.199
-577.763	44.426	0.214	-0.197
-576.748	220.404	-0.162	-0.260
-575.733	-60.707	-0.224	-0.095
-574.719	-200.000	-0.043	-0.275
-573.704	-63.904	0.233	0.095
-572.690	14.621	-0.245	0.192
-571.675	46.144	-0.132	0.122
-570.661	-114.012	0.348	0.068
-569.646	800.000	0.029	0.097
-568.631	-200.000	-0.018	-0.302
-567.617	-200.000	0.003	-0.046
-566.602	-200.000	0.024	0.411
-565.588	-111.635	0.369	0.075
-564.573	-94.406	-0.183	-0.050
-563.558	-87.620	-0.258	-0.078
-562.544	-62.330	-0.102	0.043
-561.529	-200.000	-0.055	-0.421
-560.515	-190.943	-0.182	-0.002
-559.500	-117.126	0.122	0.022
-558.485	23.545	-0.031	-0.025
-557.471	62.724	0.112	0.112
-556.456	215.399	-0.054	-0.086
-555.442	-88.390	-0.106	-0.032
-554.427	-33.462	-0.166	0.092
-553.412	800.000	0.044	0.189
-552.398	297.184	-0.131	-0.241
-551.383	216.613	-0.117	0.187
-550.369	-135.608	0.196	-0.023
-549.354	-200.000	-0.013	0.128
-548.339	-75.865	0.160	-0.057
-547.325	-132.562	0.161	0.021
-546.310	-200.000	-0.013	0.302
-545.296	-200.000	0.037	-0.230
-544.281	-200.000	-0.056	-0.287
-543.266	-72.872	-0.147	-0.054
-542.252	-137.725	-0.199	0.022
-541.237	-49.596	-0.250	-0.119
-540.223	-115.862	-0.157	-0.029
-539.208	-200.000	0.003	-0.127
-538.193	254.078	-0.084	-0.144
-537.179	302.142	0.064	-0.119
-536.164	800.000	0.071	-0.277
-535.150	-104.301	0.278	-0.065
-534.135	-91.490	-0.142	0.041
-533.121	-200.000	-0.005	-0.136
-532.106	-25.395	-0.076	-0.045
-531.091	-200.000	-0.026	0.146
-530.077	-200.000	-0.002	0.121
-529.062	110.774	0.088	-0.106
-528.048	800.000	0.094	0.314
-527.033	-131.116	0.293	0.039
-526.018	-110.238	-0.249	0.052
-525.004	60.218	-0.120	-0.118
-523.989	-149.360	0.425	-0.034
-522.975	-18.611	-0.209	0.130
-521.960	800.000	0.033	-0.101
-520.945	70.655	-0.129	-0.134
-519.931	74.758	0.067	-0.070
-518.916	-71.634	0.318	-0.119
-517.902	-81.120	-0.157	-0.052
-516.887	160.465	-0.085	0.119
-515.872	197.890	-0.170	-0.260
-514.858	-58.913	0.108	-0.047
-513.843	613.827	0.110	0.275
-512.829	175.956	0.044	-0.063
-511.814	-24.289	0.336	0.201
-510.799	-200.000	-0.005	0.028
-509.785	-79.221	0.238	-0.081
-508.770	34.433	-0.100	-0.087
-507.756	-150.696	-0.263	-0.020
-506.741	-89.082	-0.083	-0.025
-505.726	278.385	-0.073	-0.130
-504.712	-200.000	0.053	-0.298
-503.697	335.192	0.081	0.158
-502.683	800.000	0.070	0.267
-501.668	-42.083	-0.312	-0.159
-500.653	561.204	-0.070	-0.170
-499.639	-11.756	-0.089	0.058
-498.624	-200.000	0.030	-0.184
-497.610	-14.859	-0.132	-0.085
-496.595	-200.000	0.296	0.000
-495.581	64.283	0.134	0.135
-494.566	-13.256	0.159	-0.103
-493.551	124.068	0.038	-0.048
-492.537	-200.000	0.032	0.314
-491.522	389.492	0.077	0.160
-490.508	250.420	-0.078	-0.132
-489.493	365.441	0.108	-0.217
-488.478	-200.000	0.007	0.157
-487.464	-200.000	0.012	-0.236
-486.449	-138.662	0.023	-0.003
-485.435	249.176	0.098	0.166
-484.420	110.802	0.227	0.273
-483.405	800.000	-0.136	-0.446
-482.391	-119.666	-0.169	-0.029
-481.376	-200.000	0.052	0.294
-480.362	-67.036	-0.143	0.056
-479.347	138.184	-0.272	-0.357
-478.332	15.877	0.236	0.186
-477.318	22.461	0.397	0.324
-476.303	-21.457	-0.269	0.164
-475.289	725.202	0.004	0.010
-474.274	2.550	-0.277	0.200
-473.259	-43.007	0.026	0.013
-472.245	-110.195	0.279	-0.058
-471.230	738.251	0.106	-0.284
-470.216	-117.579	-0.308	0.056
-469.201	-124.974	0.298	0.046
-468.186	322.224	0.159	0.303
-467.172	-36.710	0.129	-0.069
-466.157	153.821	0.075	-0.102
-465.143	-24.515	-0.029	0.017
-464.128	180.816	0.180	0.264
-463.113	-73.947	-0.196	-0.071
-462.099	-84.432	-0.140	0.044
-461.084	144.742	0.110	0.146
-460.070	800.000	-0.025	-0.101
-459.055	800.000	-0.025	-0.072
-458.040	221.710	0.312	-0.501
-457.026	-140.727	0.183	-0.019
-456.011	800.000	0.100	0.393
-454.997	-105.824	0.047	0.011
-453.982	-200.000	0.028	-0.201
-452.968	-135.719	-0.318	0.038
-451.953	191.530	-0.065	-0.098
-450.938	-184.863	-0.254	0.004
-449.924	800.000	-0.058	-0.211
-448.909	385.807	-0.187	-0.386
-447.895	-31.038	-0.058	0.033
-446.880	-30.122	-0.169	0.096
-445.865	578.274	-0.106	0.258
-444.851	-57.591	-0.285	0.125
-443.836	-200.000	-0.020	-0.182
-442.822	264.013	0.054	0.094
-441.807	-149.099	-0.167	0.013
-440.792	-150.619	-0.134	-0.010
-439.778	50.602	0.223	-0.211
-438.763	72.550	0.162	0.168
-437.749	50.433	0.092	0.087
-436.734	-200.000	0.069	-0.406
-435.719	-185.763	-0.317	0.005
-434.705	-81.122	-0.343	0.113
-433.690	-70.983	0.047	0.018
-432.676	800.000	0.054	0.168
-431.661	-132.923	0.209	0.027
-430.646	-200.000	0.032	0.468
-429.632	370.014	-0.029	0.058
-428.617	121.702	-0.176	0.219
-427.603	493.644	-0.064	-0.146
-426.588	112.767	0.043	0.052
-425.573	48.061	-0.140	-0.131
-424.559	-200.000	-0.006	0.172
-423.544	-17.742	0.247	0.155
-422.530	-13.223	0.165	0.107
-421.515	-177.393	0.193	0.005
-420.500	97.662	-0.401	0.460
-419.486	-153.260	0.249	0.017
-418.471	153.251	-0.227	0.310
-417.457	-200.000	0.087	0.384
-416.442	85.124	-0.150	-0.165
-415.428	800.000	-0.027	-0.076
-414.413	800.000	-0.032	0.132
-413.398	108.365	-0.136	-0.161
-412.384	-14.747	0.457	0.293
-411.369	419.249	-0.026	-0.055
-410.355	61.616	0.068	0.068
-409.340	76.824	0.282	-0.299
-408.325	63.031	0.069	-0.069
-407.311	-159.944	0.351	0.019
-406.296	-64.671	0.028	0.011
-405.282	25.558	0.106	0.088
-404.267	123.018	0.243	-0.304
-403.252	-69.990	-0.043	-0.016
-402.238	800.000	0.035	-0.120
-401.223	-200.000	-0.003	0.064
-400.209	9.753	-0.159	0.120
-399.194	114.486	-0.150	-0.181
-398.179	-200.000	-0.020	0.162
-397.165	-34.572	0.394	0.215
-396.150	69.741	0.107	0.110
-395.136	-200.000	-0.028	-0.162
-394.121	-183.009	0.151	0.003
-393.106	-89.782	-0.042	-0.012
-392.092	-200.000	0.084	-0.426
-391.077	-136.623	0.237	-0.027
-390.063	-12.756	-0.025	0.016
-389.048	191.543	0.159	-0.239
-388.033	164.697	-0.062	0.087
-387.019	-77.536	0.223	0.077
-386.004	-200.000	-0.002	0.039
-384.990	21.704	-0.074	0.060
-383.975	-200.000	-0.020	-0.159
-382.960	15.395	0.070	-0.055
-381.946	111.855	0.048	0.058
-380.931	-200.000	0.023	0.258
-379.917	-66.742	0.243	0.096
-378.902	14.197	0.199	0.154
-377.888	131.450	0.041	-0.052
-376.873	-168.423	-0.350	-0.013
-375.858	-14.818	0.282	0.180
-374.844	-110.367	0.040	-0.008
-373.829	-70.201	0.297	0.112
-372.815	60.027	-0.063	0.062
-371.800	200.644	0.171	-0.262
-370.785	-200.000	-0.110	0.000
-369.771	-123.112	-0.108	0.017
-368.756	-27.214	-0.435	0.252
-367.742	-128.043	0.178	-0.025
-366.727	782.028	0.021	0.057
-365.712	-122.183	-0.065	-0.011
-364.698	800.000	-0.070	-0.267
-363.683	170.740	-0.141	0.200
-362.669	24.455	-0.186	-0.153
-361.654	-28.029	-0.225	-0.130
-360.639	-99.773	0.114	-0.028
-359.625	800.000	0.069	0.215
-358.610	25.179	0.126	0.104
-357.596	2.867	0.190	-0.137
-356.581	-54.652	-0.145	-0.065
-355.566	-46.575	0.257	0.125
-354.552	800.000	-0.063	-0.218
-353.537	566.671	0.103	0.248
-352.523	135.610	-0.096	0.125
-351.508	316.659	-0.043	-0.082
-350.493	107.154	0.073	0.086
-349.479	-200.000	0.015	-0.275
-348.464	-135.519	-0.097	-0.011
-347.450	-200.000	-0.028	0.262
-346.435	-56.385	-0.142	-0.063
-345.420	-200.000	0.007	0.106
-344.406	117.226	-0.078	0.096
-343.391	103.998	-0.230	-0.268
-342.377	12.023	0.440	0.336
-341.362	-142.311	0.184	-0.018
-340.348	-13.023	-0.123	0.080
-339.333	-29.007	0.173	-0.098
-338.318	89.798	0.008	-0.009
-337.304	-90.719	0.252	-0.072
-336.289	37.373	0.219	-0.193
-335.275	395.774	-0.023	-0.048
-334.260	222.626	0.270	-0.432
-333.245	-24.555	0.197	0.117
-332.231	-96.642	0.358	0.094
-331.216	800.000	0.069	0.209
-330.202	-200.000	0.009	-0.119
-329.187	-44.342	0.422	-0.210
-328.172	184.330	-0.065	0.096
-327.158	281.271	-0.144	0.256
-326.143	-200.000	0.056	-0.446
-325.129	-200.000	0.004	0.253
-324.114	-124.965	-0.320	-0.049
-323.099	-5.420	0.277	-0.189
-322.085	2.680	0.186	0.134
-321.070	-150.484	-0.152	0.012
-320.056	-200.000	0.022	0.144
-319.041	800.000	0.106	0.376
-318.026	-200.000	0.071	0.328
-317.012	-200.000	0.037	-0.189
-315.997	-200.000	0.019	-0.262
-314.983	747.315	0.071	0.190
-313.968	100.940	0.310	-0.358
-312.953	-96.621	-0.169	0.044
-311.939	4.038	-0.163	0.118
-310.924	-200.000	0.043	0.342
-309.910	100.566	0.067	-0.077
-308.895	3.242	-0.165	-0.120
-307.880	165.958	0.130	-0.182
-306.866	14.040	-0.197	0.152
-305.851	800.000	0.115	0.422
-304.837	800.000	0.051	0.148
-303.822	-154.524	-0.121	0.008
-302.807	122.580	-0.111	0.138
-301.793	-200.000	0.089	0.472
-300.778	-200.000	0.020	-0.177
-299.764	-66.369	-0.090	0.035
-298.749	-24.958	-0.075	-0.044
-297.735	-110.724	0.174	0.036
-296.720	-46.185	-0.057	0.028
-295.705	-18.024	0.065	-0.040
-294.691	-90.243	0.071	0.021
-293.676	157.870	-0.024	0.033
-292.662	-200.000	0.304	-0.001
-291.647	-3.760	-0.089	-0.061
-290.632	-66.057	0.354	0.140
-289.618	345.770	-0.135	-0.264
-288.603	56.612	0.213	-0.206
-287.589	-200.000	-0.012	-0.066
-286.574	139.177	-0.139	-0.182
-285.559	165.914	0.124	0.174
-284.545	202.765	0.120	0.184
-283.530	66.200	0.105	0.105
-282.516	167.341	0.040	-0.057
-281.501	-21.312	-0.162	-0.098
-280.486	-168.915	0.168	0.006
-279.472	-101.292	0.041	-0.010
-278.457	-40.724	-0.224	-0.115
-277.443	59.881	-0.150	0.147
-276.428	-50.536	0.040	0.019
-275.413	4.091	-0.226	0.164
-274.399	80.000	-0.038	0.041
-273.384	-200.000	0.049	0.297
-272.370	247.297	-0.137	-0.230
-271.355	230.201	0.056	-0.091
-270.340	14.149	0.156	-0.120
-269.326	-64.852	0.127	0.051
-268.311	561.311	0.075	-0.181
-267.297	-78.820	-0.192	0.065
-266.282	-25.344	-0.050	0.029
-265.267	310.451	-0.234	-0.435
-264.253	323.184	0.162	-0.307
-263.238	347.054	0.033	-0.065
-262.224	-159.741	0.286	0.016
-261.209	91.240	-0.071	0.079
-260.195	14.389	0.116	-0.090
-259.180	268.443	0.154	-0.267
-258.165	114.005	0.152	0.183
-257.151	-200.000	-0.055	0.258
-256.136	-66.917	-0.404	-0.158
-255.122	158.918	-0.198	-0.273
-254.107	-200.000	0.006	-0.103
-253.092	108.823	0.140	0.166
-252.078	117.254	0.144	-0.175
-251.063	-200.000	0.029	-0.131
-250.049	153.744	0.066	0.090
-249.034	224.231	0.250	0.400
-248.019	134.436	-0.091	-0.117
-247.005	800.000	0.065	-0.193
-245.990	-200.000	-0.007	0.288
-244.976	-163.311	0.232	0.011
-243.961	624.790	-0.134	0.335
-242.946	-32.064	-0.067	0.037
-241.932	-200.000	-0.069	-0.409
-240.917	122.804	-0.255	-0.316
-239.903	578.072	-0.140	0.340
-238.888	82.866	0.146	-0.157
-237.873	-11.142	-0.132	0.086
-236.859	-13.006	-0.204	-0.132
-235.844	12.933	-0.117	-0.090
-234.830	-168.256	-0.194	0.007
-233.815	-200.000	0.019	-0.143
-232.800	-104.829	-0.227	-0.052
-231.786	-76.984	0.245	-0.085
-230.771	-52.438	0.154	0.070
-229.757	-137.192	-0.151	-0.017
-228.742	800.000	-0.089	0.315
-227.727	-200.000	0.009	-0.154
-226.713	-151.315	-0.229	0.017
-225.698	14.170	-0.245	-0.189
-224.684	800.000	-0.004	-0.017
-223.669	98.846	-0.035	-0.040
-222.655	-156.294	-0.342	0.021
-221.640	241.556	0.270	0.447
-220.625	31.125	-0.216	0.183
-219.611	-200.000	-0.056	-0.411
-218.596	-200.000	0.031	0.215
-217.582	-200.000	0.003	0.038
-216.567	-200.000	0.026	0.277
-215.552	195.247	0.141	0.211
-214.538	387.368	-0.070	0.143
-213.523	800.000	-0.080	-0.324
-212.509	143.866	0.098	0.129
-211.494	26.116	0.217	0.179
-210.479	256.604	0.069	-0.117
-209.465	-66.778	0.072	-0.028
-208.450	284.224	0.230	-0.410
-207.436	68.541	0.223	-0.226
-206.421	-39.981	-0.212	-0.109
-205.406	46.012	0.124	0.113
-204.392	5.290	0.058	-0.042
-203.377	39.351	0.089	-0.079
-202.363	-200.000	-0.014	-0.399
-201.348	800.000	0.043	-0.122
-200.333	105.103	0.168	0.196
-199.319	-133.313	0.121	-0.015
-198.304	508.995	0.113	-0.260
-197.290	-45.780	-0.297	-0.145
-196.275	800.000	0.095	0.286
-195.260	-81.788	-0.235	0.076
-194.246	51.528	-0.174	0.163
-193.231	571.211	0.033	0.080
-192.217	-19.803	-0.121	0.074
-191.202	289.411	-0.244	0.437
-190.187	282.229	0.082	0.146
-189.173	-167.268	0.294	0.012
-188.158	-168.217	0.031	-0.001
-187.144	363.117	-0.142	-0.281
-186.129	-200.000	-0.019	0.086
-185.114	-180.652	0.036	-0.001
-184.100	-200.000	0.012	-0.212
-183.085	-200.000	-0.014	0.260
-182.071	800.000	0.062	-0.265
-181.056	-87.605	-0.536	0.160
-180.042	-171.713	-0.211	-0.007
-179.027	-105.546	-0.083	0.019
-178.012	-148.901	-0.447	0.036
-176.998	-152.265	0.073	0.005
-175.983	31.793	-0.038	0.032
-174.969	-15.477	-0.261	0.164
-173.954	-200.000	-0.006	0.210
-172.939	-60.469	-0.150	0.063
-171.925	-200.000	-0.023	0.240
-170.910	-20.058	-0.174	0.106
-169.896	540.932	0.044	0.104
-168.881	622.704	0.032	0.079
-167.866	512.307	0.079	-0.181
-166.852	-169.674	-0.299	0.011
-165.837	-200.000	-0.041	0.491
-164.823	-66.171	-0.112	0.044
-163.808	-200.000	0.049	0.243
-162.793	-87.778	0.373	0.111
-161.779	800.000	-0.131	-0.381
-160.764	745.642	-0.080	0.214
-159.750	-200.000	-0.059	0.347
-158.735	-200.000	-0.022	-0.246
-157.720	750.139	0.056	0.149
-156.706	-157.300	0.171	-0.010
-155.691	121.073	-0.160	-0.197
-154.677	-4.873	-0.294	0.200
-153.662	414.692	-0.116	-0.243
-152.647	-12.777	0.334	0.215
-151.633	-56.596	0.265	-0.116
-150.618	-144.073	0.381	0.035
-149.604	38.067	-0.194	-0.170
-148.589	53.384	0.166	0.157
-147.574	121.602	-0.155	-0.191
-146.560	-75.986	-0.335	-0.117
-145.545	-38.895	-0.109	0.057
-144.531	-200.000	0.052	-0.307
-143.516	-71.704	0.057	-0.021
-142.502	-8.648	0.198	0.131
-141.487	102.800	-0.181	-0.209
-140.472	598.111	-0.174	-0.426
-139.458	-71.044	-0.516	0.191
-138.443	-144.111	0.262	0.024
-137.429	-40.538	-0.403	-0.206
-136.414	-168.518	0.316	0.012
-135.399	-183.389	0.572	-0.010
-134.385	-14.656	-0.163	0.104
-133.370	7.347	0.081	0.060
-132.356	-81.962	0.421	0.136
-131.341	45.854	-0.143	-0.130
-130.326	171.999	-0.113	0.160
-129.312	-0.019	-0.170	0.119
-128.297	33.163	0.359	0.307
-127.283	-34.250	-0.153	0.083
-126.268	220.925	-0.190	0.300
-125.253	800.000	0.061	0.225
-124.239	-200.000	0.026	0.223
-123.224	-44.004	0.140	-0.070
-122.210	-100.532	0.284	-0.069
-121.195	35.568	0.182	0.158
-120.180	-173.132	-0.138	0.004
-119.166	96.640	-0.202	-0.228
-118.151	-200.000	0.019	0.320
-117.137	211.332	0.179	-0.277
-116.122	-200.000	-0.029	0.249
-115.107	-147.856	0.267	-0.022
-114.093	55.133	-0.019	0.018
-113.078	-200.000	-0.022	-0.189
-112.064	-200.000	0.018	-0.168
-111.049	244.846	-0.024	0.039
-110.034	-133.287	-0.369	-0.046
-109.020	187.592	0.100	0.147
-108.005	-115.599	0.254	0.047
-106.991	-90.102	0.273	0.078
-105.976	-95.794	-0.141	0.037
-104.962	1.373	-0.296	-0.210
-103.947	-79.309	0.085	0.029
-102.932	-73.702	0.179	-0.064
-101.918	2.872	0.303	-0.217
-100.903	-49.283	0.025	-0.012
-99.889	-60.713	0.085	-0.036
-98.874	43.157	-0.276	0.248
-97.859	-78.107	0.112	0.038
-96.845	135.369	0.148	0.190
-95.830	-44.090	-0.203	-0.100
-94.816	-137.206	-0.040	0.004
-93.801	-14.697	0.177	0.112
-92.786	147.957	0.120	-0.159
-91.772	106.987	0.106	0.124
-90.757	-116.615	-0.322	0.058
-89.743	-112.999	0.265	-0.052
-88.728	-2.829	0.154	-0.106
-87.713	-5.644	0.148	-0.100
-86.699	-200.000	-0.052	0.296
-85.684	-92.363	-0.121	-0.034
-84.670	102.114	0.117	0.135
-83.655	-3.364	0.165	-0.113
-82.640	106.280	-0.114	-0.133
-81.626	-200.000	0.040	-0.227
-80.611	-74.874	0.033	-0.012
-79.597	-82.225	0.252	-0.081
-78.582	-62.453	0.216	0.088
-77.567	-13.896	0.154	0.098
-76.553	87.309	-0.177	0.192
-75.538	800.000	0.063	-0.190
-74.524	800.000	0.095	0.351
-73.509	-27.021	-0.280	0.161
-72.494	-40.799	0.206	0.105
-71.480	439.433	0.085	0.182
-70.465	356.453	-0.084	-0.164
-69.451	-49.222	0.505	0.237
-68.436	-55.643	0.107	0.047
-67.422	-11.974	0.277	-0.179
-66.407	-1.551	-0.027	-0.018
-65.392	-32.882	0.445	0.243
-64.378	15.134	0.111	0.086
-63.363	-200.000	0.035	0.296
-62.349	-46.105	-0.176	0.085
-61.334	-0.520	-1.061	-0.740
-60.319	415.714	0.296	0.621
-59.305	594.815	-0.590	-1.434
-58.290	105.071	0.753	0.873
-57.276	605.390	0.560	1.372
-56.261	-200.000	95.903	593.750
-55.246	557.031	1367.381	3239.538
-54.232	162.243	2546.366	3508.477
-53.217	113.250	2136.137	2547.131
-52.203	43.749	1597.648	1437.364
-51.188	35.417	1334.787	1151.115
-50.173	32.111	1293.293	1096.026
-49.159	54.548	1341.219	1270.411
-48.144	56.581	1357.295	1297.646
-47.130	35.453	1316.550	1135.421
-46.115	32.027	1298.855	1100.078
-45.100	31.698	1294.073	1094.059
-44.086	31.719	1291.708	1092.140
-43.071	31.544	1289.489	1089.203
-42.057	31.636	1286.877	1087.485
-41.042	31.710	1285.375	1086.602
-40.027	31.744	1284.163	1085.736
-39.013	31.674	1282.022	1083.474
-37.998	31.692	1280.104	1081.917
-36.984	31.746	1278.519	1080.844
-35.969	31.801	1276.635	1079.527
-34.954	31.749	1275.285	1078.040
-33.940	31.781	1274.123	1077.202
-32.925	31.870	1272.345	1076.163
-31.911	31.835	1270.984	1074.769
-30.896	31.873	1269.632	1073.801
-29.881	31.846	1268.518	1072.665
-28.867	31.882	1267.170	1071.686
-27.852	31.934	1265.138	1070.221
-26.838	31.907	1264.042	1069.097
-25.823	31.824	1262.857	1067.582
-24.809	31.789	1261.851	1066.492
-23.794	31.735	1260.314	1064.841
-22.779	31.830	1259.212	1064.408
-21.765	31.797	1257.648	1062.858
-20.750	31.887	1256.086	1062.006
-19.736	31.826	1254.556	1060.320
-18.721	31.724	1253.792	1059.058
-17.706	31.789	1252.448	1058.246
-16.692	31.747	1251.467	1057.141
-15.677	31.620	1250.689	1055.723
-14.663	31.586	1249.488	1054.476
-13.648	31.675	1248.269	1053.910
-12.633	31.610	1247.429	1052.790
-11.619	31.690	1246.332	1052.275
-10.604	31.684	1245.718	1051.679
-9.590	31.716	1244.216	1050.549
-8.575	31.624	1243.629	1049.496
-7.560	31.750	1242.299	1049.037
-6.546	31.589	1242.178	1047.991
-5.531	31.653	1240.908	1047.235
-4.517	31.766	1239.671	1046.780
-3.502	31.643	1238.959	1045.454
-2.487	31.773	1237.740	1045.110
-1.473	31.688	1234.081	1041.505
-0.458	30.410	1219.228	1021.901
0.556	27.256	1202.619	987.003
1.571	23.884	1208.984	973.707
2.586	23.145	1224.589	982.089
3.600	22.627	1213.271	970.076
4.615	16.365	1140.403	879.241
5.629	6.240	1064.163	770.981
6.644	2.013	1043.645	735.702
7.659	1.792	1041.325	732.938
8.673	1.617	1040.409	731.387
9.688	1.628	1038.385	729.952
10.702	1.876	1036.934	730.054
11.717	7.827	1046.150	765.166
12.731	18.098	1060.281	825.264
13.746	23.673	1067.172	857.563
14.761	25.005	1068.478	864.970
15.775	25.079	1068.302	865.110
16.790	24.747	1067.586	862.851
17.804	24.856	1066.491	862.415
18.819	24.885	1066.612	862.576
19.834	25.068	1065.668	862.619
20.848	24.949	1066.238	862.427
21.863	25.037	1065.065	861.828
22.877	24.936	1064.265	860.617
23.892	24.986	1063.615	860.255
24.907	24.956	1063.182	859.687
25.921	24.867	1062.230	858.413
26.936	24.907	1060.777	857.354
27.950	24.790	1059.300	855.525
28.965	24.760	1057.410	853.779
29.980	24.910	1056.169	853.421
30.994	25.105	1055.281	853.552
32.009	25.079	1053.760	852.123
33.023	24.770	1052.859	849.856
34.038	24.992	1052.056	850.183
35.053	25.022	1051.321	849.658
36.067	24.972	1050.523	848.701
37.082	25.075	1049.911	848.620
38.096	25.190	1049.349	848.631
39.111	25.261	1048.573	848.266
40.126	25.045	1047.151	846.020
41.140	24.758	1045.627	843.361
42.155	24.544	1043.766	840.777
43.169	24.592	1043.357	840.599
44.184	24.518	1042.895	839.804
45.199	24.478	1041.433	838.368
46.213	24.674	1040.379	838.363
47.228	24.702	1040.023	838.133
48.242	24.835	1039.023	837.875
49.257	24.937	1038.530	837.883
50.271	25.029	1037.274	837.222
51.286	25.124	1036.686	837.120
52.301	25.015	1035.792	835.813
53.315	24.932	1035.133	834.822
54.330	24.900	1034.026	833.704
55.344	24.958	1033.317	833.331
56.359	24.987	1032.008	832.338
57.374	24.847	1031.215	830.972
58.388	24.758	1030.899	830.231
59.403	24.695	1029.770	828.956
60.417	24.535	1028.742	827.314
61.432	24.638	1028.115	827.216
62.447	24.756	1027.660	827.319
63.461	24.757	1026.960	826.687
64.476	24.757	1025.551	825.483
65.490	24.548	1025.183	824.149
66.505	24.594	1024.862	824.027
67.520	24.705	1023.959	823.743
68.534	24.486	1022.634	821.594
69.549	24.217	1021.668	819.510
70.563	24.175	1021.223	818.888
71.578	24.192	1019.765	817.724
72.593	23.950	1019.182	816.072
73.607	24.154	1018.582	816.456
74.622	24.406	1018.447	817.429
75.636	24.507	1017.526	817.081
76.651	24.331	1016.620	815.478
77.666	24.242	1015.949	814.457
78.680	24.469	1015.096	814.741
79.695	24.455	1014.663	814.255
80.709	24.536	1013.990	814.011
81.724	24.588	1013.099	813.463
82.739	24.564	1012.989	813.192
83.753	24.856	1012.401	813.975
84.768	25.239	1011.322	814.777
85.782	25.318	1010.454	814.362
86.797	25.311	1008.996	813.087
87.812	25.148	1008.099	811.552
88.826	25.073	1007.450	810.622
89.841	25.253	1006.900	810.920
90.855	25.178	1006.033	809.810
91.870	25.232	1005.059	809.196
92.884	25.155	1003.442	807.476
93.899	25.017	1002.649	806.149
94.914	25.151	1002.283	806.386
95.928	25.011	1001.158	804.778
96.943	24.825	999.997	802.941
97.957	24.560	998.917	800.815
98.972	24.411	997.547	798.979
99.987	24.650	997.750	800.141
101.001	24.996	996.046	800.251
102.016	24.952	995.689	799.695
103.030	24.805	994.481	797.999
104.045	24.548	993.731	796.179
105.060	24.496	992.993	795.284
106.074	24.736	991.794	795.326
107.089	25.039	991.631	796.469
108.103	24.974	990.544	795.238
109.118	24.717	989.156	792.913
110.133	24.657	988.135	791.760
111.147	24.541	986.703	790.028
112.162	24.352	986.352	788.841
113.176	24.443	986.022	788.909
114.191	24.549	984.789	788.322
115.206	24.188	983.946	785.987
116.220	24.230	982.699	785.105
117.235	24.374	982.204	785.273
118.249	24.363	981.572	784.651
119.264	24.254	980.585	783.314
120.279	24.358	979.560	782.882
121.293	24.452	978.826	782.638
122.308	24.422	978.096	781.855
123.322	24.296	976.746	780.153
124.337	24.161	975.639	778.610
125.352	23.719	974.225	775.486
126.366	23.615	973.273	774.204
127.381	24.534	972.922	777.859
128.395	24.784	972.801	778.784
129.410	24.889	972.085	778.601
130.424	24.773	970.937	777.106
131.439	24.797	970.332	776.658
132.454	24.923	969.084	776.137
133.468	24.824	968.416	775.104
134.483	25.065	967.270	775.160
135.497	25.120	966.820	774.967
136.512	25.116	966.103	774.310
137.527	25.117	965.055	773.404
138.541	25.243	964.362	773.323
139.556	25.161	963.670	772.347
140.570	25.290	963.460	772.667
141.585	25.278	961.907	771.300
142.600	25.285	960.929	770.480
143.614	25.395	960.376	770.437
144.629	25.529	959.696	770.401
145.643	25.183	958.325	767.751
146.658	24.991	957.584	766.267
147.673	25.169	956.025	765.712
148.687	25.014	954.910	764.089
149.702	24.940	954.382	763.287
150.716	24.920	953.215	762.200
151.731	25.073	952.658	762.335
152.746	25.360	951.793	762.798
153.760	25.308	951.456	762.237
154.775	25.300	951.295	762.005
155.789	25.324	950.038	761.036
156.804	25.310	949.234	760.265
157.819	25.253	948.478	759.349
158.833	25.406	947.640	759.258
159.848	25.389	946.911	758.538
160.862	25.395	945.261	757.170
161.877	25.272	944.596	756.053
162.892	25.337	943.546	755.421
163.906	25.281	942.530	754.307
164.921	25.232	941.557	753.255
165.935	25.277	940.891	752.842
166.950	25.362	939.931	752.366
167.964	25.360	939.143	751.659
168.979	25.147	938.123	749.885
169.994	25.082	936.620	748.345
171.008	25.312	936.823	749.403
172.023	25.259	936.357	748.742
173.037	24.980	935.134	746.535
174.052	24.974	933.613	745.228
175.067	24.918	933.742	745.036
176.081	25.114	932.894	745.107
177.096	25.230	932.049	744.847
178.110	24.870	930.696	742.206
179.125	24.594	930.440	740.792
180.140	24.815	929.974	741.272
181.154	24.772	930.054	741.091
182.169	25.128	930.059	742.504
183.183	25.388	929.252	742.870
184.198	25.285	928.499	741.776
185.213	25.218	927.798	740.876
186.227	25.226	927.455	740.568
187.242	25.250	926.442	739.793
188.256	25.315	925.916	739.577
189.271	25.318	925.108	738.878
190.286	25.172	923.787	737.157
191.300	24.516	922.362	733.261
192.315	23.635	920.572	728.162
193.329	23.583	920.797	728.062
194.344	24.580	921.146	732.362
195.359	25.132	920.933	734.391
196.373	25.254	920.603	734.562
197.388	25.181	919.739	733.507
198.402	25.057	919.326	732.610
199.417	25.241	918.185	732.386
200.432	25.029	917.376	730.809
201.446	24.718	917.162	729.305
202.461	24.885	916.436	729.345
203.475	23.858	914.728	723.744
204.490	23.254	913.186	720.004
205.504	24.211	913.527	724.098
206.519	24.618	913.817	725.918
207.534	24.775	913.179	725.985
208.548	25.275	912.837	727.678
209.563	24.942	911.832	725.461
210.577	25.043	911.145	725.260
211.592	25.420	911.088	726.678
212.607	25.236	910.075	725.059
213.621	25.287	909.522	724.762
214.636	25.376	908.780	724.467
215.650	25.227	908.159	723.306
216.665	25.395	907.841	723.666
217.680	25.400	906.587	722.623
218.694	24.956	905.670	720.043
219.709	24.860	904.748	718.858
220.723	25.167	904.646	719.948
221.738	25.227	903.742	719.406
222.753	25.207	903.063	718.723
223.767	25.348	902.986	719.161
224.782	25.419	902.984	719.382
225.796	25.492	902.187	718.972
226.811	24.708	900.738	714.622
227.826	24.027	899.332	710.725
228.840	24.451	898.666	711.830
229.855	24.541	897.636	711.309
230.869	24.018	897.003	708.663
231.884	24.489	897.250	710.667
232.899	25.156	897.162	713.188
233.913	25.093	896.565	712.401
234.928	25.081	896.126	711.943
235.942	24.973	895.288	710.786
236.957	24.711	894.521	709.075
237.972	24.840	893.817	708.966
238.986	24.879	893.230	708.590
240.001	24.640	893.018	707.414
241.015	24.995	892.300	708.186
242.030	25.061	892.359	708.430
243.045	25.098	891.824	708.091
244.059	25.454	890.425	708.320
245.074	25.192	889.881	706.795
246.088	24.843	888.854	704.539
247.103	25.039	888.859	705.253
248.117	25.653	888.826	707.579
249.132	25.925	888.433	708.276
250.147	25.901	888.148	707.892
251.161	26.166	887.315	708.201
252.176	25.955	886.861	706.951
253.190	26.239	886.308	707.560
254.205	26.334	885.468	707.200
255.220	26.130	885.392	706.279
256.234	26.174	884.245	705.471
257.249	25.987	883.590	704.158
258.263	25.911	883.210	703.493
259.278	26.173	882.506	703.893
260.293	26.278	881.779	703.659
261.307	26.115	880.859	702.230
262.322	25.856	880.319	700.729
263.336	25.257	877.904	696.424
264.351	24.084	876.746	690.892
265.366	24.134	876.420	690.769
266.380	25.244	877.222	695.647
267.395	25.675	876.987	697.067
268.409	25.597	876.091	695.993
269.424	25.790	875.635	696.314
270.439	25.871	874.923	696.001
271.453	25.962	874.524	695.970
272.468	26.069	874.096	695.982
273.482	26.205	873.786	696.199
274.497	25.770	872.502	693.438
275.512	25.254	871.789	690.825
276.526	25.826	871.619	692.831
277.541	26.032	871.067	693.123
278.555	25.758	870.222	691.336
279.570	25.446	869.562	689.555
280.585	25.697	869.252	690.211
281.599	25.665	868.061	689.081
282.614	25.067	866.947	685.847
283.628	25.149	866.623	685.844
284.643	25.518	865.957	686.666
285.657	25.145	864.817	684.279
286.672	24.937	864.207	682.940
287.687	25.353	864.569	684.754
288.701	25.549	863.482	684.577
289.716	25.177	862.512	682.334
290.730	25.098	861.935	681.516
291.745	24.801	861.369	679.881
292.760	25.092	861.296	680.869
293.774	26.146	861.495	684.966
294.789	26.456	861.296	685.924
295.803	26.491	860.570	685.416
296.818	26.435	860.125	684.792
297.833	26.025	859.125	682.385
298.847	25.937	858.255	681.299
299.862	26.109	858.145	681.800
300.876	26.512	857.950	683.109
301.891	26.318	857.008	681.564
302.906	25.793	856.346	678.999
303.920	26.101	856.142	679.940
304.935	26.519	855.823	681.200
305.949	26.192	854.983	679.238
306.964	26.150	854.104	678.325
307.979	26.191	854.170	678.471
308.993	26.515	853.753	679.296
310.008	26.509	853.129	678.716
311.022	26.237	852.337	677.006
312.037	26.153	851.537	675.999
313.052	25.871	850.566	674.110
314.066	24.973	849.338	669.722
315.081	24.719	848.524	668.075
316.095	25.649	848.816	671.719
317.110	26.122	848.776	673.393
318.125	25.259	847.062	668.757
319.139	24.234	845.544	663.687
320.154	24.265	845.274	663.529
321.168	25.072	845.778	666.872
322.183	25.821	845.881	669.679
323.197	25.925	845.725	669.881
324.212	26.117	845.303	670.203
325.227	26.074	845.067	669.795
326.241	25.954	844.043	668.479
327.256	25.853	843.275	667.438
328.270	25.841	842.227	666.505
329.285	25.734	841.627	665.576
330.300	25.454	841.107	664.074
331.314	25.684	841.205	664.940
332.329	26.075	841.194	666.315
333.343	26.235	840.978	666.676
334.358	26.365	839.656	666.050
335.373	26.369	839.779	666.102
336.387	26.479	839.961	666.595
337.402	26.834	839.555	667.519
338.416	26.672	839.038	666.455
339.431	26.774	838.926	666.680
340.446	26.968	838.441	666.948
341.460	26.808	837.573	665.611
342.475	26.674	837.312	664.854
343.489	26.713	837.111	664.780
344.504	26.993	836.840	665.530
345.519	27.149	836.206	665.541
346.533	27.112	835.919	665.115
347.548	27.140	835.484	664.813
348.562	27.067	834.865	663.995
349.577	27.072	833.939	663.218
350.592	27.023	833.514	662.644
351.606	27.044	832.876	662.155
352.621	26.888	832.186	660.978
353.635	26.869	831.479	660.290
354.650	26.073	829.608	655.855
355.665	25.221	828.115	651.522
356.679	25.564	828.534	653.042
357.694	26.223	827.725	654.734
358.708	25.961	827.420	653.488
359.723	26.483	827.122	655.084
360.738	26.828	826.826	656.040
361.752	26.863	826.447	655.807
362.767	27.180	826.146	656.656
363.781	27.429	825.802	657.222
364.796	27.517	825.204	657.008
365.810	27.492	824.941	656.649
366.825	27.535	824.610	656.483
367.840	27.199	823.598	654.411
368.854	26.870	822.503	652.297
369.869	26.762	822.395	651.768
370.883	26.922	821.763	651.783
371.898	26.751	821.978	651.281
372.913	26.900	820.824	650.843
373.927	27.025	820.728	651.160
374.942	26.899	820.813	650.716
375.956	27.116	820.365	651.080
376.971	27.269	820.029	651.305
377.986	27.398	819.436	651.239
379.000	27.274	819.152	650.512
380.015	27.259	817.956	649.450
381.029	27.455	817.434	649.677
382.044	27.408	817.054	649.151
383.059	27.343	816.693	648.574
384.073	27.493	816.426	648.838
385.088	27.463	815.501	647.940
386.102	27.205	814.819	646.423
387.117	27.082	813.881	645.187
388.132	26.856	812.961	643.597
389.146	26.304	811.988	640.813
390.161	26.825	811.752	642.415
391.175	27.198	811.831	643.745
392.190	26.695	810.999	641.247
393.205	25.371	809.014	634.946
394.219	23.918	806.791	628.018
395.234	23.751	806.897	627.452
396.248	25.454	808.403	634.589
397.263	26.987	809.208	640.579
398.278	26.908	808.624	639.780
399.292	26.561	808.532	638.427
400.307	26.722	807.543	638.159
401.321	26.845	806.821	637.964
402.336	27.154	807.447	639.489
403.350	27.501	807.117	640.391
404.365	27.824	806.893	641.291
405.380	28.061	806.489	641.746
406.394	28.197	806.252	641.978
407.409	27.937	805.676	640.551
408.423	28.052	805.117	640.451
409.438	28.106	804.871	640.390
410.453	28.155	804.591	640.281
411.467	28.066	803.673	639.182
412.482	28.293	803.281	639.608
413.496	28.130	803.089	638.830
414.511	28.243	802.339	638.571
415.526	28.113	802.099	637.870
416.540	28.022	801.283	636.846
417.555	27.722	800.578	635.185
418.569	27.782	800.440	635.230
419.584	27.893	799.653	634.933
420.599	27.703	799.144	633.812
421.613	111.210	1286.990	1460.498
422.628	95.890	1358.061	1460.599
