DTS Sentinel unit serial number:	SN413079Multiplexer serial number:	ORYXHardware model number:	OX4-SRSoftware version number:	ORYX F/W v4.00 Oryx Data Collector v3.7.2.0data status	okinstallation	princeton_trtdifferential loss correction	single-endedforward channel	channel 1reverse channel	N/Adate	2019/09/11time	10:00:11forward acquisition time	60.00reverse acquisition time	0.00gamma	496.2192k internal	0.2301k external	0.2301temperature offset calibration	0.9952default loss term (dB/km)	0.3790temperature slope calibration	1.0000multiplexer offset coefficient	1.0000multiplexer slope coefficient	1.0000fibre end	0.00T internal ref (°C)	35.37T ext. ref 1 (°C)	0.13T ext. ref 2 (°C)	32.74length (m)	temperature (°C)	Stokes	anti-Stokes-747.200	-17.128	0.145	0.093
-746.185	0.764	-0.183	0.134
-745.171	-159.157	-0.146	0.008
-744.156	-122.213	0.209	-0.035
-743.142	-33.549	0.049	0.027
-742.127	-53.542	-0.170	-0.079
-741.112	-44.129	-0.232	0.119
-740.098	247.901	0.047	-0.081
-739.083	46.237	0.119	-0.113
-738.069	-48.221	0.040	-0.020
-737.054	253.016	0.042	-0.074
-736.039	-105.976	0.069	-0.016
-735.025	42.928	-0.189	0.175
-734.010	800.000	0.090	-0.299
-732.996	608.205	-0.076	-0.194
-731.981	-135.326	-0.414	0.051
-730.966	65.491	0.245	0.253
-729.952	-46.121	-0.102	0.051
-728.937	-105.728	0.187	-0.043
-727.923	-55.154	-0.190	0.087
-726.908	717.510	0.091	0.245
-725.894	-200.000	-0.001	0.252
-724.879	-93.723	-0.228	-0.064
-723.864	-97.336	0.248	-0.066
-722.850	-200.000	0.009	0.128
-721.835	-200.000	-0.034	-0.317
-720.821	109.013	-0.254	0.309
-719.806	-22.190	-0.187	-0.116
-718.791	-34.786	-0.161	-0.090
-717.777	800.000	-0.082	-0.308
-716.762	-200.000	0.056	-0.403
-715.748	-94.395	-0.286	-0.079
-714.733	-114.587	0.479	-0.094
-713.718	79.774	0.187	0.204
-712.704	-200.000	0.022	-0.125
-711.689	-8.935	-0.178	-0.121
-710.675	-200.000	-0.003	0.281
-709.660	-41.314	0.211	0.111
-708.645	-13.280	-0.170	-0.112
-707.631	1.899	-0.333	-0.245
-706.616	132.032	-0.076	-0.100
-705.602	18.994	0.042	-0.034
-704.587	-200.000	-0.044	-0.266
-703.572	-89.949	0.255	0.076
-702.558	-92.739	-0.144	0.041
-701.543	-6.339	-0.219	-0.152
-700.529	95.176	0.316	0.366
-699.514	-81.500	-0.027	0.009
-698.499	135.487	0.187	0.247
-697.485	800.000	-0.082	0.347
-696.470	-156.229	-0.210	-0.013
-695.456	800.000	0.125	-0.402
-694.441	-200.000	0.028	0.232
-693.426	18.218	-0.109	0.088
-692.412	-155.335	0.242	0.016
-691.397	-162.660	-0.159	-0.008
-690.383	426.374	0.138	0.302
-689.368	-200.000	0.035	0.167
-688.354	-81.316	0.233	-0.078
-687.339	-57.422	-0.296	0.132
-686.324	-42.662	0.233	0.121
-685.310	-137.158	0.258	0.030
-684.295	-22.550	0.233	0.144
-683.281	-200.000	-0.021	-0.100
-682.266	-102.465	0.297	-0.072
-681.251	123.447	0.080	-0.102
-680.237	800.000	0.029	-0.105
-679.222	-83.016	-0.098	0.032
-678.208	262.814	0.107	-0.188
-677.193	-97.507	-0.265	0.070
-676.178	-95.894	-0.027	-0.007
-675.164	-200.000	0.018	-0.401
-674.149	66.909	-0.178	-0.184
-673.135	-118.912	0.468	-0.083
-672.120	-200.000	0.050	0.225
-671.105	-118.622	0.379	-0.068
-670.091	52.344	-0.038	-0.036
-669.076	-200.000	0.017	0.141
-668.062	-200.000	0.024	-0.113
-667.047	80.157	-0.093	-0.101
-666.032	53.518	0.252	-0.246
-665.018	800.000	-0.062	-0.271
-664.003	-33.137	-0.068	0.039
-662.989	-55.134	0.100	-0.046
-661.974	800.000	-0.090	-0.361
-660.959	101.247	0.143	0.169
-659.945	244.517	-0.148	-0.253
-658.930	-82.538	0.167	-0.055
-657.916	-145.764	0.162	0.015
-656.901	-158.134	0.159	-0.009
-655.886	-2.579	0.263	0.187
-654.872	-77.281	-0.162	-0.057
-653.857	800.000	0.074	-0.316
-652.843	-40.819	0.091	-0.048
-651.828	-200.000	-0.072	-0.371
-650.814	-106.237	-0.063	0.014
-649.799	-200.000	-0.019	-0.109
-648.784	-200.000	0.016	0.115
-647.770	-200.000	-0.007	-0.062
-646.755	-200.000	-0.038	-0.396
-645.741	107.804	0.214	0.258
-644.726	-8.761	0.312	0.213
-643.711	105.471	-0.070	0.084
-642.697	65.011	-0.124	-0.127
-641.682	-200.000	0.009	0.058
-640.668	103.864	0.125	-0.149
-639.653	-37.319	0.302	-0.164
-638.638	-104.623	-0.345	-0.081
-637.624	476.458	-0.074	-0.169
-636.609	800.000	-0.042	-0.166
-635.595	60.858	-0.059	0.059
-634.580	-93.675	-0.133	0.037
-633.565	241.778	0.099	-0.168
-632.551	-200.000	-0.060	0.345
-631.536	-2.291	0.199	0.142
-630.522	800.000	0.045	0.130
-629.507	138.548	0.044	-0.059
-628.492	89.787	-0.160	-0.181
-627.478	-55.674	-0.114	0.052
-626.463	-200.000	0.014	-0.076
-625.449	-1.315	0.214	0.153
-624.434	800.000	-0.103	0.310
-623.419	-200.000	-0.002	0.182
-622.405	19.187	0.195	0.159
-621.390	800.000	-0.083	-0.317
-620.376	-8.993	-0.194	0.132
-619.361	-200.000	-0.022	0.313
-618.346	-131.212	0.335	-0.045
-617.332	392.665	0.075	-0.158
-616.317	68.152	-0.155	0.160
-615.303	124.663	-0.085	-0.109
-614.288	177.673	0.127	0.187
-613.273	-200.000	0.034	-0.240
-612.259	93.410	-0.139	-0.159
-611.244	-177.133	-0.231	-0.006
-610.230	-200.000	-0.007	-0.355
-609.215	-200.000	0.055	-0.297
-608.201	38.276	-0.096	-0.087
-607.186	-135.556	0.272	-0.033
-606.171	800.000	0.134	0.451
-605.157	237.229	0.128	0.215
-604.142	-66.837	0.223	-0.090
-603.128	143.093	-0.026	-0.035
-602.113	130.773	0.100	-0.130
-601.098	105.173	-0.181	-0.216
-600.084	-200.000	0.006	-0.047
-599.069	147.483	-0.087	-0.119
-598.055	100.637	-0.218	-0.257
-597.040	800.000	0.055	0.203
-596.025	-200.000	-0.015	-0.149
-595.011	-167.245	-0.396	-0.016
-593.996	-37.825	0.099	0.053
-592.982	24.914	-0.259	-0.217
-591.967	39.773	-0.096	-0.087
-590.952	-200.000	-0.018	-0.350
-589.938	-200.000	0.030	-0.223
-588.923	-200.000	-0.008	-0.242
-587.909	-161.958	0.161	-0.008
-586.894	109.098	-0.168	0.204
-585.879	800.000	-0.068	-0.192
-584.865	72.972	-0.047	-0.049
-583.850	-3.064	0.131	-0.093
-582.836	258.100	0.093	-0.162
-581.821	800.000	-0.034	0.134
-580.806	-89.442	-0.306	-0.091
-579.792	131.964	-0.145	0.189
-578.777	-55.776	0.147	0.066
-577.763	-200.000	-0.022	-0.250
-576.748	84.532	0.154	-0.171
-575.733	-36.517	-0.147	0.080
-574.719	196.875	-0.121	0.186
-573.704	800.000	-0.056	0.235
-572.690	-200.000	0.029	0.312
-571.675	541.045	-0.032	-0.078
-570.661	-200.000	0.009	0.098
-569.646	163.072	-0.121	0.171
-568.631	433.587	-0.119	-0.262
-567.617	312.205	-0.067	0.128
-566.602	800.000	-0.103	-0.294
-565.588	214.972	-0.203	-0.326
-564.573	-10.299	-0.061	-0.041
-563.558	-200.000	0.008	-0.189
-562.544	-65.054	-0.130	-0.053
-561.529	160.774	-0.162	0.229
-560.515	165.032	0.110	-0.157
-559.500	800.000	0.043	-0.139
-558.485	800.000	-0.045	-0.173
-557.471	158.404	0.180	-0.253
-556.456	62.175	0.177	-0.179
-555.442	224.210	-0.201	0.329
-554.427	341.305	-0.255	0.503
-553.412	-67.752	0.167	0.066
-552.398	-200.000	-0.074	0.529
-551.383	-159.303	-0.278	0.016
-550.369	422.520	0.228	-0.495
-549.354	176.777	-0.278	-0.409
-548.339	-200.000	-0.011	0.217
-547.325	-31.745	0.261	-0.148
-546.310	123.663	-0.146	-0.185
-545.296	4.243	-0.018	0.014
-544.281	800.000	0.040	-0.116
-543.266	-119.860	-0.045	-0.008
-542.252	800.000	0.078	0.227
-541.237	45.675	0.137	0.128
-540.223	25.031	-0.261	-0.219
-539.208	48.565	0.266	-0.252
-538.193	-200.000	-0.019	-0.242
-537.179	39.916	-0.267	-0.243
-536.164	-200.000	0.024	-0.167
-535.150	-16.020	-0.025	-0.016
-534.135	-57.719	0.101	-0.045
-533.121	-131.763	-0.354	-0.047
-532.106	-200.000	-0.005	0.135
-531.091	-81.896	-0.262	-0.087
-530.077	800.000	-0.029	-0.100
-529.062	-163.046	0.218	-0.011
-528.048	-200.000	0.031	-0.210
-527.033	41.807	0.275	0.252
-526.018	-60.927	-0.135	-0.058
-525.004	-200.000	-0.014	0.481
-523.989	317.770	0.209	0.399
-522.975	-117.517	0.237	0.043
-521.960	-200.000	0.008	-0.332
-520.945	-103.059	0.295	-0.071
-519.931	138.843	0.113	0.150
-518.916	800.000	-0.068	0.295
-517.902	-48.376	-0.317	-0.154
-516.887	-153.365	0.293	-0.021
-515.872	-171.727	-0.448	-0.015
-514.858	50.073	0.285	0.272
-513.843	-0.493	-0.026	0.019
-512.829	11.028	-0.088	0.068
-511.814	-163.897	-0.152	-0.007
-510.799	800.000	0.018	0.078
-509.785	-75.799	0.160	0.057
-508.770	-71.758	0.219	0.082
-507.756	-200.000	-0.023	0.123
-506.741	-189.159	-0.424	0.005
-505.726	800.000	-0.059	-0.176
-504.712	-114.668	-0.533	0.103
-503.697	800.000	0.063	-0.189
-502.683	-200.000	-0.027	0.369
-501.668	48.131	-0.167	-0.158
-500.653	368.447	0.176	-0.360
-499.639	81.553	-0.143	0.156
-498.624	-200.000	-0.130	0.616
-497.610	218.962	0.114	0.184
-496.595	773.663	-0.028	-0.077
-495.581	800.000	0.040	0.155
-494.566	230.312	-0.126	0.209
-493.551	135.295	0.109	0.143
-492.537	-31.404	-0.351	-0.199
-491.522	2.370	-0.117	0.086
-490.508	289.800	-0.038	0.070
-489.493	348.635	-0.071	0.141
-488.478	-144.117	-0.238	-0.023
-487.464	800.000	-0.018	-0.067
-486.449	360.270	-0.155	-0.312
-485.435	12.884	-0.099	-0.077
-484.420	-38.781	0.338	-0.180
-483.405	-35.902	0.310	0.169
-482.391	268.193	0.031	-0.055
-481.376	-108.733	-0.144	-0.031
-480.362	-200.000	-0.011	0.062
-479.347	322.063	0.133	0.256
-478.332	-200.000	0.004	-0.451
-477.318	-75.355	0.209	-0.075
-476.303	667.638	0.041	0.106
-475.289	-164.866	-0.061	0.003
-474.274	596.787	-0.115	-0.287
-473.259	-200.000	0.012	-0.160
-472.245	81.641	-0.026	-0.029
-471.230	-88.388	-0.074	-0.022
-470.216	128.325	0.344	0.441
-469.201	-200.000	0.022	0.119
-468.186	-200.000	-0.042	0.206
-467.172	92.754	-0.111	0.127
-466.157	504.149	0.114	-0.266
-465.143	133.758	-0.238	-0.310
-464.128	-200.000	0.038	-0.386
-463.113	800.000	-0.066	-0.264
-462.099	338.697	-0.041	-0.080
-461.084	-5.570	-0.251	0.174
-460.070	-170.261	-0.227	0.008
-459.055	71.476	0.109	-0.114
-458.040	8.001	-0.172	-0.130
-457.026	52.212	-0.165	0.159
-456.011	-98.476	0.327	0.084
-454.997	800.000	-0.064	0.240
-453.982	37.399	0.158	0.141
-452.968	-200.000	-0.079	-0.431
-451.953	-55.171	0.163	-0.074
-450.938	-58.387	0.194	0.085
-449.924	800.000	0.073	-0.210
-448.909	26.129	-0.301	-0.253
-447.895	15.814	0.109	-0.086
-446.880	-140.617	0.178	-0.019
-445.865	-200.000	-0.022	0.135
-444.851	-200.000	0.081	-0.467
-443.836	-200.000	-0.072	0.424
-442.822	4.643	-0.207	0.153
-441.807	-65.729	0.319	-0.129
-440.792	361.574	-0.178	0.360
-439.778	-75.028	-0.204	-0.074
-438.763	197.663	-0.166	-0.255
-437.749	705.498	0.092	0.245
-436.734	-84.563	0.282	0.089
-435.719	222.113	0.022	-0.035
-434.705	528.570	-0.105	-0.249
-433.690	-142.688	-0.082	-0.008
-432.676	529.354	-0.110	0.260
-431.661	128.511	-0.111	-0.142
-430.646	88.746	0.268	0.300
-429.632	800.000	0.014	-0.058
-428.617	-200.000	0.037	0.316
-427.603	50.252	-0.033	0.032
-426.588	-77.784	0.163	-0.057
-425.573	17.840	0.156	-0.125
-424.559	-42.741	0.402	-0.206
-423.544	247.056	0.047	0.080
-422.530	-51.221	0.103	0.049
-421.515	800.000	-0.072	-0.202
-420.500	800.000	0.088	-0.282
-419.486	134.928	0.102	-0.133
-418.471	458.130	-0.130	0.292
-417.457	-200.000	-0.002	-0.041
-416.442	-35.343	0.161	0.088
-415.428	-76.721	-0.559	-0.197
-414.413	-200.000	0.016	-0.172
-413.398	14.005	0.252	0.197
-412.384	-107.579	-0.264	0.058
-411.369	-186.485	-0.066	0.001
-410.355	-200.000	-0.062	-0.279
-409.340	-143.760	-0.331	0.032
-408.325	82.678	0.028	0.031
-407.311	-200.000	0.089	0.405
-406.296	-200.000	0.022	0.245
-405.282	-176.242	-0.161	-0.004
-404.267	613.194	-0.010	0.024
-403.252	800.000	-0.039	-0.150
-402.238	122.669	0.061	-0.077
-401.223	800.000	0.085	0.249
-400.209	-63.639	-0.049	-0.020
-399.194	-117.759	-0.322	-0.058
-398.179	59.350	0.123	-0.122
-397.165	-75.596	-0.053	0.019
-396.150	273.070	0.181	-0.321
-395.136	800.000	0.117	-0.352
-394.121	10.597	-0.248	-0.190
-393.106	-134.587	0.180	-0.022
-392.092	-200.000	0.051	0.247
-391.077	-200.000	0.029	-0.230
-390.063	180.991	0.090	0.133
-389.048	97.231	0.147	0.170
-388.033	73.475	0.211	0.222
-387.019	165.015	-0.117	-0.165
-386.004	17.816	0.073	-0.058
-384.990	247.105	0.208	0.353
-383.975	9.661	-0.062	0.047
-382.960	-200.000	0.006	-0.196
-381.946	-43.705	0.267	0.135
-380.931	261.640	0.034	0.059
-379.917	-94.005	-0.364	-0.100
-378.902	-66.062	0.146	-0.059
-377.888	-193.737	0.267	-0.002
-376.873	171.747	-0.234	0.338
-375.858	272.447	0.105	-0.186
-374.844	395.186	-0.104	-0.218
-373.829	-40.532	-0.195	0.101
-372.815	310.447	0.115	0.216
-371.800	-129.747	-0.169	0.023
-370.785	22.624	-0.029	-0.024
-369.771	-41.407	0.480	0.248
-368.756	800.000	0.069	0.225
-367.742	273.212	0.044	-0.078
-366.727	800.000	-0.059	0.178
-365.712	108.764	-0.046	0.055
-364.698	800.000	-0.068	0.223
-363.683	249.042	0.142	0.242
-362.669	-99.295	-0.376	-0.095
-361.654	-200.000	-0.000	-0.007
-360.639	-94.235	0.154	0.042
-359.625	-21.037	-0.204	-0.125
-358.610	-79.669	0.412	-0.139
-357.596	116.220	-0.193	-0.237
-356.581	374.598	-0.109	-0.222
-355.566	-200.000	-0.054	0.281
-354.552	-141.571	-0.411	0.042
-353.537	-149.611	0.172	0.014
-352.523	-103.066	-0.307	-0.073
-351.508	-200.000	0.020	-0.094
-350.493	-13.896	-0.068	0.044
-349.479	157.070	0.161	0.223
-348.464	-45.742	-0.337	0.167
-347.450	-200.000	-0.052	-0.373
-346.435	16.264	0.192	-0.152
-345.420	800.000	-0.014	-0.048
-344.406	160.322	-0.194	-0.271
-343.391	-74.730	0.221	-0.080
-342.377	140.046	0.100	-0.132
-341.362	64.039	-0.117	-0.118
-340.348	-96.046	0.396	-0.106
-339.333	108.157	0.201	0.241
-338.318	-105.955	0.118	0.027
-337.304	24.431	-0.212	0.176
-336.289	-119.427	0.275	-0.048
-335.275	-140.915	0.249	-0.026
-334.260	-200.000	-0.017	0.099
-333.245	-18.286	-0.231	-0.145
-332.231	-13.520	0.450	-0.292
-331.216	800.000	0.085	0.275
-330.202	-109.092	-0.370	-0.079
-329.187	-110.822	-0.087	-0.018
-328.172	-23.441	0.148	0.089
-327.158	800.000	0.038	0.154
-326.143	-200.000	-0.012	0.214
-325.129	-181.746	-0.064	-0.001
-324.114	-172.984	-0.080	-0.002
-323.099	-64.046	-0.089	0.036
-322.085	-21.887	-0.257	0.156
-321.070	122.841	-0.189	-0.237
-320.056	-70.186	-0.159	0.061
-319.041	-200.000	-0.036	0.195
-318.026	16.978	-0.239	0.190
-317.012	-113.965	-0.257	0.050
-315.997	225.608	0.011	0.017
-314.983	-111.796	0.166	-0.034
-313.968	306.488	0.139	-0.259
-312.953	158.790	0.225	0.313
-311.939	607.038	-0.083	0.207
-310.924	800.000	0.029	-0.098
-309.910	-29.689	-0.176	-0.101
-308.895	89.094	0.250	0.279
-307.880	-98.133	0.281	-0.073
-306.866	682.525	0.147	0.383
-305.851	-6.157	-0.184	0.126
-304.837	32.452	0.113	-0.098
-303.822	-200.000	-0.087	-0.664
-302.807	800.000	0.069	-0.205
-301.793	-53.302	0.312	0.144
-300.778	12.397	-0.086	-0.066
-299.764	800.000	-0.050	0.160
-298.749	215.187	-0.031	0.050
-297.735	-135.038	0.126	-0.015
-296.720	-200.000	0.025	0.245
-295.705	-53.415	0.207	0.095
-294.691	-155.348	0.154	0.010
-293.676	-98.297	-0.188	-0.048
-292.662	68.487	0.118	-0.121
-291.647	42.778	0.452	-0.412
-290.632	-41.668	-0.385	-0.198
-289.618	-200.000	-0.035	0.375
-288.603	-200.000	0.021	0.131
-287.589	-14.032	0.050	-0.032
-286.574	-111.253	-0.116	0.024
-285.559	-162.952	0.301	-0.015
-284.545	-178.690	-0.269	0.006
-283.530	21.582	0.265	-0.216
-282.516	-200.000	-0.007	-0.068
-281.501	-72.707	-0.481	-0.178
-280.486	349.932	-0.177	0.351
-279.472	58.610	0.096	-0.094
-278.457	-200.000	0.001	-0.269
-277.443	-200.000	0.019	0.190
-276.428	-15.199	-0.197	-0.126
-275.413	-74.598	0.239	-0.086
-274.399	1.115	0.281	0.202
-273.384	215.486	0.099	-0.158
-272.370	-172.668	0.093	0.003
-271.355	-138.632	-0.063	-0.007
-270.340	12.224	0.201	0.155
-269.326	-13.248	0.237	0.154
-268.311	55.854	0.196	0.190
-267.297	-200.000	-0.015	0.154
-266.282	226.931	0.118	0.192
-265.267	-159.379	0.311	0.017
-264.253	151.882	-0.133	-0.181
-263.238	-120.392	0.216	-0.037
-262.224	121.191	0.170	0.211
-261.209	-115.318	-0.038	-0.007
-260.195	-5.028	0.063	0.043
-259.180	800.000	0.067	0.189
-258.165	800.000	0.047	-0.186
-257.151	800.000	0.067	0.188
-256.136	33.716	0.150	-0.130
-255.122	109.525	-0.210	0.252
-254.107	-80.608	0.129	0.043
-253.092	-109.906	0.121	-0.025
-252.078	-73.171	-0.081	-0.030
-251.063	-173.267	0.076	-0.002
-250.049	52.345	0.204	0.194
-249.034	-200.000	0.004	-0.321
-248.019	-161.032	0.220	0.012
-247.005	-76.956	-0.198	-0.069
-245.990	-31.530	0.332	-0.187
-244.976	-200.000	0.006	0.162
-243.961	-75.304	0.198	0.070
-242.946	800.000	-0.060	-0.261
-241.932	800.000	0.074	-0.279
-240.917	-57.248	0.115	0.050
-239.903	800.000	0.168	-0.662
-238.888	-110.824	0.066	0.014
-237.873	-47.330	-0.117	-0.057
-236.859	116.618	0.200	0.245
-235.844	161.107	0.049	0.069
-234.830	29.944	-0.080	0.068
-233.815	97.642	-0.171	0.196
-232.800	-200.000	-0.023	0.234
-231.786	-22.630	-0.183	-0.111
-230.771	227.192	0.178	0.289
-229.757	281.226	0.126	0.225
-228.742	351.796	-0.176	0.349
-227.727	800.000	-0.093	0.262
-226.713	-200.000	-0.001	0.095
-225.698	-43.023	0.164	-0.083
-224.684	-140.113	0.203	-0.021
-223.669	-200.000	0.038	-0.212
-222.655	-101.384	-0.232	0.057
-221.640	200.184	0.104	0.159
-220.625	-47.712	0.104	0.050
-219.611	-132.640	-0.224	-0.029
-218.596	723.877	-0.117	0.312
-217.582	-102.939	-0.225	0.053
-216.567	-200.000	0.019	-0.320
-215.552	-12.300	-0.090	-0.059
-214.538	-17.478	0.256	-0.161
-213.523	-68.021	0.052	0.020
-212.509	-200.000	0.033	0.278
-211.494	800.000	-0.104	0.441
-210.479	-75.502	-0.186	-0.066
-209.465	313.749	-0.089	0.167
-208.450	36.942	-0.206	0.182
-207.436	-200.000	-0.031	0.364
-206.421	-131.017	0.188	-0.025
-205.406	84.662	0.192	-0.210
-204.392	376.102	-0.138	-0.281
-203.377	-200.000	0.002	0.014
-202.363	24.981	0.207	-0.171
-201.348	-39.019	0.349	0.183
-200.333	800.000	-0.047	-0.152
-199.319	67.950	0.117	-0.119
-198.304	800.000	0.030	0.095
-197.290	-157.390	0.211	0.013
-196.275	306.829	-0.039	-0.072
-195.260	52.131	-0.206	0.196
-194.246	-200.000	-0.106	0.538
-193.231	-200.000	0.008	0.113
-192.217	-109.716	-0.308	0.065
-191.202	9.426	-0.236	0.178
-190.187	285.589	-0.125	0.225
-189.173	-200.000	-0.004	0.071
-188.158	800.000	0.023	-0.074
-187.144	-200.000	-0.066	-0.352
-186.129	-200.000	0.039	0.208
-185.114	-102.008	-0.054	-0.013
-184.100	-15.239	0.130	0.083
-183.085	53.451	-0.191	0.183
-182.071	-167.244	0.252	0.010
-181.056	-63.968	-0.313	-0.128
-180.042	128.205	0.065	-0.083
-179.027	800.000	0.045	0.191
-178.012	619.338	-0.130	-0.325
-176.998	-15.324	-0.290	0.185
-175.983	-200.000	0.025	0.175
-174.969	145.013	-0.112	-0.150
-173.954	171.074	-0.157	0.224
-172.939	-200.000	-0.029	-0.309
-171.925	-14.820	0.227	-0.145
-170.910	-60.694	0.189	-0.080
-169.896	-188.099	0.077	-0.001
-168.881	800.000	-0.077	0.234
-167.866	778.665	0.087	-0.237
-166.852	-16.166	-0.166	-0.105
-165.837	-32.213	-0.181	0.101
-164.823	-157.573	0.037	0.002
-163.808	18.396	-0.144	-0.115
-162.793	-121.145	-0.128	-0.021
-161.779	-88.146	0.025	0.007
-160.764	-63.802	0.313	0.128
-159.750	-105.992	0.120	0.027
-158.735	-112.547	0.053	-0.011
-157.720	220.289	-0.110	-0.175
-156.706	-200.000	-0.015	-0.358
-155.691	194.335	-0.031	-0.047
-154.677	-0.702	-0.151	0.107
-153.662	-200.000	-0.009	-0.256
-152.647	-163.560	0.178	0.008
-151.633	800.000	-0.058	-0.233
-150.618	-46.405	0.331	-0.162
-149.604	328.470	0.049	0.094
-148.589	34.550	0.156	0.135
-147.574	-200.000	0.011	0.125
-146.560	-89.560	-0.083	-0.024
-145.545	-48.939	-0.172	-0.082
-144.531	-200.000	-0.101	-0.480
-143.516	800.000	0.094	0.365
-142.502	-134.401	0.231	0.028
-141.487	-15.483	-0.088	0.056
-140.472	800.000	-0.026	-0.098
-139.458	138.919	-0.147	0.192
-138.443	147.511	0.072	-0.097
-137.429	-200.000	-0.005	0.212
-136.414	-200.000	0.042	0.196
-135.399	800.000	0.070	-0.304
-134.385	137.033	-0.030	0.040
-133.370	-200.000	-0.003	-0.147
-132.356	136.378	-0.106	-0.137
-131.341	-49.968	-0.304	0.143
-130.326	-200.000	0.055	0.325
-129.312	-178.654	0.238	-0.005
-128.297	800.000	0.042	-0.151
-127.283	-96.168	-0.147	0.039
-126.268	-158.859	-0.363	0.021
-125.253	204.950	0.205	-0.317
-124.239	623.634	-0.036	0.091
-123.224	-107.863	-0.301	-0.065
-122.210	54.163	0.199	0.190
-121.195	576.881	-0.078	-0.191
-120.180	-111.424	0.095	-0.019
-119.166	-71.212	0.253	-0.095
-118.151	204.121	0.062	0.096
-117.137	-65.497	-0.263	-0.105
-116.122	55.728	-0.240	0.231
-115.107	244.573	0.162	0.271
-114.093	-118.997	0.302	-0.053
-113.078	41.828	0.096	0.086
-112.064	-33.537	0.297	-0.163
-111.049	232.359	-0.110	0.180
-110.034	183.872	0.102	0.150
-109.020	-79.096	-0.317	-0.107
-108.005	-25.946	-0.181	0.106
-106.991	-148.689	0.120	0.010
-105.976	-126.819	0.418	0.061
-104.962	-181.258	-0.161	0.003
-103.947	56.545	-0.039	-0.038
-102.932	800.000	-0.051	-0.145
-101.918	-200.000	-0.004	-0.129
-100.903	-200.000	-0.074	-0.330
-99.889	84.656	-0.098	-0.107
-98.874	-137.685	-0.404	0.045
-97.859	106.373	-0.115	-0.136
-96.845	800.000	0.009	-0.038
-95.830	54.099	0.174	-0.166
-94.816	800.000	0.090	0.302
-93.801	121.115	0.119	0.148
-92.786	35.142	0.318	-0.277
-91.772	81.318	-0.097	-0.104
-90.757	-157.073	0.138	0.008
-89.743	12.475	-0.044	-0.034
-88.728	596.362	-0.109	-0.269
-87.713	631.363	-0.028	-0.070
-86.699	192.494	0.252	0.378
-85.684	73.219	0.144	0.149
-84.670	69.508	0.121	0.124
-83.655	205.759	-0.121	0.187
-82.640	-102.989	-0.408	-0.096
-81.626	263.496	0.129	0.223
-80.611	-108.292	0.213	-0.046
-79.597	-50.115	-0.174	-0.082
-78.582	81.169	0.022	0.024
-77.567	64.207	0.132	0.132
-76.553	-18.875	-0.330	0.204
-75.538	-200.000	0.030	-0.177
-74.524	3.917	-0.220	-0.159
-73.509	125.308	0.247	0.310
-72.494	-182.693	-0.129	-0.002
-71.480	22.524	-0.162	-0.131
-70.465	-150.573	0.408	-0.031
-69.451	71.355	0.227	-0.234
-68.436	-200.000	0.028	-0.500
-67.422	-34.292	-0.236	-0.129
-66.407	-200.000	0.027	0.265
-65.392	-174.550	0.462	-0.013
-64.378	800.000	0.042	-0.118
-63.363	-200.000	-0.012	0.251
-62.349	583.427	0.106	0.258
-61.334	134.630	-0.671	-0.864
-60.319	321.291	0.192	0.362
-59.305	800.000	-0.253	-0.725
-58.290	429.493	0.459	0.985
-57.276	800.000	0.539	1.486
-56.261	-200.000	90.688	505.989
-55.246	552.381	1365.976	3255.791
-54.232	184.640	2608.547	3836.140
-53.217	115.994	2213.509	2688.548
-52.203	46.372	1661.472	1528.424
-51.188	38.656	1392.378	1232.537
-50.173	35.505	1348.406	1174.329
-49.159	54.707	1395.131	1334.935
-48.144	58.857	1413.471	1378.261
-47.130	39.137	1369.600	1215.156
-46.115	35.510	1351.791	1177.123
-45.100	35.204	1347.255	1171.257
-44.086	35.306	1344.108	1169.096
-43.071	35.092	1341.900	1165.824
-42.057	35.192	1340.037	1164.772
-41.042	35.209	1337.896	1162.965
-40.027	35.229	1336.526	1161.847
-39.013	35.306	1333.921	1160.006
-37.998	35.194	1332.737	1158.252
-36.984	35.369	1330.552	1157.361
-35.969	35.384	1328.746	1155.839
-34.954	35.437	1326.839	1154.449
-33.940	35.401	1325.636	1153.141
-32.925	35.496	1324.460	1152.646
-31.911	35.447	1322.887	1150.936
-30.896	35.468	1321.769	1150.042
-29.881	35.493	1319.916	1148.536
-28.867	35.425	1318.583	1146.925
-27.852	35.536	1316.851	1146.031
-26.838	35.501	1315.414	1144.526
-25.823	35.488	1314.211	1143.362
-24.809	35.483	1312.919	1142.159
-23.794	35.395	1311.643	1140.481
-22.779	35.503	1309.707	1139.396
-21.765	35.495	1308.390	1138.156
-20.750	35.419	1307.146	1136.580
-19.736	35.458	1305.377	1135.226
-18.721	35.283	1304.859	1133.696
-17.706	35.323	1303.351	1132.579
-16.692	35.359	1301.719	1131.326
-15.677	35.412	1300.842	1130.828
-14.663	35.298	1299.715	1129.137
-13.648	35.347	1298.261	1128.114
-12.633	35.353	1297.458	1127.407
-11.619	35.242	1296.738	1126.084
-10.604	35.337	1296.072	1126.018
-9.590	35.250	1295.166	1124.678
-8.575	35.323	1293.906	1123.965
-7.560	35.259	1293.294	1123.013
-6.546	35.266	1292.226	1122.084
-5.531	35.246	1291.136	1120.974
-4.517	35.260	1290.868	1120.781
-3.502	35.226	1289.717	1119.541
-2.487	35.328	1288.599	1119.122
-1.473	35.381	1284.458	1115.790
-0.458	34.407	1269.775	1097.385
0.556	29.496	1252.203	1060.902
1.571	26.213	1257.027	1045.918
2.586	25.514	1272.531	1054.626
3.600	24.316	1260.843	1037.879
4.615	16.915	1182.505	932.751
5.629	5.425	1100.537	808.883
6.644	0.476	1077.821	767.001
7.659	0.051	1075.777	763.322
8.673	-0.007	1073.686	761.480
9.688	0.011	1072.494	760.659
10.702	0.422	1071.399	761.888
11.717	7.582	1081.866	805.690
12.731	17.659	1097.225	868.666
13.746	21.747	1101.856	893.130
14.761	22.077	1101.801	894.688
15.775	22.012	1100.956	893.590
16.790	21.837	1100.045	891.886
17.804	21.686	1099.717	890.770
18.819	21.850	1099.459	891.316
19.834	21.876	1098.798	890.835
20.848	21.924	1098.203	890.518
21.863	21.892	1098.206	890.280
22.877	21.739	1097.547	888.890
23.892	21.749	1096.578	888.075
24.907	21.827	1095.930	887.870
25.921	21.867	1094.426	886.775
26.936	21.901	1092.741	885.502
27.950	21.924	1091.136	884.237
28.965	21.746	1089.480	881.920
29.980	21.713	1088.447	880.842
30.994	21.927	1087.174	880.809
32.009	21.976	1085.613	879.713
33.023	21.696	1084.700	877.491
34.038	21.723	1084.498	877.386
35.053	21.880	1083.481	877.268
36.067	22.016	1082.444	877.033
37.082	22.002	1081.581	876.184
38.096	22.105	1081.020	876.169
39.111	22.235	1079.964	875.883
40.126	22.009	1078.907	873.825
41.140	21.586	1076.295	869.527
42.155	21.490	1075.277	868.152
43.169	21.556	1074.393	867.691
44.184	21.541	1073.268	866.631
45.199	21.441	1072.634	865.545
46.213	21.616	1070.874	864.916
47.228	21.697	1070.470	864.911
48.242	21.753	1069.444	864.281
49.257	21.775	1069.299	864.196
50.271	21.819	1068.736	863.882
51.286	22.051	1066.957	863.507
52.301	22.058	1066.327	862.959
53.315	21.898	1065.624	861.528
54.330	21.847	1064.363	860.182
55.344	21.983	1063.464	860.046
56.359	21.657	1063.212	858.167
57.374	21.629	1061.947	856.931
58.388	21.628	1061.446	856.448
59.403	21.591	1060.284	855.254
60.417	21.477	1059.285	853.816
61.432	21.492	1058.658	853.309
62.447	21.689	1058.119	853.759
63.461	21.730	1056.753	852.779
64.476	21.582	1056.600	851.862
65.490	21.519	1055.307	850.438
66.505	21.658	1054.540	850.420
67.520	21.640	1053.717	849.591
68.534	21.412	1052.914	847.763
69.549	21.156	1051.864	845.606
70.563	21.143	1051.182	844.920
71.578	21.051	1050.398	843.770
72.593	21.111	1048.857	842.747
73.607	21.124	1048.714	842.620
74.622	21.619	1047.917	844.293
75.636	21.483	1047.642	843.340
76.651	21.350	1046.610	841.793
77.666	21.255	1045.650	840.491
78.680	21.309	1045.343	840.429
79.695	21.390	1044.602	840.147
80.709	21.574	1043.974	840.450
81.724	21.396	1043.052	838.784
82.739	21.534	1042.652	839.047
83.753	21.927	1041.611	840.016
84.768	22.052	1040.855	839.932
85.782	22.216	1040.037	839.979
86.797	22.114	1039.031	838.607
87.812	22.057	1037.955	837.393
88.826	22.201	1036.903	837.156
89.841	22.153	1036.126	836.228
90.855	22.134	1035.466	835.529
91.870	22.076	1034.515	834.414
92.884	21.928	1033.168	832.547
93.899	21.964	1031.868	831.601
94.914	22.116	1031.309	831.792
95.928	22.009	1030.061	830.208
96.943	21.634	1028.890	827.420
97.957	21.597	1027.385	825.964
98.972	21.402	1026.090	823.927
99.987	21.743	1025.539	825.021
101.001	21.849	1025.196	825.170
102.016	21.723	1024.515	823.955
103.030	21.867	1022.994	823.333
104.045	21.696	1022.034	821.687
105.060	21.394	1021.689	819.921
106.074	21.605	1020.899	820.205
107.089	21.949	1020.507	821.426
108.103	21.993	1018.806	820.189
109.118	21.728	1017.532	817.856
110.133	21.668	1016.557	816.719
111.147	21.485	1015.044	814.580
112.162	21.260	1014.731	813.207
113.176	21.674	1013.619	814.171
114.191	21.581	1013.158	813.297
115.206	21.270	1011.537	810.481
116.220	21.225	1010.785	809.596
117.235	21.337	1010.206	809.580
118.249	21.428	1008.634	808.671
119.264	21.263	1008.291	807.559
120.279	21.257	1007.524	806.848
121.293	21.254	1006.789	806.176
122.308	21.462	1005.708	806.197
123.322	21.380	1004.536	804.809
124.337	21.217	1002.802	802.596
125.352	20.755	1001.261	799.172
126.366	20.635	1000.515	797.958
127.381	21.343	1000.200	800.878
128.395	21.798	999.787	802.565
129.410	21.814	998.776	801.752
130.424	21.790	997.814	800.801
131.439	21.750	997.079	799.958
132.454	21.796	995.938	799.178
133.468	21.790	994.820	798.184
134.483	21.905	994.535	798.408
135.497	22.142	993.561	798.632
136.512	22.162	992.358	797.689
137.527	22.169	991.542	796.994
138.541	22.061	991.365	796.289
139.556	22.178	990.019	795.667
140.570	22.245	989.396	795.399
141.585	22.108	988.520	794.009
142.600	22.106	987.291	792.939
143.614	22.280	986.597	793.095
144.629	22.362	985.784	792.744
145.643	22.275	984.483	791.235
146.658	22.113	983.344	789.521
147.673	22.056	982.138	788.226
148.687	21.901	981.104	786.634
149.702	21.787	980.196	785.326
150.716	21.812	979.298	784.650
151.731	22.065	978.521	785.087
152.746	22.133	977.956	784.866
153.760	22.291	977.238	784.925
154.775	22.366	976.593	784.675
155.789	22.194	976.218	783.536
156.804	22.099	974.927	782.008
157.819	22.320	974.132	782.285
158.833	22.405	973.311	781.933
159.848	22.404	972.251	781.010
160.862	22.249	970.954	779.213
161.877	22.317	970.306	778.922
162.892	22.322	969.423	778.167
163.906	22.216	968.304	776.731
164.921	22.270	967.309	776.103
165.935	22.278	966.180	775.164
166.950	22.240	965.377	774.285
167.964	22.142	964.608	773.168
168.979	22.157	963.376	772.176
169.994	21.863	962.934	770.465
171.008	22.286	962.133	771.610
172.023	22.415	960.882	771.103
173.037	22.121	959.882	768.948
174.052	22.023	958.818	767.598
175.067	22.077	958.118	767.206
176.081	22.128	958.172	767.403
177.096	21.968	957.195	765.856
178.110	21.794	955.969	764.050
179.125	21.499	955.423	762.258
180.140	21.636	954.868	762.347
181.154	21.709	954.783	762.529
182.169	22.069	954.379	763.705
183.183	22.212	954.309	764.201
184.198	22.080	953.216	762.688
185.213	22.143	952.225	762.097
186.227	22.290	951.547	762.126
187.242	22.226	950.948	761.302
188.256	22.227	950.569	760.933
189.271	22.307	949.494	760.353
190.286	22.076	948.306	758.335
191.300	21.375	946.957	754.168
192.315	20.672	945.324	749.772
193.329	20.610	944.962	749.153
194.344	21.436	945.502	753.074
195.359	22.017	945.474	755.483
196.373	22.068	944.870	755.155
197.388	22.038	944.132	754.369
198.402	21.948	943.648	753.528
199.417	22.151	942.588	753.484
200.432	21.860	941.739	751.493
201.446	21.599	940.980	749.705
202.461	21.698	939.990	749.271
203.475	20.712	938.301	743.648
204.490	20.096	937.229	740.103
205.504	21.046	937.189	744.061
206.519	21.807	936.716	746.864
207.534	21.723	936.685	746.414
208.548	22.196	936.584	748.281
209.563	22.017	935.386	746.498
210.577	21.857	935.210	745.611
211.592	22.384	934.612	747.308
212.607	22.324	933.412	746.027
213.621	22.345	932.688	745.472
214.636	22.267	932.208	744.691
215.650	22.225	931.293	743.716
216.665	22.274	931.044	743.659
217.680	22.298	929.794	742.696
218.694	21.799	928.706	739.657
219.709	21.721	928.076	738.758
220.723	21.971	927.730	739.471
221.738	22.007	927.313	739.224
222.753	22.014	926.631	738.647
223.767	22.192	926.223	739.004
224.782	22.513	925.743	739.904
225.796	22.438	924.894	738.843
226.811	21.666	923.532	734.456
227.826	20.930	922.488	730.477
228.840	21.307	922.017	731.618
229.855	21.430	920.874	731.161
230.869	21.151	919.255	728.647
231.884	21.517	919.877	730.603
232.899	22.160	920.293	733.556
233.913	22.104	919.190	732.375
234.928	22.007	918.749	731.557
235.942	22.054	918.026	731.110
236.957	21.665	916.978	728.593
237.972	21.819	916.582	728.858
238.986	21.799	915.721	728.022
240.001	21.883	915.029	727.757
241.015	21.791	914.785	727.116
242.030	22.215	913.806	728.030
243.045	22.105	913.765	727.480
244.059	22.301	912.801	727.456
245.074	22.141	911.928	726.037
246.088	21.833	910.805	723.806
247.103	22.101	910.584	724.673
248.117	22.509	910.794	726.458
249.132	22.664	910.694	726.951
250.147	22.859	910.016	727.152
251.161	23.033	909.271	727.208
252.176	22.789	908.923	725.861
253.190	22.998	908.207	726.084
254.205	23.235	907.344	726.303
255.220	23.114	906.851	725.349
256.234	22.932	906.376	724.157
257.249	22.771	905.440	722.686
258.263	23.040	904.358	722.857
259.278	22.875	904.366	722.127
260.293	22.951	903.600	721.761
261.307	22.912	902.574	720.720
262.322	22.693	902.247	719.503
263.336	21.998	899.787	714.645
264.351	20.975	897.911	708.937
265.366	21.039	897.730	708.992
266.380	22.212	898.205	714.072
267.395	22.528	898.129	715.228
268.409	22.521	897.512	714.646
269.424	22.733	896.561	714.684
270.439	22.964	896.180	715.254
271.453	22.876	895.633	714.399
272.468	23.038	895.667	715.017
273.482	23.119	894.687	714.500
274.497	22.730	893.487	711.910
275.512	22.235	892.591	709.135
276.526	22.545	892.898	710.568
277.541	22.863	892.456	711.435
278.555	22.665	891.255	709.618
279.570	22.511	890.584	708.399
280.585	22.681	889.674	708.296
281.599	22.531	889.095	707.170
282.614	22.179	887.524	704.447
283.628	22.089	887.269	703.822
284.643	22.281	887.476	704.693
285.657	22.117	885.449	702.368
286.672	21.741	885.039	700.476
287.687	22.261	885.303	702.704
288.701	22.304	884.407	702.099
289.716	22.152	883.360	700.599
290.730	22.065	883.105	699.991
291.745	21.847	881.860	698.075
292.760	22.037	881.585	698.550
293.774	23.050	882.006	702.851
294.789	23.225	882.337	703.747
295.803	23.378	881.355	703.509
296.818	23.416	880.603	702.999
297.833	22.941	879.457	700.140
298.847	22.894	878.526	699.149
299.862	23.103	878.710	700.063
300.876	23.367	878.190	700.629
301.891	23.282	877.408	699.609
302.906	22.712	876.376	696.476
303.920	23.011	875.999	697.295
304.935	23.257	875.904	698.126
305.949	23.242	875.098	697.362
306.964	22.965	874.622	695.829
307.979	23.134	874.208	696.106
308.993	23.414	874.031	697.004
310.008	23.465	872.855	696.204
311.022	23.172	872.162	694.440
312.037	22.991	871.800	693.380
313.052	22.798	870.990	691.920
314.066	22.057	869.403	687.696
315.081	21.574	868.937	685.375
316.095	22.609	869.034	689.444
317.110	22.935	868.567	690.285
318.125	22.101	867.329	685.984
319.139	21.098	865.819	680.817
320.154	21.095	865.270	680.315
321.168	22.024	865.899	684.373
322.183	22.707	865.875	686.954
323.197	22.778	865.790	687.103
324.212	22.976	864.983	687.171
325.227	23.055	864.335	686.901
326.241	23.067	863.793	686.455
327.256	22.795	863.691	685.256
328.270	22.895	862.538	684.671
329.285	22.480	861.573	682.237
330.300	22.574	860.351	681.573
331.314	22.723	860.120	681.905
332.329	23.028	860.790	683.555
333.343	23.265	860.034	683.810
334.358	23.056	859.720	682.695
335.373	23.344	859.260	683.379
336.387	23.577	859.145	684.125
337.402	23.582	858.827	683.830
338.416	23.411	858.811	683.100
339.431	23.376	858.344	682.531
340.446	23.848	857.940	683.967
341.460	23.669	857.258	682.673
342.475	23.499	856.718	681.530
343.489	23.633	855.829	681.278
344.504	23.854	856.359	682.488
345.519	24.026	855.970	682.778
346.533	23.959	855.294	681.919
347.548	24.145	854.710	682.107
348.562	23.943	854.520	681.122
349.577	23.818	853.881	680.075
350.592	23.917	852.866	679.585
351.606	23.903	852.258	678.985
352.621	23.823	851.202	677.780
353.635	23.662	850.375	676.446
354.650	23.077	849.112	673.157
355.665	22.111	847.357	668.033
356.679	22.645	846.912	669.652
357.694	23.160	846.601	671.301
358.708	22.843	846.303	669.804
359.723	23.175	846.481	671.145
360.738	23.520	845.881	671.919
361.752	23.911	845.243	672.831
362.767	23.855	845.401	672.685
363.781	24.200	844.824	673.471
364.796	24.348	843.814	673.165
365.810	24.292	843.872	672.940
366.825	24.199	843.210	672.002
367.840	24.028	842.516	670.746
368.854	23.549	841.947	668.429
369.869	23.715	841.129	668.343
370.883	23.663	840.645	667.707
371.898	23.639	840.249	667.243
372.913	23.626	840.193	667.087
373.927	23.798	839.530	667.150
374.942	23.940	838.809	667.048
375.956	24.084	838.824	667.542
376.971	24.112	838.274	667.151
377.986	24.313	837.924	667.566
379.000	24.304	837.259	666.945
380.015	24.136	836.863	665.939
381.029	23.995	836.410	664.993
382.044	24.183	835.744	665.109
383.059	24.318	834.750	664.761
384.073	24.300	834.679	664.580
385.088	24.258	833.631	663.529
386.102	24.009	833.290	662.271
387.117	24.132	832.312	661.894
388.132	23.737	831.259	659.530
389.146	23.301	830.219	657.030
390.161	23.443	830.670	657.857
391.175	24.034	830.287	659.688
392.190	23.624	829.197	657.245
393.205	22.325	827.025	650.663
394.219	20.995	825.408	644.422
395.234	20.950	825.117	643.973
396.248	22.498	826.671	650.853
397.263	23.714	827.595	656.017
398.278	23.919	826.765	656.057
399.292	23.661	826.208	654.607
400.307	23.690	825.250	653.897
401.321	23.712	825.315	653.972
402.336	24.151	825.105	655.362
403.350	24.505	825.277	656.743
404.365	24.609	825.271	657.064
405.380	25.083	824.001	657.734
406.394	25.060	823.822	657.446
407.409	24.790	823.801	656.380
408.423	24.863	823.486	656.340
409.438	25.047	822.769	656.386
410.453	25.075	822.329	656.078
411.467	24.996	821.817	655.322
412.482	24.843	821.639	654.564
413.496	24.925	820.913	654.225
414.511	24.998	820.510	654.113
415.526	24.922	820.138	653.481
416.540	24.803	819.497	652.481
417.555	24.717	818.369	651.211
418.569	24.682	818.230	650.914
419.584	24.657	818.257	650.788
420.599	24.402	817.407	649.127
421.613	151.770	1367.004	1789.436
422.628	132.070	1447.075	1789.545
