DTS Sentinel unit serial number:	SN413079Multiplexer serial number:	ORYXHardware model number:	OX4-SRSoftware version number:	ORYX F/W v4.00 Oryx Data Collector v3.7.2.0data status	okinstallation	princeton_trtdifferential loss correction	single-endedforward channel	channel 1reverse channel	N/Adate	2019/09/11time	15:16:11forward acquisition time	60.00reverse acquisition time	0.00gamma	496.2192k internal	0.2291k external	0.2291temperature offset calibration	0.9993default loss term (dB/km)	0.3790temperature slope calibration	1.0000multiplexer offset coefficient	1.0000multiplexer slope coefficient	1.0000fibre end	0.00T internal ref (°C)	42.94T ext. ref 1 (°C)	0.97T ext. ref 2 (°C)	36.05length (m)	temperature (°C)	Stokes	anti-Stokes-747.200	26.374	0.115	-0.099
-746.185	-200.000	-0.001	0.050
-745.171	-200.000	-0.049	0.366
-744.156	-86.608	-0.257	-0.081
-743.142	-132.955	0.287	-0.037
-742.127	-200.000	-0.006	0.129
-741.112	-100.945	-0.255	-0.064
-740.098	690.703	0.061	0.163
-739.083	800.000	0.084	0.275
-738.069	33.333	-0.100	0.089
-737.054	-87.121	-0.222	-0.069
-736.039	-36.828	-0.193	-0.106
-735.025	-79.869	0.265	0.091
-734.010	-70.362	-0.191	-0.074
-732.996	800.000	0.041	-0.173
-731.981	-40.129	0.124	-0.066
-730.966	39.110	0.075	-0.068
-729.952	-101.972	0.177	-0.044
-728.937	652.384	-0.118	0.311
-727.923	-150.377	-0.271	0.021
-726.908	59.830	0.126	0.127
-725.894	-131.348	0.088	0.012
-724.879	34.631	0.354	-0.317
-723.864	30.319	-0.169	0.147
-722.850	-200.000	-0.016	-0.287
-721.835	-200.000	-0.063	-0.312
-720.821	-200.000	-0.029	-0.295
-719.806	164.149	0.150	-0.216
-718.791	-53.092	-0.232	-0.109
-717.777	-200.000	0.024	-0.292
-716.762	269.754	0.170	-0.306
-715.748	-48.458	0.222	-0.110
-714.733	50.526	-0.171	0.165
-713.718	800.000	-0.070	0.224
-712.704	800.000	0.092	-0.349
-711.689	8.154	0.138	-0.106
-710.675	-200.000	-0.073	-0.333
-709.660	414.871	-0.044	-0.097
-708.645	42.922	0.200	0.186
-707.631	-9.764	-0.084	0.057
-706.616	-175.973	0.226	-0.006
-705.602	-26.720	-0.058	-0.035
-704.587	263.590	-0.082	-0.146
-703.572	5.618	0.128	0.096
-702.558	-93.622	0.236	0.067
-701.543	-43.982	0.307	0.158
-700.529	98.690	0.134	-0.158
-699.514	-200.000	0.009	-0.146
-698.499	-43.842	-0.146	-0.075
-697.485	-143.411	0.287	0.028
-696.470	-67.599	-0.155	-0.062
-695.456	3.998	-0.054	0.040
-694.441	32.115	-0.227	0.200
-693.426	160.512	-0.115	0.164
-692.412	-200.000	0.003	-0.041
-691.397	192.222	-0.044	-0.068
-690.383	198.118	0.145	0.226
-689.368	-20.177	-0.198	0.124
-688.354	-181.102	0.307	-0.006
-687.339	800.000	-0.051	-0.154
-686.324	14.493	-0.159	-0.127
-685.310	800.000	0.070	0.211
-684.295	-200.000	-0.042	0.233
-683.281	258.348	-0.115	0.202
-682.266	-200.000	0.025	-0.287
-681.251	-105.705	0.089	-0.021
-680.237	800.000	-0.085	0.361
-679.222	800.000	-0.168	-0.535
-678.208	-177.204	0.183	-0.005
-677.193	83.073	-0.210	0.234
-676.178	239.729	0.113	0.191
-675.164	-39.756	0.091	-0.048
-674.149	-152.566	-0.313	-0.023
-673.135	-200.000	-0.005	-0.241
-672.120	-200.000	0.000	-0.323
-671.105	-138.980	-0.162	0.018
-670.091	258.217	0.099	-0.173
-669.076	-144.361	0.206	0.020
-668.062	800.000	-0.066	0.246
-667.047	17.147	0.404	0.327
-666.032	800.000	0.034	0.142
-665.018	620.326	-0.097	-0.249
-664.003	343.188	0.253	-0.506
-662.989	342.289	0.102	-0.203
-661.974	131.122	0.030	-0.040
-660.959	590.448	-0.112	0.282
-659.945	-183.675	-0.206	-0.004
-658.930	-142.640	0.307	0.031
-657.916	-200.000	0.050	-0.232
-656.901	107.996	0.153	0.186
-655.886	800.000	0.044	0.175
-654.872	-200.000	0.034	0.170
-653.857	-116.400	-0.143	-0.027
-652.843	-38.310	0.278	0.150
-651.828	-200.000	0.019	-0.225
-650.814	-83.111	0.233	-0.077
-649.799	130.500	0.057	0.074
-648.784	-200.000	0.011	-0.102
-647.770	106.903	-0.127	-0.154
-646.755	800.000	0.047	0.166
-645.741	-200.000	-0.092	-0.415
-644.726	800.000	-0.144	0.462
-643.711	127.475	0.149	0.193
-642.697	-180.761	-0.794	-0.017
-641.682	-200.000	-0.011	-0.087
-640.668	-200.000	-0.010	-0.345
-639.653	-200.000	-0.022	0.144
-638.638	800.000	0.041	-0.138
-637.624	13.426	0.195	-0.154
-636.609	-200.000	-0.022	0.495
-635.595	48.788	0.093	0.089
-634.580	-6.545	0.036	-0.025
-633.565	40.735	-0.325	0.299
-632.551	16.699	0.016	0.013
-631.536	3.608	0.191	-0.142
-630.522	130.031	0.102	0.133
-629.507	-117.690	-0.183	0.034
-628.492	128.649	0.213	0.276
-627.478	-200.000	-0.011	-0.136
-626.463	19.622	0.090	-0.074
-625.449	122.640	-0.070	-0.089
-624.434	369.600	0.035	-0.073
-623.419	-77.046	-0.219	-0.078
-622.405	800.000	0.044	-0.150
-621.390	-98.560	-0.108	-0.028
-620.376	-124.451	-0.275	0.044
-619.361	50.688	-0.230	-0.222
-618.346	-114.579	-0.374	-0.073
-617.332	131.206	-0.154	-0.201
-616.317	16.070	0.117	0.094
-615.303	-200.000	-0.007	0.129
-614.288	238.648	-0.059	0.100
-613.273	-200.000	-0.007	-0.061
-612.259	800.000	0.084	-0.309
-611.244	659.463	0.067	0.175
-610.230	-143.223	0.324	-0.032
-609.215	-40.618	-0.096	-0.050
-608.201	-69.558	0.547	-0.213
-607.186	521.232	0.022	-0.053
-606.171	294.783	-0.110	-0.205
-605.157	-35.447	-0.238	0.132
-604.142	-200.000	-0.016	0.308
-603.128	-161.775	-0.144	-0.007
-602.113	-100.419	-0.194	-0.049
-601.098	800.000	-0.034	0.122
-600.084	61.375	-0.221	-0.223
-599.069	800.000	0.044	0.168
-598.055	-117.970	0.151	0.028
-597.040	-51.225	0.277	0.132
-596.025	-175.832	0.296	-0.008
-595.011	3.506	-0.473	0.351
-593.996	124.075	0.103	0.132
-592.982	593.237	-0.138	-0.346
-591.967	800.000	-0.041	-0.158
-590.952	62.138	-0.099	-0.100
-589.938	-41.614	-0.204	0.107
-588.923	121.665	-0.180	0.228
-587.909	-100.752	0.091	-0.023
-586.894	800.000	-0.040	-0.140
-585.879	-200.000	0.069	-0.343
-584.865	11.204	0.122	-0.095
-583.850	78.859	-0.163	0.178
-582.836	92.117	-0.073	-0.084
-581.821	-128.086	0.484	0.071
-580.806	0.538	0.133	0.097
-579.792	-200.000	-0.030	0.138
-578.777	-200.000	-0.004	-0.156
-577.763	-200.000	0.031	0.496
-576.748	607.309	0.039	0.100
-575.733	253.462	-0.089	0.155
-574.719	-81.073	0.170	0.057
-573.704	-131.430	0.305	0.041
-572.690	800.000	-0.084	0.330
-571.675	497.868	0.040	0.094
-570.661	-200.000	-0.017	-0.084
-569.646	-123.194	0.102	-0.017
-568.631	-92.078	-0.242	0.070
-567.617	-200.000	-0.051	0.358
-566.602	700.809	0.130	0.347
-565.588	-32.807	0.336	0.190
-564.573	-200.000	0.015	0.179
-563.558	-67.169	-0.230	-0.092
-562.544	36.023	0.139	-0.125
-561.529	-87.150	-0.243	0.075
-560.515	-200.000	-0.069	0.444
-559.500	146.237	0.220	0.301
-558.485	78.714	-0.123	-0.133
-557.471	156.078	-0.010	-0.014
-556.456	-71.470	0.081	-0.031
-555.442	-103.138	0.462	0.111
-554.427	23.154	0.076	0.064
-553.412	55.486	0.109	-0.108
-552.398	218.477	-0.261	-0.424
-551.383	-200.000	0.030	0.296
-550.369	-30.881	0.112	0.064
-549.354	-200.000	0.006	0.239
-548.339	367.753	0.088	-0.181
-547.325	181.840	0.033	-0.050
-546.310	800.000	-0.140	-0.413
-545.296	-57.507	-0.024	0.011
-544.281	-53.889	0.101	-0.047
-543.266	43.066	0.234	0.217
-542.252	92.565	0.067	0.077
-541.237	800.000	0.082	0.262
-540.223	250.461	-0.092	0.159
-539.208	-200.000	0.019	-0.144
-538.193	60.668	-0.160	-0.161
-537.179	131.671	-0.103	-0.135
-536.164	337.149	0.083	-0.163
-535.150	-70.345	0.246	-0.095
-534.135	-134.873	0.345	0.042
-533.121	325.160	0.043	-0.084
-532.106	-75.509	-0.176	-0.064
-531.091	194.721	-0.119	-0.184
-530.077	-200.000	-0.007	0.150
-529.062	36.383	0.224	-0.201
-528.048	-108.433	-0.194	0.042
-527.033	71.395	0.305	0.321
-526.018	291.999	-0.149	0.275
-525.004	-15.499	-0.198	-0.128
-523.989	-200.000	0.004	0.244
-522.975	200.311	-0.052	-0.081
-521.960	-133.241	0.277	0.036
-520.945	-200.000	0.345	-0.002
-519.931	707.000	0.050	-0.134
-518.916	538.258	0.054	-0.129
-517.902	-111.341	-0.392	0.081
-516.887	-200.000	0.028	-0.291
-515.872	-42.513	0.209	-0.108
-514.858	-58.661	-0.382	-0.168
-513.843	-30.483	-0.083	-0.048
-512.829	-102.214	-0.208	0.051
-511.814	5.125	0.244	-0.182
-510.799	184.973	-0.266	0.400
-509.785	162.830	-0.025	0.036
-508.770	13.370	-0.209	-0.165
-507.756	290.432	-0.155	-0.286
-506.741	228.331	-0.150	0.249
-505.726	-131.245	-0.249	0.033
-504.712	800.000	-0.093	0.293
-503.697	28.898	-0.076	0.065
-502.683	-200.000	0.023	0.149
-501.668	67.479	0.429	0.444
-500.653	-97.365	-0.115	-0.030
-499.639	-200.000	0.093	0.504
-498.624	74.469	-0.171	-0.182
-497.610	16.615	-0.151	-0.121
-496.595	-17.337	-0.067	0.043
-495.581	70.382	-0.108	-0.114
-494.566	800.000	-0.051	-0.207
-493.551	41.497	0.044	0.040
-492.537	237.782	-0.076	-0.128
-491.522	-102.642	0.253	-0.061
-490.508	-143.626	0.209	0.020
-489.493	565.786	0.093	0.228
-488.478	-29.522	-0.085	0.050
-487.464	-101.219	-0.274	-0.068
-486.449	800.000	0.081	0.332
-485.435	-9.335	-0.149	-0.101
-484.420	10.868	0.212	0.164
-483.405	-107.479	0.302	0.067
-482.391	-79.184	0.090	0.031
-481.376	-81.463	0.160	-0.053
-480.362	800.000	0.018	0.068
-479.347	-130.526	-0.079	0.011
-478.332	196.543	-0.065	-0.101
-477.318	-45.259	-0.099	0.050
-476.303	54.341	0.103	-0.101
-475.289	-90.057	0.198	0.058
-474.274	-146.076	0.168	-0.015
-473.259	59.280	0.015	0.015
-472.245	117.461	0.156	-0.195
-471.230	384.135	-0.170	0.355
-470.216	-94.720	-0.157	-0.043
-469.201	95.634	-0.085	-0.098
-468.186	28.359	-0.108	0.093
-467.172	77.110	0.224	-0.241
-466.157	54.001	0.167	0.162
-465.143	491.757	-0.113	0.262
-464.128	752.233	-0.049	0.135
-463.113	-115.778	0.093	-0.018
-462.099	-14.528	-0.189	-0.123
-461.084	800.000	0.074	0.324
-460.070	242.734	-0.096	-0.164
-459.055	-200.000	-0.045	-0.311
-458.040	103.555	-0.196	-0.233
-457.026	-93.916	-0.356	0.099
-456.011	-96.851	-0.103	-0.027
-454.997	-169.328	0.399	-0.015
-453.982	-40.497	-0.218	0.115
-452.968	134.656	0.091	0.119
-451.953	56.052	0.263	-0.258
-450.938	180.540	0.148	-0.220
-449.924	-65.020	-0.195	0.080
-448.909	800.000	0.022	0.071
-447.895	180.108	0.191	0.283
-446.880	-69.687	0.143	-0.055
-445.865	-108.292	-0.204	-0.045
-444.851	-98.792	-0.191	-0.049
-443.836	16.543	0.057	0.046
-442.822	800.000	-0.081	-0.231
-441.807	-200.000	-0.007	0.235
-440.792	-138.860	0.163	-0.018
-439.778	67.968	-0.271	-0.280
-438.763	-185.111	0.373	0.006
-437.749	800.000	0.018	-0.065
-436.734	201.757	-0.040	-0.063
-435.719	376.407	0.016	-0.033
-434.705	-7.783	-0.160	-0.109
-433.690	-75.859	-0.199	-0.071
-432.676	-10.449	0.172	-0.115
-431.661	289.324	-0.189	-0.346
-430.646	-62.674	-0.153	0.064
-429.632	147.036	0.071	0.096
-428.617	-123.106	-0.144	-0.023
-427.603	652.117	0.054	0.140
-426.588	-87.288	0.281	-0.086
-425.573	299.439	-0.120	-0.223
-424.559	569.035	0.112	-0.276
-423.544	130.727	-0.111	0.144
-422.530	-99.739	0.142	0.036
-421.515	-167.946	0.162	-0.006
-420.500	800.000	0.042	0.120
-419.486	330.719	0.054	-0.105
-418.471	105.615	-0.088	-0.106
-417.457	715.375	-0.108	0.289
-416.442	-33.355	0.073	-0.041
-415.428	-89.121	-0.027	0.008
-414.413	613.498	-0.043	-0.110
-413.398	134.328	-0.047	0.061
-412.384	322.813	-0.179	-0.345
-411.369	-134.317	-0.114	-0.014
-410.355	-105.883	0.285	0.065
-409.340	-178.002	0.264	0.006
-408.325	-19.628	0.215	-0.134
-407.311	-200.000	-0.067	0.378
-406.296	529.426	0.040	0.095
-405.282	800.000	0.082	0.307
-404.267	-49.365	0.123	0.059
-403.252	-95.898	-0.276	0.074
-402.238	-122.464	-0.071	-0.012
-401.223	-94.099	0.097	0.027
-400.209	-38.091	0.204	-0.110
-399.194	800.000	0.040	-0.153
-398.179	-138.722	-0.244	-0.027
-397.165	-200.000	-0.031	0.187
-396.150	800.000	0.040	0.120
-395.136	485.466	-0.084	0.193
-394.121	217.811	0.185	0.298
-393.106	800.000	0.072	-0.230
-392.092	-77.697	0.024	-0.008
-391.077	371.401	-0.091	-0.187
-390.063	-115.626	-0.233	0.044
-389.048	76.086	-0.186	-0.199
-388.033	-137.727	0.235	0.027
-387.019	64.117	-0.270	-0.275
-386.004	-172.721	-0.355	0.011
-384.990	-54.865	0.192	-0.087
-383.975	800.000	0.128	0.432
-382.960	-50.722	-0.097	0.046
-381.946	-200.000	0.017	-0.136
-380.931	-200.000	0.003	-0.115
-379.917	55.442	0.101	-0.099
-378.902	-200.000	-0.004	-0.132
-377.888	-123.376	0.484	0.078
-376.873	193.786	-0.101	-0.155
-375.858	201.118	0.248	0.385
-374.844	-200.000	-0.021	-0.273
-373.829	-7.392	0.173	-0.118
-372.815	-167.162	0.055	-0.002
-371.800	292.667	0.077	0.142
-370.785	-200.000	0.076	0.519
-369.771	-84.091	0.244	0.078
-368.756	-200.000	-0.020	-0.111
-367.742	508.202	-0.106	0.248
-366.727	800.000	-0.042	-0.136
-365.712	303.817	-0.126	0.235
-364.698	228.616	0.142	-0.233
-363.683	53.081	-0.171	0.165
-362.669	-110.476	0.186	-0.039
-361.654	17.479	-0.023	0.019
-360.639	71.253	0.390	-0.408
-359.625	167.517	-0.130	-0.187
-358.610	91.830	0.016	-0.018
-357.596	172.464	0.055	0.081
-356.581	92.509	-0.169	0.192
-355.566	45.369	0.291	0.271
-354.552	-57.591	-0.225	0.100
-353.537	-47.980	0.075	-0.037
-352.523	-166.553	-0.338	0.014
-351.508	800.000	-0.017	0.064
-350.493	-200.000	-0.002	0.114
-349.479	-141.334	-0.287	-0.029
-348.464	-200.000	0.003	0.088
-347.450	-140.114	-0.318	-0.034
-346.435	-136.720	-0.188	-0.022
-345.420	11.756	0.130	0.100
-344.406	-119.815	-0.192	-0.033
-343.391	34.173	0.235	0.207
-342.377	104.787	0.224	-0.266
-341.362	278.616	-0.112	-0.202
-340.348	-108.523	0.346	-0.075
-339.333	-186.250	-0.327	-0.005
-338.318	-200.000	0.018	0.123
-337.304	-34.562	0.452	-0.249
-336.289	-200.000	0.012	-0.057
-335.275	-96.028	0.250	-0.067
-334.260	27.889	-0.130	0.111
-333.245	-168.648	0.096	0.004
-332.231	-31.738	0.397	-0.224
-331.216	-200.000	-0.015	-0.147
-330.202	-38.678	-0.139	0.074
-329.187	-61.755	0.227	0.096
-328.172	252.316	-0.073	-0.125
-327.158	-200.000	-0.015	0.133
-326.143	-42.080	0.103	0.053
-325.129	-191.130	0.224	0.002
-324.114	-68.281	0.122	0.048
-323.099	256.275	-0.147	0.254
-322.085	-73.655	0.179	-0.066
-321.070	337.568	0.100	0.197
-320.056	-13.280	-0.319	0.209
-319.041	-200.000	0.011	-0.344
-318.026	-77.182	0.127	-0.044
-317.012	800.000	0.041	-0.126
-315.997	-200.000	-0.076	-0.439
-314.983	-127.093	0.204	-0.030
-313.968	-61.731	-0.379	-0.160
-312.953	415.283	-0.090	-0.192
-311.939	-28.323	-0.087	0.051
-310.924	10.778	0.363	0.279
-309.910	-200.000	-0.024	0.296
-308.895	-103.297	-0.195	0.046
-307.880	142.848	-0.016	0.021
-306.866	-42.841	-0.204	-0.104
-305.851	350.104	-0.044	0.088
-304.837	56.034	-0.352	-0.344
-303.822	37.957	0.231	-0.207
-302.807	-200.000	-0.044	-0.356
-301.793	49.652	0.167	0.158
-300.778	-67.845	0.032	0.013
-299.764	182.492	0.194	-0.288
-298.749	800.000	0.080	-0.255
-297.735	-43.424	0.310	0.157
-296.720	-200.000	-0.047	-0.217
-295.705	367.053	-0.097	-0.197
-294.691	83.682	0.135	0.148
-293.676	-80.211	0.175	0.059
-292.662	420.075	0.064	-0.137
-291.647	-82.605	-0.100	0.032
-290.632	318.533	0.193	-0.367
-289.618	-200.000	-0.002	-0.294
-288.603	24.443	-0.191	0.159
-287.589	210.938	0.172	0.271
-286.574	83.877	-0.252	0.277
-285.559	254.153	-0.220	-0.378
-284.545	-1.452	0.204	-0.145
-283.530	0.967	-0.137	0.099
-282.516	447.144	-0.143	-0.317
-281.501	404.234	-0.038	-0.081
-280.486	204.606	0.149	-0.233
-279.472	-45.413	0.141	-0.070
-278.457	-51.544	0.239	0.112
-277.443	-200.000	0.002	-0.235
-276.428	800.000	0.028	-0.081
-275.413	-200.000	0.053	-0.238
-274.399	620.613	-0.094	-0.238
-273.384	84.427	-0.051	-0.056
-272.370	125.095	0.157	0.198
-271.355	-122.469	-0.259	0.042
-270.340	261.178	-0.123	-0.214
-269.326	800.000	0.075	-0.320
-268.311	-116.084	0.170	0.032
-267.297	62.453	-0.105	0.106
-266.282	-105.845	-0.229	-0.052
-265.267	-132.859	0.447	-0.057
-264.253	-28.254	-0.071	-0.041
-263.238	-101.122	-0.103	0.025
-262.224	-131.639	0.325	-0.043
-261.209	800.000	-0.009	-0.027
-260.195	-101.654	0.258	-0.063
-259.180	-7.822	0.270	0.183
-258.165	-200.000	-0.016	0.243
-257.151	150.141	-0.050	-0.068
-256.136	-151.072	-0.125	0.009
-255.122	800.000	0.067	0.290
-254.107	357.317	0.035	0.070
-253.092	-200.000	-0.011	0.211
-252.078	81.699	-0.141	0.153
-251.063	-48.530	0.135	-0.065
-250.049	-139.492	-0.133	-0.014
-249.034	-36.630	-0.114	-0.062
-248.019	469.296	0.110	-0.248
-247.005	-63.938	-0.142	0.058
-245.990	80.393	-0.314	-0.340
-244.976	-42.350	0.109	-0.056
-243.961	91.481	0.273	0.308
-242.946	116.182	-0.197	0.242
-241.932	521.503	0.143	0.337
-240.917	-129.988	0.127	-0.017
-239.903	-53.771	-0.470	0.215
-238.888	29.059	0.105	0.090
-237.873	98.291	-0.175	0.202
-236.859	225.790	0.096	-0.156
-235.844	-153.988	-0.246	-0.017
-234.830	-82.435	-0.120	0.039
-233.815	-104.789	-0.439	0.101
-232.800	67.753	0.098	-0.101
-231.786	-75.172	-0.323	-0.116
-230.771	-110.286	-0.209	0.044
-229.757	-150.533	0.377	-0.029
-228.742	-27.349	-0.127	0.074
-227.727	148.893	-0.095	-0.129
-226.713	206.650	0.045	0.070
-225.698	-74.693	0.283	-0.102
-224.684	-88.437	0.114	0.034
-223.669	-48.697	-0.236	-0.114
-222.655	-164.009	-0.092	0.004
-221.640	-88.953	0.224	0.067
-220.625	800.000	0.055	0.178
-219.611	-105.509	0.449	-0.102
-218.596	467.891	-0.101	0.228
-217.582	10.017	-0.283	0.215
-216.567	151.212	-0.121	0.165
-215.552	-134.193	-0.078	-0.010
-214.538	55.180	0.192	0.186
-213.523	-134.337	-0.220	-0.027
-212.509	32.880	-0.047	-0.041
-211.494	-200.000	0.006	0.070
-210.479	-30.259	-0.124	-0.071
-209.465	-132.375	-0.223	-0.029
-208.450	-97.284	0.287	-0.075
-207.436	61.266	0.108	-0.108
-206.421	32.329	-0.221	-0.191
-205.406	-95.672	-0.152	0.041
-204.392	-47.963	0.301	0.146
-203.377	278.438	-0.086	-0.154
-202.363	-200.000	-0.072	-0.393
-201.348	-200.000	-0.001	-0.348
-200.333	68.183	0.107	-0.110
-199.319	-200.000	-0.402	-0.001
-198.304	-73.413	-0.046	-0.017
-197.290	535.857	0.108	0.257
-196.275	165.657	-0.085	0.120
-195.260	-85.685	0.087	-0.027
-194.246	416.524	0.039	0.084
-193.231	197.830	0.038	-0.057
-192.217	-42.336	-0.228	0.117
-191.202	72.146	0.184	0.192
-190.187	-86.819	0.130	-0.040
-189.173	104.184	0.017	-0.020
-188.158	511.596	-0.236	-0.551
-187.144	506.414	-0.138	-0.321
-186.129	-6.033	0.468	-0.320
-185.114	800.000	0.077	-0.235
-184.100	-124.924	-0.131	0.020
-183.085	296.741	0.054	-0.098
-182.071	732.156	0.051	-0.136
-181.056	1.525	-0.203	-0.147
-180.042	-169.526	-0.157	0.006
-179.027	-200.000	0.052	0.343
-178.012	695.449	-0.048	0.126
-176.998	677.472	0.041	-0.106
-175.983	800.000	-0.078	0.240
-174.969	599.928	-0.120	0.298
-173.954	-200.000	-0.034	0.202
-172.939	2.840	0.131	0.095
-171.925	-170.016	-0.248	0.009
-170.910	197.445	-0.128	-0.196
-169.896	-200.000	0.028	0.129
-168.881	-132.958	-0.041	-0.005
-167.866	29.032	0.274	-0.233
-166.852	100.417	-0.184	0.213
-165.837	-200.000	0.021	0.227
-164.823	-64.085	0.288	-0.118
-163.808	-75.094	-0.011	0.004
-162.793	151.708	-0.139	-0.190
-161.779	236.061	0.137	-0.226
-160.764	800.000	-0.079	0.255
-159.750	800.000	-0.063	-0.195
-158.735	-200.000	0.043	0.275
-157.720	58.530	0.049	-0.048
-156.706	-41.599	-0.116	-0.060
-155.691	-56.817	-0.391	0.173
-154.677	-200.000	0.026	0.208
-153.662	-149.601	0.257	0.020
-152.647	417.497	0.038	-0.082
-151.633	-42.766	-0.200	-0.102
-150.618	-122.095	-0.164	0.027
-149.604	800.000	-0.065	-0.260
-148.589	296.537	0.093	0.171
-147.574	-0.846	-0.174	0.123
-146.560	23.510	0.093	-0.076
-145.545	800.000	-0.080	0.331
-144.531	220.776	-0.035	0.057
-143.516	-200.000	0.009	0.473
-142.502	-65.748	0.091	0.036
-141.487	91.035	0.028	0.031
-140.472	-200.000	0.008	0.233
-139.458	-128.671	0.145	0.020
-138.443	62.227	0.087	0.087
-137.429	800.000	-0.030	-0.093
-136.414	41.316	-0.233	0.211
-135.399	-135.951	-0.245	-0.029
-134.385	-200.000	0.038	0.255
-133.370	305.411	0.198	0.368
-132.356	176.949	0.086	0.125
-131.341	-200.000	-0.022	-0.255
-130.326	800.000	-0.061	0.237
-129.312	800.000	0.115	-0.332
-128.297	-94.210	-0.263	0.072
-127.283	120.682	-0.142	-0.176
-126.268	-130.222	0.211	0.029
-125.253	53.477	-0.166	0.159
-124.239	-31.389	0.156	0.088
-123.224	-200.000	-0.059	-0.289
-122.210	400.125	0.111	-0.232
-121.195	47.376	0.075	-0.070
-120.180	-85.950	-0.262	-0.081
-119.166	-26.966	0.079	-0.046
-118.151	-200.000	0.030	0.212
-117.137	-200.000	0.011	-0.076
-116.122	5.481	-0.280	-0.206
-115.107	96.817	-0.104	-0.119
-114.093	-55.076	0.110	-0.049
-113.078	219.065	-0.054	0.086
-112.064	137.562	0.280	-0.366
-111.049	50.074	-0.225	-0.212
-110.034	-85.374	0.138	0.043
-109.020	139.291	0.095	-0.124
-108.005	86.009	0.180	0.198
-106.991	95.113	-0.103	0.118
-105.976	-100.720	0.174	-0.043
-104.962	13.436	-0.132	0.103
-103.947	-60.903	-0.090	-0.038
-102.932	67.024	0.099	0.101
-101.918	-200.000	0.005	0.121
-100.903	-110.034	0.412	-0.086
-99.889	-5.578	0.158	-0.108
-98.874	800.000	0.109	0.387
-97.859	37.440	-0.146	-0.129
-96.845	-33.196	-0.163	-0.090
-95.830	-30.860	0.385	-0.217
-94.816	-61.973	0.075	0.031
-93.801	-93.039	-0.009	0.002
-92.786	25.975	0.097	0.081
-91.772	46.748	0.307	0.284
-90.757	-50.619	0.267	0.125
-89.743	-18.028	-0.246	-0.154
-88.728	340.105	0.121	-0.235
-87.713	130.978	0.056	-0.071
-86.699	172.703	-0.233	-0.335
-85.684	-25.276	-0.072	0.043
-84.670	30.035	-0.083	-0.071
-83.655	-26.296	-0.135	-0.079
-82.640	-46.824	-0.265	-0.130
-81.626	415.616	0.110	-0.234
-80.611	0.806	-0.259	0.185
-79.597	24.436	0.039	-0.032
-78.582	137.716	0.084	-0.110
-77.567	800.000	-0.079	-0.300
-76.553	259.116	0.022	-0.038
-75.538	-8.672	0.212	0.142
-74.524	-46.492	0.103	0.051
-73.509	-118.794	0.133	-0.023
-72.494	702.364	-0.122	0.321
-71.480	-3.795	0.149	-0.103
-70.465	26.638	0.263	0.219
-69.451	-200.000	-0.018	-0.146
-68.436	-200.000	0.007	0.187
-67.422	-149.687	-0.377	-0.030
-66.407	-120.515	0.232	-0.039
-65.392	36.945	-0.185	-0.163
-64.378	-200.000	-0.039	-0.190
-63.363	-200.000	0.000	-0.022
-62.349	291.882	0.082	-0.149
-61.334	-5.040	-0.789	-0.542
-60.319	-45.829	0.396	0.195
-59.305	-200.000	-0.001	-0.796
-58.290	178.538	0.668	0.972
-57.276	550.607	0.795	1.902
-56.261	-200.000	74.698	538.475
-55.246	576.537	1299.949	3166.368
-54.232	146.597	2522.807	3378.418
-53.217	122.767	2226.837	2777.148
-52.203	55.947	1666.569	1611.381
-51.188	47.335	1383.827	1284.818
-50.173	43.240	1336.157	1215.898
-49.159	61.537	1369.336	1357.594
-48.144	69.756	1387.907	1425.727
-47.130	47.234	1351.186	1253.704
-46.115	43.081	1334.197	1212.963
-45.100	42.786	1329.337	1206.730
-44.086	42.784	1327.082	1204.623
-43.071	42.828	1324.463	1202.461
-42.057	42.749	1322.220	1199.902
-41.042	42.780	1320.644	1198.614
-40.027	42.717	1319.338	1197.004
-39.013	42.787	1317.880	1196.050
-37.998	42.720	1315.936	1193.839
-36.984	42.914	1313.189	1192.452
-35.969	43.071	1311.541	1191.833
-34.954	43.088	1310.210	1190.680
-33.940	42.967	1309.000	1188.816
-32.925	43.028	1307.365	1187.647
-31.911	43.028	1306.077	1186.430
-30.896	42.950	1304.651	1184.630
-29.881	43.020	1303.421	1183.876
-28.867	43.051	1301.626	1182.380
-27.852	43.012	1300.240	1180.844
-26.838	43.057	1298.806	1179.761
-25.823	43.027	1297.591	1178.431
-24.809	42.990	1295.792	1176.535
-23.794	43.048	1294.646	1175.789
-22.779	43.087	1292.853	1174.338
-21.765	43.126	1291.269	1173.080
-20.750	43.058	1290.111	1171.588
-19.736	42.951	1288.870	1169.791
-18.721	42.823	1287.724	1167.961
-17.706	42.899	1286.613	1167.351
-16.692	42.971	1285.212	1166.447
-15.677	42.861	1284.405	1165.034
-14.663	42.900	1282.849	1163.799
-13.648	42.863	1282.068	1162.835
-12.633	42.865	1281.163	1161.979
-11.619	42.830	1280.212	1160.866
-10.604	42.849	1279.373	1160.167
-9.590	42.813	1278.687	1159.294
-8.575	42.850	1277.531	1158.412
-7.560	42.858	1276.391	1157.382
-6.546	42.850	1275.177	1156.185
-5.531	42.904	1274.624	1155.952
-4.517	42.915	1273.713	1155.141
-3.502	42.887	1272.883	1154.181
-2.487	42.878	1271.869	1153.164
-1.473	42.884	1268.306	1149.926
-0.458	41.856	1253.185	1130.360
0.556	36.987	1232.921	1087.261
1.571	33.023	1235.236	1066.877
2.586	32.061	1250.436	1074.405
3.600	30.838	1240.781	1059.066
4.615	22.255	1162.759	946.417
5.629	8.179	1076.332	805.375
6.644	1.419	1051.303	753.152
7.659	0.934	1048.096	748.390
8.673	0.782	1046.732	746.601
9.688	0.756	1045.258	745.354
10.702	1.327	1044.685	747.691
11.717	9.852	1057.520	799.170
12.731	21.665	1074.069	870.677
13.746	24.694	1077.045	888.082
14.761	23.637	1074.760	880.876
15.775	23.294	1074.003	878.479
16.790	23.192	1073.158	877.206
17.804	23.133	1072.323	876.151
18.819	23.068	1072.384	875.801
19.834	23.185	1071.677	875.725
20.848	23.159	1071.245	875.168
21.863	23.145	1070.635	874.520
22.877	23.110	1069.913	873.681
23.892	23.035	1069.429	872.840
24.907	23.177	1068.398	872.619
25.921	23.132	1067.557	871.635
26.936	23.136	1065.675	870.041
27.950	23.120	1064.471	868.900
28.965	22.792	1063.369	866.316
29.980	22.972	1061.540	865.630
30.994	23.222	1060.127	865.624
32.009	23.106	1059.315	864.319
33.023	22.995	1057.778	862.449
34.038	23.037	1057.309	862.190
35.053	23.138	1056.709	862.120
36.067	23.188	1055.639	861.412
37.082	23.292	1054.738	861.110
38.096	23.375	1054.471	861.220
39.111	23.523	1053.536	861.096
40.126	23.379	1051.885	858.974
41.140	22.975	1050.203	855.567
42.155	22.797	1049.014	853.664
43.169	22.835	1048.229	853.133
44.184	22.900	1047.350	852.656
45.199	22.748	1046.268	850.968
46.213	22.799	1045.633	850.617
47.228	22.912	1044.622	850.267
48.242	22.993	1043.775	849.893
49.257	23.079	1043.171	849.734
50.271	23.139	1042.271	849.217
51.286	23.172	1041.846	848.951
52.301	23.197	1040.436	847.849
53.315	23.154	1039.589	846.876
54.330	22.996	1038.760	845.373
55.344	23.096	1038.242	845.354
56.359	23.181	1036.975	844.655
57.374	22.963	1036.203	842.909
58.388	22.925	1035.688	842.235
59.403	22.978	1034.466	841.422
60.417	22.720	1033.569	839.387
61.432	22.752	1033.399	839.326
62.447	22.897	1032.151	838.927
63.461	22.990	1031.437	838.714
64.476	22.952	1030.362	837.589
65.490	22.867	1029.234	836.194
66.505	22.729	1029.132	835.383
67.520	22.989	1028.136	835.730
68.534	22.681	1027.328	833.544
69.549	22.411	1025.804	830.962
70.563	22.461	1025.361	830.761
71.578	22.463	1024.616	830.097
72.593	22.292	1023.694	828.471
73.607	22.374	1023.544	828.662
74.622	22.668	1023.006	829.536
75.636	22.860	1021.806	829.393
76.651	22.688	1020.980	827.841
77.666	22.546	1020.110	826.396
78.680	22.510	1019.539	825.691
79.695	22.695	1018.946	826.003
80.709	22.817	1018.363	826.029
81.724	22.680	1017.553	824.656
82.739	22.913	1016.273	824.635
83.753	23.063	1016.067	825.095
84.768	23.469	1015.367	826.346
85.782	23.600	1014.534	826.205
86.797	23.462	1013.698	824.810
87.812	23.323	1012.589	823.192
88.826	23.461	1011.414	822.803
89.841	23.441	1010.469	821.869
90.855	23.381	1009.750	820.933
91.870	23.393	1008.487	819.889
92.884	23.251	1007.738	818.549
93.899	23.180	1006.780	817.372
94.914	23.341	1005.961	817.375
95.928	23.279	1004.953	816.200
96.943	22.932	1003.749	813.554
97.957	22.863	1002.660	812.281
98.972	22.639	1001.447	810.196
99.987	22.916	1000.999	811.036
101.001	23.129	1000.374	811.435
102.016	23.194	999.376	810.848
103.030	22.970	998.569	809.100
104.045	22.773	997.791	807.496
105.060	22.787	996.346	806.320
106.074	22.927	995.741	806.398
107.089	23.259	994.918	807.173
108.103	23.165	994.094	806.003
109.118	22.950	992.961	804.036
110.133	22.970	991.888	803.187
111.147	22.628	990.472	800.419
112.162	22.433	989.975	799.058
113.176	22.742	989.404	799.928
114.191	22.790	988.132	799.045
115.206	22.474	987.147	796.749
116.220	22.401	986.102	795.509
117.235	22.563	985.492	795.675
118.249	22.642	984.500	795.160
119.264	22.526	983.760	793.971
120.279	22.607	982.917	793.583
121.293	22.628	982.517	793.286
122.308	22.766	981.227	792.794
123.322	22.640	980.211	791.339
124.337	22.492	979.283	789.853
125.352	21.936	977.793	786.094
126.366	21.904	976.774	785.061
127.381	22.699	976.272	788.143
128.395	23.135	975.919	789.732
129.410	23.135	975.181	789.065
130.424	23.266	973.837	788.494
131.439	23.211	973.070	787.559
132.454	23.122	972.397	786.547
133.468	23.004	971.513	785.237
134.483	23.140	970.713	785.125
135.497	23.467	969.842	785.800
136.512	23.465	969.132	785.148
137.527	23.635	967.963	784.883
138.541	23.480	967.577	783.817
139.556	23.518	966.528	783.063
140.570	23.544	965.799	782.521
141.585	23.522	965.361	781.998
142.600	23.506	964.058	780.805
143.614	23.661	963.679	781.111
144.629	23.745	962.843	780.729
145.643	23.566	961.379	778.692
146.658	23.403	960.564	777.246
147.673	23.308	959.035	775.523
148.687	23.258	957.769	774.214
149.702	23.151	957.329	773.322
150.716	23.217	955.744	772.260
151.731	23.264	955.639	772.315
152.746	23.429	955.081	772.514
153.760	23.412	954.447	771.855
154.775	23.561	953.796	771.911
155.789	23.543	952.870	771.016
156.804	23.510	951.832	769.964
157.819	23.637	950.808	769.619
158.833	23.620	950.625	769.328
159.848	23.655	949.308	768.343
160.862	23.404	948.225	766.317
161.877	23.574	946.899	765.910
162.892	23.501	946.279	765.025
163.906	23.406	945.031	763.542
164.921	23.359	944.184	762.585
165.935	23.506	943.505	762.603
166.950	23.613	942.287	762.009
167.964	23.639	941.045	761.051
168.979	23.238	940.612	758.912
169.994	23.474	939.013	758.566
171.008	23.628	938.815	758.996
172.023	23.592	938.009	758.126
173.037	23.430	937.284	756.781
174.052	23.064	936.604	754.604
175.067	23.266	935.750	754.709
176.081	23.371	935.139	754.597
177.096	23.341	934.326	753.746
178.110	23.080	933.807	752.150
179.125	22.945	932.614	750.549
180.140	22.941	932.589	750.446
181.154	23.082	932.090	750.576
182.169	23.438	931.979	751.932
183.183	23.545	931.257	751.734
184.198	23.564	930.591	751.211
185.213	23.471	929.696	750.029
186.227	23.484	929.406	749.785
187.242	23.631	928.372	749.506
188.256	23.519	927.971	748.640
189.271	23.725	926.773	748.477
190.286	23.382	925.758	746.149
191.300	22.831	924.711	742.918
192.315	22.045	922.833	738.043
193.329	22.036	922.671	737.810
194.344	22.687	923.318	741.000
195.359	23.191	923.372	743.092
196.373	23.412	922.582	743.317
197.388	23.338	921.463	742.042
198.402	23.358	920.978	741.670
199.417	23.420	920.349	741.354
200.432	23.198	919.544	739.715
201.446	22.947	918.540	737.795
202.461	23.018	918.010	737.599
203.475	22.218	916.350	732.865
204.490	21.370	915.118	728.287
205.504	22.286	915.448	732.299
206.519	23.030	915.177	735.113
207.534	23.117	914.651	734.984
208.548	23.535	914.466	736.510
209.563	23.226	913.482	734.369
210.577	23.249	912.701	733.773
211.592	23.553	912.815	735.058
212.607	23.661	911.662	734.509
213.621	23.667	910.751	733.738
214.636	23.538	910.555	732.981
215.650	23.521	909.690	732.152
216.665	23.663	908.843	731.990
217.680	23.613	908.141	731.152
218.694	23.325	907.067	729.038
219.709	23.119	906.320	727.524
220.723	23.372	906.210	728.415
221.738	23.348	905.741	727.872
222.753	23.379	904.855	727.224
223.767	23.428	904.625	727.176
224.782	23.716	904.245	727.988
225.796	23.711	903.497	727.299
226.811	23.057	902.261	723.566
227.826	22.324	900.613	719.185
228.840	22.569	900.394	719.948
229.855	22.704	899.534	719.747
230.869	22.290	898.666	717.300
231.884	22.649	898.383	718.475
232.899	23.471	898.789	722.086
233.913	23.283	897.956	720.587
234.928	23.249	897.531	720.044
235.942	23.235	896.992	719.489
236.957	22.876	896.104	717.259
237.972	22.971	895.500	717.096
238.986	23.149	894.637	717.063
240.001	23.125	893.870	716.287
241.015	23.190	893.535	716.218
242.030	23.304	892.921	716.122
243.045	23.428	892.882	716.530
244.059	23.580	892.328	716.636
245.074	23.349	891.303	714.819
246.088	23.006	890.278	712.550
247.103	23.338	890.153	713.723
248.117	23.870	890.332	715.950
249.132	24.122	889.725	716.411
250.147	24.203	888.951	716.050
251.161	24.300	888.626	716.112
252.176	24.270	888.068	715.482
253.190	24.404	887.349	715.375
254.205	24.530	886.767	715.348
255.220	24.469	886.276	714.644
256.234	24.298	885.666	713.403
257.249	24.091	885.193	712.134
258.263	24.351	883.922	712.087
259.278	24.325	883.402	711.500
260.293	24.412	883.352	711.744
261.307	24.169	882.219	709.800
262.322	24.127	881.283	708.817
263.336	23.466	879.195	704.449
264.351	22.296	877.220	698.162
265.366	22.348	877.370	698.428
266.380	23.523	878.162	703.660
267.395	23.772	877.931	704.403
268.409	23.940	877.255	704.460
269.424	24.129	876.360	704.428
270.439	24.092	875.701	703.690
271.453	24.216	875.164	703.684
272.468	24.406	875.041	704.274
273.482	24.367	874.590	703.695
274.497	24.033	873.329	701.304
275.512	23.622	872.533	698.981
276.526	24.092	872.378	700.646
277.541	24.279	872.213	701.188
278.555	24.004	871.398	699.389
279.570	23.886	869.923	697.680
280.585	24.067	869.615	698.082
281.599	23.995	868.881	697.150
282.614	23.360	867.737	693.686
283.628	23.416	867.142	693.367
284.643	23.767	867.236	694.752
285.657	23.283	866.193	691.965
286.672	22.950	865.483	690.037
287.687	23.612	865.155	692.297
288.701	23.738	864.651	692.325
289.716	23.449	863.969	690.592
290.730	23.351	862.968	689.349
291.745	23.189	861.937	687.835
292.760	23.302	862.302	688.503
293.774	24.301	862.529	692.507
294.789	24.623	862.606	693.759
295.803	24.682	861.580	693.101
296.818	24.707	860.885	692.578
297.833	24.222	859.589	689.597
298.847	24.106	859.008	688.620
299.862	24.518	858.601	689.824
300.876	24.560	858.584	689.912
301.891	24.464	857.966	688.986
302.906	24.061	856.937	686.542
303.920	24.262	856.339	686.778
304.935	24.719	856.213	688.377
305.949	24.598	855.367	687.171
306.964	24.431	854.800	686.013
307.979	24.415	854.514	685.658
308.993	24.672	854.324	686.435
310.008	24.798	853.799	686.433
311.022	24.506	852.576	684.273
312.037	24.433	851.829	683.333
313.052	24.315	850.992	682.150
314.066	23.367	849.614	677.363
315.081	22.763	848.928	674.449
316.095	23.713	849.494	678.469
317.110	24.340	849.277	680.629
318.125	23.530	847.729	676.241
319.139	22.588	846.039	671.247
320.154	22.383	845.905	670.302
321.168	23.373	846.215	674.255
322.183	24.095	846.313	677.023
323.197	24.268	846.160	677.498
324.212	24.412	845.422	677.394
325.227	24.587	844.734	677.444
326.241	24.352	844.447	676.264
327.256	24.196	844.015	675.266
328.270	24.130	843.182	674.293
329.285	24.029	842.126	673.007
330.300	23.732	841.675	671.463
331.314	23.954	840.924	671.642
332.329	24.444	840.888	673.403
333.343	24.566	840.621	673.590
334.358	24.491	840.346	673.028
335.373	24.568	839.906	672.906
336.387	24.873	839.920	674.005
337.402	24.849	840.010	673.930
338.416	24.866	839.606	673.608
339.431	24.860	839.317	673.293
340.446	25.176	838.739	673.960
341.460	25.214	837.798	673.287
342.475	24.837	837.075	671.229
343.489	24.890	836.788	671.139
344.504	25.253	836.536	672.239
345.519	25.356	836.611	672.624
346.533	25.419	836.049	672.351
347.548	25.259	835.821	671.508
348.562	25.363	835.038	671.210
349.577	25.369	834.189	670.488
350.592	25.305	833.457	669.602
351.606	25.228	832.911	668.818
352.621	25.162	832.129	667.884
353.635	25.090	831.314	666.906
354.650	24.449	829.785	663.238
355.665	23.601	828.055	658.649
356.679	23.908	828.082	659.751
357.694	24.365	827.684	661.071
358.708	24.237	827.040	660.024
359.723	24.754	826.910	661.776
360.738	25.039	826.570	662.500
361.752	24.993	826.511	662.225
362.767	25.418	826.082	663.391
363.781	25.504	825.851	663.462
364.796	25.632	825.446	663.553
365.810	25.738	824.897	663.443
366.825	25.724	824.675	663.156
367.840	25.334	823.860	661.005
368.854	24.961	823.221	659.061
369.869	25.070	822.501	658.828
370.883	25.247	821.679	658.761
371.898	25.001	821.402	657.576
372.913	25.034	821.071	657.375
373.927	25.164	820.762	657.545
374.942	25.198	820.535	657.428
375.956	25.274	820.370	657.518
376.971	25.680	819.422	658.185
377.986	25.555	819.327	657.592
379.000	25.578	818.582	657.020
380.015	25.377	818.288	655.994
381.029	25.582	817.475	656.033
382.044	25.742	816.984	656.161
383.059	25.654	816.442	655.348
384.073	25.683	815.838	654.912
385.088	25.572	815.362	654.068
386.102	25.359	814.697	652.704
387.117	25.369	813.931	652.067
388.132	25.004	812.905	649.862
389.146	24.490	812.082	647.284
390.161	24.927	812.017	648.758
391.175	25.494	811.573	650.400
392.190	25.145	810.605	648.307
393.205	23.754	808.786	641.773
394.219	22.343	806.874	635.109
395.234	22.096	806.671	634.001
396.248	23.716	807.842	640.714
397.263	25.179	809.294	647.095
398.278	25.332	808.520	646.969
399.292	24.931	807.990	645.043
400.307	24.888	807.528	644.461
401.321	25.090	807.278	644.932
402.336	25.445	806.819	645.783
403.350	25.848	806.696	647.077
404.365	26.013	806.626	647.557
405.380	26.198	806.427	648.001
406.394	26.430	805.985	648.422
407.409	26.232	805.155	646.987
408.423	26.233	804.854	646.694
409.438	26.275	804.769	646.717
410.453	26.404	803.812	646.352
411.467	26.147	803.509	645.132
412.482	26.339	802.860	645.239
413.496	26.202	803.274	645.027
414.511	26.331	802.246	644.604
415.526	26.439	801.645	644.450
416.540	26.205	800.994	643.034
417.555	25.956	800.363	641.585
418.569	26.013	800.198	641.600
419.584	26.104	799.403	641.227
420.599	25.873	798.844	639.902
421.613	87.937	1248.728	1330.320
422.628	75.017	1314.314	1330.462
