DTS Sentinel unit serial number:	SN413079Multiplexer serial number:	ORYXHardware model number:	OX4-SRSoftware version number:	ORYX F/W v4.00 Oryx Data Collector v3.7.2.0data status	okinstallation	princeton_trtdifferential loss correction	single-endedforward channel	channel 1reverse channel	N/Adate	2019/09/10time	22:12:12forward acquisition time	60.00reverse acquisition time	0.00gamma	496.2192k internal	0.2331k external	0.2331temperature offset calibration	0.9932default loss term (dB/km)	0.3790temperature slope calibration	1.0000multiplexer offset coefficient	1.0000multiplexer slope coefficient	1.0000fibre end	0.00T internal ref (°C)	30.56T ext. ref 1 (°C)	-0.30T ext. ref 2 (°C)	23.85length (m)	temperature (°C)	Stokes	anti-Stokes-747.200	-200.000	-0.014	0.296
-746.185	74.380	0.199	0.210
-745.171	-120.629	-0.278	-0.047
-744.156	244.272	0.187	-0.315
-743.142	-115.029	-0.465	-0.089
-742.127	-200.000	-0.004	0.111
-741.112	0.688	-0.235	0.170
-740.098	-200.000	-0.019	0.100
-739.083	665.252	-0.073	0.191
-738.069	-93.426	-0.368	0.103
-737.054	800.000	-0.144	-0.447
-736.039	-71.480	-0.335	0.126
-735.025	-200.000	0.033	0.183
-734.010	-106.721	-0.312	0.070
-732.996	-142.088	-0.166	-0.017
-731.981	-148.442	-0.230	0.019
-730.966	185.944	-0.186	0.279
-729.952	-86.175	-0.180	-0.056
-728.937	175.187	-0.196	-0.286
-727.923	-121.255	-0.192	0.032
-726.908	-73.720	-0.129	0.047
-725.894	-200.000	-0.090	0.000
-724.879	-81.463	-0.152	-0.050
-723.864	-200.000	0.001	-0.392
-722.850	102.452	0.220	0.259
-721.835	45.454	0.212	0.197
-720.821	-14.255	0.230	0.149
-719.806	-138.331	0.139	-0.015
-718.791	249.813	0.069	0.117
-717.777	28.594	0.165	-0.140
-716.762	48.120	0.255	-0.240
-715.748	258.356	0.097	-0.168
-714.733	37.015	-0.247	0.220
-713.718	-92.892	0.110	0.031
-712.704	-87.138	-0.506	-0.155
-711.689	-163.893	0.114	-0.005
-710.675	124.857	0.117	-0.148
-709.660	37.842	-0.098	-0.087
-708.645	18.596	-0.027	-0.022
-707.631	21.587	-0.083	-0.068
-706.616	16.107	0.237	-0.188
-705.602	38.648	0.157	-0.141
-704.587	-19.626	-0.281	0.175
-703.572	-149.960	-0.261	-0.020
-702.558	35.876	0.134	-0.119
-701.543	547.724	-0.102	-0.246
-700.529	800.000	0.043	-0.149
-699.514	-200.000	-0.037	-0.275
-698.499	-16.922	-0.125	-0.079
-697.485	287.624	0.091	-0.165
-696.470	800.000	-0.096	0.273
-695.456	106.882	0.179	-0.213
-694.441	-28.489	-0.176	-0.102
-693.426	-107.795	-0.363	0.080
-692.412	-100.668	0.382	0.095
-691.397	-110.552	0.573	0.119
-690.383	-146.867	-0.185	-0.016
-689.368	203.465	-0.030	0.047
-688.354	-19.442	-0.452	-0.281
-687.339	149.355	-0.203	-0.276
-686.324	-200.000	0.052	-0.239
-685.310	13.518	-0.221	0.172
-684.295	-66.947	-0.241	-0.096
-683.281	-34.271	0.040	0.022
-682.266	248.474	0.150	0.254
-681.251	-134.977	-0.184	-0.022
-680.237	-75.109	0.196	0.071
-679.222	57.415	-0.146	-0.143
-678.208	-95.051	-0.252	0.068
-677.193	496.565	-0.095	-0.220
-676.178	-142.878	-0.529	-0.052
-675.164	-18.673	0.059	0.037
-674.149	-119.821	0.177	-0.031
-673.135	800.000	0.042	-0.182
-672.120	-200.000	-0.015	-0.225
-671.105	-200.000	-0.017	0.308
-670.091	-200.000	0.012	-0.065
-669.076	-200.000	-0.038	0.384
-668.062	36.915	-0.052	-0.046
-667.047	132.949	0.034	0.044
-666.032	16.562	0.136	0.108
-665.018	122.255	-0.185	-0.232
-664.003	18.117	0.122	-0.097
-662.989	-28.710	0.338	0.195
-661.974	800.000	-0.156	-0.434
-660.959	800.000	0.031	-0.119
-659.945	105.529	-0.041	-0.049
-658.930	-200.000	0.004	-0.089
-657.916	-109.775	-0.152	0.032
-656.901	163.384	0.132	-0.186
-655.886	-24.779	0.109	-0.065
-654.872	-93.511	-0.179	-0.050
-653.857	-29.437	-0.152	-0.087
-652.843	-11.373	0.116	-0.077
-651.828	-41.133	-0.341	-0.177
-650.814	-66.737	0.124	0.049
-649.799	-116.527	0.440	0.081
-648.784	91.618	0.047	0.053
-647.770	-200.000	-0.035	-0.195
-646.755	5.988	0.015	-0.011
-645.741	5.832	-0.118	-0.087
-644.726	-200.000	0.007	-0.243
-643.711	44.409	0.166	-0.153
-642.697	-102.450	0.463	-0.111
-641.682	479.851	0.138	0.314
-640.668	155.035	-0.046	0.063
-639.653	75.750	-0.088	0.093
-638.638	-67.741	0.305	-0.119
-637.624	-200.000	0.012	-0.158
-636.609	800.000	-0.143	-0.401
-635.595	-143.339	-0.083	-0.008
-634.580	326.940	0.163	-0.314
-633.565	-89.785	-0.201	0.059
-632.551	319.868	-0.129	-0.246
-631.536	38.911	0.215	-0.193
-630.522	197.420	0.171	-0.262
-629.507	-40.205	-0.293	0.153
-628.492	-99.255	0.333	0.084
-627.478	-88.904	0.076	0.023
-626.463	-56.729	-0.076	0.034
-625.449	121.949	0.284	-0.355
-624.434	-96.294	-0.091	-0.024
-623.419	-114.355	0.143	0.027
-622.405	-40.039	-0.132	0.069
-621.390	-39.825	-0.374	-0.196
-620.376	-5.497	0.318	-0.218
-619.361	73.506	-0.308	0.323
-618.346	-144.635	-0.047	-0.004
-617.332	377.575	0.061	-0.125
-616.317	-152.503	-0.091	-0.007
-615.303	-200.000	0.026	0.178
-614.288	-104.902	0.380	0.087
-613.273	-93.949	-0.275	-0.076
-612.259	-127.890	-0.165	0.024
-611.244	-139.889	0.201	-0.021
-610.230	770.694	-0.085	-0.231
-609.215	414.374	-0.114	-0.243
-608.201	80.998	-0.136	-0.147
-607.186	800.000	-0.076	0.331
-606.171	135.962	-0.173	-0.226
-605.157	30.347	-0.149	-0.127
-604.142	35.340	0.135	-0.118
-603.128	733.698	-0.070	0.188
-602.113	88.822	-0.077	0.085
-601.098	749.768	0.150	0.404
-600.084	50.117	-0.149	-0.140
-599.069	-7.552	-0.189	0.128
-598.055	-200.000	0.055	-0.350
-597.040	-90.005	-0.186	-0.054
-596.025	102.206	-0.174	0.203
-595.011	-102.026	-0.134	-0.032
-593.996	-98.814	-0.236	-0.060
-592.982	373.482	-0.058	0.118
-591.967	800.000	-0.029	-0.108
-590.952	155.350	-0.056	-0.077
-589.938	-200.000	-0.017	0.219
-588.923	-200.000	0.025	-0.140
-587.909	142.637	0.216	-0.287
-586.894	-200.000	0.018	0.218
-585.879	23.665	-0.228	-0.188
-584.865	149.335	-0.045	-0.062
-583.850	337.460	0.118	-0.230
-582.836	467.161	-0.106	-0.238
-581.821	-200.000	0.011	0.087
-580.806	-53.170	-0.172	-0.079
-579.792	311.808	0.087	0.163
-578.777	-200.000	-0.039	-0.358
-577.763	140.040	0.271	0.357
-576.748	-143.420	0.114	0.011
-575.733	218.079	-0.216	0.344
-574.719	284.176	-0.124	-0.223
-573.704	-200.000	-0.036	0.214
-572.690	372.252	0.043	0.087
-571.675	-14.097	0.219	0.141
-570.661	800.000	0.035	0.144
-569.646	186.606	0.077	-0.115
-568.631	-27.051	0.154	0.090
-567.617	-200.000	0.044	-0.217
-566.602	-53.699	-0.322	-0.147
-565.588	-168.471	-0.109	0.004
-564.573	-125.432	-0.217	0.033
-563.558	-12.077	0.285	-0.187
-562.544	571.300	0.090	0.218
-561.529	185.050	0.356	-0.528
-560.515	50.359	-0.109	0.103
-559.500	-178.530	-0.282	0.007
-558.485	800.000	-0.090	-0.268
-557.471	-200.000	0.034	-0.425
-556.456	637.630	0.088	-0.223
-555.442	84.420	0.141	0.154
-554.427	181.155	0.140	0.205
-553.412	132.998	-0.194	0.251
-552.398	-51.100	-0.409	-0.191
-551.383	-186.983	-0.258	0.004
-550.369	344.668	0.120	0.236
-549.354	61.716	-0.087	-0.087
-548.339	-49.377	-0.128	0.061
-547.325	2.414	-0.155	-0.112
-546.310	-59.291	-0.178	-0.076
-545.296	-146.932	-0.178	-0.015
-544.281	800.000	-0.034	0.109
-543.266	-33.406	-0.180	-0.099
-542.252	800.000	0.028	-0.089
-541.237	-61.682	0.234	0.098
-540.223	130.263	0.131	-0.168
-539.208	800.000	0.087	-0.313
-538.193	259.543	-0.245	-0.422
-537.179	181.821	-0.253	0.371
-536.164	-200.000	-0.010	0.219
-535.150	53.997	-0.300	0.287
-534.135	248.677	0.147	0.248
-533.121	-71.959	-0.313	-0.116
-532.106	800.000	0.076	-0.325
-531.091	-165.563	0.373	-0.016
-530.077	-95.310	0.119	0.032
-529.062	-48.397	0.137	-0.066
-528.048	-97.245	-0.164	0.043
-527.033	22.714	-0.172	0.140
-526.018	133.367	0.234	-0.302
-525.004	-76.111	-0.545	-0.192
-523.989	188.723	-0.220	-0.329
-522.975	-200.000	0.037	0.274
-521.960	267.689	-0.088	-0.153
-520.945	538.493	-0.042	-0.100
-519.931	338.623	-0.019	0.036
-518.916	180.899	-0.086	-0.126
-517.902	31.166	0.074	0.063
-516.887	72.797	-0.128	-0.133
-515.872	445.633	0.064	0.141
-514.858	337.102	0.085	-0.164
-513.843	-33.686	0.370	0.204
-512.829	-88.873	0.184	-0.054
-511.814	800.000	-0.076	-0.313
-510.799	-62.630	0.162	0.067
-509.785	800.000	0.071	-0.207
-508.770	800.000	0.059	-0.205
-507.756	32.036	-0.074	-0.063
-506.741	-200.000	0.038	0.253
-505.726	800.000	0.044	0.168
-504.712	-77.910	0.284	0.098
-503.697	-104.477	0.261	-0.060
-502.683	-155.464	0.493	0.032
-501.668	-114.507	-0.188	-0.036
-500.653	-5.202	-0.232	0.159
-499.639	-78.955	-0.391	-0.133
-498.624	-83.609	0.288	-0.092
-497.610	115.536	0.266	-0.325
-496.595	-68.678	-0.085	0.033
-495.581	46.936	0.255	-0.236
-494.566	800.000	-0.049	0.160
-493.551	-4.892	-0.057	0.039
-492.537	-200.000	-0.032	0.287
-491.522	200.279	0.297	0.454
-490.508	590.605	-0.214	0.527
-489.493	-101.077	0.120	-0.029
-488.478	-110.321	-0.089	-0.018
-487.464	-15.208	0.227	-0.145
-486.449	-65.614	0.117	0.047
-485.435	-200.000	0.003	0.045
-484.420	52.223	0.127	0.120
-483.405	442.305	-0.035	0.076
-482.391	-122.509	-0.149	0.024
-481.376	21.178	0.142	0.115
-480.362	89.477	0.106	-0.118
-479.347	355.989	-0.016	-0.032
-478.332	-91.146	0.193	0.055
-477.318	-105.655	-0.093	-0.021
-476.303	-118.185	-0.200	0.035
-475.289	-200.000	-0.029	0.275
-474.274	-200.000	0.021	0.184
-473.259	587.538	-0.119	-0.293
-472.245	-16.808	-0.296	-0.187
-471.230	-200.000	0.007	0.332
-470.216	-200.000	0.004	-0.359
-469.201	-58.314	0.138	-0.060
-468.186	-113.984	-0.144	0.028
-467.172	800.000	0.056	0.155
-466.157	-200.000	-0.013	0.276
-465.143	-68.120	-0.338	-0.131
-464.128	489.083	-0.026	0.058
-463.113	800.000	-0.074	0.207
-462.099	-156.974	-0.295	0.018
-461.084	205.080	-0.157	-0.242
-460.070	70.569	-0.129	0.133
-459.055	110.593	-0.129	0.154
-458.040	620.500	-0.040	-0.101
-457.026	-2.955	-0.167	-0.116
-456.011	-165.898	0.299	-0.013
-454.997	404.084	-0.107	0.224
-453.982	62.619	-0.342	0.340
-452.968	-75.862	0.047	0.017
-451.953	-95.828	-0.462	0.123
-450.938	-20.462	0.245	-0.150
-449.924	-157.893	-0.179	0.011
-448.909	19.305	0.042	0.033
-447.895	-200.000	0.023	0.119
-446.880	511.390	0.161	0.372
-445.865	-135.358	-0.280	-0.033
-444.851	289.172	0.044	-0.079
-443.836	39.392	-0.242	-0.216
-442.822	18.983	0.135	-0.107
-441.807	-7.433	0.271	-0.182
-440.792	-108.828	0.271	-0.058
-439.778	231.572	-0.046	-0.074
-438.763	-25.363	-0.131	-0.077
-437.749	-22.876	-0.237	0.142
-436.734	494.400	0.079	0.181
-435.719	158.661	0.083	-0.114
-434.705	80.026	-0.118	0.126
-433.690	47.115	0.101	-0.093
-432.676	-200.000	-0.032	0.151
-431.661	800.000	-0.038	0.143
-430.646	-133.346	0.269	-0.034
-429.632	800.000	0.095	0.354
-428.617	367.624	-0.078	-0.157
-427.603	541.730	-0.173	-0.409
-426.588	-200.000	-0.003	0.028
-425.573	-200.000	-0.049	-0.336
-424.559	-61.829	0.111	-0.046
-423.544	-200.000	-0.027	-0.202
-422.530	125.099	0.115	-0.144
-421.515	31.301	0.079	0.067
-420.500	635.144	-0.176	-0.444
-419.486	-21.053	-0.256	0.156
-418.471	-180.269	-0.098	-0.002
-417.457	-200.000	-0.010	-0.122
-416.442	-84.911	0.260	0.081
-415.428	800.000	0.019	-0.071
-414.413	-74.112	-0.330	-0.119
-413.398	60.773	-0.063	0.062
-412.384	-155.650	-0.422	0.027
-411.369	-87.671	0.168	-0.050
-410.355	-26.756	-0.259	0.150
-409.340	22.571	0.107	0.087
-408.325	-44.899	-0.189	-0.093
-407.311	460.421	0.116	-0.256
-406.296	800.000	-0.091	0.304
-405.282	306.871	-0.073	0.135
-404.267	533.818	-0.109	-0.257
-403.252	-78.474	-0.231	-0.079
-402.238	11.929	-0.082	0.063
-401.223	-106.144	0.215	0.048
-400.209	9.264	-0.261	0.196
-399.194	-159.779	0.130	0.007
-398.179	-175.739	-0.135	0.004
-397.165	35.732	0.021	-0.018
-396.150	296.723	0.164	-0.299
-395.136	392.399	-0.015	0.030
-394.121	-67.162	-0.277	-0.108
-393.106	35.017	0.216	0.188
-392.092	343.650	-0.030	-0.058
-391.077	71.489	0.180	0.186
-390.063	-200.000	0.034	0.489
-389.048	-113.376	-0.172	-0.034
-388.033	307.541	0.192	-0.356
-387.019	206.346	0.081	0.125
-386.004	-4.435	0.132	-0.090
-384.990	112.383	0.132	-0.159
-383.975	113.557	-0.040	-0.048
-382.960	39.907	-0.097	-0.087
-381.946	-60.780	0.169	-0.071
-380.931	-73.404	-0.308	-0.112
-379.917	-200.000	0.008	-0.159
-378.902	-22.079	-0.211	0.127
-377.888	-200.000	0.076	0.544
-376.873	-173.319	-0.241	-0.007
-375.858	-200.000	-0.033	-0.184
-374.844	-85.713	-0.228	-0.070
-373.829	349.146	-0.072	0.140
-372.815	374.267	0.202	0.408
-371.800	268.958	-0.134	0.233
-370.785	-76.553	-0.118	0.041
-369.771	33.426	0.071	-0.061
-368.756	-200.000	-0.012	-0.397
-367.742	26.702	-0.044	-0.037
-366.727	800.000	-0.096	0.347
-365.712	232.494	0.159	-0.259
-364.698	-104.748	0.187	0.043
-363.683	265.828	-0.182	0.315
-362.669	-97.050	0.114	0.030
-361.654	-116.693	0.392	0.071
-360.639	290.367	-0.173	0.312
-359.625	-200.000	0.089	0.390
-358.610	748.736	0.051	0.136
-357.596	-123.623	0.143	-0.023
-356.581	-11.959	0.138	-0.090
-355.566	120.014	0.015	0.019
-354.552	-97.058	-0.377	0.098
-353.537	-200.000	-0.010	0.249
-352.523	-12.274	0.204	0.133
-351.508	800.000	-0.061	0.226
-350.493	169.406	0.073	-0.104
-349.479	142.653	-0.089	0.117
-348.464	223.064	-0.187	0.299
-347.450	133.449	-0.138	0.177
-346.435	276.392	0.104	0.183
-345.420	-114.871	0.190	0.036
-344.406	115.216	0.247	-0.299
-343.391	638.220	0.103	-0.260
-342.377	-40.768	0.279	0.143
-341.362	-45.083	0.074	0.036
-340.348	-43.715	0.256	0.128
-339.333	-118.131	0.395	0.070
-338.318	-98.727	-0.246	0.062
-337.304	28.507	-0.120	0.100
-336.289	362.650	-0.034	0.069
-335.275	-128.929	-0.404	0.056
-334.260	-107.460	-0.148	-0.032
-333.245	-57.612	-0.173	0.075
-332.231	-105.788	-0.196	0.044
-331.216	-200.000	-0.005	0.048
-330.202	-135.399	-0.314	0.037
-329.187	-200.000	0.028	-0.260
-328.172	-94.467	-0.423	0.114
-327.158	-40.413	0.143	0.073
-326.143	402.341	-0.072	0.150
-325.129	311.166	0.188	-0.349
-324.114	78.856	0.163	0.173
-323.099	-0.596	-0.179	0.126
-322.085	800.000	-0.148	-0.423
-321.070	-33.500	0.266	-0.146
-320.056	108.165	0.133	0.157
-319.041	800.000	-0.097	-0.336
-318.026	-72.489	0.187	-0.068
-317.012	-200.000	-0.013	-0.240
-315.997	-173.735	0.297	-0.009
-314.983	168.294	0.200	-0.282
-313.968	377.895	-0.154	-0.312
-312.953	-200.000	0.000	0.259
-311.939	42.637	0.314	0.283
-310.924	-200.000	0.233	-0.001
-309.910	-166.799	-0.535	-0.022
-308.895	-166.263	0.381	0.016
-307.880	183.892	0.127	0.187
-306.866	-200.000	-0.020	0.270
-305.851	-130.575	0.265	0.035
-304.837	249.565	-0.111	0.186
-303.822	-21.712	-0.087	0.053
-302.807	39.536	-0.212	0.188
-301.793	-78.972	0.250	-0.084
-300.778	175.511	-0.179	0.257
-299.764	-200.000	-0.044	0.356
-298.749	-120.635	-0.176	0.029
-297.735	-58.795	-0.030	-0.013
-296.720	-13.497	0.230	-0.147
-295.705	160.835	-0.181	-0.250
-294.691	-114.127	-0.199	-0.038
-293.676	-51.770	-0.313	0.144
-292.662	-2.178	-0.266	-0.184
-291.647	-3.875	-0.090	-0.062
-290.632	800.000	0.124	-0.376
-289.618	95.604	-0.069	0.078
-288.603	-200.000	-0.015	-0.205
-287.589	260.722	-0.043	-0.073
-286.574	-200.000	0.053	0.462
-285.559	275.381	0.055	-0.096
-284.545	800.000	-0.167	-0.483
-283.530	800.000	-0.020	-0.075
-282.516	-200.000	-0.027	0.340
-281.501	387.414	0.136	0.278
-280.486	-85.754	-0.138	0.042
-279.472	491.702	0.052	-0.118
-278.457	176.449	0.134	-0.193
-277.443	-121.125	0.174	0.029
-276.428	-183.371	-0.201	0.003
-275.413	-64.168	-0.405	0.163
-274.399	-80.576	0.172	-0.057
-273.384	-107.529	0.154	0.033
-272.370	800.000	-0.063	0.199
-271.355	369.669	0.187	-0.374
-270.340	-162.378	0.418	0.021
-269.326	800.000	0.106	-0.313
-268.311	19.149	0.106	-0.084
-267.297	144.838	-0.105	-0.139
-266.282	-200.000	0.010	0.130
-265.267	28.304	0.097	0.081
-264.253	-93.675	0.138	-0.038
-263.238	263.072	0.050	0.086
-262.224	-120.363	0.141	-0.024
-261.209	-200.000	0.016	-0.090
-260.195	778.587	-0.058	0.157
-259.180	41.017	0.060	0.053
-258.165	227.955	-0.284	0.456
-257.151	-143.318	0.165	0.016
-256.136	-95.121	0.293	-0.078
-255.122	1.901	-0.201	0.143
-254.107	-127.566	-0.193	0.028
-253.092	276.766	0.176	0.308
-252.078	74.782	0.192	0.199
-251.063	-70.107	0.362	0.136
-250.049	-200.000	0.293	0.001
-249.034	-170.575	0.342	0.012
-248.019	-108.696	0.168	0.036
-247.005	-66.854	0.040	-0.016
-245.990	-14.431	-0.113	0.072
-244.976	178.956	0.066	-0.096
-243.961	-119.482	0.289	0.049
-242.946	464.258	0.082	0.180
-241.932	-200.000	0.008	0.255
-240.917	-145.381	0.155	-0.014
-239.903	-56.047	0.019	0.008
-238.888	39.247	-0.106	-0.093
-237.873	800.000	0.126	0.400
-236.859	-55.843	0.146	-0.064
-235.844	-134.446	-0.140	-0.017
-234.830	105.851	-0.072	0.085
-233.815	-59.378	0.188	-0.080
-232.800	192.148	0.062	0.092
-231.786	-17.200	-0.031	0.019
-230.771	-200.000	0.002	0.010
-229.757	-200.000	0.055	0.289
-228.742	-200.000	-0.004	0.057
-227.727	597.321	0.095	0.233
-226.713	-132.010	0.210	0.027
-225.698	623.422	-0.018	0.045
-224.684	-200.000	0.020	-0.368
-223.669	800.000	-0.074	-0.250
-222.655	18.976	-0.115	-0.091
-221.640	-200.000	0.008	-0.086
-220.625	-147.896	-0.229	0.019
-219.611	-200.000	0.007	-0.203
-218.596	-157.913	-0.354	0.021
-217.582	-115.616	-0.173	0.032
-216.567	-99.641	0.269	0.067
-215.552	-200.000	0.014	-0.214
-214.538	-146.044	-0.239	0.021
-213.523	-0.181	0.176	0.124
-212.509	60.694	0.165	0.162
-211.494	-200.000	-0.013	0.097
-210.479	-200.000	0.031	-0.313
-209.465	-200.000	-0.021	-0.422
-208.450	800.000	-0.162	-0.532
-207.436	42.348	0.078	0.069
-206.421	-96.354	0.197	-0.051
-205.406	268.562	-0.176	-0.304
-204.392	-200.000	0.023	-0.171
-203.377	130.407	0.147	0.186
-202.363	233.668	0.054	0.087
-201.348	193.347	0.104	-0.155
-200.333	28.988	0.356	0.297
-199.319	-110.780	-0.122	0.025
-198.304	490.975	-0.122	0.276
-197.290	124.298	-0.156	0.193
-196.275	59.862	-0.192	-0.187
-195.260	39.843	0.168	-0.149
-194.246	-200.000	0.007	0.035
-193.231	-76.041	-0.046	-0.016
-192.217	-200.000	0.052	-0.441
-191.202	800.000	0.085	-0.240
-190.187	65.541	-0.118	0.118
-189.173	-57.973	-0.136	-0.058
-188.158	-43.389	0.124	0.062
-187.144	-48.198	-0.068	0.032
-186.129	63.679	0.142	-0.141
-185.114	-98.379	-0.255	-0.064
-184.100	142.768	0.009	-0.012
-183.085	441.888	0.072	-0.155
-182.071	-200.000	-0.006	-0.129
-181.056	-97.076	-0.210	0.054
-180.042	-60.502	0.066	0.028
-179.027	-147.964	0.176	0.014
-178.012	-120.855	0.149	0.025
-176.998	36.332	0.177	-0.154
-175.983	-200.000	-0.013	0.386
-174.969	47.652	0.073	-0.067
-173.954	235.984	0.092	-0.150
-172.939	160.790	-0.134	0.184
-171.925	800.000	-0.095	0.339
-170.910	-11.337	0.239	-0.155
-169.896	577.555	-0.062	0.150
-168.881	214.672	-0.095	-0.148
-167.866	4.282	0.232	-0.167
-166.852	11.387	-0.218	-0.164
-165.837	-132.992	0.080	0.010
-164.823	-125.775	-0.122	-0.018
-163.808	156.545	0.030	0.041
-162.793	-112.202	0.133	-0.026
-161.779	-200.000	0.045	0.216
-160.764	-75.862	0.165	-0.057
-159.750	-134.764	0.289	-0.035
-158.735	-53.208	0.369	0.167
-157.720	800.000	-0.020	-0.068
-156.706	800.000	-0.104	0.437
-155.691	-200.000	-0.024	0.275
-154.677	-32.093	-0.159	-0.087
-153.662	-200.000	-0.020	-0.115
-152.647	100.084	0.149	0.170
-151.633	800.000	-0.028	0.098
-150.618	-21.912	0.049	-0.029
-149.604	206.855	0.213	0.326
-148.589	29.102	-0.141	0.118
-147.574	800.000	0.055	0.218
-146.560	-200.000	-0.008	0.190
-145.545	-200.000	-0.008	0.394
-144.531	82.412	-0.154	-0.164
-143.516	-20.824	-0.236	0.142
-142.502	-40.199	-0.071	0.036
-141.487	766.027	0.092	-0.247
-140.472	675.768	-0.137	0.351
-139.458	-1.714	-0.189	-0.131
-138.443	-123.266	0.365	-0.057
-137.429	-15.625	-0.131	0.082
-136.414	-99.986	-0.196	0.048
-135.399	-200.000	-0.007	-0.229
-134.385	132.591	0.008	0.010
-133.370	-79.144	0.071	-0.024
-132.356	-142.824	-0.166	-0.016
-131.341	-200.000	-0.011	-0.125
-130.326	47.266	0.342	-0.313
-129.312	295.367	0.106	0.190
-128.297	643.838	-0.156	0.391
-127.283	300.697	0.068	0.123
-126.268	132.676	-0.078	-0.099
-125.253	564.966	0.100	0.237
-124.239	-158.353	-0.158	-0.009
-123.224	222.908	-0.159	0.251
-122.210	193.736	-0.082	-0.121
-121.195	8.647	-0.250	0.185
-120.180	272.602	-0.215	-0.373
-119.166	150.698	-0.109	-0.145
-118.151	366.194	-0.119	-0.235
-117.137	-110.723	0.389	0.079
-116.122	-20.486	0.404	-0.244
-115.107	-200.000	-0.053	-0.317
-114.093	-88.057	0.251	0.074
-113.078	-61.297	0.151	0.062
-112.064	265.151	0.070	0.120
-111.049	-200.000	0.010	0.121
-110.034	-200.000	-0.093	0.426
-109.020	800.000	-0.071	-0.221
-108.005	121.731	-0.167	0.205
-106.991	10.414	0.240	0.179
-105.976	-53.010	0.074	-0.033
-104.962	80.255	-0.126	0.133
-103.947	-152.865	-0.390	-0.027
-102.932	-96.300	0.268	0.070
-101.918	169.363	0.106	0.148
-100.903	197.239	0.059	-0.088
-99.889	-200.000	0.001	0.161
-98.874	-48.276	0.191	-0.090
-97.859	317.233	-0.123	-0.228
-96.845	-86.954	-0.179	0.054
-95.830	5.596	-0.275	0.199
-94.816	-200.000	0.020	0.244
-93.801	-21.333	-0.159	-0.095
-92.786	-200.000	-0.009	-0.274
-91.772	683.301	0.113	-0.290
-90.757	-108.342	0.132	0.028
-89.743	-63.011	0.124	-0.050
-88.728	800.000	0.045	-0.163
-87.713	-160.357	-0.195	0.010
-86.699	-200.000	0.019	-0.153
-85.684	-29.143	-0.167	0.094
-84.670	124.835	0.134	0.165
-83.655	-2.851	-0.101	0.069
-82.640	-200.000	0.015	-0.184
-81.626	271.325	0.098	-0.170
-80.611	142.836	0.172	0.224
-79.597	-61.471	-0.202	0.083
-78.582	147.492	0.053	-0.070
-77.567	-200.000	0.039	-0.168
-76.553	800.000	-0.039	0.133
-75.538	-91.797	0.261	-0.073
-74.524	47.695	-0.133	-0.122
-73.509	-106.805	0.357	0.078
-72.494	-25.264	0.146	0.085
-71.480	-28.282	0.243	-0.138
-70.465	-92.364	-0.061	0.017
-69.451	-200.000	0.084	-0.400
-68.436	-98.517	-0.053	-0.013
-67.422	21.228	0.191	-0.152
-66.407	40.719	0.223	-0.197
-65.392	-149.999	-0.220	0.017
-64.378	-200.000	0.005	0.171
-63.363	286.268	0.183	-0.324
-62.349	-153.622	0.136	-0.009
-61.334	19.724	-1.066	-0.841
-60.319	23.593	0.536	0.432
-59.305	800.000	-0.196	-0.825
-58.290	317.173	0.624	1.156
-57.276	-200.000	0.284	1.526
-56.261	-200.000	102.302	616.543
-55.246	530.264	1458.599	3376.121
-54.232	184.057	2651.706	3844.812
-53.217	115.120	2146.446	2566.639
-52.203	42.661	1589.254	1417.341
-51.188	34.172	1323.854	1130.455
-50.173	30.918	1282.455	1076.302
-49.159	55.138	1333.968	1262.728
-48.144	55.838	1350.588	1282.523
-47.130	34.287	1306.540	1116.166
-46.115	30.722	1289.355	1080.785
-45.100	30.614	1284.150	1075.754
-44.086	30.550	1281.727	1073.312
-43.071	30.520	1279.622	1071.332
-42.057	30.381	1278.040	1069.163
-41.042	30.389	1276.215	1067.640
-40.027	30.558	1274.640	1067.255
-39.013	30.472	1272.414	1064.851
-37.998	30.515	1270.778	1063.689
-36.984	30.595	1268.742	1062.398
-35.969	30.571	1267.360	1061.062
-34.954	30.565	1265.619	1059.530
-33.940	30.607	1265.222	1059.391
-32.925	30.656	1263.676	1058.334
-31.911	30.551	1262.416	1056.644
-30.896	30.648	1260.544	1055.581
-29.881	30.573	1259.491	1054.234
-28.867	30.653	1257.424	1052.915
-27.852	30.659	1256.568	1052.193
-26.838	30.799	1254.763	1051.427
-25.823	30.641	1253.836	1049.716
-24.809	30.733	1252.172	1048.802
-23.794	30.666	1251.482	1047.803
-22.779	30.664	1249.569	1046.152
-21.765	30.721	1248.583	1045.603
-20.750	30.698	1247.088	1044.179
-19.736	30.499	1246.446	1042.487
-18.721	30.486	1244.749	1040.950
-17.706	30.545	1243.816	1040.460
-16.692	30.435	1242.542	1038.738
-15.677	30.416	1242.238	1038.339
-14.663	30.464	1240.358	1036.992
-13.648	30.540	1239.581	1036.725
-12.633	30.518	1238.686	1035.813
-11.619	30.564	1237.766	1035.262
-10.604	30.464	1237.097	1034.104
-9.590	30.548	1235.756	1033.409
-8.575	30.591	1234.443	1032.505
-7.560	30.507	1233.762	1031.433
-6.546	30.371	1233.326	1030.269
-5.531	30.412	1232.273	1029.578
-4.517	30.513	1230.867	1028.920
-3.502	30.557	1230.583	1028.887
-2.487	30.520	1229.707	1027.906
-1.473	30.301	1225.917	1023.494
-0.458	28.929	1210.537	1003.133
0.556	23.031	1193.238	964.939
1.571	19.415	1197.648	948.573
2.586	18.484	1212.920	955.399
3.600	18.457	1202.519	946.974
4.615	13.502	1131.628	865.239
5.629	4.315	1057.141	763.190
6.644	0.008	1037.516	728.136
7.659	-0.341	1035.030	724.637
8.673	-0.385	1033.624	723.380
9.688	-0.471	1032.026	721.780
10.702	-0.098	1031.139	722.893
11.717	5.627	1039.179	756.164
12.731	14.604	1051.958	809.099
13.746	18.851	1056.551	833.201
14.761	19.233	1057.140	835.444
15.775	19.247	1056.173	834.673
16.790	19.082	1055.444	833.222
17.804	19.090	1054.884	832.749
18.819	18.999	1054.370	831.827
19.834	19.133	1054.227	832.289
20.848	19.189	1053.198	831.672
21.863	19.287	1052.409	831.449
22.877	18.874	1052.578	829.515
23.892	19.013	1051.708	829.427
24.907	19.067	1051.275	829.270
25.921	19.052	1049.550	827.765
26.936	19.127	1048.137	826.940
27.950	19.008	1046.801	825.238
28.965	18.880	1044.542	822.774
29.980	18.962	1043.176	822.016
30.994	19.091	1042.346	821.906
32.009	19.097	1040.928	820.743
33.023	18.996	1039.966	819.432
34.038	18.979	1039.141	818.630
35.053	19.301	1037.823	819.048
36.067	19.184	1037.093	817.843
37.082	19.253	1036.541	817.666
38.096	19.339	1036.123	817.671
39.111	19.231	1035.661	816.720
40.126	19.412	1033.130	815.507
41.140	18.968	1031.990	812.438
42.155	18.818	1030.491	810.478
43.169	18.886	1029.784	810.171
44.184	18.828	1028.984	809.197
45.199	18.797	1027.755	808.014
46.213	18.892	1026.321	807.261
47.228	18.926	1025.720	806.876
48.242	18.942	1024.772	806.137
49.257	19.137	1023.549	806.013
50.271	19.179	1022.882	805.616
51.286	19.044	1022.302	804.456
52.301	19.194	1020.646	803.779
53.315	19.115	1020.334	803.096
54.330	19.034	1019.487	801.981
55.344	19.092	1018.641	801.516
56.359	19.093	1017.081	800.221
57.374	18.917	1016.340	798.747
58.388	19.000	1015.930	798.743
59.403	18.812	1015.165	797.195
60.417	18.760	1013.875	795.871
61.432	18.943	1013.271	796.174
62.447	18.955	1012.808	795.795
63.461	18.964	1012.044	795.169
64.476	18.952	1010.700	793.988
65.490	18.937	1009.945	793.256
66.505	19.050	1008.716	792.738
67.520	18.946	1008.411	791.948
68.534	18.831	1006.999	790.241
69.549	18.461	1006.325	787.944
70.563	18.451	1005.497	787.177
71.578	18.582	1004.554	786.970
72.593	18.525	1003.245	785.617
73.607	18.580	1002.534	785.242
74.622	18.920	1002.400	786.624
75.636	18.899	1001.378	785.652
76.651	18.787	1000.529	784.410
77.666	18.593	1000.179	783.180
78.680	18.834	999.431	783.621
79.695	18.706	999.012	782.641
80.709	18.974	997.793	782.838
81.724	18.829	997.026	781.504
82.739	18.841	996.460	781.049
83.753	19.179	995.575	781.822
84.768	19.478	994.733	782.446
85.782	19.366	994.021	781.307
86.797	19.322	993.303	780.475
87.812	19.199	991.975	778.807
88.826	19.386	990.684	778.568
89.841	19.342	989.865	777.659
90.855	19.319	989.118	776.900
91.870	19.264	988.077	775.767
92.884	19.239	986.787	774.570
93.899	19.091	986.101	773.299
94.914	19.409	984.843	773.670
95.928	19.234	984.349	772.431
96.943	18.977	982.812	770.006
97.957	18.832	981.826	768.515
98.972	18.545	980.626	766.226
99.987	18.693	980.237	766.515
101.001	19.047	979.111	767.144
102.016	19.133	977.776	766.413
103.030	19.085	977.050	765.566
104.045	18.886	976.432	764.127
105.060	18.683	975.512	762.441
106.074	18.902	974.719	762.723
107.089	19.256	974.369	763.949
108.103	19.192	972.803	762.375
109.118	19.050	971.462	760.627
110.133	19.042	970.704	759.931
111.147	18.890	969.577	758.310
112.162	18.792	968.316	756.826
113.176	18.968	967.807	757.135
114.191	18.796	967.237	755.865
115.206	18.545	965.499	753.337
116.220	18.489	965.548	753.064
117.235	18.702	964.028	752.745
118.249	18.685	963.298	752.034
119.264	18.758	962.605	751.745
120.279	18.651	962.047	750.775
121.293	18.711	961.350	750.431
122.308	18.869	959.835	749.871
123.322	18.667	959.005	748.276
124.337	18.594	957.616	746.805
125.352	18.292	955.818	744.027
126.366	18.115	955.095	742.627
127.381	18.735	954.826	745.045
128.395	19.207	954.180	746.521
129.410	19.268	953.138	745.902
130.424	19.221	952.628	745.233
131.439	19.108	951.759	744.000
132.454	19.075	950.645	742.920
133.468	19.106	949.414	742.029
134.483	19.270	948.743	742.142
135.497	19.457	947.874	742.201
136.512	19.345	947.387	741.275
137.527	19.444	946.404	740.863
138.541	19.376	945.863	740.084
139.556	19.482	944.884	739.708
140.570	19.394	944.041	738.605
141.585	19.451	942.673	737.712
142.600	19.288	942.221	736.597
143.614	19.585	941.553	737.277
144.629	19.708	940.257	736.721
145.643	19.371	939.269	734.449
146.658	19.275	938.364	733.265
147.673	19.297	936.958	732.197
148.687	19.295	936.138	731.484
149.702	19.395	934.744	730.754
150.716	19.222	934.282	729.595
151.731	19.261	933.848	729.357
152.746	19.441	933.412	729.711
153.760	19.602	932.538	729.643
154.775	19.545	932.078	728.981
155.789	19.503	931.030	727.919
156.804	19.402	930.146	726.739
157.819	19.621	929.201	726.856
158.833	19.621	928.331	726.112
159.848	19.589	927.495	725.261
160.862	19.509	926.195	723.842
161.877	19.560	925.615	723.537
162.892	19.694	924.626	723.263
163.906	19.556	923.999	722.132
164.921	19.657	922.642	721.428
165.935	19.618	921.771	720.519
166.950	19.559	921.154	719.730
167.964	19.524	920.198	718.772
168.979	19.434	919.045	717.433
169.994	19.396	918.211	716.563
171.008	19.395	917.774	716.153
172.023	19.426	917.169	715.744
173.037	19.253	915.585	713.729
174.052	19.134	914.788	712.552
175.067	19.379	913.994	712.886
176.081	19.573	913.446	713.195
177.096	19.343	912.780	711.662
178.110	19.120	912.008	710.080
179.125	18.980	911.241	708.844
180.140	19.127	910.506	708.813
181.154	19.284	909.870	708.899
182.169	19.391	910.059	709.423
183.183	19.624	909.317	709.743
184.198	19.488	908.173	708.229
185.213	19.506	907.626	707.813
186.227	19.576	906.849	707.429
187.242	19.488	906.428	706.680
188.256	19.514	905.527	706.019
189.271	19.565	905.343	706.022
190.286	19.324	903.778	703.758
191.300	18.967	902.242	701.044
192.315	18.170	901.487	697.146
193.329	18.077	901.203	696.485
194.344	19.019	901.254	700.300
195.359	19.418	900.712	701.441
196.373	19.479	900.331	701.331
197.388	19.184	899.719	699.593
198.402	19.308	898.934	699.423
199.417	19.253	898.263	698.619
200.432	19.058	896.839	696.659
201.446	19.032	896.309	696.080
202.461	18.997	896.062	695.685
203.475	18.116	894.282	690.684
204.490	17.561	893.131	687.496
205.504	18.608	893.037	691.586
206.519	19.122	892.865	693.462
207.534	19.256	892.666	693.786
208.548	19.527	892.266	694.503
209.563	19.259	891.393	692.686
210.577	19.334	890.324	692.095
211.592	19.602	890.247	693.048
212.607	19.462	889.508	691.852
213.621	19.600	888.807	691.795
214.636	19.615	888.052	691.209
215.650	19.649	887.403	690.776
216.665	19.714	886.844	690.541
217.680	19.633	885.533	689.137
218.694	19.320	884.213	686.800
219.709	19.089	883.953	685.618
220.723	19.362	884.032	686.707
221.738	19.414	883.258	686.252
222.753	19.397	882.538	685.564
223.767	19.535	882.132	685.736
224.782	19.603	881.712	685.617
225.796	19.636	880.771	684.958
226.811	18.939	879.871	681.436
227.826	18.501	877.927	678.136
228.840	18.790	877.845	679.156
229.855	18.743	877.019	678.271
230.869	18.417	875.992	676.130
231.884	18.932	876.094	678.181
232.899	19.620	876.186	680.906
233.913	19.547	875.273	679.850
234.928	19.567	874.915	679.587
235.942	19.238	874.285	677.744
236.957	19.108	873.376	676.470
237.972	19.220	872.827	676.424
238.986	19.398	872.199	676.576
240.001	19.267	871.433	675.410
241.015	19.340	870.600	674.991
242.030	19.448	870.541	675.308
243.045	19.745	869.530	675.625
244.059	19.673	869.648	675.372
245.074	19.424	868.568	673.502
246.088	19.090	866.952	670.889
247.103	19.383	866.968	671.986
248.117	19.864	866.948	673.784
249.132	19.981	866.538	673.861
250.147	19.937	866.154	673.330
251.161	20.151	865.301	673.439
252.176	20.248	864.246	672.936
253.190	20.248	863.984	672.673
254.205	20.396	863.597	672.885
255.220	20.384	862.937	672.264
256.234	20.171	862.264	670.856
257.249	20.107	861.530	669.977
258.263	20.241	860.520	669.651
259.278	20.224	859.893	669.036
260.293	20.293	859.229	668.728
261.307	20.216	858.367	667.701
262.322	19.989	857.175	665.842
263.336	19.180	855.266	661.195
264.351	18.250	853.461	656.177
265.366	18.378	853.264	656.458
266.380	19.394	854.132	660.963
267.395	19.812	854.024	662.424
268.409	19.887	852.841	661.732
269.424	20.041	852.522	662.015
270.439	20.059	852.130	661.724
271.453	20.302	851.249	661.906
272.468	20.251	851.293	661.688
273.482	20.367	850.526	661.475
274.497	19.865	849.127	658.420
275.512	19.646	848.317	656.902
276.526	20.107	848.070	658.400
277.541	20.201	848.036	658.674
278.555	19.917	846.541	656.377
279.570	19.888	845.657	655.525
280.585	19.944	845.429	655.501
281.599	19.831	844.818	654.543
282.614	19.437	843.331	651.843
283.628	19.600	842.903	652.071
284.643	19.832	842.740	652.764
285.657	19.529	841.479	650.589
286.672	19.038	841.149	648.424
287.687	19.753	840.670	650.690
288.701	19.821	839.821	650.232
289.716	19.505	839.156	648.471
290.730	19.452	838.563	647.755
291.745	19.148	837.243	645.540
292.760	19.407	837.642	646.761
293.774	20.346	837.872	650.402
294.789	20.689	837.452	651.302
295.803	20.675	836.885	650.750
296.818	20.817	836.163	650.663
297.833	20.282	835.154	647.823
298.847	20.212	834.275	646.822
299.862	20.583	834.246	648.128
300.876	20.714	833.626	648.077
301.891	20.450	832.937	646.499
302.906	20.094	832.059	644.438
303.920	20.288	831.524	644.686
304.935	20.420	831.462	645.072
305.949	20.439	831.108	644.810
306.964	20.268	830.498	643.646
307.979	20.383	829.541	643.276
308.993	20.835	829.641	644.969
310.008	20.697	828.533	643.539
311.022	20.522	828.113	642.510
312.037	20.481	827.563	641.877
313.052	20.175	826.545	639.898
314.066	19.421	825.425	636.196
315.081	19.163	825.268	635.068
316.095	19.995	824.976	637.853
317.110	20.318	824.647	638.729
318.125	19.730	822.571	634.908
319.139	18.816	821.838	630.931
320.154	18.874	821.350	630.713
321.168	19.736	821.824	634.184
322.183	20.020	822.219	635.476
323.197	20.231	821.817	635.882
324.212	20.451	820.987	635.989
325.227	20.487	820.278	635.514
326.241	20.328	819.565	634.327
327.256	20.450	819.100	634.356
328.270	20.332	818.430	633.349
329.285	20.065	817.693	631.750
330.300	20.051	816.874	631.010
331.314	20.211	816.515	631.261
332.329	20.372	816.506	631.783
333.343	20.498	815.735	631.590
334.358	20.553	815.428	631.496
335.373	20.637	814.990	631.405
336.387	20.952	814.862	632.391
337.402	20.835	815.101	632.096
338.416	20.904	814.399	631.745
339.431	20.757	813.988	630.840
340.446	21.084	813.687	631.736
341.460	20.959	813.263	630.898
342.475	20.761	812.317	629.392
343.489	20.984	811.891	629.813
344.504	21.080	812.087	630.255
345.519	21.269	811.521	630.443
346.533	21.318	810.915	630.091
347.548	21.205	810.807	629.545
348.562	21.325	809.716	629.074
349.577	21.385	809.607	629.149
350.592	21.409	808.850	628.591
351.606	21.361	808.113	627.793
352.621	21.253	807.148	626.597
353.635	21.107	806.421	625.456
354.650	20.394	805.085	621.813
355.665	19.621	803.595	617.842
356.679	19.862	803.445	618.533
357.694	20.409	802.918	620.026
358.708	20.418	802.502	619.684
359.723	20.683	802.374	620.474
360.738	20.898	802.393	621.200
361.752	20.890	801.942	620.769
362.767	21.251	801.617	621.746
363.781	21.577	800.930	622.318
364.796	21.505	800.692	621.822
365.810	21.590	800.079	621.595
366.825	21.486	799.930	621.054
367.840	21.291	798.733	619.376
368.854	21.014	797.996	617.770
369.869	21.071	797.563	617.583
370.883	21.050	797.399	617.327
371.898	20.841	796.810	616.075
372.913	20.981	796.368	616.174
373.927	21.161	795.821	616.334
374.942	21.424	795.472	616.935
375.956	21.313	795.213	616.288
376.971	21.507	794.833	616.623
377.986	21.517	794.782	616.563
379.000	21.607	793.630	615.933
380.015	21.494	793.089	615.060
381.029	21.392	793.097	614.654
382.044	21.549	792.556	614.733
383.059	21.608	791.528	614.087
384.073	21.594	791.482	613.949
385.088	21.441	790.956	612.949
386.102	21.442	790.474	612.528
387.117	21.356	789.750	611.609
388.132	20.840	788.825	609.038
389.146	20.696	787.838	607.715
390.161	20.999	787.319	608.320
391.175	21.402	786.987	609.415
392.190	20.920	786.414	607.237
393.205	19.776	784.277	601.556
394.219	18.511	782.910	596.059
395.234	18.810	782.608	596.817
396.248	20.078	784.038	602.265
397.263	21.270	784.789	606.932
398.278	21.226	784.534	606.527
399.292	21.109	783.610	605.353
400.307	21.089	782.904	604.684
401.321	21.240	782.447	604.802
402.336	21.631	782.764	606.349
403.350	21.894	782.646	607.114
404.365	21.986	782.337	607.138
405.380	22.220	781.937	607.582
406.394	22.385	781.248	607.564
407.409	22.141	780.981	606.460
408.423	22.038	780.557	605.721
409.438	22.133	780.077	605.622
410.453	22.254	779.752	605.734
411.467	22.259	779.056	605.157
412.482	22.251	779.007	605.036
413.496	22.194	778.257	604.203
414.511	22.105	778.253	603.843
415.526	22.131	777.550	603.334
416.540	22.079	776.746	602.478
417.555	22.081	775.805	601.701
418.569	21.950	775.911	601.280
419.584	21.811	775.259	600.248
420.599	21.807	774.721	599.763
421.613	158.873	1362.160	1798.161
422.628	137.151	1447.770	1798.264
