DTS Sentinel unit serial number:	SN413079Multiplexer serial number:	ORYXHardware model number:	OX4-SRSoftware version number:	ORYX F/W v4.00 Oryx Data Collector v3.7.2.0data status	okinstallation	princeton_trtdifferential loss correction	single-endedforward channel	channel 1reverse channel	N/Adate	2019/09/10time	20:28:11forward acquisition time	60.00reverse acquisition time	0.00gamma	496.2192k internal	0.2327k external	0.2327temperature offset calibration	0.9932default loss term (dB/km)	0.3790temperature slope calibration	1.0000multiplexer offset coefficient	1.0000multiplexer slope coefficient	1.0000fibre end	0.00T internal ref (°C)	32.05T ext. ref 1 (°C)	-0.31T ext. ref 2 (°C)	25.22length (m)	temperature (°C)	Stokes	anti-Stokes-747.200	-33.531	-0.193	0.107
-746.185	-53.059	0.108	-0.050
-745.171	-200.000	0.003	0.210
-744.156	100.262	-0.260	0.304
-743.142	-200.000	0.061	0.430
-742.127	88.544	-0.148	0.166
-741.112	-143.634	-0.177	-0.017
-740.098	800.000	-0.015	-0.064
-739.083	-30.623	0.156	0.089
-738.069	-200.000	0.016	0.325
-737.054	773.769	0.036	0.100
-736.039	-28.307	-0.104	-0.061
-735.025	-157.834	0.246	0.015
-734.010	-104.819	-0.284	-0.066
-732.996	103.962	-0.167	-0.198
-731.981	91.162	-0.176	-0.199
-730.966	22.292	0.063	-0.052
-729.952	225.639	-0.059	0.097
-728.937	-200.000	-0.033	-0.323
-727.923	-200.000	0.022	-0.122
-726.908	-146.425	-0.298	0.026
-725.894	98.618	0.178	-0.207
-724.879	-46.513	0.177	-0.088
-723.864	-1.752	-0.297	0.211
-722.850	800.000	-0.037	0.137
-721.835	32.491	-0.337	-0.293
-720.821	-57.615	-0.078	-0.034
-719.806	347.147	-0.069	-0.136
-718.791	322.851	0.117	-0.224
-717.777	-15.884	-0.275	-0.176
-716.762	-200.000	-0.027	0.241
-715.748	52.454	0.249	-0.239
-714.733	198.572	0.099	-0.152
-713.718	-200.000	-0.053	-0.325
-712.704	420.894	0.106	-0.228
-711.689	136.633	-0.059	-0.078
-710.675	-200.000	-0.005	0.189
-709.660	-128.343	-0.118	0.017
-708.645	51.390	-0.125	0.120
-707.631	-35.476	0.112	0.062
-706.616	-200.000	-0.005	-0.070
-705.602	800.000	-0.062	0.261
-704.587	63.940	0.141	0.142
-703.572	800.000	-0.106	0.337
-702.558	-200.000	0.005	0.051
-701.543	800.000	0.059	-0.257
-700.529	-200.000	0.001	-0.188
-699.514	-119.968	0.346	0.060
-698.499	165.582	-0.098	0.139
-697.485	212.716	0.088	0.139
-696.470	-108.930	0.095	0.020
-695.456	348.044	0.207	-0.410
-694.441	204.993	0.089	-0.138
-693.426	-200.000	-0.010	-0.138
-692.412	194.969	0.059	-0.090
-691.397	-200.000	-0.021	-0.117
-690.383	-200.000	0.013	-0.380
-689.368	800.000	0.055	-0.193
-688.354	42.529	-0.054	0.050
-687.339	144.588	0.300	-0.403
-686.324	215.090	-0.097	0.155
-685.310	150.073	-0.276	-0.376
-684.295	141.631	0.155	-0.207
-683.281	56.912	0.148	-0.145
-682.266	-69.402	-0.136	-0.053
-681.251	8.645	-0.152	-0.115
-680.237	-17.810	0.128	-0.081
-679.222	-71.534	-0.217	-0.082
-678.208	-200.000	0.011	-0.198
-677.193	99.599	-0.098	-0.114
-676.178	-40.644	0.182	-0.095
-675.164	800.000	-0.077	-0.228
-674.149	76.502	0.019	0.020
-673.135	-84.880	0.256	0.081
-672.120	-200.000	-0.023	-0.141
-671.105	-200.000	0.024	-0.387
-670.091	113.247	0.295	-0.360
-669.076	800.000	-0.044	0.136
-668.062	-200.000	0.023	-0.380
-667.047	-200.000	-0.046	-0.518
-666.032	10.499	-0.055	-0.042
-665.018	192.316	0.125	0.190
-664.003	800.000	0.084	0.293
-662.989	-63.491	-0.172	0.071
-661.974	-172.957	0.178	-0.006
-660.959	-74.131	0.079	0.029
-659.945	25.581	-0.117	0.098
-658.930	-106.258	0.366	-0.082
-657.916	-118.567	0.339	-0.060
-656.901	800.000	0.091	-0.278
-655.886	15.431	0.222	-0.175
-654.872	800.000	0.062	0.273
-653.857	-200.000	-0.011	0.060
-652.843	-143.615	0.314	-0.030
-651.828	-68.905	0.312	0.121
-650.814	158.678	0.081	-0.113
-649.799	-32.571	0.194	-0.109
-648.784	-86.367	0.166	0.051
-647.770	50.595	-0.236	0.224
-646.755	-23.863	-0.242	0.146
-645.741	-200.000	-0.002	-0.279
-644.726	-200.000	-0.022	0.225
-643.711	68.173	0.134	0.137
-642.697	263.970	-0.107	-0.186
-641.682	-200.000	0.012	-0.293
-640.668	126.373	-0.093	-0.118
-639.653	47.417	-0.119	-0.111
-638.638	706.560	0.140	-0.370
-637.624	119.357	-0.202	0.251
-636.609	-200.000	-0.010	-0.214
-635.595	209.266	0.164	-0.257
-634.580	-155.155	-0.215	-0.014
-633.565	-200.000	-0.025	0.177
-632.551	-121.993	0.203	0.033
-631.536	-95.583	0.285	-0.077
-630.522	-167.817	-0.398	0.016
-629.507	-88.703	-0.293	0.087
-628.492	179.712	0.084	-0.124
-627.478	67.929	0.271	0.279
-626.463	31.512	-0.132	0.114
-625.449	-132.577	0.237	-0.031
-624.434	-199.208	-0.165	0.001
-623.419	800.000	0.086	-0.285
-622.405	95.339	0.029	-0.033
-621.390	-28.447	0.165	-0.095
-620.376	-63.944	0.318	0.130
-619.361	-92.884	-0.184	-0.051
-618.346	-42.890	-0.062	0.032
-617.332	-200.000	-0.019	0.158
-616.317	-61.270	-0.189	-0.080
-615.303	-200.000	0.017	0.188
-614.288	75.654	-0.215	-0.228
-613.273	-200.000	-0.058	0.318
-612.259	527.455	0.049	-0.116
-611.244	218.300	-0.030	0.049
-610.230	-83.106	-0.184	0.059
-609.215	398.694	0.131	-0.275
-608.201	227.860	0.183	-0.299
-607.186	788.953	-0.076	-0.209
-606.171	-85.131	-0.268	-0.084
-605.157	-129.611	-0.066	-0.009
-604.142	-118.925	-0.227	-0.040
-603.128	-88.624	-0.301	0.090
-602.113	-43.253	0.289	0.147
-601.098	459.874	-0.034	0.076
-600.084	699.920	0.082	0.216
-599.069	86.707	0.101	0.112
-598.055	129.523	0.043	0.055
-597.040	-170.551	-0.131	0.005
-596.025	-100.561	-0.314	0.078
-595.011	-76.093	-0.312	-0.110
-593.996	-8.336	-0.106	-0.072
-592.982	306.321	-0.052	-0.097
-591.967	116.728	-0.146	-0.180
-590.952	-84.427	-0.324	-0.103
-589.938	459.265	-0.141	0.314
-588.923	-7.120	0.084	0.057
-587.909	800.000	0.063	0.229
-586.894	-72.028	-0.167	-0.062
-585.879	37.330	0.253	0.225
-584.865	-200.000	-0.005	0.079
-583.850	-67.302	-0.317	-0.125
-582.836	558.413	0.054	-0.130
-581.821	35.711	0.211	-0.186
-580.806	-105.462	-0.408	0.093
-579.792	-200.000	0.021	-0.115
-578.777	-1.921	0.216	0.152
-577.763	-200.000	-0.009	-0.104
-576.748	-89.176	-0.266	-0.079
-575.733	-57.881	0.100	-0.044
-574.719	-200.000	0.045	-0.238
-573.704	-200.000	0.075	0.444
-572.690	10.287	-0.120	0.092
-571.675	-94.795	-0.305	-0.083
-570.661	199.722	-0.136	-0.209
-569.646	30.240	-0.232	-0.199
-568.631	204.994	0.149	0.231
-567.617	-41.471	-0.138	-0.071
-566.602	22.322	-0.204	-0.167
-565.588	-200.000	-0.005	0.289
-564.573	-200.000	0.012	0.099
-563.558	-124.446	-0.248	-0.039
-562.544	136.582	-0.053	-0.069
-561.529	60.724	0.190	-0.189
-560.515	39.425	-0.062	0.055
-559.500	800.000	0.056	-0.225
-558.485	-90.547	-0.379	-0.110
-557.471	-113.664	0.107	-0.021
-556.456	167.800	0.086	-0.123
-555.442	800.000	-0.063	-0.258
-554.427	-176.989	0.140	0.004
-553.412	-46.433	-0.181	0.089
-552.398	7.988	0.233	-0.175
-551.383	-152.715	0.319	0.023
-550.369	-146.310	-0.150	0.013
-549.354	800.000	0.082	0.228
-548.339	-126.205	-0.153	-0.023
-547.325	-200.000	0.041	0.201
-546.310	-77.177	0.254	-0.089
-545.296	14.612	0.227	-0.177
-544.281	35.561	0.094	-0.083
-543.266	10.667	0.084	-0.064
-542.252	35.392	-0.209	-0.184
-541.237	297.096	0.106	0.195
-540.223	-8.675	-0.150	0.100
-539.208	-66.423	-0.292	-0.116
-538.193	-82.938	-0.101	-0.032
-537.179	800.000	-0.070	0.225
-536.164	-200.000	0.002	-0.154
-535.150	-200.000	0.018	0.649
-534.135	800.000	-0.063	0.181
-533.121	439.504	-0.028	-0.060
-532.106	8.948	-0.341	0.257
-531.091	77.735	-0.119	-0.127
-530.077	304.263	-0.125	-0.232
-529.062	-161.226	0.063	-0.003
-528.048	-23.764	0.176	0.105
-527.033	30.408	-0.215	0.184
-526.018	196.305	-0.147	0.223
-525.004	-103.493	-0.224	0.053
-523.989	800.000	-0.031	-0.111
-522.975	-19.712	0.043	-0.026
-521.960	-200.000	0.013	0.196
-520.945	-32.807	-0.284	0.158
-519.931	800.000	-0.018	-0.072
-518.916	-18.359	-0.080	0.050
-517.902	-200.000	0.000	0.355
-516.887	69.388	-0.078	0.081
-515.872	-200.000	0.100	-0.453
-514.858	-14.542	0.113	-0.073
-513.843	-9.214	-0.143	0.096
-512.829	137.003	-0.199	-0.260
-511.814	27.618	0.177	0.149
-510.799	-200.000	0.034	-0.218
-509.785	49.477	0.225	0.212
-508.770	-134.606	0.160	0.019
-507.756	-123.724	0.272	0.043
-506.741	22.004	0.192	-0.157
-505.726	72.536	0.164	-0.171
-504.712	-158.559	-0.407	0.023
-503.697	-45.951	0.321	-0.158
-502.683	665.724	-0.067	0.174
-501.668	-16.811	0.190	-0.120
-500.653	260.372	-0.059	-0.101
-499.639	-200.000	-0.036	-0.263
-498.624	-63.758	-0.152	-0.062
-497.610	-129.172	-0.267	0.037
-496.595	-26.646	0.058	0.034
-495.581	-200.000	-0.004	0.093
-494.566	11.119	-0.143	0.109
-493.551	-11.308	-0.239	-0.157
-492.537	-200.000	-0.001	0.217
-491.522	-90.492	0.252	0.073
-490.508	-137.107	-0.113	0.013
-489.493	209.746	0.090	-0.140
-488.478	800.000	0.016	0.045
-487.464	243.857	-0.059	0.098
-486.449	-122.537	0.134	0.022
-485.435	162.994	0.090	0.127
-484.420	-46.695	0.041	0.020
-483.405	330.409	-0.032	0.061
-482.391	30.724	0.133	-0.114
-481.376	332.592	-0.177	0.341
-480.362	-88.440	0.141	0.042
-479.347	800.000	0.016	-0.066
-478.332	84.503	0.175	-0.191
-477.318	-71.014	-0.349	0.131
-476.303	-200.000	-0.021	0.173
-475.289	-0.359	0.105	-0.074
-474.274	148.854	-0.123	0.166
-473.259	-78.004	-0.330	-0.113
-472.245	293.147	0.103	0.188
-471.230	-97.692	-0.058	0.015
-470.216	-38.691	0.275	0.145
-469.201	-200.000	-0.023	0.327
-468.186	-186.027	-0.171	0.003
-467.172	-111.994	0.243	-0.049
-466.157	-200.000	-0.008	0.037
-465.143	-151.036	-0.161	-0.012
-464.128	800.000	-0.104	0.376
-463.113	147.964	0.042	0.057
-462.099	-88.210	0.124	-0.037
-461.084	178.841	-0.114	0.167
-460.070	229.294	-0.167	0.271
-459.055	-42.690	-0.223	0.113
-458.040	-98.942	0.275	0.070
-457.026	800.000	-0.036	-0.126
-456.011	-150.401	-0.324	-0.025
-454.997	318.475	0.077	0.145
-453.982	-38.235	-0.082	-0.043
-452.968	275.559	-0.102	-0.181
-451.953	130.551	-0.210	0.269
-450.938	800.000	-0.067	-0.190
-449.924	89.736	-0.225	-0.250
-448.909	12.817	-0.147	0.113
-447.895	-200.000	0.008	-0.049
-446.880	378.257	-0.125	0.255
-445.865	-200.000	0.028	-0.267
-444.851	164.751	0.082	0.115
-443.836	-200.000	0.028	0.367
-442.822	-23.718	-0.068	0.041
-441.807	-200.000	-0.067	0.470
-440.792	-159.549	0.364	0.020
-439.778	510.520	0.063	-0.145
-438.763	-200.000	-0.019	-0.122
-437.749	-200.000	-0.006	-0.162
-436.734	800.000	-0.039	0.161
-435.719	-55.662	0.136	0.060
-434.705	75.413	0.125	-0.131
-433.690	90.774	0.128	-0.143
-432.676	-24.227	-0.126	0.075
-431.661	73.297	-0.199	-0.207
-430.646	-121.605	-0.232	0.038
-429.632	-3.620	0.356	-0.247
-428.617	-41.773	0.266	-0.136
-427.603	188.781	-0.089	-0.133
-426.588	-112.601	-0.075	-0.015
-425.573	21.728	-0.163	-0.132
-424.559	301.634	0.121	-0.223
-423.544	132.237	0.089	0.115
-422.530	36.911	-0.179	-0.158
-421.515	800.000	0.048	-0.145
-420.500	5.457	0.329	-0.242
-419.486	-129.101	0.148	-0.021
-418.471	128.260	0.153	-0.193
-417.457	145.927	-0.160	-0.213
-416.442	61.671	-0.214	-0.212
-415.428	800.000	-0.077	-0.268
-414.413	-88.300	-0.044	-0.013
-413.398	212.763	0.142	-0.223
-412.384	800.000	-0.069	0.221
-411.369	-100.352	0.573	0.141
-410.355	38.618	0.271	-0.241
-409.340	384.287	0.044	0.091
-408.325	-200.000	0.007	-0.128
-407.311	800.000	-0.032	-0.092
-406.296	800.000	-0.205	-0.693
-405.282	-200.000	-0.010	0.089
-404.267	-144.736	0.107	0.010
-403.252	-87.812	-0.222	-0.066
-402.238	648.868	0.025	0.063
-401.223	-162.656	-0.104	-0.005
-400.209	800.000	0.032	0.129
-399.194	-72.224	-0.352	0.130
-398.179	-47.985	0.274	0.132
-397.165	488.137	-0.103	-0.233
-396.150	-200.000	-0.107	-0.687
-395.136	800.000	-0.115	-0.342
-394.121	-90.702	0.340	0.098
-393.106	800.000	0.136	-0.570
-392.092	60.283	-0.100	0.098
-391.077	-58.402	0.157	0.068
-390.063	-165.654	0.140	0.006
-389.048	141.986	-0.135	0.178
-388.033	800.000	-0.035	0.138
-387.019	-200.000	0.045	-0.306
-386.004	466.808	0.056	-0.125
-384.990	-68.735	0.213	-0.082
-383.975	273.067	0.103	0.182
-382.960	-87.205	0.046	0.014
-381.946	395.877	0.035	-0.073
-380.931	-1.639	0.171	-0.120
-379.917	300.849	-0.156	0.286
-378.902	-102.864	0.187	0.044
-377.888	22.666	-0.043	0.035
-376.873	-139.606	0.021	-0.002
-375.858	198.201	-0.082	-0.125
-374.844	148.352	0.162	-0.218
-373.829	-105.619	-0.363	0.082
-372.815	800.000	0.059	0.216
-371.800	584.681	0.188	0.458
-370.785	-200.000	-0.030	-0.159
-369.771	147.049	0.091	-0.121
-368.756	-168.989	-0.412	0.015
-367.742	-103.076	-0.267	-0.063
-366.727	-200.000	-0.080	-0.376
-365.712	-200.000	-0.028	-0.188
-364.698	300.521	0.039	-0.072
-363.683	-200.000	0.008	-0.065
-362.669	-200.000	-0.050	0.444
-361.654	-127.824	0.213	-0.031
-360.639	-119.690	0.149	-0.026
-359.625	166.378	-0.108	-0.152
-358.610	-104.231	0.212	-0.049
-357.596	55.273	-0.159	-0.152
-356.581	734.018	0.073	-0.193
-355.566	-175.467	0.331	-0.009
-354.552	-81.185	-0.263	0.086
-353.537	800.000	0.016	0.054
-352.523	143.512	0.187	-0.247
-351.508	-18.239	0.227	-0.141
-350.493	257.832	0.122	-0.208
-349.479	-118.380	0.126	-0.022
-348.464	-200.000	0.039	0.272
-347.450	-81.228	0.091	0.030
-346.435	800.000	0.019	0.082
-345.420	800.000	0.052	-0.226
-344.406	-65.356	-0.291	0.116
-343.391	636.828	0.064	-0.162
-342.377	-200.000	-0.009	-0.200
-341.362	95.959	-0.040	-0.045
-340.348	-200.000	-0.012	-0.311
-339.333	163.262	-0.219	-0.305
-338.318	373.856	-0.070	0.141
-337.304	-155.875	-0.126	0.008
-336.289	-200.000	0.007	-0.159
-335.275	-96.251	0.241	0.063
-334.260	84.734	-0.184	-0.200
-333.245	-156.876	0.108	-0.007
-332.231	326.667	-0.145	-0.275
-331.216	800.000	-0.066	-0.219
-330.202	-200.000	-0.032	0.251
-329.187	141.811	-0.176	-0.231
-328.172	-32.492	-0.277	-0.153
-327.158	39.517	0.204	0.181
-326.143	-115.417	0.160	0.030
-325.129	800.000	0.076	0.274
-324.114	639.531	-0.068	0.173
-323.099	800.000	-0.027	0.103
-322.085	52.098	0.216	-0.204
-321.070	382.942	-0.049	-0.100
-320.056	172.839	0.091	-0.130
-319.041	558.024	-0.072	0.172
-318.026	800.000	-0.063	0.249
-317.012	627.786	-0.122	-0.305
-315.997	800.000	0.145	0.488
-314.983	329.817	-0.081	0.155
-313.968	240.139	-0.096	-0.159
-312.953	-98.389	-0.105	0.027
-311.939	-31.023	0.255	0.142
-310.924	87.166	0.173	0.189
-309.910	271.866	-0.138	0.240
-308.895	-100.042	0.275	0.068
-307.880	-35.110	0.199	-0.107
-306.866	37.825	0.122	-0.107
-305.851	-162.336	0.304	0.015
-304.837	235.344	0.258	0.422
-303.822	-56.647	-0.186	0.082
-302.807	-63.672	0.243	0.099
-301.793	-200.000	-0.006	-0.041
-300.778	25.713	0.144	0.119
-299.764	-200.000	0.002	-0.190
-298.749	-78.931	0.233	-0.079
-297.735	34.760	-0.152	0.132
-296.720	-176.466	0.265	0.007
-295.705	397.282	0.116	-0.239
-294.691	-33.899	-0.284	0.155
-293.676	-20.547	-0.092	0.056
-292.662	16.909	-0.109	0.085
-291.647	392.358	0.070	0.144
-290.632	-67.360	-0.102	0.040
-289.618	-23.483	0.292	0.174
-288.603	69.998	0.088	-0.090
-287.589	-152.570	0.181	-0.013
-286.574	156.617	0.230	-0.314
-285.559	326.735	0.106	0.201
-284.545	19.166	0.391	-0.311
-283.530	800.000	0.088	-0.306
-282.516	-200.000	0.046	-0.235
-281.501	-62.580	-0.242	0.100
-280.486	800.000	-0.021	-0.058
-279.472	-82.866	0.439	-0.140
-278.457	-188.404	-0.283	0.004
-277.443	131.599	-0.101	-0.129
-276.428	287.516	-0.079	-0.141
-275.413	-74.222	0.415	0.149
-274.399	-200.000	-0.044	0.349
-273.384	800.000	0.029	0.098
-272.370	82.387	0.092	-0.099
-271.355	-200.000	0.001	0.185
-270.340	800.000	-0.046	-0.137
-269.326	404.002	0.043	-0.089
-268.311	-200.000	0.062	0.371
-267.297	-11.232	-0.108	0.071
-266.282	333.463	-0.126	0.242
-265.267	-200.000	-0.001	-0.077
-264.253	-116.245	0.237	-0.043
-263.238	-43.902	0.094	-0.047
-262.224	-34.434	0.128	0.070
-261.209	-92.994	-0.130	0.036
-260.195	147.393	-0.023	0.030
-259.180	186.698	0.340	0.500
-258.165	800.000	0.102	0.430
-257.151	-140.106	0.494	-0.051
-256.136	-200.000	-0.031	0.211
-255.122	-70.216	-0.137	-0.051
-254.107	-47.476	0.203	-0.098
-253.092	-200.000	0.049	0.293
-252.078	519.996	-0.086	-0.199
-251.063	103.542	-0.308	-0.358
-250.049	211.883	0.147	-0.228
-249.034	-49.567	-0.084	0.040
-248.019	673.314	0.053	-0.135
-247.005	235.719	0.046	0.075
-245.990	-200.000	0.043	-0.344
-244.976	500.196	0.090	-0.205
-243.961	-137.932	-0.270	-0.030
-242.946	14.018	-0.144	-0.111
-241.932	-161.741	0.088	0.004
-240.917	-200.000	0.032	-0.401
-239.903	34.379	0.150	0.129
-238.888	800.000	-0.101	-0.307
-237.873	31.756	-0.080	0.068
-236.859	-200.000	-0.018	0.085
-235.844	172.229	0.117	0.166
-234.830	-200.000	-0.055	-0.252
-233.815	-200.000	0.004	0.143
-232.800	-19.781	-0.073	-0.044
-231.786	163.531	-0.088	-0.122
-230.771	-119.123	0.358	-0.062
-229.757	-200.000	0.041	-0.393
-228.742	252.930	0.107	-0.180
-227.727	-180.150	0.088	-0.002
-226.713	-174.508	-0.305	-0.009
-225.698	268.959	0.035	-0.061
-224.684	-118.649	0.188	0.033
-223.669	-9.438	-0.212	0.140
-222.655	581.540	-0.066	0.159
-221.640	432.629	0.089	0.190
-220.625	-200.000	0.024	0.271
-219.611	104.693	0.054	0.063
-218.596	-108.716	0.329	-0.070
-217.582	-200.000	-0.063	0.369
-216.567	-200.000	0.036	0.239
-215.552	-200.000	-0.006	0.049
-214.538	261.154	-0.137	-0.235
-213.523	-99.995	-0.091	0.022
-212.509	-29.527	-0.264	0.149
-211.494	-120.179	-0.108	-0.018
-210.479	33.611	-0.162	0.139
-209.465	-84.136	0.341	0.107
-208.450	-135.399	-0.350	0.041
-207.436	800.000	0.108	0.330
-206.421	-45.562	-0.271	-0.132
-205.406	15.738	-0.133	-0.103
-204.392	-200.000	-0.005	0.070
-203.377	94.161	-0.139	-0.156
-202.363	800.000	0.033	0.091
-201.348	800.000	-0.107	0.353
-200.333	-200.000	-0.011	0.224
-199.319	-154.482	-0.278	0.018
-198.304	800.000	-0.033	-0.124
-197.290	-100.420	0.185	0.045
-196.275	-89.765	0.333	0.096
-195.260	-200.000	-0.012	-0.063
-194.246	-34.249	-0.216	-0.117
-193.231	-73.503	-0.171	-0.062
-192.217	-24.247	0.270	-0.159
-191.202	112.987	-0.054	0.064
-190.187	-47.173	-0.059	0.028
-189.173	110.361	0.120	0.142
-188.158	800.000	0.049	0.193
-187.144	800.000	0.033	0.128
-186.129	219.878	0.200	0.316
-185.114	-156.096	0.220	-0.014
-184.100	710.525	0.055	-0.143
-183.085	58.729	-0.301	0.292
-182.071	-163.504	0.095	0.004
-181.056	290.964	-0.116	-0.209
-180.042	800.000	0.095	-0.334
-179.027	-58.970	0.424	0.181
-178.012	181.729	-0.131	0.191
-176.998	473.176	-0.060	0.134
-175.983	0.773	0.040	-0.029
-174.969	-35.819	0.248	-0.133
-173.954	86.976	0.245	0.267
-172.939	-91.789	-0.288	-0.081
-171.925	129.633	0.179	0.225
-170.910	81.511	0.264	0.281
-169.896	76.001	-0.063	0.065
-168.881	-12.592	-0.245	-0.158
-167.866	-115.216	0.339	0.063
-166.852	-159.977	0.158	-0.009
-165.837	-200.000	0.046	0.230
-164.823	-32.720	-0.311	0.170
-163.808	800.000	-0.103	0.402
-162.793	-200.000	-0.010	0.208
-161.779	54.072	0.205	0.194
-160.764	-150.581	-0.322	-0.024
-159.750	263.117	0.106	0.181
-158.735	276.183	-0.071	0.124
-157.720	-14.490	0.238	0.151
-156.706	-140.454	-0.157	-0.016
-155.691	-200.000	0.020	-0.472
-154.677	283.926	0.014	-0.025
-153.662	-151.348	-0.105	-0.008
-152.647	-189.448	0.268	0.003
-151.633	-67.509	-0.365	0.141
-150.618	-76.676	-0.266	0.092
-149.604	-118.240	0.181	-0.032
-148.589	197.641	-0.028	-0.043
-147.574	-105.650	0.224	0.050
-146.560	457.691	0.103	-0.225
-145.545	-136.096	0.171	0.020
-144.531	-105.315	0.321	0.072
-143.516	-12.730	0.148	0.095
-142.502	-108.143	0.285	-0.061
-141.487	800.000	0.162	0.439
-140.472	123.200	0.115	0.142
-139.458	-56.094	0.187	-0.082
-138.443	-200.000	-0.013	0.061
-137.429	-77.134	-0.473	-0.162
-136.414	74.632	0.184	-0.190
-135.399	-52.536	-0.343	0.156
-134.385	-200.000	-0.086	-0.401
-133.370	-91.954	-0.483	0.135
-132.356	-200.000	0.005	-0.088
-131.341	531.506	0.092	0.215
-130.326	-200.000	0.020	0.180
-129.312	28.363	0.014	-0.012
-128.297	-200.000	-0.025	0.132
-127.283	-200.000	0.007	0.082
-126.268	455.039	0.059	0.129
-125.253	-200.000	0.011	0.100
-124.239	320.122	0.092	-0.171
-123.224	184.286	0.172	-0.250
-122.210	800.000	-0.092	-0.273
-121.195	-49.239	-0.193	0.091
-120.180	163.243	0.178	-0.246
-119.166	-5.408	0.060	0.041
-118.151	70.739	0.182	0.185
-117.137	693.645	0.087	0.225
-116.122	12.276	-0.349	0.264
-115.107	21.456	-0.211	-0.169
-114.093	-115.314	-0.166	-0.031
-113.078	189.739	-0.198	-0.292
-112.064	-200.000	-0.002	0.301
-111.049	-81.329	0.339	-0.110
-110.034	124.348	-0.249	0.308
-109.020	-200.000	-0.000	0.170
-108.005	-65.842	0.432	0.170
-106.991	-200.000	0.007	-0.088
-105.976	177.817	-0.117	0.168
-104.962	100.931	0.120	0.137
-103.947	-200.000	0.037	0.203
-102.932	53.664	-0.061	0.057
-101.918	-40.626	0.114	0.058
-100.903	-200.000	0.058	0.264
-99.889	-82.003	0.173	-0.056
-98.874	9.315	-0.103	0.076
-97.859	-200.000	-0.004	-0.121
-96.845	447.487	0.022	0.047
-95.830	-200.000	0.017	-0.112
-94.816	-200.000	-0.045	0.313
-93.801	-200.000	0.017	0.304
-92.786	-11.427	0.055	0.036
-91.772	736.819	-0.014	0.038
-90.757	29.838	0.157	-0.131
-89.743	-69.717	0.242	0.091
-88.728	-48.724	-0.023	-0.011
-87.713	-29.970	0.317	-0.178
-86.699	800.000	-0.147	-0.415
-85.684	-60.208	0.160	0.067
-84.670	118.677	-0.166	0.201
-83.655	84.925	0.134	-0.144
-82.640	-72.269	-0.234	0.085
-81.626	-111.886	-0.170	-0.034
-80.611	-200.000	0.030	-0.347
-79.597	-35.449	-0.097	0.052
-78.582	-88.146	-0.231	0.068
-77.567	-145.287	0.292	0.026
-76.553	76.981	0.131	-0.137
-75.538	-104.264	-0.232	0.053
-74.524	149.679	0.182	0.243
-73.509	370.796	-0.129	0.256
-72.494	800.000	0.048	-0.182
-71.480	346.270	-0.010	0.019
-70.465	-200.000	-0.011	-0.399
-69.451	65.097	0.076	-0.075
-68.436	166.709	0.074	-0.103
-67.422	-88.353	0.149	0.044
-66.407	-16.723	-0.104	0.064
-65.392	421.188	-0.121	0.254
-64.378	800.000	0.043	0.158
-63.363	-200.000	0.018	-0.349
-62.349	800.000	0.036	-0.143
-61.334	263.751	-0.700	-1.194
-60.319	153.168	0.387	0.520
-59.305	800.000	-0.368	-1.051
-58.290	185.166	0.823	1.199
-57.276	800.000	0.575	1.848
-56.261	-200.000	97.939	601.882
-55.246	613.135	1404.458	3449.932
-54.232	192.182	2595.017	3841.131
-53.217	118.522	2148.731	2602.472
-52.203	44.135	1604.246	1443.645
-51.188	35.764	1341.976	1157.472
-50.173	32.437	1300.834	1102.495
-49.159	54.419	1350.525	1276.333
-48.144	56.605	1366.278	1304.199
-47.130	35.706	1323.726	1141.209
-46.115	32.153	1306.786	1105.690
-45.100	32.104	1301.156	1100.594
-44.086	31.992	1298.578	1097.714
-43.071	31.975	1296.825	1096.093
-42.057	31.834	1294.675	1093.411
-41.042	31.907	1293.112	1092.469
-40.027	32.065	1291.190	1091.719
-39.013	31.957	1289.686	1089.780
-37.998	32.022	1287.831	1088.544
-36.984	32.037	1286.070	1087.102
-35.969	32.192	1284.033	1086.230
-34.954	32.068	1282.870	1084.487
-33.940	31.960	1281.816	1082.933
-32.925	32.152	1279.707	1082.216
-31.911	32.184	1278.161	1081.047
-30.896	32.021	1277.096	1079.167
-29.881	32.106	1275.852	1078.563
-28.867	32.166	1274.211	1077.476
-27.852	32.168	1272.756	1076.214
-26.838	32.300	1270.989	1075.431
-25.823	32.080	1269.994	1073.291
-24.809	32.073	1268.664	1072.084
-23.794	32.099	1267.563	1071.257
-22.779	32.125	1265.716	1069.802
-21.765	32.126	1264.451	1068.695
-20.750	32.067	1263.567	1067.570
-19.736	31.971	1262.464	1066.054
-18.721	32.023	1261.106	1065.156
-17.706	31.973	1260.040	1063.935
-16.692	32.064	1258.278	1062.916
-15.677	32.072	1257.606	1062.355
-14.663	32.008	1256.094	1060.671
-13.648	31.921	1255.426	1059.577
-12.633	31.973	1254.308	1058.883
-11.619	32.002	1253.758	1058.542
-10.604	32.028	1252.450	1057.537
-9.590	31.942	1251.593	1056.289
-8.575	31.934	1250.596	1055.362
-7.560	32.055	1249.411	1054.999
-6.546	31.982	1248.810	1054.039
-5.531	31.969	1248.139	1053.358
-4.517	31.917	1247.360	1052.371
-3.502	31.964	1246.406	1051.786
-2.487	31.991	1245.690	1051.291
-1.473	31.917	1241.248	1047.089
-0.458	30.437	1225.981	1025.998
0.556	24.616	1208.201	987.535
1.571	20.744	1213.728	970.424
2.586	19.908	1227.927	976.970
3.600	19.730	1217.667	967.727
4.615	14.250	1145.877	881.642
5.629	4.576	1069.707	774.930
6.644	0.067	1048.577	737.483
7.659	-0.363	1046.413	733.793
8.673	-0.395	1044.516	732.242
9.688	-0.537	1043.727	730.932
10.702	-0.239	1042.468	731.440
11.717	5.721	1050.369	766.114
12.731	14.849	1063.343	820.503
13.746	18.570	1067.475	841.922
14.761	18.732	1066.767	842.080
15.775	18.482	1066.623	840.669
16.790	18.212	1065.969	838.754
17.804	18.154	1065.105	837.717
18.819	18.269	1065.012	838.134
19.834	18.297	1064.279	837.618
20.848	18.245	1063.606	836.762
21.863	18.282	1062.943	836.343
22.877	18.164	1062.392	835.262
23.892	18.208	1061.621	834.798
24.907	18.276	1061.384	834.865
25.921	18.317	1059.885	833.815
26.936	18.364	1058.111	832.575
27.950	18.370	1056.717	831.431
28.965	18.076	1054.876	828.487
29.980	18.139	1053.117	827.333
30.994	18.433	1052.237	827.989
32.009	18.312	1051.149	826.478
33.023	18.116	1049.378	824.068
34.038	18.202	1048.651	823.837
35.053	18.354	1048.368	824.274
36.067	18.290	1047.201	822.975
37.082	18.409	1046.140	822.641
38.096	18.690	1045.051	823.061
39.111	18.468	1044.958	821.849
40.126	18.507	1043.233	820.609
41.140	18.123	1041.520	817.352
42.155	17.944	1040.470	815.600
43.169	18.025	1039.491	815.146
44.184	18.101	1038.101	814.349
45.199	18.075	1036.853	813.172
46.213	18.177	1035.797	812.757
47.228	18.219	1034.565	811.920
48.242	18.086	1034.298	811.004
49.257	18.226	1033.432	810.917
50.271	18.256	1032.468	810.232
51.286	18.341	1031.466	809.774
52.301	18.305	1030.505	808.781
53.315	18.346	1029.353	807.998
54.330	18.373	1028.486	807.375
55.344	18.391	1027.482	806.597
56.359	18.232	1026.695	805.163
57.374	18.138	1025.445	803.670
58.388	18.071	1024.967	802.907
59.403	18.102	1023.969	802.200
60.417	18.082	1022.965	801.247
61.432	18.168	1022.296	801.057
62.447	18.223	1021.803	800.855
63.461	18.246	1020.827	800.127
64.476	18.215	1019.716	799.040
65.490	18.237	1018.375	798.022
66.505	18.303	1017.834	797.835
67.520	18.222	1017.158	796.861
68.534	17.972	1016.458	795.077
69.549	17.716	1015.156	792.798
70.563	17.747	1014.260	792.173
71.578	17.854	1013.578	792.064
72.593	17.638	1012.664	790.279
73.607	17.761	1012.023	790.277
74.622	18.258	1011.289	791.938
75.636	18.200	1010.730	791.161
76.651	17.937	1009.889	789.215
77.666	17.926	1008.886	788.311
78.680	17.941	1008.535	788.039
79.695	18.196	1007.510	788.344
80.709	18.117	1006.926	787.453
81.724	18.052	1006.350	786.633
82.739	18.148	1005.430	786.284
83.753	18.499	1004.528	787.121
84.768	18.568	1003.584	786.630
85.782	18.438	1002.941	785.458
86.797	18.542	1001.392	784.654
87.812	18.300	1000.826	783.034
88.826	18.463	999.658	782.797
89.841	18.593	998.612	782.500
90.855	18.657	997.603	781.931
91.870	18.537	996.841	780.719
92.884	18.447	995.800	779.423
93.899	18.393	994.693	778.246
94.914	18.508	994.071	778.212
95.928	18.289	993.241	776.500
96.943	18.130	992.100	774.818
97.957	17.911	990.719	772.679
98.972	17.726	989.550	770.861
99.987	18.135	988.636	771.932
101.001	18.282	988.223	772.204
102.016	18.209	987.439	771.190
103.030	18.166	986.194	769.959
104.045	18.010	985.529	768.668
105.060	17.890	984.120	766.962
106.074	18.168	983.204	767.428
107.089	18.536	982.675	768.598
108.103	18.434	981.871	767.446
109.118	18.150	980.724	765.209
110.133	18.238	979.913	764.902
111.147	18.204	978.377	763.484
112.162	17.899	977.484	761.361
113.176	18.034	976.744	761.318
114.191	18.088	975.793	760.749
115.206	17.933	974.359	758.877
116.220	17.840	973.760	757.927
117.235	17.985	973.104	757.996
118.249	18.016	971.990	757.196
119.264	18.012	970.998	756.337
120.279	17.962	970.684	755.808
121.293	18.053	969.603	755.298
122.308	18.109	968.649	754.738
123.322	18.035	967.573	753.506
124.337	17.968	966.214	752.087
125.352	17.499	964.224	748.411
126.366	17.385	963.253	747.088
127.381	18.087	963.253	750.103
128.395	18.425	962.402	750.857
129.410	18.553	961.559	750.691
130.424	18.411	960.630	749.281
131.439	18.485	959.419	748.592
132.454	18.366	958.390	747.204
133.468	18.312	957.443	746.164
134.483	18.421	956.774	746.053
135.497	18.629	956.006	746.291
136.512	18.502	955.274	745.104
137.527	18.475	954.066	743.979
138.541	18.784	952.823	744.280
139.556	18.594	952.225	742.925
140.570	18.662	951.320	742.449
141.585	18.551	950.584	741.328
142.600	18.699	949.004	740.670
143.614	18.774	948.744	740.726
144.629	18.842	948.421	740.702
145.643	18.707	946.792	738.780
146.658	18.578	945.855	737.429
147.673	18.452	944.729	735.947
148.687	18.384	943.782	734.851
149.702	18.445	942.617	734.140
150.716	18.498	942.099	733.898
151.731	18.509	941.667	733.546
152.746	18.791	940.575	733.833
153.760	18.700	940.105	733.015
154.775	18.906	939.266	733.173
155.789	18.796	938.651	732.159
156.804	18.686	937.544	730.764
157.819	18.802	937.000	730.769
158.833	18.996	935.857	730.637
159.848	18.830	934.864	729.091
160.862	18.692	933.720	727.550
161.877	18.794	932.980	727.342
162.892	18.898	932.113	727.039
163.906	18.695	931.938	725.982
164.921	18.796	930.503	725.225
165.935	18.972	929.133	724.838
166.950	18.829	928.541	723.708
167.964	18.717	927.662	722.488
168.979	18.583	926.501	720.957
169.994	18.652	925.450	720.363
171.008	18.897	924.971	720.954
172.023	18.857	923.635	719.684
173.037	18.541	922.761	717.614
174.052	18.445	921.787	716.392
175.067	18.568	921.700	716.776
176.081	18.839	920.783	717.133
177.096	18.680	920.193	715.946
178.110	18.462	918.951	714.007
179.125	18.218	918.562	712.625
180.140	18.368	917.844	712.631
181.154	18.352	917.937	712.572
182.169	18.721	917.194	713.466
183.183	18.727	916.990	713.270
184.198	18.780	915.661	712.394
185.213	18.729	914.704	711.373
186.227	18.833	914.545	711.617
187.242	18.876	913.481	710.903
188.256	18.922	912.710	710.431
189.271	18.862	912.148	709.684
190.286	18.597	911.336	707.895
191.300	18.210	909.860	705.093
192.315	17.514	908.291	700.949
193.329	17.399	907.949	700.151
194.344	18.181	908.185	703.490
195.359	18.817	907.682	705.649
196.373	18.732	907.395	705.013
197.388	18.535	906.857	703.727
198.402	18.616	905.530	702.967
199.417	18.539	905.099	702.256
200.432	18.281	903.967	700.259
201.446	18.060	903.634	699.034
202.461	18.075	902.675	698.291
203.475	17.220	901.198	693.597
204.490	16.767	899.875	690.671
205.504	17.730	900.066	694.682
206.519	18.373	899.870	697.087
207.534	18.411	899.047	696.542
208.548	18.783	899.150	698.074
209.563	18.493	898.069	695.997
210.577	18.382	898.032	695.454
211.592	18.840	897.231	696.630
212.607	18.766	896.401	695.624
213.621	18.921	895.406	695.416
214.636	18.876	895.109	694.945
215.650	18.924	894.007	694.219
216.665	18.855	893.872	693.777
217.680	18.918	892.257	692.714
218.694	18.454	891.493	690.192
219.709	18.388	890.554	689.137
220.723	18.701	890.459	690.263
221.738	18.749	890.050	690.077
222.753	18.690	889.446	689.311
223.767	18.687	888.606	688.588
224.782	18.927	888.281	689.237
225.796	19.032	887.617	689.079
226.811	18.365	886.390	685.398
227.826	17.863	885.412	682.577
228.840	18.029	884.769	682.683
229.855	18.080	883.817	682.092
230.869	17.747	882.650	679.804
231.884	18.118	882.998	681.488
232.899	18.763	882.577	683.671
233.913	18.766	881.829	683.044
234.928	18.759	881.482	682.689
235.942	18.813	880.901	682.392
236.957	18.486	879.788	680.171
237.972	18.544	879.110	679.816
238.986	18.534	878.364	679.140
240.001	18.613	877.721	678.896
241.015	18.657	877.258	678.653
242.030	18.795	876.769	678.761
243.045	18.780	876.838	678.693
244.059	18.943	875.510	678.250
245.074	18.686	874.907	676.708
246.088	18.507	873.592	674.926
247.103	18.655	873.434	675.328
248.117	18.975	873.400	676.502
249.132	19.225	872.981	677.100
250.147	19.179	872.223	676.269
251.161	19.320	871.649	676.319
252.176	19.305	870.880	675.604
253.190	19.509	870.588	676.115
254.205	19.577	870.085	675.930
255.220	19.799	868.970	675.873
256.234	19.356	868.484	673.704
257.249	19.311	867.583	672.770
258.263	19.353	866.836	672.295
259.278	19.410	866.638	672.304
260.293	19.532	865.404	671.764
261.307	19.342	864.686	670.408
262.322	19.195	864.008	669.252
263.336	18.486	861.631	664.602
264.351	17.428	860.147	659.301
265.366	17.659	859.737	659.826
266.380	18.688	860.340	664.213
267.395	18.881	860.530	665.049
268.409	18.945	859.663	664.568
269.424	19.244	858.809	665.003
270.439	19.292	857.837	664.374
271.453	19.488	857.305	664.658
272.468	19.430	857.536	664.555
273.482	19.557	856.817	664.430
274.497	19.321	854.870	661.953
275.512	18.907	854.485	660.007
276.526	19.249	854.499	661.274
277.541	19.445	853.798	661.423
278.555	19.071	852.827	659.180
279.570	18.810	852.320	657.732
280.585	19.184	851.342	658.348
281.599	19.266	850.581	658.016
282.614	18.645	849.712	654.913
283.628	18.627	849.305	654.472
284.643	18.966	848.820	655.335
285.657	18.643	847.840	653.289
286.672	18.376	846.929	651.514
287.687	18.930	846.546	653.267
288.701	18.984	845.857	652.886
289.716	18.593	845.337	650.942
290.730	18.581	844.520	650.209
291.745	18.354	843.497	648.506
292.760	18.687	843.636	649.814
293.774	19.454	843.995	652.937
294.789	19.891	843.039	653.794
295.803	20.020	842.526	653.822
296.818	20.000	841.801	653.128
297.833	19.575	840.699	650.613
298.847	19.445	840.404	649.838
299.862	19.676	839.885	650.249
300.876	19.913	839.390	650.700
301.891	19.782	838.400	649.381
302.906	19.200	837.678	646.581
303.920	19.396	837.126	646.833
304.935	19.726	836.689	647.675
305.949	19.752	836.272	647.392
306.964	19.594	835.485	646.134
307.979	19.816	834.833	646.404
308.993	20.035	834.906	647.222
310.008	19.944	834.382	646.416
311.022	19.735	833.320	644.760
312.037	19.638	833.150	644.206
313.052	19.283	832.514	642.336
314.066	18.682	830.696	638.642
315.081	18.491	830.087	637.404
316.095	19.328	830.503	640.780
317.110	19.741	829.971	641.847
318.125	18.910	828.549	637.612
319.139	18.083	827.486	633.671
320.154	18.088	827.054	633.304
321.168	18.879	827.134	636.239
322.183	19.468	827.467	638.617
323.197	19.544	826.685	638.239
324.212	19.702	826.327	638.492
325.227	19.712	826.185	638.360
326.241	19.705	825.280	637.581
327.256	19.484	824.964	636.464
328.270	19.526	824.200	635.973
329.285	19.414	823.357	634.855
330.300	19.241	822.652	633.619
331.314	19.483	822.102	634.028
332.329	19.646	822.046	634.527
333.343	19.852	820.957	634.385
334.358	19.716	821.304	634.099
335.373	19.759	820.894	633.884
336.387	20.138	820.319	634.772
337.402	20.130	820.111	634.524
338.416	19.940	819.757	633.499
339.431	20.104	819.048	633.496
340.446	20.264	818.854	633.872
341.460	20.133	818.432	633.012
342.475	19.975	817.595	631.732
343.489	19.985	817.555	631.683
344.504	20.166	817.616	632.333
345.519	20.362	816.970	632.493
346.533	20.588	816.376	632.800
347.548	20.485	816.007	632.081
348.562	20.583	815.151	631.718
349.577	20.522	814.539	630.969
350.592	20.564	814.046	630.682
351.606	20.576	813.402	630.172
352.621	20.500	812.485	629.130
353.635	20.329	811.527	627.715
354.650	19.742	810.148	624.472
355.665	18.805	809.002	620.153
356.679	19.392	808.673	621.963
357.694	19.636	808.422	622.595
358.708	19.627	807.823	622.047
359.723	20.084	807.454	623.351
360.738	20.303	807.400	624.043
361.752	20.324	807.025	623.772
362.767	20.688	806.308	624.468
363.781	20.660	805.955	624.041
364.796	20.767	805.471	623.993
365.810	20.829	805.341	624.061
366.825	20.626	805.003	623.015
367.840	20.468	804.021	621.635
368.854	20.097	803.311	619.706
369.869	20.137	803.095	619.627
370.883	20.353	802.397	619.805
371.898	20.074	801.740	618.245
372.913	20.272	801.361	618.604
373.927	20.312	801.303	618.649
374.942	20.510	800.849	618.947
375.956	20.540	800.311	618.584
376.971	20.608	800.376	618.824
377.986	20.818	799.429	618.783
379.000	20.647	799.079	617.850
380.015	20.606	798.493	617.196
381.029	20.654	797.924	616.873
382.044	20.807	797.526	617.051
383.059	20.713	796.492	615.865
384.073	20.846	796.102	615.978
385.088	20.821	796.012	615.766
386.102	20.693	795.122	614.569
387.117	20.704	794.269	613.896
388.132	20.328	793.481	611.908
389.146	20.008	792.713	610.133
390.161	20.319	792.531	611.033
391.175	20.641	792.048	611.740
392.190	20.393	791.423	610.334
393.205	19.048	789.431	604.024
394.219	17.883	788.037	598.819
395.234	17.987	788.094	599.174
396.248	19.257	789.327	604.518
397.263	20.664	789.623	609.624
398.278	20.521	789.113	608.677
399.292	20.475	788.643	608.098
400.307	20.649	787.905	608.086
401.321	20.564	787.708	607.581
402.336	20.722	787.752	608.113
403.350	21.093	787.762	609.365
404.365	21.363	786.899	609.585
405.380	21.453	786.505	609.537
406.394	21.430	786.264	609.216
407.409	21.444	785.817	608.866
408.423	21.266	785.763	608.150
409.438	21.251	785.059	607.500
410.453	21.478	784.604	607.884
411.467	21.353	783.938	606.879
412.482	21.444	783.619	606.895
413.496	21.735	782.990	607.363
414.511	21.535	782.766	606.441
415.526	21.443	782.409	605.793
416.540	21.283	781.780	604.698
417.555	20.912	781.616	603.236
418.569	21.061	780.936	603.172
419.584	21.163	779.924	602.689
420.599	21.052	779.522	601.943
421.613	157.845	1360.579	1794.323
422.628	136.426	1445.219	1794.418
