DTS Sentinel unit serial number:	SN413079Multiplexer serial number:	ORYXHardware model number:	OX4-SRSoftware version number:	ORYX F/W v4.00 Oryx Data Collector v3.7.2.0data status	okinstallation	princeton_trtdifferential loss correction	single-endedforward channel	channel 1reverse channel	N/Adate	2019/09/12time	00:40:11forward acquisition time	60.00reverse acquisition time	0.00gamma	496.2192k internal	0.2319k external	0.2319temperature offset calibration	1.0073default loss term (dB/km)	0.3790temperature slope calibration	1.0000multiplexer offset coefficient	1.0000multiplexer slope coefficient	1.0000fibre end	0.00T internal ref (°C)	33.31T ext. ref 1 (°C)	2.07T ext. ref 2 (°C)	27.98length (m)	temperature (°C)	Stokes	anti-Stokes-747.200	-89.377	-0.148	-0.044
-746.185	-61.636	0.238	0.101
-745.171	-66.839	-0.308	-0.123
-744.156	-78.652	0.049	0.017
-743.142	708.438	-0.049	-0.132
-742.127	-16.917	-0.280	0.179
-741.112	34.944	-0.058	-0.052
-740.098	800.000	-0.087	0.352
-739.083	246.731	-0.039	0.067
-738.069	120.978	-0.249	-0.313
-737.054	463.997	-0.091	0.206
-736.039	299.688	0.111	-0.206
-735.025	98.858	0.136	0.158
-734.010	800.000	0.081	-0.344
-732.996	800.000	-0.047	-0.174
-731.981	-149.288	-0.112	-0.009
-730.966	-76.723	-0.208	0.074
-729.952	571.014	0.086	-0.213
-728.937	-67.307	-0.192	0.076
-727.923	264.384	0.033	-0.058
-726.908	800.000	-0.125	-0.394
-725.894	10.858	-0.260	-0.201
-724.879	162.210	-0.104	-0.147
-723.864	-159.206	-0.169	-0.010
-722.850	538.327	-0.060	-0.143
-721.835	138.259	-0.108	0.143
-720.821	81.856	-0.083	0.090
-719.806	-61.030	0.314	0.134
-718.791	295.201	0.119	-0.221
-717.777	-102.656	-0.141	-0.034
-716.762	-161.790	-0.424	-0.022
-715.748	-200.000	-0.040	-0.244
-714.733	-148.691	-0.286	0.023
-713.718	736.314	0.014	0.038
-712.704	800.000	0.034	0.137
-711.689	-138.595	0.465	-0.051
-710.675	-200.000	0.032	0.280
-709.660	306.635	0.119	-0.224
-708.645	259.943	-0.140	-0.245
-707.631	36.785	-0.237	-0.212
-706.616	191.670	-0.245	-0.373
-705.602	-92.646	0.255	0.072
-704.587	-47.946	-0.086	-0.042
-703.572	-36.278	0.104	0.057
-702.558	657.246	0.096	0.248
-701.543	-14.530	0.443	-0.288
-700.529	800.000	0.179	-0.543
-699.514	800.000	-0.020	0.086
-698.499	-39.651	0.115	0.061
-697.485	-86.015	0.075	-0.024
-696.470	-200.000	0.082	0.448
-695.456	800.000	0.074	-0.288
-694.441	721.985	0.121	-0.325
-693.426	148.774	0.065	-0.089
-692.412	-200.000	-0.020	-0.334
-691.397	42.200	0.196	-0.180
-690.383	-78.947	-0.361	0.124
-689.368	657.272	0.056	0.145
-688.354	-200.000	-0.032	0.170
-687.339	628.306	0.068	0.174
-686.324	-104.800	-0.300	0.070
-685.310	-200.000	-0.024	0.239
-684.295	196.901	-0.223	-0.343
-683.281	-56.057	-0.310	-0.139
-682.266	-90.640	-0.320	-0.093
-681.251	222.816	-0.069	-0.113
-680.237	215.810	0.104	-0.166
-679.222	52.681	0.023	0.022
-678.208	645.189	-0.083	-0.213
-677.193	229.811	0.064	-0.106
-676.178	265.986	0.060	-0.105
-675.164	-190.905	-0.104	0.001
-674.149	-200.000	0.006	-0.120
-673.135	-200.000	0.031	-0.255
-672.120	-123.475	0.326	-0.052
-671.105	-200.000	0.027	0.275
-670.091	-22.292	-0.367	-0.224
-669.076	149.055	0.036	-0.049
-668.062	800.000	0.084	-0.272
-667.047	1.501	0.046	0.034
-666.032	-200.000	-0.023	-0.145
-665.018	-34.537	0.376	0.208
-664.003	-32.109	-0.467	-0.263
-662.989	-200.000	-0.006	-0.301
-661.974	-120.880	-0.267	-0.045
-660.959	-113.215	0.339	0.067
-659.945	-200.000	0.024	-0.188
-658.930	459.784	0.064	0.143
-657.916	168.205	0.090	-0.129
-656.901	-21.033	-0.126	-0.078
-655.886	-113.879	-0.224	-0.044
-654.872	201.344	-0.061	-0.095
-653.857	390.987	-0.091	-0.190
-652.843	535.912	-0.165	-0.394
-651.828	334.628	-0.083	-0.161
-650.814	-200.000	-0.031	0.437
-649.799	-56.050	-0.035	0.016
-648.784	-55.106	0.095	0.043
-647.770	-101.543	-0.380	0.093
-646.755	-166.647	0.378	-0.016
-645.741	17.374	-0.156	-0.125
-644.726	800.000	0.049	0.146
-643.711	800.000	0.029	-0.095
-642.697	54.235	-0.135	0.131
-641.682	-109.390	0.096	0.020
-640.668	-200.000	-0.032	0.212
-639.653	-127.502	0.155	-0.023
-638.638	18.735	0.356	0.287
-637.624	51.309	-0.061	-0.058
-636.609	112.242	0.062	-0.075
-635.595	108.356	0.085	0.102
-634.580	-67.176	-0.337	0.134
-633.565	-71.000	-0.206	-0.078
-632.551	48.469	0.083	0.078
-631.536	18.273	0.094	-0.075
-630.522	800.000	-0.009	-0.026
-629.507	387.105	0.070	-0.145
-628.492	-200.000	0.011	0.146
-627.478	-8.894	0.242	-0.163
-626.463	197.475	-0.139	0.214
-625.449	113.398	-0.313	-0.382
-624.434	-120.584	-0.283	-0.048
-623.419	-108.227	-0.111	-0.024
-622.405	800.000	0.042	-0.184
-621.390	5.245	-0.067	0.050
-620.376	-119.557	-0.030	-0.005
-619.361	-48.782	0.149	0.072
-618.346	-100.592	0.375	0.093
-617.332	-200.000	-0.061	0.438
-616.317	47.785	-0.082	-0.077
-615.303	334.831	0.124	-0.242
-614.288	-52.542	0.143	0.067
-613.273	800.000	0.104	0.322
-612.259	800.000	0.008	0.032
-611.244	45.748	-0.196	-0.182
-610.230	47.413	-0.135	-0.126
-609.215	187.879	0.041	-0.061
-608.201	-71.406	-0.411	0.155
-607.186	-56.080	-0.134	0.060
-606.171	-122.820	-0.287	-0.047
-605.157	-177.844	-0.303	0.007
-604.142	-200.000	0.035	-0.256
-603.128	-35.076	0.268	-0.147
-602.113	800.000	-0.072	0.228
-601.098	187.015	-0.181	-0.272
-600.084	-34.155	0.124	-0.069
-599.069	32.946	-0.241	0.210
-598.055	-40.491	0.119	0.062
-597.040	-43.757	0.191	0.097
-596.025	-162.811	0.171	-0.008
-595.011	-53.294	-0.129	0.059
-593.996	-200.000	-0.047	-0.536
-592.982	-130.659	-0.283	0.038
-591.967	800.000	0.014	-0.050
-590.952	800.000	-0.034	0.111
-589.938	48.720	0.079	-0.075
-588.923	-200.000	-0.045	-0.254
-587.909	800.000	0.045	-0.136
-586.894	-144.845	-0.318	0.029
-585.879	272.855	-0.069	0.123
-584.865	35.659	0.126	0.111
-583.850	-41.961	0.222	0.114
-582.836	-6.420	-0.171	-0.117
-581.821	251.127	-0.032	-0.055
-580.806	-20.918	0.151	-0.093
-579.792	157.851	-0.085	-0.118
-578.777	-200.000	0.000	-0.103
-577.763	22.338	0.169	-0.139
-576.748	34.730	-0.043	-0.038
-575.733	-156.438	0.219	0.014
-574.719	37.302	0.098	-0.088
-573.704	76.598	0.042	0.044
-572.690	57.622	0.214	-0.210
-571.675	-153.601	0.277	-0.019
-570.661	-46.935	0.278	-0.136
-569.646	-79.205	-0.408	-0.139
-568.631	445.538	0.127	0.279
-567.617	437.417	-0.101	0.222
-566.602	328.626	-0.203	-0.391
-565.588	-200.000	-0.065	-0.316
-564.573	-200.000	0.043	-0.396
-563.558	-7.763	-0.313	-0.212
-562.544	-21.050	0.006	-0.004
-561.529	-101.777	0.296	-0.072
-560.515	-54.057	-0.194	-0.088
-559.500	-102.711	-0.381	-0.091
-558.485	107.925	0.145	0.173
-557.471	-200.000	-0.046	0.213
-556.456	390.346	0.121	0.252
-555.442	-88.179	0.261	-0.079
-554.427	800.000	-0.043	0.164
-553.412	-144.800	-0.191	-0.018
-552.398	63.618	0.229	-0.231
-551.383	-200.000	0.027	-0.475
-550.369	-42.273	-0.196	0.100
-549.354	-41.897	0.092	-0.047
-548.339	28.926	0.143	-0.122
-547.325	-98.259	0.076	0.020
-546.310	-200.000	0.032	-0.153
-545.296	379.738	-0.106	-0.218
-544.281	-126.376	-0.062	-0.009
-543.266	548.386	0.114	0.274
-542.252	-158.518	-0.261	-0.015
-541.237	92.575	0.063	0.072
-540.223	-118.149	-0.336	0.060
-539.208	-14.135	0.124	-0.081
-538.193	800.000	0.092	-0.302
-537.179	-96.529	-0.105	0.028
-536.164	-54.931	-0.166	-0.075
-535.150	-172.631	0.266	0.008
-534.135	-107.460	-0.400	0.088
-533.121	800.000	-0.067	-0.282
-532.106	-200.000	0.016	-0.094
-531.091	18.046	0.066	-0.053
-530.077	-51.584	0.072	0.034
-529.062	481.984	-0.058	0.132
-528.048	-77.710	0.160	-0.055
-527.033	-53.720	-0.299	-0.137
-526.018	-155.134	0.190	-0.012
-525.004	800.000	-0.096	-0.360
-523.989	49.557	-0.320	-0.302
-522.975	-200.000	0.017	0.093
-521.960	800.000	-0.024	-0.094
-520.945	-37.421	-0.548	-0.293
-519.931	306.964	-0.135	-0.251
-518.916	-200.000	-0.022	-0.144
-517.902	-97.337	-0.429	0.112
-516.887	-55.272	0.239	0.108
-515.872	-140.633	0.083	-0.009
-514.858	800.000	0.050	0.160
-513.843	526.634	0.172	0.407
-512.829	-97.496	0.256	0.067
-511.814	132.269	0.328	0.424
-510.799	-36.428	-0.134	0.072
-509.785	-200.000	-0.027	0.128
-508.770	-59.380	-0.179	-0.077
-507.756	-167.023	-0.340	-0.014
-506.741	231.655	-0.070	-0.115
-505.726	195.466	0.120	0.183
-504.712	-200.000	-0.009	-0.359
-503.697	800.000	0.098	0.290
-502.683	344.061	0.080	0.157
-501.668	-103.381	-0.197	-0.046
-500.653	800.000	-0.015	-0.047
-499.639	-87.588	-0.213	0.064
-498.624	-200.000	0.175	0.000
-497.610	800.000	-0.048	-0.155
-496.595	-200.000	0.040	-0.345
-495.581	151.565	0.087	-0.119
-494.566	192.726	0.108	-0.163
-493.551	-200.000	-0.023	-0.131
-492.537	305.258	0.017	0.031
-491.522	447.335	-0.073	-0.161
-490.508	332.715	-0.119	-0.231
-489.493	22.272	-0.123	0.101
-488.478	419.624	-0.031	-0.066
-487.464	-200.000	0.057	-0.339
-486.449	-70.916	-0.404	0.152
-485.435	-200.000	-0.019	-0.161
-484.420	58.598	-0.049	0.048
-483.405	-139.358	0.369	-0.040
-482.391	-3.396	-0.194	0.135
-481.376	-65.549	-0.570	0.229
-480.362	306.569	-0.253	0.471
-479.347	255.907	-0.088	0.152
-478.332	800.000	-0.041	-0.164
-477.318	110.967	0.162	-0.196
-476.303	-18.220	-0.098	-0.062
-475.289	800.000	0.048	-0.192
-474.274	800.000	0.040	-0.136
-473.259	-75.139	-0.187	-0.067
-472.245	-200.000	0.046	0.283
-471.230	-200.000	0.011	-0.064
-470.216	-122.196	-0.311	-0.051
-469.201	-81.362	0.328	-0.108
-468.186	-49.149	-0.349	-0.167
-467.172	177.599	-0.154	0.225
-466.157	82.975	0.054	0.059
-465.143	-200.000	0.035	-0.349
-464.128	800.000	0.065	-0.199
-463.113	5.360	0.084	-0.062
-462.099	-136.054	0.137	0.016
-461.084	800.000	0.048	0.141
-460.070	-118.381	-0.444	0.079
-459.055	227.973	0.038	-0.062
-458.040	-13.816	0.144	-0.093
-457.026	106.149	-0.251	0.298
-456.011	-120.485	0.366	0.062
-454.997	-12.714	0.108	0.071
-453.982	-128.755	0.311	0.044
-452.968	65.819	0.128	0.130
-451.953	-89.058	0.167	0.050
-450.938	800.000	-0.063	-0.180
-449.924	800.000	-0.011	0.032
-448.909	-200.000	-0.006	-0.367
-447.895	59.316	-0.272	0.268
-446.880	3.866	0.207	0.151
-445.865	-200.000	0.181	0.000
-444.851	-99.061	0.299	-0.076
-443.836	-200.000	0.030	0.177
-442.822	-9.493	-0.150	0.100
-441.807	-29.585	-0.060	-0.034
-440.792	-200.000	0.010	0.408
-439.778	-200.000	0.010	0.085
-438.763	-4.171	-0.182	0.126
-437.749	-200.000	-0.009	-0.067
-436.734	286.928	-0.061	-0.110
-435.719	215.200	-0.113	-0.180
-434.705	-110.336	-0.190	0.040
-433.690	214.120	0.052	0.083
-432.676	206.818	0.012	0.019
-431.661	130.243	0.102	0.130
-430.646	-130.835	0.416	0.056
-429.632	129.783	-0.402	-0.513
-428.617	-200.000	0.009	-0.160
-427.603	-43.645	0.156	-0.079
-426.588	111.226	0.181	0.217
-425.573	5.915	-0.178	-0.131
-424.559	38.992	0.033	0.030
-423.544	-156.066	0.161	-0.010
-422.530	-95.505	-0.077	-0.021
-421.515	-188.001	-0.063	0.001
-420.500	-200.000	0.002	-0.176
-419.486	-175.188	-0.244	0.007
-418.471	-200.000	-0.002	0.132
-417.457	-84.059	-0.432	-0.137
-416.442	-136.113	-0.261	-0.031
-415.428	-108.709	-0.227	0.048
-414.413	328.955	0.074	0.143
-413.398	10.440	-0.204	0.155
-412.384	-200.000	-0.014	0.204
-411.369	800.000	0.101	0.350
-410.355	-138.799	-0.122	-0.013
-409.340	-60.394	0.100	-0.042
-408.325	358.463	-0.029	0.058
-407.311	572.890	0.026	0.064
-406.296	-62.282	0.291	0.121
-405.282	46.914	-0.024	0.022
-404.267	-71.547	0.243	-0.091
-403.252	166.189	-0.239	-0.338
-402.238	-33.687	-0.198	-0.109
-401.223	8.270	0.316	-0.237
-400.209	800.000	0.049	-0.212
-399.194	498.104	-0.124	-0.285
-398.179	180.419	-0.051	0.075
-397.165	453.264	0.067	-0.147
-396.150	191.979	0.119	0.179
-395.136	101.145	-0.076	-0.088
-394.121	67.386	0.069	-0.070
-393.106	76.538	0.196	0.207
-392.092	-105.291	-0.136	-0.031
-391.077	800.000	0.027	0.085
-390.063	232.271	0.115	0.188
-389.048	321.066	-0.080	0.151
-388.033	-186.561	-0.149	0.002
-387.019	629.336	0.065	0.164
-386.004	93.866	0.090	-0.102
-384.990	-33.125	-0.082	-0.045
-383.975	-57.478	0.276	-0.121
-382.960	-19.782	-0.031	0.019
-381.946	-113.585	0.091	-0.018
-380.931	-56.068	-0.231	0.103
-379.917	-200.000	-0.031	0.254
-378.902	-5.108	0.223	0.153
-377.888	39.938	-0.119	-0.107
-376.873	800.000	0.044	-0.186
-375.858	-95.802	-0.269	-0.072
-374.844	-200.000	-0.008	-0.087
-373.829	30.496	0.263	0.224
-372.815	-95.259	-0.070	0.019
-371.800	-76.133	0.237	0.084
-370.785	-89.003	-0.126	-0.037
-369.771	-200.000	-0.014	0.136
-368.756	-200.000	-0.001	-0.290
-367.742	99.438	0.151	-0.174
-366.727	475.928	-0.090	-0.203
-365.712	-50.789	0.114	-0.053
-364.698	32.298	-0.319	0.274
-363.683	800.000	-0.072	0.273
-362.669	-127.424	0.377	0.055
-361.654	-200.000	-0.015	-0.089
-360.639	-127.595	-0.194	0.028
-359.625	-200.000	-0.032	0.435
-358.610	-70.453	-0.345	-0.130
-357.596	-55.272	0.181	-0.081
-356.581	10.138	-0.074	0.056
-355.566	-200.000	0.032	-0.138
-354.552	-85.704	0.180	-0.056
-353.537	668.123	-0.084	-0.217
-352.523	-114.590	0.232	0.044
-351.508	-24.882	-0.277	0.164
-350.493	673.205	0.048	-0.123
-349.479	-74.312	-0.276	-0.099
-348.464	18.789	-0.141	0.112
-347.450	-75.453	0.132	-0.047
-346.435	80.754	0.101	-0.109
-345.420	-200.000	0.044	-0.202
-344.406	24.506	0.159	0.131
-343.391	410.693	-0.101	-0.214
-342.377	-122.667	-0.510	-0.082
-341.362	-0.389	-0.360	-0.255
-340.348	-126.108	-0.235	-0.035
-339.333	1.534	-0.029	0.021
-338.318	-55.763	-0.086	-0.038
-337.304	-123.055	0.157	-0.025
-336.289	83.724	-0.141	-0.153
-335.275	137.989	-0.191	0.250
-334.260	-91.270	0.235	0.067
-333.245	-200.000	0.010	0.065
-332.231	64.843	0.229	0.231
-331.216	-80.759	0.230	-0.076
-330.202	-200.000	0.044	0.202
-329.187	-179.911	-0.410	-0.009
-328.172	-94.733	-0.102	0.028
-327.158	43.556	-0.217	0.198
-326.143	305.280	-0.151	0.280
-325.129	23.952	0.050	0.041
-324.114	-113.627	0.305	0.059
-323.099	83.981	0.106	0.115
-322.085	-5.706	-0.032	-0.022
-321.070	-78.288	-0.070	-0.024
-320.056	-48.852	0.209	0.100
-319.041	752.448	0.071	-0.192
-318.026	-3.687	-0.219	-0.151
-317.012	287.675	-0.176	0.316
-315.997	-143.183	-0.216	0.021
-314.983	800.000	-0.038	-0.156
-313.968	144.361	-0.115	0.153
-312.953	-107.323	-0.219	-0.048
-311.939	97.921	0.221	0.252
-310.924	-200.000	-0.066	-0.288
-309.910	-200.000	-0.054	0.321
-308.895	85.281	0.220	-0.240
-307.880	-37.717	0.397	0.210
-306.866	-5.415	-0.193	-0.132
-305.851	-200.000	-0.054	0.289
-304.837	94.479	0.094	-0.107
-303.822	800.000	-0.063	0.179
-302.807	299.859	-0.114	0.208
-301.793	-109.440	-0.214	-0.045
-300.778	-200.000	-0.041	-0.358
-299.764	-141.396	-0.418	0.042
-298.749	11.967	-0.233	0.178
-297.735	-112.231	0.216	0.043
-296.720	-31.572	-0.180	-0.101
-295.705	-135.670	0.184	0.022
-294.691	800.000	-0.033	0.108
-293.676	-200.000	-0.014	0.186
-292.662	145.811	0.235	0.314
-291.647	561.630	0.092	0.221
-290.632	137.160	0.198	0.257
-289.618	-106.118	0.032	-0.007
-288.603	8.532	0.057	0.042
-287.589	-44.351	0.196	-0.098
-286.574	-109.156	0.160	-0.034
-285.559	72.326	0.044	-0.046
-284.545	-200.000	-0.017	-0.197
-283.530	-200.000	-0.044	0.217
-282.516	100.766	0.114	0.132
-281.501	-10.848	-0.088	-0.058
-280.486	-200.000	0.066	-0.381
-279.472	767.123	0.055	0.149
-278.457	-200.000	0.020	0.106
-277.443	2.947	0.049	-0.036
-276.428	54.669	-0.115	0.110
-275.413	800.000	0.063	0.244
-274.399	49.686	0.155	0.145
-273.384	-200.000	0.027	-0.241
-272.370	-200.000	0.006	0.056
-271.355	203.538	-0.138	0.212
-270.340	-70.323	0.148	-0.056
-269.326	-200.000	-0.048	0.309
-268.311	439.984	-0.099	-0.215
-267.297	-116.584	0.052	-0.010
-266.282	-93.320	0.194	0.054
-265.267	21.307	-0.132	0.107
-264.253	63.586	0.067	-0.067
-263.238	-152.830	0.143	-0.010
-262.224	-77.236	0.130	-0.045
-261.209	-57.980	-0.058	0.025
-260.195	-132.987	-0.144	0.018
-259.180	800.000	-0.113	-0.335
-258.165	-200.000	-0.020	0.233
-257.151	-200.000	0.007	0.096
-256.136	-120.833	0.169	-0.028
-255.122	131.549	0.211	-0.270
-254.107	439.734	0.089	-0.194
-253.092	96.998	0.161	0.183
-252.078	-163.370	0.068	-0.003
-251.063	121.017	0.053	-0.066
-250.049	-14.063	0.314	0.201
-249.034	-200.000	-0.031	-0.169
-248.019	-178.270	0.282	0.007
-247.005	499.695	0.250	-0.571
-245.990	673.827	-0.073	-0.189
-244.976	84.429	0.112	-0.122
-243.961	-38.151	-0.244	-0.128
-242.946	59.565	0.078	-0.077
-241.932	800.000	0.035	0.105
-240.917	-152.989	0.445	0.031
-239.903	24.872	-0.198	0.163
-238.888	234.946	-0.130	-0.213
-237.873	139.906	0.204	-0.267
-236.859	44.744	0.148	0.135
-235.844	488.280	0.144	0.326
-234.830	20.654	-0.118	0.095
-233.815	117.973	-0.229	0.279
-232.800	800.000	0.122	0.375
-231.786	345.288	-0.034	0.067
-230.771	800.000	-0.026	-0.082
-229.757	-70.168	0.182	0.069
-228.742	-200.000	-0.003	-0.557
-227.727	105.868	0.142	-0.167
-226.713	278.098	0.103	-0.182
-225.698	-200.000	0.003	0.115
-224.684	-162.096	0.264	-0.013
-223.669	224.277	-0.097	0.156
-222.655	-60.089	0.164	0.069
-221.640	11.492	0.182	0.138
-220.625	-106.578	0.060	0.013
-219.611	800.000	-0.039	-0.136
-218.596	45.261	-0.121	-0.111
-217.582	40.780	0.115	0.103
-216.567	-20.033	-0.057	-0.035
-215.552	-79.525	-0.069	0.023
-214.538	51.285	-0.139	-0.130
-213.523	-98.135	0.259	-0.066
-212.509	-200.000	0.053	0.357
-211.494	-135.200	-0.200	0.024
-210.479	-117.803	0.200	-0.036
-209.465	-188.256	0.151	-0.002
-208.450	114.987	0.203	0.245
-207.436	35.991	-0.154	0.134
-206.421	-200.000	-0.005	0.231
-205.406	-143.743	-0.157	0.015
-204.392	191.645	0.290	0.433
-203.377	-200.000	-0.002	0.172
-202.363	415.337	-0.101	-0.214
-201.348	-200.000	-0.013	0.280
-200.333	716.616	-0.118	0.310
-199.319	-44.514	0.279	-0.138
-198.304	552.588	0.033	0.080
-197.290	407.165	-0.122	0.256
-196.275	800.000	0.145	-0.417
-195.260	20.056	-0.277	-0.221
-194.246	-30.672	0.150	-0.084
-193.231	-200.000	0.002	0.202
-192.217	-119.865	0.163	-0.028
-191.202	800.000	0.049	0.176
-190.187	582.843	-0.107	0.260
-189.173	63.656	-0.284	0.283
-188.158	-200.000	0.016	-0.150
-187.144	-180.959	0.215	-0.004
-186.129	132.186	0.076	0.097
-185.114	64.858	0.179	0.178
-184.100	118.124	-0.055	-0.067
-183.085	433.193	0.097	-0.209
-182.071	71.334	-0.080	0.082
-181.056	-200.000	-0.007	0.091
-180.042	81.125	-0.051	0.054
-179.027	353.660	0.125	-0.245
-178.012	353.906	-0.117	0.229
-176.998	-80.710	-0.072	-0.024
-175.983	-160.856	0.124	-0.006
-174.969	115.088	0.263	0.318
-173.954	-200.000	-0.011	0.201
-172.939	800.000	-0.036	0.109
-171.925	-200.000	-0.006	0.221
-170.910	-153.969	0.305	0.021
-169.896	170.748	0.195	0.276
-168.881	800.000	-0.141	-0.385
-167.866	800.000	0.041	-0.130
-166.852	419.237	-0.161	0.340
-165.837	114.306	-0.115	0.138
-164.823	7.876	-0.179	0.133
-163.808	-69.110	0.215	-0.082
-162.793	-14.506	0.221	0.141
-161.779	14.018	-0.128	0.099
-160.764	-56.797	0.139	-0.061
-159.750	-55.964	0.156	-0.069
-158.735	27.620	0.231	-0.192
-157.720	-200.000	0.090	-0.405
-156.706	763.022	0.132	-0.353
-155.691	-163.434	0.235	-0.011
-154.677	-167.863	-0.211	0.008
-153.662	121.523	-0.069	-0.085
-152.647	-164.355	0.493	0.022
-151.633	221.278	-0.143	-0.227
-150.618	-63.180	-0.120	-0.049
-149.604	87.111	-0.115	0.126
-148.589	-46.235	0.123	0.060
-147.574	-190.820	-0.063	0.001
-146.560	-2.919	-0.223	0.154
-145.545	-143.308	-0.355	0.034
-144.531	800.000	0.148	0.471
-143.516	41.349	-0.062	0.056
-142.502	800.000	-0.043	0.121
-141.487	-66.925	0.216	-0.084
-140.472	159.884	-0.104	-0.143
-139.458	-38.271	0.117	-0.061
-138.443	-32.606	-0.096	0.053
-137.429	-100.300	-0.056	0.014
-136.414	-200.000	-0.022	-0.152
-135.399	-52.268	0.287	-0.131
-134.385	-200.000	0.024	0.144
-133.370	61.440	-0.038	0.037
-132.356	-109.246	0.351	0.074
-131.341	-70.426	-0.113	0.042
-130.326	800.000	0.057	-0.172
-129.312	800.000	0.049	0.203
-128.297	-62.376	-0.168	0.069
-127.283	-122.689	0.090	0.014
-126.268	-21.162	0.253	0.153
-125.253	800.000	0.015	-0.046
-124.239	49.690	-0.128	-0.119
-123.224	-200.000	0.036	0.191
-122.210	800.000	-0.070	-0.299
-121.195	367.844	-0.040	0.081
-120.180	336.270	0.136	0.260
-119.166	-59.849	-0.133	0.056
-118.151	61.394	-0.028	0.027
-117.137	486.582	0.112	-0.251
-116.122	-200.000	0.017	-0.213
-115.107	-60.268	0.141	-0.059
-114.093	-188.506	0.456	-0.006
-113.078	-75.795	-0.389	0.136
-112.064	71.196	0.050	0.051
-111.049	43.843	-0.102	-0.093
-110.034	-106.094	-0.052	0.012
-109.020	-103.820	0.289	-0.067
-108.005	-23.906	0.128	0.076
-106.991	-32.720	-0.166	-0.091
-105.976	-79.568	0.150	0.050
-104.962	305.472	-0.050	-0.092
-103.947	-200.000	-0.010	0.079
-102.932	800.000	-0.112	-0.407
-101.918	524.992	-0.088	-0.205
-100.903	-200.000	-0.010	0.249
-99.889	-200.000	-0.019	-0.127
-98.874	800.000	0.052	0.157
-97.859	-200.000	-0.024	0.241
-96.845	-33.622	-0.263	-0.143
-95.830	-200.000	-0.044	-0.203
-94.816	-200.000	0.034	0.154
-93.801	-43.440	0.337	0.168
-92.786	-21.143	0.062	-0.037
-91.772	782.187	0.023	-0.063
-90.757	158.170	0.050	-0.068
-89.743	2.310	-0.035	-0.025
-88.728	-200.000	-0.021	0.149
-87.713	148.437	0.072	0.096
-86.699	-20.293	0.291	0.177
-85.684	800.000	-0.065	-0.265
-84.670	35.000	-0.208	-0.179
-83.655	-34.252	0.193	0.104
-82.640	-16.155	0.237	0.149
-81.626	-6.037	0.059	-0.040
-80.611	312.480	0.078	0.145
-79.597	-200.000	-0.003	0.076
-78.582	-200.000	0.015	0.122
-77.567	0.496	0.125	0.088
-76.553	83.116	-0.056	0.060
-75.538	-35.977	-0.056	0.030
-74.524	1.569	-0.220	0.156
-73.509	-23.070	0.355	-0.211
-72.494	217.692	0.103	0.162
-71.480	331.541	0.102	0.194
-70.465	800.000	0.068	0.252
-69.451	-1.525	0.079	0.055
-68.436	-200.000	-0.026	-0.293
-67.422	136.411	-0.068	-0.088
-66.407	-43.859	0.161	0.080
-65.392	25.302	0.183	0.150
-64.378	256.308	-0.250	-0.423
-63.363	-52.415	0.297	-0.135
-62.349	467.057	0.027	-0.061
-61.334	43.821	-0.742	-0.669
-60.319	47.752	0.742	0.682
-59.305	800.000	-0.188	-0.724
-58.290	141.934	0.699	0.913
-57.276	800.000	0.567	1.654
-56.261	-200.000	96.610	576.976
-55.246	542.567	1386.614	3256.321
-54.232	157.643	2567.920	3501.667
-53.217	111.880	2146.062	2551.885
-52.203	44.722	1607.262	1455.577
-51.188	36.772	1345.247	1170.423
-50.173	33.594	1303.318	1115.244
-49.159	55.469	1349.996	1286.472
-48.144	57.711	1367.344	1316.354
-47.130	36.783	1325.415	1153.050
-46.115	33.459	1307.645	1117.974
-45.100	33.271	1303.082	1112.923
-44.086	33.274	1300.607	1110.778
-43.071	33.254	1298.120	1108.497
-42.057	33.220	1296.278	1106.678
-41.042	33.135	1294.656	1104.753
-40.027	33.186	1293.280	1103.831
-39.013	33.298	1291.221	1102.686
-37.998	33.279	1289.153	1100.765
-36.984	33.153	1288.672	1099.576
-35.969	33.230	1286.490	1098.121
-34.954	33.286	1284.548	1096.744
-33.940	33.341	1283.294	1095.949
-32.925	33.381	1281.770	1094.834
-31.911	33.444	1280.257	1093.862
-30.896	33.409	1279.113	1092.641
-29.881	33.417	1277.622	1091.366
-28.867	33.459	1275.869	1090.069
-27.852	33.456	1274.744	1089.048
-26.838	33.417	1273.453	1087.679
-25.823	33.499	1271.991	1086.858
-24.809	33.355	1270.921	1085.073
-23.794	33.354	1269.464	1083.780
-22.779	33.198	1268.818	1082.292
-21.765	33.340	1266.854	1081.387
-20.750	33.474	1265.371	1080.839
-19.736	33.342	1264.315	1079.142
-18.721	33.280	1263.243	1077.833
-17.706	33.245	1262.353	1076.835
-16.692	33.232	1260.891	1075.470
-15.677	33.321	1259.488	1074.734
-14.663	33.353	1258.449	1073.985
-13.648	33.336	1257.843	1073.329
-12.633	33.279	1256.735	1072.020
-11.619	33.271	1256.023	1071.326
-10.604	33.258	1255.215	1070.516
-9.590	33.216	1254.482	1069.616
-8.575	33.291	1253.273	1068.966
-7.560	33.233	1252.470	1067.909
-6.546	33.263	1251.704	1067.381
-5.531	33.141	1250.877	1065.947
-4.517	33.319	1249.857	1066.038
-3.502	33.223	1249.070	1064.787
-2.487	33.220	1248.473	1064.219
-1.473	33.237	1243.899	1060.370
-0.458	31.838	1229.456	1040.259
0.556	28.857	1212.776	1003.979
1.571	25.351	1218.919	989.688
2.586	24.663	1234.873	998.712
3.600	24.297	1224.527	988.228
4.615	17.982	1151.154	895.916
5.629	7.119	1073.503	782.001
6.644	2.362	1051.967	743.177
7.659	2.092	1049.215	739.858
8.673	1.900	1047.971	737.986
9.688	1.907	1046.441	736.880
10.702	2.367	1045.728	738.533
11.717	9.190	1055.563	778.570
12.731	19.364	1070.295	839.127
13.746	24.320	1075.369	867.197
14.761	25.074	1076.465	871.673
15.775	25.050	1075.926	871.040
16.790	24.765	1075.189	868.981
17.804	24.896	1074.099	868.658
18.819	25.030	1074.148	869.274
19.834	25.167	1073.151	869.056
20.848	25.109	1073.315	868.830
21.863	25.085	1072.564	868.027
22.877	24.969	1072.386	867.246
23.892	24.968	1071.320	866.304
24.907	25.090	1070.538	866.184
25.921	25.000	1069.231	864.613
26.936	24.975	1068.279	863.645
27.950	24.896	1066.785	861.981
28.965	24.955	1065.013	860.756
29.980	25.111	1062.707	859.568
30.994	25.110	1062.528	859.341
32.009	25.077	1061.508	858.282
33.023	24.826	1060.513	856.198
34.038	24.925	1059.950	856.143
35.053	25.024	1059.237	855.965
36.067	24.961	1058.319	854.848
37.082	25.154	1057.709	855.197
38.096	25.491	1056.571	855.809
39.111	25.436	1056.232	855.197
40.126	25.133	1054.826	852.542
41.140	24.798	1053.039	849.429
42.155	24.600	1051.791	847.412
43.169	24.794	1050.662	847.345
44.184	24.787	1049.850	846.583
45.199	24.715	1048.677	845.218
46.213	24.762	1048.234	845.009
47.228	24.895	1047.314	844.822
48.242	25.040	1046.139	844.484
49.257	25.022	1045.514	843.819
50.271	25.099	1045.473	844.073
51.286	25.183	1044.367	843.500
52.301	25.143	1043.636	842.648
53.315	25.084	1042.408	841.304
54.330	24.991	1041.905	840.390
55.344	24.958	1041.287	839.661
56.359	24.990	1040.104	838.784
57.374	24.821	1038.767	836.842
58.388	24.978	1037.674	836.619
59.403	24.800	1037.095	835.248
60.417	24.605	1036.523	833.804
61.432	24.759	1035.983	834.011
62.447	24.909	1034.904	833.768
63.461	24.903	1034.250	833.140
64.476	24.776	1033.260	831.679
65.490	24.751	1032.619	830.973
66.505	24.869	1031.645	830.664
67.520	24.769	1031.455	829.970
68.534	24.624	1030.226	828.238
69.549	24.364	1029.387	826.287
70.563	24.418	1028.012	825.360
71.578	24.414	1027.138	824.566
72.593	24.280	1025.987	822.953
73.607	24.414	1025.552	823.147
74.622	24.659	1025.585	824.229
75.636	24.799	1024.615	824.022
76.651	24.541	1023.804	822.111
77.666	24.456	1022.946	820.958
78.680	24.578	1022.370	820.983
79.695	24.559	1021.797	820.363
80.709	24.719	1021.246	820.582
81.724	24.737	1020.619	820.091
82.739	24.754	1019.940	819.549
83.753	25.083	1019.517	820.641
84.768	25.368	1018.426	820.997
85.782	25.494	1017.538	820.782
86.797	25.409	1016.648	819.604
87.812	25.135	1015.691	817.513
88.826	25.292	1014.671	817.335
89.841	25.379	1013.937	817.064
90.855	25.377	1012.812	816.075
91.870	25.288	1012.168	815.082
92.884	25.225	1010.391	813.295
93.899	25.205	1009.594	812.491
94.914	25.169	1009.131	811.883
95.928	25.245	1007.776	811.062
96.943	25.053	1006.614	809.188
97.957	24.818	1005.274	806.979
98.972	24.609	1004.388	805.257
99.987	24.858	1004.080	806.061
101.001	25.217	1003.066	806.791
102.016	25.076	1002.012	805.238
103.030	24.894	1001.195	803.690
104.045	24.861	1000.054	802.558
105.060	24.741	999.194	801.261
106.074	24.847	998.521	801.124
107.089	25.093	998.418	802.072
108.103	24.965	997.383	800.595
109.118	24.894	995.706	798.859
110.133	24.901	994.718	798.029
111.147	24.567	993.718	795.669
112.162	24.460	992.643	794.261
113.176	24.761	992.064	795.066
114.191	24.816	991.236	794.574
115.206	24.578	989.767	792.272
116.220	24.483	989.206	791.333
117.235	24.529	988.587	790.972
118.249	24.545	987.765	790.316
119.264	24.411	987.086	789.111
120.279	24.357	986.854	788.613
121.293	24.521	985.611	788.277
122.308	24.403	985.222	787.373
123.322	24.461	983.900	786.504
124.337	24.349	982.423	784.759
125.352	23.798	980.793	780.970
126.366	23.846	979.991	780.474
127.381	24.542	979.830	783.328
128.395	24.881	980.239	785.075
129.410	25.272	978.612	785.414
130.424	25.055	977.778	783.725
131.439	25.136	976.594	783.059
132.454	25.025	976.082	782.094
133.468	24.947	975.271	781.038
134.483	25.035	974.721	780.911
135.497	25.276	973.637	781.023
136.512	25.308	972.859	780.468
137.527	25.198	972.251	779.435
138.541	25.261	971.617	779.128
139.556	25.426	970.362	778.771
140.570	25.510	969.779	778.596
141.585	25.384	968.730	777.139
142.600	25.393	967.871	776.421
143.614	25.544	967.196	776.462
144.629	25.678	965.745	775.805
145.643	25.365	965.195	773.947
146.658	25.125	964.375	772.189
147.673	25.256	963.059	771.630
148.687	25.257	961.651	770.437
149.702	24.952	960.700	768.302
150.716	25.011	959.943	767.880
151.731	25.211	959.482	768.300
152.746	25.438	958.572	768.475
153.760	25.527	958.106	768.412
154.775	25.527	957.819	768.115
155.789	25.480	957.152	767.312
156.804	25.554	955.644	766.349
157.819	25.528	955.294	765.892
158.833	25.587	954.647	765.556
159.848	25.697	953.010	764.644
160.862	25.498	952.044	762.953
161.877	25.437	951.082	761.857
162.892	25.460	950.149	761.138
163.906	25.565	948.620	760.292
164.921	25.405	948.164	759.182
165.935	25.492	947.502	758.954
166.950	25.496	946.633	758.206
167.964	25.454	945.875	757.356
168.979	25.160	944.600	755.030
169.994	25.303	943.664	754.817
171.008	25.622	943.155	755.683
172.023	25.445	942.612	754.439
173.037	25.143	941.632	752.320
174.052	25.236	940.226	751.520
175.067	25.190	940.199	751.239
176.081	25.270	939.393	750.863
177.096	25.228	938.441	749.861
178.110	24.841	937.765	747.636
179.125	24.771	936.731	746.456
180.140	24.774	937.103	746.699
181.154	25.094	936.039	747.116
182.169	25.296	936.170	747.998
183.183	25.477	935.884	748.455
184.198	25.362	934.612	746.893
185.213	25.285	933.863	745.910
186.227	25.344	933.418	745.736
187.242	25.327	932.973	745.242
188.256	25.483	932.400	745.367
189.271	25.675	930.745	744.772
190.286	25.296	930.006	742.549
191.300	24.579	928.667	738.448
192.315	23.849	927.125	734.144
193.329	23.836	926.771	733.743
194.344	24.674	927.259	737.527
195.359	25.150	927.039	739.247
196.373	25.343	926.454	739.512
197.388	25.171	926.091	738.448
198.402	25.191	925.451	737.957
199.417	25.433	924.656	738.252
200.432	25.122	923.618	736.081
201.446	24.915	922.971	734.650
202.461	24.964	922.498	734.409
203.475	24.088	920.665	729.299
204.490	23.231	919.349	724.686
205.504	24.202	919.700	728.873
206.519	24.844	919.409	731.201
207.534	25.006	918.970	731.446
208.548	25.396	918.748	732.795
209.563	25.184	918.094	731.347
210.577	25.082	917.455	730.360
211.592	25.709	916.642	732.195
212.607	25.469	916.206	730.810
213.621	25.513	915.603	730.439
214.636	25.570	914.887	730.039
215.650	25.486	914.004	728.927
216.665	25.692	913.690	729.449
217.680	25.579	912.909	728.300
218.694	25.022	911.668	724.994
219.709	25.098	910.844	724.582
220.723	25.255	910.489	724.868
221.738	25.262	910.374	724.744
222.753	25.178	909.598	723.722
223.767	25.542	908.861	724.537
224.782	25.677	908.292	724.563
225.796	25.634	908.018	724.107
226.811	24.945	906.640	720.177
227.826	24.279	905.278	716.353
228.840	24.449	905.080	716.818
229.855	24.588	904.135	716.565
230.869	24.211	903.145	714.203
231.884	24.706	903.247	716.207
232.899	25.421	903.148	718.928
233.913	25.315	902.493	717.915
234.928	25.313	901.707	717.221
235.942	25.247	901.261	716.539
236.957	24.813	900.455	714.103
237.972	24.888	899.871	713.874
238.986	25.062	898.845	713.692
240.001	25.009	898.576	713.203
241.015	25.163	898.387	713.604
242.030	25.149	897.901	713.099
243.045	25.300	897.428	713.258
244.059	25.443	897.077	713.487
245.074	25.352	895.712	711.974
246.088	25.044	894.647	709.846
247.103	25.421	894.368	711.056
248.117	25.964	894.297	713.082
249.132	25.968	894.530	713.221
250.147	26.095	894.257	713.443
251.161	26.307	892.921	713.153
252.176	26.020	892.456	711.584
253.190	26.246	892.376	712.351
254.205	26.394	891.861	712.460
255.220	26.311	891.215	711.551
256.234	26.271	890.334	710.630
257.249	26.156	889.453	709.412
258.263	26.131	889.051	708.929
259.278	25.976	888.762	708.027
260.293	26.301	887.896	708.548
261.307	26.149	887.370	707.470
262.322	26.086	885.967	706.043
263.336	25.113	884.296	700.848
264.351	24.187	882.184	695.498
265.366	24.336	882.174	696.011
266.380	25.379	882.790	700.506
267.395	25.826	882.847	702.235
268.409	25.814	881.825	701.311
269.424	26.060	881.298	701.787
270.439	26.060	880.803	701.330
271.453	26.115	880.034	700.869
272.468	26.290	879.983	701.446
273.482	26.248	879.141	700.549
274.497	25.883	878.066	698.218
275.512	25.529	876.952	695.900
276.526	25.944	877.110	697.572
277.541	26.069	877.044	697.938
278.555	25.889	875.911	696.282
279.570	25.718	875.494	695.229
280.585	25.903	875.213	695.658
281.599	25.774	874.262	694.342
282.614	25.187	872.840	690.890
283.628	25.245	872.213	690.555
284.643	25.668	871.867	691.848
285.657	25.288	870.574	689.303
286.672	24.926	870.019	687.412
287.687	25.533	869.946	689.625
288.701	25.738	869.424	689.935
289.716	25.302	868.608	687.557
290.730	25.321	867.790	686.921
291.745	24.947	866.435	684.360
292.760	25.165	867.270	685.790
293.774	26.213	867.509	689.923
294.789	26.786	866.761	691.456
295.803	26.628	866.502	690.586
296.818	26.594	865.879	689.896
297.833	26.156	864.890	687.382
298.847	26.074	863.761	686.111
299.862	26.303	863.639	686.823
300.876	26.594	863.652	687.880
301.891	26.565	862.597	686.869
302.906	26.131	861.795	684.524
303.920	26.089	861.690	684.220
304.935	26.583	861.212	685.653
305.949	26.469	860.579	684.657
306.964	26.201	860.015	683.132
307.979	26.374	859.423	683.257
308.993	26.706	859.106	684.199
310.008	26.723	858.702	683.879
311.022	26.494	857.821	682.252
312.037	26.273	857.161	680.834
313.052	25.983	855.842	678.637
314.066	25.215	854.490	674.617
315.081	24.795	854.065	672.642
316.095	25.725	854.614	676.515
317.110	26.313	853.827	678.038
318.125	25.455	852.531	673.733
319.139	24.350	851.024	668.346
320.154	24.386	851.086	668.467
321.168	25.280	850.971	671.667
322.183	25.950	851.005	674.142
323.197	26.140	850.818	674.642
324.212	26.230	850.706	674.829
325.227	26.183	850.563	674.480
326.241	26.163	849.223	673.286
327.256	26.126	848.587	672.581
328.270	26.092	847.697	671.690
329.285	25.856	847.242	670.392
330.300	25.650	846.354	668.865
331.314	25.819	846.054	669.198
332.329	26.253	846.237	670.894
333.343	26.355	845.576	670.689
334.358	26.334	845.434	670.439
335.373	26.432	844.842	670.274
336.387	26.803	844.664	671.447
337.402	26.919	844.563	671.738
338.416	26.832	844.176	671.047
339.431	26.976	844.060	671.431
340.446	27.173	843.621	671.749
341.460	26.906	843.051	670.250
342.475	26.789	842.424	669.259
343.489	26.851	842.433	669.439
344.504	27.039	842.360	670.014
345.519	27.290	841.361	670.086
346.533	27.280	840.840	669.573
347.548	27.245	840.674	669.251
348.562	27.202	839.835	668.369
349.577	27.309	839.237	668.225
350.592	27.245	838.448	667.303
351.606	27.060	837.900	666.129
352.621	27.134	836.791	665.460
353.635	27.065	836.357	664.803
354.650	26.356	834.654	660.802
355.665	25.422	833.043	656.059
356.679	25.817	833.335	657.673
357.694	26.148	832.873	658.456
358.708	26.297	832.100	658.331
359.723	26.609	832.401	659.649
360.738	26.824	831.841	659.927
361.752	26.827	831.526	659.630
362.767	27.317	830.999	660.936
363.781	27.406	831.140	661.311
364.796	27.599	830.373	661.344
365.810	27.689	830.370	661.608
366.825	27.533	829.924	660.628
367.840	27.231	828.627	658.445
368.854	26.849	827.811	656.357
369.869	26.913	827.520	656.298
370.883	26.923	826.965	655.836
371.898	27.000	826.360	655.578
372.913	26.959	826.491	655.475
373.927	26.967	826.123	655.153
374.942	27.035	825.852	655.126
375.956	27.316	825.107	655.489
376.971	27.344	825.129	655.549
377.986	27.641	824.400	655.981
379.000	27.457	823.915	654.877
380.015	27.325	823.383	653.921
381.029	27.421	822.631	653.611
382.044	27.623	822.063	653.826
383.059	27.670	821.336	653.357
384.073	27.677	820.534	652.686
385.088	27.423	820.492	651.687
386.102	27.419	819.394	650.743
387.117	27.292	819.134	650.025
388.132	26.896	817.706	647.424
389.146	26.404	816.902	644.972
390.161	26.684	817.103	646.075
391.175	27.185	816.673	647.461
392.190	26.930	815.660	645.694
393.205	25.511	813.599	638.967
394.219	24.221	811.558	632.729
395.234	24.110	811.630	632.336
396.248	25.692	812.950	638.930
397.263	27.222	813.873	645.030
398.278	27.072	813.409	644.074
399.292	26.933	812.418	642.739
400.307	26.738	812.843	642.327
401.321	26.974	811.800	642.283
402.336	27.500	811.377	643.752
403.350	27.748	812.096	645.140
404.365	28.134	811.381	645.878
405.380	28.350	811.090	646.352
406.394	28.298	810.929	645.983
407.409	28.208	810.057	644.914
408.423	28.287	809.795	644.928
409.438	28.182	810.226	644.843
410.453	28.284	809.385	644.476
411.467	28.227	808.474	643.492
412.482	28.280	808.231	643.430
413.496	28.398	807.729	643.387
414.511	28.315	807.718	643.029
415.526	28.337	807.033	642.503
416.540	28.141	806.260	641.146
417.555	27.802	805.891	639.609
418.569	28.003	805.210	639.713
419.584	27.873	804.427	638.579
420.599	27.878	803.946	638.161
421.613	110.635	1283.657	1453.736
422.628	95.568	1353.552	1453.871
