DTS Sentinel unit serial number:	SN413079Multiplexer serial number:	ORYXHardware model number:	OX4-SRSoftware version number:	ORYX F/W v4.00 Oryx Data Collector v3.7.2.0data status	okinstallation	princeton_trtdifferential loss correction	single-endedforward channel	channel 1reverse channel	N/Adate	2019/09/11time	01:04:11forward acquisition time	60.00reverse acquisition time	0.00gamma	496.2192k internal	0.2332k external	0.2332temperature offset calibration	0.9930default loss term (dB/km)	0.3790temperature slope calibration	1.0000multiplexer offset coefficient	1.0000multiplexer slope coefficient	1.0000fibre end	0.00T internal ref (°C)	29.16T ext. ref 1 (°C)	-0.30T ext. ref 2 (°C)	22.95length (m)	temperature (°C)	Stokes	anti-Stokes-747.200	-200.000	-0.062	0.510
-746.185	227.738	0.162	0.266
-745.171	229.720	0.148	-0.243
-744.156	567.590	-0.065	0.158
-743.142	507.014	0.106	-0.248
-742.127	-82.411	-0.406	0.133
-741.112	10.721	0.116	0.089
-740.098	8.968	-0.174	-0.132
-739.083	-200.000	-0.005	-0.073
-738.069	-61.502	-0.342	0.144
-737.054	-200.000	-0.009	-0.204
-736.039	30.267	-0.345	0.296
-735.025	-31.358	0.245	-0.138
-734.010	345.405	0.072	-0.143
-732.996	83.523	-0.282	-0.309
-731.981	-12.012	-0.130	-0.085
-730.966	337.876	-0.035	-0.068
-729.952	45.488	-0.258	-0.240
-728.937	-200.000	-0.022	-0.330
-727.923	-70.662	-0.442	0.168
-726.908	800.000	0.039	-0.128
-725.894	-157.568	-0.161	-0.010
-724.879	-200.000	0.005	0.190
-723.864	-182.253	0.382	-0.007
-722.850	-6.314	-0.142	0.097
-721.835	739.687	0.109	-0.294
-720.821	343.620	-0.096	-0.189
-719.806	10.473	-0.265	-0.203
-718.791	-200.000	0.015	-0.154
-717.777	-97.672	-0.103	-0.027
-716.762	-124.613	-0.130	0.020
-715.748	-148.191	-0.153	0.013
-714.733	50.435	-0.102	-0.097
-713.718	138.183	-0.189	-0.249
-712.704	-174.742	0.392	0.011
-711.689	51.337	0.234	0.223
-710.675	522.197	-0.113	-0.266
-709.660	-66.974	-0.227	0.090
-708.645	22.413	-0.233	0.192
-707.631	-157.649	0.246	-0.015
-706.616	-89.410	-0.132	0.039
-705.602	-58.692	0.326	0.142
-704.587	-134.976	-0.214	-0.026
-703.572	800.000	0.106	-0.317
-702.558	-200.000	-0.063	0.295
-701.543	409.940	0.028	0.061
-700.529	-97.176	-0.502	-0.132
-699.514	630.759	0.024	0.060
-698.499	800.000	0.035	0.119
-697.485	-200.000	0.005	-0.028
-696.470	-85.820	-0.131	0.041
-695.456	800.000	0.097	0.324
-694.441	258.473	0.166	0.288
-693.426	640.632	-0.043	-0.110
-692.412	-122.786	-0.478	0.077
-691.397	374.114	-0.148	0.303
-690.383	-88.592	-0.162	0.049
-689.368	-111.844	-0.224	-0.045
-688.354	30.610	0.257	-0.220
-687.339	144.559	-0.122	-0.164
-686.324	103.787	0.253	0.298
-685.310	30.180	0.028	-0.024
-684.295	446.861	-0.043	-0.096
-683.281	-139.643	-0.401	-0.043
-682.266	7.305	-0.178	-0.133
-681.251	-49.250	-0.218	-0.105
-680.237	-200.000	-0.026	0.122
-679.222	105.957	0.106	0.125
-678.208	-2.103	-0.165	-0.116
-677.193	125.934	0.253	-0.321
-676.178	60.204	0.080	-0.079
-675.164	-159.271	-0.227	-0.013
-674.149	120.991	0.093	0.117
-673.135	-46.915	-0.111	0.055
-672.120	800.000	-0.058	-0.201
-671.105	-200.000	0.019	-0.192
-670.091	-178.881	0.275	0.006
-669.076	257.766	-0.070	0.121
-668.062	243.634	0.036	0.061
-667.047	-38.882	0.196	-0.104
-666.032	-116.857	-0.080	-0.015
-665.018	-94.455	-0.219	-0.060
-664.003	-46.126	0.351	0.173
-662.989	147.425	-0.197	-0.267
-661.974	800.000	0.053	0.204
-660.959	47.691	0.102	0.096
-659.945	13.454	-0.293	0.228
-658.930	-1.330	-0.261	-0.184
-657.916	202.082	0.045	0.070
-656.901	-128.029	-0.361	0.052
-655.886	-163.040	-0.392	0.019
-654.872	150.380	0.238	-0.324
-653.857	800.000	0.038	0.137
-652.843	150.725	0.082	-0.112
-651.828	-200.000	0.024	0.196
-650.814	-200.000	0.033	-0.147
-649.799	8.130	-0.223	0.168
-648.784	625.534	0.162	0.409
-647.770	-32.709	0.177	0.099
-646.755	334.443	0.100	-0.194
-645.741	-137.734	0.240	0.027
-644.726	-165.084	-0.079	0.004
-643.711	-109.975	-0.255	0.054
-642.697	247.139	0.083	0.140
-641.682	120.001	-0.092	0.114
-640.668	110.845	0.103	0.124
-639.653	800.000	-0.032	-0.122
-638.638	36.610	0.262	0.231
-637.624	141.724	0.147	-0.195
-636.609	-200.000	-0.025	-0.273
-635.595	60.253	-0.197	0.195
-634.580	-31.529	0.209	0.118
-633.565	15.951	0.165	0.130
-632.551	78.514	-0.177	-0.190
-631.536	-164.794	0.214	-0.010
-630.522	800.000	0.027	-0.114
-629.507	263.157	-0.206	-0.359
-628.492	-34.081	0.251	-0.138
-627.478	-200.000	-0.027	0.146
-626.463	-182.748	-0.272	-0.005
-625.449	-200.000	-0.017	-0.423
-624.434	-200.000	-0.008	-0.322
-623.419	-4.549	-0.323	-0.223
-622.405	256.883	0.058	0.100
-621.390	-200.000	0.035	0.437
-620.376	40.100	-0.120	0.108
-619.361	32.472	-0.213	0.184
-618.346	-23.362	-0.276	-0.166
-617.332	-200.000	-0.071	-0.406
-616.317	-200.000	0.066	0.356
-615.303	778.657	0.049	0.135
-614.288	-75.899	-0.024	0.009
-613.273	153.655	0.134	0.183
-612.259	-200.000	0.008	0.178
-611.244	800.000	0.031	0.088
-610.230	-74.064	0.284	-0.103
-609.215	-200.000	-0.066	0.292
-608.201	-200.000	0.023	-0.445
-607.186	-77.399	0.110	-0.038
-606.171	122.744	-0.114	0.143
-605.157	153.245	-0.185	-0.254
-604.142	-8.865	-0.072	-0.048
-603.128	0.267	-0.116	-0.083
-602.113	-200.000	0.021	-0.223
-601.098	-55.645	-0.045	0.020
-600.084	70.369	0.145	-0.150
-599.069	236.832	0.121	0.201
-598.055	473.072	-0.121	0.273
-597.040	800.000	-0.088	-0.274
-596.025	-197.320	-0.500	-0.003
-595.011	81.035	0.186	-0.201
-593.996	90.893	0.127	-0.143
-592.982	100.212	-0.059	0.069
-591.967	-136.346	0.133	0.016
-590.952	-65.659	-0.084	0.034
-589.938	800.000	-0.080	-0.233
-588.923	169.526	-0.079	-0.113
-587.909	200.863	0.154	-0.237
-586.894	-68.667	-0.151	-0.058
-585.879	-200.000	-0.006	0.259
-584.865	-80.785	-0.107	0.035
-583.850	432.073	-0.096	0.209
-582.836	325.250	0.064	-0.122
-581.821	301.661	-0.167	0.308
-580.806	74.539	0.079	0.083
-579.792	800.000	-0.038	0.119
-578.777	-184.344	0.219	0.004
-577.763	-19.143	0.180	-0.112
-576.748	-112.274	0.436	0.087
-575.733	117.725	0.201	0.247
-574.719	-95.860	-0.275	-0.073
-573.704	-200.000	0.008	0.058
-572.690	-200.000	-0.019	0.136
-571.675	-74.657	-0.247	-0.089
-570.661	-200.000	0.002	-0.189
-569.646	-137.866	0.571	-0.064
-568.631	80.934	-0.271	-0.292
-567.617	585.443	0.139	-0.342
-566.602	-8.029	-0.095	0.064
-565.588	367.920	-0.132	0.267
-564.573	-200.000	-0.006	-0.084
-563.558	-91.344	-0.179	-0.051
-562.544	-171.682	-0.126	-0.004
-561.529	-200.000	0.004	-0.091
-560.515	49.610	0.238	-0.224
-559.500	-30.852	0.244	-0.138
-558.485	17.952	0.194	0.154
-557.471	388.111	0.027	-0.056
-556.456	-93.638	0.103	-0.028
-555.442	38.561	-0.157	-0.140
-554.427	-71.317	-0.356	-0.133
-553.412	-155.456	0.318	-0.021
-552.398	444.301	-0.204	0.447
-551.383	101.528	0.225	0.262
-550.369	208.755	0.043	0.068
-549.354	5.525	0.153	-0.113
-548.339	-200.000	-0.015	0.141
-547.325	-200.000	-0.014	0.283
-546.310	-200.000	0.042	-0.498
-545.296	113.887	-0.221	0.268
-544.281	-19.188	-0.024	-0.015
-543.266	146.988	0.168	-0.226
-542.252	-163.749	0.098	-0.005
-541.237	-15.681	0.146	0.093
-540.223	0.064	0.111	0.079
-539.208	-143.060	-0.130	0.013
-538.193	111.331	-0.277	-0.334
-537.179	800.000	0.093	0.346
-536.164	160.047	-0.181	0.252
-535.150	98.104	-0.183	-0.210
-534.135	326.060	0.152	0.290
-533.121	-30.500	-0.372	0.211
-532.106	141.240	-0.048	0.064
-531.091	-200.000	0.012	0.217
-530.077	-44.456	0.370	0.185
-529.062	17.246	0.167	-0.132
-528.048	800.000	-0.037	0.125
-527.033	491.679	-0.089	-0.203
-526.018	-67.776	0.224	0.087
-525.004	55.460	0.204	0.197
-523.989	409.869	0.036	-0.077
-522.975	-116.409	-0.211	0.039
-521.960	800.000	-0.041	-0.170
-520.945	4.141	0.104	0.076
-519.931	483.998	0.046	-0.105
-518.916	-28.088	0.053	-0.030
-517.902	-200.000	0.004	-0.170
-516.887	423.829	-0.014	0.031
-515.872	-5.849	0.172	0.117
-514.858	-200.000	0.023	-0.108
-513.843	410.010	-0.004	-0.008
-512.829	-200.000	0.015	-0.301
-511.814	45.648	-0.091	-0.084
-510.799	-4.788	0.176	0.121
-509.785	6.349	0.173	0.128
-508.770	-16.317	0.204	0.129
-507.756	800.000	0.048	0.162
-506.741	27.907	-0.179	-0.150
-505.726	-61.107	0.267	0.112
-504.712	-200.000	0.001	-0.015
-503.697	-122.629	-0.211	0.034
-502.683	14.319	0.148	-0.115
-501.668	-136.420	0.296	-0.034
-500.653	-176.195	-0.279	-0.007
-499.639	177.999	0.131	0.190
-498.624	-119.899	0.208	0.036
-497.610	130.723	0.155	-0.198
-496.595	-101.755	-0.090	0.022
-495.581	-7.961	0.351	0.236
-494.566	-80.640	-0.179	-0.059
-493.551	-97.185	0.169	0.044
-492.537	-200.000	-0.002	-0.425
-491.522	-121.697	0.175	-0.029
-490.508	15.753	-0.135	0.106
-489.493	29.535	-0.174	0.147
-488.478	-4.334	0.552	0.380
-487.464	-66.108	-0.198	0.079
-486.449	-13.493	-0.220	0.142
-485.435	-126.470	-0.212	0.031
-484.420	-200.000	-0.003	-0.410
-483.405	-119.610	-0.039	0.007
-482.391	199.845	-0.184	0.282
-481.376	-52.362	-0.058	-0.027
-480.362	74.780	0.249	0.261
-479.347	800.000	0.032	-0.092
-478.332	-37.306	-0.052	0.028
-477.318	-64.174	0.192	0.078
-476.303	189.531	-0.065	0.097
-475.289	44.981	0.180	0.165
-474.274	374.320	-0.125	0.253
-473.259	29.279	0.238	0.201
-472.245	-157.756	-0.251	-0.015
-471.230	-200.000	0.009	-0.047
-470.216	-56.018	-0.143	0.063
-469.201	-70.125	-0.339	-0.128
-468.186	-128.787	0.094	0.013
-467.172	-200.000	0.031	-0.139
-466.157	-200.000	-0.031	0.234
-465.143	37.710	-0.318	-0.281
-464.128	-200.000	0.104	-0.469
-463.113	-170.335	-0.200	0.007
-462.099	649.799	0.069	0.175
-461.084	81.985	0.074	0.080
-460.070	91.315	-0.096	-0.108
-459.055	25.820	0.294	-0.243
-458.040	-80.967	0.105	0.035
-457.026	-200.000	0.019	0.145
-456.011	-200.000	-0.006	0.067
-454.997	-22.040	0.123	-0.074
-453.982	-75.766	0.095	0.033
-452.968	452.279	0.047	-0.103
-451.953	-200.000	0.072	-0.348
-450.938	-90.099	-0.409	0.119
-449.924	-186.251	-0.080	0.001
-448.909	65.958	0.072	0.072
-447.895	-200.000	0.016	0.072
-446.880	164.666	0.068	-0.096
-445.865	800.000	0.041	0.159
-444.851	-92.832	0.185	-0.051
-443.836	323.570	-0.141	-0.267
-442.822	-94.439	-0.487	-0.132
-441.807	800.000	0.099	0.360
-440.792	-200.000	-0.005	0.217
-439.778	4.926	-0.042	0.030
-438.763	-200.000	-0.015	-0.142
-437.749	800.000	0.043	-0.164
-436.734	133.250	0.134	0.172
-435.719	330.513	-0.247	0.473
-434.705	19.772	0.095	-0.076
-433.690	34.569	0.187	0.163
-432.676	-36.472	0.246	-0.132
-431.661	-113.289	-0.272	0.053
-430.646	243.662	0.169	-0.283
-429.632	-195.736	-0.253	-0.002
-428.617	-20.560	-0.171	-0.104
-427.603	800.000	0.103	-0.346
-426.588	-98.831	0.101	-0.026
-425.573	-26.446	0.198	0.115
-424.559	34.638	-0.192	-0.167
-423.544	-66.155	0.217	-0.086
-422.530	800.000	0.055	0.218
-421.515	-200.000	0.009	-0.053
-420.500	174.410	-0.232	-0.333
-419.486	-25.185	-0.198	0.116
-418.471	41.906	0.199	0.179
-417.457	-200.000	0.324	-0.001
-416.442	-200.000	-0.033	0.185
-415.428	105.903	-0.141	-0.165
-414.413	-81.982	0.162	0.053
-413.398	-128.613	-0.273	-0.038
-412.384	800.000	0.065	0.199
-411.369	-200.000	-0.001	-0.048
-410.355	-90.405	-0.177	0.051
-409.340	-95.494	-0.334	-0.089
-408.325	697.779	0.114	0.299
-407.311	-126.323	-0.216	0.032
-406.296	203.864	-0.066	-0.102
-405.282	-37.508	0.229	0.121
-404.267	151.351	0.224	-0.302
-403.252	-82.773	-0.195	0.063
-402.238	-68.151	0.094	-0.036
-401.223	800.000	0.024	-0.081
-400.209	-23.139	0.046	-0.028
-399.194	-155.386	0.074	-0.005
-398.179	74.232	-0.088	0.091
-397.165	-200.000	0.014	-0.356
-396.150	800.000	0.048	-0.157
-395.136	21.135	-0.061	-0.049
-394.121	-0.854	-0.277	-0.195
-393.106	31.639	0.217	0.185
-392.092	-87.619	-0.278	0.083
-391.077	-48.722	-0.052	-0.025
-390.063	-200.000	0.036	-0.281
-389.048	-149.751	0.198	0.015
-388.033	800.000	-0.072	-0.234
-387.019	287.716	0.113	-0.203
-386.004	-186.451	0.304	0.004
-384.990	-57.358	0.242	0.105
-383.975	-96.927	0.151	-0.039
-382.960	-26.860	-0.099	0.058
-381.946	125.897	0.086	0.107
-380.931	800.000	0.054	0.225
-379.917	53.160	0.083	-0.079
-378.902	20.504	-0.184	0.147
-377.888	-68.584	-0.163	0.062
-376.873	6.219	-0.137	0.100
-375.858	616.878	-0.080	-0.200
-374.844	137.757	0.054	-0.070
-373.829	-15.583	0.156	-0.099
-372.815	-34.674	-0.337	0.183
-371.800	-111.446	-0.214	-0.043
-370.785	214.795	-0.007	-0.011
-369.771	5.089	-0.020	0.014
-368.756	-86.989	-0.320	-0.097
-367.742	29.044	0.143	0.121
-366.727	-200.000	-0.010	0.101
-365.712	243.504	-0.199	0.331
-364.698	-87.739	-0.062	-0.019
-363.683	-82.547	-0.120	0.038
-362.669	76.507	-0.184	0.193
-361.654	-42.663	0.213	-0.108
-360.639	-77.966	0.240	-0.082
-359.625	-194.109	-0.161	-0.001
-358.610	-4.248	0.183	-0.126
-357.596	-200.000	-0.015	-0.130
-356.581	437.448	-0.056	-0.121
-355.566	257.574	0.084	0.144
-354.552	-26.958	0.207	-0.120
-353.537	-154.450	0.444	-0.030
-352.523	-42.001	-0.116	0.059
-351.508	-148.500	-0.061	0.005
-350.493	-200.000	-0.015	-0.420
-349.479	67.537	-0.277	-0.280
-348.464	6.666	-0.110	-0.081
-347.450	-200.000	0.002	-0.060
-346.435	23.059	-0.116	-0.095
-345.420	-200.000	0.021	0.324
-344.406	97.326	0.099	-0.112
-343.391	619.970	0.144	0.358
-342.377	-153.358	0.202	0.014
-341.362	-13.413	-0.227	0.146
-340.348	-113.236	0.401	-0.078
-339.333	-136.240	-0.156	-0.018
-338.318	800.000	-0.049	-0.137
-337.304	75.083	0.150	0.157
-336.289	84.851	0.165	-0.179
-335.275	54.023	-0.168	-0.160
-334.260	56.967	0.116	0.112
-333.245	93.502	-0.163	0.183
-332.231	-59.439	0.232	-0.099
-331.216	-102.611	-0.089	-0.021
-330.202	-200.000	-0.006	0.044
-329.187	-84.027	0.318	-0.100
-328.172	65.186	-0.062	-0.062
-327.158	-200.000	-0.005	-0.511
-326.143	-79.616	-0.268	0.090
-325.129	800.000	-0.103	0.320
-324.114	800.000	-0.081	-0.313
-323.099	786.762	0.021	-0.058
-322.085	-29.808	0.330	0.186
-321.070	146.819	-0.195	-0.259
-320.056	-135.251	-0.377	0.045
-319.041	-200.000	-0.007	0.068
-318.026	14.615	0.190	0.147
-317.012	-39.006	0.166	0.086
-315.997	15.945	0.084	0.066
-314.983	800.000	0.087	0.268
-313.968	21.428	0.111	-0.089
-312.953	-80.960	-0.140	-0.046
-311.939	-200.000	-0.011	0.356
-310.924	547.661	-0.121	-0.287
-309.910	48.696	0.224	0.208
-308.895	-75.826	-0.311	0.109
-307.880	269.792	0.115	-0.200
-306.866	-200.000	-0.036	0.244
-305.851	259.117	-0.080	0.136
-304.837	800.000	0.048	-0.194
-303.822	40.012	-0.213	0.189
-302.807	-76.215	0.175	-0.061
-301.793	57.906	-0.207	-0.200
-300.778	800.000	0.037	0.109
-299.764	-164.903	-0.407	-0.018
-298.749	287.728	0.139	0.249
-297.735	303.683	-0.193	0.353
-296.720	-137.949	-0.250	0.028
-295.705	378.321	0.093	-0.189
-294.691	44.457	-0.170	-0.154
-293.676	90.758	-0.212	0.235
-292.662	-97.146	0.279	0.072
-291.647	-200.000	0.013	-0.163
-290.632	278.464	-0.067	-0.118
-289.618	172.100	0.022	0.031
-288.603	-200.000	0.019	0.144
-287.589	61.856	-0.200	-0.197
-286.574	269.747	-0.168	-0.292
-285.559	-193.126	-0.139	-0.001
-284.545	-20.838	0.154	-0.093
-283.530	-41.488	-0.049	-0.025
-282.516	-172.055	-0.180	-0.006
-281.501	-55.936	-0.221	0.098
-280.486	70.891	0.063	-0.064
-279.472	-200.000	-0.089	-0.389
-278.457	191.197	0.080	-0.119
-277.443	71.743	0.078	-0.080
-276.428	159.066	-0.068	0.094
-275.413	-79.048	-0.115	-0.039
-274.399	338.577	-0.249	0.479
-273.384	-83.816	-0.157	0.049
-272.370	-172.341	0.334	-0.011
-271.355	69.219	0.044	0.045
-270.340	780.263	0.108	-0.292
-269.326	800.000	0.106	0.386
-268.311	165.927	-0.238	0.332
-267.297	-129.161	0.257	-0.035
-266.282	11.883	-0.399	0.303
-265.267	-38.032	0.209	-0.110
-264.253	800.000	-0.019	0.077
-263.238	800.000	0.054	0.163
-262.224	116.533	-0.115	-0.139
-261.209	800.000	0.049	-0.145
-260.195	599.172	-0.169	-0.414
-259.180	211.939	0.146	0.226
-258.165	-120.473	0.406	0.068
-257.151	-105.141	0.239	0.054
-256.136	39.873	-0.080	-0.071
-255.122	75.449	-0.143	-0.149
-254.107	800.000	0.058	0.226
-253.092	326.609	-0.074	0.139
-252.078	129.027	-0.090	0.113
-251.063	-94.121	0.210	-0.057
-250.049	304.959	0.121	-0.221
-249.034	67.251	-0.236	-0.237
-248.019	151.535	0.035	0.048
-247.005	789.809	-0.044	0.120
-245.990	-98.143	0.113	-0.029
-244.976	235.875	0.088	-0.144
-243.961	219.030	-0.122	0.192
-242.946	-15.665	0.265	-0.167
-241.932	-86.375	0.247	0.075
-240.917	98.667	-0.169	0.192
-239.903	-112.972	0.354	0.069
-238.888	485.514	-0.106	-0.239
-237.873	800.000	0.080	-0.282
-236.859	55.112	-0.102	0.097
-235.844	-143.671	-0.279	0.026
-234.830	-19.596	0.295	0.180
-233.815	-103.838	0.216	0.050
-232.800	-5.152	-0.153	0.104
-231.786	-50.556	-0.346	-0.161
-230.771	-90.239	0.117	0.034
-229.757	336.310	-0.104	0.198
-228.742	-200.000	-0.006	0.354
-227.727	-200.000	0.019	-0.101
-226.713	290.486	-0.111	-0.198
-225.698	800.000	0.045	-0.154
-224.684	-52.368	0.067	-0.031
-223.669	800.000	-0.140	-0.450
-222.655	-59.608	0.190	0.080
-221.640	102.303	0.164	-0.189
-220.625	-64.886	0.119	0.047
-219.611	596.715	-0.087	0.213
-218.596	800.000	-0.082	-0.308
-217.582	-134.710	-0.100	0.012
-216.567	800.000	0.016	-0.061
-215.552	138.702	-0.067	-0.087
-214.538	-48.485	-0.253	-0.120
-213.523	-200.000	-0.008	0.039
-212.509	-200.000	-0.338	-0.001
-211.494	283.447	-0.124	0.220
-210.479	163.403	0.049	-0.068
-209.465	-124.516	-0.530	0.081
-208.450	-76.456	0.357	0.124
-207.436	800.000	-0.050	0.183
-206.421	300.291	-0.100	-0.182
-205.406	-155.343	0.471	-0.030
-204.392	-200.000	-0.029	-0.297
-203.377	480.280	0.095	0.211
-202.363	-160.504	-0.399	0.021
-201.348	-141.021	-0.148	-0.015
-200.333	-116.844	-0.288	0.052
-199.319	99.413	0.126	-0.143
-198.304	-200.000	-0.032	-0.139
-197.290	-200.000	-0.031	0.162
-196.275	-3.719	0.287	0.196
-195.260	-74.510	-0.290	0.103
-194.246	177.257	-0.243	-0.348
-193.231	-77.752	0.296	0.101
-192.217	9.302	0.090	0.067
-191.202	205.342	0.106	-0.162
-190.187	32.909	0.112	0.096
-189.173	242.156	-0.069	-0.114
-188.158	-52.025	0.217	-0.099
-187.144	102.340	-0.142	0.163
-186.129	312.686	0.071	-0.131
-185.114	-126.271	-0.145	0.021
-184.100	406.511	-0.082	-0.171
-183.085	-26.667	0.277	-0.159
-182.071	223.812	-0.122	-0.194
-181.056	800.000	0.094	-0.348
-180.042	-200.000	0.011	0.126
-179.027	-83.504	0.334	0.105
-178.012	-62.991	-0.054	-0.022
-176.998	-200.000	0.042	0.253
-175.983	800.000	-0.053	-0.188
-174.969	-200.000	-0.012	-0.131
-173.954	-16.153	-0.144	-0.090
-172.939	175.903	-0.081	-0.115
-171.925	800.000	0.185	0.502
-170.910	-200.000	-0.023	0.144
-169.896	-195.823	0.363	-0.003
-168.881	28.977	-0.174	0.145
-167.866	56.941	-0.176	0.169
-166.852	296.961	-0.133	-0.241
-165.837	-79.553	0.096	-0.032
-164.823	-95.045	-0.322	0.085
-163.808	-39.852	0.187	0.096
-162.793	-200.000	0.030	-0.133
-161.779	-60.045	0.202	-0.085
-160.764	-151.992	0.461	-0.033
-159.750	-22.229	-0.115	0.069
-158.735	-37.146	0.061	-0.032
-157.720	301.073	-0.139	-0.252
-156.706	228.145	0.139	0.223
-155.691	-85.830	0.046	0.014
-154.677	-200.000	0.047	0.295
-153.662	-75.875	-0.240	0.084
-152.647	475.909	-0.022	-0.049
-151.633	375.626	-0.057	0.114
-150.618	800.000	-0.052	0.168
-149.604	-96.181	0.109	-0.028
-148.589	-200.000	0.001	-0.095
-147.574	-200.000	0.012	0.351
-146.560	-99.284	0.188	-0.047
-145.545	87.060	0.067	0.073
-144.531	535.091	0.113	0.264
-143.516	-200.000	0.018	-0.127
-142.502	-27.510	0.226	-0.129
-141.487	370.924	-0.086	0.171
-140.472	-36.452	-0.106	-0.056
-139.458	65.548	0.123	0.122
-138.443	-9.864	0.272	0.178
-137.429	-165.767	-0.248	0.011
-136.414	-175.004	0.053	-0.001
-135.399	34.935	-0.189	-0.163
-134.385	-200.000	0.042	-0.647
-133.370	46.164	0.174	-0.159
-132.356	41.938	-0.103	-0.091
-131.341	71.473	-0.222	0.227
-130.326	10.635	0.155	0.116
-129.312	787.280	-0.109	0.294
-128.297	45.118	-0.075	0.068
-127.283	257.362	0.076	0.128
-126.268	22.424	-0.175	0.141
-125.253	-19.334	0.087	0.053
-124.239	-52.352	0.240	0.109
-123.224	38.787	-0.181	0.159
-122.210	80.571	-0.260	-0.276
-121.195	664.232	-0.078	0.197
-120.180	33.764	0.181	0.154
-119.166	-63.549	-0.138	0.056
-118.151	-200.000	-0.079	0.367
-117.137	244.549	-0.145	-0.239
-116.122	50.035	0.094	0.087
-115.107	51.409	0.065	-0.061
-114.093	-48.115	0.008	0.004
-113.078	-200.000	0.047	-0.256
-112.064	800.000	0.036	0.131
-111.049	-122.926	0.152	-0.024
-110.034	800.000	0.082	0.224
-109.020	-171.371	0.193	0.006
-108.005	140.490	-0.097	0.126
-106.991	-200.000	0.016	-0.234
-105.976	-139.567	-0.466	0.049
-104.962	-130.626	0.187	-0.025
-103.947	645.742	-0.072	-0.181
-102.932	184.007	0.095	0.139
-101.918	477.858	0.057	-0.126
-100.903	15.125	0.164	0.126
-99.889	-45.245	-0.130	-0.063
-98.874	85.972	0.175	0.189
-97.859	-200.000	-0.014	-0.151
-96.845	-60.238	-0.061	0.025
-95.830	0.050	0.177	-0.124
-94.816	-80.254	0.070	-0.023
-93.801	393.244	-0.115	-0.234
-92.786	-0.684	0.358	-0.249
-91.772	-123.979	0.181	-0.028
-90.757	85.202	0.273	0.293
-89.743	56.105	0.160	0.153
-88.728	-200.000	0.021	0.314
-87.713	-200.000	-0.001	0.097
-86.699	-200.000	0.034	0.242
-85.684	534.933	0.078	-0.180
-84.670	143.424	-0.105	-0.137
-83.655	-200.000	-0.012	-0.231
-82.640	483.609	0.067	0.149
-81.626	-45.844	-0.368	0.178
-80.611	-200.000	0.023	0.138
-79.597	103.548	0.056	0.065
-78.582	13.346	0.056	0.042
-77.567	26.216	-0.049	-0.040
-76.553	209.278	0.049	0.075
-75.538	-200.000	-0.036	0.397
-74.524	-200.000	0.040	-0.238
-73.509	137.126	0.198	-0.253
-72.494	-200.000	0.038	0.246
-71.480	-88.279	-0.209	-0.061
-70.465	-6.368	-0.217	-0.145
-69.451	31.179	0.226	-0.190
-68.436	-95.039	0.045	0.012
-67.422	-100.282	-0.135	0.033
-66.407	-200.000	-0.004	0.431
-65.392	-170.066	0.512	0.018
-64.378	-85.136	0.134	0.041
-63.363	800.000	0.065	-0.189
-62.349	-42.179	-0.325	0.163
-61.334	115.852	-0.906	-1.087
-60.319	-64.382	0.710	0.283
-59.305	-200.000	0.023	-1.275
-58.290	324.725	0.408	0.764
-57.276	357.088	0.794	1.550
-56.261	-200.000	107.432	627.632
-55.246	525.323	1514.198	3490.459
-54.232	176.131	2703.620	3844.663
-53.217	112.239	2160.936	2558.676
-52.203	41.156	1599.876	1415.720
-51.188	32.771	1337.206	1133.125
-50.173	29.631	1296.243	1080.048
-49.159	53.638	1351.511	1270.126
-48.144	53.855	1366.849	1285.787
-47.130	32.701	1320.643	1118.499
-46.115	29.312	1303.045	1083.671
-45.100	29.192	1297.899	1078.647
-44.086	29.133	1295.346	1076.137
-43.071	29.038	1293.351	1073.882
-42.057	28.934	1291.197	1071.442
-41.042	29.028	1289.300	1070.378
-40.027	29.038	1287.512	1068.906
-39.013	29.003	1285.875	1067.302
-37.998	29.094	1284.308	1066.485
-36.984	29.113	1281.941	1064.589
-35.969	29.233	1279.988	1063.614
-34.954	29.153	1278.756	1062.091
-33.940	29.067	1277.893	1060.832
-32.925	29.195	1276.400	1060.290
-31.911	29.187	1274.735	1058.822
-30.896	29.287	1272.984	1057.895
-29.881	29.237	1271.996	1056.745
-28.867	29.338	1270.453	1056.000
-27.852	29.327	1268.712	1054.448
-26.838	29.214	1268.193	1053.329
-25.823	29.214	1266.386	1051.788
-24.809	29.124	1265.698	1050.662
-23.794	29.293	1263.668	1049.898
-22.779	29.161	1262.905	1048.472
-21.765	29.286	1261.161	1047.688
-20.750	29.270	1259.714	1046.357
-19.736	29.126	1258.442	1044.442
-18.721	29.227	1257.586	1044.264
-17.706	29.068	1256.192	1042.165
-16.692	29.071	1255.266	1041.372
-15.677	29.060	1254.451	1040.593
-14.663	29.206	1252.952	1040.133
-13.648	29.136	1252.186	1039.058
-12.633	29.047	1250.970	1037.509
-11.619	29.095	1250.320	1037.199
-10.604	29.224	1249.497	1037.199
-9.590	29.128	1248.246	1035.582
-8.575	29.089	1247.496	1034.695
-7.560	29.107	1246.892	1034.254
-6.546	29.076	1245.659	1033.018
-5.531	29.086	1244.977	1032.467
-4.517	29.113	1244.085	1031.838
-3.502	29.093	1243.382	1031.103
-2.487	29.190	1242.260	1030.676
-1.473	29.219	1237.735	1027.040
-0.458	27.586	1223.404	1006.105
0.556	21.880	1206.699	969.468
1.571	18.501	1212.028	954.871
2.586	17.749	1226.447	961.903
3.600	17.696	1215.501	952.941
4.615	12.889	1144.609	871.922
5.629	4.075	1070.924	771.944
6.644	0.032	1050.653	737.470
7.659	-0.347	1048.131	733.779
8.673	-0.420	1047.355	732.813
9.688	-0.454	1046.198	731.773
10.702	-0.055	1043.974	732.097
11.717	5.552	1051.956	765.091
12.731	14.409	1065.476	818.538
13.746	19.090	1070.968	845.741
14.761	20.123	1071.289	850.991
15.775	20.064	1071.154	850.523
16.790	19.892	1070.358	848.967
17.804	19.782	1070.132	848.175
18.819	19.902	1069.403	848.111
19.834	20.023	1069.228	848.488
20.848	19.984	1068.594	847.722
21.863	20.010	1067.830	847.165
22.877	19.975	1067.113	846.353
23.892	19.954	1066.648	845.803
24.907	19.987	1065.941	845.330
25.921	20.041	1064.456	844.344
26.936	20.001	1063.264	843.128
27.950	19.928	1061.739	841.486
28.965	19.825	1059.523	839.159
29.980	19.951	1057.747	838.289
30.994	20.029	1057.322	838.254
32.009	20.109	1055.895	837.436
33.023	19.710	1054.735	834.512
34.038	20.011	1053.356	834.801
35.053	19.979	1053.342	834.560
36.067	20.005	1052.526	833.965
37.082	20.172	1051.532	833.909
38.096	20.250	1050.811	833.640
39.111	20.350	1049.926	833.340
40.126	20.142	1048.310	830.989
41.140	19.797	1046.942	828.177
42.155	19.710	1045.633	826.654
43.169	19.711	1044.704	825.853
44.184	19.811	1043.481	825.290
45.199	19.611	1042.494	823.483
46.213	19.822	1041.241	823.425
47.228	19.876	1040.366	822.917
48.242	19.736	1040.009	821.894
49.257	19.931	1039.052	821.991
50.271	20.109	1038.121	822.029
51.286	20.081	1037.220	821.107
52.301	20.127	1036.376	820.587
53.315	20.090	1035.276	819.466
54.330	20.015	1034.237	818.216
55.344	20.044	1033.541	817.733
56.359	20.037	1032.406	816.728
57.374	19.849	1031.568	815.105
58.388	19.847	1030.980	814.559
59.403	19.821	1029.770	813.412
60.417	19.705	1029.050	812.226
61.432	19.795	1028.464	812.111
62.447	19.872	1027.742	811.830
63.461	19.874	1027.138	811.293
64.476	19.833	1026.001	810.131
65.490	19.882	1024.728	809.286
66.505	19.673	1024.677	808.195
67.520	19.821	1023.420	807.824
68.534	19.801	1022.178	806.676
69.549	19.350	1021.610	804.057
70.563	19.485	1019.920	803.281
71.578	19.301	1019.978	802.400
72.593	19.335	1018.807	801.566
73.607	19.487	1018.381	801.865
74.622	19.728	1018.328	802.872
75.636	19.794	1017.428	802.399
76.651	19.655	1016.137	800.663
77.666	19.549	1015.423	799.539
78.680	19.558	1015.183	799.322
79.695	19.582	1014.600	798.905
80.709	19.672	1013.483	798.370
81.724	19.720	1012.965	798.112
82.739	19.828	1011.818	797.637
83.753	20.004	1011.755	798.328
84.768	20.239	1010.751	798.549
85.782	20.362	1009.268	797.871
86.797	20.170	1008.847	796.587
87.812	20.219	1007.800	795.912
88.826	20.233	1006.726	795.060
89.841	20.253	1005.601	794.189
90.855	20.115	1005.235	793.198
91.870	20.244	1004.112	792.835
92.884	20.082	1003.014	791.159
93.899	20.136	1001.573	790.196
94.914	20.279	1000.984	790.311
95.928	20.063	999.867	788.378
96.943	19.888	998.766	786.646
97.957	19.621	997.614	784.455
98.972	19.493	996.408	782.856
99.987	19.754	995.734	783.440
101.001	19.880	995.453	783.719
102.016	19.939	994.035	782.803
103.030	19.901	993.245	781.941
104.045	19.700	991.855	779.869
105.060	19.575	990.826	778.429
106.074	19.811	990.409	779.094
107.089	20.093	990.024	779.991
108.103	20.149	988.378	778.881
109.118	19.937	987.417	777.102
110.133	19.847	987.140	776.411
111.147	19.733	984.941	774.100
112.162	19.556	983.769	772.321
113.176	19.615	983.691	772.455
114.191	19.719	982.614	772.006
115.206	19.448	981.427	769.793
116.220	19.372	981.283	769.273
117.235	19.569	980.168	769.209
118.249	19.604	979.243	768.573
119.264	19.537	978.374	767.523
120.279	19.511	977.333	766.524
121.293	19.474	977.130	766.131
122.308	19.645	976.043	765.970
123.322	19.504	974.848	764.342
124.337	19.449	973.447	762.931
125.352	18.910	971.783	759.180
126.366	19.063	970.374	758.687
127.381	19.719	970.749	761.807
128.395	20.034	970.132	762.643
129.410	20.221	969.206	762.666
130.424	20.038	968.138	760.958
131.439	20.146	966.887	760.380
132.454	20.080	966.301	759.561
133.468	19.985	965.483	758.437
134.483	20.031	964.862	758.081
135.497	20.241	963.670	757.995
136.512	20.305	963.063	757.732
137.527	20.252	962.372	756.888
138.541	20.216	961.835	756.242
139.556	20.286	960.921	755.764
140.570	20.249	960.131	754.912
141.585	20.230	958.691	753.631
142.600	20.244	957.588	752.759
143.614	20.534	956.865	753.381
144.629	20.511	956.689	753.074
145.643	20.304	955.240	750.971
146.658	20.311	953.570	749.625
147.673	20.209	952.741	748.467
148.687	20.136	951.941	747.456
149.702	20.078	950.761	746.212
150.716	20.030	950.191	745.492
151.731	20.081	949.412	745.037
152.746	20.360	948.730	745.632
153.760	20.349	948.456	745.304
154.775	20.538	947.606	745.383
155.789	20.448	946.547	744.098
156.804	20.390	945.475	742.940
157.819	20.414	944.856	742.491
158.833	20.590	944.005	742.506
159.848	20.568	942.870	741.455
160.862	20.388	942.048	739.976
161.877	20.437	940.948	739.255
162.892	20.477	940.371	738.908
163.906	20.407	939.252	737.665
164.921	20.378	938.266	736.702
165.935	20.461	937.620	736.481
166.950	20.424	936.423	735.321
167.964	20.546	935.473	735.026
168.979	20.273	934.779	733.263
169.994	20.082	933.383	731.297
171.008	20.505	932.661	732.447
172.023	20.422	932.108	731.599
173.037	20.175	931.053	729.666
174.052	20.068	929.781	728.159
175.067	20.196	929.452	728.371
176.081	20.306	928.859	728.303
177.096	20.234	928.092	727.337
178.110	20.016	927.203	725.664
179.125	19.936	926.019	724.336
180.140	19.851	925.914	723.835
181.154	19.930	925.569	723.832
182.169	20.298	925.286	725.086
183.183	20.446	924.754	725.223
184.198	20.304	923.461	723.549
185.213	20.339	923.138	723.378
186.227	20.360	922.649	723.021
187.242	20.415	921.477	722.265
188.256	20.371	921.123	721.743
189.271	20.555	919.887	721.473
190.286	20.216	919.243	719.498
191.300	19.699	917.735	716.114
192.315	19.111	916.163	712.392
193.329	18.973	915.670	711.375
194.344	19.879	916.406	715.631
195.359	20.325	916.052	717.135
196.373	20.437	915.599	717.177
197.388	20.332	914.569	715.875
198.402	20.149	914.600	715.083
199.417	20.214	913.652	714.544
200.432	20.086	911.931	712.611
201.446	19.878	911.686	711.497
202.461	19.824	911.021	710.697
203.475	19.075	909.251	706.178
204.490	18.330	908.401	702.401
205.504	19.271	909.042	706.698
206.519	19.977	908.245	708.904
207.534	20.005	907.756	708.575
208.548	20.349	907.389	709.634
209.563	20.138	906.834	708.273
210.577	20.188	906.240	707.954
211.592	20.430	905.916	708.624
212.607	20.269	904.976	707.171
213.621	20.434	903.984	707.004
214.636	20.506	903.661	706.980
215.650	20.375	902.802	705.716
216.665	20.642	901.879	706.014
217.680	20.386	901.426	704.557
218.694	19.848	900.076	701.260
219.709	19.858	899.514	700.801
220.723	20.279	899.002	702.043
221.738	20.175	898.403	701.094
222.753	20.316	897.911	701.216
223.767	20.322	897.643	700.972
224.782	20.632	897.106	701.742
225.796	20.561	896.552	700.959
226.811	19.928	894.856	697.024
227.826	19.354	893.622	693.691
228.840	19.725	892.738	694.434
229.855	19.636	892.382	693.739
230.869	19.288	891.296	691.436
231.884	19.745	891.585	693.435
232.899	20.349	891.615	695.817
233.913	20.266	890.622	694.649
234.928	20.430	889.882	694.667
235.942	20.356	889.054	693.663
236.957	20.013	888.381	691.708
237.972	19.940	887.836	690.927
238.986	20.038	887.707	691.160
240.001	20.256	886.500	691.027
241.015	20.297	885.880	690.646
242.030	20.317	885.628	690.465
243.045	20.541	885.006	690.813
244.059	20.503	884.772	690.417
245.074	20.214	883.914	688.540
246.088	19.924	882.968	686.591
247.103	20.286	882.453	687.563
248.117	20.788	882.133	689.242
249.132	20.847	881.704	689.077
250.147	20.923	881.291	688.994
251.161	21.046	880.595	688.877
252.176	21.094	879.875	688.440
253.190	21.139	879.406	688.190
254.205	21.287	879.290	688.624
255.220	21.306	878.028	687.646
256.234	21.193	877.206	686.497
257.249	21.160	876.377	685.662
258.263	21.186	875.956	685.370
259.278	21.102	875.236	684.419
260.293	21.208	874.337	684.070
261.307	21.155	873.747	683.340
262.322	20.836	873.500	681.838
263.336	19.979	871.099	676.557
264.351	19.037	869.387	671.492
265.366	19.260	869.136	672.111
266.380	20.375	869.871	676.969
267.395	20.761	869.389	678.037
268.409	20.814	868.455	677.457
269.424	20.972	868.231	677.835
270.439	20.950	867.401	677.043
271.453	20.998	867.091	676.928
272.468	21.153	866.988	677.385
273.482	21.270	866.200	677.165
274.497	20.856	864.465	674.146
275.512	20.498	864.012	672.347
276.526	21.079	863.892	674.443
277.541	21.130	863.722	674.448
278.555	20.817	862.314	672.082
279.570	20.683	861.390	670.783
280.585	20.851	860.867	670.966
281.599	20.759	860.259	670.078
282.614	20.469	858.720	667.705
283.628	20.311	858.668	667.000
284.643	20.622	858.099	667.693
285.657	20.304	857.135	665.664
286.672	20.155	856.168	664.284
287.687	20.766	856.170	666.565
288.701	20.542	856.009	665.523
289.716	20.353	854.672	663.704
290.730	20.295	853.929	662.846
291.745	19.943	853.206	660.881
292.760	20.328	853.316	662.380
293.774	21.156	853.542	665.655
294.789	21.718	852.693	667.072
295.803	21.579	852.641	666.444
296.818	21.623	851.854	665.936
297.833	21.258	850.366	663.330
298.847	20.908	850.330	661.913
299.862	21.316	850.033	663.171
300.876	21.467	849.593	663.344
301.891	21.225	849.149	662.020
302.906	20.989	847.665	659.911
303.920	21.010	847.708	659.966
304.935	21.483	846.859	661.034
305.949	21.351	846.627	660.295
306.964	21.187	845.597	658.815
307.979	21.385	845.308	659.281
308.993	21.571	844.969	659.658
310.008	21.717	844.473	659.762
311.022	21.397	843.527	657.763
312.037	21.285	843.185	657.014
313.052	21.293	841.721	655.846
314.066	20.210	841.127	651.262
315.081	19.986	840.129	649.590
316.095	20.842	840.373	652.932
317.110	21.222	840.058	654.054
318.125	20.354	838.484	649.523
319.139	19.490	837.231	645.267
320.154	19.562	836.828	645.167
321.168	20.275	837.766	648.498
322.183	20.937	837.306	650.559
323.197	21.057	837.024	650.729
324.212	21.305	836.545	651.223
325.227	21.310	835.854	650.645
326.241	21.406	834.785	650.113
327.256	21.233	834.413	649.124
328.270	21.211	833.860	648.552
329.285	20.869	833.125	646.656
330.300	20.810	831.898	645.427
331.314	20.886	832.167	645.862
332.329	21.366	831.815	647.309
333.343	21.375	831.431	646.984
334.358	21.366	831.084	646.627
335.373	21.438	830.651	646.497
336.387	21.746	830.444	647.416
337.402	21.756	830.530	647.465
338.416	21.745	829.972	646.932
339.431	21.857	829.396	646.838
340.446	22.047	829.241	647.358
341.460	21.923	828.450	646.229
342.475	21.655	827.933	644.783
343.489	21.865	827.482	645.147
344.504	22.037	827.593	645.808
345.519	22.184	826.994	645.823
346.533	22.429	826.052	645.930
347.548	22.303	826.120	645.462
348.562	22.242	825.563	644.749
349.577	22.307	824.598	644.176
350.592	22.153	824.320	643.337
351.606	22.230	823.657	643.043
352.621	22.055	822.829	641.700
353.635	21.933	821.971	640.529
354.650	21.317	820.413	637.014
355.665	20.379	818.905	632.374
356.679	20.948	818.862	634.356
357.694	21.240	818.420	635.019
358.708	21.155	817.737	634.122
359.723	21.625	817.598	635.665
360.738	21.773	817.302	635.916
361.752	21.922	816.455	635.742
362.767	22.074	816.625	636.369
363.781	22.383	815.954	636.908
364.796	22.494	815.558	636.943
365.810	22.733	814.883	637.224
366.825	22.532	814.850	636.414
367.840	22.234	814.180	634.760
368.854	21.843	813.270	632.582
369.869	21.859	812.743	632.175
370.883	21.843	812.734	632.055
371.898	21.920	811.846	631.585
372.913	21.823	811.705	631.069
373.927	22.082	811.323	631.650
374.942	22.136	811.017	631.550
375.956	22.211	810.509	631.369
376.971	22.322	810.296	631.544
377.986	22.393	809.770	631.333
379.000	22.243	809.236	630.324
380.015	22.310	808.336	629.807
381.029	22.358	808.013	629.671
382.044	22.497	807.207	629.485
383.059	22.424	806.783	628.836
384.073	22.638	806.068	628.989
385.088	22.561	805.612	628.303
386.102	22.275	805.255	626.947
387.117	22.157	804.595	625.957
388.132	21.927	803.384	624.141
389.146	21.448	802.736	621.880
390.161	21.786	802.462	622.815
391.175	22.111	802.426	623.886
392.190	21.858	801.331	622.082
393.205	20.567	799.200	615.802
394.219	19.280	797.534	609.915
395.234	19.365	797.446	610.095
396.248	20.887	798.905	616.545
397.263	22.267	799.459	621.803
398.278	22.238	799.100	621.363
399.292	21.967	798.726	620.062
400.307	21.793	797.842	618.705
401.321	22.145	797.221	619.410
402.336	22.267	797.682	620.144
403.350	22.775	797.231	621.530
404.365	22.814	797.143	621.543
405.380	23.143	797.024	622.552
406.394	23.329	796.229	622.530
407.409	23.053	795.568	620.988
408.423	23.129	795.285	620.980
409.438	23.126	795.015	620.704
410.453	23.132	794.774	620.483
411.467	23.111	793.993	619.744
412.482	23.187	793.623	619.666
413.496	23.178	793.168	619.225
414.511	23.290	792.848	619.311
415.526	23.156	792.757	618.716
416.540	23.069	791.541	617.410
417.555	22.887	790.626	616.008
418.569	22.892	790.736	616.055
419.584	22.866	790.121	615.430
420.599	22.586	790.033	614.332
421.613	158.294	1364.306	1798.217
422.628	137.124	1447.937	1798.322
