DTS Sentinel unit serial number:	SN413079Multiplexer serial number:	ORYXHardware model number:	OX4-SRSoftware version number:	ORYX F/W v4.00 Oryx Data Collector v3.7.2.0data status	okinstallation	princeton_trtdifferential loss correction	single-endedforward channel	channel 1reverse channel	N/Adate	2019/09/10time	17:24:12forward acquisition time	60.00reverse acquisition time	0.00gamma	496.2192k internal	0.2299k external	0.2299temperature offset calibration	0.9928default loss term (dB/km)	0.3790temperature slope calibration	1.0000multiplexer offset coefficient	1.0000multiplexer slope coefficient	1.0000fibre end	0.00T internal ref (°C)	37.66T ext. ref 1 (°C)	-0.34T ext. ref 2 (°C)	32.55length (m)	temperature (°C)	Stokes	anti-Stokes-747.200	-163.459	0.136	0.007
-746.185	108.666	-0.107	0.131
-745.171	-89.562	0.186	0.056
-744.156	498.687	-0.155	0.365
-743.142	24.702	0.216	-0.182
-742.127	29.124	0.127	0.110
-741.112	-84.789	-0.339	-0.109
-740.098	-200.000	-0.022	0.494
-739.083	271.112	0.088	0.158
-738.069	-57.671	0.215	0.096
-737.054	167.587	0.129	-0.186
-736.039	-200.000	-0.015	-0.440
-735.025	-50.260	-0.191	0.092
-734.010	-46.194	0.011	-0.005
-732.996	209.736	-0.064	-0.103
-731.981	120.655	-0.103	0.130
-730.966	-200.000	-0.028	0.215
-729.952	262.599	0.082	0.146
-728.937	-122.333	-0.239	0.040
-727.923	-111.333	-0.205	0.043
-726.908	153.917	0.102	-0.143
-725.894	800.000	0.135	-0.390
-724.879	276.645	0.060	-0.108
-723.864	800.000	0.081	0.328
-722.850	-200.000	-0.000	-0.166
-721.835	349.632	-0.129	-0.261
-720.821	-29.741	-0.143	-0.083
-719.806	-200.000	0.030	-0.137
-718.791	-100.899	0.301	-0.075
-717.777	-105.077	-0.153	-0.036
-716.762	128.522	-0.254	0.329
-715.748	-147.611	-0.406	0.035
-714.733	-60.537	-0.231	-0.100
-713.718	-65.753	-0.347	0.142
-712.704	-136.990	-0.057	0.007
-711.689	-55.478	-0.236	0.108
-710.675	555.623	-0.033	0.082
-709.660	-117.788	-0.261	-0.048
-708.645	-200.000	0.066	0.431
-707.631	-108.389	-0.287	0.063
-706.616	130.610	-0.086	-0.112
-705.602	43.289	-0.155	-0.145
-704.587	-70.787	0.268	-0.103
-703.572	41.222	0.152	0.140
-702.558	-48.254	0.152	0.075
-701.543	-200.000	0.011	-0.052
-700.529	603.404	-0.077	-0.194
-699.514	-52.790	0.077	-0.036
-698.499	151.411	0.111	-0.154
-697.485	-200.000	-0.017	-0.277
-696.470	-60.974	-0.267	0.115
-695.456	2.848	-0.181	-0.134
-694.441	214.447	0.251	-0.404
-693.426	110.541	-0.179	-0.220
-692.412	800.000	0.032	-0.140
-691.397	183.763	0.120	-0.180
-690.383	227.046	0.108	-0.179
-689.368	-6.838	-0.340	-0.236
-688.354	-200.000	-0.002	-0.035
-687.339	107.511	0.166	0.201
-686.324	20.543	0.239	-0.197
-685.310	-145.160	0.234	0.022
-684.295	79.551	-0.191	-0.209
-683.281	800.000	-0.041	-0.115
-682.266	-102.444	0.271	-0.066
-681.251	800.000	-0.080	0.256
-680.237	34.394	0.204	0.181
-679.222	-125.184	-0.366	-0.057
-678.208	-66.122	-0.213	0.086
-677.193	88.012	0.048	-0.054
-676.178	-166.623	0.447	-0.019
-675.164	56.908	0.337	-0.334
-674.149	-200.000	-0.057	-0.389
-673.135	-82.662	-0.217	-0.071
-672.120	-85.955	-0.167	0.053
-671.105	-200.000	-0.019	-0.170
-670.091	-58.744	0.291	-0.128
-669.076	-48.673	-0.147	-0.072
-668.062	-200.000	0.019	0.109
-667.047	111.422	0.047	-0.058
-666.032	-126.171	-0.237	0.036
-665.018	206.222	-0.121	0.191
-664.003	800.000	0.025	0.074
-662.989	-68.311	0.247	-0.098
-661.974	-82.181	-0.107	-0.036
-660.959	42.958	0.186	-0.173
-659.945	-110.913	0.247	0.052
-658.930	49.590	0.197	0.189
-657.916	-95.674	-0.257	-0.070
-656.901	-200.000	0.021	0.116
-655.886	-89.126	-0.143	-0.043
-654.872	212.238	-0.064	-0.103
-653.857	-105.801	-0.088	0.020
-652.843	-16.806	0.079	-0.051
-651.828	-200.000	0.017	-0.184
-650.814	-20.774	-0.340	-0.212
-649.799	-200.000	-0.041	-0.269
-648.784	595.400	-0.069	0.173
-647.770	59.430	0.151	-0.151
-646.755	451.028	-0.011	0.024
-645.741	800.000	0.004	0.017
-644.726	35.200	0.204	0.182
-643.711	800.000	-0.074	0.252
-642.697	-100.839	0.276	-0.069
-641.682	-86.505	0.054	-0.017
-640.668	499.359	0.143	0.334
-639.653	-110.132	-0.305	-0.065
-638.638	-72.160	0.270	0.102
-637.624	800.000	-0.079	-0.324
-636.609	-200.000	-0.011	-0.215
-635.595	247.245	0.014	0.025
-634.580	-69.079	-0.260	-0.102
-633.565	-152.234	0.314	-0.023
-632.551	99.617	-0.053	0.063
-631.536	54.404	-0.158	-0.155
-630.522	-200.000	-0.011	0.209
-629.507	-200.000	0.014	0.170
-628.492	-169.611	-0.159	0.006
-627.478	-169.181	-0.132	0.005
-626.463	-23.451	-0.197	-0.120
-625.449	-200.000	0.004	0.060
-624.434	108.954	0.048	0.058
-623.419	124.900	0.181	-0.232
-622.405	-74.407	0.152	0.056
-621.390	15.866	0.158	-0.126
-620.376	800.000	0.099	-0.294
-619.361	23.691	-0.159	0.133
-618.346	-28.270	0.183	-0.107
-617.332	800.000	0.075	0.222
-616.317	343.255	0.120	0.238
-615.303	-200.000	-0.035	-0.272
-614.288	-36.186	-0.256	-0.140
-613.273	-138.988	-0.296	0.033
-612.259	-48.044	0.445	0.218
-611.244	-168.083	0.096	-0.004
-610.230	154.462	-0.054	-0.075
-609.215	219.326	0.094	-0.153
-608.201	-44.051	-0.036	-0.018
-607.186	-200.000	-0.026	-0.196
-606.171	266.504	-0.105	-0.186
-605.157	396.875	0.071	0.150
-604.142	30.165	0.244	0.211
-603.128	15.929	0.056	0.045
-602.113	516.845	-0.061	0.146
-601.098	-120.241	0.232	0.040
-600.084	-121.777	-0.072	-0.012
-599.069	-77.569	0.102	-0.036
-598.055	800.000	-0.051	0.222
-597.040	148.782	0.086	0.118
-596.025	-76.766	-0.269	-0.096
-595.011	-23.536	-0.313	-0.190
-593.996	-64.052	-0.063	0.026
-592.982	-109.812	-0.203	0.043
-591.967	-120.603	0.035	-0.006
-590.952	800.000	0.055	-0.203
-589.938	-123.395	0.089	0.014
-588.923	-39.475	0.130	-0.069
-587.909	-158.048	-0.220	-0.013
-586.894	-200.000	-0.014	0.087
-585.879	156.050	0.098	-0.137
-584.865	-200.000	-0.014	-0.065
-583.850	-157.850	0.125	0.007
-582.836	219.808	0.156	0.253
-581.821	-16.113	0.094	-0.060
-580.806	507.545	-0.099	-0.232
-579.792	-45.350	0.204	-0.102
-578.777	800.000	0.017	-0.062
-577.763	130.775	0.028	0.036
-576.748	-125.294	-0.137	-0.021
-575.733	-35.581	0.120	-0.066
-574.719	-127.538	-0.172	0.025
-573.704	434.828	0.055	0.122
-572.690	135.550	-0.130	-0.171
-571.675	-200.000	0.013	0.173
-570.661	200.511	-0.035	0.054
-569.646	-68.606	-0.123	-0.048
-568.631	275.295	0.038	0.068
-567.617	502.264	0.113	-0.264
-566.602	-112.175	0.208	-0.042
-565.588	-144.228	-0.075	-0.007
-564.573	15.391	-0.228	0.181
-563.558	-123.840	0.434	-0.069
-562.544	51.673	0.196	0.189
-561.529	-200.000	-0.029	0.235
-560.515	-129.901	0.148	-0.021
-559.500	184.446	-0.109	0.163
-558.485	402.809	-0.164	-0.349
-557.471	-90.790	-0.267	-0.078
-556.456	762.351	-0.075	0.207
-555.442	800.000	-0.043	0.135
-554.427	-39.100	0.121	-0.065
-553.412	800.000	0.044	-0.137
-552.398	-99.130	-0.633	-0.162
-551.383	-76.519	-0.117	0.042
-550.369	-139.443	-0.049	0.005
-549.354	-200.000	-0.039	-0.277
-548.339	-153.168	0.164	0.012
-547.325	107.568	-0.057	0.069
-546.310	21.060	0.054	0.044
-545.296	-8.466	-0.257	-0.175
-544.281	-131.398	-0.156	-0.021
-543.266	-60.852	0.097	-0.042
-542.252	-200.000	-0.146	-0.001
-541.237	-144.969	0.080	-0.007
-540.223	-101.737	-0.122	-0.030
-539.208	8.563	-0.196	-0.149
-538.193	42.865	0.083	-0.076
-537.179	-119.309	0.236	0.042
-536.164	452.020	-0.148	-0.331
-535.150	-98.323	0.215	0.056
-534.135	-119.737	0.315	-0.055
-533.121	4.658	0.191	-0.142
-532.106	597.420	-0.060	0.152
-531.091	-164.768	0.093	0.004
-530.077	-41.106	-0.108	-0.056
-529.062	24.739	-0.055	-0.046
-528.048	69.954	0.138	0.144
-527.033	-116.596	0.357	-0.067
-526.018	800.000	0.015	-0.045
-525.004	73.454	0.133	-0.140
-523.989	-132.814	-0.506	0.065
-522.975	-89.453	0.191	-0.057
-521.960	-113.945	-0.161	-0.032
-520.945	-100.004	-0.283	-0.071
-519.931	-131.873	0.112	-0.015
-518.916	-200.000	0.070	-0.367
-517.902	483.293	0.082	-0.189
-516.887	162.461	-0.043	-0.060
-515.872	-47.780	0.215	0.105
-514.858	192.081	0.053	0.081
-513.843	800.000	0.051	0.150
-512.829	-35.864	-0.233	0.128
-511.814	52.942	-0.163	0.158
-510.799	110.749	-0.220	-0.268
-509.785	397.482	0.080	-0.169
-508.770	486.181	0.011	-0.026
-507.756	-200.000	0.067	0.296
-506.741	-200.000	-0.009	0.115
-505.726	-200.000	-0.017	0.000
-504.712	-28.221	-0.234	-0.136
-503.697	-200.000	-0.001	-0.198
-502.683	-144.522	0.045	0.004
-501.668	716.771	0.047	0.127
-500.653	-135.836	0.088	-0.010
-499.639	-161.099	-0.125	0.007
-498.624	-55.595	0.136	0.061
-497.610	-112.255	0.287	0.058
-496.595	-72.876	0.090	0.033
-495.581	189.725	-0.217	-0.329
-494.566	440.215	-0.062	-0.137
-493.551	-160.681	-0.341	-0.018
-492.537	50.206	-0.093	0.089
-491.522	-4.807	0.207	-0.144
-490.508	71.416	-0.132	-0.138
-489.493	-200.000	0.025	0.337
-488.478	10.323	-0.235	-0.181
-487.464	-200.000	-0.003	-0.028
-486.449	334.991	0.108	-0.211
-485.435	20.957	-0.294	-0.241
-484.420	-183.109	-0.419	-0.007
-483.405	-200.000	-0.021	0.374
-482.391	-200.000	-0.059	0.305
-481.376	-119.866	0.196	0.034
-480.362	-158.131	-0.054	-0.003
-479.347	-84.305	0.211	-0.067
-478.332	695.490	-0.091	0.240
-477.318	25.841	-0.234	-0.197
-476.303	-103.368	0.265	0.063
-475.289	186.799	0.020	0.030
-474.274	-80.493	-0.342	0.115
-473.259	122.894	-0.100	-0.127
-472.245	210.267	-0.078	0.124
-471.230	226.337	-0.164	0.269
-470.216	-103.505	-0.212	-0.050
-469.201	184.048	-0.089	-0.133
-468.186	-99.598	-0.230	0.058
-467.172	-177.798	-0.254	0.006
-466.157	46.058	0.145	-0.136
-465.143	-13.903	0.345	0.225
-464.128	-21.183	-0.208	0.128
-463.113	-155.032	0.373	0.025
-462.099	685.665	0.135	-0.356
-461.084	357.415	-0.055	0.110
-460.070	-200.000	-0.011	-0.056
-459.055	-200.000	-0.032	-0.159
-458.040	258.487	0.123	0.214
-457.026	800.000	0.009	-0.040
-456.011	-60.724	0.206	-0.088
-454.997	-107.501	0.194	0.043
-453.982	126.737	-0.017	-0.021
-452.968	38.353	-0.135	-0.121
-451.953	90.612	-0.040	0.045
-450.938	-200.000	-0.002	-0.032
-449.924	147.779	-0.159	-0.216
-448.909	720.219	0.057	0.152
-447.895	800.000	-0.062	-0.245
-446.880	-27.660	0.219	0.128
-445.865	250.185	0.022	0.037
-444.851	163.775	-0.152	0.216
-443.836	-13.169	0.121	0.079
-442.822	16.543	0.151	0.120
-441.807	-96.576	0.154	-0.041
-440.792	800.000	-0.109	-0.359
-439.778	253.632	-0.235	-0.405
-438.763	-88.348	0.317	-0.096
-437.749	800.000	0.043	0.145
-436.734	-76.392	-0.051	0.018
-435.719	120.871	0.180	-0.226
-434.705	-131.440	-0.203	-0.027
-433.690	461.168	-0.116	0.260
-432.676	-66.584	0.541	0.216
-431.661	-64.433	-0.318	0.130
-430.646	460.103	-0.067	-0.149
-429.632	-48.614	0.051	0.025
-428.617	222.371	0.056	0.092
-427.603	110.892	-0.177	-0.215
-426.588	-200.000	-0.017	0.101
-425.573	800.000	-0.081	0.267
-424.559	-116.826	-0.443	-0.082
-423.544	-80.252	0.260	-0.088
-422.530	-83.121	-0.179	0.058
-421.515	-200.000	0.015	0.138
-420.500	-200.000	-0.089	0.459
-419.486	-71.152	0.112	0.042
-418.471	-200.000	-0.011	0.229
-417.457	-151.842	-0.170	-0.013
-416.442	-200.000	-0.026	-0.360
-415.428	746.099	-0.048	-0.129
-414.413	14.363	0.071	-0.056
-413.398	0.178	-0.319	0.229
-412.384	183.111	0.076	0.113
-411.369	800.000	0.116	-0.390
-410.355	-123.855	0.114	-0.018
-409.340	-19.537	-0.063	0.040
-408.325	230.317	0.199	-0.328
-407.311	384.818	0.061	-0.127
-406.296	-29.726	0.289	0.166
-405.282	124.923	-0.216	-0.274
-404.267	-44.624	-0.137	-0.069
-403.252	303.635	-0.011	0.021
-402.238	-200.000	0.034	0.207
-401.223	-114.361	-0.052	-0.010
-400.209	-200.000	0.002	0.475
-399.194	-24.503	-0.156	-0.094
-398.179	-119.751	0.257	0.045
-397.165	28.431	-0.128	0.109
-396.150	-173.903	0.137	0.004
-395.136	-46.066	0.253	-0.125
-394.121	-108.532	0.290	-0.063
-393.106	306.464	-0.084	0.158
-392.092	-73.349	-0.370	0.136
-391.077	667.915	-0.067	0.174
-390.063	-142.174	-0.472	0.047
-389.048	-55.577	0.255	-0.115
-388.033	160.962	-0.148	0.208
-387.019	-121.878	-0.373	0.062
-386.004	-136.601	-0.289	0.034
-384.990	294.554	0.189	0.349
-383.975	-118.798	0.163	0.029
-382.960	-12.444	-0.187	-0.123
-381.946	-180.886	-0.310	0.006
-380.931	180.263	-0.042	-0.062
-379.917	660.586	0.079	-0.205
-378.902	434.858	-0.067	-0.146
-377.888	106.894	-0.167	-0.199
-376.873	-11.741	0.101	-0.067
-375.858	-26.589	-0.077	-0.045
-374.844	800.000	-0.087	0.296
-373.829	365.229	0.054	-0.109
-372.815	55.859	-0.046	-0.045
-371.800	800.000	-0.095	-0.286
-370.785	-73.752	0.213	-0.078
-369.771	281.679	0.015	-0.027
-368.756	654.569	-0.054	-0.139
-367.742	-94.800	-0.201	0.055
-366.727	-200.000	-0.014	-0.238
-365.712	93.608	-0.223	-0.254
-364.698	342.999	-0.209	0.412
-363.683	-136.704	0.292	0.034
-362.669	-200.000	-0.012	-0.127
-361.654	-200.000	0.007	-0.354
-360.639	376.205	-0.052	-0.107
-359.625	169.963	-0.198	-0.284
-358.610	109.550	0.139	-0.168
-357.596	800.000	0.107	0.362
-356.581	-200.000	-0.024	0.161
-355.566	-100.201	-0.101	0.025
-354.552	-47.140	-0.249	-0.122
-353.537	261.203	-0.074	0.128
-352.523	-172.279	-0.178	-0.006
-351.508	-81.424	0.268	-0.089
-350.493	29.884	0.344	0.294
-349.479	-200.000	-0.018	0.155
-348.464	217.714	0.027	-0.043
-347.450	-200.000	0.054	-0.331
-346.435	123.127	-0.157	0.197
-345.420	-68.724	0.217	0.084
-344.406	20.544	-0.093	0.076
-343.391	-23.351	-0.113	0.068
-342.377	-162.491	0.288	0.014
-341.362	104.893	-0.129	0.153
-340.348	-200.000	-0.232	-0.001
-339.333	-200.000	0.038	0.274
-338.318	-144.054	-0.412	-0.039
-337.304	-200.000	-0.017	0.236
-336.289	-119.529	0.028	0.005
-335.275	-200.000	0.022	-0.172
-334.260	-147.694	0.242	-0.020
-333.245	-96.562	0.101	-0.027
-332.231	-200.000	-0.055	-0.255
-331.216	249.275	-0.087	0.148
-330.202	617.121	0.040	-0.100
-329.187	-113.703	0.219	0.043
-328.172	-49.265	-0.135	0.065
-327.158	-78.578	0.212	-0.073
-326.143	-43.022	-0.176	-0.090
-325.129	-98.661	-0.196	-0.050
-324.114	51.835	0.070	-0.067
-323.099	81.699	0.332	-0.360
-322.085	800.000	-0.086	0.350
-321.070	-200.000	-0.040	0.263
-320.056	84.212	0.346	0.379
-319.041	154.119	0.095	0.131
-318.026	-8.382	0.278	-0.187
-317.012	-159.549	-0.087	0.005
-315.997	800.000	0.047	-0.155
-314.983	10.734	0.270	0.207
-313.968	-167.375	-0.182	-0.007
-312.953	-1.798	-0.272	-0.192
-311.939	83.665	0.156	0.170
-310.924	115.641	-0.057	0.070
-309.910	800.000	-0.112	-0.340
-308.895	68.765	0.144	0.148
-307.880	247.621	0.087	0.148
-306.866	513.563	-0.077	0.181
-305.851	-200.000	-0.008	-0.133
-304.837	-29.339	0.209	0.120
-303.822	135.517	0.089	-0.117
-302.807	-113.207	0.401	0.079
-301.793	63.791	0.132	0.133
-300.778	-200.000	-0.036	0.226
-299.764	459.136	-0.027	0.060
-298.749	-104.025	-0.237	-0.055
-297.735	-66.843	0.118	0.047
-296.720	-57.306	0.052	-0.023
-295.705	-200.000	-0.003	-0.096
-294.691	-0.997	0.121	0.086
-293.676	39.569	-0.110	0.098
-292.662	-106.468	-0.303	-0.068
-291.647	-200.000	0.056	-0.316
-290.632	800.000	0.041	0.175
-289.618	11.440	-0.056	0.043
-288.603	-32.853	0.226	0.126
-287.589	-200.000	-0.010	-0.074
-286.574	-14.160	-0.167	-0.108
-285.559	-200.000	-0.034	-0.192
-284.545	-34.938	0.295	0.161
-283.530	19.718	0.060	-0.048
-282.516	-200.000	0.050	-0.263
-281.501	800.000	0.072	0.214
-280.486	-57.155	0.263	-0.116
-279.472	-28.952	0.030	-0.017
-278.457	-143.683	0.185	-0.018
-277.443	-27.337	-0.432	-0.252
-276.428	22.183	-0.223	-0.182
-275.413	571.932	0.040	0.099
-274.399	-200.000	-0.041	-0.296
-273.384	46.713	0.243	-0.227
-272.370	-65.376	0.094	-0.038
-271.355	-200.000	-0.023	0.134
-270.340	-120.101	-0.264	0.045
-269.326	118.255	0.182	0.225
-268.311	57.217	-0.182	0.177
-267.297	-200.000	-0.022	-0.117
-266.282	-141.731	-0.256	0.026
-265.267	-117.871	-0.236	-0.042
-264.253	-101.018	0.455	0.112
-263.238	-200.000	-0.017	-0.127
-262.224	-7.189	0.136	0.093
-261.209	397.569	-0.090	0.189
-260.195	-57.199	0.105	-0.046
-259.180	-200.000	0.015	-0.175
-258.165	-28.437	0.236	-0.136
-257.151	598.706	-0.084	-0.208
-256.136	-106.348	0.155	-0.035
-255.122	98.107	0.044	0.050
-254.107	-88.671	-0.142	-0.042
-253.092	-25.001	0.227	-0.135
-252.078	-72.323	0.200	-0.074
-251.063	-200.000	0.007	0.119
-250.049	-200.000	0.008	0.292
-249.034	390.951	-0.069	0.143
-248.019	-155.526	-0.084	-0.005
-247.005	-2.081	-0.080	-0.056
-245.990	67.756	0.162	-0.166
-244.976	-200.000	-0.013	-0.093
-243.961	800.000	0.055	-0.209
-242.946	-37.320	-0.286	0.153
-241.932	800.000	0.064	0.208
-240.917	-102.782	0.235	-0.056
-239.903	528.590	-0.271	-0.640
-238.888	324.528	0.083	-0.159
-237.873	-115.634	-0.036	0.007
-236.859	211.659	0.100	-0.157
-235.844	83.327	0.239	0.260
-234.830	-200.000	-0.027	0.196
-233.815	-194.467	0.158	-0.001
-232.800	9.466	0.108	-0.082
-231.786	-111.077	0.075	0.015
-230.771	-64.222	0.228	-0.093
-229.757	-79.106	0.366	0.124
-228.742	99.589	-0.120	0.139
-227.727	-200.000	0.022	0.166
-226.713	-148.867	-0.041	0.003
-225.698	-146.914	-0.389	-0.033
-224.684	800.000	0.047	-0.155
-223.669	39.124	-0.265	0.237
-222.655	94.768	0.244	0.278
-221.640	-69.192	-0.163	-0.063
-220.625	-100.141	0.086	0.021
-219.611	800.000	0.062	-0.204
-218.596	177.232	0.158	0.230
-217.582	-200.000	-0.041	0.330
-216.567	-71.098	0.230	0.086
-215.552	-125.825	0.087	0.013
-214.538	149.774	0.247	0.334
-213.523	304.728	0.101	-0.188
-212.509	380.211	0.109	0.224
-211.494	74.772	-0.270	0.284
-210.479	25.260	0.192	0.159
-209.465	-40.075	-0.348	0.181
-208.450	-173.043	0.287	0.009
-207.436	-130.393	0.588	-0.080
-206.421	800.000	-0.015	-0.055
-205.406	5.481	-0.209	0.154
-204.392	89.144	-0.198	0.220
-203.377	28.678	-0.092	-0.078
-202.363	-200.000	0.001	0.187
-201.348	-190.520	-0.420	0.005
-200.333	-172.352	0.333	-0.011
-199.319	800.000	-0.057	-0.196
-198.304	-157.375	-0.164	0.010
-197.290	-165.711	-0.163	0.007
-196.275	312.250	0.082	-0.153
-195.260	-117.561	-0.214	0.039
-194.246	738.203	-0.025	-0.067
-193.231	358.596	-0.064	0.128
-192.217	-34.858	-0.212	-0.116
-191.202	-95.336	0.245	-0.066
-190.187	-200.000	-0.045	0.379
-189.173	232.156	-0.163	-0.267
-188.158	-31.000	0.333	0.188
-187.144	800.000	-0.084	-0.355
-186.129	-200.000	0.003	-0.406
-185.114	800.000	-0.025	0.107
-184.100	-119.977	-0.271	0.047
-183.085	116.329	-0.067	0.081
-182.071	-12.188	0.073	0.048
-181.056	-200.000	-0.060	0.307
-180.042	248.877	0.081	0.137
-179.027	-57.152	0.239	0.105
-178.012	800.000	0.059	0.226
-176.998	437.217	0.089	-0.193
-175.983	800.000	0.091	0.328
-174.969	-40.746	0.093	-0.048
-173.954	800.000	-0.093	-0.326
-172.939	92.899	-0.111	-0.125
-171.925	-139.013	0.326	0.035
-170.910	-109.742	-0.218	0.046
-169.896	422.383	0.098	0.211
-168.881	-200.000	0.161	-0.000
-167.866	800.000	0.071	-0.239
-166.852	-200.000	0.040	0.238
-165.837	-44.655	0.072	0.036
-164.823	-200.000	0.029	-0.189
-163.808	204.123	-0.025	0.038
-162.793	249.759	-0.158	0.267
-161.779	800.000	-0.023	0.093
-160.764	327.226	0.125	-0.239
-159.750	-114.937	-0.352	-0.067
-158.735	-86.883	0.221	-0.067
-157.720	800.000	0.074	0.307
-156.706	256.713	0.059	-0.102
-155.691	-58.768	-0.229	-0.099
-154.677	159.921	0.035	0.049
-153.662	-166.012	-0.214	0.009
-152.647	-107.136	0.241	-0.053
-151.633	-108.857	-0.326	0.070
-150.618	78.895	0.104	0.111
-149.604	-71.473	0.114	0.043
-148.589	-85.664	0.146	-0.045
-147.574	102.172	-0.170	0.198
-146.560	-200.000	0.008	-0.161
-145.545	-147.551	0.593	0.050
-144.531	-171.910	0.231	-0.007
-143.516	445.291	-0.085	-0.186
-142.502	-200.000	-0.003	-0.029
-141.487	-132.447	-0.162	0.021
-140.472	-116.418	0.053	-0.010
-139.458	-77.279	0.051	0.018
-138.443	-100.337	-0.044	0.011
-137.429	-97.687	0.342	0.088
-136.414	-0.542	0.269	-0.190
-135.399	245.943	0.063	-0.105
-134.385	417.118	-0.235	-0.500
-133.370	-182.255	0.260	0.005
-132.356	287.134	0.205	0.369
-131.341	596.731	0.049	-0.121
-130.326	-106.320	-0.155	0.035
-129.312	-200.000	-0.029	0.186
-128.297	-13.047	-0.189	0.122
-127.283	158.985	0.148	-0.205
-126.268	31.789	0.062	0.053
-125.253	-200.000	0.095	0.000
-124.239	-200.000	-0.005	-0.171
-123.224	-200.000	0.011	0.166
-122.210	-200.000	0.558	-0.001
-121.195	478.295	-0.046	0.104
-120.180	-200.000	0.060	0.308
-119.166	79.304	0.039	-0.042
-118.151	384.927	-0.118	0.242
-117.137	800.000	0.010	-0.036
-116.122	-89.525	0.107	-0.031
-115.107	229.744	0.114	0.185
-114.093	67.430	-0.223	0.226
-113.078	-26.542	-0.163	0.095
-112.064	-85.212	-0.131	-0.041
-111.049	-63.732	0.274	-0.112
-110.034	185.379	0.171	-0.252
-109.020	800.000	0.021	0.061
-108.005	106.836	-0.173	-0.205
-106.991	-200.000	0.017	-0.342
-105.976	-93.084	0.196	-0.054
-104.962	-50.850	0.380	-0.178
-103.947	-22.357	-0.345	0.208
-102.932	-25.940	-0.145	-0.085
-101.918	-127.198	0.079	0.012
-100.903	120.235	-0.161	-0.199
-99.889	800.000	-0.070	-0.217
-98.874	-200.000	-0.015	-0.139
-97.859	800.000	-0.089	-0.288
-96.845	800.000	-0.098	0.307
-95.830	-35.611	-0.261	0.141
-94.816	-66.595	0.302	0.119
-93.801	27.288	0.175	-0.147
-92.786	104.022	-0.046	-0.054
-91.772	800.000	-0.103	0.372
-90.757	653.291	-0.102	0.259
-89.743	-134.659	-0.116	0.014
-88.728	-161.948	0.061	0.003
-87.713	800.000	0.085	-0.303
-86.699	-29.365	-0.118	-0.067
-85.684	629.928	-0.035	-0.087
-84.670	70.848	0.298	-0.307
-83.655	-98.152	0.270	-0.069
-82.640	800.000	0.032	-0.097
-81.626	-113.916	0.267	-0.052
-80.611	-200.000	-0.012	0.234
-79.597	-103.872	0.056	-0.013
-78.582	-83.176	0.240	0.077
-77.567	18.214	0.231	-0.183
-76.553	120.890	-0.110	0.136
-75.538	-63.035	0.108	0.044
-74.524	-200.000	-0.020	0.124
-73.509	468.246	0.128	-0.287
-72.494	519.961	-0.162	-0.378
-71.480	127.248	-0.064	0.081
-70.465	113.560	0.280	0.337
-69.451	-11.359	0.079	0.051
-68.436	397.833	0.170	0.354
-67.422	232.732	0.081	-0.132
-66.407	-97.924	-0.199	0.051
-65.392	-56.234	-0.191	0.084
-64.378	-106.280	-0.048	0.011
-63.363	-93.434	0.123	0.034
-62.349	498.167	0.102	-0.232
-61.334	331.380	-0.544	-1.042
-60.319	32.192	0.379	0.325
-59.305	-200.000	-0.167	-0.739
-58.290	152.506	0.566	0.768
-57.276	319.642	0.695	1.309
-56.261	-200.000	86.159	507.579
-55.246	552.980	1379.557	3292.879
-54.232	180.251	2627.122	3826.941
-53.217	119.419	2253.494	2770.497
-52.203	48.606	1701.193	1583.508
-51.188	40.907	1430.805	1282.360
-50.173	37.725	1385.970	1222.205
-49.159	56.639	1427.855	1379.795
-48.144	61.112	1446.442	1426.124
-47.130	41.352	1405.474	1262.278
-46.115	37.809	1388.508	1224.776
-45.100	37.528	1383.678	1218.703
-44.086	37.508	1381.273	1216.411
-43.071	37.477	1378.402	1213.642
-42.057	37.481	1376.528	1211.972
-41.042	37.494	1374.752	1210.440
-40.027	37.630	1372.879	1209.588
-39.013	37.581	1371.185	1207.744
-37.998	37.513	1369.284	1205.601
-36.984	37.663	1367.176	1204.626
-35.969	37.663	1365.665	1203.241
-34.954	37.677	1364.149	1201.948
-33.940	37.713	1362.136	1200.350
-32.925	37.759	1361.157	1199.722
-31.911	37.723	1359.816	1198.269
-30.896	37.762	1357.857	1196.738
-29.881	37.732	1356.364	1195.187
-28.867	37.854	1354.657	1194.382
-27.852	37.750	1353.265	1192.471
-26.838	37.789	1351.947	1191.506
-25.823	37.843	1350.424	1190.440
-24.809	37.804	1349.305	1189.173
-23.794	37.715	1348.315	1187.707
-22.779	37.694	1346.904	1186.294
-21.765	37.769	1345.158	1185.162
-20.750	37.832	1343.653	1184.175
-19.736	37.653	1342.272	1181.824
-18.721	37.519	1341.486	1180.270
-17.706	37.686	1340.200	1180.107
-16.692	37.623	1338.696	1178.351
-15.677	37.629	1337.759	1177.514
-14.663	37.658	1336.532	1176.564
-13.648	37.594	1335.473	1175.199
-12.633	37.584	1334.505	1174.241
-11.619	37.513	1333.761	1173.114
-10.604	37.528	1332.751	1172.263
-9.590	37.515	1332.046	1171.524
-8.575	37.571	1330.694	1170.620
-7.560	37.530	1329.517	1169.295
-6.546	37.598	1328.680	1168.922
-5.531	37.511	1328.045	1167.795
-4.517	37.577	1327.068	1167.286
-3.502	37.693	1325.734	1166.759
-2.487	37.585	1324.770	1165.219
-1.473	37.612	1321.139	1162.140
-0.458	36.487	1306.030	1142.155
0.556	30.575	1286.426	1100.016
1.571	26.415	1290.828	1078.924
2.586	25.227	1306.449	1084.705
3.600	24.187	1294.770	1068.678
4.615	16.925	1216.401	962.829
5.629	5.454	1132.571	835.430
6.644	0.030	1108.443	789.150
7.659	-0.373	1105.191	784.661
8.673	-0.545	1104.497	783.199
9.688	-0.461	1102.287	781.999
10.702	-0.076	1100.743	782.840
11.717	6.027	1111.023	822.099
12.731	15.184	1124.484	880.303
13.746	17.372	1125.820	892.767
14.761	15.961	1123.481	883.434
15.775	15.552	1122.428	880.385
16.790	15.279	1121.856	878.429
17.804	15.232	1120.640	877.155
18.819	15.126	1120.308	876.261
19.834	15.102	1119.738	875.616
20.848	15.047	1119.137	874.780
21.863	15.018	1118.387	873.964
22.877	14.983	1117.847	873.282
23.892	15.033	1116.656	872.532
24.907	15.048	1116.138	872.130
25.921	15.099	1114.722	871.215
26.936	15.041	1113.389	869.794
27.950	15.155	1111.451	868.793
28.965	15.020	1109.775	866.708
29.980	15.091	1107.488	865.209
30.994	15.175	1106.774	865.012
32.009	15.153	1104.742	863.231
33.023	14.979	1103.392	861.203
34.038	15.054	1102.849	861.089
35.053	15.161	1102.375	861.195
36.067	15.095	1101.501	860.095
37.082	15.168	1100.605	859.696
38.096	15.254	1099.827	859.455
39.111	15.270	1099.055	858.857
40.126	15.210	1097.345	857.138
41.140	15.010	1095.579	854.659
42.155	14.959	1093.802	852.940
43.169	14.927	1092.733	851.863
44.184	14.982	1091.509	851.118
45.199	14.902	1090.527	849.870
46.213	14.906	1089.322	848.875
47.228	14.829	1088.106	847.460
48.242	14.717	1087.286	846.180
49.257	14.935	1086.442	846.553
50.271	15.046	1084.862	845.809
51.286	15.159	1083.974	845.610
52.301	15.117	1082.756	844.375
53.315	15.068	1081.917	843.397
54.330	15.055	1080.623	842.249
55.344	15.115	1079.852	841.878
56.359	15.129	1078.470	840.795
57.374	15.034	1077.503	839.487
58.388	14.990	1076.567	838.463
59.403	15.120	1075.591	838.281
60.417	14.876	1074.985	836.516
61.432	14.923	1074.381	836.205
62.447	14.910	1073.859	835.663
63.461	14.995	1072.630	835.054
64.476	14.971	1071.218	833.760
65.490	15.050	1070.393	833.440
66.505	15.000	1069.988	832.801
67.520	15.057	1068.767	832.060
68.534	14.912	1068.052	830.708
69.549	14.895	1066.405	829.271
70.563	14.871	1065.911	828.694
71.578	14.832	1065.443	828.064
72.593	14.752	1064.538	826.889
73.607	14.860	1064.418	827.259
74.622	15.068	1063.055	827.157
75.636	14.932	1062.465	825.954
76.651	14.894	1061.330	824.807
77.666	14.861	1060.307	823.778
78.680	14.913	1060.105	823.803
79.695	14.938	1059.660	823.509
80.709	14.845	1058.397	821.999
81.724	14.953	1057.548	821.797
82.739	14.945	1056.625	820.965
83.753	15.015	1056.144	820.864
84.768	15.200	1055.074	820.866
85.782	15.154	1054.086	819.800
86.797	15.185	1052.579	818.706
87.812	14.972	1051.573	816.814
88.826	15.090	1051.103	816.950
89.841	15.167	1049.510	816.013
90.855	15.212	1048.133	815.088
91.870	15.104	1047.324	813.864
92.884	15.064	1046.416	812.893
93.899	14.925	1045.738	811.621
94.914	15.142	1044.420	811.578
95.928	15.066	1043.552	810.463
96.943	14.912	1042.532	808.854
97.957	14.812	1041.138	807.219
98.972	14.597	1039.984	805.215
99.987	14.767	1039.203	805.358
101.001	15.110	1038.145	806.120
102.016	15.020	1037.142	804.836
103.030	14.820	1036.457	803.271
104.045	14.715	1035.279	801.784
105.060	14.590	1034.488	800.498
106.074	14.866	1033.293	800.824
107.089	15.122	1032.972	801.731
108.103	15.149	1031.702	800.805
109.118	15.021	1030.848	799.460
110.133	15.124	1029.811	799.076
111.147	14.958	1028.614	797.286
112.162	14.956	1027.381	796.250
113.176	15.093	1026.554	796.188
114.191	14.950	1025.446	794.581
115.206	14.766	1024.726	793.078
116.220	14.753	1023.675	792.136
117.235	14.977	1022.262	792.033
118.249	14.939	1021.546	791.225
119.264	14.937	1020.691	790.485
120.279	14.880	1020.139	789.716
121.293	15.014	1018.953	789.361
122.308	15.070	1017.898	788.739
123.322	14.970	1016.701	787.273
124.337	14.904	1015.355	785.849
125.352	14.581	1013.492	782.821
126.366	14.472	1012.147	781.206
127.381	14.958	1011.564	782.962
128.395	15.209	1010.854	783.517
129.410	15.320	1009.820	783.162
130.424	15.258	1008.450	781.742
131.439	15.025	1007.844	780.118
132.454	15.076	1006.740	779.429
133.468	15.162	1005.465	778.773
134.483	15.222	1004.769	778.447
135.497	15.335	1004.053	778.348
136.512	15.443	1002.883	777.872
137.527	15.399	1001.940	776.867
138.541	15.481	1000.879	776.354
139.556	15.369	1000.474	775.456
140.570	15.317	999.634	774.495
141.585	15.157	998.351	772.695
142.600	15.175	997.477	772.032
143.614	15.365	996.287	771.916
144.629	15.443	995.731	771.779
145.643	15.444	994.035	770.398
146.658	15.303	993.383	769.177
147.673	15.166	992.526	767.818
148.687	15.127	990.839	766.269
149.702	15.210	990.104	766.010
150.716	15.310	989.342	765.812
151.731	15.325	988.804	765.395
152.746	15.228	988.543	764.682
153.760	15.449	987.440	764.767
154.775	15.439	986.624	764.024
155.789	15.342	986.020	763.045
156.804	15.417	984.936	762.481
157.819	15.271	984.352	761.298
158.833	15.369	983.343	760.896
159.848	15.419	982.076	760.076
160.862	15.273	981.389	758.816
161.877	15.360	980.499	758.453
162.892	15.487	979.613	758.274
163.906	15.474	977.953	756.864
164.921	15.399	977.128	755.818
165.935	15.441	975.959	755.038
166.950	15.495	975.057	754.515
167.964	15.405	974.581	753.674
168.979	15.392	973.068	752.383
169.994	15.368	971.729	751.173
171.008	15.469	971.534	751.406
172.023	15.584	970.166	750.797
173.037	15.175	969.264	748.203
174.052	15.090	968.468	747.144
175.067	15.163	968.100	747.119
176.081	15.432	967.344	747.669
177.096	15.375	966.600	746.775
178.110	15.138	965.808	745.041
179.125	15.178	965.034	744.557
180.140	15.272	964.555	744.540
181.154	15.234	963.761	743.693
182.169	15.318	963.644	743.909
183.183	15.439	962.947	743.843
184.198	15.379	961.989	742.770
185.213	15.441	960.859	742.108
186.227	15.597	960.453	742.416
187.242	15.517	959.403	741.185
188.256	15.577	958.737	740.871
189.271	15.422	957.945	739.510
190.286	15.333	956.776	738.152
191.300	15.020	955.864	736.003
192.315	14.465	954.860	732.728
193.329	14.587	954.288	732.760
194.344	15.194	953.815	734.995
195.359	15.488	953.485	735.964
196.373	15.328	953.090	734.893
197.388	15.121	952.257	733.282
198.402	15.106	951.210	732.344
199.417	15.193	950.187	731.873
200.432	14.986	949.336	730.247
201.446	15.006	948.142	729.351
202.461	14.810	947.957	728.293
203.475	14.438	946.586	725.555
204.490	14.051	945.752	723.165
205.504	14.702	945.724	725.914
206.519	15.134	945.133	727.272
207.534	15.179	944.601	726.994
208.548	15.324	944.404	727.405
209.563	15.291	943.158	726.238
210.577	15.148	942.638	725.155
211.592	15.484	942.124	726.149
212.607	15.386	940.961	724.765
213.621	15.400	940.297	724.249
214.636	15.446	939.215	723.553
215.650	15.526	939.002	723.669
216.665	15.530	938.510	723.240
217.680	15.505	937.267	722.111
218.694	15.276	935.631	719.804
219.709	15.255	935.570	719.603
220.723	15.371	935.277	719.812
221.738	15.544	934.035	719.534
222.753	15.342	933.918	718.514
223.767	15.457	932.811	718.091
224.782	15.668	932.397	718.612
225.796	15.670	931.300	717.711
226.811	15.124	930.597	714.779
227.826	14.869	929.461	712.753
228.840	15.044	928.795	712.927
229.855	15.023	928.104	712.240
230.869	14.746	926.852	710.041
231.884	15.097	926.779	711.416
232.899	15.572	926.204	712.928
233.913	15.643	925.789	712.842
234.928	15.675	925.015	712.321
235.942	15.623	924.171	711.390
236.957	15.412	923.437	709.869
237.972	15.485	922.737	709.577
238.986	15.540	921.927	709.121
240.001	15.594	921.323	708.822
241.015	15.551	920.617	708.037
242.030	15.504	920.377	707.590
243.045	15.610	919.540	707.330
244.059	15.700	918.978	707.214
245.074	15.590	918.019	705.951
246.088	15.244	916.510	703.278
247.103	15.436	916.153	703.744
248.117	15.653	915.871	704.377
249.132	15.610	915.579	703.909
250.147	15.722	914.383	703.397
251.161	15.834	913.824	703.371
252.176	15.786	913.245	702.663
253.190	15.813	912.550	702.180
254.205	16.163	911.502	702.768
255.220	16.180	910.723	702.177
256.234	16.057	909.906	700.972
257.249	15.764	909.858	699.657
258.263	16.056	908.801	699.994
259.278	16.001	908.129	699.186
260.293	16.039	907.235	698.593
261.307	15.921	906.433	697.424
262.322	15.574	905.646	695.323
263.336	15.209	903.913	692.422
264.351	14.538	902.194	688.277
265.366	14.609	901.676	688.113
266.380	15.446	901.893	691.669
267.395	15.729	901.441	692.427
268.409	15.698	900.842	691.777
269.424	15.992	899.804	692.128
270.439	15.970	899.294	691.583
271.453	16.162	898.373	691.601
272.468	16.241	898.411	691.893
273.482	16.113	897.766	690.809
274.497	15.862	896.634	688.852
275.512	15.618	895.553	686.960
276.526	15.860	895.545	687.885
277.541	15.950	895.012	687.781
278.555	15.680	893.887	685.756
279.570	15.607	892.680	684.473
280.585	15.795	892.230	684.829
281.599	15.952	891.383	684.759
282.614	15.657	890.429	682.769
283.628	15.526	890.048	681.881
284.643	15.712	889.902	682.467
285.657	15.480	888.651	680.504
286.672	15.400	887.601	679.317
287.687	15.726	887.705	680.655
288.701	15.756	886.812	680.033
289.716	15.516	885.794	678.221
290.730	15.407	884.962	677.087
291.745	15.252	884.222	675.833
292.760	15.490	883.677	676.317
293.774	16.038	884.147	678.824
294.789	16.285	883.655	679.382
295.803	16.590	882.391	679.575
296.818	16.528	881.923	678.906
297.833	16.113	880.972	676.449
298.847	16.186	880.277	676.146
299.862	16.257	879.889	676.076
300.876	16.348	879.427	676.024
301.891	16.181	878.357	674.473
302.906	15.980	877.484	672.942
303.920	15.998	877.205	672.738
304.935	16.189	876.794	673.126
305.949	16.304	876.076	672.976
306.964	16.294	875.489	672.425
307.979	16.352	875.246	672.409
308.993	16.536	874.773	672.717
310.008	16.500	873.777	671.751
311.022	16.227	873.092	670.078
312.037	16.395	872.330	670.102
313.052	16.239	871.416	668.724
314.066	15.757	870.482	666.036
315.081	15.445	869.938	664.327
316.095	16.032	869.835	666.515
317.110	16.199	869.952	667.204
318.125	15.950	868.361	664.942
319.139	15.410	867.438	662.046
320.154	15.419	866.713	661.472
321.168	15.953	866.731	663.531
322.183	16.254	866.581	664.541
323.197	16.412	866.095	664.733
324.212	16.523	865.776	664.863
325.227	16.624	864.801	664.455
326.241	16.384	864.660	663.343
327.256	16.437	863.736	662.783
328.270	16.381	863.398	662.249
329.285	16.299	862.270	661.004
330.300	16.219	861.607	660.124
331.314	16.310	861.387	660.250
332.329	16.435	860.939	660.337
333.343	16.540	860.434	660.302
334.358	16.478	859.967	659.642
335.373	16.498	859.596	659.378
336.387	16.678	859.285	659.782
337.402	16.572	858.947	659.051
338.416	16.698	858.169	658.888
339.431	16.607	858.021	658.362
340.446	16.703	857.687	658.419
341.460	16.487	857.300	657.227
342.475	16.383	856.368	656.048
343.489	16.475	855.836	655.942
344.504	16.707	855.022	656.157
345.519	16.839	855.013	656.604
346.533	16.879	854.414	656.242
347.548	16.824	854.052	655.690
348.562	16.912	853.550	655.589
349.577	16.810	853.198	654.864
350.592	16.909	852.436	654.606
351.606	17.079	851.504	654.488
352.621	16.977	850.714	653.429
353.635	16.859	849.869	652.270
354.650	16.658	848.496	650.384
355.665	16.084	847.371	647.263
356.679	16.141	847.008	647.148
357.694	16.307	846.479	647.320
358.708	16.410	846.072	647.348
359.723	16.657	846.015	648.194
360.738	16.935	845.316	648.662
361.752	17.064	844.348	648.353
362.767	17.051	843.973	647.961
363.781	17.101	843.519	647.746
364.796	17.132	843.487	647.781
365.810	17.183	843.016	647.555
366.825	17.230	842.260	647.100
367.840	16.880	841.571	645.178
368.854	16.787	840.957	644.298
369.869	16.910	840.261	644.176
370.883	16.894	839.890	643.773
371.898	16.664	839.456	642.509
372.913	16.811	839.125	642.759
373.927	16.974	838.816	643.081
374.942	17.150	838.506	643.457
375.956	17.054	838.288	642.868
376.971	17.045	837.624	642.267
377.986	17.074	837.215	642.007
379.000	17.157	836.308	641.568
380.015	17.114	835.629	640.827
381.029	17.173	835.427	640.838
382.044	17.100	834.550	639.835
383.059	17.277	833.551	639.677
384.073	17.219	833.699	639.517
385.088	17.289	833.190	639.332
386.102	17.387	832.388	639.029
387.117	17.283	831.727	638.075
388.132	17.296	830.559	637.170
389.146	16.951	829.577	635.068
390.161	16.792	829.901	634.665
391.175	17.093	829.024	635.064
392.190	16.925	828.071	633.651
393.205	16.314	826.872	630.396
394.219	15.833	826.034	627.908
395.234	15.747	826.229	627.678
396.248	16.376	826.961	630.528
397.263	17.212	827.080	633.684
398.278	17.419	826.427	633.899
399.292	17.169	826.251	632.776
400.307	17.359	825.379	632.758
401.321	17.452	824.538	632.403
402.336	17.508	824.472	632.507
403.350	17.603	824.476	632.806
404.365	17.610	823.792	632.249
405.380	17.637	823.320	631.931
406.394	17.569	822.750	631.185
407.409	17.637	821.901	630.731
408.423	17.579	821.527	630.174
409.438	17.772	821.540	630.842
410.453	17.777	820.893	630.307
411.467	17.879	820.152	630.060
412.482	17.759	819.944	629.402
413.496	17.770	819.728	629.218
414.511	17.792	819.633	629.172
415.526	17.678	819.168	628.340
416.540	17.630	818.365	627.493
417.555	17.479	817.176	625.969
418.569	17.580	816.580	625.829
419.584	17.453	816.637	625.351
420.599	17.308	815.860	624.167
421.613	150.758	1358.562	1779.503
422.628	131.259	1437.658	1779.608
