DTS Sentinel unit serial number:	SN413079Multiplexer serial number:	ORYXHardware model number:	OX4-SRSoftware version number:	ORYX F/W v4.00 Oryx Data Collector v3.7.2.0data status	okinstallation	princeton_trtdifferential loss correction	single-endedforward channel	channel 1reverse channel	N/Adate	2019/09/11time	15:24:11forward acquisition time	60.00reverse acquisition time	0.00gamma	496.2192k internal	0.2292k external	0.2292temperature offset calibration	0.9990default loss term (dB/km)	0.3790temperature slope calibration	1.0000multiplexer offset coefficient	1.0000multiplexer slope coefficient	1.0000fibre end	0.00T internal ref (°C)	42.87T ext. ref 1 (°C)	0.98T ext. ref 2 (°C)	37.50length (m)	temperature (°C)	Stokes	anti-Stokes-747.200	129.579	-0.175	-0.229
-746.185	257.917	0.154	0.271
-745.171	-62.734	-0.089	0.038
-744.156	-68.872	0.041	0.016
-743.142	-200.000	-0.047	0.242
-742.127	-200.000	-0.018	0.347
-741.112	-55.744	0.097	0.044
-740.098	292.047	-0.171	-0.318
-739.083	800.000	0.122	0.356
-738.069	255.127	-0.157	0.276
-737.054	-116.553	-0.169	-0.032
-736.039	800.000	0.038	-0.124
-735.025	-200.000	-0.008	0.544
-734.010	-185.526	-0.431	0.007
-732.996	736.071	-0.147	-0.403
-731.981	-11.183	0.132	0.089
-730.966	284.462	-0.109	0.200
-729.952	-49.735	-0.031	-0.015
-728.937	-117.927	-0.422	-0.077
-727.923	122.546	0.161	-0.206
-726.908	-110.323	-0.250	-0.053
-725.894	162.870	-0.119	-0.171
-724.879	142.895	-0.104	0.141
-723.864	-149.556	0.271	-0.022
-722.850	-191.418	-0.169	0.002
-721.835	95.128	0.078	0.090
-720.821	-200.000	0.012	0.108
-719.806	800.000	-0.056	0.225
-718.791	277.845	0.291	-0.530
-717.777	-50.769	0.289	-0.139
-716.762	-200.000	0.011	-0.127
-715.748	-39.423	0.044	0.024
-714.733	386.673	0.161	-0.339
-713.718	-144.768	-0.082	-0.008
-712.704	353.268	0.067	0.135
-711.689	-7.355	-0.057	-0.040
-710.675	-35.842	-0.300	-0.166
-709.660	-189.511	0.140	0.002
-708.645	-200.000	-0.039	-0.262
-707.631	26.481	-0.066	-0.056
-706.616	-200.000	-0.017	-0.333
-705.602	800.000	0.074	-0.248
-704.587	-65.735	-0.201	-0.082
-703.572	-45.908	0.195	-0.098
-702.558	50.042	-0.240	0.231
-701.543	-200.000	-0.009	-0.211
-700.529	-15.793	-0.166	0.108
-699.514	800.000	-0.064	0.193
-698.499	-70.436	-0.079	-0.031
-697.485	3.176	-0.069	0.051
-696.470	29.483	0.082	-0.071
-695.456	-200.000	-0.033	-0.000
-694.441	-64.223	0.273	0.114
-693.426	43.552	0.132	0.124
-692.412	235.777	-0.243	0.411
-691.397	-55.355	0.142	-0.065
-690.383	-48.821	-0.371	-0.182
-689.368	37.333	0.299	-0.271
-688.354	295.164	0.104	0.195
-687.339	99.576	0.042	-0.050
-686.324	-120.096	-0.054	-0.010
-685.310	-169.299	0.050	-0.002
-684.295	114.971	0.216	-0.270
-683.281	-47.720	-0.291	-0.144
-682.266	712.427	-0.102	-0.276
-681.251	-151.567	0.281	0.021
-680.237	-8.723	0.067	-0.046
-679.222	-146.173	-0.261	0.023
-678.208	800.000	-0.044	-0.152
-677.193	-105.502	0.075	-0.017
-676.178	281.074	-0.032	0.059
-675.164	238.779	0.041	-0.069
-674.149	-12.140	0.226	0.151
-673.135	-200.000	-0.007	-0.128
-672.120	-200.000	0.001	-0.068
-671.105	-200.000	0.005	-0.143
-670.091	-200.000	-0.390	0.002
-669.076	800.000	0.035	-0.133
-668.062	96.251	0.185	-0.216
-667.047	-109.621	0.263	0.057
-666.032	800.000	-0.073	-0.276
-665.018	800.000	0.029	-0.096
-664.003	-200.000	0.005	-0.183
-662.989	112.723	0.321	0.397
-661.974	293.992	0.056	0.104
-660.959	-24.693	-0.067	-0.041
-659.945	-200.000	0.045	-0.240
-658.930	292.576	-0.096	0.179
-657.916	-200.000	-0.027	0.391
-656.901	800.000	0.083	-0.310
-655.886	-28.911	-0.172	-0.101
-654.872	-108.708	0.292	-0.064
-653.857	686.394	0.106	-0.281
-652.843	-130.816	-0.274	-0.037
-651.828	293.931	0.096	-0.179
-650.814	-94.400	-0.313	0.087
-649.799	-94.886	-0.450	-0.124
-648.784	274.100	0.016	0.028
-647.770	-66.476	0.238	0.096
-646.755	-200.000	-0.024	0.196
-645.741	136.276	-0.202	0.268
-644.726	-200.000	-0.010	-0.248
-643.711	108.850	-0.073	-0.088
-642.697	-4.982	0.272	0.191
-641.682	354.008	0.091	-0.184
-640.668	257.690	-0.145	0.255
-639.653	3.773	-0.250	0.186
-638.638	26.766	-0.245	-0.209
-637.624	316.829	0.107	0.206
-636.609	-129.862	0.092	-0.013
-635.595	-200.000	0.020	-0.205
-634.580	90.117	-0.099	0.113
-633.565	218.049	-0.067	-0.110
-632.551	535.771	0.163	-0.395
-631.536	800.000	-0.052	0.167
-630.522	-200.000	0.010	-0.150
-629.507	96.108	0.189	-0.220
-628.492	-200.000	-0.031	0.523
-627.478	-26.495	-0.219	0.131
-626.463	678.067	-0.079	0.210
-625.449	-118.653	0.318	0.057
-624.434	-4.586	-0.188	0.132
-623.419	290.068	-0.144	-0.267
-622.405	187.119	-0.242	0.368
-621.390	-91.815	0.296	0.086
-620.376	-59.600	-0.067	-0.029
-619.361	7.856	-0.329	0.251
-618.346	-145.547	-0.178	-0.016
-617.332	-200.000	0.023	0.212
-616.317	-124.214	0.462	-0.074
-615.303	-200.000	-0.026	0.124
-614.288	51.107	0.123	-0.119
-613.273	-122.926	-0.285	-0.047
-612.259	-200.000	0.001	0.199
-611.244	-148.065	0.093	0.008
-610.230	-129.382	0.167	0.024
-609.215	800.000	0.067	0.264
-608.201	631.579	-0.062	0.161
-607.186	800.000	-0.027	-0.077
-606.171	-81.502	-0.215	-0.072
-605.157	800.000	0.106	0.361
-604.142	364.483	-0.056	-0.115
-603.128	-200.000	-0.004	0.186
-602.113	-98.401	0.215	0.056
-601.098	-0.582	0.097	0.070
-600.084	62.989	0.223	-0.227
-599.069	-117.062	0.302	0.056
-598.055	800.000	0.062	0.217
-597.040	-200.000	0.017	-0.125
-596.025	9.296	-0.114	0.088
-595.011	377.472	0.126	0.262
-593.996	-200.000	0.015	0.091
-592.982	35.926	0.084	0.075
-591.967	595.396	0.126	-0.316
-590.952	-72.333	0.063	-0.024
-589.938	258.959	-0.063	-0.110
-588.923	-141.764	-0.204	0.021
-587.909	4.979	-0.254	0.190
-586.894	-200.000	0.064	0.415
-585.879	-134.848	0.097	0.012
-584.865	616.667	0.150	-0.383
-583.850	-11.019	-0.187	-0.126
-582.836	-7.647	-0.088	-0.060
-581.821	-38.298	0.116	-0.062
-580.806	800.000	0.096	-0.299
-579.792	120.008	-0.200	-0.252
-578.777	-143.725	-0.083	0.008
-577.763	800.000	-0.060	-0.260
-576.748	-108.155	0.163	-0.036
-575.733	-124.852	0.350	0.055
-574.719	363.987	0.094	-0.191
-573.704	-53.150	0.084	-0.039
-572.690	800.000	0.061	0.239
-571.675	-79.351	-0.346	0.119
-570.661	-56.624	0.142	0.064
-569.646	-19.223	0.169	0.106
-568.631	215.688	-0.231	0.373
-567.617	-200.000	0.016	0.172
-566.602	3.211	0.127	0.094
-565.588	-27.360	0.230	0.136
-564.573	-168.694	0.053	0.002
-563.558	146.799	0.147	0.200
-562.544	-16.439	-0.129	0.083
-561.529	-1.425	0.163	0.117
-560.515	40.623	-0.018	0.017
-559.500	-200.000	0.002	-0.096
-558.485	-200.000	0.029	-0.278
-557.471	21.814	-0.053	0.043
-556.456	318.658	0.155	0.298
-555.442	125.242	0.148	0.190
-554.427	-135.381	0.131	-0.016
-553.412	-89.713	-0.213	0.063
-552.398	-200.000	0.006	0.121
-551.383	-127.644	-0.162	-0.024
-550.369	77.454	0.179	0.193
-549.354	-153.054	0.164	0.012
-548.339	-62.584	-0.192	-0.081
-547.325	-200.000	0.009	-0.117
-546.310	-36.595	0.094	-0.051
-545.296	63.704	0.333	0.339
-544.281	-75.335	-0.235	-0.085
-543.266	280.062	0.046	-0.083
-542.252	-60.472	-0.070	-0.030
-541.237	800.000	0.030	-0.126
-540.223	122.264	-0.249	0.315
-539.208	-129.005	0.183	-0.026
-538.193	800.000	-0.122	0.375
-537.179	0.171	0.110	0.080
-536.164	800.000	0.030	-0.089
-535.150	-76.231	-0.192	-0.069
-534.135	-112.996	0.238	0.048
-533.121	-200.000	0.001	-0.306
-532.106	187.721	-0.094	-0.143
-531.091	-35.797	-0.087	-0.048
-530.077	263.906	-0.158	-0.278
-529.062	-118.171	0.146	0.026
-528.048	239.096	0.132	0.223
-527.033	-80.518	0.175	0.059
-526.018	42.006	0.240	-0.221
-525.004	140.427	0.052	-0.070
-523.989	81.319	-0.057	-0.062
-522.975	-200.000	-0.009	-0.201
-521.960	79.988	-0.292	-0.319
-520.945	-4.123	-0.026	0.019
-519.931	-151.599	-0.272	0.020
-518.916	-200.000	-0.035	0.314
-517.902	800.000	0.106	0.315
-516.887	-150.809	0.156	-0.012
-515.872	28.527	-0.171	-0.147
-514.858	728.846	0.039	-0.105
-513.843	87.171	0.128	0.143
-512.829	-7.695	0.242	-0.166
-511.814	89.409	-0.089	0.101
-510.799	54.475	-0.151	0.147
-509.785	202.812	-0.129	-0.203
-508.770	153.782	-0.196	-0.273
-507.756	-110.489	-0.332	-0.070
-506.741	-61.933	0.324	0.137
-505.726	-200.000	0.020	-0.266
-504.712	234.890	-0.178	0.299
-503.697	472.576	0.101	-0.232
-502.683	-30.849	0.169	0.097
-501.668	-132.772	0.028	-0.004
-500.653	140.826	-0.101	-0.135
-499.639	-200.000	-0.020	-0.164
-498.624	235.417	-0.056	0.094
-497.610	158.281	-0.101	-0.143
-496.595	-124.694	0.183	-0.029
-495.581	201.840	-0.211	-0.330
-494.566	-64.021	0.329	0.136
-493.551	95.441	-0.245	0.283
-492.537	37.712	-0.120	0.108
-491.522	-200.000	0.033	-0.183
-490.508	21.696	0.375	-0.310
-489.493	-200.000	-0.012	-0.249
-488.478	777.058	-0.060	-0.166
-487.464	-81.038	-0.103	-0.034
-486.449	-96.949	-0.207	-0.055
-485.435	-200.000	-0.028	-0.363
-484.420	413.074	0.137	-0.295
-483.405	-45.167	0.193	-0.097
-482.391	-173.217	-0.284	0.009
-481.376	242.532	0.061	-0.103
-480.362	-18.153	-0.148	-0.094
-479.347	-127.718	0.202	-0.030
-478.332	265.593	0.079	0.140
-477.318	-200.000	0.029	0.256
-476.303	232.142	-0.078	-0.130
-475.289	-119.130	0.246	-0.044
-474.274	-200.000	0.028	0.240
-473.259	-66.574	-0.327	-0.131
-472.245	-136.578	0.038	0.004
-471.230	-171.866	0.046	-0.002
-470.216	172.881	-0.256	0.373
-469.201	800.000	-0.064	0.202
-468.186	388.638	0.071	0.150
-467.172	-200.000	0.014	0.184
-466.157	-87.850	-0.205	-0.062
-465.143	-126.956	0.278	0.041
-464.128	-54.884	0.251	-0.115
-463.113	-108.707	-0.198	-0.043
-462.099	11.504	-0.137	-0.106
-461.084	-159.999	-0.261	-0.014
-460.070	-4.500	-0.193	0.135
-459.055	-165.422	0.201	-0.009
-458.040	177.287	0.006	-0.009
-457.026	800.000	-0.065	0.287
-456.011	42.913	-0.175	0.161
-454.997	-13.309	-0.163	0.107
-453.982	800.000	0.030	0.099
-452.968	323.143	0.062	-0.120
-451.953	184.595	0.078	-0.117
-450.938	451.097	0.162	-0.362
-449.924	224.751	-0.075	-0.123
-448.909	204.876	0.022	0.035
-447.895	-83.357	-0.081	0.026
-446.880	-2.072	0.248	0.176
-445.865	-200.000	0.064	0.364
-444.851	800.000	0.116	-0.338
-443.836	136.264	-0.171	-0.225
-442.822	-200.000	0.037	0.182
-441.807	28.958	0.144	-0.123
-440.792	266.476	-0.085	-0.151
-439.778	-125.403	0.345	0.053
-438.763	-200.000	-0.053	0.286
-437.749	135.184	0.145	-0.190
-436.734	210.975	0.198	-0.315
-435.719	-68.349	0.208	0.082
-434.705	261.587	-0.074	0.129
-433.690	472.604	0.052	-0.118
-432.676	-136.693	-0.365	-0.043
-431.661	-200.000	0.021	-0.121
-430.646	148.001	-0.262	-0.357
-429.632	-90.910	0.118	-0.034
-428.617	-200.000	-0.009	-0.205
-427.603	50.697	0.118	-0.113
-426.588	71.442	-0.196	0.206
-425.573	-200.000	-0.047	0.215
-424.559	125.348	-0.077	-0.098
-423.544	-133.266	-0.178	0.023
-422.530	405.395	-0.210	-0.448
-421.515	800.000	0.080	-0.329
-420.500	32.295	-0.277	0.242
-419.486	800.000	0.082	0.242
-418.471	800.000	0.063	0.178
-417.457	-83.091	-0.061	-0.020
-416.442	-21.741	-0.025	-0.015
-415.428	21.197	-0.207	0.170
-414.413	30.427	0.406	-0.351
-413.398	726.592	-0.028	0.076
-412.384	-169.679	0.163	-0.006
-411.369	0.994	0.096	0.069
-410.355	-200.000	-0.018	0.263
-409.340	66.775	-0.128	-0.132
-408.325	115.961	-0.212	-0.263
-407.311	-33.294	0.285	-0.159
-406.296	-100.665	0.243	0.060
-405.282	-16.206	0.059	0.038
-404.267	-200.000	0.017	-0.186
-403.252	332.473	-0.042	0.082
-402.238	800.000	0.066	-0.208
-401.223	-21.529	0.224	-0.138
-400.209	800.000	0.105	-0.301
-399.194	-20.297	0.113	-0.070
-398.179	127.672	-0.141	0.181
-397.165	-191.833	-0.206	-0.002
-396.150	-13.341	0.080	0.052
-395.136	-8.602	-0.195	-0.132
-394.121	-52.437	-0.257	-0.120
-393.106	78.388	-0.044	0.047
-392.092	3.013	0.183	0.134
-391.077	429.695	0.061	0.133
-390.063	-200.000	-0.005	0.187
-389.048	-27.650	-0.124	0.073
-388.033	-31.747	-0.241	-0.136
-387.019	-26.527	-0.232	-0.137
-386.004	-147.208	-0.071	-0.006
-384.990	32.676	0.166	-0.145
-383.975	292.320	0.046	-0.084
-382.960	-9.919	0.130	-0.087
-381.946	-100.984	-0.199	-0.049
-380.931	-66.496	0.271	0.108
-379.917	-200.000	-0.037	-0.251
-378.902	800.000	0.096	-0.355
-377.888	166.047	0.157	0.224
-376.873	-200.000	0.021	0.372
-375.858	129.407	-0.068	-0.087
-374.844	115.542	-0.123	0.151
-373.829	64.570	-0.040	0.041
-372.815	-110.958	0.168	-0.035
-371.800	-151.057	0.134	0.010
-370.785	110.110	-0.202	-0.245
-369.771	231.604	0.093	0.154
-368.756	136.062	-0.229	-0.301
-367.742	161.045	0.236	0.333
-366.727	-47.548	-0.256	-0.126
-365.712	-95.156	0.045	-0.012
-364.698	-149.257	-0.538	0.043
-363.683	451.445	0.139	0.310
-362.669	114.228	0.080	0.098
-361.654	95.454	0.088	0.101
-360.639	-64.585	0.116	0.048
-359.625	244.240	-0.127	-0.215
-358.610	800.000	0.064	0.236
-357.596	-79.621	-0.341	0.116
-356.581	-200.000	0.013	0.212
-355.566	-110.475	-0.346	0.072
-354.552	372.614	0.176	-0.361
-353.537	-91.518	-0.153	0.044
-352.523	-140.507	0.257	-0.027
-351.508	-200.000	-0.018	-0.289
-350.493	800.000	0.084	-0.359
-349.479	234.268	0.169	-0.281
-348.464	498.328	0.083	-0.192
-347.450	-200.000	0.022	0.125
-346.435	-76.153	-0.106	-0.038
-345.420	-150.004	0.264	0.021
-344.406	-200.000	-0.023	0.120
-343.391	204.966	0.059	0.092
-342.377	800.000	0.079	0.228
-341.362	-95.536	-0.196	-0.053
-340.348	-42.553	-0.202	0.104
-339.333	-16.394	0.126	-0.081
-338.318	-57.327	-0.050	0.022
-337.304	-17.309	-0.218	-0.138
-336.289	481.519	-0.030	0.070
-335.275	-58.680	0.338	-0.148
-334.260	-108.386	-0.127	-0.028
-333.245	-77.600	0.233	-0.081
-332.231	156.179	-0.171	-0.238
-331.216	449.378	0.061	0.136
-330.202	185.134	-0.237	-0.355
-329.187	-11.475	0.158	-0.104
-328.172	15.904	-0.152	0.120
-327.158	-103.131	-0.163	-0.039
-326.143	57.221	0.172	-0.169
-325.129	-61.724	-0.357	-0.151
-324.114	-96.441	0.179	-0.048
-323.099	3.215	0.324	-0.238
-322.085	31.727	-0.160	-0.139
-321.070	-200.000	-0.043	0.318
-320.056	800.000	-0.067	0.214
-319.041	-45.650	-0.067	-0.033
-318.026	653.905	0.073	0.190
-317.012	-163.742	0.228	0.011
-315.997	-200.000	0.008	0.286
-314.983	-97.543	-0.200	-0.052
-313.968	-47.815	0.171	0.083
-312.953	789.027	-0.119	0.330
-311.939	-44.075	-0.301	0.152
-310.924	169.155	0.120	-0.172
-309.910	367.827	0.060	0.122
-308.895	230.550	-0.208	0.342
-307.880	216.810	0.068	-0.110
-306.866	403.662	0.088	0.186
-305.851	413.864	-0.140	0.301
-304.837	-121.737	-0.235	-0.039
-303.822	-104.005	0.115	-0.027
-302.807	-7.583	-0.048	-0.033
-301.793	-162.619	-0.447	0.022
-300.778	-41.954	0.296	-0.152
-299.764	-200.000	-0.059	-0.325
-298.749	252.763	0.144	0.246
-297.735	20.008	-0.108	0.087
-296.720	-4.272	-0.223	0.155
-295.705	61.965	0.135	0.135
-294.691	-35.806	0.228	0.124
-293.676	-200.000	-0.047	-0.334
-292.662	49.125	-0.089	-0.084
-291.647	31.370	0.212	0.183
-290.632	-6.324	-0.203	-0.139
-289.618	-31.166	-0.261	-0.148
-288.603	38.966	0.055	-0.050
-287.589	204.986	0.158	-0.247
-286.574	-125.363	-0.272	-0.042
-285.559	188.900	-0.154	0.231
-284.545	-7.145	0.152	0.104
-283.530	35.733	-0.083	0.073
-282.516	-200.000	-0.026	-0.152
-281.501	-84.316	-0.108	-0.034
-280.486	800.000	0.051	-0.151
-279.472	663.406	0.084	-0.219
-278.457	-132.121	-0.227	0.030
-277.443	800.000	-0.054	0.215
-276.428	553.654	-0.089	-0.216
-275.413	-147.028	-0.375	-0.032
-274.399	336.326	0.163	0.319
-273.384	-72.176	-0.288	-0.107
-272.370	414.453	-0.141	0.303
-271.355	-200.000	0.003	-0.429
-270.340	-200.000	-0.031	-0.235
-269.326	17.354	0.233	-0.186
-268.311	20.971	-0.097	0.079
-267.297	-26.249	-0.233	0.138
-266.282	-98.036	0.189	0.049
-265.267	-12.100	-0.195	0.128
-264.253	16.942	0.263	-0.210
-263.238	-182.772	0.178	-0.003
-262.224	383.287	-0.060	-0.123
-261.209	-200.000	-0.013	0.093
-260.195	478.134	0.042	-0.095
-259.180	-30.391	0.539	0.307
-258.165	-200.000	-0.059	-0.315
-257.151	-200.000	0.027	-0.197
-256.136	460.259	0.145	-0.324
-255.122	-200.000	-0.029	-0.297
-254.107	-200.000	0.005	-0.193
-253.092	-200.000	0.012	0.284
-252.078	56.828	0.150	0.146
-251.063	48.868	0.192	0.181
-250.049	53.176	-0.050	-0.048
-249.034	-117.842	-0.310	0.056
-248.019	-95.902	0.194	0.052
-247.005	-98.432	0.101	-0.026
-245.990	70.611	0.245	0.255
-244.976	-200.000	0.012	-0.101
-243.961	53.167	-0.192	-0.184
-242.946	634.570	-0.104	-0.264
-241.932	41.102	0.020	-0.018
-240.917	-26.978	-0.010	-0.006
-239.903	-39.205	-0.142	0.075
-238.888	-85.870	0.293	0.091
-237.873	389.131	-0.102	0.213
-236.859	800.000	0.005	0.021
-235.844	34.363	0.098	0.086
-234.830	-44.762	0.378	0.189
-233.815	93.741	-0.137	0.156
-232.800	644.396	-0.056	0.144
-231.786	128.279	0.229	0.293
-230.771	-3.584	0.208	-0.145
-229.757	-200.000	-0.026	0.174
-228.742	472.705	-0.126	0.286
-227.727	-200.000	0.007	-0.139
-226.713	662.761	-0.075	-0.194
-225.698	-200.000	0.002	-0.131
-224.684	84.152	-0.054	0.059
-223.669	-23.324	0.313	-0.189
-222.655	-75.493	0.055	-0.020
-221.640	148.068	0.012	0.016
-220.625	195.030	-0.085	0.129
-219.611	-121.804	-0.223	-0.037
-218.596	645.807	0.060	0.153
-217.582	-76.407	0.291	0.103
-216.567	800.000	-0.087	-0.254
-215.552	-22.950	-0.144	-0.087
-214.538	800.000	0.024	0.103
-213.523	-200.000	0.018	0.138
-212.509	-99.509	0.138	0.035
-211.494	800.000	0.089	0.284
-210.479	40.487	0.054	0.049
-209.465	-200.000	-0.048	-0.352
-208.450	-110.825	-0.149	0.031
-207.436	800.000	-0.035	0.104
-206.421	33.133	-0.155	-0.134
-205.406	715.648	0.094	-0.249
-204.392	-200.000	-0.037	0.204
-203.377	-108.158	0.246	0.053
-202.363	-132.435	0.081	0.010
-201.348	19.909	0.083	0.067
-200.333	729.862	-0.101	-0.269
-199.319	-114.398	-0.104	0.020
-198.304	800.000	-0.065	0.257
-197.290	-140.544	0.258	0.027
-196.275	-200.000	0.004	-0.169
-195.260	-128.759	0.308	0.044
-194.246	-200.000	0.017	-0.338
-193.231	20.040	0.179	-0.145
-192.217	293.322	0.207	0.378
-191.202	800.000	0.102	0.362
-190.187	224.208	0.207	0.335
-189.173	-37.153	-0.200	0.107
-188.158	-6.739	-0.145	0.099
-187.144	-0.730	-0.151	-0.107
-186.129	193.945	0.153	-0.231
-185.114	-62.466	0.113	0.047
-184.100	-71.630	-0.181	-0.068
-183.085	49.855	-0.414	0.391
-182.071	564.707	0.114	-0.276
-181.056	-135.043	-0.412	0.050
-180.042	173.996	0.022	-0.032
-179.027	663.684	-0.064	0.165
-178.012	-200.000	0.004	0.100
-176.998	19.971	0.093	-0.075
-175.983	-100.802	-0.254	-0.063
-174.969	-66.484	0.119	0.047
-173.954	-82.580	-0.205	0.067
-172.939	-37.068	-0.351	-0.188
-171.925	-200.000	0.054	-0.414
-170.910	41.935	0.291	-0.265
-169.896	600.983	0.139	0.345
-168.881	64.934	0.046	-0.047
-167.866	-135.968	-0.283	-0.033
-166.852	-130.077	0.304	-0.042
-165.837	51.132	-0.203	-0.193
-164.823	-200.000	-0.028	0.195
-163.808	-200.000	-0.043	-0.218
-162.793	264.885	0.125	0.218
-161.779	339.917	0.130	0.255
-160.764	656.159	0.124	-0.319
-159.750	-114.629	0.244	-0.047
-158.735	15.978	0.197	0.155
-157.720	800.000	0.069	0.235
-156.706	-127.847	-0.411	-0.059
-155.691	-4.333	-0.106	0.073
-154.677	-90.543	0.261	0.076
-153.662	-200.000	-0.042	-0.304
-152.647	4.160	-0.097	0.071
-151.633	-43.048	-0.209	-0.106
-150.618	430.953	-0.059	-0.128
-149.604	-200.000	0.036	0.277
-148.589	-145.028	-0.554	-0.050
-147.574	72.569	0.173	0.181
-146.560	-18.145	0.209	-0.131
-145.545	400.578	0.040	0.084
-144.531	-33.788	0.338	0.186
-143.516	27.989	-0.207	0.175
-142.502	40.201	0.223	-0.201
-141.487	234.522	0.149	0.245
-140.472	30.357	-0.171	-0.146
-139.458	800.000	-0.098	-0.304
-138.443	-95.983	0.230	0.061
-137.429	800.000	-0.103	0.324
-136.414	800.000	0.055	0.158
-135.399	800.000	0.116	0.450
-134.385	244.115	0.047	0.079
-133.370	-101.019	0.237	0.058
-132.356	-24.987	-0.217	0.129
-131.341	-200.000	0.044	0.294
-130.326	228.745	0.035	-0.058
-129.312	-200.000	0.015	0.179
-128.297	241.278	0.064	0.107
-127.283	211.710	0.108	-0.170
-126.268	-59.653	-0.195	-0.083
-125.253	-44.988	0.219	0.109
-124.239	800.000	-0.069	-0.297
-123.224	-95.866	-0.188	-0.050
-122.210	602.679	0.169	0.421
-121.195	42.454	-0.058	0.053
-120.180	107.942	0.095	0.113
-119.166	-200.000	0.021	-0.135
-118.151	-1.431	-0.249	0.175
-117.137	353.745	0.125	-0.248
-116.122	-200.000	0.007	-0.039
-115.107	580.638	-0.058	0.143
-114.093	-124.673	-0.266	-0.041
-113.078	-88.525	0.165	-0.049
-112.064	-129.399	-0.200	0.028
-111.049	-73.849	-0.269	0.097
-110.034	154.530	-0.114	0.156
-109.020	474.422	-0.131	-0.295
-108.005	-200.000	-0.059	-0.297
-106.991	800.000	-0.014	-0.041
-105.976	-5.832	-0.379	0.259
-104.962	-174.383	-0.277	-0.008
-103.947	343.583	-0.152	0.298
-102.932	-200.000	-0.010	-0.350
-101.918	-105.000	-0.392	-0.090
-100.903	-70.979	0.242	0.091
-99.889	-119.721	-0.366	0.063
-98.874	-101.011	-0.203	-0.050
-97.859	654.127	0.046	-0.118
-96.845	-170.609	-0.235	-0.008
-95.830	53.972	-0.073	-0.070
-94.816	-172.271	0.180	-0.006
-93.801	-119.098	0.067	-0.012
-92.786	-133.929	0.030	0.004
-91.772	-2.169	-0.098	0.068
-90.757	-29.657	0.222	0.126
-89.743	-17.591	0.073	0.046
-88.728	800.000	0.078	0.315
-87.713	800.000	-0.023	-0.087
-86.699	78.585	0.027	-0.028
-85.684	-58.798	0.309	0.133
-84.670	-42.024	0.266	0.136
-83.655	-200.000	0.017	-0.185
-82.640	174.996	-0.148	0.214
-81.626	-24.392	-0.224	0.133
-80.611	128.393	0.251	0.319
-79.597	-11.338	0.167	0.110
-78.582	-150.151	0.225	0.017
-77.567	136.369	0.058	-0.075
-76.553	-200.000	0.007	0.292
-75.538	-100.421	-0.455	0.113
-74.524	83.502	0.112	-0.122
-73.509	-25.292	0.361	0.213
-72.494	-74.253	-0.172	0.062
-71.480	715.871	0.067	0.177
-70.465	50.669	0.201	-0.189
-69.451	-5.054	-0.190	-0.130
-68.436	136.882	-0.034	-0.044
-67.422	-178.199	-0.033	-0.001
-66.407	-66.481	0.259	-0.102
-65.392	-135.227	0.190	-0.023
-64.378	25.641	0.250	-0.208
-63.363	272.777	-0.038	0.067
-62.349	666.436	-0.049	-0.126
-61.334	11.405	-0.868	-0.663
-60.319	-200.000	-0.054	0.255
-59.305	800.000	-0.283	-0.883
-58.290	362.865	0.260	0.520
-57.276	353.103	0.812	1.605
-56.261	-200.000	75.022	541.492
-55.246	578.528	1299.871	3169.514
-54.232	147.129	2524.028	3384.064
-53.217	122.529	2224.525	2771.308
-52.203	55.858	1664.564	1608.278
-51.188	47.117	1382.549	1281.881
-50.173	43.202	1334.847	1214.097
-49.159	61.303	1368.548	1354.979
-48.144	69.340	1386.721	1421.565
-47.130	47.218	1350.128	1252.232
-46.115	42.998	1333.452	1211.410
-45.100	42.825	1328.624	1205.937
-44.086	42.807	1325.668	1203.102
-43.071	42.665	1323.464	1200.205
-42.057	42.652	1321.540	1198.336
-41.042	42.747	1319.986	1197.443
-40.027	42.800	1318.408	1196.277
-39.013	42.843	1316.076	1194.374
-37.998	42.790	1314.295	1192.394
-36.984	42.796	1312.777	1191.002
-35.969	42.819	1310.993	1189.475
-34.954	42.939	1309.127	1188.444
-33.940	42.963	1307.921	1187.445
-32.925	42.981	1306.631	1186.329
-31.911	42.887	1304.984	1184.237
-30.896	43.024	1303.534	1183.681
-29.881	42.999	1302.137	1182.217
-28.867	42.950	1300.843	1180.707
-27.852	43.010	1299.180	1179.500
-26.838	43.011	1297.560	1177.989
-25.823	42.958	1296.374	1176.559
-24.809	43.015	1295.057	1175.648
-23.794	43.001	1293.554	1174.156
-22.779	43.055	1291.850	1172.875
-21.765	43.058	1290.375	1171.506
-20.750	42.894	1289.476	1169.691
-19.736	42.783	1288.293	1167.930
-18.721	42.788	1286.824	1166.580
-17.706	42.828	1285.406	1165.480
-16.692	42.862	1284.190	1164.525
-15.677	42.789	1283.074	1163.045
-14.663	42.787	1281.821	1161.855
-13.648	42.801	1280.906	1161.060
-12.633	42.830	1279.863	1160.234
-11.619	42.783	1279.171	1159.291
-10.604	42.793	1278.430	1158.630
-9.590	42.733	1277.640	1157.525
-8.575	42.783	1276.216	1156.473
-7.560	42.805	1275.314	1155.737
-6.546	42.853	1274.031	1154.804
-5.531	42.791	1273.363	1153.798
-4.517	42.790	1272.865	1153.297
-3.502	42.826	1271.956	1152.633
-2.487	42.881	1270.712	1151.771
-1.473	42.925	1267.145	1148.743
-0.458	41.816	1252.195	1128.890
0.556	37.314	1232.632	1088.915
1.571	33.394	1236.180	1069.860
2.586	32.316	1251.544	1076.891
3.600	30.781	1240.936	1058.948
4.615	22.106	1162.458	945.433
5.629	7.840	1077.498	804.590
6.644	1.480	1051.660	753.759
7.659	0.883	1048.925	748.778
8.673	0.736	1047.396	746.894
9.688	0.824	1045.645	746.014
10.702	1.316	1045.099	747.984
11.717	9.334	1057.383	796.552
12.731	20.746	1073.060	865.349
13.746	24.015	1076.572	884.378
14.761	23.373	1075.608	880.321
15.775	23.308	1074.348	878.888
16.790	23.013	1073.839	876.930
17.804	22.981	1073.266	876.228
18.819	23.246	1072.534	876.864
19.834	23.179	1072.302	876.267
20.848	23.157	1071.649	875.545
21.863	23.115	1071.668	875.276
22.877	23.190	1070.653	874.738
23.892	23.043	1069.767	873.215
24.907	23.040	1069.387	872.809
25.921	23.183	1067.732	872.089
26.936	23.109	1066.696	870.801
27.950	23.099	1065.372	869.594
28.965	22.893	1063.067	866.624
29.980	22.963	1061.862	865.910
30.994	23.184	1060.847	866.087
32.009	23.242	1059.776	865.417
33.023	22.997	1058.480	863.084
34.038	23.024	1057.523	862.363
35.053	23.158	1057.185	862.662
36.067	23.124	1056.359	861.749
37.082	23.233	1055.435	861.449
38.096	23.486	1054.641	861.952
39.111	23.479	1054.125	861.422
40.126	23.210	1052.991	859.113
41.140	22.929	1051.371	856.351
42.155	22.665	1049.756	853.686
43.169	22.766	1049.104	853.565
44.184	22.983	1047.487	853.223
45.199	22.743	1046.911	851.521
46.213	22.825	1046.224	851.280
47.228	23.103	1044.880	851.454
48.242	22.944	1044.382	850.206
49.257	22.996	1043.613	849.756
50.271	23.156	1042.808	849.790
51.286	23.355	1041.862	849.901
52.301	23.322	1041.040	848.996
53.315	23.260	1040.302	848.022
54.330	23.287	1039.201	847.181
55.344	23.180	1038.451	845.984
56.359	22.979	1037.527	844.194
57.374	22.815	1036.708	842.669
58.388	22.941	1035.809	842.464
59.403	22.875	1034.905	841.341
60.417	22.774	1033.890	839.959
61.432	22.837	1033.252	839.668
62.447	22.956	1032.785	839.781
63.461	23.035	1031.856	839.324
64.476	22.926	1030.814	837.889
65.490	22.926	1029.526	836.765
66.505	23.051	1028.756	836.655
67.520	22.811	1028.918	835.581
68.534	22.747	1027.627	834.153
69.549	22.454	1026.136	831.488
70.563	22.511	1025.399	831.083
71.578	22.527	1024.725	830.542
72.593	22.316	1023.823	828.743
73.607	22.463	1023.215	828.869
74.622	22.705	1023.260	829.970
75.636	22.716	1022.331	829.196
76.651	22.785	1020.943	828.318
77.666	22.601	1020.720	827.201
78.680	22.669	1020.197	827.025
79.695	22.724	1019.395	826.557
80.709	22.892	1018.703	826.710
81.724	22.674	1017.951	825.007
82.739	22.859	1017.065	825.083
83.753	23.132	1016.408	825.750
84.768	23.455	1015.731	826.633
85.782	23.528	1014.799	826.142
86.797	23.498	1013.515	824.883
87.812	23.264	1013.156	823.430
88.826	23.366	1011.878	822.790
89.841	23.430	1010.886	822.210
90.855	23.517	1009.899	821.736
91.870	23.421	1009.005	820.494
92.884	23.288	1008.067	819.041
93.899	23.252	1007.054	817.980
94.914	23.493	1005.848	818.043
95.928	23.289	1005.028	816.361
96.943	23.108	1003.843	814.492
97.957	22.807	1002.598	812.027
98.972	22.769	1001.607	810.978
99.987	22.891	1001.325	811.240
101.001	23.077	1000.476	811.331
102.016	23.145	999.359	810.668
103.030	23.070	998.460	809.523
104.045	22.937	997.370	807.958
105.060	22.770	996.718	806.594
106.074	22.921	996.046	806.668
107.089	23.228	995.422	807.491
108.103	23.158	994.229	806.133
109.118	22.988	992.721	804.066
110.133	22.962	991.650	803.012
111.147	22.791	990.385	801.140
112.162	22.659	989.748	799.956
113.176	22.773	989.314	800.052
114.191	22.667	988.648	798.961
115.206	22.484	987.321	796.989
116.220	22.456	986.267	795.943
117.235	22.693	985.613	796.412
118.249	22.786	984.345	795.739
119.264	22.553	983.755	794.143
120.279	22.481	983.175	793.276
121.293	22.693	982.313	793.465
122.308	22.633	981.781	792.695
123.322	22.557	980.603	791.334
124.337	22.465	979.133	789.666
125.352	21.960	977.357	785.902
126.366	21.859	976.475	784.672
127.381	22.653	976.700	788.333
128.395	23.196	976.087	790.195
129.410	23.156	975.390	789.384
130.424	23.266	973.922	788.612
131.439	23.346	973.000	788.154
132.454	23.084	972.705	786.678
133.468	23.104	971.780	785.952
134.483	23.189	970.930	785.572
135.497	23.493	969.894	786.013
136.512	23.506	969.292	785.513
137.527	23.517	968.129	784.549
138.541	23.493	967.661	783.995
139.556	23.519	967.160	783.632
140.570	23.539	965.921	782.650
141.585	23.533	965.318	782.065
142.600	23.587	963.674	780.901
143.614	23.636	963.603	780.990
144.629	23.791	962.872	781.008
145.643	23.710	961.344	779.345
146.658	23.518	960.108	777.435
147.673	23.386	958.849	775.767
148.687	23.231	958.237	774.523
149.702	23.286	957.309	773.947
150.716	23.094	956.620	772.481
151.731	23.417	955.357	772.805
152.746	23.486	955.296	772.986
153.760	23.548	954.607	772.630
154.775	23.614	953.931	772.304
155.789	23.570	952.968	771.261
156.804	23.568	951.615	770.091
157.819	23.630	950.930	769.736
158.833	23.693	950.245	769.388
159.848	23.740	949.057	768.560
160.862	23.648	947.884	767.147
161.877	23.413	947.368	765.645
162.892	23.694	946.071	765.743
163.906	23.595	944.519	763.991
164.921	23.504	944.346	763.392
165.935	23.518	943.238	762.490
166.950	23.572	942.393	761.969
167.964	23.449	941.674	760.795
168.979	23.598	940.191	760.165
169.994	23.373	939.429	758.522
171.008	23.437	939.468	758.759
172.023	23.623	938.028	758.325
173.037	23.396	936.847	756.331
174.052	23.379	935.779	755.332
175.067	23.357	935.305	754.787
176.081	23.407	934.928	754.629
177.096	23.230	934.652	753.589
178.110	23.025	933.656	751.846
179.125	22.765	932.561	749.794
180.140	23.125	931.874	750.701
181.154	23.013	932.173	750.401
182.169	23.445	931.449	751.582
183.183	23.566	931.338	751.942
184.198	23.448	930.151	750.417
185.213	23.359	929.850	749.732
186.227	23.387	929.287	749.329
187.242	23.573	928.570	749.471
188.256	23.614	927.490	748.705
189.271	23.702	927.148	748.734
190.286	23.288	926.083	746.062
191.300	22.738	924.949	742.769
192.315	21.897	923.399	737.923
193.329	21.881	922.737	737.260
194.344	22.775	923.045	741.199
195.359	23.381	923.010	743.650
196.373	23.569	922.661	744.089
197.388	23.244	921.989	742.119
198.402	23.498	920.678	742.065
199.417	23.480	920.174	741.514
200.432	23.272	919.246	739.832
201.446	22.885	919.180	738.098
202.461	23.076	918.298	738.122
203.475	22.291	916.288	733.169
204.490	21.607	915.076	729.286
205.504	22.431	914.938	732.544
206.519	23.084	915.169	735.378
207.534	23.150	914.669	735.187
208.548	23.519	914.898	736.840
209.563	23.335	913.522	734.901
210.577	23.205	913.251	734.081
211.592	23.732	912.657	735.721
212.607	23.601	912.003	734.585
213.621	23.667	911.139	734.100
214.636	23.586	910.167	732.915
215.650	23.683	909.707	732.882
216.665	23.651	909.135	732.221
217.680	23.579	908.493	731.346
218.694	23.233	907.176	728.796
219.709	23.046	906.480	727.404
220.723	23.264	906.425	728.189
221.738	23.395	905.905	728.248
222.753	23.331	904.907	727.120
223.767	23.451	904.511	727.227
224.782	23.701	904.370	728.075
225.796	23.615	903.773	727.178
226.811	23.057	902.044	723.440
227.826	22.501	900.622	719.964
228.840	22.710	900.427	720.596
229.855	22.715	899.534	719.841
230.869	22.263	898.467	717.080
231.884	22.699	898.574	718.880
232.899	23.380	898.139	721.239
233.913	23.384	898.023	721.099
234.928	23.242	897.752	720.239
235.942	23.283	896.946	719.696
236.957	23.033	896.128	717.963
237.972	23.045	895.538	717.473
238.986	22.991	895.174	716.902
240.001	23.167	894.332	716.873
241.015	23.299	893.660	716.806
242.030	23.466	892.952	716.851
243.045	23.535	892.877	717.008
244.059	23.642	892.410	717.002
245.074	23.319	891.734	715.089
246.088	23.139	890.567	713.365
247.103	23.323	889.987	713.577
248.117	23.675	890.630	715.448
249.132	24.108	890.137	716.732
250.147	24.221	889.257	716.415
251.161	24.403	888.392	716.386
252.176	24.304	887.934	715.559
253.190	24.432	887.214	715.426
254.205	24.405	887.037	715.111
255.220	24.554	886.272	715.029
256.234	24.322	885.479	713.400
257.249	24.173	884.586	712.020
258.263	24.222	884.191	711.833
259.278	24.269	883.767	711.619
260.293	24.366	883.078	711.386
261.307	24.268	882.247	710.263
262.322	24.206	881.153	709.075
263.336	23.497	878.899	704.381
264.351	22.235	877.531	698.217
265.366	22.408	877.178	698.559
266.380	23.540	877.586	703.314
267.395	23.972	877.876	705.196
268.409	23.814	876.891	703.717
269.424	23.977	876.580	704.050
270.439	24.049	875.668	703.540
271.453	24.165	875.309	703.649
272.468	24.245	875.111	703.742
273.482	24.357	874.621	703.726
274.497	23.949	873.456	701.122
275.512	23.650	872.320	698.968
276.526	24.014	872.205	700.248
277.541	24.216	872.030	700.841
278.555	23.894	871.343	698.960
279.570	23.848	870.297	697.878
280.585	23.990	869.779	697.959
281.599	23.972	868.921	697.138
282.614	23.386	867.271	693.460
283.628	23.384	866.838	693.047
284.643	23.801	867.021	694.761
285.657	23.391	865.668	692.015
286.672	23.219	864.914	690.680
287.687	23.737	864.765	692.520
288.701	23.731	864.290	692.053
289.716	23.273	863.653	689.700
290.730	23.422	862.768	689.512
291.745	23.199	861.601	687.650
292.760	23.388	861.659	688.369
293.774	24.367	862.126	692.487
294.789	24.605	861.948	693.204
295.803	24.646	861.544	692.976
296.818	24.770	860.519	692.571
297.833	24.330	859.329	689.851
298.847	24.087	858.394	688.103
299.862	24.459	858.563	689.613
300.876	24.646	858.062	689.874
301.891	24.634	857.308	689.156
302.906	24.151	856.615	686.679
303.920	24.333	856.082	686.890
304.935	24.497	856.201	687.559
305.949	24.623	855.300	687.260
306.964	24.390	854.303	685.502
307.979	24.550	853.942	685.765
308.993	24.714	854.022	686.400
310.008	24.748	853.462	686.018
311.022	24.537	852.834	684.644
312.037	24.474	851.860	683.558
313.052	24.144	850.971	681.522
314.066	23.298	849.667	677.187
315.081	22.829	849.005	674.807
316.095	23.933	848.794	678.794
317.110	24.470	848.617	680.641
318.125	23.575	847.499	676.276
319.139	22.498	846.019	670.935
320.154	22.437	845.688	670.379
321.168	23.329	845.919	673.899
322.183	23.959	846.266	676.511
323.197	24.057	846.098	676.690
324.212	24.323	845.563	677.213
325.227	24.320	844.842	676.565
326.241	24.351	844.305	676.193
327.256	24.420	843.009	675.354
328.270	24.070	842.912	673.895
329.285	23.851	842.052	672.318
330.300	23.798	841.060	671.268
331.314	23.932	840.806	671.511
332.329	24.325	840.806	672.935
333.343	24.571	840.485	673.547
334.358	24.498	839.907	672.747
335.373	24.602	839.654	672.877
336.387	24.817	839.904	673.826
337.402	25.040	839.527	674.306
338.416	24.858	839.229	673.321
339.431	24.914	838.803	673.129
340.446	25.140	838.435	673.624
341.460	25.192	837.331	672.874
342.475	24.877	837.052	671.408
343.489	25.030	836.937	671.828
344.504	25.227	836.703	672.320
345.519	25.435	836.287	672.708
346.533	25.290	835.950	671.832
347.548	25.315	835.514	671.515
348.562	25.399	834.697	671.112
349.577	25.287	834.066	670.129
350.592	25.297	833.671	669.790
351.606	25.221	833.058	668.954
352.621	25.225	831.621	667.758
353.635	25.178	830.912	666.952
354.650	24.485	829.629	663.291
355.665	23.444	828.283	658.293
356.679	23.970	828.016	659.973
357.694	24.270	827.673	660.753
358.708	24.346	826.810	660.289
359.723	24.851	826.928	662.192
360.738	25.050	826.426	662.467
361.752	25.177	826.286	662.768
362.767	25.467	825.920	663.486
363.781	25.470	825.875	663.402
364.796	25.669	825.153	663.497
365.810	25.658	825.153	663.397
366.825	25.651	824.279	662.612
367.840	25.315	823.467	660.662
368.854	25.085	822.688	659.135
369.869	25.095	822.229	658.743
370.883	25.115	821.834	658.443
371.898	25.062	821.510	657.930
372.913	25.194	821.103	658.030
373.927	25.184	820.772	657.671
374.942	25.349	820.273	657.817
375.956	25.297	820.103	657.433
376.971	25.518	819.569	657.755
377.986	25.734	818.923	657.968
379.000	25.564	818.764	657.159
380.015	25.451	818.048	656.113
381.029	25.617	817.345	656.100
382.044	25.663	816.953	655.894
383.059	25.773	816.041	655.503
384.073	25.594	816.204	654.925
385.088	25.625	815.170	654.152
386.102	25.602	814.396	653.388
387.117	25.330	814.129	652.127
388.132	25.088	812.479	649.869
389.146	24.563	811.687	647.277
390.161	24.970	811.785	648.775
391.175	25.285	811.820	649.887
392.190	25.106	810.964	648.495
393.205	23.817	808.703	641.978
394.219	22.299	806.580	634.762
395.234	22.279	806.673	634.705
396.248	23.791	808.281	641.377
397.263	25.255	808.740	646.966
398.278	25.297	808.459	646.835
399.292	25.012	807.660	645.113
400.307	25.114	807.298	645.133
401.321	25.045	807.090	644.664
402.336	25.410	806.897	645.764
403.350	25.879	806.858	647.363
404.365	26.098	806.890	648.116
405.380	26.394	806.349	648.687
406.394	26.375	805.792	648.114
407.409	26.465	805.174	647.880
408.423	26.187	804.965	646.660
409.438	26.452	804.526	647.200
410.453	26.512	803.883	646.840
411.467	26.309	803.507	645.754
412.482	26.299	802.929	645.196
413.496	26.571	802.713	645.935
414.511	26.375	802.473	644.987
415.526	26.513	801.610	644.728
416.540	26.130	801.145	642.933
417.555	26.131	800.347	642.238
418.569	26.078	800.084	641.783
419.584	25.956	799.855	641.109
420.599	25.986	799.095	640.549
421.613	88.607	1250.783	1335.992
422.628	75.603	1316.637	1336.097
