DTS Sentinel unit serial number:	SN413079Multiplexer serial number:	ORYXHardware model number:	OX4-SRSoftware version number:	ORYX F/W v4.00 Oryx Data Collector v3.7.2.0data status	okinstallation	princeton_trtdifferential loss correction	single-endedforward channel	channel 1reverse channel	N/Adate	2019/09/11time	16:36:11forward acquisition time	60.00reverse acquisition time	0.00gamma	496.2192k internal	0.2290k external	0.2290temperature offset calibration	0.9992default loss term (dB/km)	0.3790temperature slope calibration	1.0000multiplexer offset coefficient	1.0000multiplexer slope coefficient	1.0000fibre end	0.00T internal ref (°C)	43.75T ext. ref 1 (°C)	1.08T ext. ref 2 (°C)	38.83length (m)	temperature (°C)	Stokes	anti-Stokes-747.200	277.392	0.027	0.050
-746.185	169.521	-0.093	-0.136
-745.171	84.411	-0.156	-0.175
-744.156	740.975	-0.118	0.325
-743.142	-61.226	0.136	-0.059
-742.127	-125.904	-0.081	0.013
-741.112	-80.979	-0.185	-0.063
-740.098	800.000	-0.061	0.203
-739.083	-37.347	0.057	-0.031
-738.069	-200.000	-0.018	0.130
-737.054	-23.895	-0.072	0.044
-736.039	-200.000	0.036	-0.184
-735.025	416.521	0.108	0.235
-734.010	40.027	0.156	-0.143
-732.996	-200.000	-0.054	-0.524
-731.981	-200.000	-0.004	-0.147
-730.966	-200.000	-0.018	-0.187
-729.952	58.693	0.121	0.121
-728.937	196.405	-0.170	-0.266
-727.923	-200.000	-0.012	-0.406
-726.908	-200.000	-0.004	-0.187
-725.894	105.175	-0.201	0.243
-724.879	-135.164	0.143	0.018
-723.864	-64.548	0.365	0.152
-722.850	423.432	-0.035	-0.078
-721.835	-34.173	-0.232	0.131
-720.821	800.000	-0.035	-0.155
-719.806	800.000	0.023	0.096
-718.791	-141.703	-0.327	0.034
-717.777	15.552	-0.269	-0.216
-716.762	-200.000	-0.031	-0.195
-715.748	-93.502	0.205	-0.058
-714.733	-200.000	-0.046	-0.313
-713.718	-17.457	0.293	-0.188
-712.704	97.210	-0.307	-0.360
-711.689	800.000	-0.042	-0.163
-710.675	223.747	0.149	-0.247
-709.660	123.974	-0.088	0.114
-708.645	800.000	-0.010	-0.029
-707.631	-100.894	-0.299	-0.075
-706.616	54.700	0.084	-0.083
-705.602	-200.000	-0.017	0.160
-704.587	79.754	0.016	0.017
-703.572	353.780	0.073	0.147
-702.558	133.948	0.140	0.185
-701.543	-200.000	0.019	0.127
-700.529	284.878	-0.019	-0.035
-699.514	-39.518	-0.324	-0.174
-698.499	-156.186	-0.610	0.039
-697.485	111.975	-0.308	0.381
-696.470	-89.895	0.160	-0.048
-695.456	397.573	0.126	-0.269
-694.441	-200.000	0.064	-0.348
-693.426	-179.780	-0.224	0.005
-692.412	289.416	-0.053	-0.099
-691.397	-86.488	0.349	-0.109
-690.383	-58.712	0.174	0.077
-689.368	-34.847	0.194	-0.108
-688.354	-128.335	0.300	0.044
-687.339	155.537	0.267	-0.376
-686.324	-119.599	-0.199	0.035
-685.310	-90.371	0.304	-0.090
-684.295	-84.277	-0.110	0.036
-683.281	-88.977	-0.273	-0.083
-682.266	-95.122	-0.161	-0.044
-681.251	-61.866	-0.280	-0.120
-680.237	152.590	-0.083	-0.115
-679.222	8.083	0.315	-0.241
-678.208	-123.060	0.275	0.045
-677.193	86.122	0.182	-0.205
-676.178	-200.000	-0.009	-0.081
-675.164	800.000	-0.038	-0.108
-674.149	145.887	0.288	-0.394
-673.135	-30.445	0.361	-0.209
-672.120	-190.704	-0.102	0.001
-671.105	-38.206	-0.221	0.120
-670.091	800.000	0.036	0.111
-669.076	95.101	0.053	0.062
-668.062	-200.000	0.043	-0.433
-667.047	-200.000	-0.043	0.214
-666.032	195.045	-0.031	0.048
-665.018	-68.496	0.349	-0.138
-664.003	311.331	-0.157	-0.301
-662.989	-70.011	0.253	0.098
-661.974	800.000	-0.034	0.113
-660.959	171.009	0.068	0.100
-659.945	-190.681	-0.252	0.003
-658.930	283.177	-0.115	0.211
-657.916	-5.378	-0.367	-0.257
-656.901	800.000	0.044	0.194
-655.886	74.665	-0.127	0.137
-654.872	87.524	0.083	0.094
-653.857	-200.000	0.014	0.067
-652.843	-156.246	-0.289	-0.019
-651.828	-142.589	-0.167	0.017
-650.814	85.716	0.172	-0.193
-649.799	800.000	-0.063	-0.273
-648.784	151.946	-0.168	0.234
-647.770	-52.822	-0.320	0.151
-646.755	-200.000	0.027	0.321
-645.741	233.185	0.193	0.324
-644.726	457.584	0.166	-0.377
-643.711	22.482	-0.292	0.244
-642.697	800.000	0.086	0.324
-641.682	-143.791	-0.178	0.017
-640.668	-25.839	0.213	0.128
-639.653	384.222	-0.062	0.131
-638.638	190.209	-0.040	-0.061
-637.624	78.863	-0.014	0.015
-636.609	-193.660	0.140	0.001
-635.595	553.209	-0.093	-0.227
-634.580	-200.000	-0.029	0.148
-633.565	134.889	-0.163	-0.216
-632.551	-200.000	-0.046	0.298
-631.536	800.000	-0.124	-0.404
-630.522	268.362	0.145	0.258
-629.507	-200.000	-0.008	-0.096
-628.492	592.587	0.035	-0.088
-627.478	57.454	-0.017	-0.017
-626.463	800.000	0.151	0.470
-625.449	800.000	-0.083	0.284
-624.434	692.328	0.038	0.102
-623.419	-122.658	0.123	0.020
-622.405	-148.143	0.325	-0.027
-621.390	-200.000	-0.003	-0.088
-620.376	-28.626	-0.183	0.108
-619.361	-200.000	0.019	0.413
-618.346	800.000	0.019	0.073
-617.332	101.433	-0.274	-0.326
-616.317	191.007	0.106	-0.163
-615.303	-37.758	-0.175	0.095
-614.288	-32.991	-0.039	-0.022
-613.273	639.031	0.054	-0.139
-612.259	-102.774	0.301	-0.073
-611.244	35.426	-0.165	0.148
-610.230	-200.000	-0.068	-0.605
-609.215	-68.357	0.062	0.025
-608.201	66.000	-0.045	-0.047
-607.186	102.580	0.025	0.030
-606.171	-115.434	0.170	-0.033
-605.157	-69.466	0.331	0.129
-604.142	-19.411	-0.056	-0.035
-603.128	-74.450	0.303	0.111
-602.113	800.000	0.063	0.195
-601.098	176.029	0.113	0.168
-600.084	-142.772	-0.331	0.033
-599.069	-166.035	-0.087	0.004
-598.055	-110.605	-0.057	0.012
-597.040	163.298	0.119	-0.170
-596.025	-3.429	-0.276	-0.196
-595.011	-8.969	-0.162	-0.110
-593.996	-9.077	-0.082	0.056
-592.982	310.824	-0.076	0.146
-591.967	-90.680	-0.223	0.066
-590.952	-92.466	-0.268	0.077
-589.938	-200.000	0.020	0.108
-588.923	-155.751	-0.359	-0.023
-587.909	362.446	0.065	0.133
-586.894	-158.618	0.285	-0.017
-585.879	-97.267	-0.108	0.029
-584.865	1.966	-0.240	0.177
-583.850	-105.782	0.384	-0.088
-582.836	172.377	0.147	-0.215
-581.821	525.076	-0.094	-0.225
-580.806	279.229	-0.192	-0.349
-579.792	64.440	-0.178	0.182
-578.777	167.768	0.028	-0.041
-577.763	-72.522	-0.167	-0.063
-576.748	-200.000	0.029	0.237
-575.733	-19.928	-0.170	0.107
-574.719	-200.000	0.026	0.115
-573.704	373.486	-0.142	-0.293
-572.690	552.567	0.104	0.254
-571.675	439.660	-0.045	-0.101
-570.661	77.693	-0.116	-0.126
-569.646	81.412	-0.283	-0.311
-568.631	6.393	0.180	0.136
-567.617	800.000	-0.070	-0.300
-566.602	800.000	-0.060	-0.168
-565.588	1.459	0.276	0.202
-564.573	88.503	-0.216	0.244
-563.558	-80.321	0.348	-0.118
-562.544	-200.000	-0.024	-0.151
-561.529	-109.204	-0.460	-0.099
-560.515	800.000	-0.073	0.275
-559.500	-61.810	0.096	0.041
-558.485	-200.000	-0.052	-0.251
-557.471	-200.000	0.038	-0.257
-556.456	-33.774	-0.054	0.030
-555.442	-60.243	0.108	0.047
-554.427	-200.000	-0.005	0.025
-553.412	-200.000	0.006	0.472
-552.398	800.000	-0.021	-0.091
-551.383	-121.701	-0.106	0.018
-550.369	-200.000	0.009	0.049
-549.354	-19.317	0.259	-0.163
-548.339	-54.360	-0.357	-0.165
-547.325	-112.430	0.236	-0.048
-546.310	800.000	-0.089	0.269
-545.296	52.572	-0.114	0.110
-544.281	183.996	-0.088	-0.132
-543.266	30.073	0.435	0.377
-542.252	-11.805	-0.091	-0.061
-541.237	-67.084	-0.385	0.154
-540.223	800.000	0.043	0.163
-539.208	-79.902	-0.193	0.066
-538.193	-10.665	-0.100	0.067
-537.179	-200.000	-0.026	-0.234
-536.164	-108.361	0.101	-0.022
-535.150	-200.000	0.043	-0.250
-534.135	-3.732	0.325	0.230
-533.121	478.013	-0.062	-0.142
-532.106	53.275	-0.171	-0.166
-531.091	800.000	-0.088	-0.252
-530.077	98.783	0.144	-0.169
-529.062	-114.633	-0.182	0.035
-528.048	33.390	0.116	-0.103
-527.033	230.600	0.155	-0.257
-526.018	-176.932	0.328	-0.008
-525.004	64.144	0.099	0.101
-523.989	506.634	-0.022	0.052
-522.975	10.924	-0.124	0.096
-521.960	-200.000	-0.067	0.303
-520.945	-43.545	-0.029	0.015
-519.931	-200.000	0.007	0.279
-518.916	167.967	0.184	0.266
-517.902	0.665	-0.024	0.017
-516.887	-77.572	0.155	0.055
-515.872	325.292	-0.057	-0.111
-514.858	-79.255	-0.095	-0.033
-513.843	-200.000	0.033	-0.250
-512.829	-56.941	-0.163	-0.073
-511.814	214.930	-0.113	0.181
-510.799	-200.000	-0.009	0.060
-509.785	482.871	-0.123	-0.283
-508.770	-101.128	0.296	0.074
-507.756	-200.000	0.010	-0.357
-506.741	-84.749	-0.279	0.089
-505.726	-125.849	-0.358	-0.055
-504.712	-59.015	0.229	0.100
-503.697	-200.000	-0.046	0.316
-502.683	-116.843	-0.113	0.021
-501.668	-120.505	0.018	-0.003
-500.653	-96.196	-0.246	0.066
-499.639	259.401	-0.194	0.339
-498.624	11.283	0.282	-0.219
-497.610	-200.000	-0.116	0.000
-496.595	-62.657	-0.234	-0.098
-495.581	-200.000	-0.026	0.147
-494.566	-96.786	-0.152	0.041
-493.551	-200.000	0.009	0.271
-492.537	-129.803	-0.069	0.010
-491.522	196.157	0.109	0.169
-490.508	-11.398	-0.241	0.161
-489.493	178.864	-0.098	-0.146
-488.478	-129.018	0.343	0.049
-487.464	-200.000	-0.012	-0.126
-486.449	129.054	-0.071	0.092
-485.435	-91.804	0.143	0.041
-484.420	96.339	0.274	-0.318
-483.405	-64.680	0.164	0.067
-482.391	-144.654	0.323	0.030
-481.376	-200.000	-0.014	0.290
-480.362	17.808	-0.173	0.139
-479.347	800.000	0.112	0.475
-478.332	-200.000	-0.024	-0.118
-477.318	-9.866	0.244	0.164
-476.303	-120.123	-0.377	-0.065
-475.289	356.077	-0.084	-0.169
-474.274	59.134	0.086	0.086
-473.259	-66.823	-0.211	-0.085
-472.245	-200.000	-0.017	0.097
-471.230	-200.000	-0.021	-0.284
-470.216	800.000	-0.108	0.381
-469.201	-200.000	-0.032	-0.299
-468.186	-190.665	-0.222	0.002
-467.172	326.582	-0.161	-0.312
-466.157	-28.498	-0.313	-0.183
-465.143	-50.679	0.117	-0.056
-464.128	123.236	0.046	0.058
-463.113	-134.055	0.116	-0.014
-462.099	800.000	0.053	0.151
-461.084	-105.742	0.260	0.059
-460.070	143.783	0.130	0.175
-459.055	-24.701	0.286	-0.172
-458.040	350.969	0.105	0.211
-457.026	209.782	0.031	-0.049
-456.011	-99.097	-0.430	0.110
-454.997	-4.784	0.046	0.032
-453.982	800.000	-0.048	0.160
-452.968	654.092	0.057	0.148
-451.953	47.129	-0.140	0.132
-450.938	28.065	0.175	-0.150
-449.924	309.911	-0.189	-0.359
-448.909	-89.900	-0.187	-0.055
-447.895	609.148	-0.131	-0.330
-446.880	-96.424	-0.092	-0.025
-445.865	19.441	-0.075	0.061
-444.851	383.659	-0.091	-0.189
-443.836	-113.674	-0.226	0.045
-442.822	-200.000	0.028	-0.136
-441.807	800.000	0.041	0.147
-440.792	-81.505	-0.073	-0.024
-439.778	-3.385	-0.108	-0.076
-438.763	-38.917	-0.134	0.072
-437.749	-200.000	-0.003	0.025
-436.734	-137.982	0.352	-0.040
-435.719	637.899	-0.050	0.129
-434.705	-7.978	-0.206	0.141
-433.690	-200.000	-0.038	-0.189
-432.676	800.000	-0.169	0.524
-431.661	84.267	-0.184	0.204
-430.646	354.047	-0.140	-0.282
-429.632	251.413	0.072	-0.123
-428.617	-200.000	0.015	0.110
-427.603	-16.725	0.153	-0.098
-426.588	-87.674	-0.072	0.022
-425.573	-91.879	0.339	-0.097
-424.559	800.000	-0.027	0.092
-423.544	-113.803	-0.159	-0.031
-422.530	800.000	0.043	-0.123
-421.515	-32.913	-0.222	-0.125
-420.500	-12.033	-0.055	-0.037
-419.486	-92.153	0.249	0.071
-418.471	-66.581	0.133	0.053
-417.457	-127.622	0.035	0.005
-416.442	-200.000	0.009	0.223
-415.428	43.988	0.076	0.070
-414.413	341.464	-0.009	0.018
-413.398	800.000	0.121	-0.467
-412.384	800.000	-0.012	-0.042
-411.369	28.475	-0.151	0.129
-410.355	800.000	-0.113	-0.378
-409.340	-200.000	-0.010	0.054
-408.325	605.967	0.037	0.094
-407.311	800.000	-0.091	0.337
-406.296	-164.391	0.085	0.004
-405.282	102.782	0.084	-0.100
-404.267	-123.031	0.255	-0.041
-403.252	-138.581	0.207	0.023
-402.238	-200.000	-0.051	0.384
-401.223	508.130	-0.099	0.233
-400.209	22.018	0.051	0.042
-399.194	-200.000	0.014	0.124
-398.179	-23.570	0.038	0.023
-397.165	-200.000	-0.007	-0.068
-396.150	-83.041	0.316	0.103
-395.136	335.288	-0.051	-0.101
-394.121	-71.507	-0.282	-0.107
-393.106	-200.000	-0.013	-0.142
-392.092	-116.762	-0.115	-0.021
-391.077	-98.136	-0.088	0.023
-390.063	-115.384	-0.042	-0.008
-389.048	7.983	-0.182	0.138
-388.033	665.277	-0.113	0.296
-387.019	-200.000	-0.001	0.128
-386.004	405.187	0.023	0.050
-384.990	-108.625	0.064	-0.014
-383.975	82.577	0.203	0.222
-382.960	-138.515	-0.212	-0.024
-381.946	800.000	0.050	-0.169
-380.931	800.000	0.094	-0.304
-379.917	163.001	-0.234	0.332
-378.902	-73.746	-0.231	0.085
-377.888	237.420	-0.101	-0.170
-376.873	271.476	0.054	0.096
-375.858	-135.591	-0.216	-0.026
-374.844	-141.141	0.183	-0.019
-373.829	124.069	0.069	0.088
-372.815	-200.000	-0.041	0.298
-371.800	-200.000	-0.048	0.343
-370.785	-81.662	0.101	0.034
-369.771	636.861	0.072	-0.186
-368.756	-200.000	0.014	-0.199
-367.742	219.151	-0.167	-0.270
-366.727	-104.549	0.122	-0.028
-365.712	12.119	0.254	0.197
-364.698	44.017	0.087	-0.080
-363.683	-200.000	-0.014	-0.219
-362.669	-200.000	0.001	0.135
-361.654	-129.959	0.251	0.035
-360.639	130.051	-0.100	-0.130
-359.625	-200.000	-0.049	-0.219
-358.610	-200.000	-0.028	-0.125
-357.596	79.445	-0.032	-0.034
-356.581	43.820	0.185	-0.171
-355.566	-94.865	-0.397	0.108
-354.552	124.201	-0.143	-0.181
-353.537	-65.922	0.049	0.020
-352.523	-48.555	0.202	0.098
-351.508	-200.000	-0.004	-0.529
-350.493	301.795	0.121	-0.226
-349.479	-96.604	-0.152	-0.040
-348.464	168.906	-0.068	-0.097
-347.450	31.943	-0.202	-0.176
-346.435	-19.320	-0.236	0.148
-345.420	-200.000	0.082	-0.000
-344.406	-123.848	-0.268	-0.043
-343.391	-200.000	-0.023	0.112
-342.377	-200.000	-0.028	-0.204
-341.362	136.590	0.147	-0.194
-340.348	293.012	0.073	0.134
-339.333	800.000	0.096	-0.368
-338.318	-110.255	0.173	-0.036
-337.304	91.453	0.089	0.101
-336.289	-200.000	-0.001	0.128
-335.275	-200.000	-0.029	-0.173
-334.260	-121.430	0.094	-0.016
-333.245	431.792	-0.094	-0.204
-332.231	800.000	0.093	0.354
-331.216	-144.551	0.163	-0.015
-330.202	45.246	0.048	-0.045
-329.187	-200.000	-0.019	-0.127
-328.172	-106.845	0.303	-0.068
-327.158	259.753	-0.073	-0.127
-326.143	-51.544	0.080	-0.038
-325.129	308.792	0.054	-0.101
-324.114	-34.305	-0.268	-0.148
-323.099	-96.021	-0.365	-0.098
-322.085	199.698	-0.171	-0.265
-321.070	659.863	0.031	0.079
-320.056	84.844	-0.080	-0.089
-319.041	-200.000	0.025	-0.443
-318.026	-58.260	0.271	0.119
-317.012	-65.835	0.091	-0.037
-315.997	-67.338	-0.159	0.063
-314.983	-132.471	0.327	0.042
-313.968	-105.406	-0.177	-0.041
-312.953	296.987	-0.077	0.142
-311.939	-142.929	-0.203	-0.020
-310.924	-200.000	0.058	0.291
-309.910	23.411	0.265	-0.219
-308.895	-115.179	-0.034	0.006
-307.880	254.759	-0.149	0.257
-306.866	722.595	0.035	-0.094
-305.851	-200.000	-0.046	-0.249
-304.837	-69.627	-0.108	0.042
-303.822	-30.451	-0.168	0.096
-302.807	-17.834	0.349	-0.220
-301.793	-83.779	-0.190	-0.061
-300.778	68.840	0.072	-0.075
-299.764	18.812	0.090	0.073
-298.749	39.627	0.111	-0.100
-297.735	-38.497	0.108	0.057
-296.720	-28.324	-0.143	0.083
-295.705	0.229	0.174	0.125
-294.691	-94.493	0.308	-0.085
-293.676	14.997	0.120	-0.095
-292.662	-47.428	0.191	-0.094
-291.647	245.705	0.119	-0.202
-290.632	-40.990	0.169	-0.088
-289.618	29.031	-0.443	0.378
-288.603	380.534	-0.106	-0.218
-287.589	800.000	-0.053	-0.152
-286.574	771.617	0.161	0.440
-285.559	-51.753	0.095	0.045
-284.545	506.764	0.045	-0.105
-283.530	289.991	-0.118	0.216
-282.516	0.862	-0.126	-0.091
-281.501	-153.519	0.091	-0.006
-280.486	-70.815	0.240	0.091
-279.472	397.610	-0.117	-0.247
-278.457	642.736	-0.133	-0.342
-277.443	-150.882	-0.086	0.007
-276.428	84.448	-0.229	-0.252
-275.413	64.595	-0.248	0.252
-274.399	648.354	0.072	0.185
-273.384	33.438	0.240	0.209
-272.370	-61.247	-0.427	0.181
-271.355	800.000	0.022	-0.097
-270.340	-120.518	0.203	0.035
-269.326	16.184	0.182	0.144
-268.311	499.919	0.082	-0.190
-267.297	-200.000	-0.033	-0.276
-266.282	800.000	0.137	-0.394
-265.267	153.841	-0.070	-0.097
-264.253	-85.056	0.104	0.033
-263.238	800.000	-0.041	-0.147
-262.224	36.473	0.257	0.228
-261.209	-119.096	0.121	0.021
-260.195	-81.668	-0.168	-0.055
-259.180	16.154	-0.123	0.097
-258.165	-72.201	0.102	0.038
-257.151	-114.754	0.173	-0.033
-256.136	-98.877	0.403	0.103
-255.122	-76.542	0.144	0.051
-254.107	299.431	-0.064	0.119
-253.092	5.292	0.225	-0.167
-252.078	-57.560	0.191	0.084
-251.063	439.357	0.009	-0.020
-250.049	141.724	-0.059	-0.079
-249.034	417.190	0.021	-0.045
-248.019	800.000	0.121	0.493
-247.005	-143.532	-0.152	-0.015
-245.990	-85.888	-0.232	-0.072
-244.976	-200.000	0.008	0.060
-243.961	-155.099	-0.164	0.011
-242.946	-174.082	-0.120	-0.004
-241.932	63.313	0.071	0.072
-240.917	-138.594	0.317	-0.035
-239.903	181.936	-0.110	0.163
-238.888	-200.000	-0.027	-0.381
-237.873	-200.000	0.032	0.208
-236.859	-70.212	0.334	-0.128
-235.844	800.000	0.058	-0.253
-234.830	-200.000	0.011	-0.161
-233.815	-22.994	-0.065	-0.039
-232.800	-47.708	0.207	0.101
-231.786	-24.111	-0.141	-0.085
-230.771	-50.808	-0.275	-0.130
-229.757	-158.919	-0.188	0.011
-228.742	-200.000	-0.001	-0.212
-227.727	8.811	-0.140	-0.106
-226.713	117.300	-0.191	0.235
-225.698	97.202	0.179	-0.207
-224.684	-106.965	0.253	-0.056
-223.669	201.695	0.147	-0.227
-222.655	747.507	0.046	-0.124
-221.640	34.640	-0.119	0.104
-220.625	-65.329	-0.107	0.043
-219.611	800.000	0.010	-0.044
-218.596	488.769	0.095	0.219
-217.582	492.359	-0.080	0.184
-216.567	89.887	0.205	-0.230
-215.552	-119.696	-0.354	0.061
-214.538	-200.000	0.002	0.014
-213.523	-153.516	0.217	0.015
-212.509	-79.657	0.285	-0.097
-211.494	-9.789	0.087	-0.058
-210.479	-24.132	0.156	0.094
-209.465	5.945	-0.291	-0.216
-208.450	76.916	0.138	0.147
-207.436	-200.000	-0.021	0.288
-206.421	788.863	0.155	0.426
-205.406	800.000	0.031	-0.111
-204.392	-7.210	0.200	0.136
-203.377	-200.000	-0.043	0.306
-202.363	284.535	-0.095	-0.172
-201.348	-29.332	0.256	0.147
-200.333	139.831	-0.077	0.102
-199.319	-117.462	0.158	0.029
-198.304	-81.328	-0.315	0.104
-197.290	-6.709	0.184	-0.126
-196.275	-2.516	-0.245	-0.172
-195.260	-100.431	0.137	-0.034
-194.246	-136.619	0.055	0.006
-193.231	-177.396	-0.244	-0.006
-192.217	-121.031	0.125	-0.021
-191.202	-166.411	0.164	-0.007
-190.187	608.841	0.079	0.198
-189.173	77.876	0.135	0.145
-188.158	-200.000	-0.005	-0.183
-187.144	97.751	0.265	0.306
-186.129	423.586	-0.109	0.234
-185.114	-70.094	-0.096	0.037
-184.100	-200.000	-0.016	-0.140
-183.085	223.275	0.234	0.379
-182.071	-98.133	0.232	-0.060
-181.056	-200.000	-0.014	0.109
-180.042	22.005	-0.019	0.015
-179.027	800.000	-0.129	-0.377
-178.012	642.159	-0.158	0.403
-176.998	525.826	0.096	-0.226
-175.983	4.523	-0.219	0.161
-174.969	38.641	-0.114	0.102
-173.954	60.362	-0.292	-0.289
-172.939	-76.223	-0.155	-0.055
-171.925	277.378	0.098	-0.175
-170.910	-106.140	0.234	0.053
-169.896	-159.486	0.272	0.015
-168.881	800.000	0.043	-0.160
-167.866	71.603	0.160	0.167
-166.852	32.586	-0.079	0.069
-165.837	-107.261	0.327	-0.072
-164.823	182.612	-0.101	0.149
-163.808	87.214	0.226	-0.250
-162.793	-200.000	-0.028	-0.369
-161.779	85.379	0.017	0.019
-160.764	-29.539	0.333	-0.190
-159.750	94.925	-0.022	0.025
-158.735	-200.000	0.054	0.238
-157.720	90.444	-0.154	0.172
-156.706	-165.794	0.088	0.004
-155.691	800.000	-0.072	-0.263
-154.677	28.568	0.177	0.150
-153.662	-56.581	0.265	-0.117
-152.647	67.694	0.113	0.116
-151.633	800.000	-0.036	-0.142
-150.618	457.305	0.085	0.188
-149.604	-200.000	-0.051	0.287
-148.589	674.900	-0.039	0.102
-147.574	-160.256	0.170	-0.009
-146.560	41.847	-0.155	0.141
-145.545	-200.000	0.062	0.425
-144.531	-6.234	0.058	0.040
-143.516	-200.000	-0.038	-0.204
-142.502	-38.309	0.257	0.136
-141.487	-200.000	0.032	0.406
-140.472	12.208	-0.183	0.141
-139.458	411.254	-0.122	0.259
-138.443	-52.497	0.242	0.112
-137.429	-41.578	0.150	0.077
-136.414	370.251	-0.140	0.284
-135.399	-200.000	-0.010	-0.211
-134.385	48.910	-0.067	0.063
-133.370	27.588	0.234	0.197
-132.356	-200.000	-0.003	-0.223
-131.341	229.527	0.139	0.227
-130.326	-117.357	0.230	-0.042
-129.312	-64.940	0.258	0.104
-128.297	23.231	0.113	0.093
-127.283	-134.773	0.186	0.023
-126.268	-147.228	-0.074	0.006
-125.253	52.536	-0.351	-0.335
-124.239	9.693	-0.172	-0.130
-123.224	218.829	0.060	0.096
-122.210	415.642	-0.083	0.177
-121.195	360.717	0.103	-0.206
-120.180	-54.969	0.268	0.121
-119.166	41.472	-0.113	0.102
-118.151	-133.188	0.263	0.033
-117.137	9.193	0.151	0.114
-116.122	-67.115	0.296	-0.117
-115.107	-200.000	0.024	0.153
-114.093	-55.551	-0.374	-0.167
-113.078	194.844	-0.097	0.147
-112.064	507.530	0.028	0.064
-111.049	-75.990	0.354	0.125
-110.034	-6.526	0.151	0.103
-109.020	377.157	0.040	0.081
-108.005	-190.545	-0.186	0.002
-106.991	107.558	-0.149	-0.177
-105.976	73.410	0.238	0.249
-104.962	-102.083	0.302	-0.073
-103.947	161.857	0.065	0.091
-102.932	3.033	0.261	0.190
-101.918	-55.616	0.078	0.035
-100.903	-77.431	0.143	-0.049
-99.889	83.348	0.134	0.146
-98.874	214.283	0.082	-0.130
-97.859	107.136	-0.244	-0.290
-96.845	-101.622	0.277	0.067
-95.830	84.164	0.095	0.104
-94.816	-200.000	-0.046	0.472
-93.801	26.713	-0.090	-0.076
-92.786	-93.366	0.089	0.025
-91.772	135.435	-0.146	-0.190
-90.757	-69.712	0.374	0.143
-89.743	800.000	-0.028	-0.079
-88.728	-200.000	0.066	-0.317
-87.713	115.728	0.143	-0.174
-86.699	-182.910	-0.197	-0.004
-85.684	-200.000	0.019	0.314
-84.670	-90.730	-0.217	-0.063
-83.655	800.000	-0.046	0.147
-82.640	800.000	-0.065	-0.254
-81.626	-28.480	0.094	-0.054
-80.611	-181.914	0.213	0.004
-79.597	303.451	0.066	-0.122
-78.582	800.000	0.042	-0.173
-77.567	-99.064	0.141	0.036
-76.553	-111.934	-0.329	0.066
-75.538	208.848	-0.059	0.092
-74.524	114.631	0.139	0.168
-73.509	105.868	-0.092	0.108
-72.494	438.895	0.033	0.073
-71.480	-200.000	-0.009	0.107
-70.465	-134.589	-0.256	-0.031
-69.451	368.233	0.135	-0.273
-68.436	-17.199	0.128	0.081
-67.422	-200.000	0.035	-0.155
-66.407	-19.023	-0.245	0.152
-65.392	-200.000	-0.037	0.293
-64.378	381.433	-0.041	0.084
-63.363	-200.000	-0.054	0.371
-62.349	543.206	-0.053	0.127
-61.334	67.466	-0.867	-0.883
-60.319	196.382	0.203	0.308
-59.305	-200.000	0.063	-0.486
-58.290	79.426	0.711	0.760
-57.276	295.018	0.887	1.618
-56.261	-200.000	70.974	523.771
-55.246	605.911	1273.997	3165.640
-54.232	147.467	2494.553	3350.176
-53.217	123.193	2225.537	2780.438
-52.203	56.956	1669.123	1621.985
-51.188	48.087	1385.749	1291.817
-50.173	44.121	1337.323	1222.787
-49.159	61.456	1368.992	1357.335
-48.144	70.059	1388.285	1428.542
-47.130	48.197	1351.641	1260.490
-46.115	43.867	1335.477	1219.378
-45.100	43.599	1331.107	1213.728
-44.086	43.591	1328.545	1211.296
-43.071	43.525	1325.527	1208.100
-42.057	43.545	1323.625	1206.439
-41.042	43.554	1322.034	1204.997
-40.027	43.657	1320.521	1204.179
-39.013	43.680	1318.778	1202.683
-37.998	43.612	1316.695	1200.328
-36.984	43.705	1315.377	1199.634
-35.969	43.718	1313.464	1197.916
-34.954	43.729	1311.580	1196.215
-33.940	43.878	1309.823	1195.447
-32.925	43.755	1309.008	1193.929
-31.911	43.897	1307.093	1192.972
-30.896	43.773	1305.864	1191.074
-29.881	43.866	1304.544	1190.371
-28.867	43.969	1302.690	1189.232
-27.852	43.907	1300.947	1187.232
-26.838	43.787	1300.145	1185.753
-25.823	43.869	1298.391	1184.581
-24.809	43.777	1297.388	1183.082
-23.794	43.850	1295.565	1181.798
-22.779	43.832	1294.354	1180.543
-21.765	43.805	1292.967	1179.074
-20.750	43.924	1291.707	1178.572
-19.736	43.682	1290.925	1176.405
-18.721	43.769	1289.219	1175.307
-17.706	43.693	1288.186	1173.880
-16.692	43.647	1286.730	1172.237
-15.677	43.741	1285.644	1171.748
-14.663	43.674	1284.685	1170.440
-13.648	43.602	1283.515	1168.908
-12.633	43.763	1282.135	1168.535
-11.619	43.753	1281.516	1167.870
-10.604	43.730	1280.706	1166.951
-9.590	43.747	1279.611	1166.007
-8.575	43.553	1278.766	1164.069
-7.560	43.714	1277.409	1163.718
-6.546	43.751	1276.484	1163.041
-5.531	43.607	1275.834	1161.575
-4.517	43.585	1275.135	1160.765
-3.502	43.747	1273.681	1160.326
-2.487	43.752	1273.316	1159.976
-1.473	43.710	1269.868	1156.547
-0.458	42.839	1254.932	1137.977
0.556	38.353	1233.980	1096.486
1.571	33.906	1236.209	1073.316
2.586	32.567	1250.609	1078.068
3.600	31.001	1240.244	1060.138
4.615	22.093	1161.752	945.261
5.629	8.128	1075.841	805.209
6.644	1.537	1049.999	753.232
7.659	1.050	1046.825	748.483
8.673	0.919	1045.575	746.877
9.688	0.825	1044.598	745.650
10.702	1.184	1043.792	746.776
11.717	9.014	1054.982	793.561
12.731	20.124	1070.826	860.893
13.746	23.788	1074.655	882.125
14.761	23.499	1073.933	880.016
15.775	23.489	1072.811	878.971
16.790	23.401	1071.967	877.764
17.804	23.276	1071.584	876.756
18.819	23.215	1071.149	876.019
19.834	23.214	1071.100	875.899
20.848	23.331	1070.260	875.712
21.863	23.404	1069.614	875.468
22.877	23.335	1069.413	874.882
23.892	23.265	1068.099	873.385
24.907	23.269	1067.844	873.122
25.921	23.294	1066.483	872.052
26.936	23.281	1065.337	870.976
27.950	23.250	1063.744	869.443
28.965	23.184	1061.762	867.423
29.980	23.211	1060.339	866.314
30.994	23.394	1059.362	866.334
32.009	23.448	1058.100	865.489
33.023	23.241	1056.901	863.422
34.038	23.353	1056.172	863.296
35.053	23.412	1055.544	862.996
36.067	23.232	1055.155	861.722
37.082	23.425	1053.878	861.544
38.096	23.496	1053.595	861.580
39.111	23.574	1053.049	861.439
40.126	23.479	1051.511	859.643
41.140	23.099	1049.612	856.175
42.155	23.008	1048.149	854.467
43.169	23.022	1047.163	853.654
44.184	22.976	1046.683	852.965
45.199	22.953	1045.409	851.739
46.213	23.033	1044.589	851.380
47.228	23.080	1043.982	851.040
48.242	23.101	1043.140	850.377
49.257	23.192	1042.436	850.166
50.271	23.502	1041.138	850.517
51.286	23.503	1040.730	850.117
52.301	23.367	1040.143	848.909
53.315	23.299	1038.770	847.388
54.330	23.297	1037.559	846.317
55.344	23.359	1037.072	846.141
56.359	23.351	1036.043	845.186
57.374	23.082	1034.740	842.769
58.388	23.099	1034.118	842.266
59.403	23.079	1033.819	841.857
60.417	22.891	1032.557	839.859
61.432	23.027	1032.050	840.016
62.447	23.005	1031.582	839.457
63.461	23.134	1031.017	839.537
64.476	23.078	1029.650	838.083
65.490	23.050	1028.023	836.553
66.505	23.147	1027.801	836.759
67.520	23.108	1027.528	836.276
68.534	22.926	1025.977	834.082
69.549	22.679	1024.654	831.766
70.563	22.664	1024.215	831.267
71.578	22.593	1023.576	830.341
72.593	22.398	1023.147	828.998
73.607	22.633	1022.068	829.159
74.622	22.842	1021.774	829.826
75.636	22.845	1021.403	829.468
76.651	22.752	1020.221	827.996
77.666	22.685	1019.717	827.201
78.680	22.747	1019.019	826.852
79.695	22.931	1017.856	826.697
80.709	23.055	1017.422	826.851
81.724	22.886	1016.958	825.610
82.739	23.025	1015.907	825.333
83.753	23.267	1015.709	826.228
84.768	23.611	1014.689	826.928
85.782	23.737	1013.748	826.676
86.797	23.736	1012.699	825.744
87.812	23.456	1011.615	823.487
88.826	23.548	1011.117	823.432
89.841	23.636	1010.118	822.955
90.855	23.660	1009.182	822.230
91.870	23.536	1008.378	820.928
92.884	23.365	1007.609	819.438
93.899	23.255	1006.296	817.791
94.914	23.572	1005.468	818.507
95.928	23.333	1004.235	816.332
96.943	23.108	1003.016	814.232
97.957	23.011	1002.035	812.917
98.972	22.947	1000.505	811.313
99.987	23.133	1000.067	811.736
101.001	23.358	999.791	812.473
102.016	23.251	998.649	810.985
103.030	23.136	998.024	809.879
104.045	22.988	996.641	808.007
105.060	22.859	995.896	806.742
106.074	23.054	995.371	807.138
107.089	23.386	994.651	807.996
108.103	23.365	993.259	806.699
109.118	23.108	992.050	804.476
110.133	23.109	990.992	803.551
111.147	23.019	989.533	801.890
112.162	22.718	988.952	799.984
113.176	22.950	988.822	800.861
114.191	23.008	987.454	799.943
115.206	22.650	986.491	797.470
116.220	22.560	985.821	796.451
117.235	22.755	984.956	796.565
118.249	22.764	984.179	795.908
119.264	22.759	983.241	795.056
120.279	22.576	982.788	793.796
121.293	22.782	981.811	793.860
122.308	22.742	981.011	792.964
123.322	22.725	979.591	791.669
124.337	22.583	978.331	789.944
125.352	22.229	976.418	786.748
126.366	21.967	976.074	785.229
127.381	22.772	975.811	788.544
128.395	23.306	975.518	790.626
129.410	23.381	974.607	790.148
130.424	23.275	973.538	788.742
131.439	23.351	972.502	788.169
132.454	23.390	971.733	787.653
133.468	23.366	970.818	786.731
134.483	23.503	970.142	786.721
135.497	23.529	969.676	786.390
136.512	23.681	968.728	786.224
137.527	23.553	968.000	784.999
138.541	23.635	967.145	784.598
139.556	23.650	966.697	784.234
140.570	23.644	966.007	783.576
141.585	23.691	964.999	782.898
142.600	23.718	963.013	781.333
143.614	23.798	963.062	781.656
144.629	23.925	962.373	781.585
145.643	23.681	961.311	779.585
146.658	23.627	959.797	778.052
147.673	23.549	958.672	776.728
148.687	23.453	957.772	775.511
149.702	23.458	956.755	774.641
150.716	23.482	955.499	773.661
151.731	23.485	955.429	773.550
152.746	23.716	954.546	773.772
153.760	23.858	953.787	773.706
154.775	23.751	953.573	773.000
155.789	23.865	952.465	772.529
156.804	23.718	951.642	771.152
157.819	23.770	950.662	770.517
158.833	23.904	950.150	770.613
159.848	23.932	948.937	769.684
160.862	23.666	947.918	767.640
161.877	23.718	947.062	767.101
162.892	23.772	946.152	766.530
163.906	23.805	944.394	765.179
164.921	23.677	944.226	764.427
165.935	23.870	943.171	764.332
166.950	23.728	942.083	762.775
167.964	23.701	941.750	762.320
168.979	23.615	940.248	760.669
169.994	23.592	939.350	759.777
171.008	23.810	938.735	760.144
172.023	23.842	937.881	759.522
173.037	23.623	937.129	757.912
174.052	23.386	936.090	755.995
175.067	23.393	935.585	755.546
176.081	23.513	935.088	755.590
177.096	23.648	933.844	755.095
178.110	23.178	933.342	752.623
179.125	22.961	932.610	751.045
180.140	23.220	932.123	751.685
181.154	23.182	932.185	751.507
182.169	23.554	931.674	752.609
183.183	23.914	931.178	753.666
184.198	23.710	930.388	752.095
185.213	23.553	929.613	750.739
186.227	23.685	928.558	750.377
187.242	23.717	928.223	750.177
188.256	23.771	927.604	749.839
189.271	23.853	926.596	749.303
190.286	23.465	925.840	746.989
191.300	22.922	924.421	743.494
192.315	22.212	922.891	739.213
193.329	22.057	922.470	738.161
194.344	22.997	922.936	742.418
195.359	23.463	922.778	744.183
196.373	23.549	922.310	744.097
197.388	23.630	921.492	743.710
198.402	23.600	920.841	742.995
199.417	23.658	920.246	742.691
200.432	23.401	919.146	740.665
201.446	23.106	919.017	739.264
202.461	23.332	917.775	739.142
203.475	22.526	915.926	734.228
204.490	21.674	914.455	729.439
205.504	22.571	915.044	733.580
206.519	23.202	915.098	736.184
207.534	23.395	914.604	736.524
208.548	23.726	914.492	737.745
209.563	23.453	913.277	735.565
210.577	23.343	913.032	734.846
211.592	23.845	912.308	736.281
212.607	23.921	910.909	735.397
213.621	23.726	911.179	734.745
214.636	23.820	910.040	734.152
215.650	23.779	909.298	733.318
216.665	23.924	908.862	733.498
217.680	23.806	908.039	732.283
218.694	23.309	906.943	729.291
219.709	23.274	906.276	728.543
220.723	23.507	905.770	729.030
221.738	23.652	905.119	729.039
222.753	23.567	904.691	728.280
223.767	23.674	904.266	728.314
224.782	23.816	904.398	728.935
225.796	23.708	903.551	727.747
226.811	23.301	901.963	724.737
227.826	22.634	900.784	721.000
228.840	22.627	900.360	720.567
229.855	22.889	899.413	720.817
230.869	22.511	898.180	718.223
231.884	22.775	898.345	719.370
232.899	23.644	898.311	722.818
233.913	23.628	897.701	722.196
234.928	23.497	897.190	721.190
235.942	23.476	897.027	720.908
236.957	23.107	895.893	718.435
237.972	23.221	895.112	718.209
238.986	23.334	894.637	718.220
240.001	23.277	894.102	717.496
241.015	23.413	893.355	717.384
242.030	23.513	893.214	717.612
243.045	23.525	893.075	717.488
244.059	23.782	892.346	717.877
245.074	23.625	891.282	716.324
246.088	23.409	890.158	714.486
247.103	23.638	889.919	715.152
248.117	24.041	889.932	716.723
249.132	24.242	889.640	717.235
250.147	24.355	889.280	717.334
251.161	24.692	888.424	717.935
252.176	24.348	888.254	716.354
253.190	24.385	887.477	715.809
254.205	24.792	887.131	717.100
255.220	24.601	886.346	715.639
256.234	24.519	885.571	714.618
257.249	24.416	884.571	713.339
258.263	24.462	884.142	713.114
259.278	24.628	883.155	712.915
260.293	24.577	882.898	712.441
261.307	24.425	881.808	710.894
262.322	24.346	881.336	710.136
263.336	23.638	879.386	705.687
264.351	22.525	877.319	699.553
265.366	22.617	876.980	699.582
266.380	23.640	878.128	704.500
267.395	24.108	877.518	705.804
268.409	24.117	876.707	705.125
269.424	24.292	876.255	705.391
270.439	24.282	875.666	704.813
271.453	24.336	875.248	704.630
272.468	24.553	874.959	705.192
273.482	24.589	874.559	704.949
274.497	24.191	873.340	702.334
275.512	23.742	872.404	699.750
276.526	24.059	872.492	701.009
277.541	24.349	872.157	701.818
278.555	24.286	871.000	700.579
279.570	24.064	870.358	699.127
280.585	24.232	869.709	699.205
281.599	24.284	868.848	698.653
282.614	23.563	867.832	694.954
283.628	23.575	867.447	694.630
284.643	23.971	866.820	695.615
285.657	23.709	865.572	693.530
286.672	23.310	864.834	691.317
287.687	23.911	865.070	693.790
288.701	23.919	864.616	693.397
289.716	23.509	863.721	691.020
290.730	23.636	862.767	690.691
291.745	23.386	862.333	689.310
292.760	23.473	862.027	689.344
293.774	24.450	862.611	693.546
294.789	24.832	862.157	694.606
295.803	25.064	861.394	694.828
296.818	25.063	860.832	694.310
297.833	24.523	859.674	691.224
298.847	24.278	858.768	689.486
299.862	24.676	858.837	691.018
300.876	24.879	858.568	691.525
301.891	24.862	857.739	690.731
302.906	24.510	856.620	688.413
303.920	24.459	856.656	688.186
304.935	24.774	856.307	689.058
305.949	24.800	855.595	688.522
306.964	24.574	855.236	687.305
307.979	24.533	854.581	686.558
308.993	25.025	854.503	688.326
310.008	25.022	853.882	687.755
311.022	24.759	853.128	686.078
312.037	24.638	852.053	684.690
313.052	24.335	851.503	683.024
314.066	23.505	850.052	678.627
315.081	23.118	849.120	676.344
316.095	23.957	849.289	679.623
317.110	24.433	849.168	681.287
318.125	23.684	847.731	677.218
319.139	22.750	846.290	672.448
320.154	22.828	845.332	671.923
321.168	23.434	846.477	675.084
322.183	24.172	846.170	677.586
323.197	24.405	845.889	678.187
324.212	24.582	845.680	678.631
325.227	24.640	844.813	678.097
326.241	24.484	844.275	677.015
327.256	24.336	843.609	675.858
328.270	24.402	843.044	675.598
329.285	24.107	842.287	673.815
330.300	23.979	841.193	672.393
331.314	24.116	841.340	672.970
332.329	24.554	840.739	674.085
333.343	24.770	840.710	674.817
334.358	24.688	840.217	674.051
335.373	24.761	840.083	674.158
336.387	24.974	840.047	674.872
337.402	25.137	839.715	675.161
338.416	25.080	839.257	674.520
339.431	25.284	838.870	674.915
340.446	25.421	838.555	675.118
341.460	25.186	838.128	673.831
342.475	24.986	837.659	672.645
343.489	25.121	837.215	672.734
344.504	25.367	836.962	673.393
345.519	25.535	836.462	673.561
346.533	25.523	836.138	673.195
347.548	25.496	835.454	672.484
348.562	25.427	834.965	671.772
349.577	25.503	834.244	671.418
350.592	25.492	833.297	670.553
351.606	25.476	832.732	669.982
352.621	25.430	831.809	669.009
353.635	25.300	831.004	667.819
354.650	24.709	829.649	664.475
355.665	23.544	828.418	659.105
356.679	23.999	828.042	660.436
357.694	24.340	828.257	661.815
358.708	24.422	827.044	661.090
359.723	24.811	827.439	662.788
360.738	25.152	827.327	663.901
361.752	25.212	826.362	663.292
362.767	25.581	825.961	664.275
363.781	25.913	825.538	665.102
364.796	25.841	825.481	664.731
365.810	25.981	825.199	664.963
366.825	25.854	824.542	663.905
367.840	25.602	824.154	662.604
368.854	25.066	823.305	659.890
369.869	25.107	822.599	659.419
370.883	25.296	822.187	659.722
371.898	25.231	821.679	659.019
372.913	25.171	821.769	658.811
373.927	25.394	820.867	658.849
374.942	25.447	820.502	658.693
375.956	25.512	820.345	658.746
376.971	25.794	819.687	659.194
377.986	25.951	819.248	659.353
379.000	25.804	819.115	658.651
380.015	25.522	818.459	657.035
381.029	25.604	817.834	656.775
382.044	26.010	816.650	657.246
383.059	25.814	816.690	656.506
384.073	25.888	816.047	656.200
385.088	25.922	815.295	655.660
386.102	25.727	814.621	654.352
387.117	25.697	813.983	653.671
388.132	25.342	812.851	651.417
389.146	24.784	812.028	648.677
390.161	25.065	812.416	649.948
391.175	25.705	811.695	651.632
392.190	25.406	810.706	649.701
393.205	24.096	808.524	643.168
394.219	22.490	806.816	635.959
395.234	22.328	806.532	635.092
396.248	23.959	807.972	642.061
397.263	25.498	808.853	648.260
398.278	25.407	808.618	647.686
399.292	25.120	808.348	646.379
400.307	25.108	807.477	645.581
401.321	25.121	807.342	645.463
402.336	25.602	806.995	646.859
403.350	26.073	807.221	648.677
404.365	26.344	806.709	649.181
405.380	26.539	806.546	649.692
406.394	26.565	805.789	649.119
407.409	26.413	805.721	648.462
408.423	26.420	805.551	648.293
409.438	26.556	804.656	648.002
410.453	26.679	804.360	648.147
411.467	26.466	803.926	646.979
412.482	26.520	803.161	646.497
413.496	26.570	803.138	646.600
414.511	26.623	802.576	646.281
415.526	26.624	802.024	645.781
416.540	26.393	801.365	644.371
417.555	26.132	800.668	642.823
418.569	26.188	800.575	642.891
419.584	26.323	800.091	642.926
420.599	26.148	799.128	641.476
421.613	83.876	1240.734	1302.047
422.628	71.382	1305.143	1302.203
