DTS Sentinel unit serial number:	SN413079Multiplexer serial number:	ORYXHardware model number:	OX4-SRSoftware version number:	ORYX F/W v4.00 Oryx Data Collector v3.7.2.0data status	okinstallation	princeton_trtdifferential loss correction	single-endedforward channel	channel 1reverse channel	N/Adate	2019/09/12time	00:32:11forward acquisition time	60.00reverse acquisition time	0.00gamma	496.2192k internal	0.2318k external	0.2318temperature offset calibration	1.0075default loss term (dB/km)	0.3790temperature slope calibration	1.0000multiplexer offset coefficient	1.0000multiplexer slope coefficient	1.0000fibre end	0.00T internal ref (°C)	33.37T ext. ref 1 (°C)	2.08T ext. ref 2 (°C)	27.96length (m)	temperature (°C)	Stokes	anti-Stokes-747.200	-200.000	0.010	0.193
-746.185	-200.000	0.013	0.341
-745.171	482.575	-0.162	-0.374
-744.156	-200.000	0.018	0.167
-743.142	-106.968	0.366	-0.082
-742.127	800.000	0.092	0.402
-741.112	375.123	0.075	-0.154
-740.098	-110.700	0.048	-0.010
-739.083	-49.037	-0.522	0.253
-738.069	-146.578	0.263	0.023
-737.054	286.672	-0.193	-0.352
-736.039	166.507	0.056	-0.080
-735.025	-13.643	-0.069	0.045
-734.010	-7.150	0.120	-0.082
-732.996	-102.949	0.087	0.021
-731.981	-100.740	0.195	0.049
-730.966	26.314	-0.200	-0.169
-729.952	709.238	-0.116	-0.309
-728.937	10.736	-0.164	0.127
-727.923	397.792	0.056	0.119
-726.908	-200.000	-0.052	0.262
-725.894	-80.592	-0.408	-0.138
-724.879	800.000	0.050	-0.203
-723.864	-76.674	-0.481	0.170
-722.850	800.000	-0.027	0.087
-721.835	11.706	-0.169	0.131
-720.821	793.546	-0.027	0.075
-719.806	800.000	0.098	-0.304
-718.791	87.127	0.228	-0.254
-717.777	63.276	0.209	0.212
-716.762	143.015	-0.100	0.134
-715.748	-200.000	-0.008	-0.066
-714.733	-2.116	0.331	0.235
-713.718	-200.000	0.036	-0.195
-712.704	784.408	-0.121	-0.336
-711.689	-40.763	-0.046	0.024
-710.675	800.000	-0.171	-0.499
-709.660	-123.229	-0.225	-0.036
-708.645	800.000	-0.087	0.258
-707.631	-90.917	-0.235	-0.068
-706.616	-189.657	-0.145	0.002
-705.602	54.378	-0.098	-0.095
-704.587	127.186	0.105	-0.135
-703.572	31.060	0.050	0.043
-702.558	-94.330	-0.323	0.089
-701.543	-81.859	0.199	-0.066
-700.529	71.851	-0.239	-0.251
-699.514	3.680	-0.053	-0.039
-698.499	-109.772	-0.173	0.037
-697.485	24.667	0.293	-0.245
-696.470	-200.000	0.038	-0.295
-695.456	318.399	-0.127	-0.242
-694.441	14.458	-0.176	0.139
-693.426	734.461	0.017	0.046
-692.412	-34.455	-0.253	0.140
-691.397	-200.000	-0.034	0.265
-690.383	-47.846	-0.271	-0.133
-689.368	54.243	0.049	-0.048
-688.354	-200.000	-0.002	0.047
-687.339	-154.745	-0.044	0.003
-686.324	-45.033	-0.503	0.253
-685.310	-146.415	-0.091	-0.008
-684.295	596.650	0.083	0.207
-683.281	-122.161	-0.401	-0.066
-682.266	-200.000	-0.003	0.248
-681.251	52.591	0.084	0.081
-680.237	-145.393	-0.122	-0.011
-679.222	-148.809	-0.332	-0.027
-678.208	664.991	0.093	-0.243
-677.193	-55.315	-0.380	0.172
-676.178	-200.000	-0.056	0.271
-675.164	102.943	0.121	0.142
-674.149	142.177	-0.079	-0.105
-673.135	-32.038	-0.338	-0.191
-672.120	-46.691	-0.033	0.016
-671.105	245.120	-0.127	-0.216
-670.091	800.000	-0.032	-0.116
-669.076	-33.380	-0.045	-0.025
-668.062	-32.363	0.236	-0.133
-667.047	119.354	-0.251	-0.314
-666.032	-200.000	0.002	0.022
-665.018	313.676	0.167	0.317
-664.003	-92.089	-0.123	0.035
-662.989	-200.000	-0.013	-0.129
-661.974	132.869	0.105	0.137
-660.959	337.416	-0.239	-0.469
-659.945	-117.296	-0.451	0.083
-658.930	-18.078	0.242	0.153
-657.916	257.602	-0.146	0.254
-656.901	800.000	0.047	0.172
-655.886	-129.212	-0.528	0.074
-654.872	435.351	-0.031	-0.068
-653.857	-137.365	-0.145	-0.017
-652.843	-150.651	0.121	-0.009
-651.828	-110.858	0.176	-0.037
-650.814	-200.000	-0.025	-0.173
-649.799	800.000	0.055	0.182
-648.784	-55.086	-0.247	-0.112
-647.770	-87.284	-0.404	-0.124
-646.755	-140.738	-0.125	0.013
-645.741	800.000	-0.081	-0.270
-644.726	205.689	-0.172	-0.269
-643.711	89.036	0.202	0.227
-642.697	-99.646	0.191	0.048
-641.682	-44.723	0.355	-0.179
-640.668	408.175	0.083	0.177
-639.653	-102.920	-0.205	-0.049
-638.638	-142.118	0.077	0.008
-637.624	-194.457	-0.067	-0.001
-636.609	39.885	0.110	-0.099
-635.595	32.131	0.171	0.149
-634.580	-147.626	0.145	0.012
-633.565	-118.923	-0.231	0.041
-632.551	28.607	0.184	-0.157
-631.536	800.000	0.027	-0.116
-630.522	145.193	0.108	0.145
-629.507	-136.512	-0.219	0.026
-628.492	-200.000	0.022	0.193
-627.478	26.898	-0.212	0.179
-626.463	-170.839	-0.258	0.009
-625.449	-76.309	0.156	0.055
-624.434	92.517	0.154	-0.175
-623.419	-107.839	0.193	-0.042
-622.405	-18.105	-0.406	-0.256
-621.390	-59.878	0.153	0.066
-620.376	7.128	0.238	-0.179
-619.361	-54.210	-0.248	-0.113
-618.346	249.859	0.061	-0.104
-617.332	800.000	0.004	-0.014
-616.317	-102.497	-0.097	-0.023
-615.303	792.107	-0.068	0.187
-614.288	800.000	-0.121	0.336
-613.273	149.084	0.111	0.152
-612.259	-145.608	-0.283	-0.026
-611.244	304.900	-0.075	-0.140
-610.230	18.560	-0.127	-0.102
-609.215	-71.408	-0.366	-0.138
-608.201	-200.000	-0.061	-0.333
-607.186	800.000	0.052	0.209
-606.171	-200.000	0.065	0.328
-605.157	-200.000	-0.005	-0.081
-604.142	-200.000	-0.008	-0.127
-603.128	533.185	0.077	-0.183
-602.113	-26.779	0.233	0.137
-601.098	251.505	0.146	0.250
-600.084	30.504	-0.255	0.220
-599.069	-54.250	-0.277	-0.127
-598.055	-105.356	-0.140	-0.032
-597.040	-200.000	-0.010	-0.199
-596.025	-200.000	-0.030	0.296
-595.011	-1.828	0.141	0.100
-593.996	-200.000	0.053	-0.272
-592.982	289.430	-0.056	0.102
-591.967	800.000	0.052	0.195
-590.952	-47.433	0.228	-0.112
-589.938	22.021	-0.113	-0.093
-588.923	139.844	0.185	-0.245
-587.909	-60.810	0.431	-0.184
-586.894	-43.036	0.245	0.125
-585.879	-110.142	0.075	0.016
-584.865	395.714	0.195	-0.409
-583.850	75.856	-0.260	0.276
-582.836	-6.260	-0.219	-0.150
-581.821	-126.934	0.238	0.035
-580.806	26.797	-0.126	-0.106
-579.792	-141.538	-0.205	0.021
-578.777	685.493	-0.066	0.173
-577.763	-50.086	-0.039	0.019
-576.748	359.862	-0.105	-0.211
-575.733	-82.248	-0.393	0.129
-574.719	800.000	0.087	0.370
-573.704	-200.000	-0.040	-0.361
-572.690	-200.000	-0.050	-0.304
-571.675	-64.939	-0.317	0.129
-570.661	8.086	0.108	0.081
-569.646	-200.000	-0.024	-0.216
-568.631	-48.611	-0.149	-0.072
-567.617	-122.832	0.321	-0.052
-566.602	-133.968	-0.185	-0.023
-565.588	47.052	-0.193	-0.180
-564.573	404.654	0.116	0.246
-563.558	-82.309	0.151	-0.049
-562.544	169.263	0.052	-0.074
-561.529	-67.243	-0.259	0.103
-560.515	126.281	-0.094	-0.119
-559.500	-28.080	0.097	0.056
-558.485	193.364	0.179	0.272
-557.471	-200.000	0.009	0.051
-556.456	-200.000	0.033	0.244
-555.442	-2.738	-0.166	-0.117
-554.427	-81.115	0.202	-0.067
-553.412	227.966	0.103	0.168
-552.398	83.017	-0.148	-0.162
-551.383	578.737	-0.066	-0.162
-550.369	-200.000	0.025	0.119
-549.354	-83.023	0.312	-0.101
-548.339	250.301	-0.038	-0.064
-547.325	16.977	-0.329	-0.262
-546.310	-2.377	0.034	0.024
-545.296	141.354	-0.100	-0.133
-544.281	-200.000	0.059	-0.394
-543.266	282.765	-0.056	-0.100
-542.252	3.627	0.094	-0.069
-541.237	-85.380	0.264	0.082
-540.223	-47.065	-0.114	0.056
-539.208	-193.149	0.182	-0.002
-538.193	-200.000	0.038	0.201
-537.179	800.000	-0.034	-0.143
-536.164	-41.517	0.229	0.118
-535.150	800.000	0.052	0.190
-534.135	501.000	0.093	0.215
-533.121	-144.730	-0.204	-0.019
-532.106	-79.120	0.154	-0.052
-531.091	-89.311	0.245	-0.073
-530.077	-200.000	-0.025	0.145
-529.062	574.698	0.101	-0.246
-528.048	101.391	0.106	-0.124
-527.033	46.380	-0.181	-0.168
-526.018	800.000	-0.060	0.195
-525.004	183.693	-0.083	-0.123
-523.989	-200.000	0.037	-0.512
-522.975	800.000	-0.042	-0.159
-521.960	-200.000	-0.004	-0.137
-520.945	-54.138	-0.135	-0.061
-519.931	36.026	0.210	-0.186
-518.916	-117.318	0.146	-0.027
-517.902	17.844	0.255	0.204
-516.887	3.047	-0.225	-0.164
-515.872	800.000	-0.104	-0.294
-514.858	-51.094	-0.144	-0.068
-513.843	164.214	-0.144	0.204
-512.829	-78.651	-0.250	-0.086
-511.814	20.837	-0.021	-0.017
-510.799	-88.263	0.136	-0.041
-509.785	-200.000	-0.059	-0.278
-508.770	192.138	0.166	0.251
-507.756	-200.000	0.092	-0.449
-506.741	58.144	0.112	-0.110
-505.726	800.000	-0.065	-0.194
-504.712	-55.710	-0.181	-0.081
-503.697	49.618	-0.004	-0.004
-502.683	-200.000	-0.032	-0.367
-501.668	-140.476	0.260	-0.027
-500.653	377.085	0.032	-0.066
-499.639	-200.000	0.031	0.344
-498.624	-0.164	0.164	0.117
-497.610	176.124	-0.007	0.010
-496.595	-30.198	-0.106	0.060
-495.581	2.863	-0.089	0.065
-494.566	-98.193	0.062	-0.016
-493.551	217.337	-0.169	0.270
-492.537	133.281	-0.058	0.074
-491.522	-200.000	-0.058	-0.304
-490.508	-85.477	0.325	0.101
-489.493	17.310	-0.107	-0.085
-488.478	-200.000	0.041	-0.182
-487.464	-200.000	-0.009	0.182
-486.449	341.265	-0.116	0.226
-485.435	-49.559	-0.365	-0.174
-484.420	-79.906	0.388	0.131
-483.405	253.382	-0.199	-0.341
-482.391	-38.187	0.430	0.228
-481.376	101.431	0.134	0.156
-480.362	-92.373	0.305	0.086
-479.347	590.671	-0.084	-0.207
-478.332	-185.227	0.525	-0.008
-477.318	-61.835	-0.314	0.132
-476.303	-200.000	-0.006	0.036
-475.289	-25.476	-0.057	0.034
-474.274	140.221	0.071	0.094
-473.259	-136.140	-0.195	0.023
-472.245	681.975	0.022	-0.057
-471.230	-178.501	-0.196	-0.005
-470.216	-110.171	0.255	0.053
-469.201	110.556	-0.279	0.335
-468.186	800.000	0.109	0.335
-467.172	36.660	0.243	0.215
-466.157	800.000	0.026	0.093
-465.143	-73.001	0.311	-0.114
-464.128	800.000	-0.050	-0.200
-463.113	-200.000	0.002	0.189
-462.099	92.817	0.076	0.086
-461.084	-165.207	-0.167	-0.007
-460.070	-120.185	0.194	-0.033
-459.055	293.578	0.194	0.355
-458.040	800.000	0.005	0.017
-457.026	717.232	-0.103	0.272
-456.011	-134.798	0.169	0.020
-454.997	-19.808	-0.260	-0.160
-453.982	-29.293	0.131	0.075
-452.968	-21.479	-0.376	-0.229
-451.953	-200.000	0.045	-0.357
-450.938	123.314	-0.068	-0.085
-449.924	-132.892	0.261	-0.033
-448.909	-57.401	0.299	-0.132
-447.895	-113.493	0.164	0.032
-446.880	111.618	-0.167	-0.202
-445.865	22.939	0.196	-0.161
-444.851	475.363	-0.088	-0.200
-443.836	414.519	-0.092	0.197
-442.822	187.636	0.074	0.110
-441.807	-200.000	-0.009	-0.216
-440.792	90.211	0.099	0.110
-439.778	-112.633	0.245	-0.049
-438.763	-79.119	-0.269	0.091
-437.749	-70.015	-0.236	-0.090
-436.734	800.000	-0.112	0.320
-435.719	800.000	-0.027	-0.088
-434.705	800.000	0.108	0.434
-433.690	-9.106	-0.132	0.088
-432.676	-170.146	0.215	0.008
-431.661	800.000	-0.117	-0.388
-430.646	-73.605	-0.194	-0.071
-429.632	-3.174	-0.143	-0.100
-428.617	-200.000	-0.029	-0.167
-427.603	-200.000	0.329	-0.001
-426.588	310.621	-0.069	-0.130
-425.573	-109.336	-0.093	0.020
-424.559	11.407	0.113	0.086
-423.544	-68.219	0.201	-0.078
-422.530	-5.196	0.316	0.217
-421.515	-170.912	-0.213	0.007
-420.500	407.479	-0.016	0.033
-419.486	-68.011	-0.267	-0.104
-418.471	-181.528	-0.247	0.005
-417.457	94.374	-0.077	-0.088
-416.442	-106.067	0.251	0.056
-415.428	-94.562	0.418	-0.114
-414.413	-200.000	0.020	0.270
-413.398	-65.230	0.174	-0.070
-412.384	81.989	0.070	0.076
-411.369	80.218	-0.058	-0.062
-410.355	18.058	0.133	-0.106
-409.340	457.492	0.007	-0.016
-408.325	670.454	-0.167	-0.431
-407.311	146.790	-0.219	-0.294
-406.296	55.076	0.287	-0.277
-405.282	-200.000	-0.034	0.347
-404.267	-141.200	-0.147	-0.015
-403.252	-140.620	0.162	-0.017
-402.238	-102.435	-0.227	0.054
-401.223	800.000	-0.097	0.274
-400.209	-96.365	0.183	0.048
-399.194	800.000	0.045	0.193
-398.179	84.798	-0.224	0.245
-397.165	8.619	0.183	0.138
-396.150	-48.838	-0.110	0.053
-395.136	-200.000	-0.006	0.124
-394.121	425.034	0.053	0.114
-393.106	482.485	-0.060	0.136
-392.092	800.000	0.116	0.496
-391.077	800.000	0.046	0.181
-390.063	-27.494	0.097	-0.056
-389.048	-117.079	0.426	-0.078
-388.033	-200.000	-0.029	0.145
-387.019	-71.149	0.164	-0.061
-386.004	-200.000	-0.012	0.054
-384.990	-125.539	0.323	-0.049
-383.975	-48.690	-0.070	0.033
-382.960	3.176	-0.414	-0.300
-381.946	-35.372	0.047	0.026
-380.931	308.406	-0.131	0.243
-379.917	130.645	-0.204	-0.261
-378.902	28.504	0.182	0.154
-377.888	-105.857	-0.155	-0.035
-376.873	31.384	0.310	-0.266
-375.858	13.201	-0.241	-0.186
-374.844	-200.000	0.013	0.230
-373.829	150.883	0.204	0.277
-372.815	-66.414	-0.267	0.106
-371.800	58.875	0.189	-0.186
-370.785	-41.258	0.171	-0.088
-369.771	-0.767	-0.239	0.169
-368.756	-162.922	-0.144	-0.007
-367.742	283.006	-0.026	-0.047
-366.727	-176.350	0.377	-0.010
-365.712	-144.298	-0.445	-0.041
-364.698	-16.457	-0.212	0.134
-363.683	631.033	-0.107	-0.271
-362.669	-60.372	-0.316	-0.134
-361.654	194.665	-0.133	0.201
-360.639	156.488	-0.129	0.177
-359.625	518.119	0.065	0.151
-358.610	-200.000	-0.004	-0.132
-357.596	-23.672	0.244	0.146
-356.581	-118.501	-0.385	0.068
-355.566	497.402	-0.084	0.193
-354.552	532.716	-0.083	0.197
-353.537	-128.417	-0.603	-0.085
-352.523	-123.267	0.343	-0.055
-351.508	-175.419	-0.407	-0.011
-350.493	-192.848	-0.491	-0.004
-349.479	-145.182	0.272	-0.025
-348.464	148.080	0.159	-0.214
-347.450	-200.000	0.000	-0.080
-346.435	-200.000	-0.043	0.231
-345.420	800.000	-0.065	0.235
-344.406	178.890	0.150	0.219
-343.391	76.934	0.135	0.143
-342.377	-52.830	-0.188	-0.086
-341.362	21.654	0.135	0.110
-340.348	800.000	-0.092	0.380
-339.333	594.027	0.022	-0.055
-338.318	293.359	0.158	-0.288
-337.304	-2.878	-0.089	-0.062
-336.289	800.000	-0.084	0.269
-335.275	11.468	-0.167	-0.128
-334.260	127.214	0.065	-0.082
-333.245	-16.217	-0.069	0.043
-332.231	104.627	-0.130	0.152
-331.216	627.727	-0.088	-0.220
-330.202	-57.894	0.246	0.107
-329.187	-29.136	-0.194	-0.110
-328.172	800.000	-0.040	0.149
-327.158	-132.402	0.215	0.028
-326.143	181.236	0.225	0.329
-325.129	-35.549	-0.289	-0.156
-324.114	54.048	0.119	0.114
-323.099	-64.787	0.281	-0.113
-322.085	-103.264	0.210	0.049
-321.070	-128.839	0.071	-0.010
-320.056	12.173	0.216	0.165
-319.041	-200.000	0.042	-0.214
-318.026	-200.000	-0.005	0.064
-317.012	288.030	-0.076	-0.137
-315.997	-104.846	-0.325	0.074
-314.983	-200.000	-0.039	0.233
-313.968	513.877	-0.109	0.254
-312.953	-34.750	-0.106	0.057
-311.939	98.841	0.047	-0.054
-310.924	103.491	-0.070	0.082
-309.910	-24.507	-0.196	0.116
-308.895	221.768	-0.105	-0.168
-307.880	-200.000	0.050	-0.251
-306.866	211.538	0.118	0.185
-305.851	-62.918	-0.086	0.035
-304.837	259.387	-0.095	-0.163
-303.822	602.513	0.088	0.218
-302.807	158.061	-0.091	0.126
-301.793	-43.897	-0.109	0.054
-300.778	-11.533	0.082	0.054
-299.764	-24.627	-0.209	0.124
-298.749	-142.525	0.134	0.013
-297.735	221.184	0.154	0.246
-296.720	194.339	0.192	0.289
-295.705	-181.484	0.252	-0.005
-294.691	-91.646	-0.026	-0.007
-293.676	800.000	-0.032	0.101
-292.662	215.493	0.175	0.276
-291.647	72.433	-0.271	0.281
-290.632	-63.278	-0.193	-0.079
-289.618	361.550	0.075	0.149
-288.603	94.717	0.177	0.200
-287.589	-40.076	0.102	0.053
-286.574	230.956	0.133	0.216
-285.559	26.440	0.165	0.137
-284.545	-200.000	0.000	0.174
-283.530	124.401	0.052	0.064
-282.516	-97.710	-0.182	-0.047
-281.501	251.742	0.149	-0.251
-280.486	-58.282	-0.223	0.097
-279.472	-38.895	0.147	-0.077
-278.457	-142.810	0.143	0.014
-277.443	-174.732	-0.195	0.005
-276.428	-200.000	-0.024	0.254
-275.413	218.940	-0.093	0.147
-274.399	2.107	0.073	0.052
-273.384	362.173	-0.077	-0.153
-272.370	357.028	0.143	-0.283
-271.355	800.000	0.033	0.143
-270.340	33.722	0.095	-0.082
-269.326	-200.000	0.004	-0.081
-268.311	505.122	-0.056	-0.128
-267.297	-127.760	0.225	-0.032
-266.282	-80.611	0.268	0.088
-265.267	52.441	0.186	-0.176
-264.253	-200.000	-0.008	0.071
-263.238	379.428	-0.041	-0.084
-262.224	-165.877	-0.161	0.007
-261.209	611.432	-0.059	-0.146
-260.195	562.071	0.149	0.358
-259.180	33.511	0.129	-0.111
-258.165	-200.000	-0.011	-0.324
-257.151	-114.203	-0.176	-0.034
-256.136	800.000	0.017	-0.067
-255.122	612.820	-0.073	0.182
-254.107	-59.027	0.434	-0.186
-253.092	127.667	-0.226	0.285
-252.078	-200.000	0.022	0.139
-251.063	-164.867	-0.314	0.014
-250.049	16.545	0.162	-0.127
-249.034	462.496	0.106	0.234
-248.019	288.601	0.166	-0.299
-247.005	-18.386	-0.067	-0.042
-245.990	-4.241	0.277	-0.190
-244.976	-56.340	0.044	0.019
-243.961	46.585	-0.272	0.251
-242.946	-171.495	0.315	0.010
-241.932	676.587	0.046	-0.119
-240.917	521.389	-0.066	-0.154
-239.903	-100.719	0.131	0.032
-238.888	101.395	-0.128	-0.148
-237.873	-23.828	-0.342	-0.203
-236.859	-36.112	0.549	-0.294
-235.844	-2.783	-0.338	-0.234
-234.830	-49.652	-0.361	0.170
-233.815	-165.734	0.119	0.005
-232.800	404.962	-0.094	-0.197
-231.786	-150.446	0.221	0.017
-230.771	241.541	-0.079	0.131
-229.757	184.888	-0.122	0.179
-228.742	-2.997	-0.273	-0.189
-227.727	56.903	0.154	-0.149
-226.713	-165.530	-0.052	0.002
-225.698	-200.000	-0.010	0.233
-224.684	-158.885	-0.037	-0.002
-223.669	20.971	-0.051	0.041
-222.655	109.271	0.061	-0.072
-221.640	-37.756	0.288	-0.152
-220.625	-197.036	-0.279	0.002
-219.611	800.000	-0.072	0.224
-218.596	74.894	-0.173	-0.181
-217.582	248.431	0.063	0.106
-216.567	168.772	-0.265	0.375
-215.552	-200.000	0.011	0.095
-214.538	136.095	-0.137	0.178
-213.523	-86.645	0.132	0.040
-212.509	-37.196	0.110	-0.058
-211.494	-200.000	0.051	-0.480
-210.479	49.403	0.130	-0.121
-209.465	-71.681	-0.460	-0.170
-208.450	800.000	-0.087	-0.239
-207.436	-200.000	0.013	-0.310
-206.421	47.160	-0.162	-0.149
-205.406	253.241	0.057	-0.097
-204.392	1.139	-0.402	0.286
-203.377	142.179	-0.037	-0.049
-202.363	-119.279	-0.376	-0.065
-201.348	-97.859	0.174	0.045
-200.333	-38.975	0.161	-0.084
-199.319	-60.277	0.177	0.075
-198.304	-130.922	-0.236	-0.031
-197.290	126.346	0.057	-0.072
-196.275	800.000	-0.044	-0.161
-195.260	239.128	0.100	0.165
-194.246	300.071	0.138	-0.251
-193.231	-89.901	-0.095	0.027
-192.217	-66.918	0.011	0.004
-191.202	-200.000	0.005	-0.069
-190.187	36.450	0.196	-0.171
-189.173	-73.402	0.117	-0.042
-188.158	530.521	-0.110	0.257
-187.144	-92.940	0.312	-0.086
-186.129	800.000	-0.070	-0.220
-185.114	-79.390	0.123	-0.041
-184.100	111.823	-0.166	-0.198
-183.085	800.000	-0.073	-0.244
-182.071	-117.811	-0.106	0.019
-181.056	-95.848	0.500	0.132
-180.042	92.085	-0.179	-0.199
-179.027	-96.784	-0.179	-0.047
-178.012	72.703	-0.191	0.198
-176.998	163.959	0.077	-0.107
-175.983	30.300	0.061	0.051
-174.969	181.008	0.076	0.111
-173.954	258.659	-0.226	0.386
-172.939	800.000	-0.044	0.125
-171.925	-200.000	0.005	0.246
-170.910	-200.000	0.000	-0.083
-169.896	-53.435	-0.204	-0.092
-168.881	109.720	0.235	-0.279
-167.866	712.344	-0.105	-0.274
-166.852	232.397	0.030	-0.049
-165.837	-64.006	0.094	-0.038
-164.823	-200.000	0.032	-0.236
-163.808	800.000	0.030	-0.125
-162.793	92.776	-0.063	-0.070
-161.779	-200.000	-0.005	0.078
-160.764	-200.000	0.040	0.291
-159.750	-27.436	0.247	-0.142
-158.735	46.771	0.273	0.250
-157.720	-165.422	0.127	-0.005
-156.706	-31.591	-0.151	-0.084
-155.691	-1.070	0.195	0.136
-154.677	94.687	-0.174	0.196
-153.662	-58.870	-0.119	-0.051
-152.647	430.554	0.129	0.276
-151.633	68.989	0.148	0.150
-150.618	-77.101	0.189	0.065
-149.604	204.741	0.084	-0.129
-148.589	-93.124	0.146	0.040
-147.574	-200.000	0.033	0.279
-146.560	746.554	-0.077	-0.204
-145.545	800.000	-0.056	0.161
-144.531	-10.815	-0.032	-0.021
-143.516	-22.344	0.142	0.085
-142.502	680.748	0.031	-0.079
-141.487	-138.608	-0.120	-0.013
-140.472	-176.043	0.248	-0.006
-139.458	171.904	0.092	-0.130
-138.443	-108.345	0.146	0.031
-137.429	284.068	0.076	-0.136
-136.414	-167.811	0.348	0.014
-135.399	30.228	0.264	-0.223
-134.385	-200.000	0.065	-0.331
-133.370	-49.979	-0.371	0.174
-132.356	-134.281	-0.191	0.023
-131.341	-60.078	0.114	-0.048
-130.326	3.020	0.255	0.183
-129.312	-82.535	0.468	0.150
-128.297	-98.296	0.325	0.082
-127.283	-200.000	-0.002	-0.278
-126.268	-200.000	0.005	0.087
-125.253	-111.667	0.285	0.057
-124.239	-200.000	-0.009	0.187
-123.224	-200.000	0.046	0.430
-122.210	-47.886	-0.051	-0.024
-121.195	109.539	-0.125	0.148
-120.180	3.617	0.223	0.161
-119.166	-9.647	0.129	0.085
-118.151	-45.641	0.446	0.218
-117.137	-28.258	0.014	0.008
-116.122	36.187	0.131	0.114
-115.107	352.034	0.134	-0.262
-114.093	267.059	0.013	0.022
-113.078	262.646	0.043	0.074
-112.064	99.639	-0.025	-0.029
-111.049	81.145	-0.217	0.231
-110.034	117.164	-0.105	0.128
-109.020	-138.310	0.080	-0.009
-108.005	-134.611	-0.224	0.027
-106.991	-149.922	0.175	-0.013
-105.976	20.147	-0.161	0.128
-104.962	68.450	0.148	-0.150
-103.947	-79.894	0.239	-0.079
-102.932	217.115	0.203	0.319
-101.918	800.000	-0.043	0.162
-100.903	-200.000	-0.059	0.452
-99.889	-200.000	0.058	-0.314
-98.874	509.171	-0.108	0.247
-97.859	21.268	0.204	0.164
-96.845	-200.000	-0.023	0.358
-95.830	12.302	0.188	0.143
-94.816	-183.648	-0.202	0.003
-93.801	113.026	-0.092	0.110
-92.786	11.038	0.211	-0.159
-91.772	-200.000	0.015	0.237
-90.757	-46.052	-0.163	0.079
-89.743	-200.000	-0.010	-0.113
-88.728	-180.826	0.252	-0.005
-87.713	-114.593	-0.254	-0.048
-86.699	-200.000	0.026	-0.204
-85.684	492.311	0.062	-0.141
-84.670	344.628	-0.164	-0.317
-83.655	685.248	-0.061	-0.158
-82.640	-117.265	-0.280	0.050
-81.626	800.000	0.004	-0.018
-80.611	200.449	-0.098	0.149
-79.597	-102.665	-0.362	0.085
-78.582	-200.000	0.052	0.465
-77.567	-66.314	0.119	-0.047
-76.553	-2.052	-0.182	-0.126
-75.538	204.323	-0.093	0.142
-74.524	-68.818	0.133	-0.051
-73.509	61.156	-0.160	-0.156
-72.494	-56.782	0.118	0.051
-71.480	-39.963	-0.174	0.090
-70.465	39.497	-0.362	-0.319
-69.451	-157.822	-0.042	-0.002
-68.436	8.566	-0.168	0.124
-67.422	-136.382	0.243	-0.028
-66.407	302.751	-0.142	-0.259
-65.392	-117.208	-0.111	-0.020
-64.378	474.340	-0.139	-0.309
-63.363	-108.846	-0.127	0.027
-62.349	-200.000	-0.014	-0.109
-61.334	91.338	-0.798	-0.883
-60.319	56.905	0.481	0.462
-59.305	800.000	-0.203	-0.856
-58.290	476.123	0.528	1.176
-57.276	260.498	0.967	1.646
-56.261	-200.000	96.751	579.091
-55.246	543.194	1388.098	3262.058
-54.232	157.328	2570.616	3503.168
-53.217	112.263	2146.719	2556.506
-52.203	44.724	1608.130	1456.703
-51.188	36.897	1346.159	1172.233
-50.173	33.633	1303.873	1116.197
-49.159	55.695	1351.075	1289.126
-48.144	58.075	1368.124	1319.572
-47.130	37.039	1325.877	1155.236
-46.115	33.409	1309.121	1119.185
-45.100	33.419	1303.756	1114.616
-44.086	33.276	1301.045	1111.414
-43.071	33.263	1298.758	1109.342
-42.057	33.181	1297.232	1107.510
-41.042	33.154	1295.746	1106.044
-40.027	33.267	1293.974	1105.146
-39.013	33.218	1292.137	1103.246
-37.998	33.280	1290.393	1102.076
-36.984	33.321	1288.602	1100.741
-35.969	33.380	1287.398	1100.010
-34.954	33.542	1284.847	1098.728
-33.940	33.414	1284.212	1097.398
-32.925	33.383	1282.601	1095.797
-31.911	33.405	1281.467	1094.914
-30.896	33.508	1279.323	1093.634
-29.881	33.461	1278.644	1092.741
-28.867	33.517	1276.743	1091.393
-27.852	33.555	1274.820	1089.924
-26.838	33.631	1273.638	1089.309
-25.823	33.480	1272.616	1087.523
-24.809	33.443	1271.036	1085.919
-23.794	33.501	1269.765	1085.123
-22.779	33.396	1269.031	1083.851
-21.765	33.472	1267.623	1083.040
-20.750	33.482	1265.932	1081.606
-19.736	33.393	1265.025	1080.281
-18.721	33.291	1264.043	1078.818
-17.706	33.207	1262.949	1077.365
-16.692	33.271	1261.559	1076.503
-15.677	33.377	1260.612	1076.253
-14.663	33.420	1259.361	1075.388
-13.648	33.329	1258.159	1073.799
-12.633	33.287	1257.576	1073.020
-11.619	33.376	1256.792	1072.815
-10.604	33.372	1255.618	1071.746
-9.590	33.332	1254.747	1070.733
-8.575	33.283	1253.742	1069.557
-7.560	33.231	1252.926	1068.523
-6.546	33.214	1252.397	1067.933
-5.531	33.217	1251.249	1066.933
-4.517	33.216	1250.486	1066.231
-3.502	33.328	1249.482	1065.966
-2.487	33.203	1248.766	1064.611
-1.473	33.192	1244.745	1061.074
-0.458	31.848	1230.128	1041.117
0.556	28.881	1212.940	1004.253
1.571	25.470	1219.358	990.709
2.586	24.697	1235.266	999.228
3.600	24.265	1224.726	988.219
4.615	17.892	1151.714	895.887
5.629	7.274	1073.091	782.474
6.644	2.477	1051.890	743.686
7.659	2.024	1049.437	739.693
8.673	1.999	1047.702	738.282
9.688	1.802	1046.438	736.375
10.702	2.508	1045.187	738.836
11.717	9.172	1055.725	778.609
12.731	19.438	1069.869	839.160
13.746	24.265	1075.963	867.417
14.761	25.076	1076.392	871.630
15.775	25.233	1075.570	871.651
16.790	24.886	1074.669	869.157
17.804	24.836	1074.689	868.856
18.819	25.094	1074.058	869.519
19.834	25.201	1073.386	869.418
20.848	25.179	1073.128	869.025
21.863	25.152	1072.347	868.184
22.877	25.096	1072.187	867.708
23.892	25.054	1071.513	866.883
24.907	25.014	1070.920	866.131
25.921	24.995	1069.492	864.810
26.936	25.020	1068.190	863.801
27.950	25.015	1066.757	862.540
28.965	24.814	1065.299	860.317
29.980	24.909	1063.491	859.238
30.994	25.140	1062.563	859.518
32.009	25.132	1061.540	858.575
33.023	24.957	1060.077	856.483
34.038	25.087	1059.249	856.356
35.053	25.052	1059.333	856.183
36.067	25.079	1058.029	855.181
37.082	25.292	1056.845	855.166
38.096	25.279	1056.910	855.082
39.111	25.386	1056.281	855.004
40.126	25.144	1054.933	852.686
41.140	24.889	1052.929	849.781
42.155	24.826	1051.324	848.113
43.169	24.681	1050.819	846.942
44.184	24.764	1049.957	846.565
45.199	24.634	1049.066	845.158
46.213	24.700	1048.085	844.605
47.228	24.986	1047.192	845.161
48.242	24.928	1046.606	844.337
49.257	24.972	1045.888	843.890
50.271	25.179	1044.908	844.000
51.286	25.144	1044.265	843.242
52.301	25.260	1043.088	842.764
53.315	25.181	1042.031	841.462
54.330	25.145	1041.372	840.685
55.344	25.071	1040.741	839.755
56.359	25.004	1039.331	838.232
57.374	24.948	1038.274	837.046
58.388	24.834	1037.915	836.148
59.403	24.917	1036.773	835.540
60.417	24.669	1036.394	834.006
61.432	24.698	1035.623	833.447
62.447	24.792	1035.000	833.310
63.461	24.926	1034.145	833.171
64.476	24.752	1033.366	831.661
65.490	24.645	1032.554	830.433
66.505	24.847	1031.555	830.495
67.520	24.758	1031.181	829.706
68.534	24.610	1030.248	828.198
69.549	24.351	1028.935	825.871
70.563	24.407	1027.527	824.926
71.578	24.268	1027.156	823.912
72.593	24.101	1026.311	822.392
73.607	24.339	1025.773	822.987
74.622	24.700	1025.463	824.330
75.636	24.569	1024.752	823.079
76.651	24.606	1023.815	822.425
77.666	24.377	1023.382	820.953
78.680	24.652	1022.483	821.424
79.695	24.528	1022.221	820.569
80.709	24.630	1021.745	820.583
81.724	24.497	1020.748	819.099
82.739	24.798	1019.394	819.321
83.753	25.219	1019.086	820.927
84.768	25.317	1018.668	820.962
85.782	25.507	1017.768	821.034
86.797	25.312	1016.695	819.208
87.812	25.179	1015.622	817.664
88.826	25.437	1014.413	817.790
89.841	25.440	1014.153	817.526
90.855	25.231	1013.404	815.898
91.870	25.349	1011.849	815.110
92.884	25.214	1011.046	813.776
93.899	25.194	1010.058	812.821
94.914	25.295	1009.106	812.438
95.928	25.196	1008.107	811.114
96.943	24.883	1007.148	808.857
97.957	24.765	1005.679	807.072
98.972	24.607	1004.651	805.465
99.987	24.965	1003.906	806.410
101.001	25.116	1002.999	806.287
102.016	25.130	1002.218	805.650
103.030	25.051	1001.231	804.434
104.045	24.899	1000.795	803.330
105.060	24.686	999.223	801.043
106.074	24.766	999.323	801.408
107.089	25.214	998.026	802.302
108.103	25.020	997.476	800.923
109.118	24.889	996.099	799.159
110.133	24.759	995.121	797.728
111.147	24.701	993.468	796.073
112.162	24.420	993.367	794.671
113.176	24.808	992.414	795.562
114.191	24.530	991.410	793.452
115.206	24.323	990.222	791.511
116.220	24.321	989.430	790.800
117.235	24.551	988.880	791.312
118.249	24.546	988.202	790.674
119.264	24.348	987.482	789.151
120.279	24.394	986.674	788.642
121.293	24.441	985.887	788.152
122.308	24.669	985.026	788.399
123.322	24.533	983.772	786.724
124.337	24.285	982.331	784.413
125.352	23.820	981.060	781.283
126.366	23.820	980.029	780.394
127.381	24.638	980.160	784.020
128.395	24.970	979.941	785.233
129.410	25.067	979.451	785.192
130.424	24.995	978.268	783.863
131.439	25.123	976.785	783.165
132.454	25.035	975.932	782.027
133.468	24.922	975.267	780.931
134.483	25.115	974.786	781.317
135.497	25.231	973.879	781.027
136.512	25.282	973.265	780.688
137.527	25.451	972.104	780.423
138.541	25.287	971.734	779.343
139.556	25.335	970.917	778.826
140.570	25.294	970.497	778.243
141.585	25.477	968.987	777.756
142.600	25.314	968.110	776.280
143.614	25.497	967.432	776.455
144.629	25.624	966.677	776.331
145.643	25.513	965.488	774.829
146.658	25.269	964.044	772.548
147.673	25.203	963.078	771.423
148.687	25.060	962.414	770.211
149.702	24.988	960.882	768.606
150.716	25.129	960.104	768.521
151.731	25.222	959.643	768.482
152.746	25.318	959.535	768.740
153.760	25.632	958.658	769.309
154.775	25.469	958.348	768.298
155.789	25.521	957.172	767.507
156.804	25.494	956.254	766.588
157.819	25.444	955.789	765.936
158.833	25.669	955.064	766.243
159.848	25.536	954.112	764.849
160.862	25.377	952.664	762.942
161.877	25.387	951.789	762.220
162.892	25.493	950.693	761.722
163.906	25.523	949.380	760.730
164.921	25.430	948.604	759.645
165.935	25.437	947.830	758.991
166.950	25.588	946.956	758.860
167.964	25.481	945.993	757.568
168.979	25.316	944.725	755.794
169.994	25.279	944.097	755.066
171.008	25.487	943.536	755.426
172.023	25.500	942.501	754.584
173.037	25.245	941.718	752.822
174.052	25.150	940.481	751.371
175.067	25.243	940.093	751.381
176.081	25.307	939.378	751.014
177.096	25.247	938.792	750.224
178.110	24.923	938.092	748.247
179.125	24.925	937.059	747.364
180.140	24.953	936.502	746.970
181.154	25.067	936.607	747.466
182.169	25.387	936.689	748.797
183.183	25.605	936.122	749.186
184.198	25.455	935.127	747.702
185.213	25.348	934.475	746.669
186.227	25.484	933.764	746.599
187.242	25.422	933.040	745.694
188.256	25.430	932.067	744.888
189.271	25.532	931.534	744.816
190.286	25.302	930.349	742.850
191.300	24.673	928.476	738.690
192.315	23.865	927.212	734.284
193.329	23.841	926.995	733.950
194.344	24.691	927.611	737.881
195.359	25.289	927.388	740.105
196.373	25.533	926.735	740.526
197.388	25.350	925.978	739.101
198.402	25.215	925.732	738.282
199.417	25.405	925.001	738.417
200.432	25.214	923.794	736.604
201.446	25.056	923.169	735.393
202.461	24.965	922.849	734.697
203.475	24.200	920.309	729.482
204.490	23.313	919.777	725.366
205.504	24.262	919.645	729.081
206.519	24.979	919.683	731.975
207.534	25.118	919.354	732.217
208.548	25.447	919.119	733.308
209.563	25.119	918.163	731.144
210.577	25.057	917.423	730.238
211.592	25.573	917.030	731.959
212.607	25.571	916.538	731.495
213.621	25.648	915.525	730.934
214.636	25.508	915.267	730.095
215.650	25.527	914.115	729.188
216.665	25.663	913.765	729.398
217.680	25.429	912.965	727.747
218.694	25.053	911.655	725.117
219.709	25.001	910.869	724.217
220.723	25.291	910.876	725.331
221.738	25.345	910.390	725.094
222.753	25.151	909.529	723.565
223.767	25.423	909.414	724.506
224.782	25.549	909.128	724.720
225.796	25.565	908.363	724.112
226.811	24.950	906.551	720.129
227.826	24.365	905.465	716.856
228.840	24.546	905.112	717.240
229.855	24.555	904.188	716.480
230.869	24.299	903.027	714.469
231.884	24.829	903.340	716.779
232.899	25.290	903.673	718.825
233.913	25.329	902.504	717.987
234.928	25.336	901.708	717.317
235.942	25.193	901.502	716.521
236.957	24.998	900.338	714.754
237.972	25.015	899.939	714.442
238.986	25.008	899.329	713.866
240.001	24.990	898.869	713.366
241.015	25.274	898.280	713.966
242.030	25.328	897.512	713.507
243.045	25.406	897.418	713.678
244.059	25.462	896.910	713.435
245.074	25.291	895.801	711.811
246.088	24.918	894.981	709.619
247.103	25.375	894.499	710.982
248.117	25.802	894.386	712.520
249.132	26.155	894.210	713.714
250.147	26.214	893.825	713.573
251.161	26.373	893.090	713.551
252.176	26.094	893.071	712.373
253.190	26.238	892.310	712.273
254.205	26.424	892.061	712.743
255.220	26.441	891.137	712.006
256.234	26.287	890.393	710.745
257.249	26.346	889.437	710.149
258.263	26.193	888.971	709.115
259.278	26.304	888.330	708.977
260.293	26.332	887.646	708.476
261.307	26.079	887.028	706.930
262.322	25.906	886.365	705.662
263.336	25.233	884.301	701.326
264.351	24.147	882.500	695.599
265.366	24.416	882.119	696.285
266.380	25.472	882.846	700.921
267.395	25.904	882.700	702.428
268.409	25.720	881.958	701.056
269.424	25.854	881.825	701.409
270.439	25.995	880.862	701.131
271.453	26.041	880.093	700.633
272.468	26.174	880.094	701.091
273.482	26.421	879.122	701.212
274.497	25.827	878.388	698.264
275.512	25.511	877.288	696.104
276.526	25.913	877.184	697.514
277.541	25.914	876.995	697.306
278.555	25.844	876.367	696.476
279.570	25.732	875.367	695.185
280.585	26.083	874.469	695.764
281.599	25.835	873.770	694.191
282.614	25.343	872.244	691.026
283.628	25.288	871.898	690.481
284.643	25.677	872.295	692.228
285.657	25.204	870.641	689.038
286.672	25.013	869.903	687.661
287.687	25.541	870.068	689.757
288.701	25.663	869.527	689.734
289.716	25.328	868.484	687.564
290.730	25.310	867.954	687.014
291.745	25.139	866.908	685.469
292.760	25.360	866.807	686.177
293.774	26.201	867.511	689.886
294.789	26.486	867.213	690.675
295.803	26.495	866.729	690.262
296.818	26.642	865.567	689.838
297.833	26.275	864.553	687.570
298.847	26.096	863.727	686.175
299.862	26.473	863.715	687.538
300.876	26.563	863.576	687.708
301.891	26.563	862.575	686.849
302.906	26.050	861.882	684.289
303.920	26.166	861.630	684.469
304.935	26.451	861.533	685.412
305.949	26.452	860.511	684.544
306.964	26.254	859.958	683.292
307.979	26.362	859.459	683.246
308.993	26.651	859.106	683.996
310.008	26.750	858.587	683.896
311.022	26.402	857.879	681.957
312.037	26.312	857.071	680.918
313.052	26.110	856.292	679.476
314.066	25.079	854.500	674.118
315.081	24.729	854.092	672.421
316.095	25.638	854.304	675.946
317.110	26.079	854.367	677.594
318.125	25.322	852.559	673.260
319.139	24.247	851.126	668.044
320.154	24.192	851.059	667.726
321.168	25.197	851.352	671.661
322.183	25.918	850.976	674.003
323.197	26.100	850.947	674.601
324.212	26.271	850.831	675.088
325.227	26.439	849.534	674.627
326.241	26.204	849.258	673.470
327.256	26.022	848.635	672.238
328.270	25.998	847.727	671.369
329.285	25.847	846.937	670.124
330.300	25.731	846.069	668.949
331.314	25.902	846.346	669.743
332.329	26.419	845.637	671.041
333.343	26.516	845.613	671.320
334.358	26.475	845.140	670.736
335.373	26.397	845.407	670.600
336.387	26.819	845.023	671.797
337.402	26.859	844.945	671.825
338.416	26.713	844.428	670.815
339.431	26.813	844.086	670.853
340.446	27.093	843.892	671.675
341.460	27.072	842.565	670.483
342.475	26.744	842.403	669.085
343.489	26.851	842.252	669.300
344.504	27.166	841.441	669.756
345.519	27.363	841.593	670.543
346.533	27.392	841.075	670.179
347.548	27.283	840.439	669.212
348.562	27.212	840.094	668.616
349.577	27.049	839.624	667.585
350.592	27.197	838.525	667.194
351.606	27.302	838.060	667.151
352.621	27.038	837.047	665.317
353.635	27.066	836.289	664.758
354.650	26.364	834.654	660.835
355.665	25.359	833.415	656.128
356.679	25.879	833.020	657.657
357.694	26.209	832.834	658.653
358.708	26.115	832.153	657.717
359.723	26.599	832.118	659.391
360.738	26.812	831.978	660.000
361.752	26.891	831.538	659.878
362.767	27.322	831.107	661.043
363.781	27.684	830.356	661.701
364.796	27.509	830.698	661.280
365.810	27.530	830.148	660.860
366.825	27.650	829.308	660.568
367.840	27.329	828.911	659.032
368.854	26.909	827.406	656.256
369.869	27.042	827.255	656.560
370.883	26.953	826.795	655.814
371.898	26.677	826.907	654.848
372.913	27.059	826.083	655.516
373.927	27.058	825.969	655.365
374.942	27.187	825.509	655.408
375.956	27.355	825.175	655.691
376.971	27.482	824.955	655.914
377.986	27.605	824.329	655.802
379.000	27.649	823.499	655.239
380.015	27.393	822.902	653.788
381.029	27.431	822.330	653.414
382.044	27.576	821.925	653.554
383.059	27.641	821.554	653.435
384.073	27.477	821.183	652.493
385.088	27.492	820.544	651.981
386.102	27.459	819.324	650.837
387.117	27.313	818.865	649.893
388.132	26.898	817.950	647.627
389.146	26.526	816.874	645.392
390.161	26.946	816.825	646.792
391.175	27.339	816.675	648.016
392.190	26.869	815.800	645.594
393.205	25.471	813.688	638.899
394.219	24.063	811.765	632.335
395.234	23.996	811.685	631.977
396.248	25.697	812.940	638.945
397.263	27.245	813.635	644.930
398.278	27.009	813.656	644.052
399.292	26.891	812.721	642.836
400.307	26.903	812.081	642.315
401.321	26.946	812.024	642.365
402.336	27.371	811.562	643.447
403.350	27.665	811.871	644.674
404.365	28.021	811.561	645.627
405.380	28.264	811.706	646.546
406.394	28.294	811.159	646.158
407.409	28.288	810.156	645.282
408.423	28.138	810.113	644.660
409.438	28.268	809.502	644.575
410.453	28.316	809.080	644.353
411.467	28.237	808.629	643.657
412.482	28.234	808.256	643.292
413.496	28.385	807.869	643.459
414.511	28.286	807.726	642.938
415.526	28.277	807.072	642.331
416.540	28.068	806.284	640.916
417.555	27.989	805.111	639.647
418.569	28.001	805.251	639.744
419.584	27.896	804.740	638.916
420.599	27.761	803.948	637.759
421.613	110.822	1284.172	1455.247
422.628	95.723	1354.161	1455.362
