DTS Sentinel unit serial number:	SN413079Multiplexer serial number:	ORYXHardware model number:	OX4-SRSoftware version number:	ORYX F/W v4.00 Oryx Data Collector v3.7.2.0data status	okinstallation	princeton_trtdifferential loss correction	single-endedforward channel	channel 1reverse channel	N/Adate	2019/09/11time	23:36:11forward acquisition time	60.00reverse acquisition time	0.00gamma	496.2192k internal	0.2318k external	0.2318temperature offset calibration	1.0066default loss term (dB/km)	0.3790temperature slope calibration	1.0000multiplexer offset coefficient	1.0000multiplexer slope coefficient	1.0000fibre end	0.00T internal ref (°C)	34.16T ext. ref 1 (°C)	1.85T ext. ref 2 (°C)	28.60length (m)	temperature (°C)	Stokes	anti-Stokes-747.200	-2.397	-0.153	-0.109
-746.185	-130.607	0.120	-0.016
-745.171	-200.000	0.013	0.112
-744.156	104.000	0.264	0.314
-743.142	121.409	0.312	-0.394
-742.127	800.000	-0.024	0.092
-741.112	-73.423	-0.116	0.043
-740.098	22.620	0.081	-0.067
-739.083	-200.000	0.007	-0.205
-738.069	-200.000	0.005	0.131
-737.054	-39.638	0.201	-0.106
-736.039	571.604	-0.158	0.388
-735.025	199.452	0.083	-0.129
-734.010	800.000	-0.090	-0.337
-732.996	-176.105	-0.420	-0.011
-731.981	-200.000	-0.039	0.284
-730.966	800.000	0.023	0.094
-729.952	800.000	-0.096	-0.319
-728.937	-90.770	-0.240	0.070
-727.923	608.731	-0.072	0.181
-726.908	-200.000	-0.038	0.271
-725.894	20.371	-0.112	-0.091
-724.879	-159.299	-0.082	-0.005
-723.864	-6.059	-0.296	-0.205
-722.850	-58.731	-0.183	-0.080
-721.835	-200.000	0.044	0.347
-720.821	171.097	-0.072	-0.104
-719.806	14.919	-0.110	-0.087
-718.791	-128.682	0.267	0.038
-717.777	-76.490	-0.168	-0.060
-716.762	171.991	-0.166	-0.241
-715.748	-97.836	0.171	0.045
-714.733	-200.000	-0.019	-0.181
-713.718	-70.740	0.160	-0.061
-712.704	232.028	0.085	0.140
-711.689	-200.000	0.051	-0.229
-710.675	-133.453	-0.173	0.022
-709.660	-200.000	-0.007	-0.157
-708.645	34.757	0.038	-0.034
-707.631	22.169	0.065	-0.054
-706.616	16.837	0.162	-0.130
-705.602	-104.163	-0.211	-0.050
-704.587	-26.203	-0.186	-0.110
-703.572	43.541	-0.159	-0.147
-702.558	-200.000	-0.043	-0.464
-701.543	800.000	0.088	-0.257
-700.529	-131.025	-0.116	-0.016
-699.514	32.140	-0.388	-0.338
-698.499	-79.922	-0.166	-0.056
-697.485	136.860	0.101	-0.133
-696.470	-95.539	-0.237	-0.064
-695.456	-110.856	0.278	0.058
-694.441	391.099	-0.118	0.248
-693.426	-147.921	0.298	0.025
-692.412	-200.000	0.003	-0.145
-691.397	-60.175	-0.062	-0.027
-690.383	-123.312	0.238	0.038
-689.368	197.847	-0.067	0.103
-688.354	9.663	-0.272	-0.208
-687.339	309.016	0.131	-0.247
-686.324	766.714	-0.048	-0.131
-685.310	-200.000	0.010	-0.085
-684.295	-108.840	-0.253	0.055
-683.281	-200.000	-0.091	-0.438
-682.266	-10.886	-0.149	-0.099
-681.251	556.904	-0.054	0.130
-680.237	73.268	-0.063	0.067
-679.222	-200.000	0.027	0.302
-678.208	549.216	0.081	-0.195
-677.193	-74.420	-0.467	0.170
-676.178	-200.000	-0.008	0.127
-675.164	101.580	-0.229	-0.270
-674.149	-66.955	-0.477	0.190
-673.135	800.000	-0.065	0.190
-672.120	346.618	0.163	-0.324
-671.105	174.645	-0.075	-0.110
-670.091	185.122	0.129	-0.193
-669.076	304.047	-0.168	-0.314
-668.062	130.790	-0.170	0.220
-667.047	-48.527	-0.308	-0.150
-666.032	730.521	0.144	0.389
-665.018	259.318	-0.093	0.162
-664.003	-81.672	0.332	-0.110
-662.989	634.602	0.007	-0.018
-661.974	280.522	-0.014	0.026
-660.959	441.008	0.128	0.282
-659.945	765.791	0.032	-0.088
-658.930	-172.234	-0.335	0.011
-657.916	-114.751	-0.149	-0.029
-656.901	608.216	-0.052	0.130
-655.886	800.000	-0.036	0.124
-654.872	-112.722	0.136	0.027
-653.857	-71.134	-0.170	0.064
-652.843	800.000	-0.040	-0.159
-651.828	800.000	-0.066	0.276
-650.814	142.403	-0.069	0.092
-649.799	-200.000	-0.003	0.297
-648.784	433.586	-0.085	0.186
-647.770	13.736	0.212	-0.166
-646.755	15.426	-0.173	-0.137
-645.741	-188.055	-0.131	-0.002
-644.726	689.655	0.115	0.303
-643.711	-2.656	0.175	0.123
-642.697	-200.000	-0.002	-0.069
-641.682	-118.167	0.069	0.012
-640.668	-29.708	-0.256	-0.147
-639.653	277.867	-0.208	-0.373
-638.638	-200.000	-0.010	0.149
-637.624	78.680	0.121	-0.130
-636.609	72.745	-0.233	-0.245
-635.595	-200.000	0.041	0.276
-634.580	-200.000	-0.049	-0.235
-633.565	136.450	-0.164	-0.215
-632.551	-41.209	0.220	-0.114
-631.536	-200.000	-0.128	-0.566
-630.522	-200.000	-0.034	0.328
-629.507	-116.571	-0.140	-0.026
-628.492	-1.822	-0.059	0.042
-627.478	-142.717	0.178	0.017
-626.463	-9.072	0.042	0.028
-625.449	-104.031	0.300	0.070
-624.434	414.046	0.113	0.242
-623.419	150.631	0.075	0.102
-622.405	-62.548	0.298	-0.125
-621.390	473.938	0.129	0.292
-620.376	-86.490	-0.299	0.093
-619.361	-128.881	-0.194	-0.028
-618.346	-146.997	0.189	-0.016
-617.332	-103.080	-0.027	0.006
-616.317	-26.946	-0.185	0.109
-615.303	0.473	-0.173	0.124
-614.288	96.750	0.340	-0.392
-613.273	118.613	0.270	0.336
-612.259	-45.488	0.170	-0.085
-611.244	98.751	-0.144	-0.167
-610.230	55.391	0.312	-0.304
-609.215	800.000	-0.071	0.254
-608.201	800.000	0.056	0.166
-607.186	-200.000	-0.009	-0.183
-606.171	-28.565	0.156	-0.091
-605.157	452.646	0.076	0.170
-604.142	5.213	-0.220	0.163
-603.128	-33.722	-0.243	0.135
-602.113	30.070	-0.021	-0.018
-601.098	194.428	-0.085	-0.130
-600.084	-200.000	-0.067	-0.306
-599.069	-34.710	-0.118	-0.065
-598.055	-200.000	-0.026	-0.273
-597.040	-200.000	0.335	0.000
-596.025	800.000	-0.060	-0.177
-595.011	152.458	0.139	-0.191
-593.996	168.919	-0.042	-0.060
-592.982	-58.942	0.188	-0.082
-591.967	-58.834	-0.129	0.056
-590.952	-41.460	-0.366	-0.189
-589.938	56.470	-0.282	-0.276
-588.923	510.220	0.164	0.383
-587.909	-34.101	0.102	0.056
-586.894	-87.759	-0.115	0.035
-585.879	-136.348	0.006	0.001
-584.865	-71.820	0.150	-0.056
-583.850	-70.445	0.173	-0.066
-582.836	369.992	-0.161	0.327
-581.821	-200.000	-0.001	-0.033
-580.806	-200.000	-0.096	-0.487
-579.792	-200.000	0.023	0.132
-578.777	-99.625	-0.243	0.061
-577.763	-74.143	-0.154	-0.056
-576.748	24.519	-0.117	-0.097
-575.733	33.338	0.187	0.163
-574.719	66.152	-0.093	0.095
-573.704	71.104	-0.182	0.190
-572.690	-200.000	0.043	-0.227
-571.675	-14.672	-0.053	-0.034
-570.661	-74.671	0.252	-0.091
-569.646	-144.179	-0.175	-0.016
-568.631	800.000	-0.057	-0.178
-567.617	-195.946	0.106	0.001
-566.602	-200.000	0.039	0.278
-565.588	109.309	0.180	-0.217
-564.573	92.169	0.187	-0.212
-563.558	800.000	-0.087	-0.370
-562.544	-131.315	0.332	0.044
-561.529	-61.662	0.098	-0.041
-560.515	800.000	-0.013	-0.040
-559.500	40.400	0.171	0.155
-558.485	-91.812	0.056	0.016
-557.471	-89.662	-0.162	-0.048
-556.456	-200.000	0.004	0.057
-555.442	122.526	0.278	0.350
-554.427	-111.629	0.336	-0.069
-553.412	-200.000	0.001	0.237
-552.398	334.082	0.153	0.297
-551.383	308.872	0.188	-0.353
-550.369	-200.000	-0.027	-0.203
-549.354	800.000	0.131	0.432
-548.339	17.833	-0.154	-0.123
-547.325	-0.836	-0.117	-0.083
-546.310	-98.441	0.144	0.037
-545.296	-22.092	-0.179	0.109
-544.281	800.000	0.026	-0.109
-543.266	-68.108	0.297	-0.116
-542.252	-65.609	0.094	0.038
-541.237	800.000	0.075	0.223
-540.223	-1.423	-0.093	-0.066
-539.208	26.706	-0.118	0.099
-538.193	368.103	0.073	0.149
-537.179	-90.170	-0.287	-0.084
-536.164	-68.206	0.314	0.123
-535.150	-104.144	-0.206	0.048
-534.135	158.555	0.055	-0.076
-533.121	-90.028	-0.145	0.042
-532.106	54.476	-0.308	-0.297
-531.091	127.922	0.059	-0.075
-530.077	-118.691	-0.081	0.014
-529.062	10.953	0.020	0.015
-528.048	755.653	-0.061	0.165
-527.033	-7.068	0.065	-0.044
-526.018	291.279	-0.079	-0.144
-525.004	424.070	-0.122	-0.264
-523.989	-200.000	0.022	-0.483
-522.975	-24.884	0.102	-0.061
-521.960	-92.960	0.178	-0.050
-520.945	83.427	-0.200	0.219
-519.931	-76.068	-0.196	-0.069
-518.916	-200.000	-0.020	0.227
-517.902	18.931	0.128	-0.103
-516.887	-200.000	0.010	0.197
-515.872	162.876	0.143	0.201
-514.858	-200.000	-0.029	-0.264
-513.843	-200.000	-0.013	-0.147
-512.829	404.467	0.065	-0.136
-511.814	111.544	-0.281	0.340
-510.799	-200.000	0.035	-0.203
-509.785	352.283	0.102	0.204
-508.770	592.574	0.078	-0.194
-507.756	20.867	0.155	-0.126
-506.741	143.634	-0.182	-0.243
-505.726	207.519	-0.121	-0.190
-504.712	-200.000	-0.044	-0.285
-503.697	452.791	0.168	0.373
-502.683	57.575	0.201	-0.197
-501.668	-57.539	-0.121	0.053
-500.653	106.362	0.122	0.145
-499.639	-101.368	0.110	-0.027
-498.624	296.539	0.166	-0.305
-497.610	-38.770	-0.158	-0.084
-496.595	-109.770	0.154	-0.032
-495.581	1.345	0.273	-0.197
-494.566	27.990	-0.199	0.168
-493.551	-200.000	0.079	0.505
-492.537	-113.661	-0.121	-0.024
-491.522	-200.000	0.011	-0.071
-490.508	-111.176	0.360	0.074
-489.493	-200.000	-0.005	-0.026
-488.478	-15.152	0.169	-0.109
-487.464	64.234	-0.188	0.190
-486.449	36.445	-0.265	0.234
-485.435	-200.000	0.006	-0.069
-484.420	-200.000	0.083	-0.645
-483.405	-86.041	0.142	0.044
-482.391	-193.183	0.250	-0.002
-481.376	-24.003	0.181	0.108
-480.362	-100.695	-0.200	0.049
-479.347	33.791	0.149	-0.130
-478.332	-52.033	0.204	-0.095
-477.318	800.000	-0.095	-0.406
-476.303	-16.205	-0.090	-0.057
-475.289	-200.000	0.017	0.206
-474.274	182.384	0.133	-0.196
-473.259	-31.066	0.052	-0.029
-472.245	-65.266	-0.097	-0.039
-471.230	-49.443	-0.280	0.134
-470.216	-200.000	0.000	0.221
-469.201	66.945	-0.112	0.114
-468.186	152.302	-0.200	-0.273
-467.172	68.831	-0.180	0.185
-466.157	-42.198	0.296	-0.151
-465.143	684.087	-0.004	0.011
-464.128	-200.000	0.028	-0.145
-463.113	106.596	-0.150	-0.179
-462.099	210.024	0.163	0.257
-461.084	-7.587	0.230	0.156
-460.070	-83.579	0.618	0.198
-459.055	800.000	0.047	-0.193
-458.040	267.700	0.069	-0.121
-457.026	529.612	-0.094	-0.223
-456.011	-10.114	0.229	-0.152
-454.997	-107.166	0.249	0.055
-453.982	-96.434	-0.272	-0.072
-452.968	191.198	-0.135	-0.203
-451.953	142.754	-0.120	-0.160
-450.938	-21.070	0.186	-0.114
-449.924	241.992	0.211	-0.352
-448.909	-132.005	-0.129	0.017
-447.895	736.019	-0.089	0.240
-446.880	-4.238	-0.142	-0.098
-445.865	-128.496	-0.157	-0.022
-444.851	69.363	-0.094	-0.097
-443.836	-200.000	0.025	-0.138
-442.822	-200.000	-0.017	-0.099
-441.807	-56.302	0.407	0.181
-440.792	17.213	-0.157	0.124
-439.778	-30.818	0.298	0.169
-438.763	-14.226	-0.092	0.059
-437.749	-114.706	0.111	-0.021
-436.734	137.748	0.151	-0.197
-435.719	-45.954	0.178	0.088
-434.705	-148.921	-0.168	-0.014
-433.690	65.480	0.181	-0.183
-432.676	-200.000	-0.020	-0.208
-431.661	-129.038	0.442	0.062
-430.646	-14.045	0.226	0.146
-429.632	38.576	-0.125	-0.112
-428.617	-18.437	-0.145	-0.091
-427.603	-41.516	-0.254	-0.131
-426.588	-79.298	0.081	0.027
-425.573	737.020	-0.125	-0.336
-424.559	100.669	0.102	0.118
-423.544	23.898	-0.275	-0.227
-422.530	9.736	0.195	0.148
-421.515	-6.318	-0.095	0.065
-420.500	-115.093	0.512	-0.097
-419.486	-112.488	-0.234	-0.047
-418.471	800.000	-0.019	0.062
-417.457	-89.954	0.184	0.054
-416.442	-200.000	0.011	0.185
-415.428	-200.000	-0.001	0.169
-414.413	502.155	0.079	-0.181
-413.398	-41.228	0.236	-0.122
-412.384	800.000	-0.121	-0.362
-411.369	100.084	0.279	0.324
-410.355	208.824	-0.168	0.262
-409.340	800.000	0.088	0.283
-408.325	-200.000	0.070	0.322
-407.311	-200.000	0.037	-0.270
-406.296	126.958	-0.048	-0.060
-405.282	155.584	-0.132	0.182
-404.267	131.497	-0.189	-0.243
-403.252	-9.213	-0.198	-0.132
-402.238	-24.513	-0.289	-0.172
-401.223	16.125	-0.120	-0.095
-400.209	101.563	-0.118	-0.137
-399.194	-21.256	-0.126	-0.077
-398.179	173.410	0.196	-0.282
-397.165	183.224	0.100	0.148
-396.150	-200.000	0.001	-0.064
-395.136	-200.000	0.002	0.060
-394.121	-48.440	-0.294	0.141
-393.106	19.573	0.049	-0.039
-392.092	-4.733	0.124	-0.085
-391.077	-22.564	0.106	0.064
-390.063	0.888	0.071	-0.051
-389.048	36.137	0.093	-0.081
-388.033	-39.550	-0.111	-0.058
-387.019	-27.301	-0.328	0.191
-386.004	-200.000	0.002	0.361
-384.990	-200.000	-0.002	0.419
-383.975	-116.070	-0.024	0.005
-382.960	51.405	-0.243	-0.230
-381.946	180.344	0.211	0.309
-380.931	-54.627	0.360	0.162
-379.917	-200.000	-0.033	0.166
-378.902	-191.438	-0.414	0.004
-377.888	361.542	-0.030	0.059
-376.873	-76.858	0.076	0.026
-375.858	111.583	0.024	0.029
-374.844	-161.514	-0.072	-0.004
-373.829	-100.717	-0.157	0.039
-372.815	-200.000	0.001	-0.060
-371.800	-53.506	-0.382	0.174
-370.785	-9.240	0.181	-0.121
-369.771	184.520	0.134	0.198
-368.756	357.972	0.076	0.151
-367.742	23.389	0.103	0.084
-366.727	-108.882	0.086	0.018
-365.712	-172.130	0.400	0.013
-364.698	687.889	0.062	0.163
-363.683	-166.918	0.085	-0.003
-362.669	632.725	-0.063	-0.160
-361.654	-200.000	0.017	0.089
-360.639	-90.454	0.307	0.089
-359.625	-29.474	-0.109	-0.062
-358.610	-131.094	0.103	0.014
-357.596	-200.000	0.042	-0.216
-356.581	-12.658	-0.094	0.061
-355.566	-42.334	0.270	0.138
-354.552	86.283	-0.058	-0.064
-353.537	800.000	-0.054	0.198
-352.523	-200.000	-0.021	0.265
-351.508	-200.000	0.018	-0.118
-350.493	0.536	-0.146	-0.104
-349.479	-93.170	-0.107	0.030
-348.464	380.325	-0.048	0.099
-347.450	141.160	-0.071	-0.093
-346.435	41.318	-0.119	-0.108
-345.420	5.025	-0.113	-0.083
-344.406	800.000	-0.066	0.286
-343.391	133.290	0.081	-0.104
-342.377	-200.000	-0.028	-0.176
-341.362	-139.685	-0.345	-0.037
-340.348	-200.000	0.018	0.256
-339.333	-200.000	-0.004	0.249
-338.318	-63.898	-0.158	0.064
-337.304	-200.000	-0.055	0.255
-336.289	224.426	-0.174	0.280
-335.275	-97.425	0.055	-0.014
-334.260	-200.000	0.050	0.352
-333.245	25.857	-0.198	-0.164
-332.231	-8.450	0.283	0.189
-331.216	158.834	0.093	0.129
-330.202	800.000	-0.090	0.365
-329.187	-6.562	-0.221	-0.150
-328.172	-200.000	0.026	-0.154
-327.158	63.384	0.060	0.060
-326.143	-106.763	-0.126	-0.028
-325.129	800.000	0.129	0.445
-324.114	-190.616	-0.238	0.003
-323.099	499.535	0.121	0.279
-322.085	-112.743	-0.040	-0.008
-321.070	39.097	-0.264	-0.235
-320.056	42.702	-0.218	-0.198
-319.041	-200.000	-0.018	-0.215
-318.026	330.349	0.096	0.183
-317.012	575.488	0.127	-0.310
-315.997	800.000	-0.134	0.491
-314.983	-198.024	0.065	0.000
-313.968	-105.990	-0.072	0.016
-312.953	-109.055	0.094	-0.020
-311.939	-38.821	0.429	0.225
-310.924	422.638	-0.066	0.142
-309.910	800.000	0.056	-0.186
-308.895	-92.257	0.251	-0.070
-307.880	-200.000	-0.010	-0.216
-306.866	87.223	0.262	0.288
-305.851	-200.000	-0.043	0.378
-304.837	168.239	-0.145	-0.205
-303.822	-99.804	-0.385	-0.096
-302.807	-18.516	-0.347	0.216
-301.793	-142.712	-0.242	0.023
-300.778	-200.000	0.008	-0.093
-299.764	-59.341	-0.635	0.272
-298.749	62.604	-0.133	-0.132
-297.735	-68.022	0.276	-0.107
-296.720	95.991	0.090	-0.102
-295.705	-200.000	-0.015	-0.078
-294.691	-38.428	-0.109	0.058
-293.676	-200.000	0.028	0.165
-292.662	125.211	-0.277	-0.347
-291.647	-45.030	-0.238	-0.118
-290.632	-121.650	0.107	0.018
-289.618	116.374	-0.212	0.259
-288.603	800.000	-0.013	0.054
-287.589	576.857	-0.160	0.390
-286.574	-200.000	-0.005	0.197
-285.559	-200.000	-0.067	-0.617
-284.545	144.375	-0.185	-0.245
-283.530	-115.628	-0.133	0.025
-282.516	-106.661	0.198	-0.044
-281.501	-200.000	-0.034	-0.243
-280.486	117.486	-0.242	-0.296
-279.472	800.000	-0.121	-0.366
-278.457	429.266	-0.060	0.129
-277.443	-200.000	-0.011	-0.338
-276.428	23.697	-0.438	-0.358
-275.413	800.000	0.018	0.063
-274.399	27.832	-0.146	0.122
-273.384	121.507	-0.187	0.232
-272.370	161.952	0.183	-0.255
-271.355	293.203	-0.155	-0.281
-270.340	-34.945	-0.287	0.155
-269.326	-52.517	0.241	-0.111
-268.311	-115.095	-0.252	0.047
-267.297	57.011	-0.278	-0.270
-266.282	-200.000	0.000	0.304
-265.267	-200.000	-0.017	-0.237
-264.253	-7.061	0.164	-0.111
-263.238	32.141	-0.248	0.212
-262.224	-87.098	0.124	-0.037
-261.209	-200.000	-0.035	-0.166
-260.195	-6.069	0.242	-0.164
-259.180	22.071	-0.217	0.176
-258.165	610.074	0.062	-0.153
-257.151	-13.080	0.263	0.170
-256.136	334.141	-0.085	-0.164
-255.122	-200.000	0.032	0.223
-254.107	-98.935	-0.338	0.085
-253.092	-200.000	0.033	0.207
-252.078	149.306	-0.119	-0.160
-251.063	-68.807	-0.277	0.106
-250.049	209.171	0.420	0.653
-249.034	800.000	-0.017	-0.062
-248.019	800.000	0.052	0.216
-247.005	145.484	-0.151	0.201
-245.990	-163.782	0.091	-0.004
-244.976	-141.169	-0.180	0.018
-243.961	386.675	0.010	0.020
-242.946	-143.357	0.322	0.031
-241.932	186.703	-0.149	-0.221
-240.917	-116.428	0.046	0.008
-239.903	-53.921	0.425	0.192
-238.888	-115.706	0.169	0.031
-237.873	-200.000	-0.032	0.243
-236.859	-136.340	0.293	-0.034
-235.844	800.000	-0.100	-0.353
-234.830	88.348	0.210	0.231
-233.815	-200.000	-0.010	-0.102
-232.800	-31.237	-0.220	-0.123
-231.786	800.000	0.105	-0.322
-230.771	11.033	0.310	0.235
-229.757	800.000	0.049	0.154
-228.742	30.354	0.406	0.344
-227.727	658.680	0.069	-0.177
-226.713	142.512	-0.105	0.138
-225.698	-174.996	-0.115	-0.003
-224.684	5.588	-0.261	-0.191
-223.669	-75.819	-0.157	-0.055
-222.655	800.000	-0.047	-0.178
-221.640	664.441	-0.024	0.062
-220.625	-159.680	-0.353	0.019
-219.611	-200.000	-0.014	-0.156
-218.596	58.076	-0.254	0.246
-217.582	-200.000	0.027	0.184
-216.567	-200.000	0.001	-0.007
-215.552	54.523	-0.211	-0.201
-214.538	37.980	-0.256	-0.226
-213.523	320.105	0.129	0.243
-212.509	132.644	-0.236	-0.302
-211.494	517.169	0.145	0.336
-210.479	-106.374	-0.076	-0.017
-209.465	-116.578	-0.188	-0.034
-208.450	800.000	0.072	0.309
-207.436	-200.000	-0.012	-0.145
-206.421	58.052	-0.104	-0.101
-205.406	-96.615	0.307	0.080
-204.392	-15.673	0.155	0.098
-203.377	800.000	-0.042	-0.134
-202.363	-168.549	0.455	-0.017
-201.348	149.031	-0.185	-0.247
-200.333	59.689	-0.070	-0.068
-199.319	-200.000	-0.022	0.200
-198.304	-200.000	-0.001	0.043
-197.290	195.856	-0.199	0.299
-196.275	-200.000	0.042	0.197
-195.260	398.863	0.106	-0.221
-194.246	-18.697	0.141	-0.087
-193.231	143.956	0.222	0.293
-192.217	142.850	-0.154	0.203
-191.202	314.256	0.225	0.420
-190.187	-164.606	-0.133	0.006
-189.173	-112.505	-0.350	0.069
-188.158	-15.299	0.131	0.083
-187.144	67.427	0.160	0.162
-186.129	-105.522	0.202	0.045
-185.114	395.188	0.046	-0.095
-184.100	-13.386	-0.086	0.056
-183.085	335.899	0.087	0.168
-182.071	800.000	-0.063	-0.245
-181.056	-200.000	0.002	-0.163
-180.042	233.230	0.226	0.368
-179.027	-151.677	0.278	0.020
-178.012	-38.553	0.059	-0.031
-176.998	800.000	0.047	0.184
-175.983	800.000	-0.025	-0.095
-174.969	-88.718	-0.121	0.036
-173.954	48.247	0.220	-0.203
-172.939	-147.436	-0.139	0.012
-171.925	67.374	0.101	0.102
-170.910	20.603	-0.133	0.106
-169.896	800.000	-0.102	-0.317
-168.881	63.901	-0.175	-0.174
-167.866	-31.713	0.212	-0.118
-166.852	-106.945	0.231	-0.051
-165.837	-78.443	-0.402	0.136
-164.823	-200.000	-0.034	0.161
-163.808	-200.000	-0.006	0.077
-162.793	393.821	-0.077	-0.158
-161.779	-40.677	0.218	-0.112
-160.764	391.709	-0.065	0.134
-159.750	56.429	-0.141	0.135
-158.735	-95.939	-0.247	0.065
-157.720	-85.132	0.388	-0.120
-156.706	800.000	-0.047	-0.206
-155.691	52.719	-0.085	0.080
-154.677	-137.097	0.337	0.038
-153.662	-51.120	0.035	0.016
-152.647	-110.237	0.068	-0.014
-151.633	-27.069	0.147	0.085
-150.618	46.824	0.239	-0.220
-149.604	101.314	-0.066	0.076
-148.589	129.727	-0.125	0.158
-147.574	317.919	-0.090	-0.168
-146.560	736.353	-0.083	0.219
-145.545	51.977	0.161	-0.152
-144.531	-152.940	0.265	-0.018
-143.516	-49.697	0.207	-0.098
-142.502	-200.000	0.095	0.421
-141.487	-200.000	-0.032	-0.238
-140.472	-110.447	0.155	0.032
-139.458	107.601	0.103	0.121
-138.443	334.054	-0.148	0.282
-137.429	307.501	-0.135	0.250
-136.414	89.569	0.298	-0.328
-135.399	-200.000	0.020	0.193
-134.385	15.448	-0.170	0.132
-133.370	-56.650	0.318	0.139
-132.356	-200.000	-0.023	0.185
-131.341	-200.000	-0.004	0.264
-130.326	98.430	0.131	-0.149
-129.312	39.754	-0.194	0.172
-128.297	800.000	-0.100	0.348
-127.283	-121.002	0.233	-0.039
-126.268	-200.000	-0.035	0.381
-125.253	-200.000	-0.022	0.180
-124.239	57.975	-0.276	-0.267
-123.224	-7.842	0.190	0.127
-122.210	-200.000	0.052	0.358
-121.195	19.394	-0.126	-0.100
-120.180	148.186	-0.143	-0.190
-119.166	26.933	0.018	0.015
-118.151	-99.991	0.532	0.131
-117.137	172.657	-0.175	0.249
-116.122	49.230	-0.195	-0.181
-115.107	221.212	0.083	-0.131
-114.093	317.353	-0.051	0.096
-113.078	250.692	-0.044	0.073
-112.064	-200.000	0.033	-0.359
-111.049	-200.000	0.008	-0.267
-110.034	800.000	0.068	0.232
-109.020	-170.379	-0.167	-0.006
-108.005	-101.825	-0.127	-0.030
-106.991	-200.000	-0.042	0.206
-105.976	-49.301	-0.157	-0.074
-104.962	0.383	0.141	0.099
-103.947	-45.684	-0.259	0.127
-102.932	-65.675	0.243	-0.096
-101.918	169.924	-0.265	0.374
-100.903	-96.215	-0.389	-0.102
-99.889	800.000	-0.157	0.484
-98.874	-123.652	0.230	-0.036
-97.859	91.137	0.061	-0.068
-96.845	-140.218	0.418	0.043
-95.830	800.000	0.042	0.161
-94.816	-73.790	0.135	-0.048
-93.801	-200.000	0.006	-0.080
-92.786	419.480	-0.077	0.163
-91.772	-200.000	0.003	-0.025
-90.757	198.626	-0.101	-0.152
-89.743	-200.000	0.049	0.368
-88.728	800.000	0.112	0.312
-87.713	-200.000	0.027	-0.562
-86.699	800.000	-0.017	-0.047
-85.684	479.759	-0.071	0.159
-84.670	-112.163	0.379	-0.075
-83.655	33.792	-0.104	-0.089
-82.640	55.352	-0.234	0.223
-81.626	-200.000	0.069	0.316
-80.611	800.000	-0.044	0.176
-79.597	-117.178	0.088	0.016
-78.582	-200.000	0.040	0.288
-77.567	193.849	-0.126	0.188
-76.553	386.147	-0.072	0.147
-75.538	28.805	0.148	0.124
-74.524	-101.751	0.323	0.077
-73.509	103.268	0.301	0.347
-72.494	800.000	-0.110	0.415
-71.480	-140.585	-0.264	0.027
-70.465	-150.772	-0.337	0.025
-69.451	-144.094	-0.239	-0.022
-68.436	-165.337	-0.155	0.007
-67.422	-52.069	0.195	0.089
-66.407	-200.000	-0.034	0.234
-65.392	-37.877	0.388	0.203
-64.378	306.381	-0.152	0.279
-63.363	-200.000	0.038	0.214
-62.349	246.580	-0.044	0.073
-61.334	-44.766	-1.092	-0.537
-60.319	387.416	0.340	0.693
-59.305	233.963	-0.432	-0.700
-58.290	205.671	0.625	0.957
-57.276	800.000	0.428	1.692
-56.261	-200.000	98.057	591.033
-55.246	550.372	1394.305	3294.299
-54.232	154.040	2588.471	3496.606
-53.217	114.729	2155.470	2588.219
-52.203	45.775	1611.794	1467.659
-51.188	37.700	1349.053	1179.707
-50.173	34.339	1307.106	1123.215
-49.159	57.633	1356.484	1305.877
-48.144	61.033	1374.324	1343.348
-47.130	37.962	1328.376	1163.005
-46.115	34.253	1311.641	1126.418
-45.100	34.222	1306.209	1121.527
-44.086	34.092	1304.071	1118.882
-43.071	33.980	1301.996	1116.403
-42.057	33.943	1299.577	1114.065
-41.042	33.972	1298.162	1112.981
-40.027	34.029	1296.329	1111.694
-39.013	34.073	1294.706	1110.516
-37.998	34.044	1292.912	1108.765
-36.984	34.146	1291.215	1107.858
-35.969	34.242	1288.972	1106.447
-34.954	34.209	1287.610	1105.044
-33.940	34.294	1286.104	1104.202
-32.925	34.220	1284.912	1102.705
-31.911	34.216	1284.062	1101.908
-30.896	34.231	1282.193	1100.348
-29.881	34.183	1281.108	1099.098
-28.867	34.381	1279.174	1098.533
-27.852	34.263	1278.098	1096.891
-26.838	34.265	1276.804	1095.743
-25.823	34.146	1275.681	1094.055
-24.809	34.260	1273.941	1093.171
-23.794	34.107	1272.902	1091.361
-22.779	34.363	1270.722	1090.912
-21.765	34.276	1270.205	1089.927
-20.750	34.186	1268.964	1088.307
-19.736	34.234	1267.494	1087.275
-18.721	34.085	1266.414	1085.456
-17.706	34.073	1265.216	1084.317
-16.692	34.153	1264.081	1083.755
-15.677	34.187	1262.748	1082.763
-14.663	34.190	1261.822	1081.946
-13.648	34.028	1261.113	1080.372
-12.633	34.019	1260.004	1079.329
-11.619	34.163	1259.288	1079.491
-10.604	34.185	1257.939	1078.417
-9.590	34.178	1256.669	1077.245
-8.575	33.931	1256.842	1075.951
-7.560	34.029	1255.108	1074.978
-6.546	33.999	1254.614	1074.343
-5.531	33.991	1253.273	1073.108
-4.517	34.057	1252.837	1073.062
-3.502	34.071	1252.037	1072.415
-2.487	34.041	1251.422	1071.680
-1.473	33.953	1247.247	1067.563
-0.458	32.692	1232.196	1047.637
0.556	29.496	1214.637	1009.975
1.571	26.133	1219.993	995.821
2.586	25.357	1235.959	1004.426
3.600	24.712	1225.356	992.143
4.615	18.110	1151.807	897.956
5.629	7.174	1073.049	782.690
6.644	2.166	1051.227	742.411
7.659	1.854	1048.610	738.983
8.673	1.713	1047.446	737.415
9.688	1.679	1046.127	736.257
10.702	2.262	1044.651	737.972
11.717	8.983	1054.889	777.816
12.731	19.474	1069.010	839.458
13.746	24.217	1074.865	867.115
14.761	25.071	1075.382	871.610
15.775	24.997	1074.938	870.814
16.790	24.616	1074.546	868.571
17.804	24.520	1074.366	867.880
18.819	24.847	1073.514	868.702
19.834	24.947	1072.885	868.604
20.848	24.966	1072.520	868.322
21.863	24.903	1071.960	867.487
22.877	24.844	1071.372	866.648
23.892	24.835	1070.562	865.873
24.907	24.824	1070.131	865.392
25.921	24.787	1069.110	864.311
26.936	24.768	1067.754	863.049
27.950	24.863	1065.736	861.798
28.965	24.705	1064.278	859.783
29.980	24.733	1062.833	858.677
30.994	25.039	1061.734	859.179
32.009	24.924	1061.147	858.077
33.023	24.860	1059.438	856.311
34.038	24.838	1059.244	855.976
35.053	24.861	1058.892	855.726
36.067	24.886	1057.710	854.815
37.082	24.883	1057.285	854.381
38.096	25.061	1056.170	854.253
39.111	25.249	1055.470	854.507
40.126	25.024	1054.184	852.321
41.140	24.610	1052.664	849.047
42.155	24.638	1050.818	847.616
43.169	24.561	1049.912	846.445
44.184	24.636	1049.438	846.342
45.199	24.500	1048.250	844.667
46.213	24.592	1047.472	844.401
47.228	24.765	1046.836	844.629
48.242	24.736	1046.139	843.854
49.257	24.870	1045.157	843.623
50.271	24.963	1044.786	843.685
51.286	25.044	1043.785	843.183
52.301	25.100	1042.775	842.554
53.315	24.959	1041.710	840.960
54.330	24.762	1041.322	839.649
55.344	24.791	1040.164	838.773
56.359	24.810	1039.564	838.304
57.374	24.604	1038.636	836.519
58.388	24.664	1038.161	836.342
59.403	24.660	1036.903	835.239
60.417	24.424	1035.992	833.330
61.432	24.559	1035.136	833.195
62.447	24.675	1034.747	833.347
63.461	24.757	1034.035	833.084
64.476	24.589	1033.156	831.519
65.490	24.506	1031.974	830.108
66.505	24.578	1031.548	830.030
67.520	24.752	1030.521	829.936
68.534	24.530	1029.299	827.849
69.549	24.170	1028.625	825.563
70.563	24.166	1027.699	824.728
71.578	24.204	1027.092	824.346
72.593	24.020	1026.021	822.562
73.607	24.176	1025.598	822.871
74.622	24.365	1025.114	823.285
75.636	24.605	1024.456	823.790
76.651	24.481	1023.645	822.493
77.666	24.234	1023.019	820.777
78.680	24.389	1022.256	820.808
79.695	24.486	1021.615	820.666
80.709	24.547	1020.985	820.366
81.724	24.355	1020.696	819.182
82.739	24.618	1019.110	819.041
83.753	24.804	1019.315	819.986
84.768	25.184	1018.214	820.766
85.782	25.319	1016.925	820.272
86.797	25.213	1016.209	819.139
87.812	24.997	1015.200	817.265
88.826	25.155	1014.486	817.341
89.841	25.135	1013.690	816.537
90.855	25.280	1012.558	816.210
91.870	25.220	1012.143	815.534
92.884	25.021	1010.492	813.227
93.899	24.947	1009.525	812.039
94.914	25.213	1008.550	812.388
95.928	25.080	1007.790	811.104
96.943	24.827	1006.321	808.708
97.957	24.620	1005.162	806.771
98.972	24.466	1004.162	805.201
99.987	24.721	1003.863	806.037
101.001	24.967	1003.021	806.397
102.016	24.825	1001.998	804.864
103.030	24.739	1001.382	803.914
104.045	24.762	999.992	802.829
105.060	24.438	999.467	800.882
106.074	24.622	998.453	800.825
107.089	24.933	998.106	801.871
108.103	24.877	996.977	800.642
109.118	24.685	995.591	798.601
110.133	24.686	994.673	797.798
111.147	24.456	993.302	795.602
112.162	24.422	992.132	794.444
113.176	24.568	992.161	795.046
114.191	24.538	990.993	793.908
115.206	24.193	990.083	791.575
116.220	24.065	989.443	790.426
117.235	24.334	988.522	790.810
118.249	24.327	987.524	789.913
119.264	24.239	987.020	789.048
120.279	24.242	986.114	788.271
121.293	24.327	985.472	788.062
122.308	24.326	984.647	787.327
123.322	24.375	983.260	786.364
124.337	24.171	981.851	784.271
125.352	23.669	980.454	780.880
126.366	23.584	979.896	779.991
127.381	24.342	980.064	783.385
128.395	24.692	979.426	784.344
129.410	25.086	978.147	784.973
130.424	24.928	977.488	783.686
131.439	24.861	976.321	782.387
132.454	24.899	975.261	781.634
133.468	24.870	974.353	780.711
134.483	24.872	974.025	780.389
135.497	25.135	973.405	780.968
136.512	25.110	972.816	780.315
137.527	25.223	971.588	779.754
138.541	25.123	971.179	778.925
139.556	25.023	970.676	778.018
140.570	25.137	969.719	777.675
141.585	25.230	968.650	777.151
142.600	25.125	967.538	775.735
143.614	25.203	967.082	775.639
144.629	25.395	966.229	775.718
145.643	25.200	964.659	773.546
146.658	25.067	963.567	772.029
147.673	24.938	962.316	770.405
148.687	24.910	961.221	769.340
149.702	24.820	960.471	768.282
150.716	24.799	959.774	767.570
151.731	25.024	958.970	767.823
152.746	25.253	958.397	768.276
153.760	25.294	957.635	767.774
154.775	25.376	957.173	767.684
155.789	25.342	956.282	766.758
156.804	25.303	955.267	765.711
157.819	25.276	954.779	765.133
158.833	25.430	954.066	765.153
159.848	25.468	952.800	764.231
160.862	25.378	951.781	762.965
161.877	25.181	951.151	761.556
162.892	25.246	950.452	761.205
163.906	25.214	949.102	759.918
164.921	25.246	948.032	759.132
165.935	25.416	947.681	759.501
166.950	25.286	946.721	758.114
167.964	25.356	945.583	757.434
168.979	25.226	944.499	755.951
169.994	25.109	944.031	755.014
171.008	25.381	943.343	755.542
172.023	25.236	942.724	754.368
173.037	25.096	941.567	752.790
174.052	24.827	940.242	750.537
175.067	24.887	940.105	750.611
176.081	25.000	939.745	750.730
177.096	25.161	938.584	750.412
178.110	24.635	937.847	747.558
179.125	24.632	937.039	746.835
180.140	24.649	936.485	746.397
181.154	24.635	936.566	746.336
182.169	24.932	936.278	747.281
183.183	25.301	935.397	748.050
184.198	25.246	934.782	747.263
185.213	25.265	933.408	746.176
186.227	25.164	933.813	746.015
187.242	25.349	932.578	745.729
188.256	25.354	932.036	745.252
189.271	25.190	931.550	744.118
190.286	24.963	930.206	742.038
191.300	24.483	928.653	738.748
192.315	23.721	926.963	734.187
193.329	23.603	926.788	733.498
194.344	24.412	927.143	737.056
195.359	25.041	926.967	739.449
196.373	25.167	926.651	739.652
197.388	25.074	925.972	738.662
198.402	25.143	924.996	738.099
199.417	25.141	924.430	737.573
200.432	24.981	922.856	735.598
201.446	24.761	922.853	734.626
202.461	24.647	922.637	733.921
203.475	23.989	920.309	729.306
204.490	23.251	918.782	725.013
205.504	24.130	919.292	728.949
206.519	24.692	919.322	731.208
207.534	24.789	919.078	731.347
208.548	25.156	918.806	732.566
209.563	25.081	917.546	731.188
210.577	25.075	916.906	730.590
211.592	25.349	916.678	731.462
212.607	25.441	915.660	730.956
213.621	25.418	915.252	730.473
214.636	25.321	914.953	729.775
215.650	25.252	914.141	728.784
216.665	25.429	913.023	728.544
217.680	25.282	912.716	727.639
218.694	25.018	910.745	724.937
219.709	24.840	910.567	724.012
220.723	25.109	910.158	724.708
221.738	25.129	909.728	724.384
222.753	25.215	909.112	724.175
223.767	25.295	908.571	724.005
224.782	25.533	908.177	724.586
225.796	25.528	907.516	723.972
226.811	24.836	906.409	720.240
227.826	24.168	904.987	716.362
228.840	24.386	904.665	716.919
229.855	24.397	903.877	716.277
230.869	24.114	902.625	714.087
231.884	24.544	902.934	715.994
232.899	25.035	902.892	717.862
233.913	25.122	902.149	717.557
234.928	25.040	901.417	716.583
235.942	24.925	901.061	715.776
236.957	24.761	899.875	714.118
237.972	24.767	899.685	713.929
238.986	24.969	898.919	714.062
240.001	24.841	898.531	713.181
241.015	24.962	897.943	713.133
242.030	25.044	897.518	713.057
243.045	25.175	897.028	713.125
244.059	25.341	896.634	713.409
245.074	25.136	895.594	711.706
246.088	24.704	894.884	709.365
247.103	25.008	894.131	709.910
248.117	25.552	894.603	712.377
249.132	25.897	894.091	713.273
250.147	25.871	893.668	712.770
251.161	26.146	893.326	713.522
252.176	26.050	892.115	712.113
253.190	26.186	891.719	712.270
254.205	26.283	891.337	712.284
255.220	26.254	890.448	711.396
256.234	26.086	889.938	710.264
257.249	26.040	889.018	709.285
258.263	25.893	888.804	708.476
259.278	26.057	888.075	708.474
260.293	26.060	887.637	708.072
261.307	25.907	887.048	706.944
262.322	25.736	885.998	705.371
263.336	25.026	884.024	700.962
264.351	24.047	882.068	695.525
265.366	24.109	881.884	695.562
266.380	25.141	882.662	700.145
267.395	25.611	882.186	701.538
268.409	25.586	881.566	700.888
269.424	25.733	881.089	701.017
270.439	25.827	880.699	701.012
271.453	25.961	879.941	700.866
272.468	25.923	879.641	700.417
273.482	26.237	878.983	701.051
274.497	25.724	877.877	698.119
275.512	25.329	877.218	696.001
276.526	25.869	877.376	698.160
277.541	25.926	876.992	698.012
278.555	25.666	875.796	695.995
279.570	25.691	875.000	695.397
280.585	25.675	874.392	694.787
281.599	25.628	874.205	694.395
282.614	25.079	872.351	690.749
283.628	25.137	872.182	690.775
284.643	25.321	872.290	691.511
285.657	25.040	870.523	688.968
286.672	24.832	869.856	687.580
287.687	25.338	869.847	689.456
288.701	25.437	869.275	689.319
289.716	25.109	868.466	687.359
290.730	25.124	867.887	686.900
291.745	24.750	866.560	684.357
292.760	25.173	866.624	685.965
293.774	26.112	867.066	689.846
294.789	26.378	866.635	690.459
295.803	26.397	866.419	690.297
296.818	26.456	865.554	689.770
297.833	26.047	864.414	687.242
298.847	25.934	863.471	686.003
299.862	26.174	863.646	686.994
300.876	26.557	863.316	688.128
301.891	26.256	862.428	686.217
302.906	25.949	861.444	684.208
303.920	26.046	861.326	684.423
304.935	26.430	861.078	685.619
305.949	26.236	860.610	684.452
306.964	26.078	859.653	683.031
307.979	26.119	859.458	682.972
308.993	26.555	859.060	684.242
310.008	26.466	858.336	683.270
311.022	26.334	857.449	682.007
312.037	26.072	856.968	680.576
313.052	25.838	856.093	678.937
314.066	25.053	854.347	674.540
315.081	24.573	854.209	672.563
316.095	25.558	854.133	676.151
317.110	26.103	853.742	677.831
318.125	25.292	852.276	673.564
319.139	24.083	850.882	667.869
320.154	24.123	850.489	667.653
321.168	25.130	850.800	671.612
322.183	25.755	850.623	673.752
323.197	25.914	850.846	674.466
324.212	26.101	850.370	674.728
325.227	26.089	850.095	674.403
326.241	25.843	849.148	672.674
327.256	25.857	848.853	672.432
328.270	25.816	847.905	671.469
329.285	25.499	846.924	669.455
330.300	25.572	846.047	668.972
331.314	25.656	845.805	669.033
332.329	26.116	846.055	670.883
333.343	26.233	845.702	670.979
334.358	26.269	845.126	670.594
335.373	26.254	845.162	670.511
336.387	26.552	844.453	670.992
337.402	26.763	844.181	671.498
338.416	26.637	844.283	671.055
339.431	26.720	843.885	670.983
340.446	26.882	843.337	671.089
341.460	26.813	843.111	670.593
342.475	26.575	842.022	668.791
343.489	26.653	842.108	669.086
344.504	27.007	841.247	669.650
345.519	27.055	841.419	669.905
346.533	27.169	840.501	669.535
347.548	27.197	840.279	669.401
348.562	26.982	840.008	668.335
349.577	26.915	839.298	667.465
350.592	27.024	838.273	666.992
351.606	27.014	837.752	666.480
352.621	26.876	837.056	665.361
353.635	26.660	836.100	663.750
354.650	26.150	834.694	660.709
355.665	25.220	833.166	656.046
356.679	25.592	833.088	657.283
357.694	26.164	832.476	658.831
358.708	26.019	832.174	658.006
359.723	26.381	831.977	659.110
360.738	26.679	831.684	659.906
361.752	26.746	831.378	659.848
362.767	27.151	830.987	660.954
363.781	27.388	830.420	661.306
364.796	27.554	830.184	661.662
365.810	27.548	829.561	661.085
366.825	27.514	828.959	660.421
367.840	27.240	828.023	658.627
368.854	26.678	827.732	656.301
369.869	26.804	827.215	656.291
370.883	26.661	827.130	655.646
371.898	26.697	826.419	655.153
372.913	26.913	825.686	655.298
373.927	26.836	825.293	654.650
374.942	27.132	825.395	655.741
375.956	27.043	825.337	655.313
376.971	27.193	824.677	655.273
377.986	27.637	823.949	656.233
379.000	27.366	823.129	654.551
380.015	27.232	822.931	653.851
381.029	27.211	822.258	653.184
382.044	27.279	822.003	653.169
383.059	27.464	821.469	653.351
384.073	27.498	820.731	652.827
385.088	27.269	820.359	651.654
386.102	27.328	819.272	650.942
387.117	27.141	818.710	649.771
388.132	26.871	817.851	648.067
389.146	26.337	816.521	645.052
390.161	26.636	817.285	646.666
391.175	27.091	816.694	647.762
392.190	26.712	815.471	645.386
393.205	25.481	813.148	639.117
394.219	24.004	811.426	632.460
395.234	23.839	811.514	631.884
396.248	25.523	812.870	638.876
397.263	27.070	813.542	644.846
398.278	26.946	813.087	643.988
399.292	26.569	812.878	642.427
400.307	26.607	812.426	642.149
401.321	26.754	811.671	642.013
402.336	27.174	811.864	643.599
403.350	27.531	811.744	644.709
404.365	28.002	811.613	646.215
405.380	28.092	810.976	645.969
406.394	28.256	810.533	646.138
407.409	28.072	810.089	645.078
408.423	28.021	809.744	644.564
409.438	28.093	809.177	644.311
410.453	28.217	808.816	644.402
411.467	28.216	808.243	643.887
412.482	28.040	808.009	643.024
413.496	28.076	807.645	642.805
414.511	28.231	807.253	642.979
415.526	28.146	806.581	642.089
416.540	27.922	806.246	640.980
417.555	27.767	805.015	639.400
418.569	27.829	805.225	639.726
419.584	27.722	804.602	638.802
420.599	27.501	804.142	637.607
421.613	109.600	1282.398	1448.624
422.628	94.636	1352.082	1448.735
