DTS Sentinel unit serial number:	SN413079Multiplexer serial number:	ORYXHardware model number:	OX4-SRSoftware version number:	ORYX F/W v4.00 Oryx Data Collector v3.7.2.0data status	okinstallation	princeton_trtdifferential loss correction	single-endedforward channel	channel 1reverse channel	N/Adate	2019/09/12time	06:04:11forward acquisition time	60.00reverse acquisition time	0.00gamma	496.2192k internal	0.2321k external	0.2321temperature offset calibration	1.0041default loss term (dB/km)	0.3790temperature slope calibration	1.0000multiplexer offset coefficient	1.0000multiplexer slope coefficient	1.0000fibre end	0.00T internal ref (°C)	32.12T ext. ref 1 (°C)	1.58T ext. ref 2 (°C)	27.39length (m)	temperature (°C)	Stokes	anti-Stokes-747.200	-17.297	-0.237	0.151
-746.185	-30.517	0.119	0.068
-745.171	149.494	0.212	0.290
-744.156	-62.526	-0.295	0.124
-743.142	-67.539	-0.150	-0.060
-742.127	210.493	0.166	0.263
-741.112	174.714	-0.021	0.031
-740.098	401.842	-0.170	0.361
-739.083	316.306	0.050	0.096
-738.069	243.908	-0.058	-0.099
-737.054	800.000	0.074	-0.284
-736.039	35.226	-0.287	-0.254
-735.025	-124.578	-0.256	0.040
-734.010	-66.822	-0.267	-0.107
-732.996	-200.000	-0.005	0.367
-731.981	263.017	-0.037	0.066
-730.966	129.889	0.122	-0.158
-729.952	-88.379	-0.253	-0.076
-728.937	-200.000	-0.025	0.203
-727.923	242.453	0.039	-0.067
-726.908	14.552	-0.267	-0.211
-725.894	-200.000	0.034	-0.168
-724.879	132.415	-0.210	-0.273
-723.864	-87.369	-0.226	-0.069
-722.850	132.506	-0.113	0.147
-721.835	800.000	0.169	-0.534
-720.821	-163.535	-0.289	-0.014
-719.806	-200.000	0.031	-0.153
-718.791	186.861	-0.161	0.243
-717.777	-200.000	-0.002	0.092
-716.762	29.098	-0.188	-0.161
-715.748	572.617	-0.079	-0.195
-714.733	75.027	-0.201	0.214
-713.718	-112.831	0.184	0.037
-712.704	-200.000	-0.035	-0.280
-711.689	-99.430	-0.486	-0.124
-710.675	420.533	0.027	-0.059
-709.660	293.996	0.048	0.088
-708.645	20.489	-0.059	-0.048
-707.631	-200.000	0.002	0.337
-706.616	59.953	-0.129	-0.129
-705.602	-200.000	-0.007	-0.114
-704.587	-139.108	-0.159	0.017
-703.572	22.148	-0.292	0.240
-702.558	-200.000	0.034	-0.153
-701.543	-200.000	0.044	-0.241
-700.529	-97.772	0.322	0.084
-699.514	123.381	-0.133	-0.168
-698.499	112.132	-0.100	-0.122
-697.485	-153.821	-0.134	-0.009
-696.470	45.230	0.236	-0.219
-695.456	-93.723	-0.322	-0.089
-694.441	413.004	-0.158	0.338
-693.426	800.000	0.064	-0.268
-692.412	-43.942	-0.217	0.110
-691.397	204.973	0.074	0.116
-690.383	800.000	0.086	-0.268
-689.368	-200.000	0.008	0.395
-688.354	656.411	0.098	0.253
-687.339	206.644	-0.148	-0.232
-686.324	266.934	0.117	0.207
-685.310	193.512	-0.127	-0.194
-684.295	-156.790	-0.390	-0.024
-683.281	-200.000	0.019	0.304
-682.266	56.875	-0.106	-0.104
-681.251	30.345	-0.190	-0.164
-680.237	-150.887	0.411	-0.031
-679.222	-139.178	0.196	0.021
-678.208	-12.520	-0.146	-0.096
-677.193	82.410	-0.054	0.059
-676.178	-88.330	0.221	-0.067
-675.164	800.000	0.064	0.280
-674.149	800.000	-0.092	-0.278
-673.135	376.387	0.072	0.148
-672.120	184.555	0.163	0.243
-671.105	106.070	0.122	0.145
-670.091	258.390	-0.129	0.224
-669.076	-200.000	0.064	0.295
-668.062	-200.000	0.028	-0.249
-667.047	-70.326	0.149	-0.057
-666.032	90.952	0.180	0.203
-665.018	-200.000	-0.020	-0.286
-664.003	40.502	0.300	-0.272
-662.989	28.301	0.191	0.163
-661.974	-85.452	-0.094	0.029
-660.959	194.474	0.182	-0.278
-659.945	538.160	-0.090	-0.216
-658.930	428.472	-0.037	0.081
-657.916	112.688	-0.174	-0.212
-656.901	-200.000	-0.062	-0.276
-655.886	-200.000	0.001	-0.381
-654.872	-199.612	-0.272	-0.001
-653.857	735.259	-0.150	0.405
-652.843	-200.000	-0.008	-0.100
-651.828	378.791	-0.158	0.327
-650.814	489.839	0.097	0.224
-649.799	-200.000	0.007	0.091
-648.784	-17.511	-0.304	-0.193
-647.770	-21.296	0.080	-0.049
-646.755	48.135	-0.198	-0.187
-645.741	800.000	-0.071	-0.302
-644.726	-200.000	-0.056	-0.258
-643.711	335.475	0.221	-0.432
-642.697	98.311	-0.192	-0.223
-641.682	655.927	-0.090	-0.233
-640.668	280.040	-0.094	-0.169
-639.653	-158.342	0.142	0.008
-638.638	-63.827	-0.103	0.043
-637.624	-200.000	-0.002	-0.113
-636.609	27.653	0.174	0.147
-635.595	53.694	-0.131	0.127
-634.580	192.592	0.099	-0.151
-633.565	-101.066	0.441	-0.109
-632.551	7.270	-0.155	0.117
-631.536	-200.000	0.016	-0.119
-630.522	70.516	-0.100	-0.104
-629.507	-37.277	-0.287	-0.154
-628.492	-200.000	0.008	-0.065
-627.478	-151.814	0.169	-0.012
-626.463	800.000	-0.065	-0.197
-625.449	-144.217	0.245	-0.023
-624.434	-200.000	0.016	0.192
-623.419	7.605	0.199	0.150
-622.405	47.575	0.160	0.150
-621.390	-116.102	-0.288	-0.054
-620.376	-200.000	0.051	0.247
-619.361	800.000	0.054	-0.210
-618.346	-39.552	-0.207	0.109
-617.332	131.514	-0.155	-0.201
-616.317	0.185	0.118	-0.085
-615.303	16.362	0.185	-0.147
-614.288	-42.204	-0.163	0.084
-613.273	488.403	0.015	-0.035
-612.259	-200.000	0.010	-0.065
-611.244	-117.709	-0.212	0.038
-610.230	-63.109	0.197	-0.082
-609.215	-59.466	0.117	0.050
-608.201	-130.710	0.176	0.024
-607.186	-84.029	0.249	-0.079
-606.171	187.163	-0.134	0.201
-605.157	-46.815	-0.152	0.075
-604.142	-126.916	-0.327	-0.048
-603.128	-74.784	0.404	0.146
-602.113	379.955	0.054	0.110
-601.098	386.238	-0.086	0.179
-600.084	-200.000	-0.009	0.167
-599.069	-200.000	0.032	0.201
-598.055	-200.000	0.041	-0.376
-597.040	-106.573	-0.282	0.063
-596.025	-146.286	-0.441	0.039
-595.011	168.317	0.066	0.095
-593.996	93.002	-0.097	0.110
-592.982	605.787	0.035	-0.087
-591.967	-95.279	0.355	-0.096
-590.952	590.305	-0.143	-0.355
-589.938	800.000	-0.046	-0.135
-588.923	425.159	-0.172	0.372
-587.909	189.219	-0.147	-0.221
-586.894	800.000	-0.040	0.125
-585.879	149.612	0.160	-0.218
-584.865	-115.663	0.177	0.033
-583.850	-200.000	0.013	0.115
-582.836	-10.767	-0.237	-0.157
-581.821	-11.160	-0.134	-0.088
-580.806	800.000	-0.050	-0.141
-579.792	-71.193	-0.257	-0.097
-578.777	800.000	0.047	0.148
-577.763	71.339	-0.156	0.163
-576.748	800.000	0.007	-0.029
-575.733	11.136	-0.171	0.131
-574.719	-200.000	0.054	-0.483
-573.704	249.997	0.130	0.221
-572.690	144.892	-0.171	-0.230
-571.675	40.577	-0.115	0.104
-570.661	-24.836	-0.118	-0.071
-569.646	58.392	-0.125	-0.123
-568.631	-41.408	-0.265	-0.137
-567.617	257.899	-0.109	-0.188
-566.602	18.746	0.176	-0.141
-565.588	-200.000	-0.019	0.190
-564.573	58.749	0.275	-0.271
-563.558	-73.643	0.278	0.102
-562.544	-122.543	0.166	-0.027
-561.529	40.386	0.062	0.056
-560.515	800.000	-0.087	-0.323
-559.500	-200.000	-0.155	0.000
-558.485	225.153	0.062	0.100
-557.471	610.229	-0.071	-0.178
-556.456	-200.000	-0.012	0.071
-555.442	18.055	0.145	0.116
-554.427	32.484	0.249	0.215
-553.412	138.029	0.106	-0.140
-552.398	356.831	-0.070	-0.140
-551.383	10.385	0.066	0.050
-550.369	221.118	0.090	0.145
-549.354	800.000	0.021	0.084
-548.339	-200.000	-0.023	-0.118
-547.325	-64.039	-0.062	-0.025
-546.310	-200.000	0.008	-0.052
-545.296	-111.731	-0.272	-0.055
-544.281	-20.434	0.132	0.082
-543.266	-146.496	0.223	-0.020
-542.252	800.000	0.114	0.380
-541.237	-175.656	0.080	0.002
-540.223	120.474	0.190	-0.237
-539.208	-120.110	-0.226	-0.039
-538.193	26.751	0.287	0.241
-537.179	2.324	-0.068	0.050
-536.164	89.798	-0.146	-0.163
-535.150	228.360	-0.026	-0.042
-534.135	-200.000	0.037	-0.272
-533.121	524.511	-0.117	-0.277
-532.106	-200.000	0.063	0.411
-531.091	-125.402	-0.031	0.005
-530.077	41.610	-0.119	0.108
-529.062	-17.469	0.013	0.008
-528.048	100.994	-0.078	0.091
-527.033	800.000	0.039	-0.113
-526.018	800.000	-0.049	-0.159
-525.004	139.023	0.097	-0.128
-523.989	229.371	-0.148	0.242
-522.975	159.799	-0.113	-0.158
-521.960	188.957	0.073	0.109
-520.945	-96.564	-0.142	-0.038
-519.931	-28.525	0.158	0.091
-518.916	-200.000	0.020	0.169
-517.902	285.580	0.107	-0.194
-516.887	-87.558	0.119	-0.036
-515.872	-105.652	-0.083	-0.019
-514.858	34.360	0.180	0.157
-513.843	315.989	0.208	0.394
-512.829	36.070	0.153	-0.135
-511.814	348.389	0.316	0.624
-510.799	167.382	0.201	0.286
-509.785	425.996	-0.040	0.087
-508.770	800.000	0.061	-0.245
-507.756	71.424	0.080	0.083
-506.741	800.000	-0.081	0.301
-505.726	-174.301	0.200	0.006
-504.712	-65.258	0.123	-0.050
-503.697	-65.236	0.229	-0.092
-502.683	677.111	-0.033	0.085
-501.668	50.901	-0.115	0.109
-500.653	-200.000	-0.011	-0.144
-499.639	-200.000	-0.005	0.142
-498.624	-96.077	0.290	0.077
-497.610	117.696	-0.073	-0.090
-496.595	-12.296	0.285	-0.186
-495.581	-66.228	0.222	-0.088
-494.566	154.868	-0.110	-0.151
-493.551	-66.364	-0.378	-0.150
-492.537	-200.000	0.015	-0.229
-491.522	95.449	0.182	0.208
-490.508	336.142	-0.180	0.350
-489.493	-88.070	-0.163	-0.049
-488.478	21.804	0.131	0.107
-487.464	-36.905	0.159	-0.085
-486.449	103.063	0.134	0.157
-485.435	-36.527	0.303	0.163
-484.420	0.518	-0.226	0.162
-483.405	-69.228	0.178	-0.068
-482.391	-200.000	-0.008	-0.122
-481.376	-50.000	-0.164	-0.078
-480.362	-59.387	-0.088	-0.038
-479.347	800.000	-0.012	-0.045
-478.332	34.014	-0.075	-0.065
-477.318	800.000	-0.068	0.191
-476.303	-45.238	0.186	0.092
-475.289	355.514	-0.064	-0.127
-474.274	6.340	-0.182	-0.135
-473.259	18.675	-0.260	-0.208
-472.245	386.359	0.059	-0.121
-471.230	-67.743	0.174	-0.068
-470.216	113.727	0.054	0.065
-469.201	-200.000	0.049	0.380
-468.186	800.000	0.043	0.153
-467.172	104.136	0.194	0.229
-466.157	-197.000	0.034	-0.000
-465.143	-200.000	0.014	-0.227
-464.128	800.000	0.129	-0.437
-463.113	82.047	0.033	-0.036
-462.099	-144.132	-0.133	-0.012
-461.084	-91.451	-0.336	0.096
-460.070	338.752	-0.190	-0.370
-459.055	6.973	0.137	-0.102
-458.040	3.274	0.170	0.123
-457.026	-200.000	0.025	-0.126
-456.011	-119.679	0.042	-0.007
-454.997	-200.000	0.006	0.217
-453.982	800.000	0.066	0.265
-452.968	-134.364	-0.173	-0.021
-451.953	-168.835	-0.041	0.002
-450.938	-102.879	0.188	-0.045
-449.924	25.382	-0.163	-0.135
-448.909	392.901	-0.125	-0.259
-447.895	-101.717	-0.264	0.064
-446.880	-200.000	-0.037	0.211
-445.865	-200.000	-0.024	-0.119
-444.851	-200.000	0.003	0.135
-443.836	107.842	0.211	-0.251
-442.822	556.596	-0.073	-0.176
-441.807	26.881	0.090	0.075
-440.792	85.136	-0.191	0.210
-439.778	800.000	0.070	0.252
-438.763	498.729	-0.193	-0.443
-437.749	-200.000	-0.062	0.273
-436.734	200.103	-0.183	0.281
-435.719	462.009	-0.124	0.277
-434.705	-114.857	0.056	-0.011
-433.690	-122.005	0.383	0.063
-432.676	-12.963	-0.294	-0.191
-431.661	237.340	0.130	-0.216
-430.646	-96.668	0.182	-0.048
-429.632	657.326	0.040	-0.102
-428.617	-33.576	-0.196	0.108
-427.603	800.000	0.043	0.123
-426.588	-87.378	-0.027	0.008
-425.573	-54.032	0.055	0.025
-424.559	-171.352	-0.138	-0.005
-423.544	800.000	0.061	-0.197
-422.530	-200.000	0.065	0.332
-421.515	800.000	-0.097	-0.412
-420.500	211.906	0.052	0.081
-419.486	388.159	-0.144	0.297
-418.471	273.496	-0.089	-0.157
-417.457	399.545	-0.015	0.031
-416.442	-200.000	-0.040	0.360
-415.428	265.762	-0.138	0.241
-414.413	594.697	-0.096	-0.236
-413.398	1.476	0.433	0.311
-412.384	-100.510	-0.139	0.034
-411.369	-161.039	-0.246	0.013
-410.355	-65.259	-0.389	-0.156
-409.340	238.281	-0.225	-0.373
-408.325	-142.720	-0.157	-0.015
-407.311	265.688	-0.167	-0.290
-406.296	-200.000	-0.057	0.324
-405.282	-112.008	-0.214	0.043
-404.267	800.000	0.106	-0.314
-403.252	-200.000	0.005	0.136
-402.238	118.955	-0.135	0.166
-401.223	165.590	-0.081	0.114
-400.209	355.436	0.067	0.134
-399.194	-105.680	0.176	0.040
-398.179	-8.460	-0.122	-0.082
-397.165	800.000	0.059	-0.221
-396.150	-123.139	0.139	-0.022
-395.136	-200.000	0.017	0.235
-394.121	-79.484	0.373	-0.126
-393.106	169.130	-0.184	-0.262
-392.092	175.838	0.038	0.056
-391.077	-200.000	0.010	0.077
-390.063	-129.163	0.209	-0.029
-389.048	27.576	-0.054	0.045
-388.033	21.429	-0.174	0.141
-387.019	-37.262	0.169	-0.090
-386.004	-46.446	-0.031	-0.015
-384.990	5.344	0.198	-0.145
-383.975	-122.599	-0.186	-0.030
-382.960	-100.961	-0.332	-0.081
-381.946	-200.000	-0.087	-0.404
-380.931	157.236	-0.086	-0.119
-379.917	-200.000	-0.060	0.407
-378.902	-200.000	-0.051	-0.227
-377.888	69.090	0.277	0.284
-376.873	-103.464	0.136	0.032
-375.858	-28.304	0.111	-0.064
-374.844	-120.607	0.329	-0.055
-373.829	21.064	0.069	-0.056
-372.815	66.056	0.213	0.215
-371.800	243.480	-0.173	0.289
-370.785	217.495	-0.097	0.154
-369.771	-62.136	0.272	-0.113
-368.756	74.509	0.209	0.219
-367.742	-104.372	-0.458	0.106
-366.727	21.012	0.503	0.406
-365.712	663.532	0.032	0.081
-364.698	-48.265	-0.247	0.119
-363.683	800.000	0.079	-0.222
-362.669	-84.970	-0.058	0.018
-361.654	171.350	0.140	0.200
-360.639	95.644	0.098	-0.111
-359.625	800.000	0.070	-0.211
-358.610	-78.327	0.105	0.036
-357.596	60.936	0.215	-0.212
-356.581	-37.470	0.235	0.125
-355.566	-33.245	-0.291	0.160
-354.552	-20.434	-0.041	-0.025
-353.537	800.000	0.075	0.297
-352.523	110.485	-0.137	0.164
-351.508	-88.232	0.380	0.113
-350.493	-200.000	0.015	0.268
-349.479	-200.000	0.022	-0.319
-348.464	105.528	-0.237	-0.279
-347.450	237.280	0.165	0.273
-346.435	54.657	-0.187	-0.180
-345.420	-26.123	-0.130	-0.076
-344.406	34.098	0.216	-0.188
-343.391	-156.303	-0.343	-0.021
-342.377	-125.468	0.058	-0.009
-341.362	381.884	0.108	0.220
-340.348	287.636	0.229	-0.413
-339.333	-79.711	0.060	0.020
-338.318	-52.551	0.088	-0.041
-337.304	211.652	0.101	0.158
-336.289	511.309	0.103	0.238
-335.275	636.154	0.082	0.207
-334.260	539.038	0.067	0.159
-333.245	-92.101	0.030	0.008
-332.231	95.952	-0.198	-0.224
-331.216	8.805	0.336	0.252
-330.202	-200.000	-0.020	0.097
-329.187	492.346	0.170	0.387
-328.172	-200.000	-0.015	0.246
-327.158	-61.223	0.128	0.054
-326.143	252.956	0.033	-0.057
-325.129	-200.000	-0.016	-0.195
-324.114	-46.078	0.221	-0.108
-323.099	-130.595	-0.342	0.046
-322.085	-116.286	-0.365	-0.067
-321.070	79.869	-0.073	-0.078
-320.056	155.050	0.080	-0.110
-319.041	800.000	-0.025	-0.092
-318.026	200.716	-0.081	-0.124
-317.012	800.000	0.063	0.259
-315.997	-107.921	0.216	-0.047
-314.983	800.000	-0.141	-0.607
-313.968	-62.232	-0.281	-0.116
-312.953	-200.000	0.015	0.135
-311.939	342.958	0.286	0.556
-310.924	57.417	0.129	0.125
-309.910	265.306	-0.039	-0.068
-308.895	91.556	0.011	-0.012
-307.880	800.000	0.050	-0.206
-306.866	-130.150	-0.041	-0.006
-305.851	800.000	-0.063	0.196
-304.837	-56.057	0.043	-0.019
-303.822	-200.000	0.028	0.150
-302.807	-200.000	-0.095	-0.426
-301.793	-112.989	-0.216	0.042
-300.778	37.342	0.188	0.166
-299.764	47.733	0.178	0.165
-298.749	-87.637	-0.162	-0.049
-297.735	-156.436	-0.313	0.019
-296.720	149.877	-0.183	-0.247
-295.705	800.000	0.082	-0.259
-294.691	591.350	0.100	0.246
-293.676	170.260	-0.024	-0.034
-292.662	70.834	-0.138	-0.142
-291.647	581.824	0.046	0.113
-290.632	282.315	0.065	0.116
-289.618	279.332	0.076	0.136
-288.603	-11.958	-0.253	0.164
-287.589	-200.000	-0.044	0.271
-286.574	-22.618	-0.357	0.214
-285.559	800.000	0.033	0.125
-284.545	800.000	-0.054	0.223
-283.530	268.172	-0.064	0.112
-282.516	493.443	0.057	0.129
-281.501	76.042	0.188	0.197
-280.486	800.000	0.018	0.059
-279.472	-5.556	0.138	-0.094
-278.457	86.443	0.135	-0.147
-277.443	-93.871	0.305	0.083
-276.428	162.283	0.107	0.149
-275.413	-190.642	-0.287	0.003
-274.399	-76.353	0.288	0.101
-273.384	-200.000	0.048	-0.268
-272.370	586.149	0.078	0.192
-271.355	152.963	0.055	0.074
-270.340	-200.000	0.019	-0.292
-269.326	697.090	0.098	0.254
-268.311	368.509	0.096	-0.192
-267.297	505.368	-0.039	-0.091
-266.282	96.787	-0.186	-0.212
-265.267	1.294	0.111	-0.079
-264.253	800.000	-0.044	0.187
-263.238	118.913	-0.067	-0.082
-262.224	-95.482	-0.065	0.017
-261.209	-59.555	-0.461	-0.196
-260.195	-50.108	-0.299	-0.140
-259.180	-134.362	0.304	0.037
-258.165	-33.349	0.139	0.076
-257.151	629.939	0.118	-0.295
-256.136	664.343	-0.111	-0.285
-255.122	800.000	-0.021	0.070
-254.107	790.181	-0.044	-0.120
-253.092	-58.949	0.218	0.093
-252.078	343.023	0.059	0.114
-251.063	52.911	0.165	-0.157
-250.049	-200.000	-0.030	-0.442
-249.034	1.441	0.203	-0.144
-248.019	619.020	0.087	0.215
-247.005	-36.806	0.249	-0.133
-245.990	26.974	0.052	-0.044
-244.976	800.000	-0.033	0.123
-243.961	-12.849	-0.172	0.111
-242.946	-93.724	-0.144	-0.039
-241.932	182.317	0.243	0.356
-240.917	-160.781	-0.089	-0.005
-239.903	58.470	-0.122	-0.119
-238.888	504.352	-0.010	0.022
-237.873	-89.582	0.214	0.062
-236.859	111.885	-0.137	0.164
-235.844	66.526	0.168	-0.170
-234.830	-22.055	-0.332	0.200
-233.815	363.232	-0.035	0.069
-232.800	800.000	0.098	0.280
-231.786	236.586	0.251	0.412
-230.771	-11.053	-0.252	0.165
-229.757	518.546	-0.161	-0.373
-228.742	-99.186	-0.284	0.071
-227.727	60.687	-0.028	-0.028
-226.713	-64.719	0.058	-0.023
-225.698	-200.000	0.013	-0.246
-224.684	-26.618	-0.099	0.058
-223.669	100.252	-0.246	-0.283
-222.655	-85.230	0.113	0.035
-221.640	-200.000	-0.026	-0.129
-220.625	159.343	-0.074	0.103
-219.611	800.000	-0.030	-0.098
-218.596	38.455	-0.112	0.099
-217.582	-113.111	-0.249	0.049
-216.567	800.000	-0.077	-0.284
-215.552	64.207	-0.072	0.072
-214.538	-45.441	0.242	0.119
-213.523	211.883	0.048	0.075
-212.509	-13.276	-0.323	0.208
-211.494	-200.000	0.054	-0.394
-210.479	-63.102	0.093	-0.038
-209.465	800.000	-0.069	-0.222
-208.450	-200.000	-0.045	-0.228
-207.436	-9.597	-0.103	-0.068
-206.421	88.760	0.206	-0.226
-205.406	-200.000	-0.028	0.213
-204.392	-20.460	0.269	-0.164
-203.377	603.413	-0.117	-0.288
-202.363	-16.760	0.171	-0.107
-201.348	-200.000	0.032	0.180
-200.333	67.754	-0.146	0.148
-199.319	26.725	0.168	0.139
-198.304	800.000	-0.111	-0.324
-197.290	-117.366	-0.174	0.031
-196.275	233.358	-0.190	0.309
-195.260	-17.486	0.130	0.081
-194.246	-200.000	-0.027	-0.232
-193.231	-61.382	-0.248	0.103
-192.217	800.000	-0.050	0.163
-191.202	65.731	-0.095	-0.095
-190.187	-200.000	0.031	-0.212
-189.173	-66.150	-0.180	0.071
-188.158	-200.000	-0.029	-0.185
-187.144	-37.893	-0.447	-0.235
-186.129	116.782	-0.095	0.115
-185.114	570.873	-0.069	-0.165
-184.100	36.061	0.257	0.223
-183.085	306.371	0.179	0.329
-182.071	110.928	0.048	0.057
-181.056	-200.000	-0.003	-0.132
-180.042	800.000	0.076	-0.252
-179.027	-200.000	-0.007	0.169
-178.012	96.097	0.236	-0.267
-176.998	56.015	-0.112	0.108
-175.983	-193.172	0.433	0.004
-174.969	-200.000	0.009	0.062
-173.954	32.674	0.271	0.232
-172.939	-86.521	-0.213	-0.065
-171.925	140.138	-0.039	0.051
-170.910	312.028	0.086	-0.159
-169.896	800.000	0.147	0.409
-168.881	-200.000	0.038	-0.256
-167.866	-106.711	-0.399	0.088
-166.852	-200.000	0.081	0.368
-165.837	-155.620	-0.207	-0.013
-164.823	28.158	-0.102	-0.085
-163.808	-15.700	0.126	-0.080
-162.793	800.000	0.095	-0.279
-161.779	800.000	0.067	-0.226
-160.764	800.000	0.045	-0.174
-159.750	-118.915	0.041	-0.007
-158.735	-46.224	-0.292	0.142
-157.720	115.595	-0.133	-0.161
-156.706	33.928	0.104	0.089
-155.691	-32.687	-0.163	0.089
-154.677	-43.302	0.168	0.084
-153.662	-200.000	-0.013	0.164
-152.647	-38.875	0.157	0.082
-151.633	209.572	-0.207	0.320
-150.618	-70.343	0.170	-0.064
-149.604	90.129	-0.072	0.079
-148.589	283.093	-0.072	-0.128
-147.574	800.000	0.127	0.407
-146.560	161.846	-0.354	0.490
-145.545	800.000	0.144	0.415
-144.531	402.721	-0.085	-0.177
-143.516	-53.053	-0.308	-0.140
-142.502	800.000	-0.123	-0.386
-141.487	31.893	-0.103	0.088
-140.472	-33.429	-0.182	0.099
-139.458	189.926	-0.223	0.331
-138.443	-113.381	0.084	0.016
-137.429	105.850	-0.072	0.084
-136.414	185.584	-0.107	-0.157
-135.399	-93.747	0.183	-0.050
-134.385	531.235	0.162	-0.377
-133.370	565.890	-0.068	-0.163
-132.356	-20.014	0.271	0.165
-131.341	-105.777	-0.207	0.046
-130.326	800.000	-0.048	0.171
-129.312	61.681	-0.191	0.188
-128.297	397.818	0.128	0.263
-127.283	30.134	0.128	-0.108
-126.268	-96.731	-0.304	-0.079
-125.253	141.563	0.178	0.233
-124.239	-200.000	-0.066	-0.305
-123.224	-62.446	-0.384	0.158
-122.210	-200.000	0.027	-0.200
-121.195	-91.382	0.255	-0.072
-120.180	800.000	-0.084	0.254
-119.166	51.014	-0.236	0.220
-118.151	-200.000	0.011	-0.054
-117.137	800.000	-0.090	-0.347
-116.122	257.567	0.118	0.199
-115.107	-84.307	0.038	0.012
-114.093	-77.758	-0.436	0.149
-113.078	475.842	-0.198	0.441
-112.064	396.457	-0.025	0.051
-111.049	226.949	-0.160	-0.257
-110.034	-200.000	0.054	0.357
-109.020	-27.925	-0.099	-0.057
-108.005	207.717	0.168	0.259
-106.991	-200.000	-0.055	0.323
-105.976	-147.200	0.242	0.020
-104.962	-44.391	-0.472	-0.233
-103.947	511.114	0.080	0.183
-102.932	376.276	-0.138	-0.278
-101.918	152.277	-0.047	0.064
-100.903	-77.022	0.298	-0.103
-99.889	-144.709	0.504	0.046
-98.874	11.198	0.066	0.050
-97.859	108.183	-0.217	0.255
-96.845	-120.408	-0.145	0.024
-95.830	-96.439	0.510	0.133
-94.816	-80.218	-0.294	0.097
-93.801	164.972	-0.219	0.305
-92.786	174.363	-0.183	0.261
-91.772	150.174	0.191	0.256
-90.757	-200.000	-0.013	0.227
-89.743	39.750	0.149	0.132
-88.728	-18.366	-0.136	-0.084
-87.713	-200.000	-0.031	0.212
-86.699	-104.586	-0.235	-0.053
-85.684	324.900	0.147	0.277
-84.670	-67.007	-0.135	-0.053
-83.655	-7.817	-0.162	-0.108
-82.640	-91.667	0.347	-0.097
-81.626	-187.249	-0.177	0.002
-80.611	187.262	0.104	0.153
-79.597	234.821	-0.073	0.119
-78.582	172.788	0.101	0.144
-77.567	432.610	-0.084	0.179
-76.553	-96.104	0.099	0.026
-75.538	474.688	0.092	0.205
-74.524	48.423	-0.162	0.149
-73.509	219.448	0.239	-0.377
-72.494	-58.687	0.323	0.138
-71.480	-35.454	-0.122	-0.066
-70.465	800.000	-0.027	0.107
-69.451	216.992	0.074	-0.117
-68.436	-177.180	0.167	-0.004
-67.422	189.012	0.099	0.147
-66.407	-75.116	-0.085	-0.030
-65.392	-117.617	0.206	0.037
-64.378	273.327	0.107	-0.186
-63.363	-42.794	0.091	0.046
-62.349	25.754	0.122	0.100
-61.334	205.532	-0.525	-0.802
-60.319	71.945	0.315	0.322
-59.305	800.000	0.137	-0.490
-58.290	627.210	0.476	1.182
-57.276	800.000	0.466	1.449
-56.261	-200.000	96.115	593.970
-55.246	565.154	1371.988	3272.899
-54.232	161.450	2548.732	3508.256
-53.217	113.425	2141.729	2558.064
-52.203	43.991	1603.811	1446.209
-51.188	35.656	1341.336	1159.463
-50.173	32.417	1300.269	1104.941
-49.159	54.523	1347.488	1277.593
-48.144	56.623	1363.795	1305.533
-47.130	35.837	1322.415	1144.005
-46.115	32.372	1305.044	1108.557
-45.100	32.112	1300.108	1102.791
-44.086	32.084	1297.694	1100.536
-43.071	32.001	1295.192	1097.886
-42.057	31.957	1292.958	1095.693
-41.042	31.960	1291.657	1094.562
-40.027	31.990	1290.307	1093.549
-39.013	32.077	1288.200	1092.226
-37.998	32.046	1286.213	1090.317
-36.984	32.137	1284.589	1089.429
-35.969	32.192	1282.717	1088.115
-34.954	32.148	1281.100	1086.444
-33.940	32.144	1279.975	1085.429
-32.925	32.143	1278.429	1084.064
-31.911	32.150	1276.979	1082.832
-30.896	32.215	1275.379	1081.809
-29.881	32.198	1273.914	1080.426
-28.867	32.318	1272.392	1079.780
-27.852	32.296	1271.038	1078.465
-26.838	32.302	1269.372	1077.042
-25.823	32.274	1268.230	1075.868
-24.809	32.325	1266.439	1074.597
-23.794	32.174	1266.106	1073.411
-22.779	32.194	1264.557	1072.170
-21.765	32.226	1263.138	1071.106
-20.750	32.250	1261.945	1070.186
-19.736	32.161	1260.560	1068.465
-18.721	32.133	1259.184	1067.095
-17.706	32.209	1258.287	1066.728
-16.692	32.098	1257.328	1065.242
-15.677	32.068	1256.268	1064.129
-14.663	32.048	1255.095	1062.979
-13.648	32.020	1254.097	1061.938
-12.633	32.081	1252.975	1061.286
-11.619	31.990	1252.546	1060.369
-10.604	31.957	1251.429	1059.193
-9.590	32.008	1250.242	1058.436
-8.575	31.930	1249.267	1057.130
-7.560	31.938	1248.314	1056.326
-6.546	31.989	1247.767	1056.105
-5.531	32.045	1246.716	1055.491
-4.517	31.995	1245.847	1054.434
-3.502	32.119	1245.100	1054.452
-2.487	32.035	1243.999	1053.007
-1.473	32.070	1239.940	1049.727
-0.458	30.745	1224.507	1029.297
0.556	27.226	1207.613	993.300
1.571	23.584	1213.853	978.304
2.586	22.858	1229.232	986.556
3.600	22.304	1218.148	974.507
4.615	15.886	1144.995	882.375
5.629	5.879	1068.634	774.285
6.644	1.934	1048.225	740.305
7.659	1.552	1045.400	736.400
8.673	1.457	1044.450	735.205
9.688	1.358	1043.504	733.995
10.702	1.567	1042.083	733.940
11.717	7.521	1049.979	768.319
12.731	17.788	1064.951	829.367
13.746	23.491	1072.120	862.705
14.761	24.858	1073.281	870.218
15.775	24.817	1073.240	869.904
16.790	24.650	1072.023	868.032
17.804	24.422	1071.758	866.633
18.819	24.652	1071.117	867.156
19.834	24.817	1070.863	867.673
20.848	24.877	1070.641	867.706
21.863	24.788	1070.014	866.689
22.877	24.847	1068.814	865.930
23.892	24.684	1068.569	864.866
24.907	24.801	1067.559	864.538
25.921	24.752	1066.488	863.353
26.936	24.686	1065.398	862.077
27.950	24.726	1063.626	860.759
28.965	24.491	1062.172	858.379
29.980	24.567	1060.651	857.439
30.994	24.913	1059.383	857.993
32.009	24.802	1058.806	856.921
33.023	24.639	1057.360	854.896
34.038	24.838	1056.680	855.223
35.053	24.791	1056.394	854.688
36.067	24.788	1055.262	853.683
37.082	24.786	1054.423	852.921
38.096	25.049	1053.841	853.626
39.111	25.142	1053.253	853.519
40.126	24.876	1051.561	850.807
41.140	24.546	1050.213	848.074
42.155	24.417	1048.406	845.928
43.169	24.517	1047.799	845.836
44.184	24.486	1046.983	844.956
45.199	24.392	1046.063	843.696
46.213	24.401	1045.463	843.180
47.228	24.682	1044.093	843.325
48.242	24.583	1043.739	842.497
49.257	24.672	1043.222	842.424
50.271	24.907	1042.221	842.649
51.286	24.932	1041.065	841.755
52.301	24.833	1040.696	840.917
53.315	24.830	1039.358	839.750
54.330	24.771	1038.671	838.842
55.344	24.814	1038.285	838.659
56.359	24.615	1037.312	836.868
57.374	24.647	1035.535	835.508
58.388	24.648	1034.931	834.953
59.403	24.527	1034.436	833.915
60.417	24.485	1033.300	832.726
61.432	24.384	1033.041	831.973
62.447	24.526	1032.376	832.026
63.461	24.627	1031.478	831.698
64.476	24.637	1030.224	830.662
65.490	24.281	1029.550	828.390
66.505	24.514	1028.894	828.874
67.520	24.533	1028.228	828.349
68.534	24.292	1027.482	826.557
69.549	24.034	1025.965	824.070
70.563	23.982	1025.488	823.373
71.578	24.019	1024.362	822.568
72.593	23.875	1023.210	820.904
73.607	24.077	1023.532	822.023
74.622	24.216	1023.333	822.435
75.636	24.321	1022.471	822.151
76.651	24.113	1021.739	820.534
77.666	24.184	1020.461	819.759
78.680	24.218	1019.833	819.339
79.695	24.339	1019.554	819.601
80.709	24.393	1019.087	819.397
81.724	24.473	1017.948	818.779
82.739	24.533	1017.440	818.573
83.753	24.844	1016.958	819.537
84.768	25.110	1016.053	819.952
85.782	25.233	1014.989	819.584
86.797	25.087	1014.447	818.405
87.812	24.928	1013.514	816.855
88.826	25.047	1012.155	816.229
89.841	25.098	1011.389	815.773
90.855	25.102	1010.494	814.994
91.870	24.955	1009.898	813.775
92.884	24.856	1008.339	811.996
93.899	24.859	1007.664	811.397
94.914	24.971	1007.251	811.500
95.928	25.006	1005.438	810.124
96.943	24.602	1004.857	807.761
97.957	24.457	1003.638	806.055
98.972	24.333	1002.560	804.558
99.987	24.575	1001.624	804.824
101.001	24.802	1001.085	805.340
102.016	24.690	1000.443	804.250
103.030	24.638	999.290	803.020
104.045	24.549	998.560	801.963
105.060	24.425	997.599	800.562
106.074	24.485	997.502	800.684
107.089	24.860	996.353	801.368
108.103	24.780	995.199	800.013
109.118	24.534	993.892	797.792
110.133	24.442	992.932	796.539
111.147	24.316	991.635	794.867
112.162	24.289	990.637	793.875
113.176	24.452	990.508	794.428
114.191	24.348	989.556	793.131
115.206	24.141	988.425	791.237
116.220	23.991	987.943	790.116
117.235	24.250	986.959	790.405
118.249	24.051	986.219	788.862
119.264	24.127	985.309	788.400
120.279	24.110	984.912	787.938
121.293	24.372	983.873	788.197
122.308	24.270	983.088	787.047
123.322	24.051	982.510	785.548
124.337	24.022	980.597	783.823
125.352	23.414	979.218	779.976
126.366	23.530	978.361	779.733
127.381	24.167	978.720	782.752
128.395	24.818	977.589	784.631
129.410	24.706	977.106	783.686
130.424	24.705	975.878	782.626
131.439	24.649	975.437	781.958
132.454	24.758	974.220	781.388
133.468	24.542	973.217	779.574
134.483	24.807	972.632	780.190
135.497	24.934	971.749	779.969
136.512	24.998	970.787	779.407
137.527	24.976	969.835	778.474
138.541	24.973	969.258	777.932
139.556	25.009	968.594	777.485
140.570	25.084	968.014	777.277
141.585	25.071	966.903	776.258
142.600	25.147	965.683	775.539
143.614	25.212	965.332	775.470
144.629	25.342	964.195	775.049
145.643	25.162	963.024	773.262
146.658	24.958	962.230	771.678
147.673	24.820	960.770	769.845
148.687	24.841	959.951	769.212
149.702	24.797	958.838	768.064
150.716	24.762	958.007	767.181
151.731	25.016	957.259	767.601
152.746	25.061	956.804	767.361
153.760	25.160	956.177	767.215
154.775	25.251	955.781	767.217
155.789	25.141	955.082	766.117
156.804	25.242	953.314	765.062
157.819	25.142	953.105	764.400
158.833	25.408	952.141	764.693
159.848	25.374	951.471	763.941
160.862	25.096	950.081	761.579
161.877	25.175	949.227	761.162
162.892	25.190	948.214	760.346
163.906	25.227	947.281	759.687
164.921	25.189	946.223	758.610
165.935	25.218	945.502	758.087
166.950	25.195	944.774	757.339
167.964	25.161	943.873	756.406
168.979	25.098	942.369	754.868
169.994	24.858	941.819	753.354
171.008	25.185	941.263	754.214
172.023	25.173	940.503	753.491
173.037	25.059	939.236	751.930
174.052	24.855	938.582	750.484
175.067	24.792	938.032	749.715
176.081	24.835	937.488	749.393
177.096	24.903	936.928	749.165
178.110	24.661	936.072	747.401
179.125	24.547	934.803	745.846
180.140	24.618	934.348	745.713
181.154	24.623	934.717	745.962
182.169	25.069	934.182	747.330
183.183	25.244	933.574	747.508
184.198	25.050	933.087	746.242
185.213	25.077	932.153	745.541
186.227	25.162	931.679	745.449
187.242	25.019	931.117	744.341
188.256	25.164	930.306	744.228
189.271	25.289	929.496	744.032
190.286	24.998	928.022	741.582
191.300	24.250	927.050	737.645
192.315	23.646	925.371	733.750
193.329	23.605	924.703	732.985
194.344	24.424	925.589	737.005
195.359	24.905	925.691	739.009
196.373	25.160	924.913	739.375
197.388	25.007	923.986	737.937
198.402	25.057	923.602	737.770
199.417	25.131	922.637	737.238
200.432	24.863	922.047	735.600
201.446	24.781	921.201	734.523
202.461	24.640	920.188	733.073
203.475	23.827	918.753	728.532
204.490	23.093	917.394	724.387
205.504	23.914	918.187	728.310
206.519	24.555	917.751	730.524
207.534	24.443	917.725	729.981
208.548	25.105	917.128	732.147
209.563	24.752	916.240	729.931
210.577	24.912	915.650	730.049
211.592	25.357	915.285	731.509
212.607	25.224	914.219	730.049
213.621	25.213	914.007	729.771
214.636	25.365	913.156	729.645
215.650	25.048	912.760	727.977
216.665	25.355	911.743	728.346
217.680	25.130	911.390	727.088
218.694	24.845	909.887	724.669
219.709	24.626	909.358	723.299
220.723	25.017	908.770	724.347
221.738	25.053	908.165	723.945
222.753	25.040	907.505	723.307
223.767	25.226	906.910	723.517
224.782	25.383	906.969	724.131
225.796	25.289	906.366	723.207
226.811	24.630	904.423	718.945
227.826	24.114	903.286	715.904
228.840	24.079	903.391	715.783
229.855	24.193	902.262	715.283
230.869	23.969	901.428	713.661
231.884	24.233	901.780	714.933
232.899	25.062	901.617	718.064
233.913	24.912	900.484	716.496
234.928	24.903	900.274	716.233
235.942	24.955	899.112	715.452
236.957	24.622	898.661	713.701
237.972	24.518	898.439	713.044
238.986	24.656	897.619	712.883
240.001	24.693	897.317	712.725
241.015	24.773	896.748	712.530
242.030	25.037	895.892	712.838
243.045	24.970	896.168	712.727
244.059	24.948	896.071	712.498
245.074	24.887	894.380	710.848
246.088	24.725	893.120	709.144
247.103	25.035	892.740	710.005
248.117	25.395	893.513	711.988
249.132	25.750	892.587	712.589
250.147	25.817	892.150	712.443
251.161	25.978	891.505	712.502
252.176	25.888	891.134	711.787
253.190	25.955	890.829	711.744
254.205	26.243	890.162	712.283
255.220	26.025	889.552	710.874
256.234	25.959	888.482	709.696
257.249	25.925	887.627	708.819
258.263	25.906	887.146	708.295
259.278	25.960	886.800	708.169
260.293	25.941	886.229	707.573
261.307	25.742	885.826	706.410
262.322	25.646	884.552	704.954
263.336	24.919	882.852	700.697
264.351	23.945	880.826	695.220
265.366	23.997	880.490	695.097
266.380	25.299	881.353	700.801
267.395	25.590	880.627	701.297
268.409	25.590	880.029	700.761
269.424	25.655	879.918	700.861
270.439	25.611	879.577	700.360
271.453	25.689	878.816	699.995
272.468	25.888	878.372	700.351
273.482	25.985	878.015	700.381
274.497	25.487	876.765	697.391
275.512	25.319	875.767	695.884
276.526	25.734	875.703	697.379
277.541	25.847	875.167	697.328
278.555	25.654	874.566	696.042
279.570	25.506	873.668	694.695
280.585	25.566	873.179	694.472
281.599	25.543	872.417	693.719
282.614	24.876	871.112	690.050
283.628	25.001	870.900	690.302
284.643	25.510	870.124	691.584
285.657	24.943	869.286	688.679
286.672	24.792	868.448	687.371
287.687	25.356	868.294	689.357
288.701	25.355	867.967	689.031
289.716	24.993	867.247	687.012
290.730	24.898	866.623	686.090
291.745	24.700	865.365	684.277
292.760	25.024	865.535	685.591
293.774	26.011	865.742	689.470
294.789	26.389	865.235	690.448
295.803	26.324	864.964	689.924
296.818	26.418	863.893	689.366
297.833	25.904	863.132	686.738
298.847	25.726	862.504	685.501
299.862	26.039	862.257	686.435
300.876	26.399	862.101	687.620
301.891	26.132	861.409	685.991
302.906	25.783	860.216	683.655
303.920	25.863	860.053	683.769
304.935	26.337	859.749	685.267
305.949	26.267	859.108	684.430
306.964	25.864	858.430	682.304
307.979	25.924	858.226	682.308
308.993	26.582	857.252	683.960
310.008	26.551	856.665	683.315
311.022	26.019	856.509	681.120
312.037	26.103	855.208	680.342
313.052	25.886	854.461	678.871
314.066	24.860	853.252	673.988
315.081	24.557	852.637	672.301
316.095	25.452	853.026	675.916
317.110	25.764	852.994	677.006
318.125	25.044	851.233	672.845
319.139	23.950	849.881	667.614
320.154	23.978	849.755	667.561
321.168	25.014	850.152	671.701
322.183	25.797	849.933	674.403
323.197	25.850	849.604	674.278
324.212	26.009	848.891	674.249
325.227	25.965	848.765	673.924
326.241	25.866	847.797	672.727
327.256	25.720	847.473	671.866
328.270	25.700	847.135	671.461
329.285	25.538	845.874	669.799
330.300	25.287	844.965	668.087
331.314	25.529	844.973	668.934
332.329	25.952	844.636	670.180
333.343	26.226	844.220	670.810
334.358	26.202	844.139	670.596
335.373	26.131	843.889	670.077
336.387	26.549	843.846	671.533
337.402	26.590	843.636	671.457
338.416	26.281	843.443	670.100
339.431	26.507	843.140	670.638
340.446	26.647	842.739	670.777
341.460	26.749	841.613	670.200
342.475	26.399	841.497	668.753
343.489	26.650	841.106	669.310
344.504	26.706	841.115	669.465
345.519	27.020	840.338	669.947
346.533	27.041	839.770	669.511
347.548	26.990	839.470	669.027
348.562	26.913	838.635	668.019
349.577	26.889	838.016	667.376
350.592	26.896	837.586	667.000
351.606	26.850	836.560	665.955
352.621	26.757	835.868	665.006
353.635	26.680	835.077	664.035
354.650	26.088	833.176	660.300
355.665	25.058	832.232	655.725
356.679	25.464	832.170	657.104
357.694	25.990	831.610	658.525
358.708	25.843	831.022	657.467
359.723	26.298	830.979	659.034
360.738	26.718	830.579	660.187
361.752	26.593	830.873	659.909
362.767	26.959	829.956	660.455
363.781	27.138	829.451	660.642
364.796	27.266	829.672	661.225
365.810	27.370	829.060	661.059
366.825	27.329	828.553	660.446
367.840	27.039	827.650	658.615
368.854	26.682	826.728	656.533
369.869	26.447	826.659	655.566
370.883	26.711	825.848	655.821
371.898	26.586	825.315	654.887
372.913	26.622	825.564	655.158
373.927	26.812	824.711	655.111
374.942	26.922	824.296	655.118
375.956	27.033	824.198	655.383
376.971	27.197	823.445	655.319
377.986	27.473	823.210	656.069
379.000	27.172	822.773	654.579
380.015	26.961	822.493	653.537
381.029	27.209	821.453	653.543
382.044	27.246	821.010	653.268
383.059	27.401	820.565	653.413
384.073	27.340	820.171	652.822
385.088	27.312	819.502	652.130
386.102	26.947	818.891	650.279
387.117	27.075	817.378	649.477
388.132	26.637	816.690	647.310
389.146	26.109	816.231	645.002
390.161	26.529	816.229	646.442
391.175	27.037	815.747	647.818
392.190	26.777	814.640	645.953
393.205	25.158	812.725	638.619
394.219	23.587	811.011	631.630
395.234	23.681	810.466	631.483
396.248	25.462	811.815	638.815
397.263	26.741	812.839	644.112
398.278	26.760	812.316	643.708
399.292	26.519	811.710	642.318
400.307	26.583	811.065	641.976
401.321	26.607	811.004	641.955
402.336	27.059	810.642	643.214
403.350	27.502	810.412	644.543
404.365	27.649	810.783	645.300
405.380	28.047	810.284	646.252
406.394	28.059	809.686	645.763
407.409	27.952	809.170	644.918
408.423	27.836	808.885	644.223
409.438	27.905	808.706	644.266
410.453	27.982	808.196	644.074
411.467	27.889	807.401	643.055
412.482	28.073	806.948	643.286
413.496	28.044	806.662	642.900
414.511	28.081	806.373	642.742
415.526	27.865	806.249	641.828
416.540	27.794	805.511	640.934
417.555	27.672	804.430	639.588
418.569	27.869	803.999	639.881
419.584	27.729	803.563	638.987
420.599	27.440	803.136	637.576
421.613	110.532	1286.669	1460.282
422.628	95.394	1357.109	1460.409
