DTS Sentinel unit serial number:	SN413079Multiplexer serial number:	ORYXHardware model number:	OX4-SRSoftware version number:	ORYX F/W v4.00 Oryx Data Collector v3.7.2.0data status	okinstallation	princeton_trtdifferential loss correction	single-endedforward channel	channel 1reverse channel	N/Adate	2019/09/12time	04:24:11forward acquisition time	60.00reverse acquisition time	0.00gamma	496.2192k internal	0.2324k external	0.2324temperature offset calibration	1.0081default loss term (dB/km)	0.3790temperature slope calibration	1.0000multiplexer offset coefficient	1.0000multiplexer slope coefficient	1.0000fibre end	0.00T internal ref (°C)	31.69T ext. ref 1 (°C)	2.24T ext. ref 2 (°C)	25.68length (m)	temperature (°C)	Stokes	anti-Stokes-747.200	-200.000	0.051	0.317
-746.185	-20.248	-0.165	0.103
-745.171	-70.524	0.323	-0.123
-744.156	10.462	0.274	0.211
-743.142	576.463	0.107	0.265
-742.127	-120.140	-0.442	0.076
-741.112	-200.000	0.016	0.334
-740.098	800.000	-0.067	0.290
-739.083	-200.000	0.081	-0.407
-738.069	87.289	-0.237	0.265
-737.054	-44.111	-0.312	0.158
-736.039	-173.769	-0.335	-0.010
-735.025	86.623	0.178	0.198
-734.010	800.000	-0.053	-0.162
-732.996	193.897	-0.228	-0.348
-731.981	209.131	-0.060	0.094
-730.966	-101.776	-0.217	0.053
-729.952	-75.201	-0.060	-0.022
-728.937	-200.000	0.002	-0.395
-727.923	77.213	-0.108	0.116
-726.908	89.650	-0.032	0.036
-725.894	-13.137	-0.103	-0.067
-724.879	-181.388	-0.053	-0.001
-723.864	-63.048	-0.144	-0.060
-722.850	-153.651	0.203	-0.014
-721.835	800.000	0.048	-0.212
-720.821	-118.082	0.314	-0.057
-719.806	800.000	-0.091	0.272
-718.791	-143.567	0.178	-0.017
-717.777	510.852	0.063	-0.147
-716.762	800.000	0.073	-0.220
-715.748	-106.826	-0.263	0.059
-714.733	-80.299	-0.210	-0.071
-713.718	386.485	-0.079	-0.163
-712.704	-55.277	0.262	-0.119
-711.689	800.000	0.072	0.306
-710.675	-72.893	-0.233	-0.086
-709.660	288.571	0.142	0.260
-708.645	42.296	-0.267	0.245
-707.631	-103.024	-0.201	0.048
-706.616	136.180	-0.221	0.291
-705.602	35.878	-0.124	0.110
-704.587	-93.033	-0.360	0.101
-703.572	159.347	-0.019	-0.027
-702.558	45.836	-0.179	0.167
-701.543	-102.647	-0.050	0.012
-700.529	-98.590	0.203	-0.052
-699.514	-61.854	0.277	-0.117
-698.499	800.000	0.093	0.306
-697.485	294.389	-0.048	0.088
-696.470	-84.702	-0.169	0.054
-695.456	-8.024	-0.236	0.160
-694.441	-22.912	-0.020	-0.012
-693.426	-200.000	0.032	0.274
-692.412	-30.194	-0.091	0.052
-691.397	-51.045	0.258	0.122
-690.383	-200.000	-0.077	-0.405
-689.368	-30.495	-0.208	-0.119
-688.354	57.491	-0.177	0.174
-687.339	-122.583	-0.337	0.055
-686.324	-34.812	0.235	-0.129
-685.310	16.237	0.068	-0.054
-684.295	45.134	0.048	-0.044
-683.281	-200.000	0.013	0.085
-682.266	-200.000	-0.011	0.170
-681.251	466.765	0.073	-0.165
-680.237	94.902	0.137	-0.157
-679.222	-200.000	0.020	0.136
-678.208	-174.098	-0.358	-0.011
-677.193	-200.000	-0.024	-0.157
-676.178	31.394	0.065	-0.056
-675.164	-68.525	0.389	-0.152
-674.149	204.613	0.149	0.232
-673.135	93.520	0.176	-0.200
-672.120	-85.974	0.097	0.030
-671.105	307.380	-0.038	-0.071
-670.091	-6.930	0.169	-0.116
-669.076	134.882	-0.185	0.242
-668.062	541.636	-0.143	-0.342
-667.047	800.000	-0.084	-0.320
-666.032	-142.454	-0.378	0.037
-665.018	-134.960	0.445	0.054
-664.003	-27.549	0.455	0.266
-662.989	328.069	-0.029	-0.057
-661.974	-57.994	0.206	0.090
-660.959	-162.110	0.390	-0.020
-659.945	-102.098	-0.398	-0.096
-658.930	-119.262	0.149	-0.026
-657.916	-20.131	-0.213	-0.132
-656.901	197.094	0.072	0.110
-655.886	-200.000	-0.007	-0.136
-654.872	-200.000	-0.035	0.248
-653.857	800.000	-0.052	0.160
-652.843	-73.980	-0.370	0.135
-651.828	24.211	-0.025	-0.021
-650.814	0.496	-0.214	-0.154
-649.799	-37.003	-0.257	-0.139
-648.784	-192.493	-0.281	-0.003
-647.770	404.784	0.112	0.237
-646.755	115.837	0.041	-0.051
-645.741	-10.815	-0.146	0.097
-644.726	-140.979	0.248	0.026
-643.711	400.653	-0.106	0.223
-642.697	-108.416	-0.198	-0.043
-641.682	800.000	-0.062	0.190
-640.668	-37.536	-0.313	0.168
-639.653	471.635	-0.153	-0.347
-638.638	55.099	0.204	0.198
-637.624	174.704	-0.109	0.159
-636.609	227.683	0.121	-0.199
-635.595	155.238	0.076	0.106
-634.580	-197.175	0.191	0.001
-633.565	-180.093	0.181	0.004
-632.551	-37.552	-0.380	-0.203
-631.536	11.135	-0.254	0.195
-630.522	-6.198	0.083	0.057
-629.507	375.293	0.027	-0.056
-628.492	457.869	0.208	0.465
-627.478	-78.549	-0.170	0.058
-626.463	216.269	-0.026	-0.042
-625.449	104.753	-0.176	-0.208
-624.434	26.962	-0.195	-0.165
-623.419	242.191	-0.151	-0.254
-622.405	-16.411	0.204	0.130
-621.390	-196.420	-0.131	-0.001
-620.376	-61.677	-0.430	-0.181
-619.361	-98.558	-0.403	0.104
-618.346	-33.481	0.485	0.269
-617.332	-104.569	0.234	0.054
-616.317	-79.988	0.106	0.036
-615.303	-200.000	-0.003	-0.124
-614.288	257.915	-0.125	0.217
-613.273	414.266	0.053	-0.112
-612.259	-200.000	-0.109	-0.644
-611.244	-86.635	-0.307	0.094
-610.230	80.083	-0.073	-0.079
-609.215	-200.000	0.004	0.067
-608.201	-85.588	-0.281	0.088
-607.186	-200.000	0.008	0.159
-606.171	353.624	-0.157	0.313
-605.157	140.634	-0.087	-0.116
-604.142	3.642	-0.216	-0.158
-603.128	-200.000	-0.004	0.025
-602.113	771.669	0.094	-0.257
-601.098	-57.371	-0.235	-0.104
-600.084	-27.712	0.152	0.089
-599.069	-86.175	-0.114	-0.035
-598.055	-136.812	-0.515	-0.060
-597.040	-124.805	-0.401	0.062
-596.025	800.000	-0.014	0.040
-595.011	-58.069	0.285	0.125
-593.996	-200.000	-0.002	0.012
-592.982	-117.876	-0.058	-0.010
-591.967	160.867	-0.194	0.272
-590.952	-55.109	0.233	0.105
-589.938	423.507	-0.084	0.182
-588.923	-76.420	-0.283	-0.100
-587.909	219.022	-0.085	-0.136
-586.894	127.940	-0.151	0.193
-585.879	-200.000	-0.006	0.103
-584.865	17.922	-0.104	-0.083
-583.850	-72.203	0.182	-0.068
-582.836	-138.974	0.486	0.053
-581.821	10.306	-0.053	0.040
-580.806	-86.407	0.075	-0.023
-579.792	-40.838	-0.290	0.150
-578.777	128.307	-0.251	0.320
-577.763	81.580	-0.159	-0.173
-576.748	-72.392	0.237	0.088
-575.733	306.725	-0.046	0.086
-574.719	-104.847	0.142	-0.033
-573.704	-200.000	-0.036	-0.215
-572.690	56.836	0.122	0.119
-571.675	207.076	0.120	0.187
-570.661	73.697	-0.103	0.108
-569.646	-115.906	0.276	0.052
-568.631	-48.700	-0.209	-0.101
-567.617	-21.049	-0.106	-0.065
-566.602	256.067	-0.032	0.055
-565.588	60.160	-0.150	-0.148
-564.573	-50.233	0.164	-0.078
-563.558	800.000	0.022	-0.071
-562.544	-36.248	0.184	-0.100
-561.529	800.000	-0.113	0.454
-560.515	-200.000	0.037	-0.246
-559.500	-200.000	-0.010	-0.265
-558.485	-56.763	-0.052	-0.023
-557.471	-87.883	0.072	-0.022
-556.456	149.878	-0.248	-0.337
-555.442	253.831	-0.128	-0.219
-554.427	-200.000	-0.012	-0.248
-553.412	57.764	-0.163	-0.160
-552.398	27.252	-0.069	0.058
-551.383	-154.847	-0.066	0.004
-550.369	66.066	0.277	-0.281
-549.354	-92.112	0.104	-0.029
-548.339	-189.347	0.227	-0.003
-547.325	46.815	0.111	-0.103
-546.310	-11.850	-0.228	-0.150
-545.296	530.658	-0.133	0.314
-544.281	-200.000	0.000	-0.119
-543.266	152.580	-0.098	0.134
-542.252	4.483	0.180	-0.132
-541.237	800.000	-0.028	0.079
-540.223	-22.808	-0.365	-0.221
-539.208	-153.628	-0.140	0.010
-538.193	129.500	-0.163	0.208
-537.179	-193.679	0.240	-0.002
-536.164	15.190	0.099	-0.078
-535.150	55.562	-0.031	0.030
-534.135	-60.250	0.178	-0.076
-533.121	-142.648	-0.092	-0.009
-532.106	-198.482	0.261	-0.001
-531.091	-89.423	-0.391	-0.115
-530.077	-35.080	0.115	0.063
-529.062	-114.895	0.112	0.021
-528.048	217.561	-0.211	-0.337
-527.033	-12.852	0.202	-0.132
-526.018	-43.653	0.284	0.143
-525.004	69.972	0.204	0.211
-523.989	-20.324	-0.137	0.084
-522.975	800.000	-0.176	0.503
-521.960	-15.668	-0.342	-0.218
-520.945	-94.422	0.162	0.044
-519.931	-70.070	-0.219	0.083
-518.916	11.615	-0.230	0.176
-517.902	457.076	0.031	-0.070
-516.887	-65.037	-0.183	-0.074
-515.872	-200.000	0.007	-0.159
-514.858	-165.620	-0.025	0.001
-513.843	87.618	-0.202	0.224
-512.829	143.936	-0.260	0.346
-511.814	183.209	0.074	-0.109
-510.799	142.833	0.069	-0.092
-509.785	-5.176	-0.279	0.192
-508.770	-200.000	-0.022	0.165
-507.756	222.929	-0.109	-0.176
-506.741	101.573	0.201	0.234
-505.726	82.522	-0.012	0.013
-504.712	-200.000	-0.046	-0.255
-503.697	-200.000	0.022	0.111
-502.683	-200.000	-0.038	-0.194
-501.668	-159.149	0.311	0.018
-500.653	11.282	-0.062	0.048
-499.639	-78.636	0.023	-0.008
-498.624	125.466	-0.190	-0.240
-497.610	-200.000	0.016	-0.233
-496.595	48.484	0.169	0.158
-495.581	-200.000	0.024	-0.176
-494.566	656.062	-0.098	0.250
-493.551	-128.155	-0.029	-0.004
-492.537	-200.000	-0.009	0.312
-491.522	-90.718	-0.070	-0.020
-490.508	90.796	-0.080	-0.090
-489.493	125.988	0.226	-0.285
-488.478	690.676	0.037	-0.096
-487.464	-200.000	-0.043	-0.340
-486.449	462.912	0.021	-0.046
-485.435	302.948	-0.265	-0.491
-484.420	-23.890	0.020	-0.012
-483.405	-50.793	0.221	0.104
-482.391	-200.000	0.064	-0.413
-481.376	-96.117	-0.200	-0.053
-480.362	-200.000	0.019	-0.124
-479.347	196.453	0.187	0.285
-478.332	-118.351	0.026	-0.005
-477.318	124.340	-0.181	0.227
-476.303	800.000	0.056	-0.159
-475.289	522.519	0.065	-0.152
-474.274	-200.000	0.044	0.218
-473.259	28.860	-0.118	-0.100
-472.245	376.448	0.065	-0.133
-471.230	-140.080	0.369	0.039
-470.216	-13.088	0.208	0.135
-469.201	-121.576	-0.200	-0.033
-468.186	800.000	-0.061	0.181
-467.172	-109.970	0.130	0.027
-466.157	192.777	-0.245	-0.370
-465.143	77.336	0.014	-0.015
-464.128	12.067	-0.306	0.235
-463.113	-200.000	-0.003	0.056
-462.099	-82.654	-0.049	0.016
-461.084	-68.505	-0.277	-0.107
-460.070	792.157	0.109	-0.300
-459.055	-200.000	0.022	0.099
-458.040	7.714	0.074	-0.056
-457.026	525.428	-0.158	0.371
-456.011	320.188	-0.147	0.279
-454.997	-200.000	-0.014	-0.224
-453.982	-108.692	-0.276	-0.059
-452.968	137.990	0.161	0.211
-451.953	-200.000	-0.029	0.209
-450.938	-140.914	-0.352	-0.036
-449.924	149.616	-0.079	-0.106
-448.909	-25.438	0.126	-0.075
-447.895	-73.533	-0.308	-0.112
-446.880	-136.821	0.349	-0.040
-445.865	-200.000	0.030	0.252
-444.851	255.347	-0.083	-0.142
-443.836	63.108	-0.108	0.108
-442.822	515.491	0.067	-0.155
-441.807	-200.000	-0.016	0.160
-440.792	192.090	-0.086	-0.129
-439.778	800.000	-0.038	0.144
-438.763	87.727	-0.188	0.208
-437.749	-35.543	0.215	0.116
-436.734	-200.000	0.026	-0.169
-435.719	-138.288	0.287	0.032
-434.705	-57.625	0.099	-0.043
-433.690	390.855	0.130	-0.269
-432.676	133.143	0.202	0.260
-431.661	800.000	-0.030	-0.096
-430.646	-61.532	-0.104	-0.044
-429.632	-200.000	0.018	0.376
-428.617	-93.342	0.219	-0.061
-427.603	531.882	0.041	0.097
-426.588	-54.683	-0.226	0.102
-425.573	-50.310	-0.181	0.085
-424.559	294.238	0.066	0.120
-423.544	800.000	-0.069	-0.231
-422.530	156.331	-0.125	0.172
-421.515	283.699	-0.059	0.106
-420.500	166.862	0.096	-0.136
-419.486	-47.400	0.088	-0.042
-418.471	138.369	-0.079	0.104
-417.457	109.274	0.311	0.371
-416.442	-114.001	0.241	-0.047
-415.428	-27.714	0.131	0.076
-414.413	-48.374	-0.239	-0.115
-413.398	-101.111	-0.129	0.032
-412.384	-200.000	0.064	0.372
-411.369	-188.153	0.260	0.003
-410.355	719.474	-0.064	-0.169
-409.340	66.768	-0.038	0.039
-408.325	-46.520	0.233	0.114
-407.311	-200.000	-0.042	-0.195
-406.296	-200.000	-0.007	-0.040
-405.282	1.897	-0.144	-0.103
-404.267	166.998	-0.168	-0.237
-403.252	-64.854	0.375	0.151
-402.238	-88.876	-0.159	0.047
-401.223	119.622	0.105	-0.130
-400.209	451.807	-0.043	-0.094
-399.194	16.448	0.089	0.070
-398.179	25.581	-0.075	-0.063
-397.165	-171.419	-0.124	-0.004
-396.150	-200.000	0.036	-0.332
-395.136	60.988	-0.195	0.192
-394.121	-81.458	-0.115	-0.038
-393.106	800.000	-0.090	0.320
-392.092	-98.563	0.359	0.091
-391.077	-200.000	0.108	-0.525
-390.063	800.000	-0.046	-0.153
-389.048	-200.000	0.061	0.335
-388.033	708.919	0.159	0.418
-387.019	-191.399	-0.107	0.001
-386.004	-148.687	0.048	0.004
-384.990	-200.000	-0.027	-0.137
-383.975	183.109	0.230	0.339
-382.960	-92.867	-0.282	0.078
-381.946	-47.457	0.180	-0.087
-380.931	39.189	0.210	-0.187
-379.917	800.000	0.069	0.201
-378.902	81.210	-0.228	-0.245
-377.888	800.000	0.101	-0.296
-376.873	-78.606	-0.213	-0.072
-375.858	18.327	-0.267	-0.213
-374.844	-200.000	0.043	0.210
-373.829	-47.658	-0.202	-0.098
-372.815	9.547	0.062	-0.047
-371.800	-16.128	-0.221	-0.139
-370.785	-177.716	0.338	-0.008
-369.771	271.866	0.152	0.266
-368.756	-92.505	-0.238	0.067
-367.742	-119.779	0.426	-0.073
-366.727	800.000	0.113	0.329
-365.712	-200.000	-0.030	-0.474
-364.698	-200.000	0.008	0.063
-363.683	800.000	0.067	0.207
-362.669	-161.099	-0.088	-0.005
-361.654	-88.322	0.056	-0.017
-360.639	291.104	0.154	0.278
-359.625	-47.913	0.100	0.048
-358.610	354.703	0.112	0.221
-357.596	28.060	-0.192	-0.161
-356.581	-113.439	0.205	0.040
-355.566	-91.205	0.211	-0.060
-354.552	-123.290	-0.201	0.032
-353.537	-55.999	0.293	0.130
-352.523	-24.134	0.217	0.129
-351.508	-19.608	-0.153	0.094
-350.493	-16.727	-0.070	-0.044
-349.479	128.212	0.206	0.261
-348.464	308.965	0.023	0.043
-347.450	538.686	-0.066	-0.157
-346.435	-200.000	-0.007	-0.214
-345.420	-200.000	0.068	0.557
-344.406	154.521	0.274	0.374
-343.391	-22.124	0.176	-0.106
-342.377	72.496	0.030	-0.031
-341.362	-200.000	0.002	-0.029
-340.348	-168.557	0.540	-0.020
-339.333	-7.911	-0.236	-0.158
-338.318	0.082	0.144	-0.102
-337.304	-100.890	-0.424	-0.104
-336.289	89.345	-0.155	-0.172
-335.275	472.807	0.093	0.209
-334.260	-200.000	-0.008	-0.113
-333.245	-10.202	-0.027	-0.018
-332.231	-5.148	0.245	-0.168
-331.216	223.017	-0.071	-0.114
-330.202	55.962	-0.161	0.155
-329.187	-76.498	0.076	-0.026
-328.172	346.497	0.010	-0.019
-327.158	-200.000	0.017	-0.202
-326.143	-200.000	-0.005	0.150
-325.129	84.417	0.119	0.129
-324.114	21.820	-0.157	-0.127
-323.099	-65.697	0.244	0.097
-322.085	-63.955	-0.317	0.129
-321.070	-173.540	0.278	0.008
-320.056	77.647	-0.056	0.059
-319.041	-161.155	0.040	0.002
-318.026	-81.135	0.249	0.082
-317.012	6.887	-0.237	0.175
-315.997	28.730	0.134	0.113
-314.983	-200.000	0.081	0.426
-313.968	-169.746	0.045	-0.002
-312.953	238.873	0.262	-0.433
-311.939	150.272	-0.241	-0.324
-310.924	-200.000	0.014	0.147
-309.910	-200.000	-0.002	-0.168
-308.895	131.319	0.025	-0.032
-307.880	-122.442	-0.201	0.032
-306.866	21.234	-0.294	0.237
-305.851	28.266	0.269	0.225
-304.837	-200.000	-0.019	-0.180
-303.822	-28.726	-0.138	-0.079
-302.807	295.546	0.049	-0.089
-301.793	61.405	-0.097	-0.096
-300.778	-139.480	-0.301	0.032
-299.764	134.462	0.187	0.240
-298.749	-5.539	-0.139	-0.095
-297.735	-99.040	0.275	0.069
-296.720	800.000	0.082	-0.290
-295.705	34.539	0.099	-0.085
-294.691	144.493	-0.251	0.333
-293.676	53.302	0.338	-0.321
-292.662	-127.912	-0.297	-0.042
-291.647	-109.095	-0.211	0.044
-290.632	-200.000	0.018	-0.159
-289.618	-53.048	0.313	-0.143
-288.603	1.796	-0.199	0.143
-287.589	-200.000	0.045	0.265
-286.574	-33.245	0.137	0.075
-285.559	170.529	0.261	-0.370
-284.545	521.730	-0.086	0.200
-283.530	623.893	0.119	-0.297
-282.516	800.000	-0.062	0.215
-281.501	160.138	0.060	0.083
-280.486	-200.000	0.003	0.209
-279.472	-48.055	-0.107	-0.051
-278.457	-200.000	0.020	0.217
-277.443	135.520	0.165	-0.213
-276.428	-200.000	0.005	0.214
-275.413	-23.389	0.170	-0.101
-274.399	-129.201	0.102	0.014
-273.384	-200.000	-0.039	-0.298
-272.370	-42.730	-0.203	-0.102
-271.355	38.210	0.176	-0.155
-270.340	800.000	0.033	0.091
-269.326	-200.000	-0.035	-0.266
-268.311	185.931	0.269	0.396
-267.297	-83.146	-0.190	0.060
-266.282	-61.815	0.106	0.044
-265.267	11.175	-0.335	0.254
-264.253	800.000	-0.026	0.096
-263.238	-45.186	0.201	-0.099
-262.224	-20.861	0.168	-0.102
-261.209	302.349	0.023	0.041
-260.195	56.402	-0.284	-0.274
-259.180	95.217	-0.265	-0.299
-258.165	800.000	0.103	0.415
-257.151	-152.671	-0.219	0.015
-256.136	-3.300	-0.195	-0.135
-255.122	-53.755	0.164	-0.074
-254.107	-23.406	-0.189	-0.113
-253.092	-35.045	0.207	-0.112
-252.078	353.942	0.094	0.185
-251.063	50.166	-0.224	-0.209
-250.049	-200.000	-0.023	0.142
-249.034	-126.219	-0.044	0.007
-248.019	800.000	-0.125	-0.405
-247.005	-30.285	0.184	-0.103
-245.990	97.427	0.142	-0.161
-244.976	104.579	-0.085	-0.099
-243.961	62.155	-0.344	-0.340
-242.946	14.672	-0.326	0.252
-241.932	38.064	-0.191	0.169
-240.917	-99.593	0.115	-0.028
-239.903	412.893	0.061	0.129
-238.888	-102.229	-0.305	-0.072
-237.873	-25.625	-0.297	0.174
-236.859	-42.134	-0.143	0.072
-235.844	184.323	-0.108	-0.158
-234.830	551.001	0.073	0.174
-233.815	-48.354	0.318	0.152
-232.800	135.458	-0.210	0.271
-231.786	800.000	-0.026	-0.085
-230.771	568.015	0.110	0.265
-229.757	231.545	0.253	0.411
-228.742	29.804	0.193	-0.163
-227.727	665.741	-0.070	0.179
-226.713	-200.000	-0.017	-0.174
-225.698	150.148	-0.056	0.076
-224.684	-200.000	-0.020	-0.255
-223.669	319.484	0.049	0.093
-222.655	-12.190	-0.134	0.087
-221.640	-162.490	0.285	-0.014
-220.625	318.492	-0.150	0.281
-219.611	-72.408	0.128	-0.047
-218.596	-188.107	-0.478	-0.006
-217.582	-27.920	0.102	0.058
-216.567	96.960	-0.181	-0.205
-215.552	268.812	-0.070	0.122
-214.538	88.197	0.156	-0.171
-213.523	800.000	-0.038	-0.130
-212.509	-85.699	0.266	0.082
-211.494	21.900	-0.236	-0.191
-210.479	-2.699	-0.106	0.073
-209.465	-72.580	-0.401	-0.146
-208.450	-133.183	0.611	0.076
-207.436	-107.664	0.190	-0.041
-206.421	-200.000	0.037	-0.442
-205.406	53.595	0.090	-0.085
-204.392	-200.000	-0.025	-0.118
-203.377	-48.779	0.191	-0.091
-202.363	-115.291	0.183	-0.034
-201.348	525.593	0.172	-0.401
-200.333	249.334	-0.129	-0.216
-199.319	61.285	-0.008	-0.008
-198.304	-54.542	0.419	-0.187
-197.290	-200.000	0.004	0.154
-196.275	-36.769	0.406	0.215
-195.260	187.103	0.047	-0.069
-194.246	165.347	-0.049	0.068
-193.231	-200.000	0.446	-0.000
-192.217	-133.025	0.370	-0.046
-191.202	157.981	0.048	0.065
-190.187	-200.000	-0.246	0.000
-189.173	-101.579	0.246	-0.059
-188.158	800.000	-0.044	-0.134
-187.144	-58.612	0.096	-0.041
-186.129	-108.589	-0.147	-0.031
-185.114	184.441	0.283	0.414
-184.100	265.341	0.104	-0.179
-183.085	-183.132	0.179	-0.003
-182.071	-131.201	0.363	-0.048
-181.056	-200.000	0.003	0.166
-180.042	-200.000	0.032	-0.275
-179.027	800.000	0.048	-0.138
-178.012	-200.000	0.015	0.245
-176.998	-200.000	0.001	-0.191
-175.983	216.196	0.124	0.194
-174.969	-141.764	0.345	0.034
-173.954	321.320	-0.083	-0.156
-172.939	731.415	-0.076	-0.200
-171.925	-92.067	-0.124	-0.035
-170.910	-200.000	0.037	0.215
-169.896	-91.065	0.215	0.061
-168.881	96.993	-0.095	-0.107
-167.866	155.135	0.212	-0.287
-166.852	-200.000	0.004	0.177
-165.837	-126.772	-0.160	0.023
-164.823	-51.838	-0.254	-0.117
-163.808	800.000	-0.051	-0.217
-162.793	13.049	-0.164	-0.125
-161.779	43.285	0.163	0.146
-160.764	36.728	0.424	-0.370
-159.750	285.617	-0.060	0.106
-158.735	125.640	0.261	0.325
-157.720	9.901	-0.096	-0.072
-156.706	121.913	0.320	0.394
-155.691	-200.000	-0.053	0.316
-154.677	788.024	-0.085	0.231
-153.662	209.977	-0.023	-0.035
-152.647	162.353	0.045	-0.062
-151.633	-64.286	0.265	-0.106
-150.618	800.000	-0.055	-0.205
-149.604	327.547	-0.056	-0.105
-148.589	225.648	-0.099	-0.158
-147.574	194.603	0.119	0.178
-146.560	-16.932	0.378	0.235
-145.545	800.000	0.016	0.054
-144.531	800.000	-0.048	0.188
-143.516	800.000	0.153	0.417
-142.502	-143.060	0.270	-0.026
-141.487	342.221	0.184	-0.354
-140.472	-17.610	0.457	-0.283
-139.458	-106.121	-0.240	-0.053
-138.443	-135.341	-0.145	0.017
-137.429	-113.524	0.242	-0.047
-136.414	120.197	-0.036	0.044
-135.399	494.227	0.080	0.180
-134.385	354.528	-0.087	-0.170
-133.370	215.181	0.027	0.043
-132.356	-106.315	-0.213	-0.047
-131.341	-200.000	0.021	-0.134
-130.326	175.068	0.010	0.015
-129.312	-200.000	-0.014	-0.219
-128.297	-110.403	0.353	0.072
-127.283	800.000	0.074	0.256
-126.268	3.997	-0.204	-0.147
-125.253	-200.000	0.057	-0.270
-124.239	-185.883	-0.041	-0.001
-123.224	95.067	0.137	-0.154
-122.210	589.321	0.094	-0.227
-121.195	220.797	0.204	-0.323
-120.180	46.601	-0.200	-0.183
-119.166	512.878	-0.162	-0.372
-118.151	186.111	0.071	-0.103
-117.137	53.778	-0.089	0.084
-116.122	80.879	-0.083	0.088
-115.107	-12.727	0.083	-0.053
-114.093	-127.892	0.096	0.014
-113.078	-200.000	-0.014	-0.239
-112.064	133.032	0.205	-0.261
-111.049	-63.003	0.273	0.111
-110.034	-200.000	0.020	-0.243
-109.020	-100.278	0.125	0.031
-108.005	147.876	0.273	0.362
-106.991	218.149	-0.198	0.311
-105.976	222.888	-0.130	0.206
-104.962	41.924	0.207	-0.184
-103.947	176.959	0.051	0.073
-102.932	-200.000	0.029	0.308
-101.918	20.909	-0.187	0.149
-100.903	-200.000	0.025	0.357
-99.889	-200.000	-0.042	0.189
-98.874	273.453	0.123	-0.215
-97.859	116.497	0.131	0.158
-96.845	-200.000	-0.089	-0.406
-95.830	800.000	0.057	0.169
-94.816	547.008	0.103	-0.243
-93.801	-59.023	0.484	0.206
-92.786	-136.444	0.297	-0.034
-91.772	-29.544	0.263	0.148
-90.757	-200.000	-0.010	0.111
-89.743	-200.000	0.023	-0.235
-88.728	305.822	-0.122	0.224
-87.713	-200.000	-0.027	0.373
-86.699	110.343	0.103	-0.122
-85.684	-200.000	-0.019	0.220
-84.670	287.326	0.199	0.354
-83.655	524.598	-0.004	0.010
-82.640	-200.000	0.003	0.168
-81.626	103.638	0.207	0.239
-80.611	230.148	-0.173	-0.278
-79.597	-86.265	0.345	0.105
-78.582	-162.470	-0.069	-0.003
-77.567	522.930	-0.093	0.214
-76.553	-108.707	0.137	0.029
-75.538	-200.000	-0.069	0.381
-74.524	135.083	-0.078	0.100
-73.509	800.000	0.060	0.254
-72.494	70.807	-0.021	0.022
-71.480	607.674	-0.042	-0.103
-70.465	146.751	0.093	-0.123
-69.451	314.374	0.156	-0.289
-68.436	-56.262	0.162	0.071
-67.422	800.000	-0.068	-0.246
-66.407	-115.484	-0.166	0.031
-65.392	-200.000	0.071	-0.327
-64.378	-83.304	0.111	-0.035
-63.363	33.119	-0.046	0.039
-62.349	3.524	0.259	0.186
-61.334	102.469	-0.972	-1.117
-60.319	245.836	0.338	0.559
-59.305	800.000	-0.266	-1.015
-58.290	-200.000	0.187	1.284
-57.276	800.000	0.687	1.963
-56.261	-200.000	97.330	596.437
-55.246	540.792	1374.281	3216.307
-54.232	161.456	2553.016	3509.308
-53.217	112.946	2132.876	2539.888
-52.203	43.722	1593.888	1433.356
-51.188	35.333	1331.018	1147.010
-50.173	32.014	1289.603	1092.001
-49.159	54.508	1337.707	1266.466
-48.144	56.595	1354.040	1294.223
-47.130	35.342	1312.515	1130.939
-46.115	31.745	1295.087	1094.900
-45.100	31.688	1290.058	1090.275
-44.086	31.530	1287.834	1087.435
-43.071	31.581	1285.263	1085.513
-42.057	31.464	1283.511	1083.317
-41.042	31.658	1280.923	1082.207
-40.027	31.522	1280.184	1080.753
-39.013	31.521	1278.550	1079.327
-37.998	31.576	1276.387	1077.778
-36.984	31.630	1274.652	1076.578
-35.969	31.623	1272.876	1074.997
-34.954	31.674	1271.347	1073.956
-33.940	31.761	1270.080	1073.338
-32.925	31.799	1268.635	1072.293
-31.911	31.702	1267.221	1070.501
-30.896	31.673	1265.758	1069.056
-29.881	31.821	1264.310	1068.638
-28.867	31.734	1263.154	1067.120
-27.852	31.840	1261.634	1066.398
-26.838	31.850	1260.067	1065.084
-25.823	31.845	1258.825	1063.968
-24.809	31.830	1257.458	1062.686
-23.794	31.889	1256.122	1061.845
-22.779	31.849	1254.901	1060.544
-21.765	31.844	1253.643	1059.411
-20.750	31.776	1252.495	1058.018
-19.736	31.678	1251.478	1056.565
-18.721	31.568	1250.163	1054.788
-17.706	31.611	1248.848	1053.879
-16.692	31.639	1247.740	1053.064
-15.677	31.691	1246.530	1052.289
-14.663	31.694	1245.500	1051.394
-13.648	31.686	1244.126	1050.147
-12.633	31.631	1243.334	1049.132
-11.619	31.550	1243.034	1048.381
-10.604	31.549	1242.199	1047.629
-9.590	31.664	1240.579	1046.869
-8.575	31.581	1239.912	1045.797
-7.560	31.568	1238.984	1044.903
-6.546	31.655	1237.993	1044.512
-5.531	31.597	1237.563	1043.783
-4.517	31.617	1236.376	1042.853
-3.502	31.654	1235.409	1042.197
-2.487	31.616	1234.600	1041.263
-1.473	31.522	1230.423	1037.181
-0.458	30.098	1215.659	1016.888
0.556	27.446	1199.335	982.355
1.571	24.403	1205.636	970.896
2.586	23.931	1220.959	980.548
3.600	23.434	1210.411	969.273
4.615	17.357	1137.990	879.859
5.629	7.099	1061.567	770.959
6.644	2.504	1041.479	734.305
7.659	2.200	1038.699	730.827
8.673	2.144	1037.228	729.461
9.688	2.103	1035.804	728.199
10.702	2.591	1034.958	729.862
11.717	9.376	1044.623	769.148
12.731	19.385	1058.284	827.394
13.746	24.249	1064.179	855.333
14.761	25.299	1065.548	861.398
15.775	25.482	1064.680	861.500
16.790	25.266	1063.813	859.688
17.804	25.089	1063.889	858.823
18.819	25.339	1062.778	859.048
19.834	25.393	1062.787	859.237
20.848	25.526	1062.033	859.186
21.863	25.498	1061.871	858.845
22.877	25.307	1061.362	857.448
23.892	25.275	1060.545	856.560
24.907	25.445	1059.791	856.682
25.921	25.441	1058.621	855.642
26.936	25.421	1057.198	854.323
27.950	25.301	1055.690	852.455
28.965	25.234	1054.045	850.737
29.980	25.242	1052.786	849.682
30.994	25.556	1051.441	850.007
32.009	25.435	1050.519	848.614
33.023	25.278	1049.321	846.833
34.038	25.359	1048.711	846.648
35.053	25.422	1048.394	846.611
36.067	25.467	1047.223	845.805
37.082	25.495	1046.808	845.526
38.096	25.612	1046.242	845.544
39.111	25.635	1045.185	844.722
40.126	25.504	1043.708	842.840
41.140	25.170	1041.664	839.552
42.155	25.003	1040.746	837.956
43.169	25.004	1039.715	837.054
44.184	25.127	1038.722	836.756
45.199	24.905	1038.355	835.354
46.213	24.959	1037.165	834.570
47.228	25.148	1036.383	834.749
48.242	25.202	1035.543	834.250
49.257	25.347	1035.077	834.473
50.271	25.454	1034.297	834.269
51.286	25.452	1033.442	833.496
52.301	25.569	1032.487	833.193
53.315	25.402	1031.494	831.545
54.330	25.369	1030.452	830.479
55.344	25.356	1029.967	829.955
56.359	25.436	1028.733	829.255
57.374	25.138	1028.016	827.229
58.388	25.241	1026.891	826.728
59.403	24.981	1026.458	825.109
60.417	24.836	1026.041	824.032
61.432	25.068	1024.803	824.030
62.447	25.147	1024.383	823.983
63.461	25.179	1023.861	823.639
64.476	25.064	1022.585	822.011
65.490	24.921	1022.149	820.933
66.505	25.116	1021.127	820.931
67.520	25.069	1020.958	820.509
68.534	24.870	1019.570	818.408
69.549	24.530	1018.599	816.007
70.563	24.553	1017.783	815.383
71.578	24.588	1016.585	814.513
72.593	24.487	1015.639	813.223
73.607	24.711	1014.861	813.548
74.622	24.882	1014.909	814.292
75.636	24.731	1015.028	813.626
76.651	24.809	1013.105	812.367
77.666	24.722	1012.957	811.785
78.680	24.880	1012.025	811.678
79.695	24.813	1011.753	811.087
80.709	24.929	1010.918	810.872
81.724	24.994	1009.811	810.206
82.739	24.995	1009.165	809.619
83.753	25.390	1008.979	811.183
84.768	25.708	1008.091	811.834
85.782	25.867	1007.121	811.697
86.797	25.643	1006.027	809.733
87.812	25.575	1004.798	808.368
88.826	25.642	1004.368	808.252
89.841	25.711	1003.296	807.627
90.855	25.692	1002.924	807.168
91.870	25.675	1001.976	806.259
92.884	25.606	1000.114	804.380
93.899	25.467	999.723	803.374
94.914	25.689	999.096	803.789
95.928	25.469	998.247	802.054
96.943	25.215	997.055	799.896
97.957	24.948	995.967	797.761
98.972	24.959	994.459	796.532
99.987	24.999	994.556	796.716
101.001	25.313	993.389	797.106
102.016	25.382	992.532	796.654
103.030	25.399	991.234	795.616
104.045	25.128	990.661	793.887
105.060	25.076	989.473	792.634
106.074	25.213	989.064	792.841
107.089	25.431	988.628	793.388
108.103	25.204	987.604	791.493
109.118	25.057	986.348	789.768
110.133	25.257	985.034	789.526
111.147	24.989	984.068	787.502
112.162	24.775	983.306	785.883
113.176	25.094	982.844	786.844
114.191	24.769	982.357	784.959
115.206	24.673	980.701	783.149
116.220	24.721	980.176	782.869
117.235	24.771	979.535	782.506
118.249	24.902	978.079	781.847
119.264	24.798	977.634	780.967
120.279	24.791	977.320	780.618
121.293	24.834	976.308	779.929
122.308	24.764	975.575	778.966
123.322	24.637	974.380	777.394
124.337	24.655	972.727	776.083
125.352	23.970	971.515	772.075
126.366	24.055	970.410	771.496
127.381	24.841	970.657	775.031
128.395	25.089	970.312	775.759
129.410	25.427	969.129	776.206
130.424	25.260	968.406	774.837
131.439	25.253	967.340	773.886
132.454	25.347	966.622	773.650
133.468	25.239	965.445	772.174
134.483	25.548	964.395	772.593
135.497	25.572	963.796	772.149
136.512	25.607	963.534	772.018
137.527	25.538	962.612	770.918
138.541	25.617	961.803	770.541
139.556	25.501	961.270	769.549
140.570	25.719	960.443	769.752
141.585	25.768	959.315	768.985
142.600	25.599	958.284	767.373
143.614	25.745	957.616	767.390
144.629	26.031	956.545	767.682
145.643	25.652	955.408	765.093
146.658	25.500	954.348	763.530
147.673	25.549	953.387	762.902
148.687	25.422	952.315	761.436
149.702	25.278	951.246	759.904
150.716	25.271	950.408	759.140
151.731	25.388	949.918	759.175
152.746	25.563	949.238	759.301
153.760	25.769	948.591	759.587
154.775	25.660	948.597	759.066
155.789	25.857	947.165	758.684
156.804	25.680	946.263	757.147
157.819	25.769	945.289	756.674
158.833	25.880	944.875	756.741
159.848	25.978	943.586	756.055
160.862	25.687	942.947	754.258
161.877	25.813	941.492	753.555
162.892	25.905	940.396	752.995
163.906	25.732	939.714	751.658
164.921	25.638	939.116	750.720
165.935	25.767	938.068	750.357
166.950	25.739	937.432	749.663
167.964	25.882	936.105	749.129
168.979	25.579	935.181	747.067
169.994	25.489	934.167	745.818
171.008	25.884	933.956	747.219
172.023	25.804	933.064	746.108
173.037	25.586	932.016	744.302
174.052	25.383	931.360	742.873
175.067	25.459	930.637	742.546
176.081	25.630	929.876	742.579
177.096	25.351	929.372	740.959
178.110	25.385	928.030	739.964
179.125	25.142	927.424	738.413
180.140	25.054	927.292	737.883
181.154	25.272	927.366	738.773
182.169	25.629	926.490	739.478
183.183	25.808	926.336	740.026
184.198	25.650	925.707	738.807
185.213	25.607	924.927	737.945
186.227	25.730	923.892	737.557
187.242	25.800	923.258	737.273
188.256	25.849	922.865	737.095
189.271	25.828	921.799	736.091
190.286	25.599	920.381	733.960
191.300	24.859	919.461	730.143
192.315	24.144	917.724	725.786
193.329	24.134	917.322	725.363
194.344	25.125	918.050	729.910
195.359	25.646	917.929	731.872
196.373	25.641	917.529	731.465
197.388	25.491	916.868	730.265
198.402	25.487	916.216	729.667
199.417	25.612	915.624	729.638
200.432	25.355	914.390	727.546
201.446	25.273	913.672	726.579
202.461	25.231	913.092	725.884
203.475	24.322	911.444	720.838
204.490	23.623	909.988	716.800
205.504	24.557	910.873	721.209
206.519	25.191	910.924	723.743
207.534	25.243	910.070	723.211
208.548	25.670	909.666	724.544
209.563	25.366	909.055	722.770
210.577	25.432	908.392	722.444
211.592	25.890	907.923	723.849
212.607	25.697	906.898	722.195
213.621	25.791	906.580	722.252
214.636	25.834	905.662	721.631
215.650	25.872	904.610	720.880
216.665	25.894	904.340	720.688
217.680	25.798	903.478	719.554
218.694	25.394	902.473	717.078
219.709	25.263	901.978	716.099
220.723	25.594	901.494	716.971
221.738	25.614	900.821	716.451
222.753	25.570	900.491	715.950
223.767	25.698	900.237	716.194
224.782	25.830	899.784	716.297
225.796	25.840	899.232	715.834
226.811	25.344	897.285	712.253
227.826	24.680	895.933	708.486
228.840	24.843	895.613	708.815
229.855	24.748	895.325	708.151
230.869	24.593	893.878	706.330
231.884	24.956	894.173	707.937
232.899	25.497	894.383	710.176
233.913	25.538	893.599	709.652
234.928	25.572	893.106	709.334
235.942	25.339	892.662	707.999
236.957	25.064	891.171	705.669
237.972	25.178	891.056	705.967
238.986	25.342	890.481	706.093
240.001	25.183	890.044	705.060
241.015	25.342	889.146	704.910
242.030	25.449	889.219	705.325
243.045	25.637	888.364	705.320
244.059	25.760	887.947	705.412
245.074	25.652	887.008	704.178
246.088	25.174	886.121	701.545
247.103	25.548	885.892	702.762
248.117	26.037	886.084	704.762
249.132	26.294	885.821	705.497
250.147	26.241	885.597	705.048
251.161	26.476	884.843	705.302
252.176	26.538	883.737	704.601
253.190	26.582	883.353	704.402
254.205	26.665	883.200	704.541
255.220	26.647	882.593	703.923
256.234	26.323	881.769	701.947
257.249	26.492	880.617	701.620
258.263	26.648	879.531	701.298
259.278	26.503	879.294	700.487
260.293	26.597	879.021	700.570
261.307	26.448	878.202	699.282
262.322	26.396	877.344	698.335
263.336	25.525	875.567	693.499
264.351	24.371	874.080	687.815
265.366	24.688	873.451	688.481
266.380	25.720	874.154	692.948
267.395	26.096	873.910	694.139
268.409	26.045	873.116	693.252
269.424	26.358	872.611	693.991
270.439	26.310	871.841	693.134
271.453	26.386	871.393	693.008
272.468	26.557	871.067	693.342
273.482	26.689	870.784	693.558
274.497	26.077	869.537	690.163
275.512	25.778	868.479	688.121
276.526	26.278	868.343	689.864
277.541	26.437	867.993	690.131
278.555	26.343	867.051	688.962
279.570	25.950	866.662	687.093
280.585	26.179	866.121	687.476
281.599	26.061	865.493	686.469
282.614	25.501	863.775	682.917
283.628	25.457	863.754	682.674
284.643	25.935	863.716	684.398
285.657	25.533	862.184	681.602
286.672	25.220	861.479	679.798
287.687	26.006	861.104	682.417
288.701	25.918	860.699	681.703
289.716	25.760	859.652	680.215
290.730	25.617	859.004	679.105
291.745	25.286	858.172	677.135
292.760	25.673	858.144	678.513
293.774	26.546	859.319	682.678
294.789	26.847	858.505	683.103
295.803	26.902	857.998	682.848
296.818	26.780	857.202	681.695
297.833	26.515	855.931	679.627
298.847	26.394	855.339	678.645
299.862	26.616	855.521	679.564
300.876	26.829	855.118	679.982
301.891	26.823	854.271	679.223
302.906	26.323	853.329	676.543
303.920	26.591	852.821	677.083
304.935	26.865	853.095	678.268
305.949	26.604	852.452	676.718
306.964	26.583	851.594	675.901
307.979	26.542	851.113	675.307
308.993	26.964	850.907	676.655
310.008	26.950	850.107	675.909
311.022	26.712	849.414	674.413
312.037	26.614	848.676	673.403
313.052	26.239	847.693	671.168
314.066	25.356	846.355	666.772
315.081	25.049	845.754	665.100
316.095	25.974	846.024	668.688
317.110	26.520	845.599	670.317
318.125	25.700	844.063	666.007
319.139	24.603	842.734	660.843
320.154	24.690	842.449	660.882
321.168	25.590	842.930	664.527
322.183	26.363	842.716	667.155
323.197	26.481	842.922	667.694
324.212	26.503	842.670	667.518
325.227	26.565	841.748	666.957
326.241	26.464	840.784	665.761
327.256	26.343	840.564	665.083
328.270	26.350	839.658	664.334
329.285	26.129	838.915	662.876
330.300	25.927	838.291	661.584
331.314	26.054	838.206	661.923
332.329	26.418	838.411	663.360
333.343	26.714	837.639	663.775
334.358	26.726	837.293	663.486
335.373	26.698	837.101	663.173
336.387	27.078	836.912	664.355
337.402	27.140	836.902	664.516
338.416	27.106	835.909	663.542
339.431	27.181	835.941	663.783
340.446	27.443	835.311	664.180
341.460	27.245	835.067	663.207
342.475	27.009	834.560	661.884
343.489	27.310	834.122	662.576
344.504	27.377	833.917	662.597
345.519	27.599	833.704	663.177
346.533	27.575	833.154	662.595
347.548	27.531	832.491	661.847
348.562	27.558	832.126	661.599
349.577	27.431	831.493	660.576
350.592	27.432	830.716	659.903
351.606	27.413	830.080	659.270
352.621	27.414	829.151	658.478
353.635	27.259	828.463	657.313
354.650	26.564	826.733	653.375
355.665	25.770	825.440	649.433
356.679	26.106	825.514	650.646
357.694	26.498	825.132	651.699
358.708	26.473	824.264	650.865
359.723	26.783	824.589	652.181
360.738	27.236	823.900	653.206
361.752	27.324	823.551	653.187
362.767	27.629	823.126	653.885
363.781	27.823	822.802	654.266
364.796	27.946	822.598	654.486
365.810	27.931	822.306	654.141
366.825	27.761	821.843	653.107
367.840	27.538	821.228	651.764
368.854	27.158	820.314	649.622
369.869	27.238	819.615	649.296
370.883	27.219	819.421	649.020
371.898	27.127	818.796	648.137
372.913	27.137	818.712	648.052
373.927	27.511	818.005	648.766
374.942	27.559	817.910	648.803
375.956	27.689	817.141	648.598
376.971	27.648	817.068	648.338
377.986	27.883	816.875	648.961
379.000	27.751	815.712	647.510
380.015	27.752	814.878	646.797
381.029	27.862	814.424	646.767
382.044	27.892	814.583	646.943
383.059	27.868	813.764	646.152
384.073	27.973	813.168	645.993
385.088	27.884	812.875	645.386
386.102	27.584	812.069	643.630
387.117	27.539	811.417	642.897
388.132	27.132	810.378	640.584
389.146	26.755	809.293	638.341
390.161	27.115	809.551	639.756
391.175	27.707	808.862	641.236
392.190	27.268	807.861	638.847
393.205	25.734	806.159	632.062
394.219	24.279	804.386	625.514
395.234	24.331	804.091	625.414
396.248	26.025	805.471	632.376
397.263	27.323	806.423	637.618
398.278	27.331	805.911	637.187
399.292	27.103	805.189	635.760
400.307	27.245	804.689	635.808
401.321	27.332	804.046	635.547
402.336	27.664	804.307	636.855
403.350	28.089	804.243	638.232
404.365	28.244	804.224	638.703
405.380	28.685	803.594	639.683
406.394	28.705	803.256	639.426
407.409	28.452	802.701	638.047
408.423	28.430	802.444	637.711
409.438	28.755	802.060	638.476
410.453	28.572	801.646	637.456
411.467	28.698	800.778	637.148
412.482	28.574	800.684	636.586
413.496	28.812	800.593	637.281
414.511	28.513	800.171	635.853
415.526	28.494	799.549	635.238
416.540	28.358	798.838	634.146
417.555	28.262	797.802	632.935
418.569	28.222	797.815	632.752
419.584	28.247	797.116	632.226
420.599	28.018	796.379	630.797
421.613	112.399	1286.518	1461.350
422.628	96.908	1357.942	1461.445
