DTS Sentinel unit serial number:	SN413079Multiplexer serial number:	ORYXHardware model number:	OX4-SRSoftware version number:	ORYX F/W v4.00 Oryx Data Collector v3.7.2.0data status	okinstallation	princeton_trtdifferential loss correction	single-endedforward channel	channel 1reverse channel	N/Adate	2019/09/12time	05:16:11forward acquisition time	60.00reverse acquisition time	0.00gamma	496.2192k internal	0.2322k external	0.2322temperature offset calibration	1.0049default loss term (dB/km)	0.3790temperature slope calibration	1.0000multiplexer offset coefficient	1.0000multiplexer slope coefficient	1.0000fibre end	0.00T internal ref (°C)	31.86T ext. ref 1 (°C)	1.64T ext. ref 2 (°C)	27.31length (m)	temperature (°C)	Stokes	anti-Stokes-747.200	150.451	0.268	-0.368
-746.185	-140.082	-0.267	0.028
-745.171	-127.520	0.201	-0.030
-744.156	144.734	-0.075	0.101
-743.142	800.000	0.043	-0.130
-742.127	102.801	-0.164	-0.194
-741.112	-200.000	-0.012	-0.080
-740.098	-200.000	0.032	0.293
-739.083	213.695	0.103	-0.165
-738.069	121.916	-0.275	0.347
-737.054	-200.000	-0.088	-0.454
-736.039	-200.000	-0.029	0.156
-735.025	627.018	0.027	-0.069
-734.010	-200.000	-0.017	-0.185
-732.996	108.322	-0.267	-0.321
-731.981	800.000	-0.091	0.282
-730.966	164.509	-0.173	-0.246
-729.952	101.661	-0.056	0.066
-728.937	-200.000	0.006	-0.206
-727.923	-65.440	-0.253	0.103
-726.908	78.797	0.074	-0.080
-725.894	-140.599	0.314	0.033
-724.879	7.289	-0.101	-0.076
-723.864	-20.250	-0.022	0.013
-722.850	-21.875	-0.178	0.109
-721.835	145.758	0.015	-0.021
-720.821	-200.000	-0.047	-0.317
-719.806	130.882	-0.327	-0.424
-718.791	274.031	-0.188	-0.336
-717.777	5.272	-0.302	0.225
-716.762	-86.846	-0.128	0.039
-715.748	-150.596	-0.114	0.009
-714.733	-200.000	-0.047	-0.329
-713.718	147.207	0.101	0.137
-712.704	-2.502	-0.156	-0.110
-711.689	118.002	0.184	-0.228
-710.675	800.000	0.092	-0.363
-709.660	158.088	0.178	0.248
-708.645	231.593	0.050	-0.083
-707.631	-5.661	-0.177	-0.122
-706.616	-174.047	-0.231	-0.007
-705.602	169.082	0.235	-0.338
-704.587	-200.000	-0.019	0.193
-703.572	32.512	0.033	-0.029
-702.558	16.841	0.159	-0.127
-701.543	-68.728	-0.205	-0.080
-700.529	-200.000	0.024	0.375
-699.514	348.401	-0.187	0.372
-698.499	231.112	0.061	0.101
-697.485	62.967	0.211	-0.213
-696.470	-57.733	0.169	-0.075
-695.456	470.413	-0.108	-0.245
-694.441	-63.371	-0.158	-0.066
-693.426	296.796	-0.189	-0.350
-692.412	93.177	-0.105	-0.120
-691.397	320.379	0.179	-0.343
-690.383	150.248	0.185	-0.253
-689.368	-89.536	0.057	0.017
-688.354	-76.955	-0.270	-0.095
-687.339	446.811	-0.039	0.087
-686.324	-100.335	0.170	-0.042
-685.310	-44.922	0.124	-0.062
-684.295	-0.034	-0.080	-0.057
-683.281	316.456	-0.100	-0.190
-682.266	-9.133	-0.042	0.028
-681.251	-36.658	-0.386	-0.209
-680.237	800.000	-0.063	0.234
-679.222	800.000	0.046	0.169
-678.208	-161.534	0.464	-0.024
-677.193	-138.242	0.394	-0.044
-676.178	205.272	0.098	0.153
-675.164	118.413	0.093	0.115
-674.149	-28.018	-0.453	-0.264
-673.135	-178.341	-0.133	0.003
-672.120	119.755	-0.082	-0.102
-671.105	-200.000	-0.027	0.189
-670.091	-200.000	-0.025	0.159
-669.076	24.708	0.115	-0.096
-668.062	-200.000	0.025	-0.288
-667.047	800.000	-0.065	0.214
-666.032	-200.000	0.014	-0.166
-665.018	-200.000	0.021	-0.305
-664.003	112.731	0.153	-0.186
-662.989	-200.000	0.050	-0.484
-661.974	10.509	-0.100	0.076
-660.959	760.971	-0.012	0.032
-659.945	-125.409	0.044	-0.007
-658.930	800.000	-0.064	0.263
-657.916	-200.000	0.005	0.102
-656.901	800.000	0.020	0.070
-655.886	104.988	0.126	-0.150
-654.872	-200.000	0.007	0.091
-653.857	81.259	-0.386	0.420
-652.843	-200.000	-0.005	0.139
-651.828	-73.471	-0.105	0.038
-650.814	-122.175	0.159	-0.026
-649.799	800.000	-0.090	-0.294
-648.784	-32.904	-0.440	-0.246
-647.770	-200.000	0.002	-0.223
-646.755	800.000	-0.059	-0.186
-645.741	439.008	-0.188	0.413
-644.726	27.178	-0.182	-0.154
-643.711	107.943	-0.049	0.059
-642.697	344.036	-0.172	0.340
-641.682	-62.563	-0.117	0.049
-640.668	-200.000	0.063	-0.394
-639.653	-153.792	0.252	0.017
-638.638	34.464	-0.262	0.230
-637.624	25.080	-0.042	0.035
-636.609	800.000	-0.033	0.141
-635.595	-200.000	0.059	0.329
-634.580	660.900	-0.091	0.235
-633.565	6.505	0.013	0.010
-632.551	711.621	-0.096	0.256
-631.536	-61.600	0.204	-0.086
-630.522	179.347	-0.038	0.057
-629.507	800.000	0.064	-0.222
-628.492	800.000	0.023	-0.083
-627.478	330.596	0.103	-0.199
-626.463	800.000	-0.056	-0.210
-625.449	136.922	0.163	-0.214
-624.434	800.000	-0.044	-0.132
-623.419	-70.265	-0.076	0.029
-622.405	800.000	0.040	-0.158
-621.390	242.669	-0.055	-0.093
-620.376	800.000	0.018	0.068
-619.361	347.804	0.066	-0.131
-618.346	-186.507	0.270	0.004
-617.332	-128.809	-0.092	-0.013
-616.317	-200.000	-0.013	0.501
-615.303	-9.567	0.159	0.107
-614.288	357.965	0.014	-0.028
-613.273	742.698	0.062	-0.168
-612.259	408.928	0.075	-0.160
-611.244	155.948	-0.097	-0.135
-610.230	97.632	-0.206	-0.238
-609.215	80.814	0.117	0.127
-608.201	-50.731	-0.093	0.044
-607.186	-62.748	-0.281	-0.117
-606.171	241.242	-0.257	0.431
-605.157	151.221	-0.119	0.163
-604.142	-162.723	0.323	-0.016
-603.128	580.158	-0.124	0.306
-602.113	71.493	-0.052	-0.054
-601.098	-200.000	0.038	0.223
-600.084	-200.000	-0.005	0.075
-599.069	-173.076	-0.053	0.002
-598.055	11.936	0.277	0.214
-597.040	-72.576	0.428	0.159
-596.025	-106.203	-0.075	0.017
-595.011	800.000	0.049	0.150
-593.996	15.529	0.143	-0.113
-592.982	58.727	0.058	-0.057
-591.967	-134.967	-0.190	-0.023
-590.952	-83.800	-0.213	0.068
-589.938	-46.247	0.253	-0.125
-588.923	-200.000	-0.010	0.083
-587.909	109.591	-0.113	0.136
-586.894	-200.000	0.010	0.155
-585.879	-87.266	0.379	0.116
-584.865	-75.716	-0.226	0.081
-583.850	195.029	0.048	0.073
-582.836	-141.880	-0.154	-0.015
-581.821	800.000	-0.109	0.303
-580.806	-60.713	0.053	0.022
-579.792	-200.000	0.004	-0.124
-578.777	-131.796	-0.360	0.047
-577.763	505.638	-0.048	-0.112
-576.748	326.841	-0.173	-0.333
-575.733	-8.173	-0.369	-0.250
-574.719	-56.519	0.063	0.028
-573.704	600.582	-0.052	-0.130
-572.690	-93.432	-0.145	-0.040
-571.675	-88.770	0.105	-0.031
-570.661	96.050	-0.157	0.180
-569.646	-44.911	-0.149	-0.075
-568.631	-70.644	0.242	-0.092
-567.617	-45.677	0.390	-0.193
-566.602	110.634	-0.062	-0.075
-565.588	-9.639	-0.152	0.101
-564.573	-200.000	0.010	-0.165
-563.558	46.800	0.145	0.135
-562.544	-134.145	-0.312	0.039
-561.529	800.000	0.049	0.206
-560.515	-200.000	-0.020	0.238
-559.500	-3.719	-0.168	0.117
-558.485	-166.643	-0.092	-0.004
-557.471	-94.029	0.137	0.038
-556.456	174.076	-0.182	-0.264
-555.442	261.771	0.127	0.221
-554.427	-200.000	0.071	0.375
-553.412	9.339	-0.261	0.198
-552.398	575.293	-0.193	-0.472
-551.383	-200.000	-0.038	-0.252
-550.369	-200.000	0.035	0.360
-549.354	371.022	0.069	0.141
-548.339	-200.000	0.022	-0.150
-547.325	375.098	0.146	0.299
-546.310	592.378	-0.073	0.182
-545.296	611.578	0.063	-0.158
-544.281	800.000	-0.109	-0.437
-543.266	166.466	-0.060	-0.085
-542.252	-172.391	0.233	0.007
-541.237	-89.195	-0.120	0.036
-540.223	-73.751	0.331	-0.121
-539.208	16.293	0.066	0.052
-538.193	-107.641	0.111	0.024
-537.179	-200.000	-0.010	-0.154
-536.164	-200.000	-0.052	0.466
-535.150	-40.394	0.141	-0.074
-534.135	525.257	0.163	-0.384
-533.121	-14.302	0.104	0.067
-532.106	-111.902	-0.160	0.032
-531.091	800.000	0.070	-0.224
-530.077	-44.756	-0.329	-0.164
-529.062	-89.972	-0.284	0.083
-528.048	577.153	-0.061	-0.150
-527.033	-200.000	-0.073	-0.505
-526.018	-200.000	-0.001	0.119
-525.004	77.817	0.072	0.077
-523.989	-128.170	0.136	-0.019
-522.975	11.798	-0.106	-0.082
-521.960	340.810	0.088	0.172
-520.945	-107.239	-0.129	-0.028
-519.931	-124.325	0.209	0.033
-518.916	67.529	-0.126	0.129
-517.902	27.307	0.207	0.174
-516.887	233.166	0.006	0.011
-515.872	-200.000	-0.000	-0.148
-514.858	-152.627	-0.243	0.017
-513.843	314.269	0.096	-0.181
-512.829	6.672	0.099	-0.074
-511.814	258.443	0.188	-0.324
-510.799	117.700	-0.091	0.113
-509.785	183.334	0.203	-0.300
-508.770	-31.956	-0.239	-0.134
-507.756	248.571	0.048	0.081
-506.741	55.013	-0.234	-0.226
-505.726	-200.000	-0.014	-0.214
-504.712	-143.296	0.142	-0.014
-503.697	199.667	-0.251	0.386
-502.683	-200.000	-0.046	0.340
-501.668	-200.000	-0.025	-0.209
-500.653	101.881	-0.120	-0.141
-499.639	43.460	-0.049	-0.045
-498.624	433.580	-0.057	0.124
-497.610	35.090	0.208	0.183
-496.595	-161.215	-0.220	0.011
-495.581	-138.179	-0.260	0.029
-494.566	-3.981	-0.413	-0.287
-493.551	-65.348	0.214	-0.086
-492.537	-2.344	0.099	0.070
-491.522	83.357	0.215	0.234
-490.508	145.095	-0.116	0.155
-489.493	-117.338	-0.236	0.043
-488.478	155.632	-0.099	0.136
-487.464	-200.000	0.023	-0.217
-486.449	377.631	0.072	0.148
-485.435	-200.000	-0.008	0.047
-484.420	172.057	0.060	0.086
-483.405	59.264	-0.117	0.115
-482.391	178.421	-0.129	-0.188
-481.376	-81.414	0.143	-0.047
-480.362	81.127	0.089	-0.096
-479.347	-90.518	-0.335	0.097
-478.332	72.390	0.179	0.187
-477.318	179.079	0.061	0.090
-476.303	-105.323	0.319	0.073
-475.289	322.854	0.121	-0.231
-474.274	35.652	0.100	-0.088
-473.259	794.007	-0.053	-0.146
-472.245	-200.000	-0.009	0.113
-471.230	-200.000	0.008	-0.328
-470.216	174.918	0.117	0.170
-469.201	-12.712	0.114	-0.074
-468.186	800.000	-0.038	-0.150
-467.172	-77.781	-0.249	-0.086
-466.157	-35.414	-0.274	0.149
-465.143	-149.067	0.194	0.016
-464.128	539.116	0.152	0.362
-463.113	-200.000	-0.015	-0.255
-462.099	471.308	0.073	0.165
-461.084	149.664	0.174	0.236
-460.070	70.471	-0.221	0.228
-459.055	-103.343	-0.252	0.059
-458.040	102.292	0.173	0.202
-457.026	195.969	-0.207	-0.314
-456.011	30.879	-0.198	0.169
-454.997	41.027	-0.092	0.083
-453.982	-107.111	0.146	0.032
-452.968	64.145	0.255	0.256
-451.953	-29.953	0.170	-0.097
-450.938	-31.919	-0.273	-0.153
-449.924	7.263	-0.206	0.153
-448.909	-200.000	0.000	0.246
-447.895	216.340	0.200	-0.317
-446.880	800.000	-0.013	-0.041
-445.865	-200.000	-0.006	-0.250
-444.851	-90.421	0.125	0.036
-443.836	-200.000	0.022	-0.232
-442.822	14.045	-0.372	-0.290
-441.807	-142.602	-0.075	0.007
-440.792	447.997	-0.081	-0.178
-439.778	-200.000	-0.017	-0.268
-438.763	657.670	0.096	0.247
-437.749	74.406	0.160	0.167
-436.734	-143.622	-0.484	0.046
-435.719	800.000	-0.077	0.232
-434.705	179.827	0.205	0.300
-433.690	-24.561	0.315	0.187
-432.676	54.670	-0.203	-0.195
-431.661	28.594	-0.293	0.248
-430.646	166.778	-0.080	0.113
-429.632	-26.265	-0.274	-0.160
-428.617	45.204	-0.096	0.089
-427.603	98.071	0.098	-0.112
-426.588	800.000	-0.043	0.132
-425.573	25.989	-0.068	-0.057
-424.559	800.000	0.018	0.051
-423.544	12.514	-0.202	-0.156
-422.530	-200.000	-0.016	0.149
-421.515	-43.086	-0.274	0.139
-420.500	-8.434	-0.132	-0.089
-419.486	305.666	0.219	0.407
-418.471	-200.000	-0.013	0.062
-417.457	-90.783	0.285	0.082
-416.442	-200.000	-0.040	-0.367
-415.428	-200.000	0.066	0.393
-414.413	152.819	0.076	-0.104
-413.398	800.000	-0.040	-0.120
-412.384	31.975	0.255	-0.219
-411.369	-200.000	-0.003	0.532
-410.355	-51.618	0.216	-0.101
-409.340	-28.108	0.127	0.073
-408.325	166.536	0.191	0.270
-407.311	-42.362	-0.044	0.022
-406.296	89.061	0.159	0.177
-405.282	-94.080	0.222	0.061
-404.267	-200.000	-0.054	-0.259
-403.252	48.921	-0.150	-0.141
-402.238	-200.000	0.017	-0.128
-401.223	30.960	0.011	0.010
-400.209	56.415	-0.062	0.060
-399.194	-200.000	-0.042	-0.357
-398.179	-123.215	-0.333	-0.053
-397.165	-164.536	-0.016	-0.001
-396.150	-200.000	-0.009	0.375
-395.136	74.371	0.110	0.115
-394.121	594.185	-0.035	-0.087
-393.106	111.750	-0.090	0.108
-392.092	800.000	0.029	0.106
-391.077	34.804	0.283	-0.246
-390.063	380.002	-0.094	-0.193
-389.048	-62.508	-0.152	0.063
-388.033	78.724	0.230	-0.245
-387.019	429.885	0.152	-0.327
-386.004	-200.000	0.009	-0.144
-384.990	681.497	0.114	-0.295
-383.975	54.820	0.147	-0.142
-382.960	-200.000	0.076	-0.353
-381.946	800.000	0.046	-0.153
-380.931	285.264	0.022	-0.040
-379.917	-78.673	0.372	0.127
-378.902	216.452	0.097	0.153
-377.888	-8.686	-0.081	-0.054
-376.873	1.986	-0.168	0.121
-375.858	256.763	0.131	0.224
-374.844	106.623	-0.065	-0.077
-373.829	-111.285	-0.177	0.036
-372.815	800.000	-0.057	-0.202
-371.800	-173.364	0.187	0.006
-370.785	-117.254	0.258	0.047
-369.771	-61.566	0.191	0.080
-368.756	-85.159	0.167	0.052
-367.742	800.000	-0.090	0.375
-366.727	775.837	-0.023	0.064
-365.712	-59.445	-0.191	-0.082
-364.698	16.702	-0.318	-0.250
-363.683	-24.609	-0.134	0.079
-362.669	12.097	0.142	0.109
-361.654	63.795	-0.174	0.174
-360.639	800.000	0.054	0.232
-359.625	-0.452	-0.163	0.115
-358.610	424.301	0.099	0.212
-357.596	296.005	-0.056	-0.101
-356.581	219.808	-0.174	-0.277
-355.566	-60.875	-0.326	-0.137
-354.552	-82.939	0.259	-0.083
-353.537	8.010	0.115	0.086
-352.523	-200.000	0.038	-0.278
-351.508	800.000	-0.033	-0.114
-350.493	-89.512	-0.341	-0.100
-349.479	254.741	0.024	-0.040
-348.464	-75.241	0.188	0.067
-347.450	64.080	-0.352	-0.352
-346.435	-200.000	-0.006	0.302
-345.420	27.826	-0.182	-0.152
-344.406	35.717	-0.106	0.093
-343.391	-146.513	0.299	0.026
-342.377	314.979	0.160	-0.301
-341.362	-56.123	-0.235	0.104
-340.348	179.534	0.140	0.203
-339.333	800.000	0.078	0.300
-338.318	-75.241	-0.161	-0.057
-337.304	-56.691	0.175	-0.077
-336.289	-63.755	-0.371	0.151
-335.275	-200.000	0.008	0.044
-334.260	-200.000	0.025	-0.419
-333.245	-115.783	0.170	-0.032
-332.231	667.659	-0.110	-0.282
-331.216	-94.900	-0.073	-0.020
-330.202	-11.312	-0.214	0.140
-329.187	129.106	0.234	0.297
-328.172	800.000	-0.120	0.401
-327.158	-200.000	0.006	-0.059
-326.143	-150.557	-0.278	0.021
-325.129	41.919	-0.178	-0.161
-324.114	-46.456	0.107	-0.052
-323.099	25.566	0.226	-0.187
-322.085	-56.321	-0.284	-0.125
-321.070	64.552	0.081	0.082
-320.056	-34.850	0.255	0.139
-319.041	22.773	-0.153	-0.125
-318.026	-200.000	-0.001	-0.230
-317.012	-95.417	0.047	0.012
-315.997	53.127	-0.226	0.215
-314.983	328.031	-0.086	0.164
-313.968	-35.208	0.255	-0.138
-312.953	259.816	-0.128	-0.220
-311.939	-23.177	0.208	0.125
-310.924	556.120	-0.036	0.085
-309.910	-81.658	-0.176	0.057
-308.895	109.079	0.089	0.106
-307.880	-200.000	0.006	0.167
-306.866	-48.128	-0.316	-0.152
-305.851	-112.735	-0.172	-0.034
-304.837	-200.000	-0.013	-0.329
-303.822	-106.193	-0.321	0.072
-302.807	-31.477	0.196	0.110
-301.793	800.000	0.060	-0.214
-300.778	141.395	-0.085	0.112
-299.764	318.296	-0.129	-0.242
-298.749	56.209	0.130	-0.126
-297.735	800.000	0.155	-0.429
-296.720	-173.947	0.214	0.006
-295.705	800.000	0.084	-0.233
-294.691	-200.000	-0.007	-0.113
-293.676	-200.000	0.033	-0.163
-292.662	-191.739	0.044	-0.000
-291.647	-200.000	0.015	-0.116
-290.632	-122.199	-0.328	-0.053
-289.618	-200.000	0.042	-0.289
-288.603	279.763	0.077	0.136
-287.589	-85.532	0.190	0.059
-286.574	164.474	0.094	-0.132
-285.559	114.634	0.113	0.137
-284.545	578.821	0.036	0.087
-283.530	116.183	0.090	0.110
-282.516	-63.074	-0.054	0.022
-281.501	303.935	-0.037	0.068
-280.486	800.000	0.062	0.246
-279.472	88.431	-0.120	0.132
-278.457	-69.241	0.218	-0.083
-277.443	47.921	0.161	0.149
-276.428	63.212	-0.177	0.176
-275.413	111.514	0.153	0.183
-274.399	1.158	0.271	-0.193
-273.384	-176.559	-0.175	0.004
-272.370	107.894	-0.323	0.382
-271.355	-88.022	-0.183	-0.055
-270.340	-200.000	-0.017	-0.308
-269.326	26.845	0.319	-0.265
-268.311	-140.807	0.105	0.011
-267.297	455.195	0.046	-0.101
-266.282	-200.000	0.034	0.151
-265.267	-88.944	0.361	-0.106
-264.253	-200.000	-0.002	-0.036
-263.238	74.258	0.111	0.115
-262.224	-88.442	0.328	-0.097
-261.209	271.377	0.030	0.052
-260.195	-11.144	0.151	-0.099
-259.180	-162.768	0.126	0.006
-258.165	294.130	-0.050	-0.091
-257.151	388.103	0.081	0.166
-256.136	80.530	-0.118	-0.126
-255.122	800.000	-0.068	-0.270
-254.107	-53.074	-0.184	0.084
-253.092	-134.422	0.170	0.021
-252.078	22.928	0.431	0.351
-251.063	170.631	0.045	-0.064
-250.049	333.652	0.199	-0.381
-249.034	50.333	-0.253	-0.237
-248.019	42.384	0.165	-0.149
-247.005	-200.000	0.031	-0.138
-245.990	800.000	-0.063	-0.196
-244.976	-14.289	0.052	-0.033
-243.961	125.556	0.057	0.071
-242.946	-149.412	0.326	-0.026
-241.932	-200.000	0.042	0.189
-240.917	-86.908	0.146	-0.044
-239.903	145.524	-0.224	-0.297
-238.888	-50.583	0.160	0.075
-237.873	525.378	-0.065	0.151
-236.859	-200.000	-0.025	-0.184
-235.844	18.922	-0.194	-0.154
-234.830	-100.011	-0.285	0.070
-233.815	57.156	0.114	0.110
-232.800	-200.000	0.021	-0.171
-231.786	71.797	-0.071	0.073
-230.771	403.492	-0.149	-0.310
-229.757	27.635	-0.111	0.093
-228.742	-184.935	0.238	0.004
-227.727	-113.115	-0.187	0.037
-226.713	-172.523	0.118	-0.004
-225.698	-200.000	0.030	-0.132
-224.684	-22.959	0.283	-0.169
-223.669	800.000	-0.112	-0.345
-222.655	-37.718	0.159	0.084
-221.640	-16.626	-0.191	0.120
-220.625	-32.133	0.200	0.111
-219.611	-61.963	0.231	-0.096
-218.596	-107.524	-0.204	0.044
-217.582	-63.689	0.297	0.121
-216.567	290.438	-0.126	0.227
-215.552	-10.965	0.408	0.266
-214.538	-19.688	-0.071	-0.043
-213.523	232.370	0.151	-0.246
-212.509	-200.000	-0.033	0.206
-211.494	-125.745	0.113	-0.017
-210.479	-98.120	0.280	-0.071
-209.465	-200.000	0.042	0.375
-208.450	-33.664	-0.299	0.163
-207.436	-45.741	-0.073	0.036
-206.421	-200.000	-0.009	-0.163
-205.406	-200.000	0.065	0.293
-204.392	-7.400	0.255	0.171
-203.377	-200.000	-0.040	-0.191
-202.363	-98.281	0.369	0.094
-201.348	193.520	0.077	-0.115
-200.333	118.913	-0.089	0.109
-199.319	-35.425	-0.211	0.113
-198.304	6.840	-0.326	0.240
-197.290	-107.009	-0.313	0.069
-196.275	25.335	-0.202	0.166
-195.260	-15.314	0.490	0.310
-194.246	-134.329	0.077	-0.009
-193.231	223.652	0.131	0.209
-192.217	-200.000	-0.056	-0.530
-191.202	157.065	0.083	0.114
-190.187	197.068	-0.132	-0.198
-189.173	-84.169	0.265	0.083
-188.158	26.345	0.318	-0.262
-187.144	-53.997	0.148	-0.067
-186.129	379.237	-0.135	0.274
-185.114	800.000	-0.125	0.491
-184.100	-200.000	0.029	0.220
-183.085	36.663	-0.337	-0.294
-182.071	-78.400	-0.120	0.041
-181.056	-84.557	0.011	0.003
-180.042	-156.264	-0.127	-0.008
-179.027	-200.000	0.045	-0.201
-178.012	-67.727	-0.216	0.084
-176.998	51.227	0.160	0.150
-175.983	-19.472	0.128	0.078
-174.969	-91.860	0.079	-0.022
-173.954	-200.000	0.066	-0.313
-172.939	-200.000	-0.009	-0.250
-171.925	61.999	-0.037	0.037
-170.910	297.879	-0.172	-0.313
-169.896	213.171	-0.129	-0.202
-168.881	-200.000	0.008	0.200
-167.866	483.834	0.127	0.285
-166.852	401.377	-0.034	-0.071
-165.837	49.359	0.120	-0.112
-164.823	113.903	0.096	0.115
-163.808	72.778	0.300	-0.309
-162.793	-200.000	-0.042	-0.246
-161.779	-72.757	-0.220	0.080
-160.764	76.154	-0.220	0.230
-159.750	23.558	0.143	0.116
-158.735	211.305	0.125	0.193
-157.720	-97.653	0.109	-0.028
-156.706	-200.000	-0.050	0.253
-155.691	147.126	0.019	-0.025
-154.677	-40.298	-0.182	0.093
-153.662	28.017	0.112	0.093
-152.647	208.023	0.252	0.388
-151.633	-200.000	0.032	0.148
-150.618	727.732	-0.058	0.152
-149.604	-44.640	-0.191	0.094
-148.589	-7.887	0.261	-0.174
-147.574	-141.871	0.297	0.029
-146.560	-153.373	0.145	0.010
-145.545	800.000	0.108	-0.371
-144.531	0.230	-0.127	0.090
-143.516	-84.111	0.297	-0.093
-142.502	216.031	-0.087	0.136
-141.487	402.718	-0.161	0.334
-140.472	-200.000	0.011	-0.183
-139.458	-117.627	-0.081	-0.014
-138.443	493.289	0.019	0.043
-137.429	423.517	0.067	-0.142
-136.414	-90.550	0.086	-0.025
-135.399	-84.811	0.189	-0.059
-134.385	495.396	-0.211	-0.477
-133.370	-26.221	-0.106	0.061
-132.356	273.780	0.098	-0.171
-131.341	21.744	-0.130	0.104
-130.326	259.507	-0.107	-0.183
-129.312	23.465	-0.038	-0.031
-128.297	-200.000	0.008	-0.253
-127.283	-70.248	-0.094	-0.035
-126.268	-52.569	-0.111	-0.050
-125.253	0.397	0.234	-0.165
-124.239	800.000	0.049	0.188
-123.224	-200.000	-0.062	-0.303
-122.210	5.598	-0.217	-0.158
-121.195	-200.000	-0.050	0.223
-120.180	-172.692	-0.298	0.009
-119.166	-96.567	-0.053	0.014
-118.151	64.314	-0.294	-0.292
-117.137	-200.000	0.014	0.266
-116.122	31.902	0.214	0.182
-115.107	-120.866	-0.227	0.038
-114.093	142.053	-0.036	-0.047
-113.078	-140.217	0.116	-0.012
-112.064	-66.122	0.037	-0.015
-111.049	-140.001	0.256	-0.027
-110.034	800.000	-0.055	-0.162
-109.020	-94.608	0.221	-0.059
-108.005	-62.496	-0.273	-0.112
-106.991	-39.662	0.100	0.051
-105.976	-112.095	-0.211	0.042
-104.962	800.000	-0.030	0.126
-103.947	-102.742	0.196	-0.046
-102.932	84.253	0.137	0.147
-101.918	-107.310	-0.178	0.038
-100.903	800.000	-0.004	0.013
-99.889	-111.757	0.033	-0.007
-98.874	800.000	-0.092	0.255
-97.859	-200.000	-0.023	0.106
-96.845	46.071	-0.113	0.103
-95.830	-2.936	-0.169	-0.116
-94.816	-87.458	0.200	0.060
-93.801	-188.762	-0.147	-0.002
-92.786	-200.000	0.008	-0.141
-91.772	-18.371	0.208	0.128
-90.757	800.000	-0.048	-0.204
-89.743	-200.000	0.003	-0.194
-88.728	-75.970	-0.419	0.146
-87.713	-37.744	-0.228	0.119
-86.699	-200.000	0.006	0.100
-85.684	-48.523	0.414	-0.196
-84.670	800.000	-0.035	-0.121
-83.655	-31.627	0.126	-0.070
-82.640	20.312	-0.247	-0.196
-81.626	104.379	0.048	-0.056
-80.611	31.797	-0.272	0.230
-79.597	535.013	-0.053	-0.123
-78.582	9.908	-0.196	0.146
-77.567	226.167	-0.124	-0.199
-76.553	-200.000	0.030	0.134
-75.538	800.000	-0.014	0.046
-74.524	-31.435	0.241	-0.133
-73.509	40.143	-0.051	0.045
-72.494	-14.250	-0.195	-0.123
-71.480	196.715	0.028	0.042
-70.465	-125.970	0.323	-0.048
-69.451	-200.000	-0.017	-0.148
-68.436	212.480	-0.115	-0.178
-67.422	10.661	-0.152	-0.114
-66.407	-200.000	-0.030	-0.211
-65.392	75.442	0.162	0.168
-64.378	497.687	0.105	0.239
-63.363	-48.800	0.205	-0.097
-62.349	-18.057	-0.165	-0.102
-61.334	59.313	-1.166	-1.130
-60.319	-11.422	0.543	0.352
-59.305	800.000	-0.338	-1.025
-58.290	800.000	0.523	1.435
-57.276	689.608	0.595	1.531
-56.261	-200.000	96.229	597.476
-55.246	560.727	1369.326	3254.693
-54.232	161.992	2546.939	3509.052
-53.217	113.395	2136.996	2550.899
-52.203	43.788	1599.187	1439.889
-51.188	35.481	1336.825	1153.943
-50.173	32.235	1295.615	1099.375
-49.159	55.098	1343.266	1276.343
-48.144	57.330	1359.722	1305.185
-47.130	35.618	1318.321	1138.605
-46.115	32.033	1300.832	1102.440
-45.100	31.813	1295.570	1096.654
-44.086	31.742	1293.539	1094.474
-43.071	31.670	1291.485	1092.272
-42.057	31.728	1289.016	1090.478
-41.042	31.798	1287.126	1089.246
-40.027	31.703	1286.225	1087.885
-39.013	31.705	1284.558	1086.444
-37.998	31.772	1282.257	1084.842
-36.984	31.821	1280.286	1083.415
-35.969	31.828	1278.971	1082.300
-34.954	31.864	1277.308	1081.057
-33.940	31.955	1275.738	1080.211
-32.925	32.016	1274.118	1079.147
-31.911	31.942	1273.058	1077.782
-30.896	31.891	1271.400	1076.045
-29.881	31.955	1270.202	1075.352
-28.867	31.928	1269.101	1074.223
-27.852	31.967	1267.548	1073.090
-26.838	31.976	1265.597	1071.445
-25.823	32.005	1264.234	1070.418
-24.809	31.942	1263.584	1069.463
-23.794	31.924	1262.175	1068.127
-22.779	32.011	1260.639	1067.282
-21.765	32.014	1259.258	1066.085
-20.750	31.929	1257.844	1064.365
-19.736	31.894	1256.365	1062.874
-18.721	31.874	1255.476	1061.962
-17.706	31.863	1254.491	1061.024
-16.692	31.905	1252.867	1059.845
-15.677	31.847	1252.436	1059.115
-14.663	31.815	1251.443	1058.053
-13.648	31.842	1249.893	1056.852
-12.633	31.801	1248.612	1055.493
-11.619	31.605	1248.432	1054.196
-10.604	31.750	1247.317	1054.026
-9.590	31.772	1246.519	1053.436
-8.575	31.720	1245.314	1052.085
-7.560	31.797	1244.198	1051.533
-6.546	31.768	1243.442	1050.687
-5.531	31.758	1243.153	1050.345
-4.517	31.761	1241.878	1049.243
-3.502	31.736	1240.980	1048.306
-2.487	31.727	1240.283	1047.621
-1.473	31.758	1235.881	1044.039
-0.458	30.464	1221.595	1024.793
0.556	27.109	1204.643	988.927
1.571	23.666	1210.555	974.827
2.586	22.994	1225.971	983.416
3.600	22.621	1214.416	972.004
4.615	16.022	1141.772	879.457
5.629	5.968	1065.112	771.163
6.644	2.004	1044.961	737.377
7.659	1.611	1042.632	733.772
8.673	1.466	1041.789	732.418
9.688	1.501	1040.248	731.438
10.702	1.640	1038.899	731.090
11.717	7.664	1047.420	766.133
12.731	17.917	1061.717	826.392
13.746	23.639	1068.686	859.537
14.761	24.963	1069.472	866.503
15.775	24.911	1069.471	866.175
16.790	24.544	1069.066	863.995
17.804	24.566	1068.269	863.382
18.819	24.827	1067.380	863.849
19.834	24.908	1067.165	863.985
20.848	24.906	1066.983	863.756
21.863	25.007	1066.244	863.566
22.877	24.740	1066.000	862.007
23.892	24.803	1064.956	861.387
24.907	24.826	1064.304	860.897
25.921	24.830	1063.165	859.918
26.936	24.838	1061.959	858.903
27.950	24.710	1060.447	856.993
28.965	24.488	1058.849	854.563
29.980	24.741	1057.238	854.393
30.994	24.900	1056.478	854.463
32.009	24.880	1055.397	853.418
33.023	24.603	1054.454	851.260
34.038	24.730	1053.709	851.187
35.053	24.906	1052.378	850.876
36.067	24.780	1052.422	850.237
37.082	24.890	1050.975	849.516
38.096	25.023	1050.736	849.877
39.111	25.203	1049.770	849.873
40.126	24.976	1048.490	847.687
41.140	24.660	1047.015	844.925
42.155	24.361	1045.418	842.151
43.169	24.547	1044.345	842.093
44.184	24.511	1043.650	841.284
45.199	24.420	1042.752	840.060
46.213	24.482	1042.110	839.760
47.228	24.774	1041.059	840.209
48.242	24.612	1040.507	838.931
49.257	24.769	1039.256	838.580
50.271	25.043	1038.838	839.455
51.286	24.972	1038.016	838.384
52.301	24.827	1037.566	837.267
53.315	24.849	1035.992	836.024
54.330	24.729	1035.199	834.752
55.344	24.728	1034.716	834.285
56.359	24.690	1034.158	833.583
57.374	24.663	1032.773	832.266
58.388	24.682	1031.862	831.547
59.403	24.597	1031.240	830.576
60.417	24.421	1030.356	828.977
61.432	24.423	1030.130	828.731
62.447	24.704	1029.144	829.165
63.461	24.627	1028.461	828.184
64.476	24.683	1027.195	827.352
65.490	24.435	1026.755	825.778
66.505	24.679	1025.788	826.054
67.520	24.810	1024.727	825.731
68.534	24.419	1023.884	823.177
69.549	23.972	1023.056	820.375
70.563	24.256	1021.854	820.649
71.578	24.109	1021.725	819.795
72.593	24.072	1020.658	818.696
73.607	24.143	1020.223	818.604
74.622	24.467	1019.831	819.704
75.636	24.373	1019.591	819.007
76.651	24.193	1018.164	816.960
77.666	24.251	1017.589	816.694
78.680	24.292	1016.591	816.007
79.695	24.405	1016.125	816.078
80.709	24.485	1015.580	815.932
81.724	24.491	1014.578	815.085
82.739	24.483	1013.999	814.512
83.753	24.770	1013.748	815.546
84.768	25.128	1012.608	816.186
85.782	25.160	1011.956	815.733
86.797	25.063	1010.955	814.414
87.812	25.069	1009.634	813.307
88.826	25.037	1009.114	812.669
89.841	25.057	1008.400	812.112
90.855	25.200	1006.969	811.535
91.870	25.072	1006.293	810.342
92.884	24.873	1005.472	808.710
93.899	24.860	1003.969	807.368
94.914	25.042	1003.780	807.966
95.928	24.926	1002.431	806.285
96.943	24.596	1001.405	803.908
97.957	24.580	1000.291	802.870
98.972	24.358	999.222	800.946
99.987	24.629	998.549	801.550
101.001	24.852	997.843	801.911
102.016	24.786	996.791	800.698
103.030	24.665	996.000	799.453
104.045	24.490	995.145	797.912
105.060	24.466	994.199	796.975
106.074	24.603	993.393	796.872
107.089	24.972	992.697	797.887
108.103	24.804	991.871	796.401
109.118	24.555	990.786	794.355
110.133	24.630	989.697	793.745
111.147	24.356	988.578	791.559
112.162	24.287	987.579	790.384
113.176	24.509	987.319	791.092
114.191	24.345	986.739	789.829
115.206	24.048	985.252	787.255
116.220	24.215	984.515	787.337
117.235	24.071	983.756	786.022
118.249	24.176	983.051	785.852
119.264	24.159	982.508	785.277
120.279	24.373	981.248	785.139
121.293	24.217	981.013	784.197
122.308	24.246	980.028	783.468
123.322	24.103	978.862	781.838
124.337	24.046	977.452	780.391
125.352	23.653	975.773	777.262
126.366	23.471	974.980	775.767
127.381	24.276	975.114	779.327
128.395	24.764	974.521	780.913
129.410	24.897	973.364	780.497
130.424	24.719	972.982	779.347
131.439	24.857	971.667	778.826
132.454	24.763	970.714	777.584
133.468	24.680	969.932	776.528
134.483	24.781	969.789	776.782
135.497	25.073	968.632	777.056
136.512	24.912	967.970	775.758
137.527	25.006	966.994	775.311
138.541	25.059	965.751	774.475
139.556	25.045	965.328	774.007
140.570	24.993	964.922	773.389
141.585	25.102	963.938	773.003
142.600	24.954	963.253	771.749
143.614	25.208	962.445	772.127
144.629	25.350	961.616	772.000
145.643	25.204	960.104	770.092
146.658	25.026	958.546	768.011
147.673	24.859	958.013	766.802
148.687	24.868	957.219	766.136
149.702	24.796	956.038	764.816
150.716	24.847	954.847	764.016
151.731	25.013	954.620	764.473
152.746	25.238	953.937	764.819
153.760	25.214	953.432	764.244
154.775	25.149	953.014	763.562
155.789	25.191	951.871	762.761
156.804	25.159	950.726	761.638
157.819	25.191	950.487	761.513
158.833	25.403	949.470	761.530
159.848	25.325	948.666	760.488
160.862	25.132	947.466	758.645
161.877	25.258	945.942	757.886
162.892	25.193	945.704	757.357
163.906	25.160	944.079	755.848
164.921	25.181	943.321	755.262
165.935	25.365	942.064	754.965
166.950	25.137	941.773	753.705
167.964	25.120	941.307	753.194
168.979	25.151	939.538	751.841
169.994	24.992	938.754	750.481
171.008	25.163	938.863	751.218
172.023	25.218	937.903	750.613
173.037	24.890	937.008	748.463
174.052	24.809	935.682	746.998
175.067	25.000	934.980	747.168
176.081	25.048	934.495	746.914
177.096	24.988	933.778	746.023
178.110	24.654	932.954	743.911
179.125	24.486	932.352	742.667
180.140	24.629	931.782	742.740
181.154	24.821	931.091	742.922
182.169	25.107	931.149	744.089
183.183	25.298	930.978	744.678
184.198	25.171	930.393	743.619
185.213	25.058	929.553	742.414
186.227	25.237	928.718	742.421
187.242	25.082	928.545	741.578
188.256	25.370	927.443	741.820
189.271	25.378	926.312	740.884
190.286	24.979	925.438	738.474
191.300	24.343	924.246	734.839
192.315	23.535	922.378	729.966
193.329	23.545	922.147	729.757
194.344	24.509	922.731	734.120
195.359	25.172	922.830	736.862
196.373	25.249	922.171	736.585
197.388	25.088	921.339	735.193
198.402	24.925	921.323	734.447
199.417	25.170	920.076	734.391
200.432	24.788	919.635	732.412
201.446	24.701	918.756	731.293
202.461	24.670	918.284	730.725
203.475	24.002	915.958	726.086
204.490	23.105	914.642	721.320
205.504	24.089	915.238	725.739
206.519	24.643	915.320	727.996
207.534	24.713	914.901	727.886
208.548	25.257	914.649	729.834
209.563	24.952	913.635	727.718
210.577	24.923	913.038	727.063
211.592	25.347	912.669	728.423
212.607	25.240	911.766	727.205
213.621	25.389	911.194	727.288
214.636	25.309	910.533	726.371
215.650	25.171	909.845	725.201
216.665	25.440	909.088	725.620
217.680	25.343	908.360	724.584
218.694	24.808	907.512	721.686
219.709	24.677	906.775	720.508
220.723	24.828	906.891	721.147
221.738	25.083	905.563	721.053
222.753	25.144	905.529	721.206
223.767	25.198	904.850	720.817
224.782	25.445	904.536	721.496
225.796	25.322	903.958	720.477
226.811	24.613	902.488	716.403
227.826	24.090	901.301	713.300
228.840	24.168	901.034	713.339
229.855	24.347	899.859	713.063
230.869	23.883	899.056	710.509
231.884	24.357	898.846	712.173
232.899	25.035	899.343	715.212
233.913	24.867	898.670	713.942
234.928	24.935	898.047	713.657
235.942	24.914	897.126	712.774
236.957	24.596	896.159	710.678
237.972	24.680	895.833	710.691
238.986	24.791	894.973	710.387
240.001	24.686	894.844	709.805
241.015	24.916	893.945	709.944
242.030	25.053	894.149	710.583
243.045	25.065	893.212	709.823
244.059	25.185	892.917	710.003
245.074	24.952	891.908	708.216
246.088	24.788	890.422	706.327
247.103	25.094	890.413	707.466
248.117	25.554	890.411	709.215
249.132	25.672	890.574	709.747
250.147	25.914	889.798	710.022
251.161	25.904	889.412	709.607
252.176	25.860	888.686	708.794
253.190	26.085	888.196	709.224
254.205	26.146	887.676	708.987
255.220	26.063	887.235	708.246
256.234	26.113	885.772	707.211
257.249	25.877	885.339	705.877
258.263	25.872	884.937	705.475
259.278	26.142	883.822	705.579
260.293	26.030	883.741	705.015
261.307	25.949	883.300	704.284
262.322	25.518	882.734	702.089
263.336	24.861	880.315	697.542
264.351	23.995	878.094	692.355
265.366	24.192	877.998	692.985
266.380	25.182	878.758	697.375
267.395	25.580	878.674	698.790
268.409	25.654	877.941	698.433
269.424	25.817	877.267	698.467
270.439	25.718	877.178	697.950
271.453	25.828	876.401	697.696
272.468	26.163	875.849	698.490
273.482	26.030	875.640	697.749
274.497	25.748	874.109	695.378
275.512	25.290	873.546	693.101
276.526	25.626	873.893	694.611
277.541	25.985	873.170	695.363
278.555	25.579	872.369	693.100
279.570	25.617	871.375	692.394
280.585	25.695	870.809	692.183
281.599	25.507	870.125	690.856
282.614	25.073	868.902	688.157
283.628	25.009	868.531	687.557
284.643	25.463	868.047	688.852
285.657	25.005	866.789	686.040
286.672	24.659	866.531	684.452
287.687	25.438	866.274	687.169
288.701	25.482	865.528	686.682
289.716	25.088	864.803	684.545
290.730	24.993	864.112	683.571
291.745	24.842	862.778	681.882
292.760	25.099	863.345	683.249
293.774	26.079	863.662	687.174
294.789	26.349	863.327	687.876
295.803	26.232	862.960	687.077
296.818	26.345	862.390	686.990
297.833	26.024	860.933	684.553
298.847	25.842	860.358	683.342
299.862	26.059	860.399	684.138
300.876	26.466	860.109	685.388
301.891	26.333	859.072	684.000
302.906	25.950	858.139	681.748
303.920	26.176	857.690	682.184
304.935	26.389	857.693	682.933
305.949	26.426	856.486	682.048
306.964	25.894	856.497	679.993
307.979	26.085	855.988	680.247
308.993	26.583	855.295	681.512
310.008	26.404	854.904	680.465
311.022	26.152	854.270	678.955
312.037	25.973	853.431	677.553
313.052	25.764	852.668	676.105
314.066	24.857	851.136	671.429
315.081	24.604	850.130	669.628
316.095	25.530	850.779	673.548
317.110	25.877	850.801	674.809
318.125	25.160	849.347	670.912
319.139	24.080	847.388	665.272
320.154	24.020	847.511	665.086
321.168	24.908	848.156	668.854
322.183	25.725	847.713	671.492
323.197	25.827	847.253	671.450
324.212	26.124	846.983	672.284
325.227	26.093	846.512	671.734
326.241	25.881	845.871	670.380
327.256	25.845	845.460	669.858
328.270	25.754	844.444	668.658
329.285	25.580	843.700	667.363
330.300	25.249	843.047	665.562
331.314	25.707	842.820	667.020
332.329	25.909	843.023	667.870
333.343	26.162	842.262	668.144
334.358	26.211	841.757	667.866
335.373	26.226	841.707	667.824
336.387	26.377	841.721	668.333
337.402	26.567	841.331	668.666
338.416	26.464	840.683	667.713
339.431	26.636	840.562	668.189
340.446	26.869	840.481	668.928
341.460	26.731	839.574	667.637
342.475	26.534	838.919	666.333
343.489	26.619	839.063	666.702
344.504	26.817	838.731	667.107
345.519	26.922	838.263	667.060
346.533	26.972	838.034	667.002
347.548	27.006	837.250	666.446
348.562	27.014	836.369	665.714
349.577	27.021	835.851	665.267
350.592	26.955	835.059	664.338
351.606	26.865	834.445	663.460
352.621	26.737	833.574	662.241
353.635	26.722	832.717	661.448
354.650	25.963	831.406	657.580
355.665	25.222	829.881	653.618
356.679	25.469	829.660	654.285
357.694	25.956	829.617	655.969
358.708	25.999	828.637	655.290
359.723	26.351	828.859	656.685
360.738	26.612	828.393	657.206
361.752	26.748	828.212	657.500
362.767	27.171	827.413	658.338
363.781	27.250	827.378	658.539
364.796	27.294	826.974	658.316
365.810	27.586	826.465	658.910
366.825	27.334	826.221	657.748
367.840	26.975	825.349	655.699
368.854	26.682	824.369	653.805
369.869	26.640	824.644	653.814
370.883	26.566	823.927	652.920
371.898	26.686	823.018	652.572
372.913	26.739	822.752	652.497
373.927	26.984	822.334	652.987
374.942	26.831	822.545	652.548
375.956	27.128	821.765	652.939
376.971	27.394	821.223	653.406
377.986	27.488	820.989	653.498
379.000	27.389	820.164	652.429
380.015	27.309	819.329	651.421
381.029	27.262	819.073	650.991
382.044	27.438	818.986	651.495
383.059	27.460	818.219	650.904
384.073	27.207	818.339	650.040
385.088	27.353	817.083	649.503
386.102	27.033	816.508	647.848
387.117	27.079	815.637	647.263
388.132	26.670	814.534	644.874
389.146	26.091	813.688	642.089
390.161	26.677	813.329	643.832
391.175	27.046	813.435	645.169
392.190	26.634	812.321	642.768
393.205	25.312	810.278	636.413
394.219	23.864	808.712	629.997
395.234	23.844	808.495	629.703
396.248	25.287	810.128	636.037
397.263	26.681	810.871	641.503
398.278	26.734	810.367	641.233
399.292	26.515	809.456	639.685
400.307	26.681	808.943	639.806
401.321	26.901	808.506	640.180
402.336	27.165	808.550	641.091
403.350	27.610	808.419	642.501
404.365	27.801	808.379	643.084
405.380	28.120	808.207	644.014
406.394	27.954	807.758	643.015
407.409	28.039	807.194	642.808
408.423	27.901	807.132	642.217
409.438	27.910	806.669	641.824
410.453	28.029	806.058	641.696
411.467	27.920	805.248	640.612
412.482	28.101	804.668	640.729
413.496	27.980	804.759	640.319
414.511	28.033	804.290	640.077
415.526	28.078	803.807	639.792
416.540	27.989	802.966	638.757
417.555	27.649	802.422	637.080
418.569	27.807	802.181	637.382
419.584	27.645	801.236	636.010
420.599	27.444	801.041	635.100
421.613	111.005	1286.983	1461.055
422.628	95.767	1357.758	1461.193
