DTS Sentinel unit serial number:	SN413079Multiplexer serial number:	ORYXHardware model number:	OX4-SRSoftware version number:	ORYX F/W v4.00 Oryx Data Collector v3.7.2.0data status	okinstallation	princeton_trtdifferential loss correction	single-endedforward channel	channel 1reverse channel	N/Adate	2019/09/10time	18:00:11forward acquisition time	60.00reverse acquisition time	0.00gamma	496.2192k internal	0.2301k external	0.2301temperature offset calibration	0.9930default loss term (dB/km)	0.3790temperature slope calibration	1.0000multiplexer offset coefficient	1.0000multiplexer slope coefficient	1.0000fibre end	0.00T internal ref (°C)	37.12T ext. ref 1 (°C)	-0.32T ext. ref 2 (°C)	29.61length (m)	temperature (°C)	Stokes	anti-Stokes-747.200	-91.792	0.098	0.029
-746.185	-29.628	0.118	-0.069
-745.171	218.299	0.072	0.116
-744.156	-71.172	-0.159	0.061
-743.142	96.820	-0.255	0.297
-742.127	-200.000	0.002	0.266
-741.112	-50.500	-0.030	-0.015
-740.098	16.121	0.174	-0.139
-739.083	111.189	-0.051	-0.063
-738.069	-200.000	0.036	0.207
-737.054	210.422	-0.077	-0.123
-736.039	-29.573	-0.002	0.001
-735.025	4.708	-0.242	0.181
-734.010	-99.906	-0.134	-0.034
-732.996	-200.000	-0.022	-0.154
-731.981	800.000	-0.101	-0.419
-730.966	24.271	-0.067	0.056
-729.952	188.819	-0.058	-0.089
-728.937	122.063	0.160	-0.204
-727.923	-94.977	0.204	-0.056
-726.908	-1.590	0.075	-0.054
-725.894	-88.683	-0.174	-0.053
-724.879	-141.891	-0.102	0.010
-723.864	148.866	-0.180	0.248
-722.850	-200.000	-0.078	-0.480
-721.835	27.472	-0.101	0.087
-720.821	368.783	-0.106	0.219
-719.806	-43.409	-0.113	0.058
-718.791	-107.016	-0.165	-0.037
-717.777	-54.493	0.216	0.099
-716.762	-43.462	0.183	-0.094
-715.748	5.537	-0.236	-0.177
-714.733	800.000	-0.049	-0.155
-713.718	-200.000	-0.040	0.292
-712.704	-63.990	-0.067	0.028
-711.689	-0.022	-0.106	-0.077
-710.675	162.869	-0.076	0.109
-709.660	-200.000	-0.007	0.173
-708.645	-200.000	0.048	0.289
-707.631	800.000	0.037	0.113
-706.616	370.389	0.073	-0.151
-705.602	800.000	-0.037	-0.104
-704.587	800.000	-0.047	-0.141
-703.572	-148.598	-0.298	0.025
-702.558	-5.877	-0.100	-0.070
-701.543	285.183	0.038	0.070
-700.529	-19.457	0.312	0.197
-699.514	-107.816	0.221	0.049
-698.499	77.916	-0.410	0.445
-697.485	800.000	0.178	0.505
-696.470	99.796	0.101	-0.119
-695.456	-106.580	0.327	0.074
-694.441	41.008	-0.191	0.175
-693.426	-2.297	-0.247	-0.176
-692.412	-49.729	0.223	0.108
-691.397	52.740	-0.134	-0.130
-690.383	-14.774	-0.237	0.155
-689.368	261.891	-0.171	0.301
-688.354	800.000	0.023	0.091
-687.339	-29.098	-0.224	0.131
-686.324	-83.287	-0.199	0.065
-685.310	-200.000	0.018	0.122
-684.295	-147.014	0.184	-0.016
-683.281	-113.743	-0.199	0.039
-682.266	580.867	0.076	0.189
-681.251	546.133	0.104	-0.254
-680.237	800.000	-0.114	-0.409
-679.222	222.348	-0.127	0.208
-678.208	-200.000	-0.009	-0.114
-677.193	-108.690	0.082	0.018
-676.178	39.642	-0.172	0.157
-675.164	-73.633	-0.126	-0.047
-674.149	-20.613	0.117	-0.073
-673.135	-156.282	-0.134	0.009
-672.120	159.850	0.140	-0.198
-671.105	-200.000	-0.030	-0.153
-670.091	-200.000	0.034	0.460
-669.076	-200.000	-0.024	-0.158
-668.062	-25.469	-0.226	-0.136
-667.047	-200.000	-0.002	0.289
-666.032	182.627	-0.122	0.183
-665.018	-200.000	-0.008	0.214
-664.003	-26.460	0.095	0.057
-662.989	4.238	-0.278	-0.207
-661.974	-138.291	0.021	-0.002
-660.959	197.692	-0.078	0.121
-659.945	800.000	-0.023	0.097
-658.930	-157.065	0.279	0.017
-657.916	800.000	-0.035	0.112
-656.901	-159.192	0.173	-0.010
-655.886	-200.000	-0.005	-0.072
-654.872	-65.158	0.208	0.085
-653.857	-200.000	-0.275	0.001
-652.843	-127.461	0.099	-0.015
-651.828	-200.000	0.027	0.131
-650.814	53.160	0.207	0.201
-649.799	590.722	0.040	0.101
-648.784	-169.321	-0.272	0.010
-647.770	36.645	0.065	-0.059
-646.755	-5.128	0.123	0.086
-645.741	-37.716	0.302	0.163
-644.726	-85.976	-0.138	-0.043
-643.711	627.922	-0.132	-0.339
-642.697	-200.000	0.017	0.092
-641.682	455.654	0.052	-0.118
-640.668	45.156	0.157	-0.147
-639.653	-42.663	0.235	0.121
-638.638	800.000	-0.025	0.074
-637.624	800.000	-0.066	-0.229
-636.609	-88.111	-0.177	0.054
-635.595	349.582	0.154	-0.309
-634.580	-89.959	-0.156	0.046
-633.565	800.000	0.046	-0.188
-632.551	143.816	0.166	0.224
-631.536	-76.631	0.146	0.052
-630.522	78.464	-0.190	-0.206
-629.507	281.315	0.093	-0.169
-628.492	566.814	0.129	0.318
-627.478	-77.253	-0.298	-0.105
-626.463	447.995	0.214	-0.478
-625.449	217.261	0.078	-0.126
-624.434	-98.259	-0.288	0.075
-623.419	312.877	-0.118	-0.224
-622.405	800.000	-0.069	0.252
-621.390	-88.881	-0.499	0.150
-620.376	88.724	0.302	-0.341
-619.361	47.351	-0.004	0.004
-618.346	119.861	0.118	-0.148
-617.332	473.070	0.095	-0.217
-616.317	65.250	-0.087	0.089
-615.303	-121.503	-0.301	-0.051
-614.288	254.136	0.110	-0.191
-613.273	171.901	0.210	0.306
-612.259	40.455	0.178	0.162
-611.244	38.231	-0.117	-0.106
-610.230	-200.000	0.010	-0.103
-609.215	312.995	0.103	0.197
-608.201	43.069	-0.246	0.227
-607.186	-105.426	-0.328	-0.076
-606.171	104.962	-0.356	-0.426
-605.157	-8.299	-0.220	0.150
-604.142	800.000	0.056	0.215
-603.128	781.433	-0.063	-0.175
-602.113	-107.535	0.210	0.047
-601.098	-115.340	0.076	-0.015
-600.084	98.825	-0.072	-0.085
-599.069	111.448	0.229	-0.279
-598.055	-61.791	0.243	-0.103
-597.040	-200.000	0.041	0.232
-596.025	324.079	0.062	-0.121
-595.011	-56.766	-0.251	-0.112
-593.996	-58.527	0.162	-0.071
-592.982	333.260	0.093	0.183
-591.967	10.449	-0.222	-0.172
-590.952	-137.022	-0.216	-0.025
-589.938	-200.000	0.134	0.000
-588.923	-200.000	-0.053	-0.278
-587.909	291.085	-0.190	-0.349
-586.894	6.866	-0.055	0.041
-585.879	-200.000	0.026	0.152
-584.865	-108.617	0.129	0.028
-583.850	-60.173	0.239	0.103
-582.836	-4.614	-0.150	-0.105
-581.821	318.703	-0.113	0.217
-580.806	-200.000	0.054	0.373
-579.792	-44.721	-0.235	-0.119
-578.777	-11.906	0.317	-0.210
-577.763	-137.298	-0.309	0.036
-576.748	800.000	-0.072	-0.270
-575.733	-73.798	0.183	0.067
-574.719	-54.780	0.076	-0.035
-573.704	-193.082	0.502	-0.005
-572.690	800.000	0.044	0.166
-571.675	-76.950	-0.216	-0.076
-570.661	226.227	0.163	0.268
-569.646	185.997	-0.008	-0.012
-568.631	-51.071	0.142	0.068
-567.617	800.000	0.031	0.135
-566.602	428.056	0.131	0.287
-565.588	340.534	-0.126	-0.250
-564.573	109.195	-0.226	-0.274
-563.558	-29.931	0.168	-0.097
-562.544	-185.590	0.243	0.004
-561.529	-65.278	-0.279	-0.114
-560.515	263.703	-0.247	-0.434
-559.500	800.000	-0.083	0.243
-558.485	379.844	0.066	-0.137
-557.471	800.000	0.011	0.048
-556.456	51.782	0.181	0.174
-555.442	-109.311	0.038	0.008
-554.427	-200.000	-0.027	-0.133
-553.412	-36.054	0.042	-0.023
-552.398	4.499	-0.202	0.150
-551.383	-108.810	0.157	-0.034
-550.369	-161.195	-0.408	-0.021
-549.354	5.990	0.065	-0.049
-548.339	-99.529	0.146	-0.037
-547.325	-200.000	-0.020	0.171
-546.310	800.000	-0.058	-0.173
-545.296	150.814	-0.181	-0.249
-544.281	-200.000	-0.036	-0.258
-543.266	-200.000	-0.064	0.292
-542.252	-86.263	0.135	-0.042
-541.237	800.000	0.103	-0.310
-540.223	-100.663	-0.159	-0.040
-539.208	-162.969	-0.361	0.018
-538.193	-7.656	0.342	-0.234
-537.179	217.575	-0.146	0.236
-536.164	-200.000	0.015	-0.301
-535.150	-171.121	0.297	-0.010
-534.135	36.842	-0.086	-0.077
-533.121	68.049	-0.090	0.093
-532.106	-90.328	-0.095	-0.028
-531.091	555.703	0.097	0.235
-530.077	533.234	-0.021	0.050
-529.062	-85.806	-0.202	-0.063
-528.048	706.951	0.050	0.133
-527.033	-99.538	-0.211	0.054
-526.018	800.000	-0.045	0.171
-525.004	-89.581	-0.098	-0.029
-523.989	-200.000	0.027	-0.268
-522.975	-200.000	0.010	-0.046
-521.960	220.036	0.125	-0.202
-520.945	-73.723	0.118	-0.043
-519.931	-200.000	-0.007	0.277
-518.916	-200.000	0.005	-0.070
-517.902	-30.496	-0.370	0.212
-516.887	267.257	0.134	-0.236
-515.872	-160.165	-0.363	-0.020
-514.858	321.094	0.076	0.145
-513.843	800.000	-0.078	0.229
-512.829	-63.218	-0.192	0.080
-511.814	-198.825	0.083	0.000
-510.799	40.409	-0.103	-0.094
-509.785	563.312	-0.040	-0.097
-508.770	-95.196	-0.098	-0.027
-507.756	-109.474	-0.066	0.014
-506.741	-0.020	0.161	-0.116
-505.726	139.591	-0.056	0.074
-504.712	246.453	0.127	0.216
-503.697	207.977	-0.135	-0.213
-502.683	45.655	0.182	0.170
-501.668	-91.571	0.165	0.047
-500.653	-141.472	0.290	0.030
-499.639	-114.948	0.068	-0.013
-498.624	-23.591	0.066	0.040
-497.610	207.524	0.078	-0.123
-496.595	800.000	0.098	0.294
-495.581	199.385	0.120	-0.186
-494.566	-200.000	0.014	-0.270
-493.551	-124.343	0.533	0.084
-492.537	-200.000	-0.010	0.167
-491.522	-200.000	0.003	-0.020
-490.508	-128.211	0.137	-0.020
-489.493	800.000	0.028	0.082
-488.478	126.392	-0.096	0.122
-487.464	291.074	-0.015	-0.027
-486.449	-96.492	-0.203	0.054
-485.435	60.757	0.236	0.236
-484.420	-40.582	-0.175	-0.092
-483.405	-99.229	-0.299	0.076
-482.391	-19.888	-0.256	0.159
-481.376	-112.092	0.189	-0.038
-480.362	23.756	0.233	0.194
-479.347	34.524	0.061	-0.053
-478.332	-56.171	0.184	0.083
-477.318	-200.000	-0.014	0.351
-476.303	800.000	-0.075	-0.303
-475.289	-122.267	0.207	-0.034
-474.274	46.924	0.081	-0.076
-473.259	800.000	-0.145	-0.471
-472.245	38.230	0.190	-0.171
-471.230	-200.000	0.003	0.322
-470.216	69.531	-0.146	-0.152
-469.201	-200.000	0.088	-0.394
-468.186	93.385	-0.235	0.269
-467.172	70.998	-0.094	-0.098
-466.157	-200.000	0.007	-0.324
-465.143	-7.791	0.280	-0.190
-464.128	-31.888	-0.267	0.151
-463.113	6.014	-0.097	-0.072
-462.099	99.879	-0.117	-0.137
-461.084	-51.601	-0.062	-0.029
-460.070	222.456	-0.105	-0.171
-459.055	-200.000	-0.008	0.241
-458.040	93.693	0.298	-0.340
-457.026	-82.247	-0.126	-0.041
-456.011	800.000	-0.034	-0.107
-454.997	-200.000	-0.035	0.432
-453.982	139.152	-0.168	0.222
-452.968	-200.000	0.035	-0.363
-451.953	-91.798	0.259	0.074
-450.938	-8.611	0.072	0.049
-449.924	64.575	0.018	0.018
-448.909	-200.000	-0.003	0.102
-447.895	637.867	-0.075	0.191
-446.880	-135.400	-0.418	0.050
-445.865	80.139	0.220	0.238
-444.851	-200.000	0.011	0.087
-443.836	-21.690	0.032	0.020
-442.822	-200.000	0.007	0.210
-441.807	-100.356	0.168	0.042
-440.792	-132.160	0.122	0.016
-439.778	-100.879	0.122	0.030
-438.763	603.867	-0.124	-0.312
-437.749	-125.790	-0.056	0.009
-436.734	-164.881	-0.300	0.014
-435.719	21.098	-0.197	0.161
-434.705	-200.000	0.051	0.456
-433.690	-118.935	-0.146	0.026
-432.676	800.000	-0.066	0.265
-431.661	-102.559	-0.398	-0.096
-430.646	-200.000	0.013	0.288
-429.632	321.212	0.161	0.307
-428.617	-200.000	0.007	0.163
-427.603	302.698	-0.095	-0.177
-426.588	-38.705	-0.389	-0.207
-425.573	-48.615	0.283	-0.137
-424.559	-87.394	0.049	0.015
-423.544	-97.882	-0.086	0.022
-422.530	191.120	-0.209	0.316
-421.515	-200.000	-0.017	0.258
-420.500	-59.787	-0.173	-0.074
-419.486	-155.528	0.186	-0.012
-418.471	-136.188	-0.237	-0.028
-417.457	-48.733	-0.255	0.123
-416.442	530.839	0.065	0.156
-415.428	-92.506	-0.188	-0.053
-414.413	424.096	-0.112	-0.242
-413.398	-160.890	0.563	0.030
-412.384	800.000	-0.087	-0.250
-411.369	800.000	-0.109	0.405
-410.355	-143.752	0.257	0.024
-409.340	-139.125	0.280	-0.030
-408.325	-171.877	-0.216	-0.007
-407.311	410.148	-0.032	-0.068
-406.296	55.969	0.225	0.219
-405.282	353.129	-0.198	0.395
-404.267	-134.988	0.441	-0.054
-403.252	264.013	-0.086	-0.150
-402.238	-165.994	-0.063	0.003
-401.223	-55.068	-0.221	-0.100
-400.209	567.867	0.160	-0.391
-399.194	701.483	0.077	-0.205
-398.179	239.293	0.084	0.140
-397.165	-200.000	0.008	-0.164
-396.150	9.098	-0.256	-0.195
-395.136	-200.000	0.032	-0.276
-394.121	551.021	0.051	0.123
-393.106	-95.437	-0.318	-0.086
-392.092	-166.409	0.109	-0.005
-391.077	-86.115	-0.137	-0.043
-390.063	80.275	-0.149	-0.161
-389.048	-200.000	-0.018	-0.218
-388.033	33.597	0.102	-0.089
-387.019	194.483	-0.184	0.281
-386.004	-200.000	0.015	-0.127
-384.990	30.311	0.191	-0.164
-383.975	-18.805	-0.136	-0.085
-382.960	-200.000	-0.045	-0.338
-381.946	-200.000	-0.010	0.274
-380.931	-104.725	-0.356	0.082
-379.917	-167.142	0.439	-0.018
-378.902	800.000	0.108	0.300
-377.888	-70.605	-0.146	-0.056
-376.873	374.155	0.106	-0.217
-375.858	-200.000	-0.008	0.176
-374.844	-200.000	0.007	-0.146
-373.829	7.562	0.120	0.090
-372.815	-112.138	0.133	0.027
-371.800	648.122	0.111	-0.284
-370.785	-200.000	-0.057	0.353
-369.771	800.000	-0.072	0.263
-368.756	-42.253	-0.250	0.128
-367.742	-200.000	-0.005	0.136
-366.727	800.000	0.125	-0.387
-365.712	-200.000	0.007	0.142
-364.698	238.343	0.114	-0.190
-363.683	215.781	0.200	0.319
-362.669	-140.039	0.396	0.042
-361.654	-139.459	-0.251	-0.027
-360.639	-200.000	0.022	0.136
-359.625	-200.000	-0.002	0.426
-358.610	-92.430	0.441	0.125
-357.596	53.518	-0.031	-0.030
-356.581	-200.000	-0.001	0.086
-355.566	-200.000	0.000	-0.161
-354.552	-185.826	-0.183	0.003
-353.537	-9.978	0.390	-0.260
-352.523	13.959	-0.081	-0.063
-351.508	214.984	-0.099	-0.157
-350.493	800.000	0.044	-0.132
-349.479	43.189	-0.256	0.235
-348.464	29.671	0.088	0.075
-347.450	-41.096	0.111	-0.058
-346.435	-88.209	0.333	-0.100
-345.420	156.671	0.064	-0.088
-344.406	-32.280	-0.134	0.075
-343.391	-124.840	-0.099	0.015
-342.377	-85.395	0.220	0.069
-341.362	317.700	0.051	-0.097
-340.348	252.895	-0.104	-0.178
-339.333	334.225	-0.029	-0.056
-338.318	-136.093	0.147	0.017
-337.304	-175.408	0.314	0.009
-336.289	-200.000	-0.027	0.206
-335.275	38.947	0.130	-0.116
-334.260	476.823	0.118	-0.268
-333.245	-15.365	0.028	0.018
-332.231	-200.000	0.000	0.163
-331.216	-200.000	0.018	0.130
-330.202	112.777	-0.105	-0.128
-329.187	-25.793	-0.165	0.097
-328.172	800.000	0.066	0.200
-327.158	189.513	0.104	0.157
-326.143	-200.000	0.034	-0.216
-325.129	-161.138	0.487	-0.026
-324.114	53.642	-0.229	-0.221
-323.099	-149.660	0.109	0.009
-322.085	58.093	-0.301	0.296
-321.070	59.182	0.189	-0.187
-320.056	-200.000	-0.014	0.115
-319.041	32.709	0.203	0.176
-318.026	800.000	-0.041	0.175
-317.012	520.069	-0.104	-0.244
-315.997	-200.000	-0.026	0.156
-314.983	286.048	0.094	0.169
-313.968	-41.024	0.255	-0.132
-312.953	-149.084	0.225	0.018
-311.939	-200.000	0.027	-0.347
-310.924	29.300	-0.042	0.036
-309.910	800.000	0.043	-0.135
-308.895	-50.010	0.169	-0.080
-307.880	800.000	0.016	-0.051
-306.866	118.737	0.117	-0.145
-305.851	311.732	-0.035	-0.066
-304.837	-200.000	-0.006	0.228
-303.822	800.000	0.072	0.239
-302.807	-71.247	0.269	0.101
-301.793	317.336	-0.074	0.140
-300.778	-200.000	0.003	0.110
-299.764	-27.326	-0.309	-0.180
-298.749	-162.801	0.121	-0.006
-297.735	800.000	-0.025	0.095
-296.720	129.008	-0.096	0.123
-295.705	-4.556	0.272	0.188
-294.691	-133.648	-0.345	0.043
-293.676	800.000	0.086	0.276
-292.662	-58.423	-0.106	0.046
-291.647	-73.100	0.084	0.031
-290.632	169.664	-0.188	-0.269
-289.618	-59.761	0.310	0.133
-288.603	-200.000	0.009	0.059
-287.589	390.409	0.178	0.370
-286.574	223.492	-0.173	0.280
-285.559	141.247	0.229	0.304
-284.545	102.007	0.132	-0.155
-283.530	800.000	-0.076	0.290
-282.516	-22.458	-0.152	0.092
-281.501	501.731	-0.119	-0.274
-280.486	66.507	-0.247	0.252
-279.472	-200.000	0.009	-0.104
-278.457	-137.188	0.178	-0.020
-277.443	-20.719	0.107	-0.066
-276.428	491.992	-0.142	-0.326
-275.413	35.380	-0.066	-0.058
-274.399	-90.756	0.218	0.063
-273.384	60.675	0.127	0.126
-272.370	-200.000	0.000	0.023
-271.355	165.619	0.239	0.338
-270.340	-36.811	0.426	-0.229
-269.326	-103.792	-0.145	-0.034
-268.311	-200.000	-0.014	0.177
-267.297	-168.524	-0.247	-0.009
-266.282	-15.796	-0.284	-0.181
-265.267	-106.306	-0.207	-0.046
-264.253	22.736	-0.224	0.183
-263.238	58.282	0.038	-0.037
-262.224	-200.000	0.005	0.121
-261.209	800.000	-0.094	0.358
-260.195	-200.000	-0.114	0.523
-259.180	800.000	-0.060	0.240
-258.165	67.165	-0.305	0.311
-257.151	36.164	-0.067	-0.059
-256.136	-200.000	0.019	-0.183
-255.122	800.000	-0.064	-0.187
-254.107	-65.691	-0.289	-0.116
-253.092	-23.541	-0.129	0.078
-252.078	503.805	0.101	0.234
-251.063	-200.000	0.036	-0.166
-250.049	-126.464	0.030	0.004
-249.034	-30.281	-0.066	-0.038
-248.019	-140.001	0.173	-0.018
-247.005	-34.808	-0.200	-0.109
-245.990	-63.530	0.345	0.142
-244.976	-48.402	-0.159	0.077
-243.961	-152.850	-0.310	-0.022
-242.946	-122.539	0.393	0.064
-241.932	-117.485	-0.123	0.022
-240.917	-60.383	-0.447	-0.190
-239.903	233.686	0.079	-0.131
-238.888	120.676	0.153	-0.190
-237.873	17.955	0.106	0.084
-236.859	-29.205	-0.280	0.160
-235.844	200.279	0.059	0.091
-234.830	552.781	0.147	0.354
-233.815	-44.483	0.135	0.067
-232.800	-200.000	0.029	-0.241
-231.786	766.203	0.037	-0.101
-230.771	-200.000	-0.023	-0.185
-229.757	-122.198	0.127	-0.021
-228.742	800.000	0.028	0.122
-227.727	138.349	0.066	-0.086
-226.713	140.478	-0.059	-0.078
-225.698	-200.000	0.060	0.316
-224.684	487.661	-0.090	0.205
-223.669	354.948	-0.087	0.172
-222.655	-18.817	0.130	-0.081
-221.640	-122.726	-0.146	0.024
-220.625	29.706	-0.058	-0.050
-219.611	-200.000	-0.046	0.208
-218.596	-90.286	-0.319	0.093
-217.582	12.279	-0.040	0.031
-216.567	-147.901	0.135	-0.011
-215.552	28.588	0.083	0.070
-214.538	-118.744	0.248	-0.044
-213.523	800.000	0.035	0.097
-212.509	-200.000	0.012	0.094
-211.494	-129.077	-0.199	0.028
-210.479	-200.000	0.023	-0.195
-209.465	16.288	-0.242	0.191
-208.450	211.648	0.044	-0.069
-207.436	-93.310	0.192	-0.053
-206.421	-200.000	-0.021	0.126
-205.406	-37.043	-0.038	0.020
-204.392	-62.100	0.315	0.131
-203.377	800.000	-0.027	0.090
-202.363	70.606	-0.123	0.127
-201.348	62.968	-0.110	-0.110
-200.333	-71.159	0.228	-0.085
-199.319	-192.295	0.112	0.001
-198.304	-116.459	0.319	-0.059
-197.290	800.000	-0.089	-0.291
-196.275	-114.886	0.443	-0.084
-195.260	150.553	-0.071	-0.096
-194.246	-127.918	-0.296	0.042
-193.231	-5.255	-0.218	0.149
-192.217	51.534	0.306	-0.290
-191.202	800.000	-0.058	-0.166
-190.187	-200.000	0.053	-0.255
-189.173	92.426	0.153	0.172
-188.158	44.780	-0.274	0.252
-187.144	-106.901	0.163	-0.036
-186.129	187.325	0.243	0.362
-185.114	573.658	0.088	-0.214
-184.100	800.000	-0.035	-0.118
-183.085	14.692	-0.224	0.175
-182.071	-200.000	0.040	0.230
-181.056	135.526	-0.148	-0.192
-180.042	14.356	-0.215	-0.167
-179.027	343.260	0.114	0.222
-178.012	-149.044	0.112	-0.009
-176.998	-112.786	0.098	0.019
-175.983	91.396	-0.156	-0.175
-174.969	174.850	-0.156	0.224
-173.954	800.000	-0.117	0.416
-172.939	-200.000	-0.079	0.379
-171.925	699.856	0.086	-0.226
-170.910	-77.933	-0.178	0.061
-169.896	195.358	0.147	-0.223
-168.881	90.436	0.084	0.094
-167.866	27.340	-0.059	0.050
-166.852	256.415	-0.173	-0.296
-165.837	-200.000	0.001	-0.058
-164.823	61.324	0.164	-0.162
-163.808	-200.000	-0.009	-0.226
-162.793	532.081	0.028	-0.066
-161.779	-200.000	-0.043	-0.193
-160.764	-200.000	-0.082	-0.376
-159.750	39.293	-0.231	0.206
-158.735	43.261	0.067	-0.061
-157.720	-67.192	-0.268	-0.105
-156.706	145.635	-0.324	-0.433
-155.691	499.282	0.121	-0.277
-154.677	-36.667	0.259	-0.138
-153.662	177.186	-0.253	-0.368
-152.647	-2.103	0.187	-0.131
-151.633	548.739	0.050	-0.119
-150.618	-200.000	0.014	0.166
-149.604	-200.000	-0.020	-0.136
-148.589	-48.247	0.099	0.048
-147.574	-57.864	0.277	-0.121
-146.560	-200.000	-0.006	-0.041
-145.545	800.000	0.049	0.178
-144.531	-200.000	-0.008	0.051
-143.516	-200.000	-0.020	-0.122
-142.502	-200.000	0.019	0.150
-141.487	88.839	0.157	0.174
-140.472	-127.118	0.164	0.024
-139.458	130.225	0.174	-0.222
-138.443	102.868	-0.064	-0.074
-137.429	800.000	-0.066	0.202
-136.414	-54.901	-0.141	-0.063
-135.399	-127.540	0.511	0.074
-134.385	-50.345	0.330	0.155
-133.370	-31.967	0.254	0.142
-132.356	157.569	-0.084	0.116
-131.341	800.000	-0.071	-0.223
-130.326	-200.000	0.008	0.220
-129.312	-200.000	0.039	0.430
-128.297	-94.410	0.227	0.062
-127.283	-46.775	0.396	-0.193
-126.268	104.397	-0.182	-0.213
-125.253	56.297	-0.040	-0.039
-124.239	22.436	-0.220	0.179
-123.224	72.417	-0.200	0.207
-122.210	-123.964	-0.411	0.064
-121.195	-35.944	0.156	0.084
-120.180	-65.463	-0.168	-0.067
-119.166	-103.956	0.151	0.035
-118.151	-125.515	0.354	-0.054
-117.137	800.000	-0.172	0.552
-116.122	-134.280	0.114	0.014
-115.107	-61.206	0.085	0.036
-114.093	143.723	0.056	-0.074
-113.078	-78.466	-0.181	0.062
-112.064	-200.000	-0.009	-0.143
-111.049	-63.204	0.083	-0.034
-110.034	532.072	-0.155	-0.364
-109.020	92.506	-0.113	0.127
-108.005	-82.795	-0.233	0.075
-106.991	49.888	-0.147	-0.138
-105.976	-200.000	-0.007	0.165
-104.962	-20.743	0.032	0.020
-103.947	-200.000	-0.007	-0.196
-102.932	-19.300	0.226	0.139
-101.918	-136.700	0.321	0.037
-100.903	214.590	-0.215	0.338
-99.889	-189.883	0.394	-0.004
-98.874	-52.753	-0.125	-0.057
-97.859	-42.980	0.040	-0.020
-96.845	-67.295	-0.191	-0.075
-95.830	-158.188	0.092	-0.005
-94.816	-57.660	0.248	0.108
-93.801	-132.028	-0.159	-0.021
-92.786	800.000	0.097	-0.292
-91.772	-124.274	0.103	-0.016
-90.757	800.000	-0.108	0.329
-89.743	40.639	-0.200	-0.179
-88.728	223.917	0.071	0.113
-87.713	-200.000	-0.016	0.084
-86.699	-4.440	0.244	0.168
-85.684	321.445	-0.137	-0.259
-84.670	32.514	0.281	-0.241
-83.655	-65.170	0.043	0.017
-82.640	-200.000	-0.012	0.057
-81.626	283.358	0.103	-0.184
-80.611	-52.226	-0.168	0.078
-79.597	433.374	0.068	0.146
-78.582	49.454	0.207	0.193
-77.567	-101.598	-0.432	0.104
-76.553	-200.000	0.066	0.448
-75.538	-200.000	-0.054	0.419
-74.524	-121.832	-0.252	0.041
-73.509	-200.000	0.005	-0.330
-72.494	25.873	-0.083	0.068
-71.480	-170.861	-0.048	0.002
-70.465	422.934	-0.110	0.235
-69.451	86.141	0.192	0.210
-68.436	-47.383	0.125	0.060
-67.422	29.203	-0.135	0.114
-66.407	287.468	0.146	-0.262
-65.392	43.804	0.040	-0.036
-64.378	-127.525	-0.186	0.027
-63.363	124.289	-0.131	0.163
-62.349	-44.785	-0.052	-0.026
-61.334	67.720	-1.042	-1.057
-60.319	116.388	0.295	0.358
-59.305	-200.000	-0.138	-0.708
-58.290	98.521	0.715	0.818
-57.276	800.000	0.457	1.680
-56.261	-200.000	89.426	499.604
-55.246	531.993	1375.352	3228.713
-54.232	181.484	2624.249	3830.405
-53.217	116.664	2233.075	2718.340
-52.203	47.978	1679.907	1557.481
-51.188	40.559	1409.598	1259.925
-50.173	37.303	1365.376	1200.267
-49.159	56.249	1409.870	1358.672
-48.144	60.770	1428.649	1405.081
-47.130	40.894	1385.545	1240.317
-46.115	37.285	1367.994	1202.265
-45.100	37.029	1363.636	1196.812
-44.086	36.927	1360.957	1193.785
-43.071	37.020	1357.807	1191.543
-42.057	36.847	1356.113	1188.946
-41.042	36.912	1354.122	1187.557
-40.027	37.072	1352.602	1187.153
-39.013	37.071	1350.614	1185.358
-37.998	37.052	1348.493	1183.334
-36.984	37.062	1346.977	1182.016
-35.969	37.145	1345.079	1180.807
-34.954	37.177	1343.204	1179.308
-33.940	37.126	1342.292	1178.150
-32.925	37.110	1340.960	1176.840
-31.911	37.145	1339.463	1175.693
-30.896	37.207	1337.369	1174.182
-29.881	37.308	1336.186	1173.706
-28.867	37.269	1334.742	1172.153
-27.852	37.296	1333.075	1170.808
-26.838	37.305	1331.508	1169.437
-25.823	37.161	1330.655	1167.780
-24.809	37.246	1328.760	1166.580
-23.794	37.258	1326.977	1165.037
-22.779	37.265	1325.588	1163.818
-21.765	37.203	1324.674	1162.594
-20.750	37.186	1323.158	1161.117
-19.736	37.116	1321.630	1159.312
-18.721	37.091	1320.615	1158.229
-17.706	37.097	1319.242	1157.012
-16.692	37.140	1317.909	1156.051
-15.677	37.025	1317.185	1154.689
-14.663	37.070	1316.111	1153.969
-13.648	37.126	1314.564	1152.897
-12.633	37.048	1313.644	1151.583
-11.619	36.956	1313.457	1150.828
-10.604	37.005	1312.452	1150.190
-9.590	36.984	1311.300	1149.010
-8.575	37.097	1310.130	1148.610
-7.560	37.011	1309.329	1147.354
-6.546	37.077	1308.382	1146.870
-5.531	37.064	1307.452	1145.929
-4.517	37.100	1306.558	1145.311
-3.502	37.049	1305.749	1144.259
-2.487	37.004	1304.735	1143.058
-1.473	37.064	1300.221	1139.411
-0.458	35.300	1284.385	1115.238
0.556	28.588	1263.503	1067.596
1.571	24.006	1267.169	1043.793
2.586	22.899	1282.012	1049.349
3.600	22.167	1271.407	1036.264
4.615	15.887	1195.777	939.600
5.629	5.158	1113.954	819.178
6.644	-0.015	1090.811	775.455
7.659	-0.380	1087.807	771.373
8.673	-0.402	1086.295	770.122
9.688	-0.493	1085.154	768.777
10.702	-0.214	1083.601	769.038
11.717	5.779	1092.804	806.391
12.731	14.787	1106.243	862.953
13.746	17.643	1108.009	879.008
14.761	16.803	1106.546	873.440
15.775	16.592	1105.907	871.772
16.790	16.176	1104.740	868.630
17.804	16.135	1104.289	867.991
18.819	16.092	1103.802	867.311
19.834	16.229	1103.163	867.437
20.848	16.127	1102.283	866.142
21.863	16.007	1101.757	865.034
22.877	16.027	1100.849	864.351
23.892	16.018	1100.399	863.876
24.907	16.156	1099.610	863.883
25.921	16.091	1098.573	862.662
26.936	16.100	1097.347	861.666
27.950	16.153	1095.208	860.182
28.965	15.981	1093.437	857.840
29.980	16.030	1091.225	856.279
30.994	16.254	1090.613	856.859
32.009	16.156	1089.163	855.147
33.023	16.024	1087.653	853.215
34.038	16.073	1087.122	852.973
35.053	16.145	1086.011	852.392
36.067	16.219	1085.211	852.058
37.082	16.228	1084.352	851.358
38.096	16.376	1083.154	851.088
39.111	16.330	1082.607	850.349
40.126	16.252	1081.107	848.705
41.140	16.151	1078.898	846.388
42.155	16.050	1077.402	844.634
43.169	15.975	1076.620	843.570
44.184	15.991	1075.389	842.607
45.199	15.904	1074.053	841.052
46.213	15.912	1072.944	840.150
47.228	15.885	1071.969	839.181
48.242	15.877	1070.598	837.993
49.257	16.012	1069.138	837.444
50.271	15.927	1069.142	836.953
51.286	16.086	1067.166	836.119
52.301	16.200	1066.378	835.991
53.315	16.114	1065.541	834.838
54.330	16.043	1064.337	833.468
55.344	16.077	1063.913	833.232
56.359	16.122	1062.456	832.239
57.374	15.935	1061.399	830.415
58.388	16.043	1060.780	830.389
59.403	16.016	1059.521	829.198
60.417	15.875	1058.919	827.958
61.432	15.963	1058.134	827.704
62.447	16.127	1057.170	827.682
63.461	16.045	1056.502	826.683
64.476	16.041	1055.847	826.080
65.490	15.988	1054.752	824.888
66.505	15.900	1054.154	823.918
67.520	15.953	1053.345	823.472
68.534	15.963	1051.803	822.244
69.549	15.800	1050.867	820.644
70.563	15.742	1050.114	819.702
71.578	15.850	1048.833	819.154
72.593	15.684	1048.309	817.865
73.607	15.853	1047.807	818.221
74.622	16.042	1047.181	818.579
75.636	15.954	1046.502	817.549
76.651	15.850	1045.404	816.115
77.666	15.853	1044.527	815.370
78.680	15.761	1043.944	814.398
79.695	15.961	1043.461	814.919
80.709	15.929	1042.579	814.002
81.724	15.915	1041.377	812.926
82.739	16.075	1040.484	812.929
83.753	16.101	1040.058	812.649
84.768	16.239	1039.191	812.562
85.782	16.252	1037.609	811.316
86.797	16.166	1036.722	810.138
87.812	16.071	1035.341	808.533
88.826	16.109	1034.619	808.078
89.841	16.269	1033.222	807.682
90.855	16.259	1032.171	806.743
91.870	16.083	1031.561	805.352
92.884	16.148	1030.437	804.715
93.899	16.058	1029.435	803.430
94.914	16.232	1028.580	803.518
95.928	16.133	1027.638	802.243
96.943	16.078	1026.126	800.731
97.957	15.756	1024.957	798.219
98.972	15.644	1023.453	796.446
99.987	15.674	1023.464	796.528
101.001	16.013	1022.456	797.276
102.016	15.934	1021.449	796.049
103.030	15.985	1020.380	795.386
104.045	15.720	1019.031	793.013
105.060	15.737	1017.702	791.991
106.074	15.909	1017.460	792.541
107.089	16.282	1017.110	793.952
108.103	16.236	1015.427	792.355
109.118	15.983	1014.740	790.559
110.133	16.133	1013.748	790.419
111.147	16.054	1012.037	788.644
112.162	15.816	1011.375	786.946
113.176	15.994	1010.985	787.408
114.191	16.010	1009.502	786.256
115.206	15.760	1008.231	784.032
116.220	15.783	1007.829	783.758
117.235	16.021	1006.233	783.551
118.249	15.830	1005.673	782.159
119.264	15.941	1004.573	781.751
120.279	15.975	1004.184	781.537
121.293	15.936	1003.325	780.620
122.308	16.074	1002.341	780.424
123.322	16.007	1001.174	779.137
124.337	15.877	999.495	777.158
125.352	15.636	997.517	774.441
126.366	15.326	996.728	772.332
127.381	16.050	995.854	774.917
128.395	16.120	995.576	774.955
129.410	16.304	994.493	774.889
130.424	16.186	993.927	773.837
131.439	16.183	992.426	772.586
132.454	16.074	991.646	771.411
133.468	16.209	990.445	771.026
134.483	16.367	989.313	770.799
135.497	16.532	988.594	770.920
136.512	16.470	987.567	769.770
137.527	16.396	987.066	768.975
138.541	16.324	986.490	768.130
139.556	16.247	985.531	766.968
140.570	16.405	984.398	766.735
141.585	16.343	983.216	765.466
142.600	16.289	982.288	764.429
143.614	16.489	981.283	764.485
144.629	16.512	980.952	764.261
145.643	16.555	979.371	763.156
146.658	16.287	978.307	761.053
147.673	16.470	977.090	760.863
148.687	16.235	976.523	759.299
149.702	16.246	975.364	758.376
150.716	16.227	974.422	757.493
151.731	16.373	973.834	757.623
152.746	16.502	973.424	757.814
153.760	16.474	972.564	756.952
154.775	16.518	971.973	756.623
155.789	16.398	971.035	755.292
156.804	16.421	970.121	754.616
157.819	16.531	968.874	754.069
158.833	16.512	968.281	753.454
159.848	16.459	967.184	752.300
160.862	16.304	966.210	750.785
161.877	16.497	965.405	750.950
162.892	16.603	964.212	750.426
163.906	16.579	963.350	749.585
164.921	16.504	962.728	748.702
165.935	16.644	960.865	747.804
166.950	16.436	960.144	746.260
167.964	16.583	959.320	746.202
168.979	16.422	958.329	744.655
169.994	16.493	956.966	743.843
171.008	16.573	956.472	743.743
172.023	16.512	955.464	742.628
173.037	16.178	954.222	740.133
174.052	16.072	953.828	739.296
175.067	16.251	953.131	739.474
176.081	16.422	952.696	739.820
177.096	16.361	952.089	739.015
178.110	16.238	950.846	737.447
179.125	16.208	949.952	736.559
180.140	16.189	949.687	736.204
181.154	16.171	949.323	735.778
182.169	16.443	948.200	736.030
183.183	16.497	948.190	736.192
184.198	16.375	947.376	734.962
185.213	16.507	946.085	734.468
186.227	16.540	945.859	734.373
187.242	16.449	944.839	733.121
188.256	16.675	943.711	733.161
189.271	16.667	943.120	732.601
190.286	16.390	942.439	730.808
191.300	15.957	940.990	727.751
192.315	15.421	939.892	724.525
193.329	15.479	939.322	724.271
194.344	16.030	939.948	727.066
195.359	16.312	939.133	727.586
196.373	16.326	938.596	727.167
197.388	16.179	937.595	725.696
198.402	16.210	936.787	725.138
199.417	16.113	935.981	724.035
200.432	16.018	934.812	722.657
201.446	15.598	934.301	720.397
202.461	15.862	933.616	720.939
203.475	15.311	931.937	717.220
204.490	14.725	930.827	713.800
205.504	15.626	931.034	717.746
206.519	16.114	930.363	719.248
207.534	16.211	929.843	719.195
208.548	16.550	929.862	720.590
209.563	16.228	928.879	718.394
210.577	16.294	928.098	718.008
211.592	16.512	927.442	718.363
212.607	16.370	926.484	716.953
213.621	16.469	926.009	716.941
214.636	16.557	925.260	716.671
215.650	16.521	924.128	715.582
216.665	16.606	923.680	715.529
217.680	16.538	922.594	714.336
218.694	16.089	921.788	711.754
219.709	16.085	920.856	710.956
220.723	16.524	920.243	712.270
221.738	16.650	919.435	712.109
222.753	16.473	918.713	710.745
223.767	16.577	918.466	710.926
224.782	16.653	918.057	710.865
225.796	16.574	917.378	709.947
226.811	16.267	915.814	707.389
227.826	15.822	914.598	704.523
228.840	15.909	914.090	704.433
229.855	15.918	913.369	703.854
230.869	15.707	912.158	701.976
231.884	16.027	912.014	703.140
232.899	16.481	912.070	705.013
233.913	16.606	911.068	704.698
234.928	16.710	910.722	704.800
235.942	16.733	909.537	703.918
236.957	16.353	908.720	701.644
237.972	16.548	908.032	701.860
238.986	16.531	907.562	701.366
240.001	16.436	907.060	700.520
241.015	16.546	906.334	700.354
242.030	16.561	905.927	700.039
243.045	16.680	905.357	700.029
244.059	16.756	904.655	699.737
245.074	16.613	903.499	698.193
246.088	16.259	902.386	695.809
247.103	16.395	901.714	695.793
248.117	16.838	901.557	697.432
249.132	16.763	900.937	696.581
250.147	16.746	900.242	695.915
251.161	16.975	899.411	696.148
252.176	16.993	898.452	695.422
253.190	16.973	897.892	694.843
254.205	17.249	897.557	695.654
255.220	17.140	897.120	694.805
256.234	17.184	895.899	693.976
257.249	17.013	895.156	692.645
258.263	17.143	894.218	692.388
259.278	17.317	893.553	692.517
260.293	17.203	892.826	691.430
261.307	17.078	891.858	690.113
262.322	16.896	891.331	688.902
263.336	16.101	889.675	684.337
264.351	15.364	887.342	679.499
265.366	15.493	887.420	680.020
266.380	16.447	887.664	684.010
267.395	16.844	887.570	685.480
268.409	16.781	886.679	684.477
269.424	16.937	886.391	684.824
270.439	16.946	885.605	684.194
271.453	17.161	884.987	684.524
272.468	17.249	884.745	684.628
273.482	17.191	883.935	683.710
274.497	16.951	882.599	681.652
275.512	16.713	881.626	679.885
276.526	17.075	881.225	680.968
277.541	17.074	880.978	680.710
278.555	16.653	880.009	678.215
279.570	16.554	878.868	676.881
280.585	16.891	878.414	677.817
281.599	16.889	877.664	677.171
282.614	16.649	876.423	675.197
283.628	16.656	875.737	674.637
284.643	16.912	875.350	675.300
285.657	16.513	874.372	672.896
286.672	16.104	873.695	670.691
287.687	16.633	873.357	672.475
288.701	16.769	872.922	672.620
289.716	16.507	871.809	670.663
290.730	16.498	871.158	670.069
291.745	16.294	869.853	668.198
292.760	16.498	869.906	668.988
293.774	17.132	869.939	671.459
294.789	17.577	869.319	672.680
295.803	17.617	869.092	672.600
296.818	17.635	868.595	672.229
297.833	17.232	867.403	669.660
298.847	17.204	866.433	668.740
299.862	17.419	866.247	669.383
300.876	17.492	865.563	669.082
301.891	17.454	864.515	668.066
302.906	16.930	863.553	665.207
303.920	17.107	863.262	665.617
304.935	17.322	862.965	666.174
305.949	17.408	862.184	665.846
306.964	17.336	861.447	664.939
307.979	17.460	861.335	665.277
308.993	17.727	860.696	665.769
310.008	17.625	860.049	664.812
311.022	17.414	859.304	663.354
312.037	17.448	858.750	663.000
313.052	17.352	857.848	661.870
314.066	16.693	856.518	658.225
315.081	16.425	855.669	656.473
316.095	17.098	855.510	658.907
317.110	17.364	855.667	660.001
318.125	16.886	854.516	657.201
319.139	16.169	853.203	653.357
320.154	16.299	852.802	653.496
321.168	16.708	852.991	655.165
322.183	17.320	852.271	656.922
323.197	17.444	852.174	657.265
324.212	17.571	852.043	657.599
325.227	17.710	851.148	657.386
326.241	17.569	850.289	656.119
327.256	17.359	850.409	655.345
328.270	17.499	849.377	655.032
329.285	17.375	848.206	653.595
330.300	17.276	847.932	652.942
331.314	17.305	847.247	652.472
332.329	17.532	847.021	653.109
333.343	17.677	846.073	652.877
334.358	17.654	845.967	652.649
335.373	17.711	845.513	652.457
336.387	17.867	845.368	652.885
337.402	18.003	845.007	653.070
338.416	17.769	844.420	651.662
339.431	17.689	844.078	651.035
340.446	17.770	843.292	650.680
341.460	17.748	842.895	650.235
342.475	17.498	842.749	649.111
343.489	17.711	841.788	649.124
344.504	17.841	841.746	649.528
345.519	17.843	841.531	649.313
346.533	18.096	841.227	649.983
347.548	18.260	840.474	649.966
348.562	18.187	839.676	649.017
349.577	18.180	839.123	648.505
350.592	18.179	838.227	647.750
351.606	18.058	837.818	646.917
352.621	18.179	836.887	646.600
353.635	17.933	836.467	645.291
354.650	17.444	835.201	642.410
355.665	16.962	833.782	639.445
356.679	17.103	833.189	639.464
357.694	17.446	832.917	640.490
358.708	17.476	832.305	640.075
359.723	17.733	832.261	640.952
360.738	18.056	831.779	641.738
361.752	18.067	831.533	641.531
362.767	18.076	830.897	641.017
363.781	18.396	830.214	641.634
364.796	18.517	829.621	641.569
365.810	18.551	829.013	641.169
366.825	18.375	828.975	640.427
367.840	18.197	828.207	639.110
368.854	17.952	827.129	637.310
369.869	17.903	827.208	637.130
370.883	17.949	826.692	636.850
371.898	17.843	825.737	635.660
372.913	17.875	825.530	635.564
373.927	17.995	825.455	635.897
374.942	18.097	825.175	636.005
375.956	18.189	824.672	635.904
376.971	18.198	824.098	635.440
377.986	18.478	823.418	635.898
379.000	18.397	822.808	635.071
380.015	18.380	821.599	634.018
381.029	18.358	821.424	633.745
382.044	18.432	820.919	633.572
383.059	18.343	820.548	632.901
384.073	18.395	820.351	632.885
385.088	18.531	819.702	632.830
386.102	18.342	819.193	631.684
387.117	18.408	818.219	631.122
388.132	18.191	817.441	629.667
389.146	17.925	815.913	627.458
390.161	17.833	816.450	627.475
391.175	18.130	815.665	627.908
392.190	18.002	814.885	626.782
393.205	17.154	813.383	622.464
394.219	16.210	812.428	618.219
395.234	16.259	812.094	618.091
396.248	17.223	813.024	622.275
397.263	18.294	813.611	626.594
398.278	18.424	813.225	626.714
399.292	18.217	812.638	625.451
400.307	18.324	812.161	625.420
401.321	18.385	811.488	625.071
402.336	18.472	811.477	625.323
403.350	18.758	810.845	625.824
404.365	18.790	810.171	625.364
405.380	19.053	809.787	625.968
406.394	19.035	809.403	625.550
407.409	18.947	808.698	624.633
408.423	18.829	808.375	623.900
409.438	18.989	808.154	624.254
410.453	19.020	807.571	623.861
411.467	18.945	807.378	623.384
412.482	18.983	806.762	622.991
413.496	19.081	806.585	623.154
414.511	19.021	806.310	622.670
415.526	19.072	805.557	622.215
416.540	18.865	804.726	620.771
417.555	18.540	804.330	619.239
418.569	18.747	803.726	619.467
419.584	18.774	803.248	619.138
420.599	18.530	802.641	617.737
421.613	151.893	1358.975	1783.518
422.628	131.845	1440.042	1783.629
