DTS Sentinel unit serial number:	SN413079Multiplexer serial number:	ORYXHardware model number:	OX4-SRSoftware version number:	ORYX F/W v4.00 Oryx Data Collector v3.7.2.0data status	okinstallation	princeton_trtdifferential loss correction	single-endedforward channel	channel 1reverse channel	N/Adate	2019/09/11time	01:24:11forward acquisition time	60.00reverse acquisition time	0.00gamma	496.2192k internal	0.2331k external	0.2331temperature offset calibration	0.9930default loss term (dB/km)	0.3790temperature slope calibration	1.0000multiplexer offset coefficient	1.0000multiplexer slope coefficient	1.0000fibre end	0.00T internal ref (°C)	29.12T ext. ref 1 (°C)	-0.30T ext. ref 2 (°C)	23.29length (m)	temperature (°C)	Stokes	anti-Stokes-747.200	103.508	0.159	-0.188
-746.185	-200.000	-0.006	0.431
-745.171	-43.986	0.133	-0.067
-744.156	-42.476	0.108	0.055
-743.142	-53.469	-0.054	0.025
-742.127	800.000	0.057	-0.227
-741.112	-120.103	-0.352	-0.061
-740.098	144.057	0.258	0.347
-739.083	-39.954	0.049	-0.026
-738.069	-100.131	0.176	-0.044
-737.054	-200.000	-0.012	-0.249
-736.039	61.128	0.072	-0.072
-735.025	119.999	0.141	-0.176
-734.010	-114.735	0.308	-0.059
-732.996	800.000	-0.079	-0.339
-731.981	-111.052	0.443	-0.091
-730.966	800.000	0.102	0.316
-729.952	55.322	-0.094	-0.091
-728.937	2.319	-0.165	0.120
-727.923	280.860	-0.124	-0.223
-726.908	-98.251	-0.143	0.037
-725.894	-200.000	-0.048	-0.405
-724.879	328.467	-0.137	-0.264
-723.864	-200.000	0.006	0.181
-722.850	218.125	-0.068	0.109
-721.835	322.898	-0.157	-0.300
-720.821	-200.000	0.012	-0.293
-719.806	-86.407	0.350	-0.108
-718.791	-200.000	-0.056	-0.627
-717.777	200.425	0.118	-0.183
-716.762	16.628	-0.125	0.099
-715.748	-87.005	0.134	-0.041
-714.733	-92.913	0.053	-0.015
-713.718	-149.534	0.066	-0.005
-712.704	-143.827	-0.190	0.018
-711.689	800.000	-0.066	-0.284
-710.675	-112.895	-0.132	0.026
-709.660	-0.025	0.129	-0.093
-708.645	-200.000	-0.005	0.054
-707.631	-200.000	-0.054	-0.331
-706.616	86.555	0.313	-0.347
-705.602	-13.507	0.170	0.111
-704.587	-200.000	0.003	0.042
-703.572	-42.156	0.259	0.133
-702.558	-16.041	-0.224	0.143
-701.543	-126.718	-0.246	0.037
-700.529	-83.382	-0.092	-0.029
-699.514	-200.000	0.050	-0.365
-698.499	55.945	0.117	0.114
-697.485	-200.000	-0.033	-0.210
-696.470	-42.682	0.284	-0.145
-695.456	-127.773	-0.134	-0.019
-694.441	250.687	-0.148	-0.253
-693.426	800.000	0.055	-0.170
-692.412	166.863	0.131	-0.187
-691.397	-78.527	-0.083	-0.028
-690.383	-200.000	0.000	-0.065
-689.368	718.542	0.186	-0.496
-688.354	444.024	0.047	0.104
-687.339	180.367	-0.167	0.245
-686.324	486.087	0.074	0.170
-685.310	331.037	-0.150	-0.290
-684.295	800.000	0.055	-0.200
-683.281	130.071	0.279	-0.358
-682.266	25.107	0.185	0.154
-681.251	800.000	-0.059	-0.242
-680.237	131.167	-0.169	0.218
-679.222	336.800	0.243	-0.473
-678.208	85.910	0.193	0.214
-677.193	70.648	-0.187	0.194
-676.178	-98.547	0.255	0.065
-675.164	92.006	-0.121	-0.137
-674.149	11.593	0.316	-0.243
-673.135	-111.847	0.327	0.066
-672.120	221.924	-0.115	0.185
-671.105	252.859	-0.068	0.116
-670.091	-0.200	-0.224	-0.160
-669.076	-86.602	-0.061	0.019
-668.062	105.850	0.107	0.127
-667.047	-200.000	-0.009	0.124
-666.032	37.795	-0.162	-0.145
-665.018	800.000	0.020	0.075
-664.003	-110.094	0.152	-0.032
-662.989	252.469	0.184	-0.315
-661.974	800.000	-0.026	0.075
-660.959	157.880	-0.101	0.140
-659.945	-23.087	0.234	-0.141
-658.930	-92.492	0.138	-0.039
-657.916	22.251	0.137	0.113
-656.901	-15.873	-0.249	-0.159
-655.886	233.147	0.154	-0.253
-654.872	93.199	0.091	-0.104
-653.857	-42.173	0.148	0.076
-652.843	-118.393	-0.057	-0.010
-651.828	237.292	-0.078	0.129
-650.814	110.167	0.159	-0.192
-649.799	338.468	0.080	0.155
-648.784	124.896	0.154	-0.194
-647.770	-105.269	-0.184	-0.042
-646.755	-44.671	0.105	0.053
-645.741	168.082	0.082	-0.117
-644.726	38.330	0.352	-0.314
-643.711	-165.444	-0.056	-0.002
-642.697	-190.481	0.099	-0.001
-641.682	-137.722	-0.246	-0.028
-640.668	48.300	0.284	-0.266
-639.653	-136.950	-0.394	-0.045
-638.638	-83.083	0.090	0.029
-637.624	519.364	0.100	-0.235
-636.609	-63.809	-0.160	-0.066
-635.595	402.583	-0.099	-0.208
-634.580	-74.921	-0.150	-0.054
-633.565	128.677	-0.158	0.202
-632.551	-200.000	-0.005	-0.274
-631.536	81.407	-0.145	-0.157
-630.522	86.841	-0.139	0.154
-629.507	-115.491	0.456	-0.086
-628.492	-41.337	0.118	-0.061
-627.478	219.065	-0.044	0.070
-626.463	-73.180	-0.034	0.012
-625.449	-10.354	-0.144	-0.096
-624.434	-24.110	-0.281	0.168
-623.419	-53.964	0.215	0.098
-622.405	-200.000	0.021	-0.144
-621.390	-200.000	-0.001	-0.216
-620.376	111.569	-0.249	0.300
-619.361	583.242	0.171	0.421
-618.346	-200.000	0.045	0.225
-617.332	-112.566	-0.084	0.017
-616.317	-200.000	-0.042	-0.201
-615.303	-3.003	-0.114	0.080
-614.288	-137.314	0.226	-0.026
-613.273	-88.081	-0.204	0.061
-612.259	247.323	-0.174	0.295
-611.244	-200.000	0.038	0.320
-610.230	128.967	0.065	-0.083
-609.215	800.000	0.042	0.123
-608.201	20.299	0.214	-0.173
-607.186	-97.841	0.152	-0.039
-606.171	-149.789	-0.172	-0.014
-605.157	13.516	-0.175	0.136
-604.142	-60.575	-0.258	0.109
-603.128	384.292	-0.219	0.451
-602.113	73.878	0.230	-0.241
-601.098	729.016	-0.073	0.195
-600.084	-134.395	-0.128	0.016
-599.069	800.000	-0.159	0.502
-598.055	800.000	0.100	0.356
-597.040	105.491	0.098	-0.115
-596.025	137.196	0.155	0.202
-595.011	10.550	-0.107	-0.082
-593.996	-44.130	0.271	0.136
-592.982	3.681	0.034	0.025
-591.967	42.653	0.071	0.065
-590.952	46.956	0.183	-0.170
-589.938	467.220	-0.148	-0.332
-588.923	-93.312	-0.138	-0.038
-587.909	4.482	0.362	-0.266
-586.894	-200.000	0.058	-0.370
-585.879	505.540	0.038	0.088
-584.865	-75.339	0.080	0.029
-583.850	337.241	-0.083	-0.161
-582.836	-170.171	-0.103	-0.004
-581.821	-31.142	0.285	0.161
-580.806	485.112	-0.067	-0.152
-579.792	-114.132	-0.162	-0.031
-578.777	114.061	-0.025	-0.030
-577.763	251.128	-0.131	-0.224
-576.748	800.000	0.100	-0.421
-575.733	80.089	0.176	0.190
-574.719	48.835	-0.062	-0.058
-573.704	-111.775	0.259	-0.052
-572.690	-200.000	0.053	0.408
-571.675	-82.601	-0.162	-0.052
-570.661	-45.526	0.114	-0.057
-569.646	-200.000	0.006	0.065
-568.631	800.000	0.050	0.169
-567.617	13.606	0.192	0.149
-566.602	-87.109	-0.318	-0.097
-565.588	79.711	-0.176	0.189
-564.573	-77.655	-0.296	-0.102
-563.558	107.433	-0.094	0.112
-562.544	-86.754	0.219	-0.067
-561.529	-43.415	-0.352	0.178
-560.515	-200.000	-0.005	0.153
-559.500	-63.928	0.117	0.048
-558.485	-200.000	0.048	-0.321
-557.471	-200.000	-0.015	-0.183
-556.456	-200.000	-0.082	0.372
-555.442	-38.334	-0.270	0.143
-554.427	123.122	0.152	-0.190
-553.412	51.131	-0.038	0.036
-552.398	-200.000	-0.039	-0.439
-551.383	223.869	-0.060	0.098
-550.369	15.391	0.037	0.029
-549.354	-117.033	0.135	0.025
-548.339	-179.373	0.348	-0.008
-547.325	118.238	0.041	-0.051
-546.310	-61.761	0.119	-0.050
-545.296	-103.003	-0.110	0.026
-544.281	340.423	-0.221	-0.430
-543.266	-42.220	-0.038	0.020
-542.252	229.200	-0.147	-0.239
-541.237	166.222	0.225	0.318
-540.223	371.934	-0.032	-0.065
-539.208	-200.000	0.019	-0.118
-538.193	489.109	0.097	-0.221
-537.179	83.277	0.119	-0.129
-536.164	800.000	-0.013	0.055
-535.150	-200.000	-0.000	-0.081
-534.135	66.774	0.074	-0.075
-533.121	-7.655	-0.217	-0.146
-532.106	-187.531	-0.319	-0.004
-531.091	-21.043	0.033	-0.020
-530.077	-88.486	-0.130	0.039
-529.062	-95.451	0.251	-0.067
-528.048	-200.000	0.034	0.352
-527.033	-200.000	-0.005	0.046
-526.018	-66.894	-0.224	-0.088
-525.004	-77.590	-0.133	0.046
-523.989	-42.093	0.308	0.157
-522.975	-181.866	0.431	-0.008
-521.960	94.451	0.135	-0.153
-520.945	205.789	-0.088	0.137
-519.931	-21.953	-0.224	0.136
-518.916	-50.276	0.254	0.120
-517.902	228.086	-0.043	-0.070
-516.887	-37.548	-0.105	-0.056
-515.872	-80.233	0.088	0.029
-514.858	-122.038	-0.296	-0.048
-513.843	26.332	-0.322	-0.268
-512.829	-23.921	0.381	0.227
-511.814	431.340	0.054	0.116
-510.799	85.721	-0.180	0.197
-509.785	154.635	0.072	0.098
-508.770	-111.081	0.135	-0.028
-507.756	577.861	-0.119	0.291
-506.741	-92.934	-0.166	0.046
-505.726	55.153	0.237	-0.229
-504.712	139.603	-0.124	-0.163
-503.697	-200.000	-0.030	-0.162
-502.683	92.019	-0.178	0.200
-501.668	175.723	0.202	0.292
-500.653	-195.237	-0.163	-0.001
-499.639	93.293	0.116	0.131
-498.624	-200.000	0.017	-0.239
-497.610	304.962	-0.113	0.209
-496.595	267.222	0.231	0.402
-495.581	800.000	0.047	0.174
-494.566	175.091	0.073	0.105
-493.551	71.225	0.216	-0.224
-492.537	-123.674	0.293	0.046
-491.522	-142.602	0.098	0.010
-490.508	-96.740	0.298	-0.078
-489.493	-94.315	-0.418	-0.114
-488.478	41.844	0.239	-0.216
-487.464	-91.608	-0.092	0.026
-486.449	695.078	0.107	-0.279
-485.435	-105.008	-0.076	0.017
-484.420	-200.000	0.032	0.222
-483.405	545.349	-0.118	-0.281
-482.391	800.000	0.066	-0.251
-481.376	-49.754	0.161	-0.076
-480.362	-42.591	0.079	-0.040
-479.347	-200.000	-0.077	-0.492
-478.332	443.174	0.053	0.116
-477.318	-109.447	-0.439	-0.092
-476.303	800.000	0.084	0.250
-475.289	-200.000	0.019	0.139
-474.274	155.587	-0.156	-0.213
-473.259	-84.197	-0.218	-0.069
-472.245	800.000	-0.085	0.359
-471.230	13.580	0.189	0.146
-470.216	-150.975	0.089	-0.007
-469.201	800.000	0.074	-0.230
-468.186	90.912	-0.123	0.138
-467.172	95.404	0.182	-0.206
-466.157	-117.543	-0.211	0.038
-465.143	-103.814	-0.100	0.023
-464.128	23.998	0.072	0.059
-463.113	-171.964	-0.241	-0.008
-462.099	-175.596	0.398	-0.011
-461.084	800.000	0.174	0.499
-460.070	-110.034	-0.086	-0.018
-459.055	-114.746	0.295	-0.056
-458.040	-161.377	-0.462	-0.024
-457.026	-2.398	-0.138	-0.096
-456.011	-0.688	-0.056	-0.040
-454.997	-172.829	0.189	-0.006
-453.982	-200.000	0.004	0.389
-452.968	16.308	-0.042	0.033
-451.953	-16.446	0.232	0.146
-450.938	800.000	-0.018	-0.073
-449.924	-105.329	0.247	-0.056
-448.909	324.295	-0.039	0.074
-447.895	98.756	-0.111	0.127
-446.880	-19.005	0.263	0.163
-445.865	243.728	0.101	-0.168
-444.851	-42.470	0.162	-0.082
-443.836	-129.032	-0.071	-0.010
-442.822	-32.073	0.077	-0.043
-441.807	127.810	0.180	-0.228
-440.792	109.624	-0.160	0.190
-439.778	223.989	-0.023	0.037
-438.763	-80.370	-0.402	-0.133
-437.749	185.886	0.040	-0.059
-436.734	55.773	-0.118	-0.114
-435.719	-32.625	0.262	-0.145
-434.705	-11.432	0.067	0.044
-433.690	-199.207	0.146	-0.001
-432.676	800.000	-0.026	-0.109
-431.661	17.082	0.106	-0.084
-430.646	-200.000	-0.036	0.163
-429.632	-200.000	-0.032	0.261
-428.617	289.332	-0.111	-0.200
-427.603	-200.000	0.041	0.232
-426.588	174.149	0.126	0.180
-425.573	98.081	-0.140	-0.160
-424.559	-102.425	0.123	-0.029
-423.544	-121.084	-0.039	-0.006
-422.530	14.374	-0.053	0.041
-421.515	-200.000	-0.012	0.063
-420.500	266.715	0.149	0.258
-419.486	-2.388	-0.240	-0.167
-418.471	-58.357	0.359	-0.155
-417.457	568.645	0.141	-0.340
-416.442	800.000	0.083	-0.254
-415.428	-60.213	-0.223	-0.094
-414.413	-200.000	0.122	0.000
-413.398	-131.159	-0.411	0.054
-412.384	590.696	-0.084	0.206
-411.369	800.000	0.037	-0.135
-410.355	800.000	0.145	-0.425
-409.340	521.427	0.064	0.150
-408.325	306.036	-0.111	0.206
-407.311	128.341	-0.176	-0.222
-406.296	-63.148	0.302	-0.124
-405.282	86.367	-0.041	-0.045
-404.267	441.833	0.047	0.103
-403.252	-200.000	0.016	-0.161
-402.238	-33.646	0.288	0.158
-401.223	-45.889	0.061	0.030
-400.209	800.000	0.084	0.248
-399.194	-105.305	-0.215	-0.049
-398.179	0.656	-0.114	0.081
-397.165	64.938	0.248	0.249
-396.150	-148.814	0.064	-0.005
-395.136	50.152	-0.264	0.248
-394.121	77.743	0.077	0.081
-393.106	-200.000	0.021	-0.205
-392.092	-200.000	-0.011	0.088
-391.077	-76.177	0.078	0.027
-390.063	-200.000	0.054	0.258
-389.048	8.955	0.009	-0.007
-388.033	32.573	0.125	0.107
-387.019	-39.744	-0.135	0.070
-386.004	600.467	-0.077	-0.191
-384.990	240.138	0.076	0.126
-383.975	-200.000	-0.023	-0.139
-382.960	-85.764	-0.261	0.080
-381.946	-138.413	0.380	-0.042
-380.931	-32.085	-0.149	-0.083
-379.917	130.310	-0.235	0.298
-378.902	-129.363	0.229	0.032
-377.888	786.884	0.100	-0.272
-376.873	657.094	-0.103	-0.263
-375.858	-54.444	-0.368	-0.166
-374.844	800.000	-0.058	0.177
-373.829	-62.119	-0.108	0.045
-372.815	-200.000	-0.012	0.076
-371.800	30.415	0.203	-0.172
-370.785	-200.000	0.005	0.134
-369.771	-109.971	0.287	-0.060
-368.756	-143.155	0.229	-0.022
-367.742	313.802	0.117	0.218
-366.727	-132.538	-0.341	0.043
-365.712	477.586	0.061	0.137
-364.698	-87.906	-0.110	0.033
-363.683	176.221	-0.027	0.039
-362.669	643.255	0.051	-0.128
-361.654	-110.313	-0.170	0.035
-360.639	133.132	-0.240	-0.308
-359.625	-200.000	-0.040	-0.185
-358.610	465.990	0.113	-0.250
-357.596	800.000	-0.098	-0.275
-356.581	47.935	-0.053	0.049
-355.566	160.433	0.121	0.167
-354.552	-37.964	-0.227	-0.119
-353.537	-109.821	0.282	-0.059
-352.523	44.995	0.341	-0.312
-351.508	800.000	-0.066	-0.219
-350.493	97.113	-0.073	-0.083
-349.479	242.661	0.137	0.227
-348.464	86.536	-0.209	0.228
-347.450	-87.401	0.165	-0.049
-346.435	176.421	-0.125	-0.180
-345.420	-23.852	0.213	-0.126
-344.406	-52.550	0.032	-0.015
-343.391	-117.059	0.422	0.076
-342.377	-200.000	-0.033	-0.271
-341.362	-38.899	0.137	0.071
-340.348	800.000	-0.058	-0.232
-339.333	-134.476	-0.112	-0.014
-338.318	79.013	-0.206	-0.218
-337.304	343.891	-0.041	0.081
-336.289	624.912	-0.054	0.136
-335.275	-41.729	0.163	-0.083
-334.260	-115.277	0.183	0.034
-333.245	-200.000	-0.007	-0.468
-332.231	-200.000	-0.034	-0.201
-331.216	-169.443	-0.133	0.005
-330.202	675.548	-0.032	0.083
-329.187	-52.425	0.120	-0.055
-328.172	266.318	0.150	-0.259
-327.158	-200.000	-0.018	0.111
-326.143	-96.253	-0.200	0.052
-325.129	-6.467	0.159	0.107
-324.114	42.717	0.288	0.260
-323.099	370.130	0.059	0.118
-322.085	240.923	-0.020	-0.033
-321.070	-166.937	0.144	0.006
-320.056	-200.000	-0.036	0.316
-319.041	800.000	0.075	0.260
-318.026	-87.414	-0.414	0.124
-317.012	686.897	0.121	-0.314
-315.997	442.676	-0.055	0.119
-314.983	457.885	-0.119	0.262
-313.968	-137.690	-0.135	0.015
-312.953	19.036	0.031	-0.025
-311.939	26.857	-0.265	-0.219
-310.924	458.292	-0.106	0.233
-309.910	185.868	0.254	0.374
-308.895	-33.716	0.075	0.041
-307.880	5.326	-0.264	-0.193
-306.866	800.000	0.009	-0.031
-305.851	-37.469	-0.328	-0.173
-304.837	-174.889	-0.195	-0.005
-303.822	-200.000	0.012	0.199
-302.807	-147.776	-0.042	0.003
-301.793	680.253	-0.121	0.313
-300.778	-54.321	-0.280	0.126
-299.764	-200.000	-0.002	0.101
-298.749	-200.000	0.020	-0.131
-297.735	-189.819	-0.201	-0.002
-296.720	8.458	-0.208	0.155
-295.705	60.998	-0.056	-0.055
-294.691	-168.806	0.301	-0.011
-293.676	272.731	0.183	0.320
-292.662	-200.000	0.007	0.243
-291.647	128.719	0.100	-0.126
-290.632	-122.977	-0.208	0.033
-289.618	775.036	-0.049	0.132
-288.603	-156.868	0.177	-0.011
-287.589	-25.287	-0.363	0.212
-286.574	-127.098	-0.227	0.033
-285.559	-87.948	0.416	-0.124
-284.545	-92.888	-0.128	-0.035
-283.530	42.009	-0.153	0.138
-282.516	729.654	0.058	0.152
-281.501	-200.000	-0.009	-0.096
-280.486	-16.874	-0.200	-0.125
-279.472	-140.575	0.258	-0.026
-278.457	244.767	-0.065	0.107
-277.443	-200.000	-0.051	-0.284
-276.428	555.532	-0.076	0.181
-275.413	-200.000	-0.015	-0.253
-274.399	800.000	-0.061	-0.231
-273.384	-59.967	0.128	-0.054
-272.370	572.952	-0.005	-0.013
-271.355	-38.998	0.327	0.170
-270.340	-158.954	0.102	-0.006
-269.326	-53.717	0.228	-0.103
-268.311	-46.734	-0.124	0.060
-267.297	-63.202	0.056	-0.023
-266.282	-29.445	-0.062	0.035
-265.267	265.243	-0.045	-0.078
-264.253	519.606	-0.188	-0.434
-263.238	-200.000	-0.014	-0.268
-262.224	800.000	-0.065	-0.249
-261.209	-41.517	0.093	0.047
-260.195	95.228	0.205	0.231
-259.180	476.736	0.044	0.099
-258.165	800.000	-0.061	-0.182
-257.151	456.598	-0.099	0.216
-256.136	-44.009	0.376	-0.186
-255.122	282.943	0.060	0.107
-254.107	231.466	0.123	-0.199
-253.092	-82.552	-0.224	-0.072
-252.078	-200.000	0.002	-0.215
-251.063	4.484	0.052	-0.038
-250.049	-200.000	0.059	0.306
-249.034	65.885	-0.098	0.098
-248.019	70.298	0.112	0.114
-247.005	-96.759	0.072	0.019
-245.990	366.542	0.062	0.123
-244.976	800.000	-0.040	0.159
-243.961	617.618	-0.159	0.393
-242.946	53.990	-0.259	0.246
-241.932	694.918	0.066	0.171
-240.917	143.038	-0.145	0.191
-239.903	-128.726	0.322	0.045
-238.888	135.431	-0.119	-0.153
-237.873	800.000	0.113	-0.485
-236.859	58.503	-0.178	-0.172
-235.844	800.000	0.009	0.030
-234.830	26.856	-0.122	-0.101
-233.815	153.648	0.148	-0.200
-232.800	-36.617	0.244	-0.129
-231.786	128.915	0.207	0.261
-230.771	800.000	-0.148	0.521
-229.757	-11.260	-0.139	0.090
-228.742	-46.060	-0.164	-0.080
-227.727	800.000	-0.063	-0.230
-226.713	-15.385	-0.131	-0.082
-225.698	129.522	0.172	0.217
-224.684	234.367	-0.183	-0.297
-223.669	-134.079	-0.339	-0.041
-222.655	-36.108	0.435	-0.232
-221.640	-146.406	-0.270	-0.023
-220.625	684.082	-0.061	-0.158
-219.611	414.906	-0.152	-0.320
-218.596	-3.635	-0.136	-0.093
-217.582	20.629	-0.275	-0.219
-216.567	229.898	0.062	0.100
-215.552	12.549	-0.095	0.072
-214.538	-100.105	-0.332	-0.082
-213.523	430.832	-0.031	-0.066
-212.509	31.233	0.075	0.064
-211.494	76.171	-0.168	0.176
-210.479	246.378	0.085	-0.142
-209.465	-95.551	0.216	0.057
-208.450	6.041	-0.166	-0.121
-207.436	628.389	-0.013	-0.032
-206.421	148.115	0.236	0.314
-205.406	3.279	0.181	-0.130
-204.392	-10.084	0.185	0.121
-203.377	-200.000	0.013	0.121
-202.363	-3.527	0.204	0.140
-201.348	-153.935	-0.304	-0.020
-200.333	692.668	0.123	0.317
-199.319	-40.913	-0.114	0.058
-198.304	-129.564	0.161	-0.022
-197.290	-2.129	0.345	-0.238
-196.275	-200.000	-0.005	0.161
-195.260	53.452	-0.074	-0.070
-194.246	-61.318	-0.173	-0.072
-193.231	-25.755	-0.408	-0.237
-192.217	-98.582	0.263	0.066
-191.202	87.907	0.320	0.350
-190.187	-12.543	0.300	-0.193
-189.173	3.086	0.146	-0.105
-188.158	-173.780	-0.483	-0.014
-187.144	44.277	-0.188	-0.170
-186.129	-9.003	-0.053	-0.035
-185.114	-200.000	-0.010	0.182
-184.100	38.954	0.095	0.084
-183.085	388.152	-0.112	0.228
-182.071	526.611	-0.052	0.121
-181.056	-101.221	0.260	-0.062
-180.042	150.686	0.088	0.117
-179.027	142.405	0.199	0.261
-178.012	359.371	-0.114	-0.224
-176.998	262.343	-0.113	-0.193
-175.983	-85.860	0.129	-0.039
-174.969	800.000	0.071	0.230
-173.954	-58.033	0.233	-0.100
-172.939	-70.958	0.097	0.036
-171.925	-200.000	0.006	0.083
-170.910	5.094	-0.091	0.066
-169.896	-59.511	-0.220	-0.093
-168.881	127.990	-0.225	0.281
-167.866	269.997	-0.079	-0.136
-166.852	-140.716	0.033	-0.003
-165.837	-69.514	0.331	-0.125
-164.823	800.000	-0.092	-0.261
-163.808	-200.000	0.023	-0.163
-162.793	-131.169	-0.262	-0.034
-161.779	105.916	-0.022	0.026
-160.764	17.577	-0.272	0.213
-159.750	-81.468	0.264	0.086
-158.735	-93.793	0.251	-0.068
-157.720	-101.377	-0.293	-0.070
-156.706	-32.449	-0.082	-0.045
-155.691	130.240	-0.011	0.013
-154.677	222.956	-0.126	0.200
-153.662	-64.488	0.280	0.112
-152.647	154.402	-0.117	0.158
-151.633	37.439	-0.145	-0.126
-150.618	-31.662	-0.073	-0.040
-149.604	-103.588	-0.261	-0.060
-148.589	582.417	0.091	0.218
-147.574	162.093	-0.061	-0.084
-146.560	-188.606	-0.177	0.002
-145.545	-27.397	0.278	-0.159
-144.531	-200.000	-0.022	0.099
-143.516	800.000	0.078	-0.240
-142.502	165.149	0.045	-0.063
-141.487	-135.617	0.056	-0.007
-140.472	-109.178	-0.337	-0.070
-139.458	118.717	0.047	-0.057
-138.443	-200.000	-0.038	-0.178
-137.429	-120.484	-0.259	0.043
-136.414	84.042	0.066	0.071
-135.399	800.000	-0.005	-0.015
-134.385	-21.541	-0.046	-0.027
-133.370	-68.761	-0.300	0.114
-132.356	800.000	-0.058	-0.212
-131.341	-200.000	0.048	0.210
-130.326	-30.395	-0.175	-0.098
-129.312	-111.001	-0.128	0.026
-128.297	-48.852	-0.186	0.088
-127.283	-40.490	0.396	-0.202
-126.268	517.965	0.180	0.414
-125.253	256.942	0.241	0.407
-124.239	90.138	0.066	0.073
-123.224	-44.009	-0.285	0.141
-122.210	-200.000	-0.002	0.259
-121.195	29.053	0.210	-0.175
-120.180	527.209	0.006	0.013
-119.166	250.016	0.117	0.194
-118.151	-200.000	-0.026	0.131
-117.137	-161.734	0.145	0.007
-116.122	83.617	-0.097	0.104
-115.107	794.245	-0.055	-0.149
-114.093	106.007	0.172	0.200
-113.078	-200.000	-0.006	0.071
-112.064	-132.059	0.487	0.062
-111.049	-199.085	-0.286	-0.002
-110.034	194.701	0.146	0.217
-109.020	-73.043	-0.131	0.047
-108.005	-101.803	-0.247	0.059
-106.991	238.533	-0.032	-0.051
-105.976	-1.442	-0.228	0.158
-104.962	-31.792	0.242	0.133
-103.947	79.938	0.094	0.100
-102.932	-69.466	-0.143	0.054
-101.918	-83.769	-0.165	0.052
-100.903	-177.858	0.228	-0.005
-99.889	630.457	0.031	-0.077
-98.874	800.000	0.096	0.340
-97.859	259.758	-0.046	0.078
-96.845	400.350	-0.043	-0.088
-95.830	10.730	-0.134	0.100
-94.816	118.129	0.078	-0.095
-93.801	800.000	-0.108	-0.323
-92.786	-92.905	-0.343	-0.094
-91.772	-200.000	0.036	0.255
-90.757	-165.936	0.192	-0.008
-89.743	-35.664	0.076	-0.040
-88.728	-200.000	0.004	-0.022
-87.713	-16.019	-0.136	0.085
-86.699	-24.056	0.213	-0.125
-85.684	-53.166	0.255	-0.115
-84.670	188.910	-0.083	-0.122
-83.655	800.000	-0.064	-0.179
-82.640	-200.000	-0.023	-0.139
-81.626	17.736	0.233	0.182
-80.611	-132.231	-0.167	0.021
-79.597	-24.266	-0.122	-0.071
-78.582	111.742	-0.223	-0.263
-77.567	-94.790	0.171	-0.046
-76.553	244.508	0.231	0.380
-75.538	568.626	0.066	-0.157
-74.524	521.501	-0.106	0.245
-73.509	800.000	-0.064	0.196
-72.494	-42.085	0.179	-0.090
-71.480	86.777	0.052	0.057
-70.465	-90.943	0.236	0.067
-69.451	20.389	0.108	-0.085
-68.436	800.000	-0.049	-0.199
-67.422	-193.533	0.272	0.002
-66.407	315.321	-0.092	0.169
-65.392	-100.456	0.130	0.032
-64.378	-189.261	0.195	-0.002
-63.363	800.000	-0.037	0.122
-62.349	163.406	0.178	0.245
-61.334	124.435	-0.787	-0.970
-60.319	26.736	0.603	0.495
-59.305	306.836	-0.505	-0.921
-58.290	119.547	0.853	1.035
-57.276	521.017	0.520	1.195
-56.261	-200.000	107.108	627.210
-55.246	523.007	1515.385	3487.509
-54.232	176.179	2703.659	3845.851
-53.217	112.011	2161.491	2557.838
-52.203	41.151	1599.722	1415.798
-51.188	32.739	1336.729	1132.731
-50.173	29.491	1296.089	1079.298
-49.159	53.718	1351.202	1270.536
-48.144	53.801	1366.204	1285.088
-47.130	32.601	1320.661	1118.121
-46.115	29.235	1302.792	1083.202
-45.100	29.020	1298.306	1078.167
-44.086	29.054	1295.102	1075.663
-43.071	28.979	1293.464	1073.824
-42.057	28.878	1290.970	1071.122
-41.042	29.074	1289.456	1070.966
-40.027	29.123	1287.678	1069.731
-39.013	29.115	1285.495	1067.828
-37.998	29.055	1284.220	1066.377
-36.984	29.157	1282.002	1065.084
-35.969	29.119	1280.008	1063.164
-34.954	29.116	1278.665	1061.992
-33.940	29.039	1277.596	1060.616
-32.925	29.105	1276.122	1059.732
-31.911	29.224	1274.595	1059.107
-30.896	29.233	1273.311	1058.047
-29.881	29.182	1271.904	1056.545
-28.867	29.341	1270.129	1055.937
-27.852	29.233	1268.970	1054.316
-26.838	29.182	1267.475	1052.739
-25.823	29.194	1266.353	1051.836
-24.809	29.226	1264.858	1050.734
-23.794	29.092	1264.012	1049.223
-22.779	29.163	1262.447	1048.288
-21.765	29.242	1261.308	1047.749
-20.750	29.186	1260.019	1046.322
-19.736	29.124	1258.471	1044.639
-18.721	29.118	1257.424	1043.694
-17.706	29.149	1256.181	1042.798
-16.692	29.159	1255.118	1041.930
-15.677	29.185	1253.923	1041.043
-14.663	29.163	1252.868	1040.005
-13.648	29.039	1252.041	1038.574
-12.633	29.015	1250.848	1037.411
-11.619	28.999	1250.294	1036.821
-10.604	29.088	1249.241	1036.406
-9.590	29.185	1248.006	1035.887
-8.575	29.074	1247.662	1034.933
-7.560	28.982	1246.943	1033.778
-6.546	29.044	1245.895	1033.217
-5.531	28.956	1244.970	1031.914
-4.517	28.968	1244.162	1031.272
-3.502	29.070	1243.194	1031.001
-2.487	29.033	1242.673	1030.319
-1.473	29.030	1238.131	1026.496
-0.458	27.610	1223.535	1006.521
0.556	22.059	1206.710	970.629
1.571	18.687	1212.329	956.309
2.586	18.043	1226.717	963.940
3.600	17.846	1216.499	954.720
4.615	12.944	1145.385	872.947
5.629	4.236	1070.476	772.555
6.644	-0.015	1050.682	737.383
7.659	-0.405	1048.535	733.901
8.673	-0.345	1047.651	733.510
9.688	-0.434	1045.955	731.827
10.702	-0.099	1044.391	732.297
11.717	5.618	1052.251	765.757
12.731	14.614	1064.946	819.276
13.746	19.276	1070.792	846.657
14.761	20.177	1072.195	852.119
15.775	20.165	1071.484	851.420
16.790	20.005	1070.270	849.599
17.804	19.862	1070.057	848.650
18.819	19.992	1069.512	848.782
19.834	20.177	1068.788	849.039
20.848	20.125	1068.327	848.340
21.863	20.125	1067.854	847.892
22.877	20.084	1067.122	847.032
23.892	19.866	1066.918	845.732
24.907	20.107	1066.396	846.421
25.921	20.090	1064.340	844.631
26.936	20.085	1063.608	843.949
27.950	20.043	1061.556	842.044
28.965	19.899	1059.920	839.972
29.980	19.912	1058.424	838.777
30.994	20.201	1057.168	839.106
32.009	20.130	1056.300	837.999
33.023	19.895	1055.042	835.792
34.038	19.958	1054.571	835.648
35.053	20.044	1053.746	835.338
36.067	20.176	1052.398	834.828
37.082	20.273	1051.790	834.738
38.096	20.284	1051.353	834.372
39.111	20.403	1050.547	834.230
40.126	20.180	1049.227	832.038
41.140	19.868	1047.258	828.909
42.155	19.690	1045.942	826.941
43.169	19.747	1044.865	826.291
44.184	19.843	1043.651	825.716
45.199	19.579	1043.352	824.145
46.213	19.714	1041.721	823.426
47.228	19.937	1040.972	823.824
48.242	19.971	1039.756	822.952
49.257	20.031	1039.356	822.844
50.271	20.069	1038.252	822.078
51.286	20.179	1037.437	821.881
52.301	20.241	1036.170	821.101
53.315	20.149	1035.772	820.276
54.330	20.078	1034.556	818.904
55.344	20.128	1033.697	818.388
56.359	19.989	1033.051	817.148
57.374	19.832	1031.641	815.223
58.388	19.978	1031.001	815.331
59.403	19.734	1030.241	813.511
60.417	19.763	1029.209	812.761
61.432	19.823	1028.416	812.342
62.447	20.017	1028.184	812.998
63.461	19.955	1027.285	811.924
64.476	19.888	1026.292	810.757
65.490	19.839	1025.438	809.778
66.505	19.868	1024.585	809.167
67.520	20.040	1023.650	809.165
68.534	19.722	1023.146	807.210
69.549	19.457	1021.426	804.543
70.563	19.388	1020.975	803.797
71.578	19.542	1020.132	803.780
72.593	19.250	1019.102	801.539
73.607	19.492	1018.777	802.335
74.622	19.778	1018.373	803.279
75.636	19.874	1017.692	803.112
76.651	19.585	1016.819	801.013
77.666	19.588	1015.605	800.000
78.680	19.745	1014.966	800.151
79.695	19.651	1014.574	799.339
80.709	19.841	1013.895	799.610
81.724	19.732	1012.989	798.320
82.739	19.708	1012.146	797.477
83.753	20.057	1011.894	798.816
84.768	20.330	1010.717	799.072
85.782	20.380	1009.856	798.553
86.797	19.996	1009.220	796.216
87.812	20.119	1007.863	795.636
88.826	20.288	1006.752	795.463
89.841	20.333	1006.037	795.036
90.855	20.392	1005.259	794.620
91.870	20.255	1004.136	793.038
92.884	20.170	1003.042	791.715
93.899	20.204	1002.020	790.994
94.914	20.276	1001.300	790.684
95.928	20.049	1000.219	788.725
96.943	19.853	998.914	786.737
97.957	19.612	997.924	784.790
98.972	19.498	996.403	783.010
99.987	19.807	995.945	783.982
101.001	20.129	994.817	784.482
102.016	19.981	994.341	783.367
103.030	19.892	993.452	782.195
104.045	19.722	992.365	780.500
105.060	19.723	990.938	779.316
106.074	19.771	990.525	779.136
107.089	20.276	990.077	780.989
108.103	19.967	988.917	778.615
109.118	19.856	987.675	777.070
110.133	19.897	986.893	776.572
111.147	19.802	985.297	774.820
112.162	19.594	984.155	772.922
113.176	19.784	983.876	773.484
114.191	19.843	982.573	772.656
115.206	19.527	981.646	770.446
116.220	19.505	980.985	769.762
117.235	19.619	980.082	769.493
118.249	19.586	979.393	768.739
119.264	19.492	978.509	767.560
120.279	19.622	977.559	767.323
121.293	19.634	976.813	766.725
122.308	19.622	975.714	765.741
123.322	19.708	974.694	765.253
124.337	19.497	973.124	763.018
125.352	18.964	971.847	759.598
126.366	18.900	971.030	758.609
127.381	19.768	970.592	762.027
128.395	20.071	970.069	762.881
129.410	20.228	969.158	762.788
130.424	20.045	968.390	761.314
131.439	20.164	966.981	760.662
132.454	20.050	966.305	759.563
133.468	20.036	965.189	758.555
134.483	20.117	964.565	758.351
135.497	20.411	963.743	758.925
136.512	20.285	963.157	757.843
137.527	20.369	962.152	757.354
138.541	20.451	961.215	756.906
139.556	20.289	960.827	755.829
140.570	20.285	959.969	755.068
141.585	20.369	958.921	754.542
142.600	20.258	957.820	753.128
143.614	20.388	957.787	753.602
144.629	20.524	956.498	753.107
145.643	20.543	955.040	751.977
146.658	20.360	953.408	749.834
147.673	20.258	952.897	748.925
148.687	20.160	951.830	747.600
149.702	20.104	950.801	746.482
150.716	19.969	950.462	745.569
151.731	20.177	949.199	745.406
152.746	20.312	948.722	745.545
153.760	20.455	947.959	745.493
154.775	20.390	947.623	744.887
155.789	20.374	946.261	743.680
156.804	20.368	945.515	743.005
157.819	20.362	944.816	742.361
158.833	20.618	943.608	742.439
159.848	20.570	943.094	741.764
160.862	20.355	941.919	739.860
161.877	20.486	940.931	739.575
162.892	20.521	940.006	738.931
163.906	20.550	938.923	738.137
164.921	20.390	938.223	736.845
165.935	20.518	937.248	736.556
166.950	20.467	936.452	735.650
167.964	20.429	935.478	734.660
168.979	20.330	934.424	733.345
169.994	20.278	933.677	732.475
171.008	20.498	933.171	732.943
172.023	20.526	931.853	731.963
173.037	20.294	930.528	729.881
174.052	20.175	929.974	728.879
175.067	20.300	929.430	728.913
176.081	20.443	928.962	729.085
177.096	20.335	928.403	728.127
178.110	19.971	927.270	725.649
179.125	19.793	926.305	724.084
180.140	19.922	926.098	724.400
181.154	20.055	925.936	724.764
182.169	20.371	925.223	725.461
183.183	20.555	925.097	726.065
184.198	20.406	924.115	724.610
185.213	20.284	923.063	723.215
186.227	20.486	922.886	723.851
187.242	20.449	921.719	722.717
188.256	20.467	921.144	722.281
189.271	20.554	920.444	722.029
190.286	20.218	919.555	719.874
191.300	19.798	917.712	716.628
192.315	19.041	916.254	712.290
193.329	18.966	916.204	711.878
194.344	19.824	916.441	715.552
195.359	20.269	916.322	717.235
196.373	20.476	915.716	717.553
197.388	20.232	915.192	716.072
198.402	20.247	914.400	715.450
199.417	20.388	913.313	715.117
200.432	20.074	912.547	713.162
201.446	19.880	912.078	711.932
202.461	19.981	911.123	711.541
203.475	19.021	909.436	706.222
204.490	18.366	908.176	702.494
205.504	19.333	908.417	706.583
206.519	20.044	908.306	709.348
207.534	20.106	908.070	709.352
208.548	20.479	907.637	710.477
209.563	20.202	906.721	708.568
210.577	20.225	906.241	708.223
211.592	20.565	905.691	709.117
212.607	20.308	905.215	707.636
213.621	20.366	904.541	707.279
214.636	20.581	903.567	707.333
215.650	20.479	902.534	706.045
216.665	20.581	902.015	705.992
217.680	20.471	901.160	704.816
218.694	20.101	899.670	702.087
219.709	19.899	899.690	701.222
220.723	20.350	898.933	702.398
221.738	20.419	898.372	702.175
222.753	20.370	897.849	701.505
223.767	20.460	897.202	701.302
224.782	20.808	896.682	702.237
225.796	20.568	896.445	701.022
226.811	19.916	895.155	697.325
227.826	19.401	893.573	693.961
228.840	19.592	893.048	694.259
229.855	19.672	892.559	694.138
230.869	19.298	891.415	691.684
231.884	19.840	891.210	693.640
232.899	20.413	891.844	696.371
233.913	20.361	890.379	694.955
234.928	20.279	890.264	694.475
235.942	20.239	889.227	693.446
236.957	20.134	888.189	692.157
237.972	20.096	887.782	691.625
238.986	20.166	887.129	691.337
240.001	20.071	887.090	690.867
241.015	20.123	886.553	690.592
242.030	20.227	885.537	690.155
243.045	20.467	884.937	690.580
244.059	20.577	884.716	690.783
245.074	20.304	883.758	688.890
246.088	19.949	882.945	686.788
247.103	20.229	882.387	687.404
248.117	20.762	882.269	689.361
249.132	20.964	882.001	689.889
250.147	21.065	881.581	689.898
251.161	21.179	880.761	689.646
252.176	21.314	879.620	689.226
253.190	21.265	879.529	688.900
254.205	21.247	879.323	688.608
255.220	21.158	878.552	687.592
256.234	21.043	877.786	686.480
257.249	21.062	876.592	685.558
258.263	21.171	875.683	685.217
259.278	21.239	875.056	684.930
260.293	21.280	874.758	684.797
261.307	21.007	873.933	683.022
262.322	20.963	872.950	682.020
263.336	20.197	870.573	677.116
264.351	19.088	869.191	671.655
265.366	19.256	869.042	672.135
266.380	20.380	870.039	677.233
267.395	20.746	869.378	678.083
268.409	20.736	868.665	677.430
269.424	20.945	868.012	677.674
270.439	20.982	867.355	677.242
271.453	21.154	866.511	677.192
272.468	21.274	866.612	677.676
273.482	21.411	865.704	677.437
274.497	20.813	864.769	674.331
275.512	20.522	863.996	672.545
276.526	21.008	863.986	674.355
277.541	21.089	863.395	674.148
278.555	20.887	862.231	672.401
279.570	20.634	861.571	670.850
280.585	20.946	860.972	671.527
281.599	20.717	860.421	670.155
282.614	20.229	859.201	667.268
283.628	20.365	858.640	667.297
284.643	20.601	858.322	667.899
285.657	20.355	856.975	665.845
286.672	19.952	856.518	663.888
287.687	20.660	856.268	666.350
288.701	20.603	855.746	665.663
289.716	20.386	854.278	663.633
290.730	20.372	853.515	662.931
291.745	19.981	853.490	661.360
292.760	20.293	853.368	662.398
293.774	21.412	853.568	666.762
294.789	21.447	853.234	666.576
295.803	21.662	852.389	666.675
296.818	21.638	851.600	665.909
297.833	21.273	850.459	663.572
298.847	21.042	850.020	662.292
299.862	21.420	849.971	663.632
300.876	21.579	849.481	663.793
301.891	21.547	848.741	663.033
302.906	20.991	847.594	659.976
303.920	21.165	847.314	660.359
304.935	21.434	847.204	661.232
305.949	21.545	846.160	660.775
306.964	21.280	845.397	659.124
307.979	21.458	845.082	659.489
308.993	21.590	845.147	659.980
310.008	21.745	844.182	659.751
311.022	21.258	843.670	657.460
312.037	21.250	843.113	656.940
313.052	21.102	841.760	655.268
314.066	20.275	840.307	650.978
315.081	19.908	840.346	649.575
316.095	20.750	840.331	652.663
317.110	21.101	839.996	653.660
318.125	20.541	838.423	650.285
319.139	19.560	837.055	645.502
320.154	19.570	836.877	645.343
321.168	20.407	837.354	648.783
322.183	20.925	837.034	650.412
323.197	21.066	837.023	650.872
324.212	21.322	836.271	651.184
325.227	21.344	835.727	650.783
326.241	21.276	835.319	650.154
327.256	21.357	834.459	649.728
328.270	21.012	833.943	647.990
329.285	20.988	832.660	646.847
330.300	20.659	832.460	645.414
331.314	21.064	832.064	646.550
332.329	21.445	831.817	647.711
333.343	21.443	831.356	647.289
334.358	21.417	831.001	646.858
335.373	21.618	830.588	647.221
336.387	21.860	830.381	647.896
337.402	21.867	830.585	648.026
338.416	21.760	829.881	647.025
339.431	21.867	829.652	647.183
340.446	22.201	828.671	647.589
341.460	21.841	828.671	646.208
342.475	21.667	828.180	645.126
343.489	21.672	827.764	644.766
344.504	22.026	827.454	645.767
345.519	22.134	826.989	645.746
346.533	22.057	826.607	645.104
347.548	22.347	825.775	645.466
348.562	22.242	825.383	644.716
349.577	22.209	824.928	644.181
350.592	22.188	824.164	643.450
351.606	22.101	823.531	642.584
352.621	22.037	822.421	641.426
353.635	21.958	821.619	640.456
354.650	21.302	820.050	636.786
355.665	20.376	818.784	632.374
356.679	20.913	818.585	634.121
357.694	21.212	818.036	634.726
358.708	21.140	817.564	634.041
359.723	21.519	817.322	635.173
360.738	21.807	817.045	635.949
361.752	21.963	816.630	636.132
362.767	22.311	816.201	637.002
363.781	22.360	815.792	636.805
364.796	22.523	815.579	637.171
365.810	22.614	815.154	637.113
366.825	22.366	814.796	635.880
367.840	22.135	813.939	634.323
368.854	21.835	813.086	632.517
369.869	21.843	812.828	632.289
370.883	22.059	812.044	632.403
371.898	21.859	811.520	631.221
372.913	21.921	811.445	631.328
373.927	22.020	811.353	631.556
374.942	22.287	810.758	631.995
375.956	22.286	810.440	631.689
376.971	22.343	810.049	631.533
377.986	22.460	809.526	631.490
379.000	22.522	808.664	630.982
380.015	22.395	808.232	630.134
381.029	22.434	807.712	629.812
382.044	22.415	807.486	629.515
383.059	22.458	806.801	629.079
384.073	22.423	806.268	628.481
385.088	22.489	805.529	628.085
386.102	22.298	805.022	626.953
387.117	22.212	804.366	626.082
388.132	21.870	803.372	624.037
389.146	21.425	802.258	621.534
390.161	21.822	801.870	622.590
391.175	22.216	802.106	624.115
392.190	21.846	801.155	622.010
393.205	20.698	798.609	615.918
394.219	19.213	797.450	609.717
395.234	19.339	797.064	609.812
396.248	20.987	798.890	616.991
397.263	22.220	799.808	622.009
398.278	22.112	798.906	620.875
399.292	21.938	798.577	619.947
400.307	21.985	797.619	619.315
401.321	21.906	797.422	618.830
402.336	22.412	797.215	620.398
403.350	22.888	796.987	621.839
404.365	23.015	796.824	622.105
405.380	23.157	796.620	622.389
406.394	23.272	795.894	622.174
407.409	22.989	795.774	621.031
408.423	23.041	795.598	621.019
409.438	23.105	795.033	620.748
410.453	23.202	794.586	620.686
411.467	23.147	793.653	619.710
412.482	23.202	793.337	619.600
413.496	23.322	792.824	619.563
414.511	23.092	792.819	618.701
415.526	23.224	792.012	618.475
416.540	23.055	791.456	617.398
417.555	22.883	790.762	616.202
418.569	22.926	790.415	616.028
419.584	22.980	789.621	615.540
420.599	22.819	788.932	614.390
421.613	158.348	1364.818	1799.451
422.628	137.107	1448.723	1799.512
