DTS Sentinel unit serial number:	SN413079Multiplexer serial number:	ORYXHardware model number:	OX4-SRSoftware version number:	ORYX F/W v4.00 Oryx Data Collector v3.7.2.0data status	okinstallation	princeton_trtdifferential loss correction	single-endedforward channel	channel 1reverse channel	N/Adate	2019/09/11time	11:56:11forward acquisition time	60.00reverse acquisition time	0.00gamma	496.2192k internal	0.2291k external	0.2291temperature offset calibration	0.9943default loss term (dB/km)	0.3790temperature slope calibration	1.0000multiplexer offset coefficient	1.0000multiplexer slope coefficient	1.0000fibre end	0.00T internal ref (°C)	39.08T ext. ref 1 (°C)	0.20T ext. ref 2 (°C)	37.33length (m)	temperature (°C)	Stokes	anti-Stokes-747.200	-20.181	0.195	-0.123
-746.185	-161.874	-0.304	-0.016
-745.171	-172.998	-0.408	-0.013
-744.156	-200.000	0.040	0.182
-743.142	40.742	-0.258	0.238
-742.127	-200.000	-0.019	0.358
-741.112	85.805	-0.058	-0.065
-740.098	-200.000	-0.053	0.247
-739.083	-115.978	0.272	-0.052
-738.069	-91.169	0.562	0.165
-737.054	34.606	0.081	-0.073
-736.039	-75.455	-0.362	0.132
-735.025	-200.000	-0.043	0.296
-734.010	-200.000	0.000	-0.036
-732.996	13.543	0.131	-0.104
-731.981	24.426	-0.404	0.342
-730.966	7.360	0.152	-0.117
-729.952	-200.000	0.004	0.161
-728.937	528.481	0.174	-0.420
-727.923	22.673	-0.065	0.054
-726.908	-200.000	0.022	-0.134
-725.894	673.526	-0.047	-0.124
-724.879	337.149	0.044	-0.087
-723.864	282.773	-0.168	0.308
-722.850	222.682	-0.043	-0.071
-721.835	-164.719	-0.160	0.007
-720.821	-21.826	-0.120	0.075
-719.806	-200.000	-0.024	0.257
-718.791	-200.000	0.006	0.060
-717.777	-11.572	-0.053	-0.036
-716.762	-138.261	-0.277	0.031
-715.748	-121.109	0.248	0.043
-714.733	-200.000	0.043	0.218
-713.718	15.853	0.133	-0.107
-712.704	800.000	-0.008	0.029
-711.689	147.448	-0.049	-0.067
-710.675	136.092	0.228	-0.304
-709.660	-19.271	0.188	0.119
-708.645	-99.191	-0.195	-0.050
-707.631	-200.000	0.003	-0.195
-706.616	-54.673	0.257	-0.119
-705.602	74.605	-0.144	-0.154
-704.587	-200.000	0.002	-0.069
-703.572	800.000	-0.054	-0.163
-702.558	48.330	0.040	0.039
-701.543	-200.000	-0.023	-0.369
-700.529	40.752	0.206	-0.190
-699.514	68.222	0.194	0.203
-698.499	-147.164	-0.618	-0.054
-697.485	361.043	-0.130	0.265
-696.470	13.269	0.077	-0.061
-695.456	-200.000	-0.031	-0.156
-694.441	-151.457	-0.299	0.023
-693.426	-200.000	0.079	-0.379
-692.412	-200.000	-0.052	-0.249
-691.397	710.900	-0.097	0.263
-690.383	8.318	0.227	-0.174
-689.368	-157.151	-0.381	-0.024
-688.354	-89.771	-0.187	-0.056
-687.339	-148.808	0.137	-0.011
-686.324	168.608	0.072	0.105
-685.310	-200.000	-0.056	-0.275
-684.295	105.548	-0.145	0.174
-683.281	-85.516	0.137	-0.043
-682.266	-4.191	0.165	0.117
-681.251	417.327	-0.067	-0.147
-680.237	166.153	-0.160	0.231
-679.222	510.280	0.046	-0.110
-678.208	-112.823	0.405	-0.082
-677.193	120.077	-0.065	0.082
-676.178	454.193	0.105	-0.238
-675.164	-45.174	-0.247	0.125
-674.149	5.078	-0.401	-0.302
-673.135	-116.772	0.164	-0.031
-672.120	-131.955	0.137	0.018
-671.105	167.577	-0.195	-0.283
-670.091	-171.613	-0.176	-0.006
-669.076	203.421	-0.262	-0.414
-668.062	18.227	0.099	-0.081
-667.047	161.403	0.124	0.177
-666.032	-72.464	0.221	-0.083
-665.018	-17.665	-0.259	0.166
-664.003	-88.422	-0.167	-0.051
-662.989	37.913	0.112	-0.102
-661.974	-159.233	0.427	-0.024
-660.959	-39.560	-0.199	-0.106
-659.945	-67.393	0.237	0.095
-658.930	371.738	-0.067	-0.139
-657.916	-30.625	0.161	0.093
-656.901	154.116	0.130	0.182
-655.886	22.016	-0.104	-0.086
-654.872	800.000	0.127	0.392
-653.857	-165.504	-0.207	0.009
-652.843	-81.888	0.315	-0.105
-651.828	-200.000	-0.053	-0.312
-650.814	-200.000	-0.007	-0.120
-649.799	21.281	-0.049	0.040
-648.784	-200.000	-0.023	0.119
-647.770	-81.771	0.112	0.037
-646.755	-200.000	0.009	0.226
-645.741	51.914	-0.089	-0.086
-644.726	-87.947	0.134	-0.041
-643.711	272.318	0.111	0.199
-642.697	800.000	-0.051	-0.204
-641.682	265.775	-0.038	-0.068
-640.668	252.187	-0.100	-0.175
-639.653	40.702	-0.126	-0.116
-638.638	-87.935	0.399	0.122
-637.624	49.715	0.082	-0.079
-636.609	402.410	-0.095	0.204
-635.595	-179.776	0.311	0.007
-634.580	-103.778	-0.082	-0.020
-633.565	800.000	0.035	-0.124
-632.551	-80.429	0.283	-0.096
-631.536	-78.346	0.209	0.073
-630.522	-200.000	0.028	-0.220
-629.507	-200.000	0.012	0.170
-628.492	-57.374	0.200	0.089
-627.478	-115.516	-0.109	0.021
-626.463	-200.000	-0.039	-0.212
-625.449	-73.918	-0.318	-0.118
-624.434	-191.193	0.222	0.002
-623.419	-200.000	-0.005	0.054
-622.405	-200.000	-0.020	0.149
-621.390	30.940	0.022	0.019
-620.376	-92.362	0.411	-0.118
-619.361	-118.823	0.127	-0.023
-618.346	-200.000	-0.048	-0.327
-617.332	78.141	0.149	-0.162
-616.317	-8.655	0.306	0.209
-615.303	50.899	0.012	0.011
-614.288	-35.760	0.098	0.054
-613.273	-75.257	0.409	0.149
-612.259	32.147	-0.110	0.096
-611.244	-109.948	-0.326	-0.069
-610.230	-78.040	0.064	-0.022
-609.215	120.702	0.131	-0.166
-608.201	-200.000	0.017	-0.228
-607.186	-172.892	0.310	-0.010
-606.171	121.032	0.060	-0.076
-605.157	-13.633	0.044	-0.029
-604.142	124.342	-0.176	-0.225
-603.128	149.800	0.140	0.194
-602.113	171.010	-0.067	0.097
-601.098	266.010	-0.074	0.131
-600.084	201.931	0.090	0.142
-599.069	-28.606	-0.172	0.101
-598.055	-200.000	-0.019	0.250
-597.040	193.023	-0.099	-0.152
-596.025	61.185	-0.225	-0.228
-595.011	-110.508	0.160	0.034
-593.996	-117.021	0.094	-0.017
-592.982	-34.875	-0.222	0.123
-591.967	-59.908	-0.221	0.096
-590.952	432.022	0.023	-0.050
-589.938	-160.517	-0.255	-0.014
-588.923	800.000	0.015	-0.052
-587.909	-25.462	-0.313	0.188
-586.894	-200.000	0.032	0.184
-585.879	-59.709	-0.133	-0.058
-584.865	-30.013	0.120	0.070
-583.850	-200.000	-0.041	0.329
-582.836	-86.318	-0.167	0.052
-581.821	142.640	-0.038	-0.052
-580.806	47.302	-0.273	-0.258
-579.792	800.000	0.015	-0.045
-578.777	800.000	0.032	-0.117
-577.763	-71.866	0.238	0.090
-576.748	-200.000	0.033	0.252
-575.733	-88.650	-0.317	0.096
-574.719	-107.294	0.162	-0.036
-573.704	228.090	0.063	0.105
-572.690	-50.949	0.066	-0.031
-571.675	-125.954	-0.421	-0.064
-570.661	-200.000	-0.013	-0.068
-569.646	-200.000	-0.016	-0.205
-568.631	-86.743	0.366	0.114
-567.617	-82.630	0.273	0.090
-566.602	-200.000	-0.025	0.181
-565.588	-200.000	0.007	-0.150
-564.573	-200.000	0.044	-0.251
-563.558	-127.483	0.209	-0.031
-562.544	-200.000	0.017	0.260
-561.529	85.437	0.005	0.006
-560.515	-67.231	0.309	-0.124
-559.500	-186.562	0.219	-0.003
-558.485	-200.000	0.007	0.155
-557.471	-149.971	-0.062	-0.005
-556.456	-161.075	0.240	-0.013
-555.442	340.897	0.066	-0.131
-554.427	645.074	-0.106	-0.276
-553.412	-160.745	0.106	-0.006
-552.398	-200.000	-0.038	-0.348
-551.383	293.693	-0.069	-0.129
-550.369	-200.000	0.059	-0.346
-549.354	-150.246	0.203	-0.016
-548.339	-37.891	-0.267	-0.144
-547.325	313.444	0.047	0.090
-546.310	488.525	-0.058	-0.134
-545.296	200.136	0.059	-0.093
-544.281	-20.112	-0.268	0.168
-543.266	800.000	-0.010	0.039
-542.252	800.000	0.080	-0.224
-541.237	-200.000	0.025	-0.301
-540.223	465.265	-0.115	0.260
-539.208	222.612	0.092	0.151
-538.193	-56.084	0.050	0.022
-537.179	-136.417	-0.310	0.037
-536.164	-87.101	0.244	0.075
-535.150	153.481	-0.211	-0.293
-534.135	-67.915	-0.048	-0.019
-533.121	-135.026	0.117	-0.014
-532.106	41.560	-0.094	-0.087
-531.091	800.000	0.047	-0.198
-530.077	224.167	0.103	0.168
-529.062	161.078	-0.112	-0.159
-528.048	9.657	-0.200	0.154
-527.033	-159.422	-0.266	-0.015
-526.018	-175.557	0.102	-0.003
-525.004	-14.857	-0.191	0.124
-523.989	-200.000	-0.090	0.460
-522.975	-200.000	0.039	0.338
-521.960	-76.508	-0.146	-0.052
-520.945	262.407	-0.172	-0.303
-519.931	12.399	-0.296	0.231
-518.916	684.148	-0.117	0.310
-517.902	-79.922	0.098	-0.034
-516.887	-62.709	-0.506	-0.213
-515.872	293.992	0.137	-0.255
-514.858	439.041	-0.132	0.292
-513.843	-117.847	0.436	-0.079
-512.829	800.000	-0.036	0.137
-511.814	23.174	-0.124	0.103
-510.799	58.013	0.210	-0.209
-509.785	-191.447	-0.058	-0.001
-508.770	-61.443	-0.146	-0.062
-507.756	178.271	0.178	-0.264
-506.741	210.068	-0.054	-0.087
-505.726	199.934	0.225	-0.350
-504.712	-107.965	-0.045	0.010
-503.697	-200.000	-0.141	-0.000
-502.683	-95.541	0.236	0.064
-501.668	255.670	0.067	0.116
-500.653	46.552	-0.215	-0.202
-499.639	87.100	0.091	-0.102
-498.624	-27.794	-0.171	0.101
-497.610	-139.070	0.118	0.013
-496.595	800.000	-0.093	-0.352
-495.581	58.964	-0.067	-0.067
-494.566	120.073	0.100	0.126
-493.551	599.305	-0.128	-0.321
-492.537	-200.000	0.066	0.000
-491.522	-139.650	0.157	-0.017
-490.508	800.000	0.176	-0.522
-489.493	-124.691	0.243	-0.038
-488.478	-83.645	-0.232	-0.075
-487.464	-49.393	0.093	0.045
-486.449	15.195	0.092	0.073
-485.435	-128.287	0.470	-0.068
-484.420	-200.000	-0.022	-0.127
-483.405	81.281	0.144	-0.158
-482.391	-14.114	0.163	-0.106
-481.376	800.000	-0.033	-0.096
-480.362	-143.329	0.223	0.022
-479.347	800.000	-0.067	0.244
-478.332	62.305	-0.093	0.094
-477.318	-200.000	0.002	0.253
-476.303	-68.574	0.303	0.119
-475.289	192.912	-0.087	0.133
-474.274	57.181	0.113	0.112
-473.259	-115.285	-0.242	0.046
-472.245	69.033	-0.274	-0.286
-471.230	20.526	-0.142	-0.116
-470.216	22.451	-0.357	0.296
-469.201	367.004	-0.165	0.338
-468.186	-200.000	0.006	-0.044
-467.172	800.000	0.012	0.035
-466.157	-59.861	-0.140	0.061
-465.143	219.129	-0.126	0.204
-464.128	61.696	0.069	-0.070
-463.113	114.256	0.031	-0.039
-462.099	-200.000	0.013	-0.091
-461.084	6.209	-0.189	0.142
-460.070	786.246	-0.086	0.239
-459.055	-18.387	0.054	0.034
-458.040	67.630	-0.187	0.193
-457.026	-200.000	0.006	-0.388
-456.011	588.433	-0.213	-0.532
-454.997	-74.804	0.073	0.026
-453.982	-189.113	0.176	-0.002
-452.968	-56.578	0.281	-0.126
-451.953	-144.311	-0.185	0.017
-450.938	-200.000	0.065	-0.372
-449.924	66.194	0.167	0.172
-448.909	-62.319	0.202	0.085
-447.895	131.446	-0.041	-0.053
-446.880	607.939	0.031	-0.078
-445.865	-200.000	-0.058	-0.342
-444.851	-200.000	-0.007	0.185
-443.836	39.063	-0.122	-0.110
-442.822	800.000	-0.108	-0.302
-441.807	22.438	-0.133	-0.110
-440.792	-15.305	0.208	0.135
-439.778	275.389	-0.116	0.207
-438.763	-122.057	0.122	-0.020
-437.749	-51.534	0.194	0.092
-436.734	37.684	-0.076	-0.068
-435.719	-45.456	-0.223	-0.112
-434.705	-200.000	0.002	0.011
-433.690	-28.036	-0.189	0.110
-432.676	170.426	-0.180	-0.260
-431.661	-122.998	-0.493	0.080
-430.646	800.000	0.042	0.141
-429.632	555.385	0.096	0.233
-428.617	-11.414	0.193	-0.129
-427.603	-48.497	-0.133	-0.064
-426.588	800.000	-0.075	0.224
-425.573	87.834	-0.123	-0.138
-424.559	800.000	-0.009	0.033
-423.544	308.920	0.053	0.099
-422.530	-4.975	-0.321	-0.223
-421.515	-105.359	-0.133	-0.031
-420.500	-200.000	0.018	0.291
-419.486	-156.981	-0.054	0.003
-418.471	-200.000	-0.015	0.104
-417.457	199.976	0.060	0.093
-416.442	-200.000	0.004	0.035
-415.428	-200.000	-0.019	-0.202
-414.413	-17.060	-0.201	0.128
-413.398	-93.192	-0.030	-0.008
-412.384	-134.690	0.025	-0.003
-411.369	-82.692	-0.140	0.046
-410.355	45.280	0.120	-0.112
-409.340	800.000	0.038	0.130
-408.325	26.414	-0.177	-0.150
-407.311	251.624	0.083	-0.143
-406.296	-200.000	-0.069	-0.335
-405.282	-144.309	-0.195	0.018
-404.267	-171.013	0.471	0.016
-403.252	256.449	-0.215	0.373
-402.238	800.000	0.166	-0.466
-401.223	-200.000	-0.046	-0.306
-400.209	-8.117	0.098	0.066
-399.194	-63.454	-0.073	-0.030
-398.179	157.639	-0.096	-0.134
-397.165	-70.130	-0.188	0.072
-396.150	800.000	-0.091	0.294
-395.136	137.599	0.040	-0.054
-394.121	-200.000	-0.030	-0.155
-393.106	-26.221	0.278	-0.165
-392.092	-54.487	-0.035	-0.016
-391.077	-71.189	0.057	0.021
-390.063	11.106	0.113	-0.087
-389.048	354.433	-0.076	-0.152
-388.033	105.281	-0.010	0.012
-387.019	-58.539	0.298	0.131
-386.004	-90.549	0.216	0.063
-384.990	106.847	-0.177	0.213
-383.975	82.022	0.286	-0.313
-382.960	410.404	-0.181	0.387
-381.946	800.000	0.020	0.078
-380.931	-140.848	-0.282	0.029
-379.917	35.379	-0.227	0.201
-378.902	-98.190	-0.285	0.074
-377.888	-200.000	0.021	0.227
-376.873	40.545	-0.068	0.062
-375.858	-104.874	-0.267	0.062
-374.844	-200.000	-0.035	0.180
-373.829	-146.224	-0.241	0.021
-372.815	14.720	-0.226	-0.178
-371.800	-138.654	-0.188	-0.021
-370.785	-120.597	-0.199	-0.034
-369.771	106.774	0.078	-0.094
-368.756	800.000	-0.060	-0.241
-367.742	-143.371	-0.493	-0.048
-366.727	-26.356	0.232	0.138
-365.712	-200.000	0.009	-0.085
-364.698	55.293	0.166	-0.162
-363.683	11.439	-0.141	0.109
-362.669	-149.759	0.119	0.009
-361.654	178.393	-0.054	-0.079
-360.639	-200.000	-0.033	0.153
-359.625	120.353	-0.044	0.055
-358.610	-97.640	-0.103	-0.027
-357.596	-147.340	0.205	-0.018
-356.581	800.000	0.040	0.128
-355.566	449.316	0.051	0.113
-354.552	-72.240	-0.057	-0.021
-353.537	109.791	0.180	-0.217
-352.523	-200.000	0.018	0.285
-351.508	185.651	-0.066	0.098
-350.493	798.861	0.064	0.177
-349.479	-6.214	0.099	-0.068
-348.464	-139.547	0.147	0.016
-347.450	194.858	-0.214	0.327
-346.435	-200.000	0.029	0.161
-345.420	265.205	-0.104	-0.183
-344.406	-36.438	0.228	0.124
-343.391	-111.922	-0.334	-0.068
-342.377	800.000	-0.046	0.180
-341.362	-28.619	-0.085	-0.049
-340.348	-136.084	0.121	0.014
-339.333	-60.770	-0.384	0.164
-338.318	214.223	0.171	-0.273
-337.304	33.328	-0.319	0.279
-336.289	-200.000	-0.006	0.026
-335.275	-36.641	0.148	0.080
-334.260	328.479	0.035	0.068
-333.245	-14.804	-0.081	0.052
-332.231	-8.313	0.114	0.077
-331.216	82.292	-0.150	0.164
-330.202	598.884	0.080	0.201
-329.187	800.000	0.048	0.163
-328.172	-8.594	-0.208	-0.141
-327.158	-154.392	0.064	-0.004
-326.143	412.749	0.028	-0.059
-325.129	31.268	0.165	0.143
-324.114	192.644	-0.202	0.308
-323.099	130.382	0.053	0.068
-322.085	279.761	0.123	0.221
-321.070	-21.687	0.144	-0.088
-320.056	268.940	0.073	-0.129
-319.041	-71.284	-0.316	0.119
-318.026	-55.446	0.293	-0.132
-317.012	-42.974	-0.466	-0.238
-315.997	81.274	0.093	0.101
-314.983	-57.810	0.292	-0.129
-313.968	-200.000	0.017	0.220
-312.953	44.415	0.137	-0.127
-311.939	15.964	0.207	-0.164
-310.924	774.066	0.021	0.057
-309.910	12.801	0.183	0.142
-308.895	-60.364	0.295	0.126
-307.880	27.396	0.070	0.059
-306.866	-200.000	-0.016	-0.166
-305.851	-137.870	0.062	-0.007
-304.837	136.257	0.137	-0.179
-303.822	-118.400	0.207	0.037
-302.807	508.393	0.080	-0.187
-301.793	-86.814	0.254	0.078
-300.778	-200.000	0.051	0.469
-299.764	-200.000	0.003	0.067
-298.749	-200.000	0.024	0.146
-297.735	108.920	0.181	0.217
-296.720	7.138	0.291	0.218
-295.705	-200.000	0.011	0.187
-294.691	40.719	0.137	-0.124
-293.676	191.675	-0.181	-0.274
-292.662	800.000	0.045	0.181
-291.647	407.936	0.100	0.213
-290.632	-200.000	-0.015	0.253
-289.618	800.000	-0.086	-0.368
-288.603	159.479	0.011	0.016
-287.589	102.148	-0.145	0.170
-286.574	-200.000	-0.060	0.294
-285.559	-74.533	0.115	-0.042
-284.545	225.850	-0.090	-0.146
-283.530	-66.585	0.313	-0.125
-282.516	39.855	-0.196	-0.177
-281.501	-200.000	-0.046	0.214
-280.486	800.000	0.060	-0.192
-279.472	402.917	0.103	0.218
-278.457	-200.000	0.050	0.344
-277.443	800.000	-0.063	-0.219
-276.428	8.153	0.122	0.092
-275.413	-93.120	0.264	0.074
-274.399	54.962	-0.032	-0.031
-273.384	-200.000	0.006	-0.241
-272.370	-76.421	-0.168	0.060
-271.355	436.399	-0.079	0.174
-270.340	-22.273	0.169	0.103
-269.326	-200.000	-0.295	-0.001
-268.311	530.990	0.116	0.276
-267.297	292.103	-0.060	0.109
-266.282	472.353	-0.025	0.056
-265.267	-74.103	-0.298	0.108
-264.253	-78.424	-0.196	0.068
-263.238	-127.199	0.321	-0.047
-262.224	-13.032	0.080	-0.053
-261.209	-160.216	0.166	0.009
-260.195	-200.000	-0.061	-0.290
-259.180	-11.082	0.351	0.233
-258.165	22.886	-0.215	-0.177
-257.151	158.921	0.180	-0.251
-256.136	-70.652	-0.606	-0.230
-255.122	-139.063	0.066	0.007
-254.107	-131.995	0.219	-0.029
-253.092	92.203	-0.302	-0.342
-252.078	-168.731	0.250	0.010
-251.063	-145.628	0.486	-0.044
-250.049	26.931	-0.300	0.253
-249.034	-47.411	-0.174	0.085
-248.019	800.000	0.045	-0.126
-247.005	-200.000	-0.024	-0.533
-245.990	-37.503	-0.143	-0.077
-244.976	35.206	0.128	-0.112
-243.961	-109.842	0.208	-0.044
-242.946	-197.921	-0.305	-0.002
-241.932	34.910	-0.021	-0.019
-240.917	-101.142	-0.349	-0.086
-239.903	109.213	-0.130	-0.157
-238.888	-101.849	-0.171	-0.041
-237.873	800.000	0.068	-0.208
-236.859	800.000	-0.036	-0.139
-235.844	356.945	-0.075	0.151
-234.830	101.864	0.199	0.233
-233.815	-56.984	0.178	-0.079
-232.800	-200.000	0.001	-0.062
-231.786	149.217	-0.187	0.254
-230.771	-180.845	-0.144	0.003
-229.757	-167.221	-0.249	0.010
-228.742	-48.533	-0.274	-0.132
-227.727	201.329	-0.015	-0.023
-226.713	-44.024	-0.213	0.107
-225.698	-112.065	-0.163	-0.033
-224.684	325.530	0.203	-0.390
-223.669	-28.769	-0.057	0.033
-222.655	800.000	0.068	0.287
-221.640	-155.610	0.168	-0.011
-220.625	-200.000	0.036	-0.266
-219.611	-184.187	0.223	0.004
-218.596	8.863	0.172	0.130
-217.582	-117.784	0.159	-0.029
-216.567	-200.000	-0.026	-0.136
-215.552	326.065	-0.090	0.173
-214.538	-200.000	-0.042	0.287
-213.523	-63.472	-0.111	0.046
-212.509	800.000	-0.125	-0.379
-211.494	-7.816	-0.102	0.069
-210.479	-86.330	0.198	-0.061
-209.465	-12.280	-0.174	-0.114
-208.450	-116.102	-0.212	-0.040
-207.436	800.000	-0.024	0.070
-206.421	59.250	0.270	-0.266
-205.406	-147.777	0.050	0.004
-204.392	-116.834	0.204	0.038
-203.377	337.563	0.054	-0.105
-202.363	325.493	-0.078	0.149
-201.348	118.877	0.113	-0.140
-200.333	319.258	0.125	-0.237
-199.319	-52.322	0.359	-0.166
-198.304	39.899	-0.124	0.112
-197.290	236.637	-0.126	0.208
-196.275	-200.000	0.004	-0.096
-195.260	-162.714	0.324	-0.016
-194.246	-200.000	0.025	-0.279
-193.231	-114.568	-0.472	0.091
-192.217	-27.497	-0.221	0.129
-191.202	-22.855	0.229	-0.139
-190.187	-53.612	0.156	0.071
-189.173	9.889	0.124	0.094
-188.158	-37.333	0.162	-0.087
-187.144	-200.000	-0.000	-0.164
-186.129	-36.371	-0.061	0.033
-185.114	-21.271	-0.217	0.133
-184.100	257.215	-0.065	-0.112
-183.085	-1.945	0.080	0.056
-182.071	-64.277	0.066	-0.027
-181.056	237.226	-0.155	0.258
-180.042	800.000	0.016	-0.056
-179.027	800.000	0.037	-0.117
-178.012	373.245	-0.048	0.097
-176.998	-200.000	-0.038	0.249
-175.983	59.783	0.204	0.201
-174.969	-200.000	0.011	0.166
-173.954	-200.000	-0.024	0.319
-172.939	800.000	-0.133	-0.435
-171.925	-27.820	0.227	-0.132
-170.910	-14.868	-0.028	0.018
-169.896	-200.000	-0.043	0.311
-168.881	123.723	0.119	-0.149
-167.866	275.269	0.079	-0.140
-166.852	-200.000	-0.042	0.206
-165.837	469.791	0.080	0.179
-164.823	213.908	0.023	0.036
-163.808	-2.070	-0.067	-0.047
-162.793	-77.586	0.281	0.097
-161.779	6.295	0.219	-0.163
-160.764	-200.000	-0.092	-0.474
-159.750	-142.312	0.326	0.032
-158.735	93.208	0.038	0.042
-157.720	-200.000	-0.032	0.236
-156.706	-38.862	-0.081	0.043
-155.691	-139.550	0.286	0.031
-154.677	-138.198	-0.190	-0.021
-153.662	-200.000	0.047	0.278
-152.647	-72.404	-0.374	0.138
-151.633	-200.000	0.004	0.133
-150.618	-200.000	0.008	0.090
-149.604	-20.073	-0.121	-0.075
-148.589	-86.899	0.213	-0.065
-147.574	47.553	0.217	-0.202
-146.560	8.620	-0.142	-0.107
-145.545	-164.743	-0.103	-0.005
-144.531	28.207	0.027	0.023
-143.516	-18.144	0.140	0.088
-142.502	62.095	-0.014	0.014
-141.487	356.886	0.167	0.332
-140.472	9.422	0.272	-0.206
-139.458	184.980	-0.062	0.093
-138.443	-1.305	-0.042	0.030
-137.429	-181.191	0.302	-0.006
-136.414	-200.000	-0.032	-0.214
-135.399	-200.000	0.076	-0.352
-134.385	61.582	-0.092	0.092
-133.370	-8.411	0.161	0.108
-132.356	160.653	0.164	-0.229
-131.341	-88.696	0.250	-0.074
-130.326	800.000	-0.035	-0.113
-129.312	-162.220	0.073	0.004
-128.297	-200.000	-0.019	-0.216
-127.283	743.655	-0.095	0.254
-126.268	800.000	0.053	0.228
-125.253	289.072	0.041	-0.074
-124.239	-108.013	-0.136	-0.030
-123.224	-58.811	-0.204	-0.088
-122.210	-79.653	-0.105	-0.035
-121.195	800.000	0.076	0.281
-120.180	115.828	0.324	0.396
-119.166	800.000	0.024	-0.082
-118.151	-200.000	0.042	-0.284
-117.137	-200.000	0.000	0.005
-116.122	58.328	-0.287	-0.281
-115.107	15.527	-0.144	-0.113
-114.093	-82.024	-0.150	0.049
-113.078	-99.495	0.378	0.095
-112.064	-191.981	-0.368	0.004
-111.049	-58.426	0.191	0.083
-110.034	694.371	0.059	0.154
-109.020	-71.562	0.086	-0.032
-108.005	800.000	0.052	0.170
-106.991	135.953	-0.093	0.121
-105.976	272.209	-0.065	0.115
-104.962	-200.000	0.038	-0.221
-103.947	-85.206	0.046	-0.014
-102.932	-141.174	0.151	0.015
-101.918	88.416	-0.109	-0.120
-100.903	277.132	0.115	0.204
-99.889	763.130	0.061	-0.164
-98.874	762.901	0.103	0.280
-97.859	-200.000	-0.023	0.182
-96.845	45.701	-0.025	0.023
-95.830	15.936	0.205	-0.161
-94.816	-200.000	-0.005	0.216
-93.801	12.757	0.262	0.202
-92.786	-82.668	0.334	0.108
-91.772	100.007	0.109	-0.126
-90.757	-172.416	0.307	0.010
-89.743	213.611	-0.098	-0.154
-88.728	-161.558	-0.146	-0.007
-87.713	645.172	-0.012	-0.031
-86.699	87.582	0.341	-0.377
-85.684	-146.800	-0.341	0.029
-84.670	-102.334	0.146	0.035
-83.655	-175.242	-0.237	0.007
-82.640	47.410	0.173	0.161
-81.626	-200.000	-0.165	0.001
-80.611	-200.000	0.006	-0.030
-79.597	-96.321	0.391	0.103
-78.582	800.000	0.020	-0.064
-77.567	-40.328	0.179	0.093
-76.553	243.299	-0.206	-0.345
-75.538	-200.000	-0.183	-0.000
-74.524	26.103	0.048	0.040
-73.509	546.098	0.113	0.268
-72.494	-200.000	0.017	0.101
-71.480	234.805	0.052	0.086
-70.465	284.302	0.208	-0.372
-69.451	77.278	0.200	0.212
-68.436	-155.184	-0.318	-0.021
-67.422	59.058	-0.073	0.071
-66.407	50.187	0.026	-0.024
-65.392	-78.862	0.164	0.056
-64.378	79.489	-0.100	-0.107
-63.363	-115.161	0.176	0.033
-62.349	-12.607	0.107	0.069
-61.334	103.534	-0.480	-0.562
-60.319	278.731	0.100	0.178
-59.305	800.000	-0.157	-0.510
-58.290	85.932	0.608	0.667
-57.276	484.798	0.701	1.591
-56.261	-200.000	78.439	490.634
-55.246	552.588	1369.737	3279.710
-54.232	179.046	2611.864	3806.643
-53.217	122.736	2255.294	2811.837
-52.203	50.561	1698.272	1601.051
-51.188	42.540	1424.707	1291.786
-50.173	39.153	1379.281	1229.413
-49.159	57.540	1415.258	1377.942
-48.144	63.448	1433.943	1433.342
-47.130	43.050	1397.081	1269.751
-46.115	39.218	1380.590	1230.794
-45.100	39.063	1375.701	1225.418
-44.086	38.921	1373.345	1222.384
-43.071	38.889	1371.313	1220.330
-42.057	38.829	1369.035	1217.882
-41.042	38.927	1367.134	1216.748
-40.027	39.050	1365.581	1216.084
-39.013	38.910	1363.707	1213.499
-37.998	38.897	1361.826	1211.697
-36.984	39.063	1359.665	1210.748
-35.969	39.116	1358.022	1209.562
-34.954	39.040	1356.183	1207.410
-33.940	39.134	1354.988	1206.877
-32.925	39.136	1353.583	1205.587
-31.911	39.242	1351.948	1204.736
-30.896	39.236	1350.574	1203.424
-29.881	39.159	1349.343	1201.813
-28.867	39.281	1347.188	1200.588
-27.852	39.226	1345.703	1198.880
-26.838	39.149	1345.154	1197.874
-25.823	39.126	1343.375	1196.103
-24.809	39.109	1342.021	1194.750
-23.794	39.140	1340.975	1193.958
-22.779	39.097	1339.040	1191.925
-21.765	39.143	1338.016	1191.245
-20.750	39.146	1336.503	1189.869
-19.736	39.198	1334.782	1188.605
-18.721	39.026	1333.937	1186.767
-17.706	39.008	1332.586	1185.406
-16.692	39.009	1331.127	1184.068
-15.677	39.043	1330.333	1183.523
-14.663	39.009	1329.295	1182.344
-13.648	38.996	1327.940	1181.018
-12.633	39.070	1326.691	1180.300
-11.619	39.023	1325.998	1179.355
-10.604	38.938	1325.432	1178.295
-9.590	39.072	1324.201	1177.962
-8.575	39.072	1322.795	1176.660
-7.560	38.991	1322.191	1175.595
-6.546	39.049	1321.050	1174.880
-5.531	39.046	1320.573	1174.387
-4.517	39.066	1319.102	1173.157
-3.502	39.078	1318.283	1172.449
-2.487	39.050	1317.391	1171.443
-1.473	39.095	1313.880	1168.546
-0.458	38.475	1299.077	1151.686
0.556	33.587	1279.734	1114.070
1.571	30.019	1284.373	1096.925
2.586	28.868	1300.009	1103.274
3.600	27.258	1287.847	1083.277
4.615	18.857	1207.371	968.364
5.629	6.266	1120.822	832.606
6.644	0.490	1096.945	784.821
7.659	0.139	1093.494	780.460
8.673	0.148	1091.797	779.226
9.688	0.014	1090.662	777.655
10.702	0.454	1089.947	779.349
11.717	8.028	1102.040	827.375
12.731	18.839	1118.187	896.106
13.746	22.524	1121.792	918.158
14.761	22.194	1121.016	915.720
15.775	22.174	1120.408	915.041
16.790	21.906	1119.201	912.579
17.804	21.935	1118.366	911.970
18.819	21.872	1118.658	911.800
19.834	21.964	1117.907	911.584
20.848	22.064	1117.481	911.675
21.863	22.178	1116.390	911.294
22.877	21.934	1115.882	909.535
23.892	21.979	1115.027	908.993
24.907	22.029	1114.415	908.668
25.921	22.024	1113.027	907.435
26.936	22.093	1111.429	906.408
27.950	21.918	1110.611	904.754
28.965	21.879	1108.194	902.504
29.980	21.847	1106.514	900.896
30.994	22.056	1105.626	901.166
32.009	22.090	1104.564	900.395
33.023	21.869	1103.441	898.268
34.038	22.010	1102.496	898.140
35.053	22.049	1101.786	897.680
36.067	22.061	1101.313	897.277
37.082	22.044	1100.570	896.506
38.096	22.173	1099.536	896.244
39.111	22.350	1098.780	896.448
40.126	22.140	1097.029	893.873
41.140	21.812	1095.017	890.490
42.155	21.602	1093.988	888.506
43.169	21.661	1093.304	888.172
44.184	21.736	1091.944	887.368
45.199	21.544	1091.122	885.652
46.213	21.678	1089.809	885.184
47.228	21.791	1089.271	885.240
48.242	21.855	1088.342	884.726
49.257	21.824	1087.812	884.062
50.271	22.054	1087.012	884.491
51.286	22.003	1086.174	883.479
52.301	22.017	1084.775	882.333
53.315	21.924	1084.512	881.571
54.330	21.892	1083.474	880.487
55.344	21.935	1082.640	879.950
56.359	21.934	1081.174	878.672
57.374	21.825	1080.084	877.167
58.388	21.670	1080.060	876.294
59.403	21.721	1078.781	875.431
60.417	21.603	1077.707	873.897
61.432	21.656	1077.225	873.690
62.447	21.675	1076.763	873.332
63.461	21.786	1075.663	872.915
64.476	21.849	1074.243	872.000
65.490	21.724	1073.739	870.892
66.505	21.772	1072.892	870.366
67.520	21.833	1072.043	869.903
68.534	21.620	1071.034	867.951
69.549	21.367	1069.508	865.389
70.563	21.289	1068.748	864.309
71.578	21.300	1067.979	863.667
72.593	21.223	1066.627	862.115
73.607	21.372	1066.525	862.691
74.622	21.563	1066.073	863.196
75.636	21.570	1065.415	862.616
76.651	21.436	1064.178	860.883
77.666	21.445	1063.846	860.578
78.680	21.471	1063.092	860.022
79.695	21.608	1061.940	859.687
80.709	21.637	1061.729	859.580
81.724	21.480	1061.097	858.222
82.739	21.710	1060.040	858.420
83.753	22.047	1059.566	859.613
84.768	22.297	1058.082	859.552
85.782	22.365	1057.307	859.178
86.797	22.274	1056.662	858.136
87.812	22.168	1055.314	856.450
88.826	22.201	1054.722	856.052
89.841	22.281	1053.586	855.446
90.855	22.309	1052.610	854.713
91.870	22.171	1051.930	853.414
92.884	22.061	1050.349	851.524
93.899	22.114	1049.362	850.901
94.914	22.238	1049.023	851.155
95.928	22.094	1047.387	849.055
96.943	21.943	1046.002	847.128
97.957	21.686	1044.672	844.735
98.972	21.509	1043.352	842.741
99.987	21.834	1043.373	844.251
101.001	22.087	1042.219	844.459
102.016	21.891	1041.948	843.220
103.030	21.887	1041.066	842.414
104.045	21.684	1039.857	840.387
105.060	21.589	1038.813	839.016
106.074	21.745	1038.028	839.054
107.089	22.115	1037.784	840.551
108.103	22.084	1036.424	839.229
109.118	21.686	1035.378	836.405
110.133	21.797	1034.169	835.884
111.147	21.541	1033.273	833.867
112.162	21.462	1031.844	832.267
113.176	21.667	1031.469	832.863
114.191	21.725	1030.204	832.043
115.206	21.413	1029.016	829.532
116.220	21.388	1028.611	829.012
117.235	21.508	1027.428	828.554
118.249	21.487	1026.623	827.734
119.264	21.287	1026.195	826.368
120.279	21.378	1025.136	825.872
121.293	21.541	1024.268	825.869
122.308	21.595	1022.787	824.854
123.322	21.506	1021.462	823.298
124.337	21.273	1020.771	821.571
125.352	20.905	1019.099	818.422
126.366	20.827	1018.163	817.235
127.381	21.579	1017.930	820.499
128.395	21.925	1017.553	821.742
129.410	22.067	1016.812	821.738
130.424	22.095	1015.432	820.683
131.439	22.015	1014.289	819.309
132.454	21.927	1014.102	818.679
133.468	21.841	1013.399	817.635
134.483	22.026	1012.155	817.422
135.497	22.366	1011.070	818.053
136.512	22.198	1010.460	816.707
137.527	22.289	1009.362	816.168
138.541	22.320	1008.568	815.600
139.556	22.317	1007.378	814.552
140.570	22.370	1006.730	814.201
141.585	22.386	1005.872	813.508
142.600	22.283	1004.913	812.186
143.614	22.391	1004.323	812.136
144.629	22.558	1003.092	811.837
145.643	22.490	1001.614	810.257
146.658	22.249	1000.447	808.135
147.673	22.162	999.369	806.791
148.687	22.093	998.099	805.380
149.702	21.941	997.234	803.914
150.716	22.054	996.381	803.673
151.731	22.135	995.847	803.539
152.746	22.273	995.623	803.920
153.760	22.483	994.464	803.871
154.775	22.448	993.745	803.058
155.789	22.422	993.157	802.395
156.804	22.276	992.332	800.992
157.819	22.510	991.188	801.061
158.833	22.499	990.455	800.349
159.848	22.566	989.241	799.598
160.862	22.343	988.164	797.647
161.877	22.297	987.250	796.634
162.892	22.424	985.955	796.090
163.906	22.356	984.725	794.719
164.921	22.371	984.033	794.158
165.935	22.514	983.240	794.094
166.950	22.408	982.101	792.624
167.964	22.402	981.397	791.962
168.979	22.239	980.234	790.219
169.994	22.150	979.604	789.243
171.008	22.313	979.158	789.545
172.023	22.534	978.068	789.588
173.037	22.123	976.812	786.663
174.052	22.100	975.870	785.733
175.067	22.180	975.439	785.675
176.081	22.252	974.540	785.201
177.096	22.141	974.087	784.270
178.110	21.836	972.958	781.931
179.125	21.724	972.349	780.876
180.140	21.750	972.077	780.704
181.154	22.004	971.526	781.322
182.169	22.139	971.631	781.939
183.183	22.341	971.253	782.464
184.198	22.372	969.647	781.239
185.213	22.381	969.072	780.746
186.227	22.308	968.436	779.839
187.242	22.434	967.858	779.863
188.256	22.561	966.971	779.643
189.271	22.555	966.383	779.073
190.286	22.110	965.330	776.190
191.300	21.613	963.868	772.750
192.315	20.791	961.928	767.508
193.329	20.852	961.592	767.442
194.344	21.599	962.355	771.272
195.359	22.199	961.822	773.420
196.373	22.338	961.322	773.560
197.388	22.093	960.922	772.094
198.402	22.343	959.627	772.081
199.417	22.259	959.679	771.685
200.432	22.030	958.135	769.374
201.446	21.930	957.550	768.395
202.461	21.958	956.790	767.842
203.475	21.114	955.140	762.763
204.490	20.357	953.750	758.278
205.504	21.111	954.300	761.941
206.519	21.852	953.847	764.745
207.534	21.954	953.421	764.779
208.548	22.348	953.358	766.377
209.563	22.253	952.167	764.942
210.577	22.248	951.366	764.209
211.592	22.436	951.448	765.023
212.607	22.488	950.548	764.459
213.621	22.464	949.935	763.792
214.636	22.497	949.207	763.285
215.650	22.352	948.253	761.821
216.665	22.424	947.870	761.757
217.680	22.430	947.136	761.127
218.694	22.042	945.455	758.032
219.709	21.851	945.094	756.853
220.723	22.247	944.751	758.219
221.738	22.340	943.697	757.706
222.753	22.290	943.228	757.047
223.767	22.240	943.071	756.638
224.782	22.558	942.599	757.561
225.796	22.617	941.583	756.930
226.811	21.895	940.156	752.618
227.826	21.192	939.488	749.006
228.840	21.598	938.283	749.714
229.855	21.666	937.653	749.437
230.869	21.280	936.622	746.896
231.884	21.565	936.947	748.309
232.899	22.313	936.904	751.405
233.913	22.336	935.943	750.666
234.928	22.293	935.545	750.095
235.942	22.252	934.563	749.067
236.957	21.875	933.985	746.934
237.972	21.960	932.963	746.413
238.986	22.036	932.674	746.435
240.001	21.844	932.062	745.067
241.015	22.104	931.588	745.723
242.030	22.135	931.106	745.403
243.045	22.362	930.470	745.790
244.059	22.415	930.040	745.604
245.074	22.270	928.672	743.828
246.088	21.924	928.050	741.801
247.103	22.133	927.480	742.163
248.117	22.851	927.344	745.022
249.132	22.883	927.381	745.119
250.147	23.043	926.365	744.912
251.161	23.153	926.039	745.048
252.176	23.092	925.412	744.220
253.190	23.390	924.646	744.788
254.205	23.395	924.596	744.707
255.220	23.230	923.887	743.376
256.234	23.184	922.708	742.168
257.249	23.039	921.919	740.860
258.263	23.113	921.221	740.542
259.278	23.306	920.469	740.679
260.293	23.143	920.257	739.762
261.307	22.948	919.637	738.384
262.322	22.851	918.395	736.917
263.336	22.221	916.481	732.692
264.351	21.071	914.611	726.346
265.366	21.228	914.070	726.508
266.380	22.246	914.768	731.230
267.395	22.803	914.498	733.266
268.409	22.693	913.881	732.248
269.424	22.775	913.432	732.164
270.439	22.894	912.808	732.095
271.453	23.061	912.333	732.340
272.468	23.075	912.023	732.086
273.482	23.130	911.677	731.968
274.497	23.012	910.063	730.119
275.512	22.505	909.337	727.383
276.526	22.831	909.164	728.524
277.541	22.988	908.864	728.865
278.555	22.841	907.471	727.079
279.570	22.673	906.768	725.760
280.585	22.789	906.801	726.199
281.599	22.906	905.892	725.889
282.614	22.191	904.255	721.578
283.628	22.191	903.802	721.153
284.643	22.613	903.489	722.569
285.657	22.278	901.788	719.775
286.672	21.917	901.626	718.106
287.687	22.377	901.526	719.843
288.701	22.565	900.853	720.012
289.716	22.349	899.340	717.857
290.730	22.164	899.364	717.055
291.745	21.871	898.636	715.219
292.760	22.098	898.247	715.771
293.774	23.070	898.827	720.130
294.789	23.573	898.277	721.674
295.803	23.484	897.684	720.770
296.818	23.535	897.061	720.413
297.833	23.108	896.003	717.770
298.847	23.018	895.001	716.535
299.862	23.362	894.965	717.839
300.876	23.421	894.732	717.828
301.891	23.507	893.527	717.146
302.906	23.041	892.417	714.310
303.920	23.082	891.979	714.060
304.935	23.499	891.984	715.684
305.949	23.426	891.284	714.766
306.964	23.268	890.473	713.414
307.979	23.197	890.363	712.979
308.993	23.499	890.067	713.892
310.008	23.552	889.308	713.436
311.022	23.342	888.311	711.728
312.037	23.306	887.988	711.263
313.052	23.138	886.668	709.466
314.066	22.248	885.113	704.596
315.081	21.698	884.541	701.875
316.095	22.635	884.631	705.637
317.110	23.150	884.597	707.607
318.125	22.356	883.155	703.221
319.139	21.352	881.534	697.860
320.154	21.439	881.062	697.774
321.168	22.096	881.848	700.957
322.183	22.815	882.054	703.926
323.197	23.011	881.503	704.206
324.212	23.182	881.042	704.457
325.227	23.262	880.223	704.054
326.241	23.239	879.568	703.379
327.256	23.066	878.740	701.966
328.270	23.055	878.245	701.465
329.285	22.793	877.617	699.865
330.300	22.534	876.647	698.002
331.314	22.826	876.439	698.931
332.329	23.123	876.390	700.005
333.343	23.250	875.921	700.072
334.358	23.337	875.423	699.956
335.373	23.323	875.068	699.556
336.387	23.680	874.750	700.646
337.402	23.856	874.550	701.118
338.416	23.790	874.340	700.629
339.431	23.817	873.791	700.234
340.446	24.048	873.534	700.877
341.460	23.839	872.995	699.559
342.475	23.538	872.626	698.018
343.489	23.717	872.035	698.185
344.504	24.017	871.928	699.217
345.519	24.190	871.551	699.532
346.533	24.234	871.003	699.201
347.548	24.208	870.461	698.601
348.562	24.065	870.257	697.817
349.577	23.994	869.429	696.815
350.592	24.162	868.637	696.776
351.606	23.943	868.159	695.472
352.621	23.886	867.010	694.269
353.635	23.908	865.964	693.454
354.650	23.331	864.430	689.917
355.665	22.351	862.933	684.850
356.679	22.740	862.639	686.070
357.694	23.289	862.299	687.872
358.708	23.195	861.610	686.896
359.723	23.382	862.110	687.960
360.738	23.724	861.284	688.567
361.752	23.789	860.860	688.421
362.767	24.203	860.472	689.652
363.781	24.406	860.475	690.378
364.796	24.489	860.228	690.438
365.810	24.423	859.616	689.630
366.825	24.464	859.061	689.284
367.840	24.239	858.201	687.663
368.854	23.763	857.338	685.078
369.869	23.888	856.778	685.052
370.883	23.947	856.335	684.863
371.898	23.698	855.833	683.442
372.913	23.822	855.755	683.796
373.927	24.040	855.077	684.032
374.942	24.175	854.658	684.156
375.956	23.998	854.285	683.117
376.971	24.263	854.243	684.039
377.986	24.376	853.974	684.196
379.000	24.490	853.091	683.866
380.015	24.181	852.621	682.247
381.029	24.348	851.803	682.171
382.044	24.458	851.362	682.175
383.059	24.525	850.593	681.755
384.073	24.387	850.192	680.849
385.088	24.415	849.629	680.442
386.102	24.268	849.164	679.451
387.117	24.208	848.104	678.313
388.132	23.938	846.887	676.254
389.146	23.374	845.949	673.303
390.161	23.695	846.085	674.570
391.175	24.333	845.519	676.481
392.190	23.888	844.715	674.091
393.205	22.581	842.405	667.245
394.219	21.067	841.051	660.385
395.234	20.918	840.458	659.298
396.248	22.557	842.057	666.702
397.263	24.044	842.826	672.878
398.278	23.931	842.862	672.417
399.292	23.778	841.681	670.838
400.307	23.857	841.192	670.689
401.321	24.114	840.264	670.859
402.336	24.265	840.785	671.782
403.350	24.766	840.728	673.565
404.365	24.910	840.506	673.869
405.380	25.109	840.085	674.220
406.394	25.161	839.463	673.858
407.409	25.205	838.817	673.445
408.423	25.195	837.993	672.686
409.438	25.065	838.193	672.300
410.453	25.166	837.777	672.285
411.467	25.214	837.221	671.960
412.482	25.119	836.659	671.091
413.496	25.334	836.263	671.518
414.511	25.086	836.203	670.484
415.526	25.176	835.486	670.185
416.540	25.024	834.513	668.780
417.555	24.887	833.805	667.644
418.569	24.938	833.617	667.621
419.584	24.926	832.964	666.998
420.599	24.699	832.493	665.715
421.613	145.348	1360.751	1758.884
422.628	126.838	1437.735	1759.010
