DTS Sentinel unit serial number:	SN413079Multiplexer serial number:	ORYXHardware model number:	OX4-SRSoftware version number:	ORYX F/W v4.00 Oryx Data Collector v3.7.2.0data status	okinstallation	princeton_trtdifferential loss correction	single-endedforward channel	channel 1reverse channel	N/Adate	2019/09/12time	03:08:11forward acquisition time	60.00reverse acquisition time	0.00gamma	496.2192k internal	0.2322k external	0.2322temperature offset calibration	1.0082default loss term (dB/km)	0.3790temperature slope calibration	1.0000multiplexer offset coefficient	1.0000multiplexer slope coefficient	1.0000fibre end	0.00T internal ref (°C)	32.28T ext. ref 1 (°C)	2.12T ext. ref 2 (°C)	27.41length (m)	temperature (°C)	Stokes	anti-Stokes-747.200	-200.000	-0.025	-0.171
-746.185	50.647	-0.196	0.188
-745.171	-37.136	-0.315	0.171
-744.156	800.000	-0.032	0.106
-743.142	-59.886	-0.074	0.032
-742.127	-79.254	-0.218	0.075
-741.112	-10.233	-0.117	-0.079
-740.098	800.000	-0.122	0.479
-739.083	96.968	0.069	0.080
-738.069	-200.000	0.051	0.241
-737.054	-10.215	-0.156	-0.105
-736.039	367.426	-0.223	-0.454
-735.025	-200.000	0.015	-0.562
-734.010	-70.084	-0.280	-0.108
-732.996	-69.091	-0.242	-0.094
-731.981	-76.647	-0.042	0.015
-730.966	14.537	0.128	-0.101
-729.952	539.455	0.100	0.239
-728.937	405.870	0.070	-0.150
-727.923	800.000	0.049	-0.172
-726.908	404.987	-0.149	-0.316
-725.894	-110.750	0.154	-0.032
-724.879	-64.201	-0.246	0.101
-723.864	688.055	-0.010	-0.027
-722.850	10.571	0.103	0.079
-721.835	-136.922	-0.350	-0.041
-720.821	-54.960	-0.491	-0.224
-719.806	-200.000	-0.024	-0.268
-718.791	-84.313	-0.218	0.070
-717.777	800.000	0.016	0.050
-716.762	-102.384	0.242	0.058
-715.748	800.000	-0.069	0.232
-714.733	-79.604	0.080	-0.027
-713.718	-141.313	0.193	-0.020
-712.704	187.255	0.102	-0.153
-711.689	332.963	0.128	-0.249
-710.675	-71.230	-0.066	0.025
-709.660	-49.776	-0.231	-0.111
-708.645	137.762	0.117	0.155
-707.631	171.141	-0.037	0.054
-706.616	-110.267	-0.290	0.061
-705.602	-121.166	0.139	-0.023
-704.587	68.625	-0.163	-0.169
-703.572	309.318	-0.078	-0.147
-702.558	-192.661	0.101	-0.001
-701.543	14.984	-0.056	-0.044
-700.529	19.625	0.244	-0.198
-699.514	-178.604	0.077	0.002
-698.499	374.882	0.089	-0.182
-697.485	105.722	0.127	0.151
-696.470	-200.000	0.055	-0.455
-695.456	-31.605	-0.065	-0.037
-694.441	-34.018	-0.115	-0.064
-693.426	71.600	0.204	0.214
-692.412	-60.054	-0.171	-0.074
-691.397	-83.431	-0.482	0.156
-690.383	-200.000	-0.009	-0.176
-689.368	-94.090	0.180	-0.050
-688.354	404.370	0.019	-0.040
-687.339	458.884	-0.032	-0.071
-686.324	5.924	-0.306	0.229
-685.310	167.329	-0.036	0.051
-684.295	-76.200	-0.076	0.027
-683.281	103.825	-0.207	-0.246
-682.266	-72.999	0.235	0.087
-681.251	-200.000	0.025	-0.126
-680.237	-200.000	0.022	-0.190
-679.222	-200.000	0.021	-0.096
-678.208	-65.624	0.128	-0.052
-677.193	109.149	-0.232	-0.280
-676.178	-200.000	-0.031	-0.264
-675.164	54.607	-0.280	-0.272
-674.149	408.122	0.137	-0.291
-673.135	168.216	0.055	-0.079
-672.120	504.021	-0.020	-0.046
-671.105	800.000	0.058	-0.174
-670.091	489.727	0.233	-0.537
-669.076	800.000	0.052	-0.172
-668.062	269.532	-0.104	-0.184
-667.047	-165.223	0.377	-0.017
-666.032	26.912	0.082	0.069
-665.018	800.000	0.032	-0.133
-664.003	-200.000	-0.024	-0.417
-662.989	-200.000	-0.049	-0.301
-661.974	800.000	0.022	0.080
-660.959	712.936	-0.115	-0.306
-659.945	-200.000	0.013	-0.285
-658.930	442.658	0.062	0.137
-657.916	62.312	-0.070	-0.070
-656.901	800.000	-0.068	-0.242
-655.886	-200.000	0.022	0.213
-654.872	-200.000	-0.006	0.031
-653.857	492.388	0.050	0.116
-652.843	-183.409	0.254	-0.004
-651.828	-200.000	0.011	-0.082
-650.814	-200.000	0.037	0.279
-649.799	-78.192	-0.083	0.029
-648.784	-109.010	0.032	0.007
-647.770	-126.447	-0.253	0.038
-646.755	-6.572	-0.185	0.127
-645.741	-200.000	0.032	-0.180
-644.726	56.749	-0.250	-0.245
-643.711	170.193	-0.198	-0.285
-642.697	498.277	-0.106	-0.245
-641.682	-105.806	-0.203	0.046
-640.668	-87.898	0.228	-0.069
-639.653	-47.683	0.187	0.091
-638.638	-200.000	-0.005	-0.107
-637.624	-92.756	-0.103	0.029
-636.609	-68.469	0.449	0.175
-635.595	57.244	-0.086	-0.085
-634.580	31.828	0.262	0.227
-633.565	-200.000	-0.009	-0.100
-632.551	344.460	0.136	0.269
-631.536	800.000	0.062	0.190
-630.522	-116.134	-0.222	-0.042
-629.507	-134.209	0.409	0.051
-628.492	8.955	-0.332	-0.252
-627.478	32.716	0.120	-0.104
-626.463	-183.094	-0.166	-0.003
-625.449	-200.000	0.010	0.093
-624.434	140.082	-0.135	-0.179
-623.419	56.337	-0.062	-0.061
-622.405	655.538	0.020	-0.053
-621.390	-99.581	0.107	0.027
-620.376	-148.114	0.273	0.023
-619.361	99.454	0.099	-0.115
-618.346	170.364	0.069	0.099
-617.332	-98.584	0.259	-0.066
-616.317	30.049	0.206	0.176
-615.303	518.234	0.103	-0.242
-614.288	-200.000	-0.040	-0.269
-613.273	-200.000	-0.011	-0.061
-612.259	-200.000	-0.018	-0.315
-611.244	45.034	0.336	0.311
-610.230	-200.000	0.025	0.241
-609.215	44.046	0.158	0.145
-608.201	-28.235	-0.073	0.042
-607.186	-49.623	0.154	0.073
-606.171	-200.000	-0.052	-0.382
-605.157	-132.298	-0.452	0.059
-604.142	164.617	-0.014	0.020
-603.128	-79.428	-0.144	-0.049
-602.113	-128.895	-0.134	0.019
-601.098	370.823	0.035	-0.072
-600.084	-39.744	0.289	-0.152
-599.069	-50.387	0.294	-0.139
-598.055	800.000	-0.040	-0.174
-597.040	34.239	-0.107	-0.094
-596.025	-89.088	-0.110	-0.033
-595.011	457.503	0.065	-0.146
-593.996	-200.000	-0.022	-0.413
-592.982	-71.909	-0.212	0.079
-591.967	-200.000	0.050	-0.283
-590.952	-92.868	0.241	-0.068
-589.938	68.250	0.204	0.210
-588.923	-88.872	-0.344	-0.102
-587.909	-156.099	-0.276	-0.018
-586.894	-200.000	-0.016	-0.112
-585.879	223.318	0.141	-0.229
-584.865	147.666	-0.171	-0.232
-583.850	97.168	-0.315	0.363
-582.836	549.602	-0.041	0.099
-581.821	-200.000	-0.014	-0.453
-580.806	-111.720	-0.067	-0.014
-579.792	-40.215	-0.149	-0.078
-578.777	656.531	-0.058	0.150
-577.763	-19.926	0.237	-0.147
-576.748	-168.937	-0.230	-0.009
-575.733	12.986	-0.167	0.130
-574.719	75.828	-0.166	-0.177
-573.704	-200.000	-0.002	0.046
-572.690	16.232	-0.271	-0.214
-571.675	368.843	0.118	0.240
-570.661	-125.113	0.206	-0.032
-569.646	712.265	-0.141	0.374
-568.631	146.470	-0.109	0.147
-567.617	-21.905	0.265	-0.162
-566.602	-5.653	0.209	0.144
-565.588	30.046	0.102	0.088
-564.573	-84.358	0.212	0.067
-563.558	-132.275	-0.118	0.015
-562.544	-113.768	0.160	0.031
-561.529	205.899	0.149	0.232
-560.515	163.162	-0.180	0.254
-559.500	566.444	0.229	-0.559
-558.485	-200.000	0.004	-0.134
-557.471	-28.091	-0.392	-0.227
-556.456	800.000	-0.017	0.053
-555.442	310.607	-0.112	0.211
-554.427	-200.000	-0.072	-0.341
-553.412	-7.170	-0.428	0.291
-552.398	-80.488	-0.354	-0.118
-551.383	-200.000	-0.000	-0.009
-550.369	263.376	-0.095	0.166
-549.354	800.000	-0.044	-0.190
-548.339	-106.276	0.179	0.040
-547.325	9.677	0.333	-0.253
-546.310	61.327	0.256	-0.255
-545.296	-108.846	0.357	0.076
-544.281	-2.955	-0.353	0.247
-543.266	152.794	0.178	-0.244
-542.252	800.000	0.158	-0.492
-541.237	-105.889	-0.076	-0.017
-540.223	-48.031	0.071	-0.034
-539.208	235.157	-0.032	0.053
-538.193	-1.466	0.188	0.133
-537.179	98.275	0.136	0.157
-536.164	-125.083	-0.162	0.025
-535.150	-200.000	-0.023	-0.156
-534.135	800.000	0.073	-0.279
-533.121	-34.249	-0.169	-0.093
-532.106	-200.000	0.009	0.104
-531.091	800.000	-0.073	0.277
-530.077	8.046	0.189	-0.142
-529.062	-200.000	0.005	-0.446
-528.048	-85.298	-0.024	-0.007
-527.033	-69.072	0.202	0.078
-526.018	-124.144	-0.198	0.031
-525.004	-38.806	-0.125	0.066
-523.989	-18.642	-0.156	0.098
-522.975	-185.115	0.123	-0.002
-521.960	-54.558	-0.114	0.052
-520.945	-200.000	0.010	-0.242
-519.931	265.755	0.248	-0.433
-518.916	-7.450	-0.195	-0.132
-517.902	28.933	0.105	-0.089
-516.887	140.954	-0.150	-0.199
-515.872	-200.000	0.087	-0.467
-514.858	-28.249	0.190	0.110
-513.843	800.000	0.030	-0.111
-512.829	183.081	-0.083	-0.122
-511.814	722.923	-0.125	-0.332
-510.799	-109.763	-0.315	-0.066
-509.785	46.721	0.172	-0.160
-508.770	-120.467	0.019	0.003
-507.756	-141.553	-0.215	-0.022
-506.741	235.163	-0.186	-0.308
-505.726	-200.000	-0.021	-0.116
-504.712	26.329	0.167	0.139
-503.697	91.070	-0.360	-0.405
-502.683	250.540	-0.132	0.225
-501.668	173.571	-0.053	-0.077
-500.653	13.819	0.072	-0.056
-499.639	-163.680	-0.134	0.006
-498.624	28.867	-0.273	-0.232
-497.610	-148.678	-0.182	0.015
-496.595	-110.495	-0.077	0.016
-495.581	-84.131	-0.187	0.059
-494.566	56.425	0.101	-0.098
-493.551	71.513	0.418	-0.435
-492.537	-168.838	-0.201	-0.008
-491.522	800.000	-0.117	-0.362
-490.508	-178.056	0.150	0.004
-489.493	32.420	-0.236	0.204
-488.478	800.000	0.152	-0.442
-487.464	800.000	0.016	0.069
-486.449	-154.863	-0.425	0.028
-485.435	4.796	0.027	0.020
-484.420	600.374	-0.066	-0.165
-483.405	552.679	-0.111	0.266
-482.391	365.895	-0.009	0.017
-481.376	-200.000	-0.072	-0.346
-480.362	-200.000	-0.014	-0.128
-479.347	-136.799	0.323	-0.037
-478.332	45.268	0.045	0.041
-477.318	378.519	-0.044	-0.090
-476.303	800.000	-0.075	0.298
-475.289	505.928	-0.156	0.362
-474.274	733.536	-0.102	-0.272
-473.259	187.968	-0.170	-0.254
-472.245	46.455	0.124	0.115
-471.230	800.000	0.064	0.243
-470.216	644.449	0.148	0.376
-469.201	-200.000	-0.063	-0.401
-468.186	-200.000	0.002	0.151
-467.172	-200.000	-0.073	0.481
-466.157	233.056	-0.091	-0.149
-465.143	-156.590	-0.109	0.007
-464.128	-91.151	-0.088	-0.025
-463.113	-200.000	0.114	-0.000
-462.099	-200.000	0.013	0.118
-461.084	-50.333	-0.150	-0.071
-460.070	-68.009	0.177	0.069
-459.055	-200.000	-0.060	-0.274
-458.040	272.273	0.119	0.210
-457.026	-59.092	-0.371	0.160
-456.011	-119.276	0.375	-0.065
-454.997	-200.000	-0.001	-0.061
-453.982	-48.372	-0.158	0.076
-452.968	-15.738	0.082	-0.052
-451.953	120.806	0.086	0.107
-450.938	392.516	0.130	0.269
-449.924	138.892	0.148	0.194
-448.909	23.386	-0.220	-0.180
-447.895	-200.000	-0.042	0.231
-446.880	-2.080	-0.231	0.162
-445.865	-110.938	0.262	-0.054
-444.851	98.935	0.160	0.185
-443.836	-200.000	0.007	-0.338
-442.822	-70.083	-0.149	0.057
-441.807	-131.376	0.242	0.032
-440.792	18.531	-0.172	0.138
-439.778	-200.000	-0.029	0.146
-438.763	-111.749	0.058	-0.012
-437.749	14.969	0.089	-0.069
-436.734	-118.753	0.236	-0.041
-435.719	-55.612	-0.242	0.108
-434.705	-119.893	0.037	-0.006
-433.690	2.210	-0.155	-0.112
-432.676	-79.849	-0.515	-0.173
-431.661	-200.000	0.001	-0.023
-430.646	-108.418	0.073	-0.016
-429.632	-131.097	0.224	-0.030
-428.617	-78.201	0.127	0.043
-427.603	-200.000	-0.015	0.322
-426.588	-76.872	-0.345	-0.120
-425.573	-193.670	0.315	0.003
-424.559	-93.370	-0.174	0.048
-423.544	800.000	-0.033	-0.125
-422.530	-160.721	-0.109	0.006
-421.515	800.000	-0.037	0.104
-420.500	-119.332	0.526	0.091
-419.486	788.215	0.061	0.167
-418.471	441.958	0.084	-0.183
-417.457	-200.000	-0.007	-0.244
-416.442	800.000	0.113	0.326
-415.428	141.239	0.069	-0.092
-414.413	180.741	-0.164	-0.240
-413.398	-49.537	0.073	-0.035
-412.384	800.000	-0.021	0.089
-411.369	-200.000	0.018	-0.184
-410.355	-64.520	-0.268	0.108
-409.340	-65.111	0.079	0.032
-408.325	238.283	0.206	0.342
-407.311	-141.666	-0.255	0.026
-406.296	800.000	-0.066	-0.267
-405.282	-15.082	0.216	-0.138
-404.267	-200.000	-0.018	0.104
-403.252	219.912	-0.162	0.258
-402.238	463.544	-0.007	0.016
-401.223	-200.000	-0.010	0.188
-400.209	-181.662	-0.298	0.006
-399.194	-200.000	0.055	0.346
-398.179	800.000	0.147	-0.484
-397.165	800.000	0.055	0.174
-396.150	800.000	-0.026	0.088
-395.136	379.479	0.117	0.240
-394.121	-88.256	-0.012	0.004
-393.106	71.371	0.071	-0.074
-392.092	104.846	0.113	-0.133
-391.077	-189.884	-0.303	-0.003
-390.063	-41.869	-0.323	0.165
-389.048	232.326	0.060	-0.099
-388.033	800.000	0.091	-0.381
-387.019	800.000	0.109	-0.357
-386.004	15.453	-0.092	-0.072
-384.990	-200.000	0.009	0.204
-383.975	-200.000	0.008	-0.113
-382.960	244.641	-0.054	0.090
-381.946	87.196	0.140	0.154
-380.931	-34.949	-0.081	0.044
-379.917	128.095	-0.195	-0.247
-378.902	-116.951	0.216	0.039
-377.888	-120.621	-0.201	0.034
-376.873	27.907	-0.036	-0.030
-375.858	-102.373	-0.099	0.024
-374.844	-200.000	-0.047	-0.260
-373.829	81.671	-0.095	0.103
-372.815	62.818	-0.105	-0.105
-371.800	-86.078	-0.017	-0.005
-370.785	39.511	-0.050	0.045
-369.771	67.607	0.247	0.251
-368.756	-124.529	-0.199	-0.031
-367.742	-101.573	0.113	0.027
-366.727	-200.000	0.013	-0.115
-365.712	294.995	-0.133	0.242
-364.698	-156.395	-0.241	0.015
-363.683	63.604	-0.026	0.026
-362.669	-200.000	0.003	-0.137
-361.654	49.757	0.134	-0.126
-360.639	105.644	-0.078	-0.091
-359.625	-139.092	0.189	-0.020
-358.610	82.558	0.063	0.069
-357.596	264.700	-0.042	0.073
-356.581	72.169	0.133	-0.138
-355.566	262.575	0.093	-0.160
-354.552	-97.860	-0.201	0.052
-353.537	-31.251	0.286	0.160
-352.523	306.654	0.226	-0.419
-351.508	41.211	-0.188	-0.169
-350.493	800.000	-0.024	-0.074
-349.479	82.218	-0.075	0.081
-348.464	155.885	-0.169	-0.232
-347.450	355.058	0.105	-0.209
-346.435	-86.316	-0.183	-0.056
-345.420	319.020	-0.121	0.228
-344.406	49.938	-0.045	0.042
-343.391	-24.068	0.196	0.116
-342.377	-21.396	-0.109	0.066
-341.362	-200.000	-0.004	0.119
-340.348	35.774	0.157	0.137
-339.333	220.690	0.101	0.161
-338.318	77.123	0.124	-0.131
-337.304	-128.323	-0.246	0.035
-336.289	-76.765	0.075	0.026
-335.275	26.415	0.225	-0.187
-334.260	469.414	-0.189	-0.423
-333.245	-200.000	-0.005	-0.133
-332.231	-159.834	0.027	0.001
-331.216	-149.593	0.028	0.002
-330.202	-200.000	-0.003	0.295
-329.187	-200.000	0.014	0.119
-328.172	-145.682	0.191	-0.017
-327.158	250.316	0.097	-0.163
-326.143	-200.000	-0.021	0.145
-325.129	518.246	-0.086	0.200
-324.114	-31.223	-0.060	0.034
-323.099	-48.774	-0.036	-0.017
-322.085	54.700	0.110	-0.105
-321.070	131.853	0.152	0.194
-320.056	-61.448	0.206	-0.086
-319.041	-83.597	0.331	-0.105
-318.026	-79.614	0.215	-0.072
-317.012	12.148	0.137	-0.105
-315.997	-0.018	-0.181	0.128
-314.983	183.144	0.172	0.252
-313.968	62.257	-0.133	0.132
-312.953	-200.000	0.002	0.012
-311.939	178.900	0.116	0.169
-310.924	160.185	0.160	0.221
-309.910	26.870	0.204	0.170
-308.895	-155.137	0.225	-0.015
-307.880	800.000	-0.027	-0.093
-306.866	274.450	0.063	-0.111
-305.851	-200.000	-0.001	-0.034
-304.837	-139.872	0.069	0.007
-303.822	619.344	0.131	0.327
-302.807	800.000	-0.040	0.158
-301.793	-200.000	0.033	0.278
-300.778	373.815	-0.090	-0.183
-299.764	320.083	-0.191	0.361
-298.749	-200.000	0.063	0.449
-297.735	38.258	-0.071	0.063
-296.720	-90.153	-0.228	-0.066
-295.705	191.788	0.152	-0.227
-294.691	-79.058	-0.100	0.034
-293.676	157.429	0.023	-0.032
-292.662	-200.000	0.014	0.236
-291.647	-133.035	-0.024	-0.003
-290.632	787.774	-0.080	-0.219
-289.618	88.547	0.048	0.053
-288.603	58.980	-0.176	0.172
-287.589	185.901	-0.108	0.160
-286.574	-200.000	0.053	0.296
-285.559	93.648	-0.121	-0.136
-284.545	119.700	-0.198	0.243
-283.530	678.476	-0.140	0.362
-282.516	-7.488	0.057	0.038
-281.501	-143.178	-0.121	0.012
-280.486	372.624	0.044	-0.089
-279.472	800.000	0.028	-0.106
-278.457	368.696	-0.155	0.312
-277.443	-73.605	0.159	0.057
-276.428	-70.092	0.037	0.014
-275.413	62.469	-0.042	0.042
-274.399	-130.002	0.185	-0.025
-273.384	-14.155	-0.059	0.038
-272.370	800.000	0.041	0.162
-271.355	-93.461	-0.059	0.016
-270.340	-200.000	-0.015	0.083
-269.326	-95.882	0.055	-0.015
-268.311	-155.700	0.427	0.027
-267.297	209.819	0.026	0.041
-266.282	-119.148	-0.227	0.039
-265.267	30.894	0.239	0.203
-264.253	-32.025	-0.357	0.198
-263.238	52.798	-0.310	-0.294
-262.224	-200.000	0.010	0.066
-261.209	-58.023	-0.151	0.065
-260.195	800.000	0.140	0.406
-259.180	-200.000	-0.052	0.228
-258.165	80.007	0.093	-0.099
-257.151	-44.875	-0.045	-0.022
-256.136	611.775	0.085	0.211
-255.122	-200.000	0.024	0.120
-254.107	-52.012	0.171	0.079
-253.092	-75.625	-0.211	-0.074
-252.078	123.555	0.112	0.139
-251.063	800.000	0.058	-0.208
-250.049	-200.000	-0.015	-0.204
-249.034	401.338	0.145	-0.302
-248.019	-200.000	0.007	0.178
-247.005	-104.578	0.229	0.052
-245.990	-17.127	0.084	0.052
-244.976	-122.972	-0.280	0.045
-243.961	-200.000	-0.027	0.211
-242.946	-83.707	0.120	0.038
-241.932	264.112	0.049	0.085
-240.917	-59.263	-0.126	0.054
-239.903	-112.150	-0.306	-0.061
-238.888	55.492	0.147	0.141
-237.873	-88.785	-0.430	0.126
-236.859	-82.091	0.126	-0.041
-235.844	-169.257	-0.311	0.011
-234.830	-8.164	-0.270	-0.180
-233.815	-55.934	-0.030	-0.013
-232.800	-50.938	0.088	0.041
-231.786	13.139	0.140	-0.107
-230.771	800.000	-0.073	0.292
-229.757	-173.231	0.173	-0.005
-228.742	800.000	-0.054	0.167
-227.727	-200.000	0.010	-0.300
-226.713	-119.092	-0.149	-0.026
-225.698	-136.320	0.149	0.017
-224.684	282.441	0.169	-0.300
-223.669	-100.944	-0.255	0.062
-222.655	17.527	-0.051	-0.040
-221.640	110.054	0.159	0.189
-220.625	215.815	-0.043	-0.068
-219.611	-141.458	-0.093	0.009
-218.596	800.000	-0.065	0.208
-217.582	-94.074	-0.164	0.045
-216.567	-16.063	-0.193	-0.121
-215.552	0.111	0.246	-0.174
-214.538	120.529	0.112	-0.137
-213.523	800.000	0.045	-0.140
-212.509	402.456	0.129	0.269
-211.494	-41.591	0.183	-0.093
-210.479	-84.499	0.212	-0.066
-209.465	-200.000	-0.015	0.092
-208.450	-58.898	-0.255	0.109
-207.436	-149.501	0.361	0.028
-206.421	800.000	0.068	0.214
-205.406	-12.525	0.125	-0.081
-204.392	-164.538	0.135	-0.006
-203.377	126.031	-0.076	-0.095
-202.363	47.442	-0.115	0.106
-201.348	253.559	0.170	-0.287
-200.333	219.065	0.090	0.142
-199.319	482.603	0.045	-0.101
-198.304	800.000	-0.053	-0.207
-197.290	-126.211	0.358	0.053
-196.275	-110.550	0.051	-0.011
-195.260	800.000	0.033	-0.094
-194.246	-10.954	0.148	0.097
-193.231	90.296	0.158	-0.175
-192.217	-45.062	0.144	-0.071
-191.202	-77.863	0.164	-0.056
-190.187	363.911	0.138	0.274
-189.173	-32.211	0.132	0.073
-188.158	-94.706	0.141	-0.038
-187.144	-200.000	-0.021	0.228
-186.129	-184.401	-0.055	0.001
-185.114	175.296	-0.111	0.159
-184.100	97.649	-0.263	0.299
-183.085	-200.000	0.013	0.205
-182.071	365.550	0.104	0.208
-181.056	800.000	-0.050	0.200
-180.042	130.536	0.195	0.247
-179.027	-175.403	-0.114	0.003
-178.012	377.427	0.046	-0.092
-176.998	220.422	0.077	-0.122
-175.983	-96.463	-0.088	-0.023
-174.969	46.338	-0.252	0.231
-173.954	800.000	0.118	0.361
-172.939	-71.509	0.134	0.049
-171.925	-70.936	0.330	-0.123
-170.910	443.635	0.153	0.331
-169.896	-166.165	-0.394	0.016
-168.881	159.269	0.099	0.136
-167.866	378.245	-0.177	0.358
-166.852	112.699	-0.026	0.032
-165.837	800.000	-0.016	-0.063
-164.823	-106.835	0.317	-0.069
-163.808	-36.039	-0.240	0.128
-162.793	-84.740	-0.125	0.039
-161.779	-25.368	0.194	0.113
-160.764	28.132	0.157	-0.131
-159.750	715.785	-0.194	-0.509
-158.735	6.988	0.215	-0.158
-157.720	800.000	-0.019	0.059
-156.706	-69.949	-0.069	0.026
-155.691	134.687	-0.134	0.172
-154.677	11.672	-0.160	0.121
-153.662	-107.441	0.158	-0.034
-152.647	-8.467	0.086	0.057
-151.633	152.414	0.101	-0.137
-150.618	-200.000	-0.047	-0.319
-149.604	-116.468	-0.165	0.030
-148.589	-1.349	0.189	0.132
-147.574	-67.251	0.121	0.047
-146.560	606.466	0.037	0.091
-145.545	-136.343	0.090	-0.010
-144.531	14.376	-0.124	-0.096
-143.516	-72.999	-0.091	0.033
-142.502	-45.116	0.198	-0.097
-141.487	-153.473	0.080	-0.005
-140.472	-35.900	0.520	-0.278
-139.458	-118.337	-0.156	0.027
-138.443	-113.469	0.252	-0.049
-137.429	800.000	-0.066	0.194
-136.414	-150.500	-0.176	0.013
-135.399	239.903	-0.177	0.291
-134.385	56.118	0.192	0.184
-133.370	-15.544	0.157	0.099
-132.356	800.000	0.027	0.076
-131.341	-70.215	-0.249	0.093
-130.326	800.000	0.050	-0.211
-129.312	-200.000	0.020	-0.127
-128.297	32.850	0.141	-0.121
-127.283	-93.810	0.243	0.066
-126.268	98.673	0.270	0.307
-125.253	-97.969	-0.242	0.062
-124.239	-144.260	0.193	-0.018
-123.224	800.000	-0.025	-0.104
-122.210	-16.122	0.309	0.193
-121.195	-200.000	0.007	-0.326
-120.180	-39.813	0.108	0.056
-119.166	-200.000	0.034	-0.166
-118.151	-200.000	0.033	-0.278
-117.137	-200.000	-0.029	0.358
-116.122	133.369	-0.101	-0.129
-115.107	411.631	-0.105	0.220
-114.093	-86.440	0.267	0.081
-113.078	-94.791	-0.259	-0.069
-112.064	241.664	0.044	0.072
-111.049	-43.245	-0.181	-0.090
-110.034	-19.017	-0.136	-0.083
-109.020	-100.893	-0.157	-0.038
-108.005	0.084	0.027	0.019
-106.991	34.049	0.158	0.136
-105.976	79.960	0.094	0.099
-104.962	800.000	-0.043	0.144
-103.947	659.992	-0.109	-0.277
-102.932	89.721	0.191	-0.210
-101.918	470.441	0.064	0.143
-100.903	108.801	-0.091	0.107
-99.889	-200.000	0.017	-0.356
-98.874	800.000	-0.033	0.102
-97.859	-200.000	-0.020	-0.240
-96.845	161.207	0.169	-0.233
-95.830	-0.434	0.313	-0.219
-94.816	-90.253	0.253	0.072
-93.801	473.245	-0.120	0.267
-92.786	-47.189	-0.196	0.094
-91.772	-200.000	-0.016	-0.184
-90.757	-52.128	0.176	-0.080
-89.743	-159.590	0.148	-0.008
-88.728	800.000	0.109	-0.369
-87.713	-133.176	-0.232	-0.029
-86.699	800.000	0.091	0.359
-85.684	22.336	-0.190	-0.153
-84.670	-200.000	-0.011	0.059
-83.655	74.439	-0.189	-0.195
-82.640	399.599	-0.054	-0.110
-81.626	278.723	0.132	-0.232
-80.611	800.000	0.054	-0.195
-79.597	302.331	-0.134	0.244
-78.582	-33.452	0.311	-0.169
-77.567	-200.000	0.051	0.231
-76.553	110.685	0.206	0.244
-75.538	800.000	-0.048	-0.201
-74.524	-114.792	-0.141	-0.027
-73.509	-151.885	-0.126	-0.009
-72.494	-200.000	0.003	0.093
-71.480	800.000	0.109	-0.343
-70.465	124.257	0.099	0.123
-69.451	7.500	0.254	-0.187
-68.436	81.271	-0.053	-0.056
-67.422	-84.702	0.373	-0.116
-66.407	-200.000	-0.010	0.293
-65.392	159.227	-0.041	-0.055
-64.378	29.904	0.148	0.124
-63.363	800.000	-0.068	0.235
-62.349	743.059	0.051	-0.135
-61.334	52.390	-1.171	-1.099
-60.319	-11.744	0.730	0.472
-59.305	800.000	0.203	-0.837
-58.290	412.209	0.371	0.776
-57.276	418.718	0.810	1.703
-56.261	-200.000	95.601	591.506
-55.246	570.522	1365.760	3268.918
-54.232	162.860	2538.516	3505.601
-53.217	113.662	2134.738	2550.619
-52.203	44.274	1599.968	1444.135
-51.188	35.840	1338.895	1157.957
-50.173	32.621	1296.994	1102.873
-49.159	54.282	1343.793	1272.119
-48.144	56.593	1360.491	1301.627
-47.130	35.906	1319.827	1141.679
-46.115	32.494	1302.373	1106.522
-45.100	32.304	1297.354	1101.106
-44.086	32.151	1295.118	1098.268
-43.071	32.174	1292.971	1096.537
-42.057	32.101	1290.639	1094.091
-41.042	32.188	1288.749	1092.953
-40.027	32.259	1287.207	1092.011
-39.013	32.215	1285.405	1090.188
-37.998	32.320	1283.776	1089.370
-36.984	32.200	1282.186	1087.282
-35.969	32.352	1280.419	1086.620
-34.954	32.331	1278.909	1085.176
-33.940	32.271	1277.617	1083.691
-32.925	32.317	1275.610	1082.209
-31.911	32.428	1273.995	1081.435
-30.896	32.358	1272.662	1079.857
-29.881	32.294	1271.563	1078.513
-28.867	32.486	1269.602	1077.909
-27.852	32.477	1268.144	1076.576
-26.838	32.377	1267.354	1075.288
-25.823	32.446	1265.670	1074.213
-24.809	32.433	1264.439	1073.054
-23.794	32.348	1263.596	1071.808
-22.779	32.344	1262.023	1070.408
-21.765	32.440	1260.414	1069.551
-20.750	32.288	1259.588	1067.941
-19.736	32.204	1258.229	1066.267
-18.721	32.157	1257.485	1065.331
-17.706	32.295	1255.774	1064.623
-16.692	32.250	1254.937	1063.613
-15.677	32.272	1253.482	1062.464
-14.663	32.191	1252.567	1061.189
-13.648	32.156	1251.424	1059.977
-12.633	32.199	1250.149	1059.102
-11.619	32.212	1249.606	1058.673
-10.604	32.198	1248.844	1057.905
-9.590	32.151	1247.685	1056.616
-8.575	32.151	1246.712	1055.754
-7.560	32.207	1245.695	1055.162
-6.546	32.245	1244.930	1054.685
-5.531	32.175	1244.205	1053.637
-4.517	32.206	1243.229	1052.941
-3.502	32.215	1242.565	1052.386
-2.487	32.150	1241.919	1051.435
-1.473	32.125	1237.398	1047.425
-0.458	30.759	1222.632	1027.353
0.556	27.932	1205.460	990.883
1.571	24.439	1211.784	976.910
2.586	23.592	1226.984	984.376
3.600	23.282	1215.970	973.755
4.615	17.135	1143.652	883.868
5.629	6.894	1066.700	774.369
6.644	2.387	1046.605	738.010
7.659	2.132	1043.842	734.769
8.673	2.083	1042.327	733.402
9.688	1.869	1041.505	731.734
10.702	2.423	1040.039	733.291
11.717	8.997	1049.555	771.643
12.731	19.258	1063.416	831.530
13.746	24.253	1069.527	860.413
14.761	25.322	1070.737	866.469
15.775	25.381	1070.303	866.330
16.790	25.125	1069.651	864.491
17.804	25.111	1068.987	863.808
18.819	25.179	1068.991	864.065
19.834	25.316	1068.159	863.975
20.848	25.490	1067.655	864.327
21.863	25.373	1067.301	863.403
22.877	25.345	1066.651	862.662
23.892	25.213	1066.012	861.438
24.907	25.320	1065.428	861.403
25.921	25.419	1063.797	860.482
26.936	25.308	1062.735	859.015
27.950	25.204	1061.350	857.325
28.965	25.111	1059.169	855.042
29.980	25.169	1057.877	854.201
30.994	25.403	1057.399	854.853
32.009	25.395	1056.076	853.671
33.023	25.132	1054.913	851.406
34.038	25.215	1054.160	851.113
35.053	25.384	1053.661	851.441
36.067	25.378	1052.712	850.569
37.082	25.456	1052.267	850.502
38.096	25.592	1051.503	850.451
39.111	25.690	1050.840	850.306
40.126	25.528	1049.236	848.166
41.140	25.073	1047.731	844.733
42.155	24.891	1046.631	842.914
43.169	25.050	1045.274	842.493
44.184	24.996	1044.577	841.603
45.199	24.951	1043.598	840.526
46.213	24.896	1042.826	839.574
47.228	25.195	1041.943	840.193
48.242	25.174	1041.057	839.305
49.257	25.175	1040.701	838.945
50.271	25.379	1040.040	839.293
51.286	25.403	1039.121	838.590
52.301	25.370	1038.144	837.574
53.315	25.380	1037.162	836.754
54.330	25.274	1036.330	835.516
55.344	25.423	1035.270	835.277
56.359	25.276	1034.594	833.977
57.374	25.183	1033.411	832.516
58.388	25.100	1033.030	831.753
59.403	24.989	1032.223	830.514
60.417	24.803	1031.365	828.887
61.432	24.973	1030.504	828.910
62.447	25.213	1029.977	829.523
63.461	25.178	1029.431	828.849
64.476	25.080	1028.851	827.856
65.490	25.098	1027.289	826.606
66.505	24.999	1026.754	825.645
67.520	25.117	1025.815	825.361
68.534	24.786	1025.714	823.683
69.549	24.678	1023.646	821.456
70.563	24.586	1023.359	820.729
71.578	24.633	1022.682	820.328
72.593	24.401	1021.696	818.400
73.607	24.596	1020.981	818.650
74.622	24.794	1020.857	819.387
75.636	24.926	1020.137	819.339
76.651	24.777	1019.132	817.780
77.666	24.831	1018.141	817.157
78.680	24.845	1017.462	816.602
79.695	24.947	1017.105	816.709
80.709	24.937	1016.645	816.221
81.724	24.869	1015.761	815.133
82.739	24.978	1014.940	814.896
83.753	25.330	1014.778	816.294
84.768	25.724	1013.693	817.139
85.782	25.795	1013.261	817.042
86.797	25.586	1012.016	815.019
87.812	25.530	1010.981	813.857
88.826	25.540	1010.448	813.401
89.841	25.643	1009.213	812.801
90.855	25.616	1008.217	811.805
91.870	25.695	1007.995	811.912
92.884	25.477	1006.760	809.865
93.899	25.536	1005.536	809.073
94.914	25.624	1004.859	808.853
95.928	25.453	1003.728	807.103
96.943	25.180	1002.325	804.676
97.957	24.959	1001.548	802.993
98.972	24.851	1000.278	801.418
99.987	25.121	999.072	801.591
101.001	25.192	999.180	801.924
102.016	25.294	998.115	801.450
103.030	25.262	997.173	800.483
104.045	25.071	996.161	798.746
105.060	24.933	995.146	797.246
106.074	25.035	994.618	797.209
107.089	25.302	994.576	798.291
108.103	25.334	993.273	797.320
109.118	25.005	992.264	794.976
110.133	25.124	990.365	793.911
111.147	24.836	989.306	791.721
112.162	24.882	988.503	791.209
113.176	24.994	988.297	791.471
114.191	24.869	987.842	790.482
115.206	24.519	986.408	787.721
116.220	24.641	985.720	787.643
117.235	24.808	984.969	787.705
118.249	24.681	984.431	786.648
119.264	24.665	983.594	785.842
120.279	24.768	982.728	785.531
121.293	24.825	981.993	785.124
122.308	24.932	980.700	784.490
123.322	24.710	979.830	782.753
124.337	24.533	978.621	780.944
125.352	24.124	977.045	777.828
126.366	24.058	976.243	776.834
127.381	24.748	976.576	780.043
128.395	25.232	975.785	781.452
129.410	25.234	975.186	780.909
130.424	25.203	973.965	779.727
131.439	25.443	972.514	779.537
132.454	25.216	971.867	777.965
133.468	25.298	971.022	777.575
134.483	25.366	970.218	777.158
135.497	25.498	969.465	777.056
136.512	25.547	968.696	776.582
137.527	25.591	967.925	776.085
138.541	25.566	967.251	775.370
139.556	25.524	966.703	774.682
140.570	25.682	965.804	774.573
141.585	25.589	965.344	773.734
142.600	25.545	964.020	772.415
143.614	25.674	963.355	772.368
144.629	25.869	962.266	772.265
145.643	25.530	961.124	769.829
146.658	25.381	959.824	768.083
147.673	25.368	959.125	767.399
148.687	25.463	957.829	766.697
149.702	25.311	957.012	765.328
150.716	25.335	956.110	764.641
151.731	25.303	955.727	764.131
152.746	25.661	955.298	765.243
153.760	25.605	954.681	764.444
154.775	25.758	953.647	764.196
155.789	25.798	952.507	763.386
156.804	25.721	951.845	762.463
157.819	25.712	951.512	762.087
158.833	25.898	950.627	762.099
159.848	25.783	949.761	760.854
160.862	25.782	947.965	759.343
161.877	25.797	946.980	758.548
162.892	25.663	946.725	757.715
163.906	25.792	944.876	756.709
164.921	25.785	944.007	755.917
165.935	25.866	943.214	755.553
166.950	25.719	942.662	754.430
167.964	25.671	941.700	753.393
168.979	25.468	940.817	751.770
169.994	25.457	939.983	750.992
171.008	25.704	939.211	751.337
172.023	25.695	938.374	750.565
173.037	25.576	937.579	749.368
174.052	25.406	936.293	747.567
175.067	25.489	935.612	747.299
176.081	25.473	935.682	747.226
177.096	25.469	934.723	746.375
178.110	25.169	933.788	744.316
179.125	24.957	933.215	742.915
180.140	25.097	932.600	742.941
181.154	25.190	932.518	743.195
182.169	25.567	932.373	744.576
183.183	25.816	931.699	745.002
184.198	25.496	930.899	742.972
185.213	25.574	930.122	742.610
186.227	25.639	929.512	742.325
187.242	25.572	929.129	741.675
188.256	25.625	928.758	741.536
189.271	25.930	927.040	741.349
190.286	25.581	925.967	738.992
191.300	24.769	925.338	735.092
192.315	24.086	923.408	730.690
193.329	24.065	922.646	729.935
194.344	24.921	923.629	734.161
195.359	25.465	923.474	736.204
196.373	25.707	922.642	736.464
197.388	25.498	922.423	735.370
198.402	25.460	921.969	734.789
199.417	25.603	920.865	734.425
200.432	25.417	919.997	732.912
201.446	25.116	919.542	731.255
202.461	25.187	918.634	730.758
203.475	24.267	916.942	725.606
204.490	23.620	915.695	721.921
205.504	24.606	915.802	725.952
206.519	25.045	915.871	727.725
207.534	25.268	915.346	728.147
208.548	25.703	915.595	730.049
209.563	25.328	914.554	727.632
210.577	25.366	913.534	726.912
211.592	25.788	913.496	728.524
212.607	25.724	912.423	727.346
213.621	25.861	911.718	727.271
214.636	25.678	911.569	726.350
215.650	25.617	910.947	725.545
216.665	25.927	909.517	725.591
217.680	25.868	909.081	724.942
218.694	25.353	908.036	721.970
219.709	25.301	907.136	720.982
220.723	25.458	907.481	721.827
221.738	25.603	906.282	721.389
222.753	25.546	905.920	720.807
223.767	25.723	905.309	720.968
224.782	25.876	905.044	721.304
225.796	25.814	904.566	720.613
226.811	25.241	902.708	716.782
227.826	24.619	901.220	713.055
228.840	24.855	900.989	713.750
229.855	24.820	900.783	713.385
230.869	24.444	899.773	711.024
231.884	24.820	899.787	712.470
232.899	25.529	899.586	715.068
233.913	25.376	898.844	713.807
234.928	25.490	897.828	713.390
235.942	25.421	897.901	713.109
236.957	25.228	896.320	711.026
237.972	25.074	896.470	710.471
238.986	25.309	895.572	710.627
240.001	25.141	895.519	709.857
241.015	25.341	894.906	710.101
242.030	25.557	894.147	710.290
243.045	25.692	893.772	710.460
244.059	25.702	893.287	710.053
245.074	25.517	892.451	708.594
246.088	25.113	891.421	706.126
247.103	25.456	891.058	707.124
248.117	25.949	891.552	709.393
249.132	26.306	890.746	710.093
250.147	26.266	890.352	709.559
251.161	26.453	890.073	710.009
252.176	26.470	889.684	709.701
253.190	26.550	888.994	709.403
254.205	26.785	888.544	709.899
255.220	26.608	887.581	708.374
256.234	26.553	886.882	707.540
257.249	26.499	885.935	706.512
258.263	26.558	885.371	706.230
259.278	26.334	885.158	705.123
260.293	26.553	884.614	705.479
261.307	26.357	883.918	704.101
262.322	26.346	882.480	702.850
263.336	25.429	881.037	698.078
264.351	24.519	878.851	692.754
265.366	24.638	878.739	693.065
266.380	25.777	879.424	697.962
267.395	26.012	879.494	698.867
268.409	26.093	878.669	698.464
269.424	26.378	877.555	698.617
270.439	26.334	877.615	698.435
271.453	26.340	876.843	697.781
272.468	26.553	876.763	698.477
273.482	26.638	876.106	698.218
274.497	26.140	874.907	695.285
275.512	25.872	874.173	693.610
276.526	26.206	874.563	695.141
277.541	26.297	873.875	694.886
278.555	25.970	872.994	692.868
279.570	26.004	872.350	692.422
280.585	26.351	871.439	692.970
281.599	26.205	870.553	691.644
282.614	25.578	869.571	688.403
283.628	25.450	869.087	687.472
284.643	25.734	868.970	688.404
285.657	25.531	867.496	686.399
286.672	25.284	866.782	684.830
287.687	25.752	866.923	686.669
288.701	25.805	866.660	686.599
289.716	25.465	865.147	684.046
290.730	25.501	864.699	683.770
291.745	25.176	864.125	682.019
292.760	25.486	863.623	682.742
293.774	26.545	864.058	687.046
294.789	26.911	863.740	688.122
295.803	26.841	863.107	687.290
296.818	26.933	862.150	686.818
297.833	26.340	861.646	684.111
298.847	26.246	860.732	682.970
299.862	26.620	860.568	684.190
300.876	26.659	861.023	684.639
301.891	26.749	859.293	683.544
302.906	26.425	858.549	681.668
303.920	26.559	858.399	681.996
304.935	26.937	858.261	683.249
305.949	26.861	857.485	682.284
306.964	26.534	856.815	680.461
307.979	26.583	856.606	680.419
308.993	26.957	856.189	681.432
310.008	26.936	855.798	680.984
311.022	26.614	854.796	678.919
312.037	26.607	854.001	678.200
313.052	26.372	852.733	676.254
314.066	25.390	851.364	671.440
315.081	25.232	850.863	670.394
316.095	26.025	851.285	673.632
317.110	26.456	851.310	675.199
318.125	25.582	849.735	670.633
319.139	24.548	848.184	665.500
320.154	24.508	847.896	665.065
321.168	25.477	848.256	668.898
322.183	26.147	848.337	671.395
323.197	26.268	847.938	671.472
324.212	26.413	847.827	671.860
325.227	26.774	846.791	672.321
326.241	26.425	846.226	670.519
327.256	26.256	845.784	669.484
328.270	26.452	844.992	669.524
329.285	26.124	843.969	667.440
330.300	25.891	843.529	666.174
331.314	26.124	843.512	666.962
332.329	26.638	843.164	668.523
333.343	26.669	842.667	668.187
334.358	26.703	842.112	667.812
335.373	26.700	841.628	667.358
336.387	26.912	842.176	668.516
337.402	27.091	842.025	668.994
338.416	27.092	841.370	668.417
339.431	27.304	841.030	668.870
340.446	27.322	840.762	668.664
341.460	27.029	840.423	667.258
342.475	27.017	839.721	666.598
343.489	27.041	839.274	666.273
344.504	27.402	838.972	667.295
345.519	27.487	838.823	667.431
346.533	27.415	838.678	666.991
347.548	27.505	837.922	666.663
348.562	27.505	837.298	666.104
349.577	27.332	836.843	665.053
350.592	27.403	835.805	664.428
351.606	27.403	835.181	663.874
352.621	27.334	834.390	662.934
353.635	27.260	833.187	661.652
354.650	26.636	832.000	658.383
355.665	25.615	830.546	653.466
356.679	26.108	830.480	655.146
357.694	26.564	830.164	656.491
358.708	26.360	829.534	655.198
359.723	26.639	829.581	656.186
360.738	27.122	829.093	657.493
361.752	27.289	828.104	657.253
362.767	27.528	828.206	658.139
363.781	27.740	827.928	658.626
364.796	27.869	827.407	658.617
365.810	27.757	827.528	658.252
366.825	27.891	826.998	658.255
367.840	27.508	825.809	655.871
368.854	27.072	825.128	653.704
369.869	27.097	824.620	653.335
370.883	27.207	824.498	653.575
371.898	27.266	823.801	653.177
372.913	27.282	823.466	652.910
373.927	27.408	822.661	652.666
374.942	27.653	822.381	653.265
375.956	27.634	822.180	652.977
376.971	27.781	821.811	653.154
377.986	27.929	821.618	653.473
379.000	27.900	821.111	652.907
380.015	27.615	820.201	651.108
381.029	27.551	819.960	650.631
382.044	27.861	819.216	651.087
383.059	27.892	818.684	650.718
384.073	27.938	818.093	650.357
385.088	27.778	817.605	649.342
386.102	27.505	816.878	647.735
387.117	27.487	816.170	647.051
388.132	27.434	814.699	645.640
389.146	26.678	814.287	642.577
390.161	27.179	814.380	644.369
391.175	27.595	814.233	645.672
392.190	27.193	813.035	643.241
393.205	25.821	811.140	636.839
394.219	24.425	808.784	630.007
395.234	24.174	809.127	629.334
396.248	25.849	810.613	636.355
397.263	27.241	811.531	641.937
398.278	27.352	810.786	641.681
399.292	27.123	809.984	640.186
400.307	27.179	809.605	640.024
401.321	27.255	809.218	639.928
402.336	27.654	809.220	641.279
403.350	27.958	809.194	642.270
404.365	28.296	809.371	643.542
405.380	28.522	808.894	643.900
406.394	28.610	808.288	643.667
407.409	28.539	807.877	643.034
408.423	28.621	807.089	642.638
409.438	28.629	806.956	642.504
410.453	28.506	806.716	641.824
411.467	28.353	806.120	640.757
412.482	28.503	805.525	640.753
413.496	28.593	805.391	640.904
414.511	28.585	804.886	640.420
415.526	28.552	804.202	639.700
416.540	28.398	803.934	638.895
417.555	28.048	802.788	636.708
418.569	28.160	802.518	636.827
419.584	28.342	802.168	637.127
420.599	27.902	801.357	634.898
421.613	111.565	1285.670	1457.611
422.628	96.312	1356.224	1457.734
