DTS Sentinel unit serial number:	SN413079Multiplexer serial number:	ORYXHardware model number:	OX4-SRSoftware version number:	ORYX F/W v4.00 Oryx Data Collector v3.7.2.0data status	okinstallation	princeton_trtdifferential loss correction	single-endedforward channel	channel 1reverse channel	N/Adate	2019/09/12time	07:24:11forward acquisition time	60.00reverse acquisition time	0.00gamma	496.2192k internal	0.2319k external	0.2319temperature offset calibration	1.0048default loss term (dB/km)	0.3790temperature slope calibration	1.0000multiplexer offset coefficient	1.0000multiplexer slope coefficient	1.0000fibre end	0.00T internal ref (°C)	32.37T ext. ref 1 (°C)	1.62T ext. ref 2 (°C)	28.84length (m)	temperature (°C)	Stokes	anti-Stokes-747.200	23.399	-0.302	-0.251
-746.185	-33.997	-0.121	-0.067
-745.171	-200.000	-0.028	0.284
-744.156	800.000	0.178	0.576
-743.142	-33.005	0.121	0.068
-742.127	-155.056	-0.238	0.016
-741.112	-135.570	0.171	-0.021
-740.098	-90.323	-0.099	0.029
-739.083	-200.000	-0.007	-0.259
-738.069	208.475	0.045	0.072
-737.054	-200.000	-0.031	-0.141
-736.039	-139.317	-0.153	-0.017
-735.025	-200.000	0.015	0.365
-734.010	-200.000	-0.011	0.092
-732.996	-123.347	-0.335	-0.054
-731.981	-155.992	-0.212	-0.014
-730.966	-21.315	-0.069	0.043
-729.952	18.546	-0.243	-0.197
-728.937	188.186	-0.062	0.094
-727.923	-150.554	-0.173	0.013
-726.908	-70.404	-0.159	-0.061
-725.894	-200.000	0.008	-0.259
-724.879	78.071	-0.165	-0.178
-723.864	238.344	0.119	0.199
-722.850	65.419	0.065	0.066
-721.835	218.498	-0.062	0.101
-720.821	-116.055	-0.065	-0.012
-719.806	-200.000	-0.020	-0.154
-718.791	-30.748	-0.120	0.068
-717.777	-42.590	-0.452	-0.232
-716.762	333.886	-0.059	-0.115
-715.748	-28.415	0.128	-0.075
-714.733	800.000	0.147	-0.410
-713.718	-164.361	0.102	-0.005
-712.704	46.573	0.200	0.188
-711.689	-200.000	0.024	-0.212
-710.675	-44.691	-0.063	0.032
-709.660	499.119	-0.206	-0.480
-708.645	-53.504	-0.119	-0.055
-707.631	-110.831	0.553	0.115
-706.616	-57.501	0.290	0.129
-705.602	-200.000	0.002	-0.330
-704.587	3.900	-0.265	-0.195
-703.572	392.383	-0.086	0.181
-702.558	52.622	0.101	0.098
-701.543	800.000	-0.121	-0.517
-700.529	-69.190	-0.329	-0.128
-699.514	-200.000	0.009	0.202
-698.499	-48.308	-0.171	-0.083
-697.485	-200.000	-0.008	0.144
-696.470	16.688	0.271	-0.216
-695.456	-105.779	0.139	-0.032
-694.441	-28.246	-0.124	-0.072
-693.426	-107.462	0.174	0.038
-692.412	-102.181	-0.165	-0.040
-691.397	-200.000	-0.022	-0.656
-690.383	50.761	-0.078	-0.074
-689.368	-116.115	0.199	0.037
-688.354	45.421	-0.152	-0.142
-687.339	800.000	0.058	-0.203
-686.324	800.000	-0.088	0.361
-685.310	-200.000	0.026	-0.202
-684.295	142.032	-0.143	0.191
-683.281	-120.445	-0.473	-0.081
-682.266	-48.484	-0.116	-0.056
-681.251	-26.593	0.183	-0.108
-680.237	-8.321	-0.099	-0.067
-679.222	33.726	0.063	-0.055
-678.208	368.280	-0.116	-0.237
-677.193	579.837	-0.127	0.314
-676.178	507.617	-0.167	-0.391
-675.164	100.717	0.186	-0.218
-674.149	-200.000	-0.028	0.228
-673.135	800.000	-0.030	-0.111
-672.120	-70.963	0.360	-0.137
-671.105	-100.898	-0.401	0.099
-670.091	-31.263	-0.137	-0.078
-669.076	26.024	0.066	0.056
-668.062	-200.000	-0.018	-0.316
-667.047	-122.063	0.028	-0.005
-666.032	573.011	0.166	-0.409
-665.018	800.000	0.070	-0.203
-664.003	-153.594	-0.462	-0.032
-662.989	-30.363	-0.109	-0.062
-661.974	800.000	0.120	0.385
-660.959	-1.683	-0.239	-0.170
-659.945	-21.729	-0.065	-0.040
-658.930	147.518	0.110	0.149
-657.916	-200.000	0.020	0.273
-656.901	800.000	-0.069	-0.196
-655.886	162.904	0.077	-0.109
-654.872	-55.514	-0.273	-0.124
-653.857	-37.319	0.263	0.142
-652.843	-200.000	-0.002	-0.178
-651.828	-200.000	-0.028	0.137
-650.814	-200.000	0.019	0.134
-649.799	54.448	0.036	0.035
-648.784	-135.256	0.208	-0.025
-647.770	104.482	0.196	-0.232
-646.755	368.352	0.071	-0.145
-645.741	-200.000	0.004	-0.140
-644.726	-200.000	0.024	-0.184
-643.711	603.473	-0.072	-0.181
-642.697	451.603	0.057	0.126
-641.682	370.883	0.247	-0.505
-640.668	-114.998	-0.158	0.030
-639.653	-200.000	0.013	-0.285
-638.638	-200.000	-0.041	-0.196
-637.624	-47.676	-0.266	-0.130
-636.609	58.899	0.197	0.195
-635.595	100.228	0.287	0.335
-634.580	216.993	0.209	-0.336
-633.565	58.354	-0.271	-0.267
-632.551	800.000	0.024	-0.087
-631.536	-49.446	-0.406	-0.195
-630.522	800.000	0.051	0.161
-629.507	-200.000	-0.021	-0.385
-628.492	-200.000	-0.041	-0.247
-627.478	800.000	0.090	-0.303
-626.463	-200.000	0.002	0.199
-625.449	91.738	0.221	-0.250
-624.434	52.344	-0.162	0.156
-623.419	0.850	0.089	0.064
-622.405	99.515	0.226	0.263
-621.390	-200.000	0.003	0.284
-620.376	68.452	0.057	0.059
-619.361	-58.321	-0.176	-0.077
-618.346	-31.820	-0.234	0.132
-617.332	-200.000	0.019	0.133
-616.317	-76.826	-0.215	-0.076
-615.303	12.082	-0.208	0.161
-614.288	-200.000	0.006	-0.162
-613.273	621.266	0.035	-0.088
-612.259	800.000	-0.036	-0.147
-611.244	59.034	-0.157	0.155
-610.230	16.678	-0.039	0.031
-609.215	310.816	-0.086	0.161
-608.201	224.833	0.035	0.057
-607.186	800.000	0.098	-0.359
-606.171	622.120	-0.074	-0.187
-605.157	-127.986	0.521	0.075
-604.142	39.955	-0.216	0.195
-603.128	221.443	0.069	-0.112
-602.113	-101.619	-0.169	-0.041
-601.098	109.725	-0.226	0.273
-600.084	-200.000	0.039	-0.275
-599.069	-147.379	-0.334	-0.028
-598.055	-112.119	0.108	0.022
-597.040	-200.000	-0.047	-0.262
-596.025	-200.000	-0.041	-0.246
-595.011	328.802	-0.116	-0.224
-593.996	-82.650	0.256	0.083
-592.982	-200.000	0.019	0.129
-591.967	-23.211	0.191	-0.116
-590.952	64.944	0.129	-0.131
-589.938	435.089	-0.050	-0.110
-588.923	526.443	0.139	0.329
-587.909	-200.000	0.009	0.206
-586.894	-21.186	-0.119	-0.073
-585.879	163.385	-0.150	-0.212
-584.865	-200.000	0.013	-0.163
-583.850	-200.000	0.007	0.065
-582.836	-43.806	-0.082	0.041
-581.821	-149.383	0.273	0.022
-580.806	-92.142	0.180	-0.051
-579.792	-86.720	0.148	0.046
-578.777	-66.507	-0.328	-0.131
-577.763	62.708	-0.148	0.149
-576.748	-64.713	-0.422	-0.172
-575.733	-93.408	-0.191	-0.053
-574.719	-200.000	-0.199	-0.000
-573.704	-104.119	-0.224	-0.052
-572.690	-200.000	-0.000	0.016
-571.675	-154.536	-0.155	0.010
-570.661	-44.668	0.090	-0.045
-569.646	26.936	0.238	-0.200
-568.631	-76.740	0.419	-0.148
-567.617	-200.000	-0.051	0.236
-566.602	74.298	0.086	0.090
-565.588	-200.000	-0.010	0.370
-564.573	193.338	-0.131	-0.199
-563.558	161.636	-0.080	-0.112
-562.544	-158.102	-0.207	0.012
-561.529	697.548	-0.056	0.148
-560.515	-128.780	0.325	0.046
-559.500	-55.974	-0.189	-0.085
-558.485	-112.708	-0.006	-0.001
-557.471	-31.734	0.300	-0.169
-556.456	800.000	0.041	-0.171
-555.442	63.166	-0.239	0.241
-554.427	-8.424	-0.185	-0.125
-553.412	-84.682	0.235	0.074
-552.398	-62.076	0.227	0.095
-551.383	-98.397	0.005	0.001
-550.369	383.602	0.155	0.321
-549.354	-200.000	-0.057	-0.395
-548.339	3.937	0.168	-0.123
-547.325	92.737	0.237	-0.268
-546.310	302.751	0.063	-0.116
-545.296	800.000	0.036	-0.119
-544.281	-178.759	0.315	-0.007
-543.266	-57.510	-0.271	0.119
-542.252	-107.200	-0.104	-0.023
-541.237	555.244	-0.049	-0.118
-540.223	-111.016	0.085	-0.017
-539.208	-49.924	0.207	-0.098
-538.193	430.156	-0.085	-0.185
-537.179	78.518	0.117	0.126
-536.164	-200.000	-0.016	-0.208
-535.150	-50.719	-0.107	0.050
-534.135	98.012	0.259	0.299
-533.121	-49.073	-0.223	0.107
-532.106	-200.000	-0.035	0.231
-531.091	-200.000	0.010	0.157
-530.077	-34.519	0.261	0.144
-529.062	72.763	-0.267	0.280
-528.048	-198.335	0.135	0.001
-527.033	-200.000	-0.035	-0.174
-526.018	134.950	-0.103	0.134
-525.004	-59.726	-0.380	0.163
-523.989	-131.532	0.031	0.004
-522.975	111.785	0.033	0.039
-521.960	61.693	-0.233	0.232
-520.945	800.000	-0.018	-0.057
-519.931	-129.649	-0.175	0.024
-518.916	380.915	-0.100	0.206
-517.902	-144.974	0.105	-0.010
-516.887	98.468	-0.178	-0.205
-515.872	-32.526	-0.237	0.133
-514.858	98.852	-0.173	0.200
-513.843	800.000	0.111	-0.484
-512.829	-102.160	-0.284	0.069
-511.814	-160.059	0.262	0.014
-510.799	800.000	0.051	0.202
-509.785	-15.569	-0.167	0.107
-508.770	149.249	-0.342	0.464
-507.756	-155.513	-0.282	-0.018
-506.741	71.164	-0.074	-0.077
-505.726	-97.649	-0.276	0.072
-504.712	-98.744	-0.154	0.039
-503.697	501.075	0.110	0.254
-502.683	-66.725	0.148	-0.059
-501.668	165.664	-0.179	-0.254
-500.653	-15.129	-0.287	-0.184
-499.639	-137.820	0.197	-0.022
-498.624	41.224	-0.247	0.224
-497.610	27.121	-0.134	-0.113
-496.595	800.000	0.104	0.349
-495.581	103.893	0.219	-0.258
-494.566	6.636	0.057	-0.042
-493.551	-113.664	0.291	0.057
-492.537	420.460	-0.038	-0.082
-491.522	-129.429	-0.196	0.027
-490.508	-56.781	0.117	-0.052
-489.493	-200.000	-0.011	0.201
-488.478	19.182	0.114	0.092
-487.464	800.000	-0.119	-0.398
-486.449	-101.118	0.279	-0.069
-485.435	300.374	0.127	0.234
-484.420	800.000	-0.124	0.366
-483.405	-30.971	-0.220	-0.124
-482.391	-20.076	-0.306	-0.189
-481.376	63.322	-0.057	0.057
-480.362	136.411	0.203	-0.265
-479.347	-36.970	0.093	-0.050
-478.332	-135.610	0.152	-0.018
-477.318	-51.496	0.135	0.063
-476.303	800.000	0.049	0.184
-475.289	-179.520	0.300	0.007
-474.274	145.169	-0.199	-0.267
-473.259	-172.813	-0.130	0.004
-472.245	-36.760	0.191	0.103
-471.230	-76.677	-0.256	0.090
-470.216	130.189	-0.386	-0.495
-469.201	98.063	-0.221	-0.255
-468.186	-77.946	0.284	0.098
-467.172	-166.694	0.323	0.013
-466.157	-19.919	0.138	0.085
-465.143	-92.003	-0.118	-0.033
-464.128	37.031	-0.096	-0.085
-463.113	-200.000	0.012	-0.105
-462.099	389.162	-0.073	0.152
-461.084	98.680	0.121	-0.139
-460.070	800.000	-0.072	-0.232
-459.055	-131.395	-0.062	0.008
-458.040	21.317	0.194	0.158
-457.026	240.740	0.137	0.228
-456.011	-200.000	0.061	-0.459
-454.997	185.489	-0.045	-0.067
-453.982	723.193	-0.023	0.060
-452.968	-33.256	-0.257	0.142
-451.953	178.851	0.303	0.443
-450.938	-128.836	-0.498	0.070
-449.924	102.536	-0.064	-0.074
-448.909	-117.006	-0.267	0.049
-447.895	800.000	-0.066	0.240
-446.880	-200.000	0.065	-0.343
-445.865	-200.000	-0.034	-0.351
-444.851	-56.515	0.203	-0.090
-443.836	377.449	0.108	0.220
-442.822	-200.000	-0.024	0.405
-441.807	800.000	-0.049	0.149
-440.792	-107.836	0.221	0.048
-439.778	67.479	0.107	-0.110
-438.763	111.941	-0.115	0.139
-437.749	-80.556	-0.450	0.150
-436.734	-75.086	-0.172	-0.062
-435.719	-78.291	0.219	-0.075
-434.705	100.036	0.091	0.105
-433.690	165.288	-0.266	0.376
-432.676	109.233	-0.079	0.095
-431.661	-1.451	0.176	-0.124
-430.646	51.197	-0.153	0.145
-429.632	-172.163	-0.105	-0.003
-428.617	-146.593	0.270	-0.023
-427.603	800.000	-0.035	-0.123
-426.588	355.411	0.060	-0.120
-425.573	-63.441	-0.293	0.120
-424.559	800.000	0.045	-0.132
-423.544	-111.155	0.310	0.064
-422.530	800.000	0.043	0.132
-421.515	-200.000	-0.035	-0.265
-420.500	-200.000	0.008	-0.222
-419.486	195.222	0.081	-0.124
-418.471	-200.000	-0.030	0.241
-417.457	54.823	-0.129	-0.124
-416.442	5.446	0.263	-0.194
-415.428	800.000	-0.094	-0.327
-414.413	-73.973	-0.310	0.112
-413.398	-13.178	0.186	0.120
-412.384	-200.000	0.053	-0.380
-411.369	45.418	0.082	-0.075
-410.355	-90.415	-0.059	-0.017
-409.340	-114.067	0.266	0.052
-408.325	-148.032	-0.200	-0.017
-407.311	-55.875	-0.093	0.041
-406.296	26.007	0.255	0.212
-405.282	-17.370	-0.133	0.084
-404.267	-200.000	0.014	0.363
-403.252	-4.650	0.368	0.254
-402.238	7.358	0.281	-0.210
-401.223	-200.000	0.035	0.177
-400.209	52.664	-0.058	-0.055
-399.194	-136.934	-0.395	-0.045
-398.179	-76.791	-0.078	-0.027
-397.165	-116.710	-0.233	0.043
-396.150	-58.222	0.215	-0.094
-395.136	800.000	0.081	-0.248
-394.121	-200.000	-0.000	-0.029
-393.106	800.000	0.054	-0.162
-392.092	-200.000	-0.012	0.106
-391.077	43.021	-0.218	0.198
-390.063	-43.984	-0.182	-0.091
-389.048	-69.290	0.097	-0.037
-388.033	-59.801	0.100	0.043
-387.019	70.954	-0.100	-0.103
-386.004	-97.306	-0.341	0.089
-384.990	800.000	-0.026	0.076
-383.975	-91.909	-0.208	-0.059
-382.960	317.251	-0.059	0.111
-381.946	488.593	-0.147	0.335
-380.931	-27.749	-0.226	0.131
-379.917	-6.384	-0.323	-0.220
-378.902	-200.000	0.039	0.187
-377.888	-77.598	0.150	-0.052
-376.873	-119.065	0.207	-0.036
-375.858	433.629	-0.168	-0.364
-374.844	-5.209	-0.040	0.027
-373.829	-67.320	0.157	-0.062
-372.815	-200.000	0.008	-0.075
-371.800	-200.000	0.007	0.264
-370.785	-200.000	0.018	0.094
-369.771	-200.000	0.072	0.434
-368.756	-19.982	0.224	-0.138
-367.742	-73.197	0.181	0.066
-366.727	215.681	0.071	-0.112
-365.712	90.412	0.087	0.097
-364.698	800.000	0.084	-0.286
-363.683	-142.296	-0.107	0.011
-362.669	212.018	0.284	-0.446
-361.654	-200.000	0.036	-0.253
-360.639	29.942	0.132	-0.112
-359.625	389.298	0.114	0.236
-358.610	249.663	-0.064	-0.109
-357.596	97.224	0.174	-0.199
-356.581	-134.292	-0.395	0.048
-355.566	62.608	-0.164	0.163
-354.552	-101.620	-0.078	-0.019
-353.537	-73.108	0.330	-0.121
-352.523	-72.387	0.393	0.145
-351.508	800.000	0.082	0.256
-350.493	-15.336	-0.399	0.254
-349.479	9.373	-0.238	-0.179
-348.464	-109.496	0.344	-0.072
-347.450	-158.222	0.284	0.017
-346.435	-104.559	0.067	0.015
-345.420	61.331	0.104	0.103
-344.406	-94.953	-0.287	0.077
-343.391	-171.430	-0.189	0.006
-342.377	309.832	-0.097	0.182
-341.362	62.115	0.034	-0.034
-340.348	-142.944	-0.152	-0.015
-339.333	-106.887	-0.194	-0.043
-338.318	-200.000	0.026	-0.199
-337.304	293.813	-0.116	0.211
-336.289	-21.551	0.078	0.047
-335.275	437.134	0.180	-0.390
-334.260	86.995	-0.207	-0.228
-333.245	341.309	-0.147	0.286
-332.231	112.270	0.021	-0.025
-331.216	-200.000	-0.029	-0.182
-330.202	50.602	0.035	0.033
-329.187	66.167	0.021	-0.021
-328.172	1.216	0.273	-0.195
-327.158	-200.000	-0.003	0.120
-326.143	-136.276	0.293	-0.034
-325.129	-71.555	0.256	-0.095
-324.114	153.052	-0.151	0.206
-323.099	609.257	-0.129	-0.320
-322.085	101.938	0.245	-0.285
-321.070	-86.696	-0.258	0.079
-320.056	-5.980	-0.226	0.154
-319.041	121.668	0.207	0.256
-318.026	800.000	-0.116	0.402
-317.012	744.122	0.055	-0.146
-315.997	187.850	0.105	0.156
-314.983	-174.773	-0.276	0.008
-313.968	20.491	0.292	-0.235
-312.953	179.674	-0.146	0.213
-311.939	-25.716	0.166	0.097
-310.924	-92.393	-0.123	-0.034
-309.910	422.570	0.055	0.118
-308.895	-200.000	0.305	0.001
-307.880	-51.187	0.243	0.113
-306.866	-96.119	0.273	-0.072
-305.851	800.000	-0.113	-0.429
-304.837	-200.000	-0.014	0.119
-303.822	-39.882	0.068	-0.035
-302.807	-87.599	0.333	0.100
-301.793	10.389	0.145	-0.110
-300.778	-90.773	-0.237	-0.068
-299.764	417.751	0.250	0.531
-298.749	-86.429	-0.280	-0.085
-297.735	-78.039	-0.340	0.116
-296.720	-108.317	0.108	-0.023
-295.705	-200.000	0.020	-0.093
-294.691	-72.130	-0.124	-0.046
-293.676	-200.000	-0.031	0.159
-292.662	432.026	0.044	-0.095
-291.647	149.085	-0.084	0.112
-290.632	-46.335	-0.382	-0.186
-289.618	-200.000	-0.070	-0.353
-288.603	-77.365	0.340	0.118
-287.589	234.085	-0.112	0.183
-286.574	-200.000	-0.001	0.268
-285.559	-144.608	-0.503	-0.046
-284.545	-119.239	0.324	0.056
-283.530	-59.555	0.104	-0.044
-282.516	-158.805	-0.010	-0.001
-281.501	115.040	-0.184	0.223
-280.486	800.000	0.063	0.192
-279.472	800.000	0.041	0.130
-278.457	81.234	-0.182	0.195
-277.443	606.878	0.140	0.346
-276.428	-200.000	-0.021	0.153
-275.413	-143.742	0.243	-0.023
-274.399	-27.817	0.110	0.063
-273.384	95.563	0.063	0.071
-272.370	-200.000	0.017	0.311
-271.355	-196.922	-0.120	0.001
-270.340	-40.847	-0.359	-0.185
-269.326	97.554	0.233	-0.266
-268.311	-72.127	-0.198	-0.073
-267.297	-200.000	0.005	-0.083
-266.282	325.310	0.103	0.196
-265.267	103.411	0.143	0.167
-264.253	95.141	-0.056	0.064
-263.238	-118.006	0.094	0.017
-262.224	800.000	0.016	-0.050
-261.209	800.000	-0.104	0.331
-260.195	236.936	0.165	0.271
-259.180	-10.998	0.100	0.065
-258.165	173.338	0.165	0.236
-257.151	-31.365	-0.121	0.067
-256.136	37.178	-0.183	-0.160
-255.122	19.326	0.300	-0.239
-254.107	101.344	-0.139	0.160
-253.092	138.110	0.132	-0.172
-252.078	-108.220	-0.111	0.024
-251.063	-40.054	0.225	-0.117
-250.049	37.066	-0.143	-0.125
-249.034	-132.208	-0.150	-0.019
-248.019	383.071	-0.106	-0.216
-247.005	-112.942	0.294	-0.058
-245.990	130.803	0.262	0.334
-244.976	517.890	-0.087	-0.201
-243.961	800.000	-0.046	0.180
-242.946	-122.477	0.303	0.049
-241.932	-12.863	0.107	0.069
-240.917	-57.947	0.331	0.143
-239.903	800.000	-0.073	0.263
-238.888	-62.233	-0.102	0.042
-237.873	-200.000	-0.038	0.234
-236.859	2.589	0.146	-0.105
-235.844	-79.781	-0.135	-0.045
-234.830	60.091	-0.281	-0.275
-233.815	800.000	-0.113	0.343
-232.800	150.062	0.104	-0.139
-231.786	800.000	0.040	0.174
-230.771	800.000	0.037	0.133
-229.757	-66.504	0.238	0.094
-228.742	-55.561	-0.027	0.012
-227.727	74.706	0.189	0.197
-226.713	73.437	0.086	-0.089
-225.698	800.000	-0.074	0.229
-224.684	17.626	0.353	-0.279
-223.669	32.063	-0.406	0.347
-222.655	182.482	-0.046	-0.067
-221.640	140.320	-0.083	-0.109
-220.625	-7.541	-0.141	-0.094
-219.611	-116.849	0.276	-0.050
-218.596	-29.504	0.113	0.064
-217.582	165.155	-0.215	-0.301
-216.567	588.073	-0.231	0.565
-215.552	-156.675	-0.140	-0.009
-214.538	-200.000	0.002	-0.076
-213.523	-200.000	0.198	-0.000
-212.509	-200.000	0.024	0.396
-211.494	23.809	-0.247	-0.201
-210.479	292.292	-0.051	-0.091
-209.465	-27.588	-0.205	0.118
-208.450	38.577	-0.081	0.072
-207.436	-71.468	0.267	0.099
-206.421	-113.348	-0.206	0.040
-205.406	-25.091	0.276	-0.162
-204.392	-200.000	0.022	-0.131
-203.377	100.660	0.241	-0.277
-202.363	431.604	0.192	0.412
-201.348	49.698	-0.127	-0.118
-200.333	-166.653	0.214	0.009
-199.319	242.266	0.205	-0.340
-198.304	-10.524	-0.372	-0.244
-197.290	23.473	-0.075	0.061
-196.275	-58.923	-0.030	0.013
-195.260	489.006	0.040	-0.090
-194.246	-200.000	0.136	-0.628
-193.231	0.978	0.175	0.125
-192.217	34.682	-0.027	0.024
-191.202	-200.000	-0.060	-0.397
-190.187	176.715	-0.145	0.208
-189.173	137.301	0.029	-0.038
-188.158	-200.000	-0.018	-0.185
-187.144	-118.253	0.338	-0.060
-186.129	-36.139	0.283	0.151
-185.114	72.287	-0.202	0.209
-184.100	800.000	-0.115	-0.335
-183.085	795.539	0.060	0.163
-182.071	800.000	0.062	-0.255
-181.056	-200.000	-0.006	0.266
-180.042	-200.000	-0.007	0.396
-179.027	339.742	0.101	-0.194
-178.012	45.126	-0.359	-0.328
-176.998	43.233	0.212	0.192
-175.983	174.882	-0.087	0.124
-174.969	-200.000	-0.031	-0.596
-173.954	247.822	0.046	0.077
-172.939	121.319	0.026	0.031
-171.925	-94.859	0.070	0.019
-170.910	-118.221	-0.023	-0.004
-169.896	800.000	-0.046	-0.156
-168.881	28.533	0.222	0.185
-167.866	121.368	-0.068	-0.083
-166.852	-13.122	0.181	-0.117
-165.837	-148.304	0.158	-0.013
-164.823	-101.418	0.182	-0.044
-163.808	-59.330	0.197	0.084
-162.793	800.000	-0.031	-0.111
-161.779	-200.000	-0.025	0.120
-160.764	28.542	0.073	0.061
-159.750	478.982	0.088	0.197
-158.735	-200.000	0.071	0.406
-157.720	126.553	0.153	-0.192
-156.706	102.765	-0.133	0.153
-155.691	-27.933	-0.250	-0.143
-154.677	23.335	-0.058	0.047
-153.662	-146.085	0.100	-0.009
-152.647	-20.606	-0.300	-0.182
-151.633	-119.061	-0.173	0.030
-150.618	-105.662	-0.215	0.048
-149.604	-79.944	-0.131	0.044
-148.589	105.503	-0.179	0.209
-147.574	369.081	-0.045	0.090
-146.560	-200.000	0.028	-0.204
-145.545	-20.495	-0.240	0.146
-144.531	6.056	-0.117	0.086
-143.516	130.977	0.252	0.320
-142.502	499.092	-0.069	-0.156
-141.487	-200.000	0.120	-0.559
-140.472	366.126	-0.079	0.158
-139.458	79.356	-0.197	0.209
-138.443	-200.000	-0.023	0.219
-137.429	89.852	-0.081	-0.090
-136.414	-1.200	-0.061	-0.043
-135.399	-117.581	-0.201	0.036
-134.385	-200.000	0.021	0.124
-133.370	-123.052	0.212	0.034
-132.356	-76.670	-0.200	-0.069
-131.341	800.000	-0.049	0.182
-130.326	-92.214	-0.183	-0.051
-129.312	-70.633	0.150	-0.056
-128.297	800.000	0.024	-0.094
-127.283	635.692	0.147	0.368
-126.268	420.316	-0.120	0.255
-125.253	-13.948	0.126	0.080
-124.239	106.849	-0.086	0.100
-123.224	-62.269	-0.247	-0.102
-122.210	16.898	-0.318	-0.248
-121.195	-160.439	-0.160	0.008
-120.180	115.300	-0.032	-0.038
-119.166	800.000	0.026	-0.082
-118.151	-200.000	0.020	-0.208
-117.137	800.000	-0.050	-0.154
-116.122	-200.000	-0.013	-0.156
-115.107	69.179	-0.218	0.221
-114.093	251.861	0.084	-0.140
-113.078	248.714	-0.118	-0.196
-112.064	-200.000	0.003	0.093
-111.049	83.666	0.152	0.164
-110.034	800.000	-0.055	-0.158
-109.020	800.000	0.032	0.102
-108.005	35.799	-0.189	0.164
-106.991	-200.000	0.052	0.357
-105.976	-96.721	0.500	0.130
-104.962	38.918	0.025	0.022
-103.947	-96.897	0.491	-0.127
-102.932	38.751	0.097	-0.086
-101.918	800.000	-0.047	0.161
-100.903	123.604	0.088	0.109
-99.889	-148.349	0.179	-0.014
-98.874	-169.748	0.184	0.007
-97.859	-80.777	0.135	0.044
-96.845	-42.332	-0.132	0.067
-95.830	-200.000	-0.035	0.393
-94.816	-200.000	-0.023	-0.164
-93.801	-107.023	0.164	0.036
-92.786	53.092	0.209	0.197
-91.772	800.000	-0.021	-0.059
-90.757	-200.000	-0.085	0.422
-89.743	27.183	-0.069	0.057
-88.728	-165.218	0.243	0.011
-87.713	-200.000	-0.007	0.162
-86.699	-169.777	-0.247	0.009
-85.684	193.774	-0.078	-0.116
-84.670	395.434	0.062	0.127
-83.655	324.550	0.103	-0.193
-82.640	154.941	0.317	-0.429
-81.626	36.260	-0.145	-0.126
-80.611	-102.282	0.109	0.026
-79.597	13.700	0.087	0.067
-78.582	-88.239	0.242	0.071
-77.567	-200.000	0.004	-0.024
-76.553	-15.493	0.075	-0.047
-75.538	-200.000	0.000	0.027
-74.524	126.915	0.163	0.203
-73.509	171.387	-0.151	0.214
-72.494	488.873	-0.047	-0.106
-71.480	-6.880	-0.092	-0.062
-70.465	800.000	0.050	0.143
-69.451	800.000	-0.031	-0.133
-68.436	264.380	0.206	-0.354
-67.422	166.665	-0.074	-0.103
-66.407	-62.205	0.289	0.119
-65.392	140.219	-0.246	-0.320
-64.378	-101.635	-0.273	-0.065
-63.363	-200.000	-0.057	0.381
-62.349	-200.000	0.003	-0.082
-61.334	33.378	-1.080	-0.924
-60.319	-82.471	0.446	0.143
-59.305	-200.000	-0.100	-0.984
-58.290	28.068	0.662	0.550
-57.276	508.970	0.724	1.657
-56.261	-200.000	96.943	589.529
-55.246	554.090	1391.779	3296.438
-54.232	157.463	2571.940	3505.639
-53.217	113.472	2150.922	2571.406
-52.203	44.284	1609.193	1454.269
-51.188	35.992	1345.822	1166.266
-50.173	32.667	1303.819	1110.274
-49.159	55.031	1351.122	1285.023
-48.144	57.565	1367.442	1315.647
-47.130	36.070	1326.311	1149.639
-46.115	32.575	1308.975	1113.944
-45.100	32.452	1303.570	1108.577
-44.086	32.280	1301.251	1105.549
-43.071	32.254	1299.124	1103.544
-42.057	32.153	1297.384	1101.431
-41.042	32.278	1295.592	1100.594
-40.027	32.219	1293.875	1098.749
-39.013	32.255	1292.009	1097.329
-37.998	32.394	1289.826	1096.241
-36.984	32.474	1287.965	1095.086
-35.969	32.329	1287.070	1093.434
-34.954	32.387	1285.004	1091.973
-33.940	32.333	1283.858	1090.642
-32.925	32.480	1282.097	1089.957
-31.911	32.437	1281.377	1089.054
-30.896	32.522	1278.827	1087.329
-29.881	32.416	1278.076	1086.037
-28.867	32.505	1276.387	1085.071
-27.852	32.547	1275.010	1084.102
-26.838	32.597	1273.270	1082.867
-25.823	32.438	1272.321	1081.104
-24.809	32.452	1271.047	1080.055
-23.794	32.454	1269.807	1078.973
-22.779	32.491	1268.093	1077.686
-21.765	32.448	1267.133	1076.584
-20.750	32.491	1265.587	1075.472
-19.736	32.388	1264.239	1073.693
-18.721	32.357	1263.201	1072.596
-17.706	32.290	1262.144	1071.274
-16.692	32.339	1260.879	1070.437
-15.677	32.262	1259.594	1068.864
-14.663	32.277	1258.623	1068.083
-13.648	32.337	1257.446	1067.381
-12.633	32.344	1256.507	1066.580
-11.619	32.254	1255.824	1065.452
-10.604	32.268	1254.935	1064.733
-9.590	32.278	1254.062	1064.004
-8.575	32.158	1253.284	1062.625
-7.560	32.360	1252.184	1062.789
-6.546	32.361	1251.464	1062.147
-5.531	32.265	1250.494	1060.736
-4.517	32.264	1249.539	1059.880
-3.502	32.357	1248.497	1059.480
-2.487	32.304	1247.708	1058.470
-1.473	32.215	1243.977	1054.760
-0.458	31.130	1228.933	1035.946
0.556	27.919	1211.894	1000.664
1.571	24.521	1217.078	986.129
2.586	23.712	1231.766	993.418
3.600	22.902	1220.618	979.851
4.615	16.222	1146.217	885.122
5.629	6.150	1069.471	776.267
6.644	1.861	1049.875	741.153
7.659	1.692	1047.237	738.404
8.673	1.461	1045.973	736.331
9.688	1.477	1044.488	735.296
10.702	1.841	1042.306	735.452
11.717	7.696	1051.473	770.295
12.731	18.162	1066.219	832.212
13.746	23.668	1073.799	864.959
14.761	25.029	1074.548	872.115
15.775	25.083	1073.909	871.782
16.790	24.871	1073.164	870.072
17.804	24.660	1072.896	868.751
18.819	24.828	1072.384	869.075
19.834	25.027	1072.088	869.724
20.848	25.134	1071.542	869.725
21.863	25.040	1071.209	868.923
22.877	25.093	1069.989	868.110
23.892	24.973	1069.748	867.257
24.907	25.062	1068.804	866.848
25.921	25.005	1067.752	865.640
26.936	24.841	1067.026	864.182
27.950	24.822	1064.892	862.290
28.965	24.758	1063.173	860.511
29.980	24.779	1061.801	859.426
30.994	25.040	1061.430	860.305
32.009	25.157	1059.787	859.455
33.023	24.810	1058.852	856.961
34.038	24.862	1058.007	856.450
35.053	24.994	1057.173	856.330
36.067	25.074	1056.199	855.847
37.082	25.048	1055.804	855.324
38.096	25.217	1055.540	855.843
39.111	25.256	1054.485	855.099
40.126	25.008	1053.388	852.951
41.140	24.785	1051.062	849.936
42.155	24.587	1050.013	848.072
43.169	24.662	1049.028	847.557
44.184	24.678	1048.154	846.852
45.199	24.518	1047.271	845.304
46.213	24.619	1046.514	845.099
47.228	24.729	1046.119	845.222
48.242	24.871	1044.945	844.871
49.257	24.953	1044.491	844.817
50.271	25.048	1043.488	844.377
51.286	25.004	1042.709	843.463
52.301	25.075	1041.296	842.580
53.315	25.080	1040.431	841.829
54.330	24.796	1040.227	840.258
55.344	24.911	1038.895	839.648
56.359	24.955	1037.917	838.986
57.374	24.778	1037.211	837.513
58.388	24.851	1036.188	836.953
59.403	24.679	1035.437	835.472
60.417	24.612	1034.468	834.301
61.432	24.598	1034.123	833.885
62.447	24.801	1033.548	834.294
63.461	24.795	1032.779	833.570
64.476	24.741	1031.676	832.355
65.490	24.521	1031.125	830.814
66.505	24.725	1029.999	830.780
67.520	24.571	1029.708	829.759
68.534	24.438	1028.648	828.213
69.549	24.234	1027.381	826.172
70.563	24.208	1026.597	825.349
71.578	24.247	1025.424	824.512
72.593	23.986	1024.734	822.680
73.607	24.313	1023.796	823.366
74.622	24.613	1023.801	824.683
75.636	24.565	1023.143	823.854
76.651	24.396	1022.020	822.099
77.666	24.337	1021.349	821.217
78.680	24.404	1020.859	821.059
79.695	24.453	1020.346	820.796
80.709	24.527	1019.978	820.768
81.724	24.550	1018.547	819.649
82.739	24.564	1018.023	819.219
83.753	24.927	1017.681	820.536
84.768	25.299	1016.567	821.269
85.782	25.326	1015.975	820.842
86.797	25.359	1014.766	819.943
87.812	25.015	1014.061	817.729
88.826	25.209	1012.926	817.627
89.841	25.301	1011.869	817.120
90.855	25.270	1011.042	816.238
91.870	25.210	1010.272	815.271
92.884	25.201	1008.739	813.925
93.899	25.031	1008.451	812.848
94.914	25.203	1007.327	812.648
95.928	24.984	1006.206	810.682
96.943	24.768	1005.296	808.901
97.957	24.662	1003.572	806.962
98.972	24.303	1003.228	804.994
99.987	24.719	1002.257	806.021
101.001	24.778	1001.995	806.005
102.016	24.902	1000.932	805.634
103.030	24.913	999.479	804.445
104.045	24.672	998.861	802.793
105.060	24.468	997.753	800.916
106.074	24.725	997.190	801.544
107.089	24.968	996.602	802.091
108.103	24.860	995.312	800.498
109.118	24.727	993.992	798.769
110.133	24.680	993.451	798.057
111.147	24.470	992.233	796.073
112.162	24.365	991.012	794.554
113.176	24.671	990.429	795.377
114.191	24.537	989.570	794.023
115.206	24.248	988.466	791.782
116.220	24.220	987.796	791.051
117.235	24.441	986.833	791.191
118.249	24.292	986.308	790.039
119.264	24.190	985.661	788.997
120.279	24.365	984.323	788.630
121.293	24.419	983.589	788.210
122.308	24.237	983.714	787.439
123.322	24.163	982.341	785.946
124.337	24.129	980.933	784.600
125.352	23.743	979.038	781.316
126.366	23.673	978.214	780.281
127.381	24.481	978.206	783.756
128.395	24.811	978.248	785.167
129.410	24.952	976.953	784.675
130.424	24.918	975.724	783.473
131.439	24.829	975.137	782.540
132.454	24.834	974.293	781.815
133.468	24.815	973.240	780.819
134.483	24.987	972.769	781.122
135.497	25.000	971.794	780.328
136.512	25.106	970.905	780.005
137.527	25.034	970.043	778.932
138.541	25.188	969.473	779.071
139.556	25.258	968.397	778.444
140.570	25.223	967.852	777.786
141.585	25.254	966.681	776.911
142.600	25.150	965.993	775.839
143.614	25.425	965.062	776.211
144.629	25.513	964.443	776.022
145.643	25.253	963.305	773.918
146.658	25.145	962.076	772.395
147.673	24.940	961.417	770.915
148.687	25.018	959.981	770.031
149.702	24.953	958.927	768.838
150.716	24.818	958.721	768.027
151.731	25.100	957.503	768.191
152.746	25.178	957.119	768.150
153.760	25.370	956.158	768.132
154.775	25.483	955.805	768.263
155.789	25.239	955.109	766.593
156.804	25.293	953.997	765.865
157.819	25.300	953.300	765.265
158.833	25.485	952.408	765.271
159.848	25.382	951.531	764.061
160.862	25.330	950.427	762.887
161.877	25.265	949.611	761.887
162.892	25.328	948.579	761.261
163.906	25.162	947.561	759.671
164.921	25.151	946.540	758.740
165.935	25.338	945.871	758.924
166.950	25.372	944.895	758.220
167.964	25.408	944.099	757.665
168.979	25.189	943.326	756.053
169.994	25.116	942.055	754.661
171.008	25.352	941.724	755.322
172.023	25.407	940.917	754.838
173.037	25.067	940.044	752.646
174.052	25.050	938.753	751.474
175.067	25.114	938.217	751.247
176.081	25.081	937.821	750.724
177.096	25.259	936.951	750.706
178.110	24.780	936.094	747.949
179.125	24.706	935.322	746.958
180.140	24.720	935.332	746.961
181.154	24.852	935.081	747.244
182.169	25.218	934.799	748.478
183.183	25.338	934.279	748.497
184.198	25.192	933.357	747.087
185.213	25.182	932.339	746.164
186.227	25.280	932.279	746.454
187.242	25.180	931.663	745.480
188.256	25.373	930.303	745.128
189.271	25.481	930.035	745.295
190.286	25.019	928.792	742.317
191.300	24.490	927.573	739.088
192.315	23.687	925.548	734.094
193.329	23.659	925.455	733.838
194.344	24.521	926.048	737.805
195.359	25.111	925.684	739.887
196.373	25.352	925.244	740.462
197.388	25.101	925.166	739.302
198.402	25.241	924.275	739.103
199.417	25.256	923.206	738.241
200.432	25.080	922.289	736.721
201.446	24.840	921.790	735.272
202.461	24.846	921.314	734.851
203.475	23.897	919.488	729.439
204.490	23.272	917.559	725.285
205.504	24.068	918.396	729.143
206.519	24.689	918.414	731.636
207.534	24.872	918.031	732.016
208.548	25.204	917.970	733.258
209.563	24.952	916.932	731.335
210.577	24.986	916.059	730.713
211.592	25.347	916.208	732.240
212.607	25.413	914.942	731.431
213.621	25.444	913.929	730.683
214.636	25.404	913.702	730.275
215.650	25.237	913.272	729.186
216.665	25.369	912.782	729.268
217.680	25.342	911.796	728.304
218.694	25.197	909.941	726.174
219.709	24.798	909.683	724.286
220.723	25.072	909.563	725.235
221.738	25.213	908.679	725.036
222.753	25.128	908.297	724.325
223.767	25.368	907.433	724.541
224.782	25.552	907.474	725.250
225.796	25.460	907.123	724.535
226.811	24.788	905.532	720.494
227.826	24.026	904.610	716.630
228.840	24.403	903.545	717.238
229.855	24.373	903.205	716.786
230.869	24.040	902.027	714.452
231.884	24.471	902.536	716.522
232.899	25.183	902.452	719.248
233.913	25.107	901.373	718.020
234.928	25.026	900.921	717.270
235.942	25.015	900.009	716.437
236.957	24.567	899.421	714.118
237.972	24.947	898.188	714.592
238.986	24.938	897.925	714.281
240.001	24.937	897.125	713.578
241.015	25.009	897.265	713.915
242.030	25.212	896.590	714.121
243.045	25.133	896.265	713.487
244.059	25.404	895.675	714.029
245.074	25.239	894.524	712.396
246.088	24.738	893.635	709.636
247.103	25.093	893.748	711.072
248.117	25.532	894.038	712.979
249.132	25.858	893.410	713.707
250.147	25.852	893.183	713.439
251.161	26.171	892.343	713.967
252.176	26.084	891.542	712.920
253.190	26.139	891.548	713.078
254.205	26.269	890.767	712.904
255.220	26.308	889.987	712.371
256.234	26.172	889.377	711.283
257.249	26.012	888.565	709.942
258.263	26.043	887.671	709.284
259.278	26.063	887.549	709.206
260.293	26.124	886.738	708.731
261.307	26.048	885.957	707.749
262.322	25.887	885.242	706.484
263.336	25.064	883.237	701.602
264.351	24.150	881.410	696.514
265.366	24.246	881.264	696.715
266.380	25.340	881.643	701.227
267.395	25.652	881.469	702.243
268.409	25.640	880.884	701.670
269.424	25.902	880.358	702.207
270.439	25.782	880.174	701.530
271.453	25.942	879.171	701.292
272.468	26.136	879.234	702.035
273.482	26.135	878.532	701.409
274.497	25.795	876.937	698.753
275.512	25.448	876.309	696.848
276.526	25.809	876.374	698.236
277.541	25.848	875.943	697.983
278.555	25.725	875.407	697.018
279.570	25.737	874.308	696.129
280.585	25.876	873.763	696.170
281.599	25.761	872.640	694.770
282.614	25.052	871.561	691.117
283.628	25.216	871.384	691.548
284.643	25.543	871.211	692.609
285.657	25.102	870.144	690.001
286.672	24.694	869.167	687.595
287.687	25.528	869.210	690.775
288.701	25.377	868.476	689.551
289.716	25.101	867.883	687.960
290.730	24.956	867.322	686.897
291.745	24.858	866.103	685.496
292.760	25.180	865.803	686.431
293.774	26.104	866.858	690.744
294.789	26.483	866.168	691.583
295.803	26.425	865.364	690.659
296.818	26.489	864.756	690.357
297.833	26.099	863.589	687.880
298.847	25.872	862.877	686.385
299.862	26.354	862.626	687.960
300.876	26.406	862.851	688.276
301.891	26.374	862.004	687.419
302.906	25.924	861.048	684.887
303.920	26.030	860.864	685.082
304.935	26.367	860.482	685.998
305.949	26.487	859.677	685.750
306.964	26.122	858.833	683.632
307.979	26.136	858.686	683.508
308.993	26.607	858.293	684.916
310.008	26.496	857.753	684.003
311.022	26.261	857.016	682.471
312.037	26.177	856.323	681.540
313.052	25.697	855.524	679.032
314.066	24.925	853.966	674.828
315.081	24.665	853.503	673.423
316.095	25.515	853.585	676.631
317.110	25.971	853.427	678.162
318.125	25.269	851.819	674.187
319.139	24.260	849.827	668.765
320.154	24.302	849.886	668.912
321.168	25.162	850.143	672.279
322.183	25.764	850.800	674.998
323.197	26.052	850.107	675.465
324.212	26.281	849.687	675.930
325.227	26.102	849.162	674.781
326.241	26.020	848.556	673.934
327.256	25.911	847.891	672.941
328.270	25.963	847.002	672.370
329.285	25.801	846.143	671.024
330.300	25.578	845.111	669.318
331.314	25.717	845.741	670.275
332.329	26.112	845.210	671.264
333.343	26.371	845.143	672.113
334.358	26.316	844.614	671.429
335.373	26.412	844.452	671.598
336.387	26.662	844.273	672.324
337.402	26.756	844.110	672.484
338.416	26.651	843.647	671.667
339.431	26.883	843.560	672.399
340.446	26.916	842.933	671.960
341.460	26.765	842.277	670.819
342.475	26.636	841.562	669.713
343.489	26.722	841.437	669.871
344.504	26.914	841.286	670.402
345.519	27.050	841.182	670.762
346.533	27.151	840.797	670.768
347.548	27.161	839.772	669.929
348.562	27.143	839.384	669.494
349.577	26.995	838.725	668.362
350.592	26.987	838.230	667.880
351.606	27.123	837.371	667.638
352.621	26.943	836.687	666.373
353.635	26.800	835.569	664.898
354.650	26.154	834.204	661.386
355.665	25.313	832.650	657.019
356.679	25.722	832.280	658.167
357.694	26.059	832.223	659.294
358.708	25.965	831.456	658.286
359.723	26.363	831.861	660.001
360.738	26.521	831.608	660.318
361.752	26.748	831.181	660.749
362.767	27.127	830.701	661.690
363.781	27.528	830.163	662.659
364.796	27.521	829.537	662.078
365.810	27.567	829.532	662.182
366.825	27.409	829.282	661.348
367.840	27.130	828.047	659.293
368.854	26.813	826.928	657.196
369.869	26.711	827.045	656.860
370.883	26.880	826.614	657.074
371.898	26.732	825.868	655.885
372.913	26.793	825.876	656.054
373.927	26.920	825.280	655.981
374.942	27.052	824.912	656.110
375.956	27.099	824.649	656.013
376.971	27.255	824.625	656.498
377.986	27.488	823.958	656.749
379.000	27.563	822.750	655.998
380.015	27.264	822.696	654.819
381.029	27.364	822.323	654.824
382.044	27.258	822.005	654.132
383.059	27.295	821.365	653.698
384.073	27.375	820.529	653.261
385.088	27.409	819.370	652.402
386.102	27.102	819.169	651.085
387.117	27.197	818.276	650.658
388.132	26.737	817.598	648.416
389.146	26.293	816.431	645.847
390.161	26.658	816.439	647.100
391.175	27.119	816.157	648.467
392.190	26.752	815.339	646.450
393.205	25.368	813.377	639.911
394.219	23.974	811.093	633.100
395.234	23.812	811.387	632.695
396.248	25.566	812.573	639.812
397.263	26.978	813.379	645.414
398.278	26.914	812.845	644.706
399.292	26.599	812.228	643.039
400.307	26.674	811.818	642.923
401.321	26.845	811.395	643.140
402.336	27.058	811.712	644.089
403.350	27.539	811.571	645.627
404.365	27.723	811.530	646.186
405.380	28.108	811.147	647.188
406.394	28.093	810.508	646.569
407.409	28.116	809.635	645.897
408.423	28.063	809.312	645.393
409.438	28.182	809.385	645.814
410.453	28.134	808.951	645.240
411.467	28.052	808.292	644.372
412.482	28.267	807.663	644.568
413.496	28.181	807.430	644.025
414.511	28.166	807.106	643.654
415.526	28.201	806.618	643.331
416.540	28.025	805.816	642.019
417.555	27.649	805.220	640.167
418.569	27.897	805.015	640.816
419.584	27.809	804.405	639.968
420.599	27.592	803.681	638.574
421.613	110.185	1285.813	1457.670
422.628	95.096	1356.064	1457.768
