DTS Sentinel unit serial number:	SN413079Multiplexer serial number:	ORYXHardware model number:	OX4-SRSoftware version number:	ORYX F/W v4.00 Oryx Data Collector v3.7.2.0data status	okinstallation	princeton_trtdifferential loss correction	single-endedforward channel	channel 1reverse channel	N/Adate	2019/09/11time	01:08:11forward acquisition time	60.00reverse acquisition time	0.00gamma	496.2192k internal	0.2331k external	0.2331temperature offset calibration	0.9929default loss term (dB/km)	0.3790temperature slope calibration	1.0000multiplexer offset coefficient	1.0000multiplexer slope coefficient	1.0000fibre end	0.00T internal ref (°C)	29.12T ext. ref 1 (°C)	-0.32T ext. ref 2 (°C)	23.10length (m)	temperature (°C)	Stokes	anti-Stokes-747.200	-124.687	0.241	-0.038
-746.185	-200.000	-0.015	0.238
-745.171	-149.466	0.370	-0.030
-744.156	-200.000	0.036	-0.391
-743.142	-29.597	-0.308	-0.177
-742.127	-125.133	-0.341	-0.053
-741.112	210.033	-0.150	0.237
-740.098	-94.472	0.216	0.059
-739.083	-84.546	0.069	-0.022
-738.069	-102.384	0.091	-0.022
-737.054	-28.365	-0.317	-0.184
-736.039	-71.123	-0.362	-0.137
-735.025	21.574	0.142	-0.117
-734.010	-164.226	-0.160	0.007
-732.996	-200.000	-0.027	-0.245
-731.981	281.243	0.097	-0.174
-730.966	156.564	0.130	0.180
-729.952	-17.674	0.142	0.090
-728.937	450.887	-0.107	0.237
-727.923	-81.279	-0.032	-0.011
-726.908	95.406	-0.093	-0.106
-725.894	-130.174	-0.557	-0.076
-724.879	223.435	0.065	0.106
-723.864	-178.726	-0.129	-0.003
-722.850	800.000	0.007	0.025
-721.835	-71.597	-0.243	0.091
-720.821	-113.613	0.169	0.033
-719.806	800.000	-0.069	-0.198
-718.791	200.448	0.084	-0.130
-717.777	800.000	0.033	0.102
-716.762	108.973	-0.183	-0.220
-715.748	-200.000	-0.025	-0.147
-714.733	222.375	0.276	0.446
-713.718	362.648	-0.080	-0.162
-712.704	61.795	0.139	-0.139
-711.689	444.465	0.035	0.077
-710.675	183.913	0.126	-0.187
-709.660	746.530	-0.151	-0.408
-708.645	-134.086	0.441	-0.055
-707.631	800.000	-0.094	0.326
-706.616	179.911	0.167	0.246
-705.602	56.741	0.350	-0.342
-704.587	58.135	-0.157	-0.155
-703.572	213.885	-0.195	-0.309
-702.558	800.000	-0.033	0.132
-701.543	320.565	-0.036	0.069
-700.529	82.755	0.051	0.055
-699.514	800.000	0.081	-0.324
-698.499	55.740	0.156	0.152
-697.485	305.032	-0.048	0.090
-696.470	-154.379	-0.214	0.014
-695.456	224.423	-0.070	0.114
-694.441	-200.000	-0.014	0.070
-693.426	354.991	0.112	0.224
-692.412	-200.000	0.001	0.179
-691.397	-55.192	-0.076	0.034
-690.383	52.143	-0.122	0.117
-689.368	-24.706	0.063	0.037
-688.354	477.109	-0.040	-0.090
-687.339	-72.193	-0.335	-0.125
-686.324	-80.291	-0.267	0.090
-685.310	129.878	0.148	-0.191
-684.295	293.354	-0.067	0.122
-683.281	-200.000	0.002	-0.246
-682.266	-57.592	0.075	-0.033
-681.251	-27.810	0.167	0.097
-680.237	75.302	0.139	0.147
-679.222	221.137	-0.037	0.059
-678.208	118.002	-0.176	-0.218
-677.193	-64.872	-0.304	-0.123
-676.178	800.000	0.109	-0.366
-675.164	403.047	0.200	0.423
-674.149	-69.461	0.332	0.128
-673.135	-75.771	-0.327	0.117
-672.120	800.000	-0.090	-0.271
-671.105	-152.912	-0.222	-0.016
-670.091	-74.743	0.252	0.091
-669.076	82.730	0.184	-0.201
-668.062	346.338	-0.030	0.059
-667.047	-88.006	0.052	-0.016
-666.032	-147.829	-0.129	-0.011
-665.018	800.000	-0.030	0.120
-664.003	789.324	0.018	-0.049
-662.989	-75.029	-0.178	-0.064
-661.974	478.570	0.093	0.210
-660.959	218.093	-0.090	-0.144
-659.945	-4.465	-0.354	0.246
-658.930	-35.674	0.066	-0.036
-657.916	205.459	-0.253	-0.394
-656.901	225.366	0.164	-0.266
-655.886	-79.786	-0.128	0.043
-654.872	-200.000	-0.016	0.139
-653.857	-43.569	-0.141	-0.071
-652.843	40.040	0.124	-0.112
-651.828	350.696	-0.102	0.202
-650.814	60.945	0.291	-0.290
-649.799	282.514	-0.089	0.160
-648.784	-200.000	0.011	-0.120
-647.770	128.215	0.098	0.124
-646.755	-126.212	0.043	0.007
-645.741	104.680	-0.289	-0.341
-644.726	-20.140	0.435	-0.269
-643.711	502.402	-0.041	-0.095
-642.697	-200.000	0.048	-0.315
-641.682	-200.000	0.046	-0.380
-640.668	15.748	0.363	-0.286
-639.653	648.567	-0.027	0.069
-638.638	-200.000	-0.009	0.310
-637.624	287.839	0.143	-0.259
-636.609	-104.379	0.230	-0.053
-635.595	334.617	-0.072	-0.139
-634.580	-200.000	0.003	0.032
-633.565	-101.944	-0.347	-0.084
-632.551	563.941	0.253	0.615
-631.536	-57.919	-0.014	0.006
-630.522	56.380	-0.200	0.195
-629.507	-200.000	-0.034	0.261
-628.492	159.784	0.071	-0.099
-627.478	800.000	0.040	-0.118
-626.463	-51.989	-0.044	0.020
-625.449	-26.117	0.104	0.061
-624.434	169.873	0.033	-0.048
-623.419	-101.093	-0.199	-0.049
-622.405	-102.391	-0.252	0.060
-621.390	-200.000	-0.006	0.215
-620.376	271.108	-0.119	-0.211
-619.361	193.004	0.149	-0.226
-618.346	800.000	-0.016	0.059
-617.332	-124.008	-0.234	0.037
-616.317	88.237	-0.154	-0.172
-615.303	-200.000	-0.007	0.059
-614.288	23.597	-0.381	-0.314
-613.273	43.327	0.083	0.076
-612.259	-200.000	0.056	-0.400
-611.244	3.460	-0.142	0.104
-610.230	293.746	0.031	-0.056
-609.215	168.305	-0.156	0.222
-608.201	227.322	-0.103	-0.167
-607.186	800.000	-0.117	0.330
-606.171	107.660	-0.008	-0.010
-605.157	680.872	0.126	-0.330
-604.142	221.869	-0.088	-0.142
-603.128	449.822	-0.084	-0.185
-602.113	315.746	-0.136	0.257
-601.098	-200.000	-0.009	0.073
-600.084	191.992	0.095	-0.143
-599.069	-107.323	-0.040	-0.009
-598.055	22.998	-0.240	-0.197
-597.040	-77.240	0.288	-0.100
-596.025	-46.724	-0.268	0.131
-595.011	-96.621	-0.396	-0.105
-593.996	-200.000	0.001	-0.020
-592.982	197.315	0.085	0.130
-591.967	-108.022	0.164	0.036
-590.952	-183.734	-0.347	-0.006
-589.938	-43.355	-0.089	-0.045
-588.923	-200.000	-0.046	0.281
-587.909	-200.000	0.012	-0.151
-586.894	-134.488	0.166	-0.020
-585.879	64.249	0.067	-0.068
-584.865	292.389	0.102	-0.186
-583.850	151.632	-0.115	0.157
-582.836	-157.884	-0.123	-0.007
-581.821	-162.950	-0.101	-0.005
-580.806	-83.738	-0.186	-0.059
-579.792	135.618	-0.170	-0.221
-578.777	476.587	0.083	0.188
-577.763	36.471	0.106	-0.093
-576.748	35.984	-0.177	-0.156
-575.733	-85.899	-0.254	0.079
-574.719	200.573	-0.122	0.187
-573.704	-158.163	-0.449	-0.026
-572.690	326.845	0.038	-0.073
-571.675	-200.000	0.015	0.267
-570.661	800.000	-0.079	-0.300
-569.646	-200.000	-0.002	0.075
-568.631	-146.182	-0.224	-0.020
-567.617	-200.000	0.063	-0.399
-566.602	-200.000	-0.006	0.031
-565.588	-36.628	0.167	0.090
-564.573	-141.372	-0.272	-0.028
-563.558	43.953	-0.092	0.084
-562.544	301.319	-0.081	0.150
-561.529	154.987	0.116	0.159
-560.515	-92.714	-0.113	-0.032
-559.500	63.132	-0.134	-0.134
-558.485	-69.300	-0.121	-0.046
-557.471	-140.012	0.196	0.021
-556.456	-200.000	-0.016	0.108
-555.442	800.000	-0.047	-0.148
-554.427	-60.612	0.275	0.116
-553.412	43.080	-0.223	-0.203
-552.398	-128.978	-0.248	0.035
-551.383	-154.729	-0.307	-0.020
-550.369	-200.000	0.070	-0.381
-549.354	-200.000	-0.010	0.237
-548.339	-200.000	0.022	0.267
-547.325	27.737	-0.168	0.142
-546.310	800.000	-0.053	-0.229
-545.296	800.000	0.046	0.189
-544.281	32.739	0.253	0.219
-543.266	-200.000	-0.038	-0.208
-542.252	254.187	0.106	-0.182
-541.237	68.966	0.138	0.142
-540.223	593.646	-0.072	0.177
-539.208	-26.434	0.151	-0.089
-538.193	35.116	-0.204	-0.179
-537.179	130.639	0.233	-0.299
-536.164	176.760	-0.162	-0.235
-535.150	16.090	0.043	-0.034
-534.135	98.548	0.087	0.100
-533.121	-127.476	0.317	0.046
-532.106	-200.000	0.041	0.234
-531.091	-200.000	-0.008	0.133
-530.077	-109.988	-0.257	0.054
-529.062	20.200	0.282	-0.227
-528.048	-101.580	-0.157	0.038
-527.033	-167.690	-0.361	-0.014
-526.018	98.732	-0.041	-0.047
-525.004	204.018	-0.102	-0.158
-523.989	800.000	-0.034	-0.117
-522.975	52.716	-0.276	0.263
-521.960	511.575	0.106	0.246
-520.945	60.438	0.132	0.131
-519.931	-200.000	0.032	-0.214
-518.916	-42.664	0.272	-0.138
-517.902	-200.000	-0.002	-0.035
-516.887	800.000	-0.024	0.074
-515.872	-200.000	-0.004	0.061
-514.858	-200.000	0.022	-0.363
-513.843	-124.774	-0.349	-0.054
-512.829	-97.983	-0.161	-0.041
-511.814	-200.000	0.033	-0.167
-510.799	49.541	-0.304	0.286
-509.785	787.310	0.082	-0.225
-508.770	-163.152	0.309	0.015
-507.756	800.000	0.071	-0.289
-506.741	160.033	0.203	0.282
-505.726	-37.235	-0.248	0.132
-504.712	-130.513	0.393	-0.053
-503.697	668.669	-0.150	0.386
-502.683	656.899	0.022	-0.057
-501.668	-101.756	0.001	-0.000
-500.653	-80.468	-0.121	-0.040
-499.639	800.000	-0.075	-0.244
-498.624	249.559	0.109	0.185
-497.610	486.517	-0.058	-0.132
-496.595	-45.881	-0.140	-0.069
-495.581	800.000	-0.034	-0.142
-494.566	-87.505	0.191	-0.058
-493.551	-129.984	0.216	-0.030
-492.537	-200.000	-0.028	-0.126
-491.522	-200.000	0.036	-0.203
-490.508	800.000	-0.079	-0.277
-489.493	-48.264	0.041	0.019
-488.478	241.697	-0.092	-0.154
-487.464	-200.000	0.003	0.171
-486.449	47.761	0.053	0.049
-485.435	800.000	-0.087	-0.305
-484.420	112.738	-0.063	0.076
-483.405	-200.000	0.008	0.179
-482.391	-142.260	0.305	-0.030
-481.376	102.347	0.179	-0.208
-480.362	164.218	-0.041	0.058
-479.347	23.722	0.257	0.211
-478.332	-54.292	0.254	-0.115
-477.318	-88.854	-0.163	0.048
-476.303	-161.951	-0.103	0.005
-475.289	201.108	-0.067	0.103
-474.274	148.080	-0.036	0.048
-473.259	-200.000	0.002	0.042
-472.245	-200.000	-0.053	-0.253
-471.230	-146.653	0.127	-0.011
-470.216	-163.985	0.109	0.005
-469.201	-29.028	0.331	0.189
-468.186	-85.958	0.279	0.086
-467.172	800.000	-0.130	-0.361
-466.157	-108.064	0.040	-0.009
-465.143	17.496	-0.034	0.027
-464.128	-111.528	-0.470	0.095
-463.113	800.000	0.071	-0.293
-462.099	250.712	0.204	0.345
-461.084	119.280	-0.110	0.136
-460.070	-98.799	-0.218	-0.055
-459.055	-114.940	-0.070	-0.013
-458.040	-179.452	0.191	-0.004
-457.026	-103.898	-0.316	0.074
-456.011	-53.246	0.051	0.023
-454.997	-200.000	-0.047	-0.369
-453.982	-200.000	-0.042	0.282
-452.968	137.331	0.317	0.412
-451.953	-200.000	-0.007	-0.281
-450.938	146.290	-0.040	-0.054
-449.924	16.428	-0.014	0.011
-448.909	0.539	-0.120	0.085
-447.895	150.501	-0.225	0.304
-446.880	-200.000	0.010	0.251
-445.865	31.609	-0.268	-0.230
-444.851	-150.449	0.262	-0.020
-443.836	-62.347	-0.290	-0.120
-442.822	446.045	0.193	-0.423
-441.807	146.574	0.028	-0.038
-440.792	-200.000	-0.002	0.025
-439.778	-40.659	0.152	0.078
-438.763	-70.332	0.182	-0.069
-437.749	84.800	0.213	-0.232
-436.734	-163.179	0.242	-0.012
-435.719	-35.267	-0.226	-0.122
-434.705	198.628	0.071	0.108
-433.690	-26.129	0.270	-0.158
-432.676	800.000	0.086	-0.324
-431.661	256.794	0.165	-0.282
-430.646	98.537	0.103	-0.118
-429.632	-98.221	-0.074	0.019
-428.617	-82.445	0.299	-0.096
-427.603	-100.905	-0.422	-0.103
-426.588	-55.407	0.351	0.157
-425.573	-200.000	-0.016	-0.259
-424.559	-116.588	-0.126	-0.023
-423.544	-74.696	0.095	0.034
-422.530	-46.122	-0.158	-0.077
-421.515	104.335	-0.285	-0.334
-420.500	347.995	0.176	-0.344
-419.486	-200.000	-0.010	0.082
-418.471	-20.072	-0.297	-0.182
-417.457	-68.473	0.413	0.159
-416.442	-115.651	-0.104	0.019
-415.428	90.002	-0.071	0.079
-414.413	-172.427	0.029	0.001
-413.398	-86.988	0.088	0.027
-412.384	-200.000	0.003	0.089
-411.369	8.508	-0.085	0.064
-410.355	-26.479	0.333	-0.194
-409.340	44.285	0.210	-0.191
-408.325	-9.678	0.179	0.119
-407.311	-125.769	0.194	-0.029
-406.296	-200.000	-0.021	-0.095
-405.282	487.384	-0.049	0.112
-404.267	800.000	0.097	0.413
-403.252	656.947	0.151	-0.386
-402.238	77.359	0.148	-0.156
-401.223	-4.373	-0.260	0.178
-400.209	-200.000	0.027	0.231
-399.194	-25.063	-0.408	-0.240
-398.179	8.265	-0.076	-0.057
-397.165	-200.000	-0.010	-0.135
-396.150	-200.000	0.015	-0.177
-395.136	-93.114	-0.333	0.092
-394.121	-200.000	0.028	-0.194
-393.106	-19.937	0.230	0.141
-392.092	-48.352	-0.345	-0.165
-391.077	230.042	-0.159	0.257
-390.063	89.506	0.209	-0.232
-389.048	132.320	-0.150	-0.192
-388.033	-141.151	0.089	-0.009
-387.019	-16.612	-0.116	-0.073
-386.004	-192.362	0.288	0.003
-384.990	113.697	0.217	-0.261
-383.975	-135.187	-0.234	0.028
-382.960	-200.000	0.020	0.188
-381.946	-23.189	0.277	-0.166
-380.931	-8.963	-0.222	0.147
-379.917	-43.172	0.086	-0.043
-378.902	-200.000	-0.048	0.261
-377.888	96.457	0.237	-0.269
-376.873	-70.557	-0.254	-0.095
-375.858	52.645	-0.038	-0.036
-374.844	22.569	0.252	-0.205
-373.829	-36.197	0.234	0.125
-372.815	263.676	-0.216	0.373
-371.800	-200.000	0.002	0.291
-370.785	434.457	-0.166	-0.358
-369.771	-200.000	-0.022	0.125
-368.756	-39.537	-0.186	0.097
-367.742	375.829	0.093	-0.187
-366.727	-160.382	0.156	0.008
-365.712	-120.334	-0.152	-0.026
-364.698	284.596	0.179	0.320
-363.683	-160.312	-0.131	0.007
-362.669	-150.149	0.270	0.021
-361.654	-15.594	-0.173	-0.110
-360.639	97.495	0.095	-0.109
-359.625	260.898	-0.171	0.293
-358.610	757.584	0.068	-0.182
-357.596	-43.966	-0.112	-0.056
-356.581	-200.000	0.021	-0.150
-355.566	28.792	0.085	0.071
-354.552	-93.112	0.285	-0.079
-353.537	358.525	-0.202	0.399
-352.523	147.117	0.299	0.398
-351.508	-65.718	0.232	0.092
-350.493	72.350	0.060	-0.062
-349.479	-32.547	0.120	0.066
-348.464	103.788	-0.204	0.238
-347.450	-50.725	-0.223	0.104
-346.435	-88.400	-0.212	0.063
-345.420	-69.632	-0.281	0.107
-344.406	-0.684	0.111	-0.078
-343.391	91.517	0.283	-0.315
-342.377	224.835	-0.096	0.154
-341.362	-174.389	0.140	-0.004
-340.348	800.000	-0.073	0.237
-339.333	800.000	0.052	-0.159
-338.318	-200.000	0.002	-0.055
-337.304	-200.000	0.011	0.049
-336.289	-105.336	0.141	-0.032
-335.275	-200.000	0.027	0.242
-334.260	332.476	0.112	0.214
-333.245	800.000	0.080	-0.270
-332.231	800.000	-0.041	-0.139
-331.216	-153.400	-0.032	-0.002
-330.202	335.143	-0.124	0.237
-329.187	-200.000	0.024	0.256
-328.172	153.579	-0.066	-0.090
-327.158	-70.612	-0.267	0.100
-326.143	800.000	0.087	-0.250
-325.129	-100.518	-0.332	0.081
-324.114	-0.834	0.069	0.048
-323.099	-200.000	0.025	0.209
-322.085	800.000	-0.080	0.336
-321.070	-27.446	0.134	0.077
-320.056	152.928	-0.107	0.144
-319.041	115.610	-0.163	0.197
-318.026	-83.542	-0.054	0.017
-317.012	301.731	-0.099	0.180
-315.997	27.000	0.376	0.312
-314.983	-200.000	0.039	-0.202
-313.968	9.734	0.300	-0.225
-312.953	-182.129	0.328	0.006
-311.939	-175.087	-0.388	0.011
-310.924	-120.096	-0.440	0.075
-309.910	-200.000	0.010	-0.066
-308.895	-130.173	-0.264	-0.036
-307.880	-112.512	0.154	0.030
-306.866	205.519	-0.150	0.231
-305.851	48.422	0.115	-0.106
-304.837	467.167	-0.129	-0.285
-303.822	-24.927	0.263	-0.154
-302.807	-163.196	0.103	-0.005
-301.793	544.813	-0.052	0.122
-300.778	74.612	0.126	0.131
-299.764	-94.664	0.312	-0.084
-298.749	-86.190	0.432	-0.132
-297.735	370.769	-0.104	0.209
-296.720	-200.000	-0.043	0.334
-295.705	-29.432	-0.070	0.039
-294.691	-52.767	0.253	-0.115
-293.676	159.604	0.032	-0.044
-292.662	-135.288	-0.103	0.012
-291.647	260.491	0.129	0.221
-290.632	-200.000	-0.021	0.127
-289.618	-200.000	-0.022	-0.142
-288.603	51.953	-0.156	-0.147
-287.589	-200.000	0.018	0.211
-286.574	34.501	0.237	0.204
-285.559	603.376	0.037	-0.091
-284.545	-12.015	-0.120	0.078
-283.530	-140.748	0.039	0.004
-282.516	800.000	-0.056	0.210
-281.501	364.291	0.049	0.098
-280.486	-133.317	-0.310	0.039
-279.472	-200.000	0.078	0.339
-278.457	-200.000	0.040	0.181
-277.443	800.000	-0.081	0.318
-276.428	-57.036	0.314	0.137
-275.413	157.235	-0.327	-0.446
-274.399	-62.068	0.328	0.135
-273.384	-108.858	-0.133	-0.028
-272.370	800.000	0.080	-0.334
-271.355	250.495	0.106	-0.177
-270.340	465.122	0.084	-0.186
-269.326	396.630	-0.125	0.259
-268.311	569.218	-0.036	0.087
-267.297	-106.867	-0.471	0.103
-266.282	-200.000	-0.009	0.174
-265.267	-84.604	0.072	-0.022
-264.253	-59.408	0.084	0.036
-263.238	-200.000	0.047	0.332
-262.224	-105.400	0.204	0.046
-261.209	800.000	-0.074	0.205
-260.195	800.000	0.039	-0.122
-259.180	-191.958	-0.295	-0.003
-258.165	-20.419	0.262	0.159
-257.151	-138.459	-0.100	0.011
-256.136	-200.000	0.035	0.391
-255.122	99.745	0.311	-0.355
-254.107	-200.000	-0.014	-0.082
-253.092	-108.806	-0.329	0.069
-252.078	-200.000	-0.045	0.209
-251.063	-200.000	-0.045	-0.226
-250.049	-58.003	0.213	0.092
-249.034	-200.000	-0.010	0.184
-248.019	-200.000	-0.017	-0.159
-247.005	-122.782	0.272	-0.043
-245.990	-164.133	-0.137	0.006
-244.976	-113.598	0.484	0.093
-243.961	-46.089	-0.188	0.092
-242.946	-200.000	0.043	0.264
-241.932	-47.538	-0.304	-0.146
-240.917	800.000	-0.011	0.040
-239.903	800.000	-0.070	0.219
-238.888	170.887	-0.139	-0.196
-237.873	155.464	0.054	0.073
-236.859	75.445	-0.247	-0.258
-235.844	-131.468	0.425	0.055
-234.830	-115.246	-0.262	-0.049
-233.815	97.147	0.049	-0.055
-232.800	143.241	0.134	0.176
-231.786	-143.504	0.177	0.017
-230.771	-116.306	0.288	0.053
-229.757	20.751	-0.085	-0.068
-228.742	-82.615	0.212	-0.068
-227.727	-200.000	-0.021	-0.111
-226.713	-89.158	0.192	0.056
-225.698	-85.383	0.129	-0.040
-224.684	-119.932	-0.055	-0.009
-223.669	61.449	0.074	0.073
-222.655	-128.575	0.225	0.031
-221.640	-132.669	-0.261	0.033
-220.625	-67.551	-0.288	-0.111
-219.611	-200.000	-0.029	-0.215
-218.596	-21.536	0.189	-0.113
-217.582	31.353	-0.060	0.051
-216.567	-63.568	-0.187	-0.076
-215.552	-163.464	-0.099	0.005
-214.538	-146.103	0.371	-0.032
-213.523	14.938	-0.134	-0.103
-212.509	67.051	-0.263	-0.264
-211.494	-8.785	-0.106	0.070
-210.479	-26.476	0.148	0.086
-209.465	545.950	0.173	0.408
-208.450	800.000	-0.068	0.246
-207.436	-8.479	-0.112	-0.074
-206.421	125.921	-0.050	-0.063
-205.406	111.650	0.261	0.310
-204.392	-65.925	-0.147	0.058
-203.377	800.000	-0.052	0.167
-202.363	-200.000	-0.013	0.081
-201.348	17.898	0.144	0.113
-200.333	800.000	-0.121	-0.345
-199.319	-147.221	0.334	-0.028
-198.304	800.000	0.084	-0.295
-197.290	329.621	0.100	-0.190
-196.275	24.529	0.195	-0.159
-195.260	451.834	-0.071	-0.154
-194.246	-171.260	0.197	0.007
-193.231	284.253	-0.086	-0.153
-192.217	-69.089	0.220	0.083
-191.202	-200.000	-0.004	0.147
-190.187	264.323	0.039	0.067
-189.173	37.491	-0.081	0.071
-188.158	115.052	-0.128	0.154
-187.144	-23.742	-0.431	0.254
-186.129	-3.882	0.181	0.124
-185.114	-169.121	0.143	0.005
-184.100	-200.000	0.003	0.078
-183.085	-61.509	0.122	0.050
-182.071	-120.037	0.205	0.035
-181.056	-29.978	-0.170	0.095
-180.042	280.666	0.173	0.304
-179.027	128.660	-0.125	0.157
-178.012	37.538	0.131	-0.114
-176.998	-200.000	-0.002	0.025
-175.983	30.941	-0.313	0.264
-174.969	201.284	0.175	-0.265
-173.954	800.000	0.071	0.198
-172.939	204.552	0.215	0.328
-171.925	-200.000	-0.028	0.253
-170.910	-200.000	0.010	-0.090
-169.896	701.522	-0.085	0.219
-168.881	-74.892	-0.446	-0.157
-167.866	-107.813	0.334	0.072
-166.852	141.078	0.305	-0.397
-165.837	-200.000	-0.034	0.249
-164.823	-179.886	-0.318	0.007
-163.808	72.261	-0.262	-0.269
-162.793	-200.000	0.026	0.365
-161.779	-200.000	0.009	0.116
-160.764	-200.000	-0.010	-0.315
-159.750	-14.307	0.076	-0.048
-158.735	-78.613	0.400	-0.135
-157.720	800.000	-0.028	0.100
-156.706	10.666	-0.216	0.162
-155.691	800.000	-0.049	-0.147
-154.677	138.488	0.327	-0.422
-153.662	-157.162	-0.363	0.022
-152.647	-181.043	0.121	0.002
-151.633	110.368	-0.163	0.192
-150.618	-200.000	-0.017	-0.090
-149.604	-200.000	-0.007	-0.116
-148.589	251.126	-0.096	-0.161
-147.574	-91.292	-0.223	0.063
-146.560	-86.168	0.280	-0.085
-145.545	-55.731	-0.163	-0.072
-144.531	118.252	-0.039	0.047
-143.516	-200.000	-0.231	0.000
-142.502	-200.000	-0.004	0.093
-141.487	27.608	-0.200	0.166
-140.472	-200.000	-0.041	-0.324
-139.458	-111.027	0.296	0.060
-138.443	145.961	0.038	0.051
-137.429	-200.000	0.092	-0.527
-136.414	-88.833	-0.186	0.054
-135.399	-50.427	-0.231	0.107
-134.385	141.648	0.255	-0.332
-133.370	135.286	-0.062	0.079
-132.356	-200.000	-0.003	0.224
-131.341	-132.487	0.249	0.031
-130.326	-200.000	0.014	0.061
-129.312	-65.148	-0.132	-0.052
-128.297	-200.000	0.013	-0.113
-127.283	-155.771	-0.180	-0.011
-126.268	-200.000	0.002	-0.150
-125.253	800.000	0.034	0.096
-124.239	-115.703	-0.054	-0.010
-123.224	666.517	-0.071	-0.180
-122.210	-44.674	0.493	-0.242
-121.195	-63.263	0.223	0.090
-120.180	78.135	-0.110	-0.116
-119.166	28.201	-0.086	-0.071
-118.151	63.622	0.169	-0.167
-117.137	71.742	-0.185	-0.189
-116.122	28.096	-0.105	-0.087
-115.107	-200.000	-0.001	-0.209
-114.093	800.000	0.083	-0.232
-113.078	626.008	-0.075	-0.185
-112.064	-74.945	0.273	0.096
-111.049	224.249	0.126	0.199
-110.034	-14.009	0.174	0.110
-109.020	800.000	-0.095	-0.351
-108.005	-17.309	0.170	0.105
-106.991	-200.000	-0.005	-0.118
-105.976	538.935	0.105	0.244
-104.962	-200.000	-0.015	0.327
-103.947	233.984	0.099	0.159
-102.932	-110.907	-0.215	-0.044
-101.918	-193.652	-0.158	-0.001
-100.903	577.901	0.043	-0.104
-99.889	800.000	-0.125	-0.375
-98.874	-18.640	-0.124	-0.076
-97.859	76.896	0.189	0.197
-96.845	62.978	0.033	0.033
-95.830	392.801	0.151	0.308
-94.816	10.617	-0.021	-0.016
-93.801	-200.000	-0.028	0.157
-92.786	130.936	-0.078	0.099
-91.772	-151.967	0.259	-0.019
-90.757	-200.000	-0.044	0.394
-89.743	76.373	0.164	0.170
-88.728	71.641	0.063	-0.064
-87.713	-46.222	0.203	0.098
-86.699	147.737	-0.084	-0.112
-85.684	646.153	-0.148	0.370
-84.670	-15.536	-0.158	-0.099
-83.655	-99.303	0.079	0.020
-82.640	39.462	0.077	0.068
-81.626	-200.000	-0.016	0.205
-80.611	800.000	-0.063	-0.260
-79.597	800.000	-0.069	-0.210
-78.582	-4.664	-0.322	-0.218
-77.567	-57.301	0.451	0.194
-76.553	297.994	-0.076	-0.137
-75.538	204.236	0.134	0.203
-74.524	190.067	0.144	0.212
-73.509	-83.221	-0.375	-0.118
-72.494	61.765	-0.319	-0.312
-71.480	131.974	0.036	-0.045
-70.465	-43.880	-0.055	-0.027
-69.451	-48.971	0.251	-0.118
-68.436	787.204	0.084	-0.225
-67.422	-72.604	0.017	-0.006
-66.407	198.738	-0.081	0.121
-65.392	-104.905	0.236	-0.053
-64.378	-51.516	-0.291	-0.133
-63.363	153.253	-0.188	0.252
-62.349	-96.933	-0.049	-0.012
-61.334	100.478	-0.916	-1.042
-60.319	77.095	0.209	0.218
-59.305	133.239	-0.598	-0.758
-58.290	800.000	0.586	1.636
-57.276	800.000	0.527	1.438
-56.261	-200.000	107.762	629.552
-55.246	523.238	1516.940	3492.200
-54.232	175.809	2704.872	3844.615
-53.217	111.972	2161.129	2557.432
-52.203	41.118	1599.548	1415.609
-51.188	32.719	1337.176	1133.150
-50.173	29.405	1296.645	1079.407
-49.159	53.644	1351.431	1270.492
-48.144	53.907	1366.206	1285.900
-47.130	32.742	1320.284	1118.790
-46.115	29.392	1302.821	1084.300
-45.100	29.092	1298.162	1078.623
-44.086	29.029	1295.308	1075.840
-43.071	28.978	1293.503	1073.998
-42.057	29.025	1290.854	1072.027
-41.042	29.090	1289.328	1071.099
-40.027	29.199	1287.869	1070.477
-39.013	29.125	1285.534	1068.066
-37.998	29.026	1284.084	1066.243
-36.984	29.150	1282.065	1065.244
-35.969	29.160	1280.842	1064.245
-34.954	29.173	1278.753	1062.536
-33.940	29.075	1277.783	1061.128
-32.925	29.210	1276.415	1060.723
-31.911	29.136	1274.950	1059.037
-30.896	29.279	1273.385	1058.519
-29.881	29.310	1272.053	1057.547
-28.867	29.385	1270.472	1056.622
-27.852	29.255	1268.903	1054.532
-26.838	29.261	1267.392	1053.269
-25.823	29.138	1266.891	1052.106
-24.809	29.179	1265.286	1050.964
-23.794	29.169	1263.611	1049.474
-22.779	29.193	1262.702	1048.817
-21.765	29.153	1261.615	1047.642
-20.750	29.307	1259.973	1047.111
-19.736	29.037	1258.756	1044.529
-18.721	29.136	1257.791	1044.248
-17.706	29.128	1256.349	1042.963
-16.692	29.078	1255.658	1042.063
-15.677	29.100	1254.343	1041.059
-14.663	29.060	1253.141	1039.794
-13.648	29.036	1252.372	1038.980
-12.633	29.030	1251.438	1038.127
-11.619	29.025	1250.380	1037.182
-10.604	28.995	1249.588	1036.315
-9.590	29.125	1248.503	1036.102
-8.575	28.956	1247.637	1034.393
-7.560	29.013	1246.749	1033.936
-6.546	28.998	1246.209	1033.365
-5.531	29.079	1245.252	1032.987
-4.517	29.116	1244.446	1032.482
-3.502	29.099	1243.551	1031.603
-2.487	29.050	1242.365	1030.302
-1.473	29.018	1238.375	1026.776
-0.458	27.564	1223.593	1006.457
0.556	21.979	1206.017	969.874
1.571	18.489	1212.200	955.343
2.586	17.709	1226.559	962.176
3.600	17.713	1215.903	953.752
4.615	12.871	1144.629	872.208
5.629	4.011	1070.886	771.924
6.644	-0.073	1050.862	737.413
7.659	-0.351	1048.633	734.421
8.673	-0.392	1047.440	733.318
9.688	-0.463	1046.283	732.096
10.702	-0.049	1044.063	732.499
11.717	5.554	1052.368	765.723
12.731	14.445	1065.477	819.059
13.746	19.037	1071.179	846.004
14.761	20.057	1071.747	851.393
15.775	20.079	1071.187	850.980
16.790	19.843	1070.597	849.278
17.804	19.729	1070.099	848.249
18.819	19.921	1069.539	848.667
19.834	20.022	1069.054	848.704
20.848	19.956	1068.953	848.227
21.863	19.978	1067.934	847.450
22.877	19.914	1067.283	846.544
23.892	19.862	1066.858	845.880
24.907	19.967	1066.258	845.841
25.921	19.962	1064.897	844.660
26.936	19.901	1063.641	843.294
27.950	19.882	1062.080	841.891
28.965	19.666	1059.837	838.990
29.980	19.670	1058.508	837.879
30.994	20.072	1057.321	838.813
32.009	19.979	1056.020	837.261
33.023	19.796	1054.711	835.265
34.038	19.930	1054.212	835.440
35.053	19.952	1053.816	835.161
36.067	20.043	1052.707	834.646
37.082	20.090	1051.801	834.078
38.096	20.209	1051.596	834.413
39.111	20.185	1050.155	833.082
40.126	20.083	1048.854	831.488
41.140	19.887	1046.900	828.926
42.155	19.667	1045.447	826.651
43.169	19.795	1044.464	826.410
44.184	19.809	1043.973	826.015
45.199	19.713	1042.491	824.315
46.213	19.621	1041.475	823.000
47.228	19.680	1041.450	823.188
48.242	19.807	1039.801	822.413
49.257	19.987	1039.187	822.710
50.271	20.071	1038.199	822.256
51.286	20.059	1037.210	821.343
52.301	20.240	1035.877	821.072
53.315	20.072	1035.063	819.556
54.330	19.918	1034.149	818.033
55.344	19.927	1033.721	817.667
56.359	19.896	1032.760	816.688
57.374	19.789	1032.043	815.546
58.388	19.874	1030.886	814.958
59.403	19.630	1030.574	813.490
60.417	19.620	1029.271	812.343
61.432	19.779	1028.645	812.525
62.447	19.802	1027.956	812.015
63.461	19.788	1027.326	811.381
64.476	19.871	1025.638	810.366
65.490	19.733	1025.261	809.347
66.505	19.747	1024.751	808.938
67.520	19.769	1024.313	808.624
68.534	19.677	1022.809	806.935
69.549	19.411	1021.648	804.710
70.563	19.383	1020.824	803.859
71.578	19.482	1019.670	803.337
72.593	19.320	1019.120	802.082
73.607	19.441	1018.513	802.097
74.622	19.788	1018.139	803.342
75.636	19.744	1017.608	802.645
76.651	19.543	1016.248	800.573
77.666	19.405	1015.739	799.461
78.680	19.502	1015.570	799.704
79.695	19.571	1014.714	799.281
80.709	19.629	1013.629	798.626
81.724	19.595	1013.126	797.998
82.739	19.637	1012.850	797.906
83.753	19.999	1011.491	798.434
84.768	20.243	1010.779	798.926
85.782	20.228	1009.963	798.139
86.797	20.279	1008.684	797.292
87.812	20.073	1007.940	795.687
88.826	20.299	1006.766	795.725
89.841	20.314	1005.759	794.930
90.855	20.333	1004.678	794.092
91.870	20.167	1004.275	792.942
92.884	20.030	1003.032	791.268
93.899	20.085	1002.229	790.815
94.914	20.114	1001.854	790.580
95.928	20.057	1000.028	788.809
96.943	19.846	998.682	786.720
97.957	19.550	997.632	784.478
98.972	19.515	996.556	783.403
99.987	19.622	996.006	783.390
101.001	19.818	995.278	783.632
102.016	19.928	994.830	783.709
103.030	19.871	993.361	782.224
104.045	19.535	992.399	779.881
105.060	19.573	991.364	779.172
106.074	19.708	990.735	779.217
107.089	20.212	989.963	780.811
108.103	20.008	988.820	778.921
109.118	19.722	988.197	777.076
110.133	19.814	986.959	776.449
111.147	19.716	985.468	774.765
112.162	19.554	984.676	773.349
113.176	19.731	984.173	773.680
114.191	19.590	983.121	772.150
115.206	19.113	982.294	769.304
116.220	19.233	981.391	769.063
117.235	19.494	980.239	769.258
118.249	19.471	979.414	768.440
119.264	19.414	978.830	767.657
120.279	19.540	977.535	767.134
121.293	19.489	977.253	766.619
122.308	19.554	976.762	766.456
123.322	19.490	974.707	764.490
124.337	19.415	973.496	763.140
125.352	18.946	971.564	759.491
126.366	18.973	970.865	758.996
127.381	19.585	970.963	761.704
128.395	19.999	970.494	763.091
129.410	20.037	969.115	762.108
130.424	20.046	968.483	761.586
131.439	20.074	967.428	760.809
132.454	19.937	967.152	759.926
133.468	19.911	965.868	758.733
134.483	19.988	964.952	758.284
135.497	20.136	964.393	758.426
136.512	20.310	962.936	757.970
137.527	20.083	962.572	756.627
138.541	20.193	961.724	756.374
139.556	20.121	960.752	755.231
140.570	20.219	960.108	755.084
141.585	20.101	959.230	753.812
142.600	20.256	957.599	753.138
143.614	20.372	957.636	753.604
144.629	20.439	956.905	753.250
145.643	20.346	955.337	751.548
146.658	20.053	954.418	749.490
147.673	20.128	953.182	748.780
148.687	20.094	952.012	747.648
149.702	20.012	951.444	746.781
150.716	20.046	950.314	745.975
151.731	20.164	949.602	745.857
152.746	20.208	949.165	745.638
153.760	20.378	948.470	745.755
154.775	20.439	947.613	745.278
155.789	20.474	946.472	744.464
156.804	20.303	945.911	743.223
157.819	20.390	945.060	742.861
158.833	20.516	944.315	742.749
159.848	20.497	943.138	741.676
160.862	20.266	942.077	739.789
161.877	20.346	941.457	739.579
162.892	20.416	940.611	739.146
163.906	20.374	939.327	737.894
164.921	20.286	938.428	736.749
165.935	20.417	937.530	736.534
166.950	20.352	937.027	735.801
167.964	20.433	935.856	735.159
168.979	20.213	934.992	733.483
169.994	20.182	933.853	732.395
171.008	20.503	932.933	732.961
172.023	20.435	932.231	732.058
173.037	20.180	930.961	729.926
174.052	19.965	930.274	728.417
175.067	20.262	929.350	728.875
176.081	20.358	929.010	728.950
177.096	20.172	928.455	727.667
178.110	19.925	927.171	725.560
179.125	19.815	926.379	724.418
180.140	19.910	926.290	724.684
181.154	20.042	925.648	724.666
182.169	20.229	925.977	725.645
183.183	20.421	925.357	725.896
184.198	20.367	924.200	724.700
185.213	20.373	923.266	723.927
186.227	20.359	922.892	723.510
187.242	20.396	921.888	722.813
188.256	20.526	920.964	722.568
189.271	20.522	920.095	721.805
190.286	20.111	919.156	719.297
191.300	19.727	917.656	716.470
192.315	19.052	916.167	712.452
193.329	18.928	915.982	711.728
194.344	19.741	916.743	715.623
195.359	20.246	916.255	717.270
196.373	20.391	915.625	717.311
197.388	20.212	914.724	715.802
198.402	20.305	914.364	715.841
199.417	20.150	913.847	714.732
200.432	19.981	912.155	712.651
201.446	19.701	912.197	711.472
202.461	19.769	911.305	710.993
203.475	18.977	909.530	706.293
204.490	18.425	908.108	702.862
205.504	19.396	908.819	707.333
206.519	19.802	908.843	708.953
207.534	19.887	908.169	708.712
208.548	20.336	907.589	710.035
209.563	20.051	907.189	708.494
210.577	20.031	906.173	707.556
211.592	20.379	905.888	708.694
212.607	20.521	904.477	708.105
213.621	20.438	904.075	707.388
214.636	20.484	903.554	707.107
215.650	20.451	902.492	706.078
216.665	20.417	902.508	705.890
217.680	20.342	901.109	704.427
218.694	20.104	899.885	702.446
219.709	19.884	899.547	701.228
220.723	20.302	899.007	702.435
221.738	20.316	898.368	701.932
222.753	20.273	897.935	701.360
223.767	20.332	897.693	701.345
224.782	20.692	897.224	702.372
225.796	20.561	896.660	701.339
226.811	19.806	895.145	697.051
227.826	19.315	893.903	694.045
228.840	19.646	893.185	694.759
229.855	19.649	892.536	694.202
230.869	19.142	891.692	691.449
231.884	19.639	891.738	693.418
232.899	20.357	891.634	696.157
233.913	20.393	890.391	695.270
234.928	20.357	889.703	694.526
235.942	20.290	889.344	693.915
236.957	20.006	888.385	691.972
237.972	19.977	887.878	691.400
238.986	20.028	887.238	691.043
240.001	20.086	886.653	690.760
241.015	20.194	886.180	690.761
242.030	20.293	885.475	690.542
243.045	20.363	885.087	690.456
244.059	20.345	884.900	690.181
245.074	20.164	883.715	688.476
246.088	19.937	882.484	686.556
247.103	20.300	882.498	687.945
248.117	20.673	882.609	689.450
249.132	20.898	881.786	689.634
250.147	21.021	881.080	689.508
251.161	21.149	880.976	689.873
252.176	21.102	879.824	688.722
253.190	21.112	879.402	688.373
254.205	21.106	879.558	688.408
255.220	21.200	878.737	688.077
256.234	21.034	877.954	686.747
257.249	20.962	876.416	685.203
258.263	21.009	875.771	684.822
259.278	21.146	875.228	684.874
260.293	21.062	875.069	684.359
261.307	21.016	874.225	683.457
262.322	20.938	873.091	682.205
263.336	19.964	871.582	677.161
264.351	19.084	869.246	671.850
265.366	19.240	869.272	672.419
266.380	20.294	870.133	677.142
267.395	20.677	869.647	678.197
268.409	20.718	868.553	677.443
269.424	20.923	868.169	677.881
270.439	20.908	867.437	677.193
271.453	21.028	866.939	677.209
272.468	21.243	866.609	677.726
273.482	21.268	866.269	677.497
274.497	20.922	864.774	674.929
275.512	20.428	864.044	672.388
276.526	20.888	864.268	674.281
277.541	21.063	863.441	674.255
278.555	20.793	862.324	672.281
279.570	20.584	861.505	670.775
280.585	20.756	861.113	671.075
281.599	20.783	860.176	670.389
282.614	20.347	858.803	667.584
283.628	20.294	858.293	666.924
284.643	20.683	858.251	668.327
285.657	20.300	856.763	665.638
286.672	19.898	856.362	663.727
287.687	20.658	856.535	666.715
288.701	20.523	855.899	665.646
289.716	20.301	854.815	663.893
290.730	20.097	854.461	662.782
291.745	19.925	853.300	661.165
292.760	20.269	853.463	662.546
293.774	21.224	853.673	666.296
294.789	21.466	853.450	666.988
295.803	21.509	852.549	666.386
296.818	21.573	851.777	665.970
297.833	21.208	850.440	663.476
298.847	21.144	849.858	662.719
299.862	21.253	850.095	663.263
300.876	21.621	849.509	664.144
301.891	21.515	848.563	662.943
302.906	20.883	848.124	660.146
303.920	21.120	847.367	660.396
304.935	21.426	847.646	661.712
305.949	21.396	846.527	660.667
306.964	21.185	845.686	659.156
307.979	21.294	845.660	659.490
308.993	21.770	845.336	660.972
310.008	21.527	844.546	659.383
311.022	21.337	843.757	657.993
312.037	21.194	843.248	656.999
313.052	20.968	842.260	655.320
314.066	20.286	840.863	651.616
315.081	20.074	839.958	650.060
316.095	20.825	840.543	653.275
317.110	21.037	840.319	653.838
318.125	20.374	838.493	649.879
319.139	19.513	836.996	645.443
320.154	19.537	837.415	645.799
321.168	20.335	837.579	648.852
322.183	20.909	837.425	650.820
323.197	21.149	836.946	651.287
324.212	21.497	836.305	652.028
325.227	21.385	835.854	651.199
326.241	21.316	835.196	650.374
327.256	21.229	834.183	649.203
328.270	21.096	833.962	648.479
329.285	20.857	833.340	647.052
330.300	20.672	832.292	645.493
331.314	20.846	832.094	645.927
332.329	21.240	831.929	647.203
333.343	21.468	831.509	647.663
334.358	21.400	830.810	646.813
335.373	21.450	830.728	646.872
336.387	21.717	830.700	647.782
337.402	21.795	830.037	647.496
338.416	21.713	830.165	647.236
339.431	21.642	829.967	646.762
340.446	21.866	829.255	646.978
341.460	21.791	828.751	646.250
342.475	21.684	828.361	645.495
343.489	21.753	827.689	645.167
344.504	22.019	827.542	645.973
345.519	22.108	827.194	645.972
346.533	22.226	826.585	645.873
347.548	22.144	826.091	645.131
348.562	22.333	825.030	644.938
349.577	22.177	825.031	644.309
350.592	22.115	823.937	643.170
351.606	22.053	823.688	642.692
352.621	22.133	822.309	641.850
353.635	21.895	821.872	640.583
354.650	21.231	820.388	636.949
355.665	20.432	818.666	632.649
356.679	20.898	818.729	634.339
357.694	21.074	818.770	634.953
358.708	21.239	817.596	634.587
359.723	21.650	817.511	635.956
360.738	22.029	817.063	636.927
361.752	21.909	816.842	636.266
362.767	22.031	817.003	636.774
363.781	22.322	816.104	637.072
364.796	22.438	815.793	637.194
365.810	22.501	815.281	636.964
366.825	22.445	815.058	636.531
367.840	22.279	814.092	635.121
368.854	21.876	812.864	632.655
369.869	21.844	812.908	632.517
370.883	21.890	812.580	632.372
371.898	21.708	811.848	631.089
372.913	21.901	811.473	631.439
373.927	21.959	811.220	631.393
374.942	22.201	810.714	631.816
375.956	22.234	810.325	631.572
376.971	22.300	810.048	631.539
377.986	22.462	809.671	631.769
379.000	22.349	809.064	630.835
380.015	22.201	808.454	629.774
381.029	22.340	807.554	629.516
382.044	22.468	807.304	629.722
383.059	22.457	806.791	629.224
384.073	22.535	806.324	629.086
385.088	22.439	806.063	628.484
386.102	22.252	805.237	627.117
387.117	22.240	804.259	626.255
388.132	21.812	803.502	624.088
389.146	21.395	802.548	621.810
390.161	21.746	802.396	622.886
391.175	22.176	802.467	624.411
392.190	21.728	801.255	621.824
393.205	20.522	799.241	615.936
394.219	19.159	797.661	609.838
395.234	19.289	797.474	610.103
396.248	20.804	798.549	616.239
397.263	22.080	799.606	621.516
398.278	22.161	798.792	621.113
399.292	21.902	798.161	619.653
400.307	21.833	798.384	619.528
401.321	22.010	797.363	619.307
402.336	22.300	797.433	620.329
403.350	22.685	797.270	621.502
404.365	22.881	796.946	621.888
405.380	23.030	796.798	622.243
406.394	23.127	795.772	621.726
407.409	22.866	795.644	620.653
408.423	22.982	795.143	620.616
409.438	23.055	795.221	620.877
410.453	23.129	794.942	620.863
411.467	23.010	794.032	619.682
412.482	23.292	793.402	620.120
413.496	23.264	793.108	619.741
414.511	23.278	792.812	619.502
415.526	23.156	792.406	618.705
416.540	22.964	791.167	617.010
417.555	22.745	790.877	615.967
418.569	22.775	790.770	615.932
419.584	22.692	790.002	614.991
420.599	22.614	789.300	614.118
421.613	158.121	1364.382	1798.246
422.628	136.931	1448.163	1798.337
