DTS Sentinel unit serial number:	SN413079Multiplexer serial number:	ORYXHardware model number:	OX4-SRSoftware version number:	ORYX F/W v4.00 Oryx Data Collector v3.7.2.0data status	okinstallation	princeton_trtdifferential loss correction	single-endedforward channel	channel 1reverse channel	N/Adate	2019/09/11time	00:32:11forward acquisition time	60.00reverse acquisition time	0.00gamma	496.2192k internal	0.2332k external	0.2332temperature offset calibration	0.9927default loss term (dB/km)	0.3790temperature slope calibration	1.0000multiplexer offset coefficient	1.0000multiplexer slope coefficient	1.0000fibre end	0.00T internal ref (°C)	29.25T ext. ref 1 (°C)	-0.32T ext. ref 2 (°C)	23.00length (m)	temperature (°C)	Stokes	anti-Stokes-747.200	-69.427	0.497	-0.192
-746.185	-70.470	0.311	0.119
-745.171	-2.134	-0.133	-0.094
-744.156	-149.501	0.237	0.019
-743.142	-100.836	0.092	-0.023
-742.127	-144.422	-0.170	-0.016
-741.112	-200.000	0.018	0.115
-740.098	-200.000	-0.036	0.231
-739.083	195.659	-0.167	-0.255
-738.069	47.041	-0.273	0.255
-737.054	20.620	-0.219	0.179
-736.039	678.975	0.063	-0.164
-735.025	319.372	-0.113	0.215
-734.010	-29.203	0.060	-0.035
-732.996	190.224	-0.240	-0.363
-731.981	-19.108	0.169	0.105
-730.966	-22.499	-0.371	-0.226
-729.952	239.287	0.215	-0.360
-728.937	-96.420	-0.440	-0.117
-727.923	-122.465	-0.491	-0.080
-726.908	114.673	-0.138	0.170
-725.894	-1.687	0.221	-0.157
-724.879	-106.164	-0.448	-0.101
-723.864	-87.954	-0.125	0.038
-722.850	149.462	0.241	-0.328
-721.835	800.000	-0.099	0.412
-720.821	582.723	-0.054	0.134
-719.806	-200.000	-0.017	-0.194
-718.791	230.908	-0.204	0.336
-717.777	94.963	-0.156	0.178
-716.762	-131.461	-0.172	-0.023
-715.748	293.899	-0.152	0.279
-714.733	-200.000	-0.002	-0.129
-713.718	1.325	0.064	0.046
-712.704	-200.000	0.012	-0.250
-711.689	25.749	0.141	-0.118
-710.675	-166.656	-0.133	-0.006
-709.660	-200.000	0.013	0.444
-708.645	564.606	-0.077	0.187
-707.631	-90.186	0.283	-0.083
-706.616	-127.510	0.290	0.042
-705.602	86.993	-0.057	0.063
-704.587	-118.202	0.180	0.032
-703.572	-200.000	-0.002	-0.242
-702.558	-138.046	-0.247	-0.028
-701.543	-200.000	-0.010	0.240
-700.529	-131.196	0.012	-0.002
-699.514	104.660	0.060	-0.071
-698.499	15.026	0.256	-0.201
-697.485	-29.077	-0.135	-0.078
-696.470	-84.419	0.319	-0.101
-695.456	317.929	-0.032	-0.061
-694.441	185.295	0.189	-0.282
-693.426	-144.786	-0.063	-0.006
-692.412	-31.838	0.090	-0.051
-691.397	448.877	0.067	0.149
-690.383	-94.704	0.356	0.097
-689.368	-36.035	-0.147	0.080
-688.354	-77.888	0.265	-0.092
-687.339	-200.000	-0.046	-0.304
-686.324	-41.999	-0.164	-0.085
-685.310	800.000	-0.057	0.195
-684.295	187.942	0.089	-0.134
-683.281	-66.631	-0.213	-0.085
-682.266	-17.305	-0.172	0.109
-681.251	-51.097	0.143	-0.067
-680.237	800.000	0.062	0.199
-679.222	800.000	0.059	-0.168
-678.208	-143.283	-0.260	-0.025
-677.193	185.281	0.237	-0.353
-676.178	14.629	0.079	0.062
-675.164	800.000	-0.076	-0.266
-674.149	-1.369	-0.271	-0.192
-673.135	-42.229	0.232	-0.119
-672.120	292.300	0.162	-0.296
-671.105	800.000	0.078	0.232
-670.091	-106.492	0.071	0.016
-669.076	753.568	0.036	-0.097
-668.062	-200.000	-0.012	-0.078
-667.047	-126.860	0.283	-0.042
-666.032	-33.298	0.344	-0.191
-665.018	581.589	0.018	-0.045
-664.003	-200.000	-0.002	0.044
-662.989	58.621	0.144	0.142
-661.974	800.000	-0.021	0.073
-660.959	-145.211	-0.458	0.042
-659.945	-200.000	-0.010	0.180
-658.930	18.852	0.078	-0.062
-657.916	-67.787	0.234	0.092
-656.901	800.000	-0.098	0.359
-655.886	80.591	-0.101	-0.109
-654.872	-86.742	-0.137	0.042
-653.857	-200.000	-0.032	-0.437
-652.843	-101.046	0.337	0.083
-651.828	-110.893	-0.219	0.045
-650.814	-200.000	0.019	0.227
-649.799	-156.460	-0.070	0.004
-648.784	565.692	-0.058	0.142
-647.770	-99.748	0.197	-0.050
-646.755	-3.294	-0.272	-0.190
-645.741	-35.813	-0.118	-0.064
-644.726	-200.000	0.009	0.046
-643.711	-27.730	0.177	-0.103
-642.697	27.498	-0.076	-0.064
-641.682	52.205	-0.201	-0.192
-640.668	-119.591	-0.070	0.012
-639.653	-97.210	-0.243	0.064
-638.638	170.378	0.157	0.226
-637.624	214.481	-0.041	0.065
-636.609	-67.436	-0.305	0.120
-635.595	-200.000	-0.117	-0.546
-634.580	102.299	0.095	-0.111
-633.565	2.771	0.107	-0.078
-632.551	105.948	-0.049	0.058
-631.536	-200.000	-0.079	-0.497
-630.522	346.748	0.158	0.311
-629.507	14.191	0.175	-0.137
-628.492	74.366	0.407	-0.429
-627.478	-154.143	-0.377	-0.026
-626.463	53.543	0.014	0.014
-625.449	-114.073	-0.113	0.022
-624.434	-44.822	-0.420	-0.210
-623.419	800.000	-0.084	0.274
-622.405	-73.630	-0.415	0.152
-621.390	-60.922	-0.198	0.084
-620.376	-61.755	0.029	0.012
-619.361	-50.173	0.043	0.020
-618.346	-82.928	-0.085	-0.027
-617.332	800.000	-0.048	0.142
-616.317	93.373	0.103	-0.116
-615.303	44.294	-0.205	-0.189
-614.288	558.619	-0.028	0.068
-613.273	77.020	0.064	0.068
-612.259	-67.130	0.182	-0.072
-611.244	-31.801	0.281	0.158
-610.230	127.854	0.105	0.133
-609.215	21.983	-0.311	0.254
-608.201	-84.984	-0.149	0.047
-607.186	380.420	0.078	-0.160
-606.171	-182.461	0.297	-0.005
-605.157	118.903	-0.137	0.169
-604.142	313.061	0.108	-0.204
-603.128	-62.700	-0.433	-0.180
-602.113	745.181	0.060	0.162
-601.098	-56.614	0.274	0.121
-600.084	-8.388	-0.172	0.115
-599.069	-200.000	0.040	-0.196
-598.055	-64.790	0.054	-0.022
-597.040	698.170	-0.170	0.447
-596.025	585.409	0.151	0.372
-595.011	308.896	-0.066	0.123
-593.996	-9.672	0.164	-0.110
-592.982	-135.305	0.230	-0.028
-591.967	273.399	0.166	0.293
-590.952	83.438	-0.268	-0.292
-589.938	172.804	-0.103	-0.148
-588.923	143.907	0.288	-0.384
-587.909	-49.483	0.334	-0.159
-586.894	-92.297	-0.124	0.035
-585.879	280.010	-0.151	-0.269
-584.865	19.877	-0.239	-0.192
-583.850	169.252	0.049	-0.070
-582.836	-200.000	-0.011	-0.055
-581.821	8.543	0.236	0.178
-580.806	800.000	-0.047	0.203
-579.792	-200.000	-0.055	0.251
-578.777	11.151	-0.032	-0.025
-577.763	344.125	-0.049	0.096
-576.748	-139.690	-0.047	-0.005
-575.733	-154.578	-0.158	-0.011
-574.719	47.416	0.310	-0.289
-573.704	-36.632	-0.116	0.062
-572.690	-22.535	-0.331	0.200
-571.675	22.923	0.372	0.305
-570.661	56.953	-0.142	0.138
-569.646	379.678	-0.031	0.064
-568.631	-65.868	-0.062	0.025
-567.617	-105.037	0.070	0.016
-566.602	534.205	0.090	-0.213
-565.588	-200.000	0.044	-0.299
-564.573	800.000	0.060	0.183
-563.558	86.885	-0.146	-0.161
-562.544	-200.000	-0.004	0.047
-561.529	79.108	-0.169	-0.181
-560.515	-87.842	-0.151	-0.045
-559.500	-159.431	0.034	-0.002
-558.485	-129.540	0.297	-0.041
-557.471	800.000	0.015	-0.054
-556.456	-85.781	-0.121	-0.037
-555.442	6.949	-0.236	0.175
-554.427	-149.205	0.381	0.030
-553.412	-62.248	-0.088	-0.037
-552.398	-61.519	0.281	0.118
-551.383	36.102	0.069	0.060
-550.369	800.000	-0.037	-0.107
-549.354	-200.000	-0.018	-0.318
-548.339	-62.406	-0.303	0.126
-547.325	61.916	0.091	-0.090
-546.310	-193.936	0.399	-0.003
-545.296	-113.654	-0.332	0.065
-544.281	214.559	0.097	0.153
-543.266	483.946	-0.030	-0.069
-542.252	471.064	0.122	-0.274
-541.237	-110.541	0.402	-0.083
-540.223	134.737	0.016	0.020
-539.208	-92.638	-0.118	-0.033
-538.193	68.037	-0.027	-0.027
-537.179	-200.000	-0.022	-0.246
-536.164	-30.972	-0.224	0.126
-535.150	790.948	0.057	-0.157
-534.135	-124.985	0.092	0.014
-533.121	-6.661	-0.276	0.188
-532.106	-89.462	-0.111	-0.033
-531.091	294.285	0.163	0.297
-530.077	-68.710	0.204	-0.079
-529.062	-200.000	-0.039	0.498
-528.048	-114.458	-0.223	0.043
-527.033	402.369	0.153	-0.321
-526.018	-152.448	0.086	0.006
-525.004	-46.353	-0.051	0.025
-523.989	173.508	0.191	0.276
-522.975	35.128	-0.218	0.190
-521.960	-111.416	-0.198	0.040
-520.945	-16.046	0.281	0.178
-519.931	-38.030	0.158	0.084
-518.916	-126.496	-0.190	0.028
-517.902	-44.103	-0.082	0.041
-516.887	-133.835	0.220	-0.027
-515.872	121.011	0.123	0.153
-514.858	-200.000	0.005	-0.269
-513.843	160.843	-0.163	0.227
-512.829	-200.000	0.029	0.255
-511.814	21.678	0.080	0.065
-510.799	102.706	-0.143	0.166
-509.785	-200.000	0.001	-0.216
-508.770	-200.000	-0.001	-0.071
-507.756	800.000	-0.027	0.087
-506.741	800.000	-0.098	-0.282
-505.726	64.253	-0.201	-0.202
-504.712	480.266	0.022	-0.049
-503.697	342.816	-0.130	0.253
-502.683	-200.000	0.009	0.080
-501.668	-133.801	-0.416	-0.052
-500.653	-42.974	0.149	0.075
-499.639	-13.017	0.378	-0.245
-498.624	297.388	-0.087	-0.159
-497.610	28.508	-0.171	-0.144
-496.595	23.785	-0.274	-0.225
-495.581	-16.442	0.193	0.122
-494.566	151.528	-0.148	-0.201
-493.551	33.889	-0.249	0.216
-492.537	-200.000	-0.006	0.064
-491.522	389.251	0.027	0.056
-490.508	19.310	-0.218	0.174
-489.493	-149.187	-0.155	-0.012
-488.478	-111.343	0.210	-0.043
-487.464	108.585	-0.050	-0.059
-486.449	222.744	0.142	0.228
-485.435	-200.000	0.000	-0.078
-484.420	543.635	-0.041	0.096
-483.405	-21.303	0.143	-0.087
-482.391	35.729	-0.229	0.200
-481.376	7.791	-0.152	-0.114
-480.362	-86.414	0.311	0.095
-479.347	-69.618	0.308	-0.117
-478.332	-200.000	0.065	-0.321
-477.318	-200.000	-0.026	0.188
-476.303	-133.578	0.185	0.023
-475.289	463.968	-0.062	0.137
-474.274	-12.963	0.072	0.046
-473.259	283.762	0.152	-0.272
-472.245	-200.000	0.016	-0.157
-471.230	-85.501	-0.183	-0.057
-470.216	-71.679	-0.293	0.109
-469.201	-153.716	-0.250	-0.017
-468.186	800.000	0.097	-0.278
-467.172	-200.000	-0.016	-0.233
-466.157	596.304	-0.126	0.310
-465.143	-17.432	-0.151	-0.095
-464.128	395.995	-0.060	0.124
-463.113	800.000	-0.034	-0.094
-462.099	42.277	-0.244	-0.221
-461.084	20.017	-0.081	-0.065
-460.070	-52.065	-0.101	0.047
-459.055	108.327	-0.134	-0.159
-458.040	-10.320	0.282	0.186
-457.026	-109.387	0.061	0.013
-456.011	237.140	-0.191	-0.315
-454.997	-50.694	0.318	0.149
-453.982	-19.121	0.142	0.088
-452.968	-200.000	-0.006	0.037
-451.953	-85.469	0.274	0.085
-450.938	-200.000	0.019	-0.281
-449.924	-32.246	0.166	0.092
-448.909	800.000	0.074	-0.320
-447.895	-88.985	0.170	0.050
-446.880	-200.000	0.031	-0.184
-445.865	185.829	-0.190	0.281
-444.851	-100.096	0.066	-0.016
-443.836	326.651	-0.159	-0.302
-442.822	158.863	-0.084	0.116
-441.807	-99.229	-0.065	-0.016
-440.792	-200.000	0.009	0.050
-439.778	800.000	-0.115	-0.403
-438.763	225.593	0.084	0.136
-437.749	745.995	-0.037	0.100
-436.734	374.127	-0.115	-0.232
-435.719	-159.888	-0.190	-0.010
-434.705	800.000	-0.063	0.208
-433.690	77.180	-0.107	-0.113
-432.676	2.375	0.263	-0.189
-431.661	800.000	0.043	0.141
-430.646	-6.179	0.053	-0.036
-429.632	69.333	0.301	-0.308
-428.617	-39.166	-0.234	-0.122
-427.603	137.141	-0.159	0.207
-426.588	-50.345	-0.193	0.091
-425.573	505.421	0.143	0.330
-424.559	-200.000	-0.043	-0.353
-423.544	-58.525	0.106	0.046
-422.530	800.000	-0.109	0.337
-421.515	-200.000	0.115	0.000
-420.500	-112.166	0.055	-0.011
-419.486	260.881	-0.085	-0.147
-418.471	-200.000	0.015	-0.117
-417.457	123.026	-0.096	0.120
-416.442	291.401	-0.049	-0.089
-415.428	298.258	0.066	0.121
-414.413	-9.071	-0.154	-0.103
-413.398	-200.000	0.028	-0.196
-412.384	160.306	-0.302	-0.418
-411.369	-24.620	0.054	-0.032
-410.355	-71.687	0.075	-0.028
-409.340	724.346	-0.065	-0.173
-408.325	-200.000	-0.018	-0.347
-407.311	-125.046	0.128	-0.020
-406.296	45.478	-0.103	0.095
-405.282	800.000	-0.063	0.240
-404.267	330.331	0.093	0.178
-403.252	308.659	-0.112	-0.208
-402.238	-200.000	-0.074	-0.407
-401.223	-200.000	-0.072	0.392
-400.209	-111.783	-0.324	0.065
-399.194	46.158	0.127	-0.117
-398.179	-2.776	-0.293	0.203
-397.165	800.000	-0.049	0.153
-396.150	800.000	0.036	0.106
-395.136	800.000	0.065	-0.205
-394.121	-17.612	0.378	0.236
-393.106	-200.000	0.008	-0.286
-392.092	48.212	0.110	0.102
-391.077	-24.516	0.462	-0.273
-390.063	360.501	-0.031	-0.062
-389.048	-200.000	-0.020	0.340
-388.033	-152.262	0.142	0.010
-387.019	-176.533	-0.074	-0.002
-386.004	800.000	0.094	0.399
-384.990	-200.000	-0.062	0.306
-383.975	126.532	-0.259	0.325
-382.960	-31.031	-0.131	0.073
-381.946	-16.954	-0.258	-0.162
-380.931	-125.369	0.276	-0.042
-379.917	83.264	0.036	0.038
-378.902	184.472	0.169	0.248
-377.888	-67.803	0.233	0.090
-376.873	388.153	-0.073	-0.150
-375.858	800.000	-0.056	0.170
-374.844	-0.019	-0.246	0.174
-373.829	-9.102	-0.175	0.116
-372.815	-105.128	0.243	-0.055
-371.800	800.000	0.031	-0.109
-370.785	-139.193	-0.339	0.036
-369.771	190.908	0.213	0.318
-368.756	-200.000	0.024	-0.188
-367.742	-89.733	0.335	0.097
-366.727	-174.156	0.071	-0.002
-365.712	-114.893	0.594	-0.112
-364.698	258.002	-0.098	-0.167
-363.683	41.368	0.152	0.136
-362.669	-51.394	-0.284	0.132
-361.654	-78.961	-0.081	-0.027
-360.639	-64.164	0.115	-0.046
-359.625	29.912	-0.263	-0.222
-358.610	800.000	-0.078	-0.234
-357.596	-20.139	-0.028	-0.017
-356.581	-111.249	-0.080	-0.016
-355.566	606.268	0.111	0.273
-354.552	113.750	0.097	-0.117
-353.537	-132.081	0.387	0.050
-352.523	80.748	0.192	0.205
-351.508	-111.081	-0.150	-0.030
-350.493	-64.147	0.196	0.079
-349.479	-133.532	-0.177	-0.022
-348.464	-0.561	-0.147	-0.103
-347.450	-90.916	-0.127	-0.036
-346.435	-38.530	0.112	-0.059
-345.420	-200.000	-0.008	0.034
-344.406	-55.849	-0.287	-0.127
-343.391	-128.432	-0.466	0.066
-342.377	-200.000	0.027	0.228
-341.362	341.920	0.125	0.243
-340.348	-119.134	0.291	0.050
-339.333	-200.000	-0.008	-0.244
-338.318	97.441	0.118	-0.134
-337.304	-96.811	-0.240	-0.062
-336.289	198.559	-0.040	-0.061
-335.275	-137.663	-0.163	-0.018
-334.260	-200.000	-0.021	0.314
-333.245	800.000	-0.059	0.177
-332.231	24.512	-0.077	-0.063
-331.216	-71.179	0.133	0.050
-330.202	-163.981	-0.032	-0.001
-329.187	459.082	-0.077	-0.170
-328.172	56.432	-0.037	-0.035
-327.158	-200.000	-0.002	-0.099
-326.143	135.548	0.108	-0.139
-325.129	6.114	0.079	0.058
-324.114	145.885	0.151	-0.200
-323.099	161.808	0.206	-0.285
-322.085	68.649	0.128	0.130
-321.070	-142.276	0.382	0.037
-320.056	38.767	-0.127	-0.112
-319.041	-115.795	-0.262	-0.048
-318.026	-23.405	0.215	-0.128
-317.012	-140.130	0.485	-0.050
-315.997	-183.949	-0.073	0.001
-314.983	-84.673	0.395	0.123
-313.968	-74.131	-0.126	-0.045
-312.953	-200.000	-0.009	-0.089
-311.939	-29.169	-0.127	-0.072
-310.924	-77.855	0.094	-0.032
-309.910	-52.936	0.097	0.044
-308.895	-200.000	-0.033	-0.205
-307.880	800.000	-0.064	-0.268
-306.866	-200.000	0.012	-0.134
-305.851	-36.204	0.243	0.130
-304.837	294.565	0.149	0.269
-303.822	-49.704	-0.192	0.090
-302.807	0.650	0.218	-0.154
-301.793	-14.240	-0.267	-0.170
-300.778	535.600	-0.025	0.058
-299.764	121.977	-0.134	-0.165
-298.749	9.053	-0.284	0.212
-297.735	50.904	0.148	-0.139
-296.720	-141.453	-0.201	0.020
-295.705	128.092	-0.183	0.231
-294.691	84.442	0.108	0.117
-293.676	-107.002	-0.270	-0.059
-292.662	-59.929	-0.032	0.013
-291.647	-200.000	0.016	0.190
-290.632	23.485	0.254	0.207
-289.618	-200.000	0.046	-0.233
-288.603	200.880	0.259	0.393
-287.589	-140.174	-0.361	0.037
-286.574	294.071	-0.134	-0.242
-285.559	403.713	-0.081	-0.168
-284.545	-125.839	0.284	0.042
-283.530	800.000	0.083	0.244
-282.516	-52.183	-0.123	0.057
-281.501	136.436	0.157	0.202
-280.486	800.000	0.109	0.342
-279.472	800.000	-0.036	-0.101
-278.457	-40.297	0.580	0.298
-277.443	214.362	0.246	-0.384
-276.428	87.240	-0.171	0.186
-275.413	-14.382	0.172	0.109
-274.399	-200.000	0.014	0.135
-273.384	-200.000	0.030	-0.324
-272.370	-34.508	0.234	-0.126
-271.355	-125.015	-0.109	0.017
-270.340	-6.606	-0.385	-0.259
-269.326	-148.207	-0.127	-0.010
-268.311	75.765	-0.088	-0.092
-267.297	205.439	0.172	0.265
-266.282	-200.000	0.046	0.294
-265.267	-136.663	0.024	-0.003
-264.253	800.000	-0.019	0.065
-263.238	-200.000	0.027	-0.216
-262.224	-144.573	-0.122	0.011
-261.209	103.202	0.134	0.155
-260.195	711.745	0.143	-0.374
-259.180	82.238	-0.165	-0.177
-258.165	762.359	0.054	0.145
-257.151	-6.592	0.156	0.105
-256.136	588.508	0.200	0.487
-255.122	800.000	0.082	-0.264
-254.107	-104.367	-0.221	0.050
-253.092	-169.879	-0.200	-0.007
-252.078	685.284	-0.104	-0.269
-251.063	-140.881	-0.251	-0.026
-250.049	14.763	0.113	-0.087
-249.034	240.389	0.067	-0.111
-248.019	2.823	0.176	0.126
-247.005	-200.000	0.008	0.207
-245.990	140.702	0.023	0.030
-244.976	-160.086	-0.310	0.017
-243.961	-200.000	0.015	-0.194
-242.946	303.264	0.107	-0.195
-241.932	9.090	-0.070	-0.052
-240.917	800.000	-0.048	-0.139
-239.903	800.000	-0.049	0.162
-238.888	71.649	-0.135	-0.139
-237.873	800.000	-0.058	-0.190
-236.859	800.000	0.033	0.114
-235.844	104.724	-0.057	0.066
-234.830	9.928	0.106	-0.080
-233.815	-200.000	-0.028	-0.249
-232.800	277.685	0.112	0.197
-231.786	37.708	-0.098	0.086
-230.771	176.535	-0.242	0.346
-229.757	408.354	0.110	0.229
-228.742	-200.000	0.000	0.007
-227.727	-200.000	0.094	0.479
-226.713	-118.912	-0.112	0.019
-225.698	-119.254	0.189	-0.032
-224.684	-41.618	-0.252	-0.128
-223.669	11.402	0.084	-0.063
-222.655	137.117	-0.052	0.067
-221.640	800.000	-0.078	-0.324
-220.625	-157.338	0.233	0.014
-219.611	-22.257	-0.415	-0.248
-218.596	-122.769	-0.213	0.034
-217.582	42.957	-0.027	-0.024
-216.567	-145.929	0.306	-0.027
-215.552	-196.372	0.103	0.001
-214.538	-200.000	0.012	-0.126
-213.523	-119.153	0.138	-0.024
-212.509	-21.296	-0.367	-0.221
-211.494	-200.000	-0.019	0.160
-210.479	626.385	0.103	0.257
-209.465	-200.000	0.045	0.212
-208.450	-200.000	0.017	0.232
-207.436	-67.719	0.242	-0.093
-206.421	284.437	0.194	0.344
-205.406	-200.000	-0.043	0.367
-204.392	-200.000	0.005	-0.185
-203.377	161.927	-0.059	-0.081
-202.363	-200.000	0.079	0.368
-201.348	-71.849	-0.163	0.060
-200.333	32.777	-0.267	-0.227
-199.319	-200.000	-0.042	0.338
-198.304	83.016	0.204	0.219
-197.290	-38.286	-0.095	0.050
-196.275	800.000	-0.042	-0.177
-195.260	-56.340	0.521	-0.228
-194.246	-19.989	-0.211	-0.128
-193.231	800.000	0.059	0.180
-192.217	-41.883	0.199	-0.100
-191.202	242.761	-0.038	-0.063
-190.187	-200.000	-0.030	0.135
-189.173	190.618	0.050	-0.075
-188.158	-133.314	0.232	-0.029
-187.144	1.328	0.142	0.100
-186.129	-116.520	-0.105	-0.019
-185.114	103.937	0.146	-0.168
-184.100	91.457	0.203	-0.225
-183.085	168.198	-0.103	-0.144
-182.071	-90.843	0.100	-0.028
-181.056	114.434	-0.104	-0.124
-180.042	-13.166	-0.207	-0.132
-179.027	-173.346	0.131	-0.004
-178.012	237.549	-0.113	-0.184
-176.998	-161.032	-0.128	-0.007
-175.983	-23.563	0.124	-0.073
-174.969	-45.978	0.147	0.071
-173.954	-68.959	0.284	0.108
-172.939	-101.627	0.347	0.083
-171.925	-200.000	0.016	0.091
-170.910	-59.826	-0.277	0.117
-169.896	138.317	-0.261	0.336
-168.881	455.805	-0.070	-0.153
-167.866	800.000	0.068	0.205
-166.852	112.553	0.119	0.141
-165.837	-6.150	0.259	0.174
-164.823	-120.199	-0.168	-0.028
-163.808	39.996	0.145	0.128
-162.793	-200.000	-0.001	0.211
-161.779	-200.000	-0.024	0.221
-160.764	752.002	-0.150	-0.398
-159.750	-56.281	0.305	-0.133
-158.735	-14.205	-0.162	-0.103
-157.720	15.593	-0.055	0.042
-156.706	800.000	0.108	0.424
-155.691	-200.000	0.046	-0.207
-154.677	29.499	0.235	-0.196
-153.662	152.212	-0.174	0.233
-152.647	177.839	-0.163	-0.234
-151.633	-200.000	-0.025	-0.213
-150.618	800.000	0.140	-0.382
-149.604	-112.601	0.250	0.049
-148.589	-200.000	-0.015	0.162
-147.574	147.427	-0.178	-0.236
-146.560	228.082	0.286	-0.458
-145.545	-118.622	-0.164	0.029
-144.531	32.394	-0.159	0.135
-143.516	41.341	0.162	-0.144
-142.502	208.017	0.095	-0.146
-141.487	8.567	-0.182	-0.134
-140.472	800.000	-0.111	0.345
-139.458	-132.797	-0.246	0.031
-138.443	734.324	0.170	0.448
-137.429	-138.238	0.247	-0.027
-136.414	162.902	-0.156	-0.215
-135.399	63.066	0.127	0.125
-134.385	157.256	0.171	0.233
-133.370	152.699	0.093	0.125
-132.356	-200.000	0.035	-0.294
-131.341	-70.068	-0.325	-0.122
-130.326	800.000	0.027	0.092
-129.312	-67.137	-0.159	-0.061
-128.297	-135.798	0.171	-0.020
-127.283	45.660	-0.164	-0.149
-126.268	-125.695	0.043	-0.006
-125.253	-135.965	0.275	-0.032
-124.239	-200.000	-0.005	-0.140
-123.224	150.907	0.129	0.172
-122.210	213.476	0.076	-0.118
-121.195	32.100	-0.053	-0.045
-120.180	-200.000	-0.035	-0.159
-119.166	-200.000	0.011	-0.144
-118.151	650.789	-0.031	-0.079
-117.137	800.000	-0.063	0.180
-116.122	-200.000	0.009	0.283
-115.107	-73.502	0.494	-0.177
-114.093	285.328	0.110	-0.194
-113.078	-106.815	-0.102	0.022
-112.064	88.842	0.169	-0.185
-111.049	431.949	0.063	-0.134
-110.034	266.005	-0.057	0.097
-109.020	-55.886	0.256	0.112
-108.005	-200.000	0.006	-0.057
-106.991	399.435	0.075	0.154
-105.976	-200.000	0.013	0.099
-104.962	230.383	0.125	-0.201
-103.947	347.565	-0.075	-0.145
-102.932	27.996	-0.130	0.108
-101.918	602.979	0.125	0.306
-100.903	-119.390	-0.152	-0.026
-99.889	-178.407	-0.132	-0.003
-98.874	-200.000	0.045	0.363
-97.859	-200.000	-0.003	-0.015
-96.845	-200.000	-0.045	0.280
-95.830	-137.612	0.089	-0.010
-94.816	94.813	-0.053	-0.060
-93.801	246.991	0.033	-0.054
-92.786	24.907	0.120	0.097
-91.772	-113.029	0.214	-0.041
-90.757	24.912	-0.175	0.142
-89.743	139.956	-0.140	-0.182
-88.728	3.392	0.191	-0.136
-87.713	-69.605	0.078	-0.029
-86.699	107.550	-0.036	0.042
-85.684	-9.976	0.233	-0.152
-84.670	493.940	0.139	0.313
-83.655	51.446	0.184	0.171
-82.640	539.163	-0.055	-0.129
-81.626	-200.000	0.034	0.261
-80.611	-200.000	-0.012	-0.120
-79.597	230.171	-0.193	-0.310
-78.582	-42.114	0.230	0.116
-77.567	656.863	-0.128	-0.322
-76.553	800.000	-0.108	0.296
-75.538	-197.904	0.261	-0.002
-74.524	530.543	-0.172	-0.398
-73.509	-29.020	-0.121	-0.068
-72.494	-103.356	0.159	0.037
-71.480	25.990	0.064	-0.053
-70.465	-92.865	-0.130	0.036
-69.451	404.416	0.079	-0.164
-68.436	-143.895	-0.045	-0.004
-67.422	-200.000	0.027	-0.352
-66.407	800.000	-0.087	-0.295
-65.392	-200.000	0.027	-0.165
-64.378	19.785	-0.182	0.144
-63.363	-14.019	-0.138	-0.087
-62.349	56.082	0.123	0.117
-61.334	-21.111	-1.393	-0.835
-60.319	182.616	0.509	0.735
-59.305	-200.000	0.056	-1.014
-58.290	512.989	0.445	1.016
-57.276	-200.000	0.326	1.510
-56.261	-200.000	107.035	621.038
-55.246	517.469	1510.624	3460.831
-54.232	176.639	2699.046	3842.999
-53.217	111.137	2159.336	2547.385
-52.203	40.968	1598.718	1413.375
-51.188	32.755	1335.725	1131.790
-50.173	29.726	1294.244	1078.952
-49.159	53.540	1349.535	1267.710
-48.144	53.784	1364.885	1283.530
-47.130	32.798	1319.015	1117.710
-46.115	29.371	1301.453	1082.704
-45.100	29.269	1296.305	1077.785
-44.086	29.187	1293.517	1074.942
-43.071	29.123	1291.787	1073.089
-42.057	29.054	1289.190	1070.490
-41.042	29.092	1288.102	1069.766
-40.027	29.226	1286.343	1069.040
-39.013	29.047	1284.676	1066.576
-37.998	29.284	1281.966	1065.653
-36.984	29.230	1280.485	1064.068
-35.969	29.277	1278.898	1062.976
-34.954	29.267	1277.258	1061.512
-33.940	29.264	1276.288	1060.649
-32.925	29.228	1274.773	1059.138
-31.911	29.366	1273.226	1058.606
-30.896	29.421	1271.680	1057.592
-29.881	29.403	1270.592	1056.541
-28.867	29.359	1268.998	1054.925
-27.852	29.371	1267.467	1053.677
-26.838	29.296	1265.955	1051.952
-25.823	29.493	1264.692	1051.982
-24.809	29.330	1263.307	1049.862
-23.794	29.348	1262.172	1048.976
-22.779	29.295	1261.041	1047.694
-21.765	29.294	1259.476	1046.349
-20.750	29.291	1258.321	1045.332
-19.736	29.271	1257.079	1044.143
-18.721	29.171	1256.131	1042.752
-17.706	29.123	1255.375	1041.807
-16.692	29.258	1253.938	1041.336
-15.677	29.147	1253.270	1040.115
-14.663	29.208	1251.342	1038.817
-13.648	29.220	1250.444	1038.097
-12.633	29.182	1249.525	1037.082
-11.619	29.150	1248.894	1036.334
-10.604	29.217	1248.171	1036.070
-9.590	29.203	1247.072	1035.040
-8.575	29.198	1245.902	1033.997
-7.560	29.151	1245.407	1033.283
-6.546	29.223	1243.978	1032.458
-5.531	29.154	1243.859	1031.932
-4.517	29.250	1242.621	1031.405
-3.502	29.327	1241.383	1030.763
-2.487	29.214	1240.978	1029.756
-1.473	29.249	1236.410	1026.121
-0.458	27.745	1221.818	1005.689
0.556	22.011	1204.493	968.678
1.571	18.457	1210.500	953.683
2.586	17.652	1224.964	960.454
3.600	17.645	1213.531	951.370
4.615	12.766	1143.184	870.418
5.629	4.008	1068.829	770.309
6.644	-0.015	1049.277	736.472
7.659	-0.429	1046.625	732.520
8.673	-0.334	1045.118	731.865
9.688	-0.500	1044.075	730.260
10.702	-0.066	1042.384	731.125
11.717	5.558	1050.298	764.123
12.731	14.472	1063.053	817.207
13.746	19.067	1068.603	843.986
14.761	19.905	1069.486	848.721
15.775	20.000	1069.206	848.890
16.790	19.709	1068.384	846.735
17.804	19.580	1068.016	845.736
18.819	19.648	1067.390	845.500
19.834	19.765	1066.990	845.682
20.848	19.936	1066.183	845.803
21.863	19.763	1065.838	844.607
22.877	19.675	1064.827	843.305
23.892	19.697	1064.428	843.019
24.907	19.825	1063.588	842.904
25.921	19.912	1062.568	842.446
26.936	19.838	1061.098	840.843
27.950	19.783	1059.241	839.032
28.965	19.538	1057.940	836.740
29.980	19.756	1055.680	835.930
30.994	19.891	1055.257	836.175
32.009	19.823	1053.996	834.775
33.023	19.645	1052.372	832.558
34.038	19.664	1052.030	832.307
35.053	19.732	1051.700	832.295
36.067	19.782	1050.469	831.491
37.082	19.956	1049.513	831.494
38.096	20.135	1048.694	831.632
39.111	20.068	1048.172	830.824
40.126	20.023	1046.415	829.143
41.140	19.598	1044.892	825.829
42.155	19.460	1043.544	824.032
43.169	19.598	1042.596	823.869
44.184	19.633	1041.729	823.278
45.199	19.468	1040.610	821.533
46.213	19.467	1039.647	820.699
47.228	19.591	1038.645	820.424
48.242	19.609	1037.659	819.655
49.257	19.641	1037.237	819.402
50.271	20.011	1035.998	820.102
51.286	19.900	1035.024	818.733
52.301	19.901	1034.755	818.454
53.315	19.934	1033.169	817.284
54.330	19.708	1032.667	815.745
55.344	19.792	1031.889	815.457
56.359	19.763	1030.651	814.269
57.374	19.592	1029.524	812.503
58.388	19.611	1029.102	812.188
59.403	19.536	1028.265	811.102
60.417	19.502	1027.080	809.937
61.432	19.566	1026.478	809.692
62.447	19.654	1025.672	809.395
63.461	19.701	1025.313	809.260
64.476	19.613	1024.262	807.948
65.490	19.573	1023.309	806.937
66.505	19.652	1022.435	806.546
67.520	19.641	1021.582	805.748
68.534	19.526	1020.616	804.381
69.549	19.208	1019.016	801.571
70.563	19.215	1018.820	801.379
71.578	19.318	1017.542	800.779
72.593	19.062	1016.798	798.936
73.607	19.242	1016.431	799.411
74.622	19.440	1016.030	799.942
75.636	19.558	1015.261	799.812
76.651	19.450	1014.197	798.403
77.666	19.325	1013.272	797.027
78.680	19.451	1012.374	796.831
79.695	19.361	1012.569	796.501
80.709	19.512	1011.609	796.370
81.724	19.530	1010.626	795.610
82.739	19.571	1009.930	795.180
83.753	19.725	1009.438	795.432
84.768	20.067	1008.772	796.408
85.782	20.193	1007.465	795.882
86.797	19.930	1006.744	794.040
87.812	19.887	1005.681	792.930
88.826	19.973	1004.431	792.271
89.841	20.020	1003.797	791.917
90.855	20.175	1002.431	791.477
91.870	19.940	1001.737	789.785
92.884	19.905	1001.081	789.037
93.899	19.864	999.675	787.674
94.914	20.047	998.928	787.850
95.928	19.908	997.798	786.254
96.943	19.720	996.375	784.212
97.957	19.482	995.124	782.080
98.972	19.259	993.845	779.997
99.987	19.643	993.472	781.372
101.001	19.753	992.811	781.278
102.016	19.708	991.810	780.220
103.030	19.631	990.689	778.921
104.045	19.666	989.357	777.963
105.060	19.518	988.402	776.476
106.074	19.658	988.165	776.851
107.089	20.001	987.733	777.985
108.103	19.867	986.508	776.351
109.118	19.626	985.228	774.193
110.133	19.734	984.312	773.888
111.147	19.586	982.927	772.071
112.162	19.399	981.657	770.168
113.176	19.515	981.516	770.507
114.191	19.496	980.574	769.616
115.206	19.180	979.498	767.293
116.220	19.335	978.546	767.170
117.235	19.394	977.711	766.712
118.249	19.363	976.785	765.779
119.264	19.189	976.208	764.487
120.279	19.363	975.154	764.367
121.293	19.274	974.456	763.357
122.308	19.498	973.564	763.580
123.322	19.348	972.392	761.933
124.337	19.255	971.154	760.484
125.352	18.790	969.135	756.788
126.366	18.729	968.000	755.564
127.381	19.410	968.426	758.827
128.395	19.921	967.712	760.450
129.410	19.918	966.643	759.528
130.424	19.886	965.737	758.609
131.439	19.646	965.343	757.178
132.454	19.901	964.019	757.189
133.468	19.706	963.091	755.542
134.483	19.734	962.537	755.163
135.497	19.882	962.047	755.355
136.512	20.090	960.584	755.047
137.527	20.072	959.508	754.056
138.541	20.066	959.306	753.804
139.556	20.020	958.806	753.146
140.570	20.214	957.384	752.806
141.585	20.076	956.211	751.217
142.600	19.944	956.070	750.470
143.614	20.238	955.033	750.861
144.629	20.147	954.162	749.715
145.643	20.138	952.590	748.375
146.658	20.186	951.274	747.483
147.673	20.118	950.312	746.368
148.687	19.885	949.431	744.606
149.702	19.812	948.487	743.489
150.716	19.820	947.557	742.725
151.731	20.040	947.149	743.285
152.746	20.057	946.851	743.060
153.760	20.207	945.850	742.850
154.775	20.298	945.197	742.661
155.789	20.220	944.300	741.556
156.804	20.060	943.423	740.121
157.819	20.233	942.648	740.185
158.833	20.191	941.947	739.390
159.848	20.302	940.284	738.490
160.862	20.188	939.492	737.317
161.877	20.294	938.862	737.211
162.892	20.240	937.946	736.196
163.906	20.262	936.949	735.442
164.921	20.096	936.550	734.359
165.935	20.320	935.238	734.212
166.950	20.190	934.439	732.972
167.964	20.469	932.995	732.952
168.979	20.085	932.491	730.870
169.994	19.976	931.586	729.636
171.008	20.267	931.106	730.425
172.023	20.144	929.831	728.843
173.037	19.992	928.836	727.359
174.052	19.938	927.407	725.948
175.067	19.973	926.838	725.584
176.081	20.206	926.352	726.115
177.096	20.128	925.725	725.234
178.110	19.712	925.029	722.885
179.125	19.657	924.346	722.057
180.140	19.837	923.928	722.419
181.154	19.772	923.331	721.617
182.169	20.192	923.048	723.082
183.183	20.387	922.668	723.535
184.198	20.104	922.106	721.852
185.213	20.215	920.868	721.279
186.227	20.258	920.189	720.864
187.242	20.238	919.691	720.326
188.256	20.326	919.322	720.340
189.271	20.274	918.257	719.226
190.286	19.941	917.448	717.149
191.300	19.627	915.930	714.598
192.315	18.871	914.377	710.203
193.329	18.818	914.448	709.974
194.344	19.597	914.338	713.046
195.359	20.140	914.554	715.393
196.373	20.230	913.795	715.106
197.388	20.034	912.939	713.564
198.402	20.006	912.461	713.014
199.417	20.123	911.471	712.657
200.432	19.771	910.652	710.506
201.446	19.657	909.869	709.365
202.461	19.560	909.438	708.571
203.475	18.803	907.365	703.790
204.490	18.165	906.189	700.206
205.504	19.209	906.646	704.770
206.519	19.559	907.004	706.417
207.534	19.752	906.680	706.893
208.548	20.216	905.826	708.060
209.563	19.988	904.752	706.228
210.577	20.018	904.066	705.753
211.592	20.353	903.724	706.788
212.607	20.171	902.895	705.336
213.621	20.430	902.106	705.710
214.636	20.229	901.420	704.294
215.650	20.215	900.867	703.741
216.665	20.288	900.375	703.592
217.680	20.176	899.503	702.396
218.694	19.749	897.996	699.429
219.709	19.661	897.612	698.712
220.723	20.011	897.044	699.621
221.738	20.134	896.327	699.496
222.753	20.076	895.723	698.732
223.767	20.219	895.385	698.980
224.782	20.299	895.305	699.178
225.796	20.245	894.704	698.429
226.811	19.696	893.040	694.865
227.826	19.277	891.539	691.953
228.840	19.356	891.100	691.866
229.855	19.403	890.188	691.284
230.869	18.929	889.420	688.728
231.884	19.400	889.516	690.629
232.899	20.132	889.535	693.512
233.913	20.041	888.812	692.523
234.928	20.059	887.926	691.844
235.942	20.151	887.003	691.429
236.957	19.785	886.613	689.605
237.972	19.906	885.866	689.447
238.986	20.031	885.361	689.488
240.001	19.968	884.811	688.749
241.015	20.012	884.039	688.264
242.030	20.173	883.831	688.679
243.045	20.149	883.367	688.163
244.059	20.337	882.860	688.452
245.074	20.135	881.673	686.666
246.088	19.632	880.630	683.803
247.103	20.192	880.116	685.556
248.117	20.464	880.461	686.840
249.132	20.691	879.820	687.175
250.147	20.877	878.726	686.994
251.161	20.894	878.628	686.923
252.176	20.810	878.013	686.052
253.190	20.973	877.443	686.188
254.205	20.988	877.271	686.051
255.220	21.152	875.960	685.610
256.234	21.047	875.259	684.589
257.249	20.775	874.521	682.884
258.263	20.876	873.953	682.776
259.278	20.990	873.422	682.745
260.293	20.996	872.626	682.087
261.307	20.820	871.802	680.695
262.322	20.688	870.688	679.250
263.336	19.794	869.079	674.451
264.351	18.806	867.243	669.120
265.366	18.952	866.985	669.429
266.380	20.069	867.887	674.418
267.395	20.512	867.477	675.759
268.409	20.573	866.528	675.199
269.424	20.630	866.028	674.972
270.439	20.744	865.241	674.740
271.453	20.802	864.982	674.703
272.468	21.039	864.532	675.210
273.482	21.184	863.668	675.035
274.497	20.528	862.720	671.699
275.512	20.326	861.858	670.188
276.526	20.573	862.024	671.214
277.541	20.749	861.418	671.362
278.555	20.655	860.317	670.081
279.570	20.487	859.439	668.693
280.585	20.691	858.667	668.817
281.599	20.516	857.963	667.538
282.614	20.010	856.709	664.561
283.628	20.201	856.413	665.005
284.643	20.431	856.246	665.698
285.657	20.036	854.628	662.870
286.672	19.780	854.104	661.424
287.687	20.494	853.906	663.943
288.701	20.389	853.837	663.428
289.716	19.972	853.027	661.151
290.730	20.097	851.958	660.739
291.745	19.802	851.106	658.898
292.760	20.104	851.508	660.302
293.774	21.025	851.504	663.745
294.789	21.279	851.042	664.293
295.803	21.470	850.650	664.655
296.818	21.503	849.916	664.145
297.833	20.841	849.099	660.938
298.847	20.863	847.965	660.079
299.862	21.156	847.790	660.994
300.876	21.435	847.669	661.898
301.891	21.204	846.412	659.986
302.906	20.684	845.819	657.499
303.920	20.880	845.520	657.948
304.935	21.285	844.987	659.003
305.949	21.265	844.409	658.421
306.964	21.072	843.822	657.177
307.979	21.175	843.042	656.899
308.993	21.478	842.951	657.910
310.008	21.461	842.055	657.087
311.022	21.143	841.632	655.508
312.037	21.091	841.215	654.931
313.052	20.865	840.218	653.247
314.066	20.108	838.631	649.121
315.081	19.892	837.730	647.559
316.095	20.532	838.520	650.508
317.110	21.062	837.949	651.989
318.125	20.294	836.379	647.843
319.139	19.202	835.380	642.937
320.154	19.181	835.172	642.644
321.168	20.147	835.030	646.080
322.183	20.770	835.144	648.430
323.197	20.958	834.116	648.276
324.212	20.947	834.720	648.648
325.227	21.166	833.647	648.570
326.241	20.976	832.990	647.297
327.256	21.075	832.244	647.023
328.270	20.894	831.534	645.745
329.285	20.764	830.641	644.511
330.300	20.537	829.994	643.113
331.314	20.788	829.932	643.939
332.329	21.053	829.837	644.785
333.343	21.287	829.146	645.055
334.358	21.114	829.131	644.348
335.373	21.304	828.478	644.487
336.387	21.517	828.451	645.195
337.402	21.508	828.337	645.012
338.416	21.463	827.719	644.310
339.431	21.657	827.268	644.618
340.446	21.782	826.827	644.674
341.460	21.526	826.538	643.450
342.475	21.359	826.024	642.382
343.489	21.508	825.401	642.388
344.504	21.941	825.270	643.817
345.519	21.887	824.824	643.214
346.533	21.865	824.460	642.793
347.548	22.102	824.062	643.293
348.562	21.914	823.607	642.195
349.577	22.013	822.663	641.761
350.592	21.889	822.170	640.867
351.606	22.008	821.174	640.470
352.621	21.698	820.621	638.850
353.635	21.815	819.653	638.467
354.650	21.236	817.733	634.809
355.665	20.325	816.554	630.531
356.679	20.586	816.753	631.578
357.694	21.058	815.762	632.466
358.708	20.817	815.904	631.646
359.723	21.424	815.667	633.607
360.738	21.638	815.281	634.028
361.752	21.797	814.692	634.088
362.767	21.954	814.483	634.436
363.781	22.065	813.932	634.353
364.796	22.262	813.512	634.680
365.810	22.377	813.219	634.809
366.825	22.397	812.512	634.276
367.840	21.905	811.975	632.026
368.854	21.625	811.221	630.375
369.869	21.658	810.895	630.185
370.883	21.632	810.416	629.664
371.898	21.391	810.127	628.518
372.913	21.595	809.659	628.833
373.927	21.895	809.101	629.421
374.942	21.908	809.002	629.334
375.956	22.017	808.582	629.340
376.971	22.164	807.772	629.181
377.986	22.183	807.358	628.872
379.000	22.185	806.983	628.532
380.015	22.126	806.094	627.573
381.029	22.020	805.930	627.009
382.044	22.176	805.117	626.879
383.059	22.262	804.506	626.653
384.073	22.315	804.177	626.530
385.088	22.171	803.847	625.705
386.102	22.031	803.044	624.529
387.117	22.157	802.204	624.266
388.132	21.767	800.926	621.832
389.146	21.303	800.241	619.601
390.161	21.659	800.425	620.952
391.175	21.949	800.098	621.670
392.190	21.605	799.071	619.599
393.205	20.446	797.084	613.910
394.219	19.184	795.205	607.959
395.234	19.021	795.683	607.695
396.248	20.567	797.162	614.238
397.263	21.922	797.718	619.398
398.278	21.907	796.897	618.650
399.292	21.658	796.475	617.392
400.307	21.775	795.424	616.934
401.321	21.909	795.414	617.342
402.336	22.133	795.514	618.153
403.350	22.476	795.184	619.049
404.365	22.797	794.777	619.805
405.380	23.083	794.442	620.492
406.394	22.995	794.208	619.947
407.409	22.821	793.526	618.749
408.423	22.881	793.115	618.583
409.438	22.930	792.657	618.343
410.453	22.948	792.453	618.191
411.467	23.004	791.677	617.727
412.482	23.011	791.224	617.346
413.496	23.051	790.833	617.125
414.511	22.929	790.802	616.618
415.526	22.840	790.383	615.926
416.540	22.790	789.432	614.959
417.555	22.622	788.881	613.891
418.569	22.581	788.552	613.437
419.584	22.459	788.120	612.622
420.599	22.472	787.502	612.132
421.613	158.016	1363.996	1796.957
422.628	136.790	1447.965	1797.069
