DTS Sentinel unit serial number:	SN413079Multiplexer serial number:	ORYXHardware model number:	OX4-SRSoftware version number:	ORYX F/W v4.00 Oryx Data Collector v3.7.2.0data status	okinstallation	princeton_trtdifferential loss correction	single-endedforward channel	channel 1reverse channel	N/Adate	2019/09/11time	04:36:11forward acquisition time	60.00reverse acquisition time	0.00gamma	496.2192k internal	0.2331k external	0.2331temperature offset calibration	0.9921default loss term (dB/km)	0.3790temperature slope calibration	1.0000multiplexer offset coefficient	1.0000multiplexer slope coefficient	1.0000fibre end	0.00T internal ref (°C)	29.56T ext. ref 1 (°C)	-0.29T ext. ref 2 (°C)	23.39length (m)	temperature (°C)	Stokes	anti-Stokes-747.200	139.286	0.063	-0.083
-746.185	-87.276	0.285	-0.087
-745.171	321.835	-0.139	0.266
-744.156	132.966	0.169	0.220
-743.142	800.000	0.046	-0.176
-742.127	161.478	-0.091	0.129
-741.112	482.995	-0.082	-0.187
-740.098	-60.682	0.276	0.118
-739.083	-179.411	-0.103	-0.002
-738.069	14.178	-0.075	0.059
-737.054	201.995	-0.153	0.238
-736.039	82.956	0.269	-0.294
-735.025	-64.860	0.020	-0.008
-734.010	253.186	-0.136	0.234
-732.996	49.719	-0.130	-0.123
-731.981	-200.000	-0.038	0.171
-730.966	800.000	-0.038	0.164
-729.952	-82.584	-0.197	-0.064
-728.937	778.023	-0.055	-0.151
-727.923	-46.385	0.589	-0.291
-726.908	-88.407	-0.035	-0.011
-725.894	-115.356	0.216	-0.041
-724.879	142.131	0.097	-0.130
-723.864	157.782	-0.244	0.340
-722.850	-35.975	-0.244	-0.133
-721.835	800.000	0.069	-0.242
-720.821	-200.000	-0.015	-0.211
-719.806	210.469	-0.081	0.128
-718.791	324.745	0.052	0.101
-717.777	-117.491	-0.308	-0.056
-716.762	-200.000	0.007	0.030
-715.748	138.775	0.236	0.312
-714.733	800.000	0.056	-0.222
-713.718	-200.000	-0.034	0.169
-712.704	443.751	-0.137	-0.302
-711.689	39.063	0.100	-0.090
-710.675	-200.000	0.030	-0.180
-709.660	367.123	-0.075	-0.153
-708.645	-200.000	0.024	-0.110
-707.631	424.069	0.075	-0.162
-706.616	275.959	-0.159	-0.283
-705.602	59.345	0.285	-0.282
-704.587	-200.000	0.037	-0.261
-703.572	-166.537	0.381	0.016
-702.558	-162.885	-0.193	0.009
-701.543	-200.000	-0.022	-0.248
-700.529	-130.467	0.304	0.041
-699.514	-200.000	0.014	-0.138
-698.499	-200.000	-0.006	0.127
-697.485	45.156	-0.108	0.100
-696.470	800.000	0.080	-0.347
-695.456	61.377	-0.210	-0.210
-694.441	800.000	-0.075	0.264
-693.426	-59.414	-0.376	0.162
-692.412	-148.968	0.160	-0.013
-691.397	-152.484	-0.106	-0.008
-690.383	800.000	0.034	-0.118
-689.368	-200.000	0.008	-0.166
-688.354	800.000	0.072	-0.201
-687.339	-149.825	-0.093	-0.007
-686.324	164.117	-0.174	-0.245
-685.310	-50.328	-0.129	-0.061
-684.295	800.000	-0.084	-0.302
-683.281	-174.049	0.416	0.012
-682.266	-120.342	0.159	0.027
-681.251	20.431	0.311	-0.252
-680.237	-151.669	-0.230	-0.017
-679.222	1.570	0.162	-0.117
-678.208	-15.986	-0.169	-0.108
-677.193	-200.000	-0.009	-0.229
-676.178	-91.377	-0.290	0.083
-675.164	364.705	0.082	0.165
-674.149	-200.000	0.045	0.217
-673.135	-189.413	-0.310	-0.004
-672.120	363.011	-0.147	-0.296
-671.105	-38.705	0.356	-0.189
-670.091	-46.710	-0.104	-0.051
-669.076	-69.880	0.293	-0.112
-668.062	304.863	-0.131	-0.244
-667.047	-200.000	-0.056	0.305
-666.032	-200.000	-0.020	0.205
-665.018	21.457	0.224	0.183
-664.003	-141.766	0.253	-0.025
-662.989	-195.652	0.111	0.001
-661.974	-23.865	-0.137	-0.082
-660.959	-200.000	0.022	-0.294
-659.945	2.168	-0.062	-0.045
-658.930	800.000	0.065	0.196
-657.916	-29.515	0.165	-0.094
-656.901	-102.997	-0.237	-0.056
-655.886	205.332	0.096	-0.150
-654.872	-3.805	0.114	-0.079
-653.857	4.761	0.215	0.159
-652.843	196.348	0.096	0.146
-651.828	-200.000	-0.041	-0.292
-650.814	800.000	0.080	-0.221
-649.799	342.937	-0.139	0.273
-648.784	800.000	0.060	-0.256
-647.770	-6.259	-0.413	-0.283
-646.755	36.319	-0.098	-0.087
-645.741	-66.865	-0.113	0.045
-644.726	108.272	-0.115	0.138
-643.711	-106.845	-0.108	0.024
-642.697	-152.243	0.394	0.029
-641.682	-146.508	-0.081	0.007
-640.668	-105.861	-0.245	-0.055
-639.653	-200.000	-0.116	-0.000
-638.638	800.000	0.098	-0.278
-637.624	800.000	0.057	-0.173
-636.609	4.517	-0.130	-0.095
-635.595	-150.604	0.156	0.012
-634.580	-20.723	-0.122	-0.075
-633.565	800.000	0.104	-0.314
-632.551	-67.180	0.351	-0.138
-631.536	-126.101	-0.344	0.052
-630.522	51.978	-0.071	0.068
-629.507	-155.383	-0.164	0.011
-628.492	-59.628	-0.029	-0.012
-627.478	16.605	0.054	-0.043
-626.463	-10.935	0.162	-0.107
-625.449	-62.503	0.310	-0.129
-624.434	10.061	-0.149	-0.114
-623.419	800.000	0.005	0.019
-622.405	-72.606	-0.454	-0.168
-621.390	800.000	0.042	0.167
-620.376	-29.233	-0.318	-0.183
-619.361	-95.808	0.134	-0.036
-618.346	339.888	0.047	0.092
-617.332	-35.440	0.169	-0.092
-616.317	-53.412	-0.197	0.090
-615.303	212.945	-0.106	0.168
-614.288	800.000	0.084	-0.339
-613.273	-166.881	-0.052	-0.002
-612.259	124.232	-0.129	-0.163
-611.244	484.665	-0.007	0.017
-610.230	-200.000	-0.020	0.109
-609.215	800.000	-0.053	0.149
-608.201	199.390	-0.170	-0.260
-607.186	72.313	0.273	-0.285
-606.171	-63.035	0.182	-0.075
-605.157	44.485	-0.311	0.286
-604.142	-49.343	0.292	0.140
-603.128	45.844	0.113	-0.105
-602.113	-59.345	-0.378	-0.163
-601.098	800.000	0.044	-0.147
-600.084	204.448	-0.149	0.231
-599.069	800.000	-0.048	0.199
-598.055	45.744	-0.091	0.084
-597.040	-144.063	0.224	0.021
-596.025	798.172	0.153	0.423
-595.011	-126.771	0.240	-0.035
-593.996	-200.000	-0.015	0.130
-592.982	680.022	-0.039	-0.101
-591.967	201.908	0.164	0.253
-590.952	0.013	-0.319	-0.227
-589.938	-70.026	0.317	0.121
-588.923	225.738	-0.305	-0.495
-587.909	-109.600	-0.476	-0.100
-586.894	275.723	0.231	-0.410
-585.879	598.515	-0.046	0.114
-584.865	74.513	0.216	0.228
-583.850	800.000	-0.113	0.435
-582.836	800.000	-0.020	-0.082
-581.821	-38.930	0.153	0.081
-580.806	72.365	0.184	0.192
-579.792	-200.000	0.018	0.148
-578.777	-71.619	-0.100	0.037
-577.763	-200.000	-0.033	0.194
-576.748	141.489	-0.061	0.081
-575.733	800.000	0.061	0.179
-574.719	-103.493	0.492	0.116
-573.704	-200.000	0.010	-0.075
-572.690	-50.978	-0.179	0.084
-571.675	167.355	-0.155	-0.220
-570.661	800.000	-0.124	-0.441
-569.646	212.190	-0.094	0.148
-568.631	78.498	0.070	-0.075
-567.617	800.000	0.078	0.312
-566.602	-200.000	-0.007	0.201
-565.588	-3.342	0.276	0.192
-564.573	-200.000	0.019	0.266
-563.558	364.173	0.034	-0.068
-562.544	-81.221	0.112	0.037
-561.529	113.890	-0.202	0.246
-560.515	474.236	-0.060	0.135
-559.500	-200.000	0.027	-0.497
-558.485	-8.401	-0.214	-0.144
-557.471	49.161	0.112	0.105
-556.456	-128.634	0.070	0.010
-555.442	-150.631	0.079	-0.006
-554.427	-200.000	-0.023	-0.179
-553.412	-59.428	-0.316	-0.136
-552.398	-200.000	-0.071	0.369
-551.383	74.506	-0.116	-0.121
-550.369	143.772	-0.258	0.344
-549.354	598.476	0.168	0.415
-548.339	28.918	-0.220	-0.186
-547.325	-3.758	0.206	0.143
-546.310	149.191	0.125	0.169
-545.296	267.911	-0.180	0.315
-544.281	800.000	0.050	-0.209
-543.266	800.000	0.116	0.363
-542.252	52.192	0.126	0.120
-541.237	800.000	-0.046	-0.131
-540.223	800.000	0.068	-0.237
-539.208	-93.420	-0.126	-0.035
-538.193	-144.667	0.254	0.023
-537.179	-109.970	0.412	0.086
-536.164	800.000	-0.112	0.412
-535.150	-200.000	0.002	0.344
-534.135	329.666	0.048	0.092
-533.121	106.548	0.190	-0.225
-532.106	115.892	-0.025	0.030
-531.091	100.481	-0.173	0.200
-530.077	98.649	-0.209	0.240
-529.062	-200.000	-0.076	0.575
-528.048	-200.000	0.016	0.474
-527.033	58.569	0.125	-0.123
-526.018	-21.720	0.185	-0.113
-525.004	800.000	-0.150	0.485
-523.989	-75.047	0.356	0.127
-522.975	293.667	-0.041	-0.075
-521.960	395.707	-0.094	0.196
-520.945	-61.676	-0.237	-0.099
-519.931	800.000	0.052	0.164
-518.916	-66.787	0.056	0.022
-517.902	-68.743	0.272	0.105
-516.887	-87.932	0.123	0.037
-515.872	-6.490	-0.134	-0.091
-514.858	673.001	-0.011	0.029
-513.843	34.997	0.099	-0.087
-512.829	800.000	0.031	0.091
-511.814	-167.999	0.314	0.012
-510.799	-9.668	-0.273	-0.182
-509.785	-200.000	-0.041	-0.201
-508.770	-200.000	-0.032	-0.244
-507.756	-94.644	-0.264	0.072
-506.741	-200.000	-0.006	-0.058
-505.726	800.000	-0.085	-0.245
-504.712	45.980	0.092	-0.085
-503.697	126.066	-0.155	0.196
-502.683	227.626	0.299	0.485
-501.668	800.000	-0.046	0.177
-500.653	-105.815	-0.047	0.011
-499.639	800.000	0.103	-0.306
-498.624	-110.351	0.041	-0.009
-497.610	-81.193	0.269	-0.089
-496.595	-134.393	-0.025	0.003
-495.581	-200.000	-0.000	-0.228
-494.566	47.129	-0.170	0.158
-493.551	186.544	-0.103	0.153
-492.537	615.459	0.053	0.133
-491.522	-90.229	0.103	-0.030
-490.508	-120.138	-0.186	-0.032
-489.493	800.000	-0.049	-0.207
-488.478	-50.356	0.571	0.269
-487.464	-200.000	-0.002	0.226
-486.449	189.574	0.034	-0.051
-485.435	77.753	-0.187	-0.199
-484.420	343.731	0.129	-0.251
-483.405	-20.419	0.154	-0.095
-482.391	-200.000	0.045	-0.316
-481.376	65.204	-0.138	-0.139
-480.362	800.000	-0.129	-0.361
-479.347	-17.974	-0.247	-0.154
-478.332	-12.341	0.209	0.136
-477.318	-128.443	0.279	-0.039
-476.303	-51.444	-0.153	-0.071
-475.289	122.394	-0.174	0.217
-474.274	48.283	-0.262	0.244
-473.259	14.606	-0.119	-0.092
-472.245	-200.000	0.021	-0.211
-471.230	-200.000	-0.016	-0.096
-470.216	16.200	0.193	-0.152
-469.201	-200.000	-0.012	0.155
-468.186	-5.424	-0.075	0.051
-467.172	313.682	0.046	0.087
-466.157	-200.000	0.005	0.092
-465.143	-58.218	0.244	0.106
-464.128	57.855	0.047	0.046
-463.113	333.540	-0.139	0.268
-462.099	-105.619	0.204	-0.046
-461.084	800.000	0.029	-0.116
-460.070	540.713	-0.117	-0.277
-459.055	-6.718	0.009	-0.006
-458.040	800.000	-0.092	-0.282
-457.026	-48.067	-0.168	-0.081
-456.011	-164.997	-0.169	-0.008
-454.997	-17.203	-0.011	-0.007
-453.982	-200.000	0.014	0.337
-452.968	-161.672	0.308	-0.016
-451.953	-183.694	0.214	-0.004
-450.938	68.601	-0.112	-0.114
-449.924	-132.742	0.263	-0.033
-448.909	359.674	0.136	-0.270
-447.895	91.023	0.171	-0.191
-446.880	210.642	-0.169	-0.264
-445.865	800.000	0.049	-0.142
-444.851	-74.606	0.060	-0.022
-443.836	451.648	-0.060	0.133
-442.822	-11.344	0.038	-0.025
-441.807	800.000	-0.038	-0.153
-440.792	225.789	-0.055	0.088
-439.778	-200.000	0.001	-0.084
-438.763	98.600	-0.140	-0.161
-437.749	256.736	-0.127	-0.217
-436.734	218.228	-0.180	0.286
-435.719	-13.319	0.143	-0.092
-434.705	-200.000	0.007	0.337
-433.690	426.505	0.088	-0.189
-432.676	-76.953	-0.048	-0.017
-431.661	631.635	0.047	-0.118
-430.646	-103.588	0.119	0.028
-429.632	-200.000	-0.002	0.215
-428.617	-21.547	0.059	0.036
-427.603	-120.248	-0.232	0.039
-426.588	221.340	-0.088	-0.140
-425.573	-138.235	-0.217	-0.024
-424.559	323.009	0.076	-0.144
-423.544	124.571	-0.094	0.117
-422.530	-46.464	0.196	0.096
-421.515	128.446	0.221	0.279
-420.500	-100.640	-0.179	0.044
-419.486	79.259	-0.189	-0.202
-418.471	-39.474	0.114	0.059
-417.457	-18.654	-0.094	0.058
-416.442	-16.505	0.111	0.070
-415.428	388.364	0.093	-0.191
-414.413	-159.612	-0.131	-0.007
-413.398	634.642	0.194	-0.489
-412.384	126.225	-0.143	-0.179
-411.369	800.000	-0.059	0.222
-410.355	-118.626	0.198	-0.035
-409.340	-73.538	-0.155	0.056
-408.325	-200.000	0.008	0.060
-407.311	89.101	-0.070	0.077
-406.296	-188.992	-0.105	-0.001
-405.282	-200.000	-0.008	0.119
-404.267	157.987	-0.126	0.173
-403.252	-200.000	0.012	0.103
-402.238	-200.000	-0.003	0.118
-401.223	383.426	0.133	0.273
-400.209	25.980	0.119	-0.099
-399.194	-200.000	-0.005	-0.333
-398.179	-175.359	-0.090	-0.002
-397.165	142.539	-0.101	-0.133
-396.150	215.069	0.173	0.272
-395.136	316.504	-0.059	0.110
-394.121	-200.000	-0.026	-0.264
-393.106	25.585	0.163	-0.135
-392.092	-115.802	-0.327	0.061
-391.077	-106.739	-0.164	-0.036
-390.063	800.000	-0.070	0.273
-389.048	-64.443	-0.123	0.050
-388.033	118.999	-0.112	-0.138
-387.019	-73.632	0.178	-0.065
-386.004	24.522	0.335	-0.275
-384.990	800.000	-0.037	-0.153
-383.975	-182.087	-0.194	-0.004
-382.960	-60.359	-0.099	-0.042
-381.946	-158.546	0.172	-0.010
-380.931	800.000	0.033	-0.125
-379.917	-28.586	-0.452	0.259
-378.902	254.294	-0.197	0.334
-377.888	-200.000	0.006	-0.171
-376.873	800.000	-0.104	-0.353
-375.858	191.228	0.114	0.171
-374.844	67.150	0.208	-0.210
-373.829	113.387	0.167	0.201
-372.815	-116.499	-0.140	0.026
-371.800	-200.000	-0.002	-0.109
-370.785	-15.743	0.129	0.082
-369.771	-143.512	0.185	0.017
-368.756	-200.000	-0.077	-0.373
-367.742	-43.873	-0.053	0.027
-366.727	-18.172	-0.110	-0.068
-365.712	137.334	-0.056	-0.073
-364.698	4.558	0.135	-0.098
-363.683	-49.655	-0.044	0.021
-362.669	324.499	0.018	-0.034
-361.654	-200.000	-0.009	-0.327
-360.639	17.717	0.049	0.038
-359.625	-6.114	0.116	0.078
-358.610	800.000	-0.064	-0.182
-357.596	-200.000	-0.012	-0.251
-356.581	126.049	-0.208	-0.261
-355.566	-121.216	-0.249	-0.041
-354.552	800.000	0.072	0.207
-353.537	800.000	-0.051	0.193
-352.523	-110.739	0.162	-0.033
-351.508	-87.301	-0.179	0.054
-350.493	303.047	0.114	0.208
-349.479	-116.799	-0.359	0.065
-348.464	125.976	-0.158	0.197
-347.450	449.643	-0.197	-0.432
-346.435	37.338	-0.157	-0.138
-345.420	184.386	0.072	0.106
-344.406	-142.011	-0.160	-0.016
-343.391	-138.938	-0.170	-0.018
-342.377	123.634	-0.033	0.041
-341.362	2.551	0.050	0.036
-340.348	-7.035	-0.071	0.048
-339.333	-54.813	-0.326	-0.146
-338.318	-81.910	0.243	0.079
-337.304	-24.854	-0.019	-0.011
-336.289	27.749	0.094	0.079
-335.275	-77.226	0.044	-0.015
-334.260	800.000	0.031	-0.125
-333.245	-15.292	-0.185	0.117
-332.231	296.428	-0.029	0.053
-331.216	-191.480	-0.217	0.002
-330.202	-200.000	0.014	-0.120
-329.187	-200.000	0.019	-0.099
-328.172	-124.029	0.092	0.014
-327.158	-77.886	0.312	-0.107
-326.143	800.000	-0.024	-0.103
-325.129	-176.233	0.277	-0.007
-324.114	-200.000	-0.011	-0.283
-323.099	-9.637	-0.289	-0.191
-322.085	-141.241	-0.217	-0.022
-321.070	-33.569	0.427	0.234
-320.056	800.000	0.021	0.084
-319.041	270.665	-0.140	0.243
-318.026	-88.104	0.212	0.063
-317.012	-200.000	-0.032	-0.262
-315.997	-200.000	0.009	0.039
-314.983	76.914	-0.101	0.107
-313.968	297.324	-0.102	0.185
-312.953	-115.905	-0.110	-0.020
-311.939	-65.880	0.228	0.090
-310.924	375.030	-0.151	0.305
-309.910	520.178	0.126	-0.292
-308.895	283.828	0.164	-0.291
-307.880	74.480	0.129	0.134
-306.866	106.729	0.126	0.148
-305.851	20.605	-0.219	-0.175
-304.837	-6.262	0.114	-0.077
-303.822	-200.000	0.012	-0.085
-302.807	-149.622	0.096	-0.007
-301.793	-200.000	0.010	0.149
-300.778	800.000	0.086	-0.289
-299.764	566.386	0.025	0.059
-298.749	336.737	-0.141	-0.272
-297.735	58.819	-0.282	0.274
-296.720	-200.000	0.224	-0.001
-295.705	47.712	-0.241	0.222
-294.691	-200.000	-0.005	-0.356
-293.676	236.465	0.214	-0.351
-292.662	-132.942	-0.152	0.019
-291.647	-200.000	-0.006	-0.136
-290.632	-34.989	0.005	-0.003
-289.618	-200.000	-0.004	-0.097
-288.603	0.567	0.101	0.071
-287.589	-13.189	0.052	-0.033
-286.574	68.157	-0.070	0.071
-285.559	-114.270	-0.306	0.058
-284.545	-17.283	0.134	0.084
-283.530	-60.546	0.307	0.129
-282.516	-77.668	0.198	-0.068
-281.501	-200.000	-0.042	-0.224
-280.486	-96.794	0.236	0.061
-279.472	-18.560	-0.093	0.057
-278.457	-152.357	-0.178	0.013
-277.443	-122.423	0.445	-0.072
-276.428	-149.632	-0.129	0.010
-275.413	7.209	-0.162	-0.119
-274.399	1.499	0.378	-0.269
-273.384	-200.000	0.010	-0.169
-272.370	-139.733	-0.288	0.030
-271.355	-200.000	-0.001	-0.134
-270.340	198.640	-0.087	-0.132
-269.326	-57.143	-0.123	-0.054
-268.311	-77.381	0.103	0.035
-267.297	56.504	-0.075	-0.072
-266.282	800.000	0.078	0.293
-265.267	272.229	0.126	0.220
-264.253	33.327	0.359	0.307
-263.238	-19.593	-0.201	-0.123
-262.224	-4.395	0.306	-0.209
-261.209	-200.000	-0.065	0.331
-260.195	191.724	0.036	-0.053
-259.180	-98.004	0.241	-0.061
-258.165	-19.177	-0.120	-0.074
-257.151	70.215	0.096	0.098
-256.136	-200.000	0.004	-0.103
-255.122	-65.400	-0.195	0.077
-254.107	191.317	0.134	0.199
-253.092	120.062	0.066	-0.081
-252.078	105.207	0.127	0.148
-251.063	-129.240	0.167	0.023
-250.049	-124.544	-0.223	0.034
-249.034	-37.313	0.462	0.244
-248.019	-40.906	0.375	-0.191
-247.005	1.798	-0.309	0.220
-245.990	36.649	0.252	0.220
-244.976	18.869	-0.096	0.076
-243.961	100.343	-0.211	-0.242
-242.946	664.852	0.122	-0.312
-241.932	-200.000	0.025	-0.169
-240.917	-66.069	-0.234	-0.092
-239.903	-104.099	-0.105	0.024
-238.888	-42.063	0.167	0.085
-237.873	-28.446	0.098	0.056
-236.859	-200.000	-0.039	0.235
-235.844	81.854	0.235	0.251
-234.830	260.564	0.077	-0.132
-233.815	-98.290	-0.177	-0.045
-232.800	-200.000	0.055	0.307
-231.786	-200.000	-0.037	-0.285
-230.771	-91.008	0.115	0.033
-229.757	186.954	-0.155	-0.228
-228.742	-11.718	0.203	0.132
-227.727	206.397	-0.147	0.226
-226.713	-200.000	0.010	-0.344
-225.698	401.846	0.091	0.189
-224.684	-200.000	-0.041	-0.188
-223.669	-31.398	0.215	-0.119
-222.655	172.485	0.062	0.088
-221.640	-200.000	0.014	0.138
-220.625	-200.000	0.017	-0.079
-219.611	-94.451	0.163	0.044
-218.596	-24.357	-0.284	-0.167
-217.582	-38.627	0.236	0.123
-216.567	-42.650	0.345	-0.173
-215.552	528.008	0.146	0.340
-214.538	-200.000	-0.051	0.296
-213.523	800.000	0.119	0.339
-212.509	800.000	0.007	-0.026
-211.494	174.260	0.193	-0.275
-210.479	-10.062	-0.302	-0.198
-209.465	237.092	0.138	0.225
-208.450	96.476	0.036	-0.040
-207.436	205.124	-0.173	-0.265
-206.421	-111.280	0.264	-0.053
-205.406	209.652	0.097	0.149
-204.392	-200.000	-0.000	0.162
-203.377	165.439	-0.162	0.226
-202.363	-88.968	0.176	0.051
-201.348	82.927	0.017	0.019
-200.333	-111.443	0.047	-0.009
-199.319	-48.552	0.111	0.053
-198.304	173.853	0.155	0.221
-197.290	-200.000	0.018	-0.155
-196.275	-107.982	0.263	0.056
-195.260	-10.470	0.098	0.064
-194.246	98.333	-0.078	0.089
-193.231	800.000	-0.046	0.183
-192.217	294.155	0.018	0.032
-191.202	800.000	0.044	-0.153
-190.187	-81.162	-0.100	-0.032
-189.173	-87.522	-0.284	-0.085
-188.158	499.743	0.015	0.034
-187.144	249.128	-0.152	-0.254
-186.129	44.215	0.046	-0.042
-185.114	2.593	0.112	0.080
-184.100	-169.490	-0.295	0.011
-183.085	47.834	-0.303	0.278
-182.071	172.579	-0.142	-0.201
-181.056	-111.406	-0.059	-0.012
-180.042	321.153	-0.123	0.230
-179.027	-3.018	-0.369	0.254
-178.012	53.191	-0.138	0.130
-176.998	800.000	0.014	0.059
-175.983	-200.000	-0.009	-0.065
-174.969	800.000	-0.051	0.163
-173.954	-200.000	0.020	-0.099
-172.939	3.277	-0.332	0.237
-171.925	292.090	0.184	0.331
-170.910	382.046	0.142	-0.286
-169.896	260.836	-0.160	-0.273
-168.881	-200.000	0.047	-0.251
-167.866	-157.927	0.142	-0.008
-166.852	-200.000	0.072	-0.393
-165.837	68.199	-0.139	-0.140
-164.823	57.494	0.279	-0.268
-163.808	200.440	0.088	-0.133
-162.793	143.451	-0.229	0.300
-161.779	-133.014	-0.274	0.034
-160.764	51.589	-0.223	0.209
-159.750	-60.179	0.178	-0.075
-158.735	243.070	-0.118	-0.195
-157.720	-28.254	-0.035	0.020
-156.706	205.382	-0.165	-0.252
-155.691	-105.758	0.340	-0.076
-154.677	800.000	0.053	0.160
-153.662	226.194	-0.031	0.049
-152.647	-49.872	0.222	0.104
-151.633	-5.235	-0.113	0.077
-150.618	-59.610	-0.103	-0.043
-149.604	800.000	-0.084	0.353
-148.589	-9.113	-0.329	-0.216
-147.574	800.000	-0.109	0.324
-146.560	-39.911	-0.398	-0.204
-145.545	-138.904	-0.228	0.024
-144.531	-83.618	-0.183	-0.057
-143.516	139.374	0.131	0.170
-142.502	-107.973	-0.436	-0.093
-141.487	-169.080	-0.022	-0.001
-140.472	-200.000	-0.014	0.084
-139.458	-200.000	-0.021	0.265
-138.443	-77.614	0.279	-0.095
-137.429	-6.257	-0.064	0.043
-136.414	-63.573	0.193	-0.078
-135.399	-23.737	0.051	-0.030
-134.385	-200.000	-0.006	-0.417
-133.370	-200.000	-0.014	0.347
-132.356	78.926	0.313	0.329
-131.341	-200.000	-0.037	0.196
-130.326	800.000	0.056	-0.162
-129.312	-80.855	0.186	0.060
-128.297	-184.050	0.331	0.005
-127.283	-200.000	0.066	0.364
-126.268	-200.000	-0.058	0.365
-125.253	800.000	0.039	0.114
-124.239	-85.759	-0.144	-0.044
-123.224	11.286	-0.138	0.104
-122.210	480.363	0.095	0.211
-121.195	-200.000	-0.039	0.227
-120.180	326.342	-0.125	-0.235
-119.166	-200.000	0.010	0.176
-118.151	525.953	-0.077	0.179
-117.137	-94.484	-0.600	-0.161
-116.122	-148.794	0.331	0.026
-115.107	-116.508	0.201	-0.036
-114.093	-59.080	0.211	0.089
-113.078	180.411	0.134	0.193
-112.064	358.629	0.089	-0.174
-111.049	618.682	-0.053	-0.130
-110.034	-90.338	0.397	-0.113
-109.020	480.082	0.074	-0.164
-108.005	103.172	-0.138	0.158
-106.991	-200.000	-0.005	0.146
-105.976	158.129	0.139	-0.190
-104.962	143.223	-0.131	-0.172
-103.947	-200.000	-0.036	-0.311
-102.932	-100.803	-0.175	0.042
-101.918	105.235	0.144	0.167
-100.903	47.337	-0.237	0.217
-99.889	-52.073	0.185	0.084
-98.874	251.406	0.120	-0.200
-97.859	114.073	-0.212	0.253
-96.845	-23.699	0.365	0.214
-95.830	-47.186	0.353	0.169
-94.816	800.000	-0.023	0.074
-93.801	581.548	-0.203	0.488
-92.786	-93.632	-0.148	-0.040
-91.772	-102.212	-0.079	-0.019
-90.757	286.511	0.055	0.097
-89.743	560.361	0.070	-0.165
-88.728	-114.589	-0.170	-0.032
-87.713	-200.000	0.019	0.185
-86.699	190.942	0.130	0.192
-85.684	148.338	0.066	0.087
-84.670	-122.687	-0.083	-0.013
-83.655	-94.815	0.617	0.164
-82.640	-200.000	0.016	-0.288
-81.626	-99.898	-0.182	-0.045
-80.611	-141.147	0.192	-0.019
-79.597	-99.990	0.097	0.024
-78.582	-200.000	-0.061	0.323
-77.567	570.033	0.065	-0.154
-76.553	800.000	-0.092	0.268
-75.538	-23.454	0.280	0.165
-74.524	517.270	-0.067	-0.153
-73.509	669.127	0.114	-0.288
-72.494	800.000	0.055	0.183
-71.480	-200.000	-0.028	0.235
-70.465	-72.652	-0.192	-0.069
-69.451	360.738	0.052	0.102
-68.436	-160.502	-0.366	0.019
-67.422	-91.948	-0.263	0.073
-66.407	348.929	0.121	-0.235
-65.392	33.930	-0.084	0.072
-64.378	267.504	-0.035	0.060
-63.363	355.420	0.125	-0.243
-62.349	-90.631	0.201	-0.057
-61.334	-8.088	-1.144	-0.755
-60.319	-200.000	0.091	0.664
-59.305	691.149	-0.485	-1.246
-58.290	682.019	0.385	0.983
-57.276	577.401	0.750	1.796
-56.261	-200.000	106.029	615.875
-55.246	506.227	1508.947	3427.052
-54.232	176.367	2700.695	3844.139
-53.217	111.703	2164.685	2559.459
-52.203	41.526	1598.998	1418.092
-51.188	32.971	1332.938	1131.125
-50.173	29.981	1291.241	1078.319
-49.159	54.474	1345.977	1270.307
-48.144	54.800	1361.075	1286.441
-47.130	33.112	1315.897	1117.321
-46.115	29.748	1297.938	1082.374
-45.100	29.610	1292.830	1077.269
-44.086	29.431	1291.096	1074.738
-43.071	29.379	1288.487	1072.220
-42.057	29.302	1286.494	1070.072
-41.042	29.438	1284.452	1069.117
-40.027	29.469	1283.393	1068.373
-39.013	29.444	1281.239	1066.393
-37.998	29.484	1279.254	1064.928
-36.984	29.559	1277.527	1063.884
-35.969	29.587	1275.683	1062.466
-34.954	29.617	1273.875	1061.092
-33.940	29.546	1273.076	1059.977
-32.925	29.668	1271.722	1059.504
-31.911	29.595	1270.216	1057.788
-30.896	29.613	1269.132	1056.946
-29.881	29.649	1267.094	1055.416
-28.867	29.635	1265.872	1054.275
-27.852	29.659	1263.994	1052.807
-26.838	29.696	1262.731	1051.922
-25.823	29.782	1261.548	1051.385
-24.809	29.742	1260.264	1050.047
-23.794	29.595	1259.442	1048.487
-22.779	29.675	1257.898	1047.609
-21.765	29.663	1256.165	1046.060
-20.750	29.552	1255.158	1044.551
-19.736	29.632	1253.605	1043.671
-18.721	29.547	1252.803	1042.481
-17.706	29.627	1251.390	1041.713
-16.692	29.476	1250.881	1040.396
-15.677	29.601	1249.585	1039.981
-14.663	29.560	1248.138	1038.504
-13.648	29.572	1247.053	1037.629
-12.633	29.468	1246.355	1036.422
-11.619	29.431	1245.315	1035.312
-10.604	29.423	1244.826	1034.817
-9.590	29.356	1243.819	1033.561
-8.575	29.481	1242.563	1033.178
-7.560	29.451	1241.732	1032.278
-6.546	29.513	1240.606	1031.650
-5.531	29.445	1240.392	1031.053
-4.517	29.497	1239.565	1030.614
-3.502	29.498	1238.527	1029.713
-2.487	29.493	1237.543	1028.826
-1.473	29.462	1233.578	1025.319
-0.458	28.041	1218.765	1005.160
0.556	22.056	1201.764	967.682
1.571	18.665	1206.502	952.620
2.586	17.966	1221.080	960.118
3.600	17.712	1211.063	950.744
4.615	13.388	1140.261	872.329
5.629	4.453	1065.988	771.231
6.644	0.037	1045.466	734.774
7.659	-0.294	1042.917	731.303
8.673	-0.543	1042.015	729.396
9.688	-0.378	1040.379	728.985
10.702	0.101	1039.258	730.463
11.717	6.042	1047.327	765.072
12.731	14.994	1060.010	818.221
13.746	19.510	1065.892	844.847
14.761	20.494	1066.557	850.112
15.775	20.521	1066.429	850.069
16.790	20.291	1065.734	848.314
17.804	20.189	1065.191	847.309
18.819	20.402	1064.675	847.862
19.834	20.393	1064.297	847.444
20.848	20.456	1063.978	847.420
21.863	20.550	1063.274	847.246
22.877	20.313	1062.990	845.787
23.892	20.458	1061.366	845.125
24.907	20.420	1061.374	844.872
25.921	20.518	1059.776	844.001
26.936	20.479	1058.432	842.669
27.950	20.425	1056.895	841.110
28.965	20.249	1054.864	838.567
29.980	20.342	1053.208	837.623
30.994	20.397	1052.874	837.551
32.009	20.527	1051.163	836.741
33.023	20.287	1049.945	834.546
34.038	20.282	1049.837	834.363
35.053	20.507	1048.489	834.294
36.067	20.454	1047.621	833.278
37.082	20.479	1047.171	832.965
38.096	20.732	1046.680	833.711
39.111	20.652	1045.962	832.683
40.126	20.581	1044.267	830.920
41.140	20.251	1042.600	827.950
42.155	20.030	1041.504	825.948
43.169	20.131	1040.629	825.666
44.184	20.282	1039.078	825.081
45.199	20.187	1038.121	823.795
46.213	20.167	1036.912	822.665
47.228	20.247	1036.394	822.564
48.242	20.480	1034.884	822.396
49.257	20.444	1034.674	821.983
50.271	20.480	1033.904	821.472
51.286	20.529	1032.703	820.677
52.301	20.471	1032.269	819.982
53.315	20.449	1031.094	818.873
54.330	20.395	1030.203	817.842
55.344	20.553	1029.800	818.190
56.359	20.500	1028.498	816.836
57.374	20.310	1027.555	815.121
58.388	20.317	1026.844	814.519
59.403	20.293	1026.283	813.891
60.417	20.127	1025.302	812.263
61.432	20.237	1024.422	812.009
62.447	20.329	1023.948	811.990
63.461	20.346	1023.342	811.515
64.476	20.300	1021.951	810.129
65.490	20.158	1021.337	808.906
66.505	20.273	1020.453	808.671
67.520	20.327	1019.709	808.261
68.534	19.960	1018.954	805.884
69.549	19.849	1017.578	804.208
70.563	19.792	1016.783	803.246
71.578	19.939	1015.695	802.997
72.593	19.678	1014.873	801.063
73.607	19.863	1013.963	801.134
74.622	20.169	1014.187	802.657
75.636	20.133	1013.573	801.931
76.651	19.947	1012.398	800.069
77.666	19.929	1011.580	799.270
78.680	19.904	1011.199	798.786
79.695	20.082	1010.510	798.990
80.709	19.980	1010.201	798.204
81.724	20.167	1008.794	797.881
82.739	20.269	1007.685	797.405
83.753	20.479	1007.344	798.027
84.768	20.770	1006.575	798.683
85.782	20.756	1005.866	797.986
86.797	20.645	1004.786	796.550
87.812	20.466	1003.871	794.936
88.826	20.616	1002.525	794.485
89.841	20.733	1001.779	794.356
90.855	20.870	1000.347	793.777
91.870	20.734	999.885	792.721
92.884	20.576	998.566	790.884
93.899	20.481	998.173	790.073
94.914	20.678	997.293	790.201
95.928	20.498	996.093	788.364
96.943	20.300	995.006	786.536
97.957	20.133	993.530	784.543
98.972	20.051	992.087	782.965
99.987	20.325	991.926	784.007
101.001	20.341	991.206	783.441
102.016	20.493	990.098	783.179
103.030	20.353	988.966	781.584
104.045	20.052	988.414	779.726
105.060	19.945	987.560	778.501
106.074	20.341	986.590	779.445
107.089	20.660	986.380	780.644
108.103	20.392	985.286	778.507
109.118	20.271	983.581	776.550
110.133	20.242	983.174	776.030
111.147	20.070	981.779	774.092
112.162	19.920	980.967	772.715
113.176	20.180	980.227	773.219
114.191	20.140	978.922	771.947
115.206	19.884	977.800	769.854
116.220	19.907	976.977	769.240
117.235	19.931	976.323	768.761
118.249	20.058	975.088	768.287
119.264	19.940	974.587	767.300
120.279	19.843	974.032	766.367
121.293	19.957	973.270	766.202
122.308	19.937	972.248	765.241
123.322	19.990	970.714	764.200
124.337	19.893	969.524	762.769
125.352	19.450	967.648	759.275
126.366	19.325	966.908	758.081
127.381	20.112	967.072	761.603
128.395	20.467	966.487	762.632
129.410	20.503	965.611	762.031
130.424	20.603	964.246	761.326
131.439	20.372	963.338	759.529
132.454	20.367	962.440	758.732
133.468	20.384	961.315	757.853
134.483	20.607	960.439	758.065
135.497	20.783	959.844	758.295
136.512	20.643	959.229	757.133
137.527	20.743	958.363	756.819
138.541	20.751	957.704	756.266
139.556	20.631	956.862	755.014
140.570	20.744	956.181	754.901
141.585	20.692	955.153	753.794
142.600	20.607	953.884	752.358
143.614	20.939	953.012	753.041
144.629	20.872	952.591	752.353
145.643	20.702	951.141	750.408
146.658	20.719	950.240	749.701
147.673	20.677	949.072	748.536
148.687	20.517	948.168	747.066
149.702	20.512	946.780	745.885
150.716	20.536	946.136	745.415
151.731	20.657	945.513	745.379
152.746	20.879	944.744	745.657
153.760	20.901	944.249	745.294
154.775	20.948	943.304	744.684
155.789	20.721	942.563	743.060
156.804	20.779	941.690	742.556
157.819	20.919	940.969	742.516
158.833	20.892	940.696	742.124
159.848	21.033	939.078	741.381
160.862	20.861	937.864	739.626
161.877	20.897	937.412	739.354
162.892	20.949	936.525	738.810
163.906	20.822	935.420	737.336
164.921	20.721	934.537	736.149
165.935	20.837	933.938	736.101
166.950	20.825	932.772	735.066
167.964	20.858	931.817	734.388
168.979	20.635	930.975	732.722
169.994	20.654	929.545	731.610
171.008	20.826	929.715	732.403
172.023	20.853	928.511	731.502
173.037	20.622	927.399	729.591
174.052	20.574	926.014	728.236
175.067	20.713	925.468	728.324
176.081	20.731	925.316	728.217
177.096	20.582	924.821	727.139
178.110	20.177	923.778	724.563
179.125	20.149	923.188	723.921
180.140	20.208	922.541	723.595
181.154	20.344	922.120	723.768
182.169	20.603	922.131	724.791
183.183	20.861	921.875	725.600
184.198	20.667	920.613	723.735
185.213	20.723	919.682	723.175
186.227	20.763	919.191	722.888
187.242	20.843	918.114	722.308
188.256	20.848	917.584	721.851
189.271	20.918	916.828	721.481
190.286	20.658	915.444	719.255
191.300	20.166	913.984	716.013
192.315	19.310	913.011	711.652
193.329	19.370	912.584	711.506
194.344	20.241	912.792	715.198
195.359	20.681	912.880	717.017
196.373	20.732	911.982	716.456
197.388	20.654	911.413	715.624
198.402	20.755	910.850	715.535
199.417	20.808	909.736	714.813
200.432	20.378	909.037	712.438
201.446	20.255	908.533	711.474
202.461	20.205	908.254	710.991
203.475	19.435	906.302	706.247
204.490	18.931	904.487	702.713
205.504	19.633	905.088	705.985
206.519	20.343	904.904	708.680
207.534	20.437	904.507	708.690
208.548	20.785	904.352	709.926
209.563	20.631	903.312	708.418
210.577	20.566	902.614	707.542
211.592	20.943	902.141	708.645
212.607	20.898	901.235	707.686
213.621	20.921	901.001	707.534
214.636	20.947	900.310	707.034
215.650	20.857	899.453	705.932
216.665	20.975	898.743	705.793
217.680	20.811	898.170	704.616
218.694	20.513	896.660	702.163
219.709	20.357	896.339	701.219
220.723	20.667	896.417	702.473
221.738	20.769	895.497	702.100
222.753	20.653	895.105	701.262
223.767	20.732	894.215	700.823
224.782	21.098	893.598	701.748
225.796	21.027	893.134	701.039
226.811	20.211	892.004	696.810
227.826	19.759	890.631	693.862
228.840	20.041	889.618	694.143
229.855	20.113	889.180	694.030
230.869	19.678	887.929	691.250
231.884	20.136	888.291	693.303
232.899	20.841	888.660	696.350
233.913	20.739	887.611	695.057
234.928	20.738	887.195	694.666
235.942	20.658	886.404	693.669
236.957	20.387	885.285	691.652
237.972	20.505	884.825	691.698
238.986	20.490	884.092	691.005
240.001	20.492	883.319	690.350
241.015	20.554	883.409	690.605
242.030	20.697	882.795	690.633
243.045	20.817	882.004	690.425
244.059	20.973	881.848	690.861
245.074	20.598	880.865	688.547
246.088	20.279	880.077	686.608
247.103	20.637	879.853	687.788
248.117	21.208	879.612	689.794
249.132	21.271	878.950	689.461
250.147	21.302	878.898	689.484
251.161	21.562	877.829	689.608
252.176	21.485	877.555	689.030
253.190	21.601	876.863	688.880
254.205	21.624	876.331	688.493
255.220	21.537	875.875	687.733
256.234	21.440	875.236	686.789
257.249	21.503	874.392	686.311
258.263	21.351	873.598	685.033
259.278	21.546	873.109	685.354
260.293	21.718	872.325	685.349
261.307	21.529	871.555	683.944
262.322	21.338	870.540	682.342
263.336	20.575	868.377	677.614
264.351	19.377	866.776	671.643
265.366	19.642	867.165	672.918
266.380	20.823	867.233	677.505
267.395	21.094	867.176	678.455
268.409	21.284	866.473	678.586
269.424	21.363	865.960	678.428
270.439	21.307	865.619	677.886
271.453	21.516	864.541	677.789
272.468	21.613	864.942	678.422
273.482	21.751	863.995	678.150
274.497	21.410	862.333	675.470
275.512	20.931	861.701	673.067
276.526	21.316	861.905	674.652
277.541	21.532	861.614	675.199
278.555	21.248	860.551	673.212
279.570	20.988	859.767	671.535
280.585	21.184	859.013	671.643
281.599	21.245	858.063	671.075
282.614	20.659	856.981	667.921
283.628	20.581	856.744	667.378
284.643	20.978	856.505	668.655
285.657	20.672	855.332	666.505
286.672	20.304	854.589	664.463
287.687	20.884	854.469	666.529
288.701	20.989	854.060	666.551
289.716	20.559	853.097	664.097
290.730	20.634	852.409	663.791
291.745	20.412	851.092	661.859
292.760	20.679	851.325	663.002
293.774	21.539	851.662	666.483
294.789	22.054	851.064	667.912
295.803	21.996	850.723	667.367
296.818	21.840	850.262	666.351
297.833	21.560	848.846	664.121
298.847	21.391	848.456	663.117
299.862	21.647	848.214	663.842
300.876	22.029	847.946	665.018
301.891	21.840	846.609	663.197
302.906	21.441	845.701	660.919
303.920	21.519	845.451	660.960
304.935	21.857	845.359	662.105
305.949	21.959	844.568	661.812
306.964	21.657	843.930	660.114
307.979	21.572	843.859	659.679
308.993	21.818	843.937	660.612
310.008	22.068	842.692	660.516
311.022	21.802	841.979	658.902
312.037	21.524	841.321	657.283
313.052	21.383	840.584	656.120
314.066	20.674	838.621	651.873
315.081	20.331	838.172	650.185
316.095	21.160	838.510	653.494
317.110	21.759	838.184	655.422
318.125	20.659	836.992	650.324
319.139	19.815	835.194	645.718
320.154	19.875	834.636	645.455
321.168	20.760	835.261	649.183
322.183	21.426	835.507	651.799
323.197	21.473	835.395	651.831
324.212	21.651	834.886	652.037
325.227	21.673	834.097	651.443
326.241	21.714	833.114	650.773
327.256	21.453	833.004	649.658
328.270	21.502	832.477	649.372
329.285	21.135	831.578	647.252
330.300	21.107	830.422	646.191
331.314	21.430	830.376	647.295
332.329	21.666	830.247	648.012
333.343	21.844	830.230	648.599
334.358	21.854	829.688	648.154
335.373	21.996	829.030	648.105
336.387	22.275	829.081	649.119
337.402	22.164	829.067	648.641
338.416	22.172	828.648	648.287
339.431	22.262	828.106	648.135
340.446	22.443	828.016	648.676
341.460	22.135	827.655	647.202
342.475	22.115	826.577	646.225
343.489	22.233	826.454	646.506
344.504	22.553	826.135	647.377
345.519	22.634	825.359	647.010
346.533	22.549	825.094	646.431
347.548	22.760	824.639	646.792
348.562	22.432	824.271	645.245
349.577	22.628	823.348	645.181
350.592	22.671	822.768	644.828
351.606	22.543	822.133	643.805
352.621	22.576	821.150	643.097
353.635	22.462	820.154	641.847
354.650	21.741	818.868	638.159
355.665	20.770	817.511	633.514
356.679	21.295	817.617	635.450
357.694	21.644	816.914	636.113
358.708	21.585	816.733	635.703
359.723	21.934	816.463	636.703
360.738	22.242	816.341	637.667
361.752	22.363	815.841	637.659
362.767	22.669	815.236	638.237
363.781	22.782	815.056	638.449
364.796	23.014	814.344	638.674
365.810	22.921	814.402	638.328
366.825	22.919	813.493	637.550
367.840	22.533	813.143	635.827
368.854	22.205	811.992	633.687
369.869	22.208	811.900	633.570
370.883	22.459	811.118	633.809
371.898	22.269	810.498	632.584
372.913	22.283	810.332	632.451
373.927	22.497	810.113	632.994
374.942	22.583	809.711	632.932
375.956	22.594	809.217	632.528
376.971	22.660	809.226	632.715
377.986	22.908	808.507	632.987
379.000	22.822	807.942	632.180
380.015	22.624	807.105	630.763
381.029	22.907	806.452	631.207
382.044	22.909	806.139	630.913
383.059	22.965	805.703	630.716
384.073	22.787	805.255	629.672
385.088	22.854	804.535	629.295
386.102	22.614	804.205	628.126
387.117	22.710	803.510	627.869
388.132	22.337	802.425	625.639
389.146	21.872	801.239	623.006
390.161	22.335	801.287	624.633
391.175	22.496	801.306	625.166
392.190	22.356	800.053	623.637
393.205	20.897	798.063	616.868
394.219	19.611	796.485	611.047
395.234	19.483	796.417	610.490
396.248	21.355	797.314	617.744
397.263	22.631	798.632	623.226
398.278	22.619	797.935	622.582
399.292	22.430	797.225	621.310
400.307	22.234	796.687	620.140
401.321	22.333	796.405	620.219
402.336	22.727	796.671	621.758
403.350	23.312	795.679	622.987
404.365	23.367	795.999	623.375
405.380	23.617	795.537	623.839
406.394	23.699	794.854	623.536
407.409	23.354	794.800	622.228
408.423	23.439	794.265	622.052
409.438	23.498	793.984	621.983
410.453	23.788	793.042	622.204
411.467	23.617	792.517	621.138
412.482	23.513	792.113	620.403
413.496	23.526	792.181	620.448
414.511	23.634	791.437	620.187
415.526	23.579	791.336	619.862
416.540	23.404	790.522	618.558
417.555	23.183	789.807	617.174
418.569	23.243	789.787	617.313
419.584	23.225	788.946	616.537
420.599	23.122	788.443	615.731
421.613	157.454	1365.360	1797.826
422.628	136.281	1449.414	1797.936
