DTS Sentinel unit serial number:	SN413079Multiplexer serial number:	ORYXHardware model number:	OX4-SRSoftware version number:	ORYX F/W v4.00 Oryx Data Collector v3.7.2.0data status	okinstallation	princeton_trtdifferential loss correction	single-endedforward channel	channel 1reverse channel	N/Adate	2019/09/11time	12:08:11forward acquisition time	60.00reverse acquisition time	0.00gamma	496.2192k internal	0.2291k external	0.2291temperature offset calibration	0.9938default loss term (dB/km)	0.3790temperature slope calibration	1.0000multiplexer offset coefficient	1.0000multiplexer slope coefficient	1.0000fibre end	0.00T internal ref (°C)	39.61T ext. ref 1 (°C)	0.22T ext. ref 2 (°C)	37.79length (m)	temperature (°C)	Stokes	anti-Stokes-747.200	86.029	0.213	0.240
-746.185	800.000	0.156	0.548
-745.171	236.079	0.041	-0.070
-744.156	161.038	-0.064	0.091
-743.142	-147.698	-0.220	0.019
-742.127	299.425	-0.169	0.319
-741.112	-94.746	-0.085	0.024
-740.098	367.582	0.191	0.395
-739.083	-200.000	-0.136	0.616
-738.069	-95.062	-0.268	0.074
-737.054	-38.370	0.363	-0.196
-736.039	104.759	-0.082	0.099
-735.025	106.349	0.023	0.027
-734.010	81.995	0.212	0.235
-732.996	800.000	0.075	0.286
-731.981	-157.382	-0.348	0.021
-730.966	-18.164	-0.387	-0.248
-729.952	-144.731	-0.149	-0.014
-728.937	-116.249	-0.302	0.057
-727.923	-200.000	0.043	-0.286
-726.908	-26.217	-0.285	0.171
-725.894	-200.000	-0.011	0.190
-724.879	275.453	0.022	0.040
-723.864	-134.289	-0.282	-0.036
-722.850	-85.695	-0.150	-0.048
-721.835	800.000	-0.072	-0.319
-720.821	-74.926	-0.395	0.145
-719.806	32.771	-0.023	0.020
-718.791	215.603	-0.088	-0.143
-717.777	39.405	-0.112	-0.102
-716.762	307.608	0.115	-0.219
-715.748	108.933	-0.122	-0.150
-714.733	-200.000	0.065	0.302
-713.718	800.000	0.041	-0.160
-712.704	21.614	-0.241	0.200
-711.689	253.368	-0.154	-0.269
-710.675	-80.836	0.299	0.101
-709.660	275.734	-0.116	0.210
-708.645	-200.000	-0.019	-0.196
-707.631	-200.000	0.039	-0.249
-706.616	693.129	-0.107	-0.287
-705.602	-200.000	-0.020	-0.113
-704.587	52.883	-0.172	-0.168
-703.572	-147.468	0.218	0.019
-702.558	-116.724	-0.238	-0.045
-701.543	599.788	-0.038	-0.095
-700.529	-193.299	0.024	0.000
-699.514	284.609	0.132	-0.244
-698.499	749.390	-0.088	-0.242
-697.485	-200.000	0.046	-0.227
-696.470	174.644	0.057	0.084
-695.456	800.000	-0.059	-0.264
-694.441	800.000	0.030	-0.098
-693.426	31.724	0.199	0.175
-692.412	-200.000	-0.016	0.163
-691.397	-175.935	0.321	0.009
-690.383	-200.000	0.006	-0.276
-689.368	160.909	0.042	0.060
-688.354	145.804	0.125	-0.172
-687.339	-200.000	-0.007	-0.065
-686.324	-200.000	0.066	0.315
-685.310	-200.000	0.003	0.074
-684.295	68.654	-0.072	0.075
-683.281	72.873	0.088	0.094
-682.266	565.733	0.034	0.084
-681.251	-22.521	0.219	-0.135
-680.237	219.180	-0.110	-0.180
-679.222	318.294	0.195	0.377
-678.208	-200.000	0.001	0.242
-677.193	719.643	0.067	0.183
-676.178	-147.821	0.222	-0.019
-675.164	264.044	0.159	0.283
-674.149	65.347	-0.159	-0.164
-673.135	-59.664	-0.496	-0.217
-672.120	6.398	0.180	0.137
-671.105	756.804	-0.022	0.062
-670.091	-79.782	0.278	-0.096
-669.076	229.205	0.045	0.076
-668.062	-113.016	0.259	-0.052
-667.047	-116.402	-0.516	0.097
-666.032	-200.000	0.026	-0.199
-665.018	-32.688	0.041	-0.023
-664.003	84.217	-0.225	-0.251
-662.989	-76.610	-0.149	0.053
-661.974	-79.194	-0.333	-0.115
-660.959	713.631	-0.090	-0.243
-659.945	536.503	-0.041	-0.098
-658.930	800.000	0.037	-0.118
-657.916	-200.000	-0.069	0.385
-656.901	800.000	0.057	0.174
-655.886	7.888	0.108	0.082
-654.872	243.640	-0.166	-0.285
-653.857	63.644	0.141	-0.145
-652.843	-113.681	0.113	0.023
-651.828	-200.000	-0.003	-0.050
-650.814	-179.716	-0.159	0.004
-649.799	236.126	0.146	-0.247
-648.784	268.849	-0.129	0.231
-647.770	761.362	-0.115	0.319
-646.755	96.663	0.064	-0.075
-645.741	-72.549	0.185	-0.070
-644.726	-38.626	0.164	0.088
-643.711	-112.589	0.047	0.010
-642.697	0.554	0.146	-0.107
-641.682	-12.845	-0.176	-0.117
-640.668	-91.804	-0.288	0.083
-639.653	-200.000	0.413	-0.000
-638.638	-178.198	0.319	0.008
-637.624	20.190	-0.154	-0.127
-636.609	13.999	0.028	-0.023
-635.595	-60.181	0.225	-0.098
-634.580	-131.322	-0.153	-0.021
-633.565	-17.680	-0.073	0.047
-632.551	180.998	0.088	-0.132
-631.536	-121.597	-0.422	-0.071
-630.522	-10.091	-0.196	-0.133
-629.507	-129.523	-0.455	-0.064
-628.492	-151.510	-0.426	0.032
-627.478	237.442	-0.106	-0.179
-626.463	40.875	-0.378	-0.348
-625.449	264.578	-0.080	-0.142
-624.434	19.481	-0.189	-0.155
-623.419	-82.843	0.187	-0.062
-622.405	86.455	-0.170	0.191
-621.390	89.655	-0.204	0.232
-620.376	82.718	-0.118	0.131
-619.361	-111.625	-0.023	0.005
-618.346	5.154	0.119	-0.089
-617.332	105.609	-0.175	-0.211
-616.317	38.732	0.096	0.087
-615.303	53.216	-0.265	0.258
-614.288	53.454	0.092	0.090
-613.273	-200.000	-0.017	-0.145
-612.259	215.550	0.225	0.364
-611.244	-183.295	0.187	0.003
-610.230	-78.066	-0.212	0.074
-609.215	-56.057	0.244	0.111
-608.201	740.281	-0.019	0.053
-607.186	-19.317	-0.135	0.085
-606.171	-91.266	0.230	0.067
-605.157	-98.132	0.148	0.039
-604.142	-200.000	-0.051	-0.317
-603.128	-200.000	-0.017	-0.151
-602.113	-110.902	0.169	0.035
-601.098	-200.000	-0.008	0.345
-600.084	-34.326	-0.304	0.170
-599.069	-34.563	0.164	-0.091
-598.055	288.608	-0.074	-0.136
-597.040	130.024	0.143	-0.187
-596.025	-41.133	-0.212	0.112
-595.011	-200.000	-0.021	-0.192
-593.996	-200.000	-0.004	0.091
-592.982	-58.023	-0.253	-0.112
-591.967	-200.000	-0.019	0.253
-590.952	-38.479	-0.296	0.159
-589.938	317.791	0.154	-0.297
-588.923	45.572	-0.230	0.216
-587.909	-200.000	0.181	-0.000
-586.894	197.756	-0.177	0.275
-585.879	-3.961	0.273	0.193
-584.865	68.527	-0.107	-0.112
-583.850	350.370	0.153	-0.308
-582.836	129.801	0.264	-0.343
-581.821	-200.000	-0.014	0.133
-580.806	-27.190	-0.067	0.040
-579.792	-200.000	0.037	0.223
-578.777	399.893	-0.091	0.194
-577.763	456.638	0.187	0.424
-576.748	-18.138	0.209	0.133
-575.733	800.000	0.096	0.299
-574.719	-200.000	0.019	0.098
-573.704	800.000	0.012	-0.048
-572.690	-123.037	-0.337	0.055
-571.675	-95.005	0.116	-0.032
-570.661	221.833	0.194	0.318
-569.646	42.135	-0.048	-0.045
-568.631	196.431	-0.109	0.168
-567.617	193.497	0.067	-0.103
-566.602	-78.853	-0.243	0.084
-565.588	19.026	0.417	-0.340
-564.573	-114.096	0.082	0.016
-563.558	123.589	-0.129	-0.165
-562.544	140.690	0.036	0.048
-561.529	-24.565	0.100	-0.060
-560.515	800.000	-0.026	0.099
-559.500	-83.080	-0.142	0.046
-558.485	202.133	0.089	0.139
-557.471	-200.000	-0.044	-0.199
-556.456	-200.000	-0.039	0.287
-555.442	800.000	0.014	-0.049
-554.427	61.780	-0.065	0.066
-553.412	22.045	-0.220	0.182
-552.398	-113.404	0.186	0.037
-551.383	11.076	0.082	0.064
-550.369	27.424	0.166	-0.142
-549.354	-25.168	0.126	-0.076
-548.339	-200.000	0.069	0.336
-547.325	20.892	0.229	0.189
-546.310	-94.817	0.167	-0.046
-545.296	-119.689	0.142	-0.025
-544.281	-42.677	-0.204	0.105
-543.266	-38.299	0.372	0.200
-542.252	800.000	-0.099	-0.291
-541.237	249.761	0.072	-0.124
-540.223	-200.000	-0.003	-0.408
-539.208	800.000	-0.033	-0.122
-538.193	-22.117	0.150	0.093
-537.179	-66.310	-0.320	-0.129
-536.164	243.591	-0.044	0.076
-535.150	-200.000	0.042	0.303
-534.135	800.000	-0.045	0.184
-533.121	2.577	-0.336	-0.247
-532.106	-160.798	-0.236	0.013
-531.091	-200.000	0.007	-0.083
-530.077	-200.000	0.010	-0.126
-529.062	797.521	0.054	0.151
-528.048	19.647	0.271	-0.221
-527.033	-200.000	0.053	-0.259
-526.018	-84.522	0.180	0.058
-525.004	-88.056	-0.238	0.072
-523.989	75.352	0.332	0.356
-522.975	-18.476	-0.159	-0.101
-521.960	25.852	-0.113	0.095
-520.945	-94.310	-0.291	0.081
-519.931	0.544	-0.028	0.020
-518.916	168.120	0.101	-0.146
-517.902	149.487	-0.073	-0.101
-516.887	61.041	-0.218	-0.220
-515.872	-111.441	0.447	-0.092
-514.858	-106.655	0.174	-0.039
-513.843	800.000	-0.048	0.164
-512.829	-200.000	-0.012	-0.201
-511.814	60.259	0.286	-0.287
-510.799	-37.317	0.154	-0.083
-509.785	27.010	-0.064	0.055
-508.770	-200.000	-0.004	0.096
-507.756	800.000	-0.049	0.164
-506.741	-103.290	0.057	0.014
-505.726	-132.352	0.165	0.022
-504.712	80.864	0.361	0.395
-503.697	-153.498	-0.196	-0.014
-502.683	405.820	0.037	-0.078
-501.668	426.669	-0.156	0.342
-500.653	-35.945	-0.036	-0.020
-499.639	233.257	-0.105	-0.175
-498.624	-200.000	-0.021	-0.224
-497.610	24.512	0.167	-0.141
-496.595	192.448	-0.013	-0.019
-495.581	95.000	-0.109	0.126
-494.566	-32.866	-0.342	0.193
-493.551	15.137	0.097	-0.077
-492.537	800.000	-0.031	0.119
-491.522	-200.000	-0.004	0.202
-490.508	242.960	-0.090	0.153
-489.493	-200.000	-0.030	0.434
-488.478	17.177	-0.140	0.112
-487.464	-52.794	-0.339	-0.158
-486.449	0.735	0.175	-0.127
-485.435	-200.000	-0.255	-0.001
-484.420	-156.897	0.251	-0.016
-483.405	418.387	-0.146	0.316
-482.391	180.629	-0.163	0.243
-481.376	72.873	-0.196	0.208
-480.362	-77.455	0.185	-0.065
-479.347	37.670	0.066	0.059
-478.332	-34.269	0.337	-0.187
-477.318	-54.759	0.202	-0.093
-476.303	-106.095	-0.096	0.022
-475.289	-18.247	0.266	-0.169
-474.274	47.074	0.060	0.057
-473.259	-200.000	0.012	-0.061
-472.245	-200.000	-0.016	-0.093
-471.230	-131.498	0.500	0.067
-470.216	-157.114	-0.283	0.017
-469.201	199.381	-0.106	0.164
-468.186	-113.336	0.072	0.014
-467.172	800.000	0.102	-0.330
-466.157	22.149	-0.147	-0.122
-465.143	-59.934	-0.161	-0.070
-464.128	-200.000	0.039	-0.338
-463.113	33.833	0.058	0.051
-462.099	376.728	0.030	0.063
-461.084	420.317	-0.125	-0.272
-460.070	800.000	0.095	-0.335
-459.055	-91.036	-0.235	0.069
-458.040	490.262	0.083	0.193
-457.026	422.398	0.073	-0.158
-456.011	-63.022	0.199	0.083
-454.997	-113.604	0.247	0.049
-453.982	800.000	0.068	-0.238
-452.968	-200.000	0.010	0.121
-451.953	-200.000	0.067	-0.000
-450.938	-56.713	0.310	-0.139
-449.924	-157.541	0.111	-0.007
-448.909	432.072	0.112	-0.247
-447.895	-110.357	0.189	0.040
-446.880	-200.000	0.034	-0.196
-445.865	-200.000	0.027	0.171
-444.851	-200.000	-0.011	-0.101
-443.836	621.103	-0.059	-0.151
-442.822	11.446	0.225	-0.174
-441.807	-44.786	-0.175	-0.088
-440.792	-45.792	-0.342	-0.171
-439.778	-102.267	0.209	0.051
-438.763	-200.000	0.067	0.366
-437.749	-98.441	0.274	-0.071
-436.734	109.978	-0.239	-0.291
-435.719	800.000	0.107	-0.418
-434.705	-141.559	-0.207	0.021
-433.690	69.561	-0.089	-0.093
-432.676	259.407	0.187	-0.327
-431.661	-61.662	0.323	-0.137
-430.646	-66.785	-0.215	0.086
-429.632	800.000	0.072	-0.298
-428.617	139.891	-0.131	-0.174
-427.603	-95.028	-0.229	-0.063
-426.588	-128.270	-0.289	0.042
-425.573	-57.335	0.092	-0.041
-424.559	141.277	-0.056	-0.075
-423.544	800.000	0.049	0.195
-422.530	159.345	-0.053	0.074
-421.515	-200.000	0.027	-0.258
-420.500	12.195	-0.068	-0.053
-419.486	174.520	-0.135	0.197
-418.471	-9.561	0.092	0.062
-417.457	800.000	0.085	-0.257
-416.442	191.314	-0.155	-0.235
-415.428	-59.091	-0.012	0.005
-414.413	-63.949	-0.054	0.022
-413.398	-139.545	0.136	0.015
-412.384	-161.503	0.058	0.003
-411.369	800.000	0.102	-0.362
-410.355	800.000	-0.053	-0.195
-409.340	320.564	-0.115	-0.221
-408.325	-92.136	-0.171	0.049
-407.311	131.853	0.152	0.198
-406.296	208.895	0.064	0.101
-405.282	201.018	-0.172	0.268
-404.267	-33.357	0.147	0.082
-403.252	323.501	0.072	0.139
-402.238	-129.282	-0.265	-0.037
-401.223	-167.950	-0.145	0.006
-400.209	-99.397	0.195	-0.050
-399.194	-157.276	0.320	0.020
-398.179	199.878	0.094	-0.145
-397.165	13.239	0.129	0.101
-396.150	-136.081	-0.171	-0.020
-395.136	237.269	-0.219	0.367
-394.121	305.431	-0.229	0.429
-393.106	504.026	-0.062	0.144
-392.092	-85.136	0.219	-0.069
-391.077	-200.000	0.013	-0.374
-390.063	159.666	0.158	-0.223
-389.048	-64.710	-0.166	0.068
-388.033	314.519	0.049	0.094
-387.019	-18.139	-0.450	0.284
-386.004	25.449	-0.172	-0.144
-384.990	-101.604	-0.078	-0.019
-383.975	-190.909	0.078	-0.001
-382.960	107.437	0.099	0.119
-381.946	5.103	-0.101	0.075
-380.931	-200.000	-0.005	0.047
-379.917	-40.700	-0.303	-0.159
-378.902	25.715	-0.165	-0.139
-377.888	-200.000	0.008	-0.149
-376.873	-200.000	-0.021	-0.221
-375.858	-155.315	0.327	0.021
-374.844	-87.162	0.127	-0.039
-373.829	-105.112	0.238	0.055
-372.815	12.981	0.142	0.111
-371.800	66.686	-0.014	0.014
-370.785	265.953	0.034	0.059
-369.771	23.406	-0.239	0.198
-368.756	89.954	0.055	-0.062
-367.742	-200.000	-0.008	0.058
-366.727	-13.412	-0.143	0.093
-365.712	-30.641	0.084	-0.048
-364.698	168.498	-0.211	-0.303
-363.683	-50.984	-0.282	-0.134
-362.669	123.621	-0.183	0.232
-361.654	49.760	0.050	-0.047
-360.639	40.102	0.340	-0.309
-359.625	4.761	-0.315	0.233
-358.610	800.000	-0.193	-0.563
-357.596	-7.643	-0.264	-0.180
-356.581	800.000	-0.041	-0.150
-355.566	800.000	-0.050	0.189
-354.552	125.831	0.133	-0.169
-353.537	800.000	-0.051	0.175
-352.523	-13.287	-0.162	0.106
-351.508	-85.648	-0.024	0.007
-350.493	-188.281	-0.217	0.003
-349.479	800.000	-0.115	0.403
-348.464	-158.106	0.061	-0.004
-347.450	252.538	-0.065	-0.111
-346.435	-67.193	0.116	0.046
-345.420	-44.605	0.384	0.194
-344.406	-121.915	0.285	-0.047
-343.391	153.611	0.114	-0.157
-342.377	-145.752	0.042	0.004
-341.362	671.956	-0.073	0.192
-340.348	366.080	-0.048	0.097
-339.333	-88.584	0.143	-0.043
-338.318	-71.276	0.234	0.088
-337.304	129.016	-0.072	-0.093
-336.289	76.094	-0.161	-0.172
-335.275	52.897	-0.192	-0.185
-334.260	-103.915	-0.137	0.032
-333.245	170.194	-0.137	0.197
-332.231	-110.151	-0.090	0.019
-331.216	762.348	-0.064	-0.175
-330.202	-55.305	-0.259	-0.117
-329.187	173.373	-0.224	-0.325
-328.172	97.178	-0.125	-0.144
-327.158	-85.637	0.321	-0.100
-326.143	-200.000	-0.191	0.001
-325.129	800.000	-0.103	0.298
-324.114	800.000	0.038	-0.161
-323.099	-200.000	-0.040	-0.198
-322.085	-200.000	-0.032	0.303
-321.070	105.001	-0.205	0.244
-320.056	257.728	0.099	0.171
-319.041	-37.696	-0.212	-0.114
-318.026	800.000	-0.129	0.415
-317.012	42.502	0.120	0.110
-315.997	-2.113	-0.245	-0.174
-314.983	-21.189	0.236	0.145
-313.968	249.052	-0.135	0.230
-312.953	20.111	-0.141	0.114
-311.939	-200.000	0.071	0.444
-310.924	26.842	-0.069	-0.058
-309.910	719.717	0.110	0.294
-308.895	108.370	-0.079	0.095
-307.880	-200.000	-0.033	-0.302
-306.866	-157.860	0.094	-0.006
-305.851	13.108	-0.178	-0.139
-304.837	-72.245	0.246	-0.092
-303.822	35.589	0.214	0.189
-302.807	2.436	0.484	0.353
-301.793	374.982	0.071	-0.146
-300.778	-92.357	-0.055	0.016
-299.764	138.377	-0.088	-0.116
-298.749	-85.823	0.203	0.063
-297.735	431.065	0.056	0.122
-296.720	135.158	0.058	0.076
-295.705	98.994	0.221	-0.257
-294.691	162.426	-0.061	0.086
-293.676	-174.090	-0.074	0.002
-292.662	134.365	-0.200	0.261
-291.647	800.000	0.033	-0.132
-290.632	114.136	-0.125	-0.153
-289.618	98.145	0.260	-0.301
-288.603	-118.911	0.141	0.025
-287.589	-127.534	-0.466	0.068
-286.574	-122.969	0.133	-0.022
-285.559	127.331	-0.188	0.239
-284.545	-100.763	-0.248	-0.061
-283.530	42.116	0.220	0.201
-282.516	-200.000	0.068	-0.334
-281.501	-95.440	-0.465	0.126
-280.486	623.758	0.054	0.136
-279.472	501.662	0.098	-0.228
-278.457	79.142	-0.247	-0.266
-277.443	-12.944	0.266	0.174
-276.428	196.237	-0.045	0.070
-275.413	-185.608	0.163	0.002
-274.399	72.627	0.068	-0.072
-273.384	206.740	0.176	-0.276
-272.370	114.654	0.118	-0.144
-271.355	-32.265	-0.285	0.160
-270.340	327.821	0.028	-0.054
-269.326	-200.000	-0.016	-0.144
-268.311	-200.000	-0.003	-0.107
-267.297	-77.219	-0.152	0.053
-266.282	498.696	-0.133	-0.308
-265.267	-19.489	0.171	-0.106
-264.253	-116.089	0.174	-0.032
-263.238	800.000	0.052	0.147
-262.224	800.000	0.017	0.065
-261.209	-116.569	0.121	-0.022
-260.195	-178.702	0.204	-0.005
-259.180	-94.363	0.279	-0.077
-258.165	138.554	0.209	0.276
-257.151	-177.267	0.261	0.006
-256.136	-129.831	0.089	-0.012
-255.122	-200.000	-0.055	0.312
-254.107	272.174	0.194	0.344
-253.092	-65.361	-0.360	-0.146
-252.078	800.000	-0.099	0.330
-251.063	-200.000	0.016	0.152
-250.049	800.000	0.072	-0.298
-249.034	-82.727	0.219	-0.071
-248.019	476.650	-0.147	-0.334
-247.005	-60.142	-0.263	-0.113
-245.990	13.548	0.262	-0.205
-244.976	-98.724	-0.143	0.037
-243.961	-59.491	0.061	0.026
-242.946	-66.817	-0.286	-0.114
-241.932	65.430	0.086	0.088
-240.917	-59.564	-0.231	0.100
-239.903	-40.439	0.412	-0.215
-238.888	800.000	0.090	0.355
-237.873	597.953	-0.086	-0.215
-236.859	99.040	-0.247	0.286
-235.844	-79.574	-0.065	0.022
-234.830	10.468	0.061	0.046
-233.815	-200.000	-0.040	-0.222
-232.800	178.506	0.191	-0.280
-231.786	-131.425	0.428	0.057
-230.771	154.486	0.078	0.107
-229.757	-2.902	-0.304	0.213
-228.742	616.477	-0.053	0.135
-227.727	-135.570	0.130	-0.016
-226.713	2.989	0.179	0.131
-225.698	162.443	0.101	-0.142
-224.684	-200.000	0.001	-0.225
-223.669	800.000	0.011	0.037
-222.655	-86.047	0.072	0.022
-221.640	572.892	0.135	-0.331
-220.625	-94.510	0.183	-0.050
-219.611	103.936	-0.125	0.148
-218.596	317.968	0.108	-0.205
-217.582	199.163	0.076	-0.116
-216.567	164.208	0.104	-0.147
-215.552	-75.036	-0.060	0.022
-214.538	-22.237	-0.268	0.163
-213.523	307.552	0.230	-0.431
-212.509	346.487	0.225	-0.443
-211.494	-119.701	0.226	0.039
-210.479	-48.850	-0.140	0.067
-209.465	198.415	-0.056	0.086
-208.450	-129.432	0.169	-0.024
-207.436	-200.000	-0.025	-0.284
-206.421	15.694	-0.098	0.077
-205.406	31.212	-0.300	-0.258
-204.392	800.000	0.075	0.305
-203.377	-182.627	0.060	0.001
-202.363	-18.248	-0.346	-0.217
-201.348	-146.879	0.130	0.011
-200.333	-93.935	0.177	-0.049
-199.319	10.854	-0.193	0.148
-198.304	-24.673	-0.253	0.151
-197.290	-200.000	-0.092	0.453
-196.275	679.261	0.126	0.328
-195.260	800.000	-0.069	0.236
-194.246	172.079	-0.104	0.150
-193.231	95.051	0.217	0.248
-192.217	800.000	0.094	0.341
-191.202	-18.151	0.163	0.102
-190.187	-200.000	0.022	-0.194
-189.173	711.973	0.056	0.147
-188.158	-200.000	-0.053	0.297
-187.144	189.231	-0.064	-0.096
-186.129	-141.065	-0.307	-0.032
-185.114	-94.315	-0.150	-0.041
-184.100	800.000	0.046	0.129
-183.085	-96.851	-0.059	0.016
-182.071	-68.199	-0.214	0.084
-181.056	-200.000	-0.037	-0.210
-180.042	-1.324	0.163	0.116
-179.027	-70.111	0.148	-0.056
-178.012	403.563	-0.065	0.137
-176.998	14.879	0.055	-0.043
-175.983	-148.558	0.193	-0.016
-174.969	-172.265	-0.178	-0.006
-173.954	154.261	-0.181	-0.249
-172.939	-106.177	0.171	-0.039
-171.925	800.000	0.051	0.168
-170.910	320.435	0.113	-0.215
-169.896	120.591	-0.068	-0.084
-168.881	-106.373	-0.128	-0.029
-167.866	100.232	0.177	-0.205
-166.852	-43.324	0.091	0.046
-165.837	800.000	-0.070	0.270
-164.823	23.880	0.122	0.101
-163.808	-200.000	-0.033	0.249
-162.793	-29.599	0.199	0.114
-161.779	-53.225	-0.188	-0.086
-160.764	60.701	-0.141	-0.140
-159.750	-200.000	0.007	-0.085
-158.735	50.340	-0.130	-0.123
-157.720	-16.572	0.092	-0.059
-156.706	-83.913	-0.217	0.069
-155.691	61.178	0.165	-0.164
-154.677	159.947	0.208	0.290
-153.662	-62.608	-0.167	-0.069
-152.647	-200.000	-0.013	0.124
-151.633	117.794	0.175	0.216
-150.618	95.816	0.168	0.192
-149.604	-55.388	-0.159	-0.072
-148.589	75.245	-0.241	0.254
-147.574	448.556	0.129	0.285
-146.560	-8.966	0.281	0.188
-145.545	257.740	-0.130	0.224
-144.531	143.390	-0.222	0.295
-143.516	-29.726	-0.301	0.172
-142.502	304.355	-0.108	0.200
-141.487	7.409	-0.222	0.166
-140.472	800.000	-0.074	0.322
-139.458	-177.359	0.046	0.001
-138.443	-200.000	0.013	0.326
-137.429	315.702	0.165	0.312
-136.414	-164.740	0.358	-0.016
-135.399	800.000	-0.062	-0.224
-134.385	-57.347	-0.125	-0.055
-133.370	8.374	0.250	-0.188
-132.356	147.181	0.090	0.121
-131.341	-200.000	-0.019	-0.167
-130.326	-83.926	-0.132	-0.042
-129.312	-35.090	-0.171	0.093
-128.297	-58.778	-0.076	0.033
-127.283	800.000	0.066	0.288
-126.268	-200.000	-0.002	0.158
-125.253	-112.268	0.114	-0.023
-124.239	728.098	-0.129	0.343
-123.224	85.321	-0.086	-0.094
-122.210	-18.325	0.154	-0.096
-121.195	36.189	-0.255	0.225
-120.180	185.655	0.084	0.125
-119.166	-200.000	0.004	-0.029
-118.151	-121.102	-0.138	0.023
-117.137	-149.828	-0.261	0.020
-116.122	342.310	0.051	-0.100
-115.107	8.645	0.102	0.076
-114.093	-138.855	0.149	0.016
-113.078	122.091	-0.094	-0.118
-112.064	155.476	-0.172	-0.236
-111.049	56.020	0.176	0.171
-110.034	-57.772	0.338	-0.148
-109.020	-118.656	-0.274	0.048
-108.005	-180.177	-0.082	-0.002
-106.991	800.000	-0.019	0.076
-105.976	32.080	0.114	0.098
-104.962	-156.947	-0.162	0.010
-103.947	-138.754	-0.360	-0.039
-102.932	22.151	0.178	-0.145
-101.918	221.415	-0.256	0.411
-100.903	800.000	-0.098	-0.329
-99.889	566.619	-0.083	0.200
-98.874	261.605	0.112	0.194
-97.859	800.000	-0.060	0.230
-96.845	652.715	0.093	-0.238
-95.830	-200.000	0.076	-0.345
-94.816	-61.977	-0.090	0.037
-93.801	-140.269	-0.048	0.005
-92.786	21.838	-0.250	0.203
-91.772	-79.095	-0.096	0.033
-90.757	134.910	0.182	-0.237
-89.743	-93.495	0.385	-0.106
-88.728	800.000	0.060	-0.198
-87.713	0.807	-0.263	0.188
-86.699	-70.227	0.137	-0.052
-85.684	-200.000	-0.041	0.186
-84.670	-200.000	-0.001	-0.173
-83.655	-126.348	-0.123	-0.018
-82.640	-85.303	-0.262	-0.082
-81.626	664.211	-0.122	-0.315
-80.611	-8.111	-0.204	-0.137
-79.597	199.725	-0.122	0.186
-78.582	-94.094	0.030	0.008
-77.567	6.314	-0.217	0.160
-76.553	800.000	-0.089	0.273
-75.538	-200.000	0.042	-0.451
-74.524	71.030	0.126	0.130
-73.509	-174.601	0.138	0.004
-72.494	239.044	0.133	-0.220
-71.480	12.451	0.207	0.159
-70.465	29.692	-0.080	-0.068
-69.451	800.000	0.052	0.176
-68.436	-192.963	-0.359	0.003
-67.422	-138.971	0.075	-0.008
-66.407	402.101	-0.055	0.115
-65.392	192.970	0.210	-0.317
-64.378	-51.783	-0.244	0.113
-63.363	-104.453	0.190	-0.044
-62.349	-104.614	-0.155	0.036
-61.334	76.661	-0.668	-0.707
-60.319	-118.331	0.408	0.072
-59.305	437.534	-0.351	-0.762
-58.290	112.491	0.615	0.742
-57.276	800.000	0.602	1.737
-56.261	-200.000	76.121	485.892
-55.246	573.475	1355.220	3294.361
-54.232	178.649	2603.108	3791.304
-53.217	124.038	2252.989	2821.331
-52.203	51.340	1694.826	1604.154
-51.188	43.278	1418.138	1290.925
-50.173	39.802	1372.099	1227.398
-49.159	57.967	1406.556	1372.519
-48.144	64.139	1425.860	1429.981
-47.130	43.672	1388.791	1266.478
-46.115	39.661	1373.123	1227.244
-45.100	39.488	1368.087	1221.618
-44.086	39.360	1365.786	1218.724
-43.071	39.294	1363.364	1216.108
-42.057	39.343	1361.105	1214.346
-41.042	39.375	1359.194	1212.790
-40.027	39.436	1357.656	1211.744
-39.013	39.436	1355.763	1210.011
-37.998	39.455	1353.781	1208.310
-36.984	39.583	1351.640	1207.133
-35.969	39.679	1349.660	1205.904
-34.954	39.684	1347.928	1204.342
-33.940	39.657	1346.601	1202.940
-32.925	39.705	1345.420	1202.134
-31.911	39.717	1344.065	1200.946
-30.896	39.688	1342.523	1199.345
-29.881	39.741	1340.595	1197.898
-28.867	39.731	1339.063	1196.415
-27.852	39.817	1337.580	1195.569
-26.838	39.743	1336.261	1193.894
-25.823	39.710	1334.919	1192.447
-24.809	39.681	1333.630	1191.074
-23.794	39.789	1332.037	1190.256
-22.779	39.670	1330.880	1188.454
-21.765	39.759	1329.349	1187.576
-20.750	39.770	1327.872	1186.276
-19.736	39.586	1327.027	1184.372
-18.721	39.507	1325.217	1182.234
-17.706	39.451	1324.449	1181.165
-16.692	39.516	1323.595	1180.746
-15.677	39.480	1322.216	1179.256
-14.663	39.457	1321.163	1178.132
-13.648	39.502	1319.562	1176.925
-12.633	39.460	1318.724	1175.881
-11.619	39.437	1317.761	1174.839
-10.604	39.629	1316.317	1174.649
-9.590	39.536	1315.721	1173.517
-8.575	39.638	1313.832	1172.388
-7.560	39.553	1313.645	1171.669
-6.546	39.576	1312.487	1170.727
-5.531	39.618	1311.695	1170.226
-4.517	39.603	1311.043	1169.506
-3.502	39.650	1310.075	1168.876
-2.487	39.606	1309.047	1167.654
-1.473	39.669	1305.323	1164.656
-0.458	38.877	1290.872	1147.086
0.556	33.781	1271.619	1109.080
1.571	30.292	1276.105	1092.398
2.586	29.190	1291.788	1099.156
3.600	27.571	1279.982	1079.432
4.615	19.118	1200.506	965.143
5.629	6.423	1113.540	828.730
6.644	0.568	1088.803	780.064
7.659	0.189	1085.997	776.030
8.673	0.117	1084.751	774.701
9.688	-0.014	1083.188	772.842
10.702	0.463	1082.342	774.620
11.717	8.353	1095.043	824.504
12.731	19.417	1111.225	894.280
13.746	22.639	1114.897	913.886
14.761	22.265	1113.435	910.674
15.775	22.132	1112.980	909.529
16.790	21.877	1111.958	907.297
17.804	21.967	1111.086	906.972
18.819	22.078	1109.968	906.551
19.834	21.861	1110.730	905.973
20.848	21.938	1109.975	905.671
21.863	21.964	1109.083	904.999
22.877	21.962	1108.171	904.167
23.892	21.918	1108.057	903.766
24.907	22.019	1107.089	903.417
25.921	22.086	1105.737	902.578
26.936	22.041	1104.192	901.006
27.950	21.892	1102.577	898.842
28.965	21.800	1100.974	896.989
29.980	21.836	1099.499	895.890
30.994	22.040	1098.306	895.881
32.009	22.013	1097.452	894.967
33.023	21.821	1095.980	892.710
34.038	21.928	1095.305	892.623
35.053	21.947	1094.632	892.093
36.067	21.964	1093.817	891.439
37.082	22.121	1093.421	891.831
38.096	22.273	1092.321	891.629
39.111	22.276	1091.789	891.130
40.126	22.046	1089.946	888.379
41.140	21.855	1088.000	885.753
42.155	21.580	1086.716	883.241
43.169	21.580	1085.887	882.490
44.184	21.689	1084.723	882.015
45.199	21.587	1083.697	880.591
46.213	21.626	1082.887	880.047
47.228	21.747	1082.046	879.895
48.242	21.781	1080.999	879.135
49.257	21.947	1080.480	879.469
50.271	21.995	1079.548	878.872
51.286	22.053	1078.750	878.437
52.301	22.108	1077.502	877.614
53.315	21.995	1077.067	876.620
54.330	21.994	1075.744	875.459
55.344	22.000	1075.118	874.904
56.359	21.909	1074.340	873.738
57.374	21.710	1073.520	872.007
58.388	21.811	1072.153	871.320
59.403	21.586	1071.732	869.783
60.417	21.560	1070.869	868.874
61.432	21.728	1070.061	868.976
62.447	21.823	1069.416	868.846
63.461	21.791	1068.483	867.856
64.476	21.793	1067.550	867.031
65.490	21.666	1066.459	865.439
66.505	21.605	1066.095	864.765
67.520	21.669	1065.383	864.430
68.534	21.553	1063.751	862.454
69.549	21.254	1062.821	860.155
70.563	21.147	1061.995	858.883
71.578	21.239	1061.065	858.505
72.593	21.207	1059.910	857.341
73.607	21.257	1059.444	857.133
74.622	21.680	1058.721	858.546
75.636	21.618	1058.404	857.908
76.651	21.444	1057.244	856.039
77.666	21.478	1055.999	855.123
78.680	21.461	1055.251	854.360
79.695	21.573	1054.797	854.462
80.709	21.577	1054.411	854.090
81.724	21.567	1053.626	853.331
82.739	21.737	1052.738	853.364
83.753	22.005	1052.089	854.065
84.768	22.348	1051.157	854.902
85.782	22.330	1050.450	854.166
86.797	22.312	1049.328	853.088
87.812	22.081	1048.481	851.208
88.826	22.240	1047.191	850.856
89.841	22.177	1046.676	850.057
90.855	22.269	1045.545	849.504
91.870	22.106	1044.779	848.021
92.884	22.061	1043.696	846.851
93.899	22.011	1042.207	845.329
94.914	22.247	1041.587	845.883
95.928	21.958	1040.935	843.889
96.943	21.768	1039.364	841.628
97.957	21.674	1037.758	839.806
98.972	21.382	1037.154	837.844
99.987	21.746	1036.483	838.971
101.001	21.803	1035.960	838.746
102.016	21.997	1034.768	838.631
103.030	21.858	1033.438	836.818
104.045	21.712	1032.376	835.185
105.060	21.586	1031.511	833.814
106.074	21.591	1031.264	833.562
107.089	22.176	1030.034	835.275
108.103	22.009	1028.754	833.369
109.118	21.724	1027.711	831.103
110.133	21.712	1026.656	830.117
111.147	21.567	1025.481	828.407
112.162	21.505	1024.509	827.257
113.176	21.668	1024.029	827.566
114.191	21.521	1023.206	826.131
115.206	21.325	1022.020	824.179
116.220	21.304	1021.088	823.258
117.235	21.386	1020.351	822.975
118.249	21.453	1019.608	822.616
119.264	21.399	1018.726	821.580
120.279	21.307	1018.501	820.895
121.293	21.487	1017.559	820.907
122.308	21.407	1016.429	819.544
123.322	21.489	1015.237	818.898
124.337	21.281	1013.843	816.728
125.352	20.765	1012.114	812.852
126.366	20.750	1010.817	811.670
127.381	21.577	1010.736	815.385
128.395	21.910	1010.449	816.634
129.410	21.959	1009.507	816.028
130.424	21.878	1008.429	814.711
131.439	21.997	1007.384	814.346
132.454	21.846	1006.774	813.081
133.468	21.805	1005.569	811.846
134.483	22.146	1004.678	812.629
135.497	22.250	1004.062	812.541
136.512	22.315	1003.539	812.347
137.527	22.263	1002.376	811.090
138.541	22.330	1001.439	810.572
139.556	22.181	1000.679	809.196
140.570	22.502	999.640	809.761
141.585	22.323	998.646	808.066
142.600	22.279	997.445	806.820
143.614	22.352	997.327	806.984
144.629	22.530	996.472	807.037
145.643	22.349	995.250	805.150
146.658	22.246	993.908	803.524
147.673	22.174	992.277	801.802
148.687	21.990	991.477	800.246
149.702	21.893	990.835	799.216
150.716	22.010	989.671	798.742
151.731	22.149	988.738	798.546
152.746	22.420	987.847	798.985
153.760	22.247	988.085	798.323
154.775	22.346	987.337	798.098
155.789	22.247	986.320	796.757
156.804	22.313	984.937	795.868
157.819	22.364	984.459	795.642
158.833	22.450	983.997	795.588
159.848	22.549	982.350	794.631
160.862	22.317	981.225	792.607
161.877	22.395	980.184	792.045
162.892	22.472	979.349	791.648
163.906	22.322	978.422	790.153
164.921	22.291	977.312	789.050
165.935	22.443	976.427	788.945
166.950	22.322	975.684	787.733
167.964	22.329	974.686	786.890
168.979	22.160	973.375	785.008
169.994	22.116	972.792	784.269
171.008	22.312	972.271	784.654
172.023	22.374	971.373	784.139
173.037	22.183	969.450	781.667
174.052	22.069	968.837	780.596
175.067	21.940	969.025	780.104
176.081	22.216	967.690	780.188
177.096	22.055	967.021	778.866
178.110	21.856	966.272	777.309
179.125	21.707	965.502	775.963
180.140	21.857	964.778	775.977
181.154	21.876	964.811	776.016
182.169	22.130	965.178	777.369
183.183	22.366	964.038	777.422
184.198	22.223	963.045	775.923
185.213	22.227	962.340	775.305
186.227	22.286	961.590	774.893
187.242	22.349	961.084	774.691
188.256	22.233	960.274	773.461
189.271	22.395	959.471	773.457
190.286	22.112	958.622	771.464
191.300	21.539	956.796	767.411
192.315	20.950	955.117	763.418
193.329	20.717	954.997	762.235
194.344	21.567	955.472	766.272
195.359	22.075	955.554	768.491
196.373	22.212	954.750	768.375
197.388	22.084	953.866	767.034
198.402	22.147	953.288	766.779
199.417	22.297	952.765	766.944
200.432	21.999	951.834	764.827
201.446	21.724	951.119	762.989
202.461	21.893	950.366	763.054
203.475	21.124	948.200	757.910
204.490	20.202	947.112	752.971
205.504	21.171	947.358	757.303
206.519	21.797	947.068	759.720
207.534	21.809	946.987	759.639
208.548	22.217	946.619	761.044
209.563	22.096	945.344	759.427
210.577	22.008	944.812	758.552
211.592	22.523	944.357	760.345
212.607	22.379	943.777	759.190
213.621	22.447	942.697	758.544
214.636	22.393	942.059	757.732
215.650	22.365	941.842	757.370
216.665	22.579	940.692	757.297
217.680	22.402	940.166	756.047
218.694	22.041	938.425	753.033
219.709	21.790	938.471	751.928
220.723	22.101	937.829	752.680
221.738	22.319	936.994	752.876
222.753	22.324	936.344	752.306
223.767	22.338	936.300	752.264
224.782	22.558	935.633	752.604
225.796	22.506	935.170	751.942
226.811	21.736	933.908	747.577
227.826	21.136	932.523	743.846
228.840	21.464	931.920	744.698
229.855	21.497	931.239	744.225
230.869	21.240	929.641	741.792
231.884	21.410	930.113	742.825
232.899	22.295	930.104	746.512
233.913	22.233	929.222	745.474
234.928	22.035	928.863	744.281
235.942	22.180	928.027	744.159
236.957	21.838	927.175	741.962
237.972	21.751	926.754	741.190
238.986	22.015	925.882	741.546
240.001	21.978	925.252	740.817
241.015	22.046	925.052	740.879
242.030	22.222	924.417	741.047
243.045	22.328	923.910	741.020
244.059	22.384	923.454	740.826
245.074	22.194	922.448	739.152
246.088	21.884	921.493	737.021
247.103	22.095	921.046	737.486
248.117	22.640	921.154	739.793
249.132	22.755	920.976	740.066
250.147	22.932	920.175	740.100
251.161	23.046	919.746	740.165
252.176	22.972	919.265	739.404
253.190	23.181	918.316	739.448
254.205	23.188	918.163	739.290
255.220	23.327	916.780	738.692
256.234	22.985	916.391	736.886
257.249	22.984	915.223	735.879
258.263	22.919	915.221	735.540
259.278	23.074	914.414	735.472
260.293	23.170	913.529	735.092
261.307	23.022	912.679	733.727
262.322	22.785	911.843	732.009
263.336	22.059	909.924	727.399
264.351	21.171	907.629	721.830
265.366	21.192	907.573	721.806
266.380	22.326	908.320	727.027
267.395	22.636	908.137	728.097
268.409	22.544	907.325	727.003
269.424	22.937	906.715	728.068
270.439	23.004	906.156	727.831
271.453	22.888	905.552	726.804
272.468	23.091	905.283	727.359
273.482	23.215	905.146	727.695
274.497	22.880	903.538	724.964
275.512	22.428	902.663	722.342
276.526	22.829	902.635	723.900
277.541	23.027	902.289	724.371
278.555	22.844	901.050	722.562
279.570	22.700	900.311	721.319
280.585	22.765	899.729	721.054
281.599	22.815	898.998	720.607
282.614	22.161	897.669	716.811
283.628	22.126	897.316	716.325
284.643	22.485	896.919	717.405
285.657	22.049	895.741	714.628
286.672	21.895	894.634	713.056
287.687	22.475	894.812	715.490
288.701	22.581	894.286	715.437
289.716	22.076	893.841	712.969
290.730	22.034	893.045	712.099
291.745	21.833	892.212	710.558
292.760	22.234	891.520	711.568
293.774	23.038	892.005	715.143
294.789	23.574	891.685	716.993
295.803	23.522	891.291	716.401
296.818	23.611	890.152	715.781
297.833	22.982	889.284	712.487
298.847	22.920	888.555	711.587
299.862	23.238	888.129	712.464
300.876	23.461	888.146	713.311
301.891	23.463	887.209	712.503
302.906	22.734	886.622	709.043
303.920	23.180	885.675	710.011
304.935	23.410	885.447	710.689
305.949	23.374	885.117	710.215
306.964	23.096	884.220	708.320
307.979	23.161	883.955	708.304
308.993	23.467	883.706	709.269
310.008	23.520	882.792	708.684
311.022	23.332	881.729	707.015
312.037	23.380	880.907	706.485
313.052	22.979	880.467	704.473
314.066	22.014	879.002	699.394
315.081	21.713	878.052	697.382
316.095	22.721	878.334	701.553
317.110	23.185	878.262	703.279
318.125	22.293	876.913	698.596
319.139	21.248	875.552	693.303
320.154	21.124	875.169	692.448
321.168	22.110	875.171	696.298
322.183	22.879	875.142	699.258
323.197	22.993	875.050	699.573
324.212	23.144	875.118	700.163
325.227	23.149	874.202	699.389
326.241	23.174	873.229	698.648
327.256	23.088	872.284	697.491
328.270	22.956	872.243	696.875
329.285	22.679	871.122	694.826
330.300	22.492	870.470	693.510
331.314	22.807	869.836	694.183
332.329	23.129	869.927	695.460
333.343	23.278	869.908	695.969
334.358	23.315	868.994	695.323
335.373	23.378	868.702	695.271
336.387	23.600	868.479	695.903
337.402	23.723	868.190	696.091
338.416	23.665	868.032	695.677
339.431	23.699	867.831	695.586
340.446	23.899	867.285	695.872
341.460	23.637	867.037	694.586
342.475	23.559	866.095	693.465
343.489	23.599	865.683	693.228
344.504	23.798	865.739	693.989
345.519	24.140	864.876	694.569
346.533	24.196	864.470	694.399
347.548	24.193	864.136	694.059
348.562	24.022	863.475	692.800
349.577	23.984	863.045	692.247
350.592	23.918	862.646	691.609
351.606	24.045	861.375	691.021
352.621	23.769	860.513	689.201
353.635	23.887	860.177	689.329
354.650	23.218	858.247	685.130
355.665	22.329	856.884	680.546
356.679	22.826	855.984	681.691
357.694	23.185	855.848	682.908
358.708	23.041	855.515	682.025
359.723	23.501	855.081	683.393
360.738	23.787	854.853	684.252
361.752	23.752	854.796	684.010
362.767	24.205	854.152	685.178
363.781	24.430	853.505	685.463
364.796	24.415	853.549	685.377
365.810	24.420	853.093	684.969
366.825	24.471	852.423	684.569
367.840	24.153	851.678	682.689
368.854	23.755	850.913	680.494
369.869	23.604	850.647	679.643
370.883	23.806	850.012	679.846
371.898	23.726	849.445	679.028
372.913	23.850	849.161	679.214
373.927	23.918	848.724	679.064
374.942	24.125	848.437	679.563
375.956	24.154	848.273	679.483
376.971	24.199	847.548	679.014
377.986	24.460	846.959	679.477
379.000	24.264	846.755	678.505
380.015	24.158	845.795	677.274
381.029	24.206	845.491	677.151
382.044	24.316	845.166	677.251
383.059	24.464	844.118	676.912
384.073	24.427	843.560	676.264
385.088	24.365	843.177	675.665
386.102	24.106	842.447	674.038
387.117	24.155	841.691	673.557
388.132	23.724	840.461	670.888
389.146	23.309	839.764	668.703
390.161	23.744	839.614	670.166
391.175	24.251	839.212	671.698
392.190	23.789	838.345	669.206
393.205	22.561	836.072	662.717
394.219	21.078	834.322	655.701
395.234	20.984	834.046	655.075
396.248	22.382	835.844	661.687
397.263	23.999	836.355	668.111
398.278	23.829	836.428	667.472
399.292	23.668	835.366	665.961
400.307	23.716	834.785	665.619
401.321	23.777	834.461	665.529
402.336	24.268	834.481	667.327
403.350	24.599	834.155	668.243
404.365	24.847	834.019	669.002
405.380	25.115	833.846	669.805
406.394	25.155	833.439	669.568
407.409	25.053	832.771	668.595
408.423	25.035	832.408	668.175
409.438	25.123	832.130	668.220
410.453	25.073	831.516	667.483
411.467	24.953	830.918	666.499
412.482	25.062	830.575	666.569
413.496	25.207	829.925	666.528
414.511	25.178	829.890	666.330
415.526	25.284	829.240	666.144
416.540	25.016	828.704	664.661
417.555	24.794	827.792	663.048
418.569	24.853	827.222	662.753
419.584	24.817	827.304	662.626
420.599	24.662	826.507	661.356
421.613	143.314	1355.484	1743.445
422.628	124.894	1432.569	1743.589
