DTS Sentinel unit serial number:	SN413079Multiplexer serial number:	ORYXHardware model number:	OX4-SRSoftware version number:	ORYX F/W v4.00 Oryx Data Collector v3.7.2.0data status	okinstallation	princeton_trtdifferential loss correction	single-endedforward channel	channel 1reverse channel	N/Adate	2019/09/11time	03:04:11forward acquisition time	60.00reverse acquisition time	0.00gamma	496.2192k internal	0.2331k external	0.2331temperature offset calibration	0.9928default loss term (dB/km)	0.3790temperature slope calibration	1.0000multiplexer offset coefficient	1.0000multiplexer slope coefficient	1.0000fibre end	0.00T internal ref (°C)	29.30T ext. ref 1 (°C)	-0.29T ext. ref 2 (°C)	23.71length (m)	temperature (°C)	Stokes	anti-Stokes-747.200	312.678	0.011	-0.020
-746.185	800.000	-0.095	0.347
-745.171	389.863	0.093	0.195
-744.156	181.827	0.137	0.202
-743.142	90.313	-0.090	-0.101
-742.127	800.000	-0.031	-0.119
-741.112	247.157	0.081	-0.138
-740.098	41.191	-0.057	-0.052
-739.083	151.028	-0.107	-0.146
-738.069	-12.972	-0.081	0.053
-737.054	32.855	0.217	0.189
-736.039	225.842	0.146	-0.238
-735.025	750.517	-0.111	0.301
-734.010	66.945	0.139	-0.142
-732.996	-50.426	-0.246	0.117
-731.981	-116.575	0.225	0.042
-730.966	-129.636	-0.342	-0.048
-729.952	800.000	0.012	0.040
-728.937	-47.585	-0.338	0.165
-727.923	38.661	-0.321	-0.288
-726.908	-157.984	0.208	0.012
-725.894	276.495	-0.058	-0.104
-724.879	788.715	0.131	-0.362
-723.864	30.987	0.267	-0.230
-722.850	-71.166	-0.240	-0.091
-721.835	30.096	-0.108	0.093
-720.821	280.104	0.080	0.144
-719.806	-84.258	0.383	0.122
-718.791	-138.930	-0.086	-0.009
-717.777	800.000	-0.041	-0.152
-716.762	47.026	-0.108	-0.101
-715.748	-28.282	0.068	0.040
-714.733	152.970	-0.190	-0.261
-713.718	-75.650	-0.272	-0.097
-712.704	-35.137	0.177	-0.097
-711.689	77.513	0.117	-0.125
-710.675	-8.580	0.385	0.260
-709.660	800.000	-0.057	0.237
-708.645	23.628	-0.096	0.079
-707.631	-40.547	0.114	0.060
-706.616	-200.000	0.034	0.180
-705.602	-200.000	-0.012	0.206
-704.587	60.926	-0.285	0.284
-703.572	337.479	0.137	0.267
-702.558	-95.879	0.393	-0.105
-701.543	-15.216	-0.095	0.061
-700.529	800.000	0.021	0.059
-699.514	89.354	0.243	0.272
-698.499	-200.000	-0.034	-0.163
-697.485	219.213	0.054	0.087
-696.470	260.905	0.117	-0.204
-695.456	800.000	0.057	-0.224
-694.441	-200.000	-0.002	0.367
-693.426	57.599	-0.073	-0.071
-692.412	-45.346	-0.389	-0.194
-691.397	32.022	-0.110	0.096
-690.383	4.185	0.240	0.176
-689.368	196.586	-0.147	-0.225
-688.354	-26.646	0.094	0.055
-687.339	-123.652	0.342	-0.054
-686.324	180.077	-0.247	0.364
-685.310	800.000	0.076	0.251
-684.295	-200.000	0.012	-0.150
-683.281	800.000	-0.022	-0.061
-682.266	-99.317	-0.296	-0.075
-681.251	-200.000	0.003	-0.337
-680.237	-34.349	-0.205	0.113
-679.222	139.888	-0.036	0.048
-678.208	-200.000	-0.017	-0.234
-677.193	-200.000	0.054	-0.281
-676.178	-200.000	-0.007	-0.167
-675.164	-200.000	-0.035	0.172
-674.149	-103.999	0.562	-0.131
-673.135	489.949	-0.101	0.231
-672.120	-81.660	-0.065	0.022
-671.105	-79.482	-0.386	0.131
-670.091	-15.552	0.034	0.022
-669.076	-86.216	0.076	-0.024
-668.062	326.776	-0.102	0.196
-667.047	275.903	0.106	-0.189
-666.032	-133.667	0.197	-0.025
-665.018	-85.433	0.476	-0.149
-664.003	-53.098	0.213	0.098
-662.989	439.529	0.168	0.368
-661.974	-37.517	-0.097	0.052
-660.959	678.296	-0.071	0.184
-659.945	-163.643	0.443	-0.021
-658.930	381.446	0.075	0.155
-657.916	-125.817	0.261	-0.040
-656.901	254.826	0.043	-0.074
-655.886	-49.042	0.364	0.175
-654.872	-67.096	-0.518	-0.205
-653.857	261.557	0.237	-0.412
-652.843	-200.000	-0.032	0.277
-651.828	58.755	-0.111	-0.109
-650.814	-200.000	0.002	0.267
-649.799	-5.134	-0.135	0.093
-648.784	-200.000	0.058	-0.421
-647.770	100.991	-0.160	0.187
-646.755	181.963	0.255	-0.377
-645.741	4.791	0.115	0.084
-644.726	204.458	0.142	0.220
-643.711	163.885	-0.259	-0.366
-642.697	84.319	-0.014	0.015
-641.682	130.085	-0.127	0.163
-640.668	3.401	0.260	0.190
-639.653	-44.160	0.158	-0.080
-638.638	131.719	-0.169	0.217
-637.624	-97.154	0.163	0.043
-636.609	-106.691	0.333	0.074
-635.595	47.388	-0.123	0.115
-634.580	-38.637	0.482	-0.255
-633.565	-144.960	0.292	-0.027
-632.551	-121.484	-0.268	-0.045
-631.536	-142.525	-0.154	0.015
-630.522	-200.000	-0.055	0.282
-629.507	235.032	0.068	-0.112
-628.492	288.063	0.106	-0.192
-627.478	-28.266	0.148	-0.085
-626.463	-91.593	-0.146	0.042
-625.449	214.054	0.071	-0.113
-624.434	410.648	0.066	-0.139
-623.419	236.247	-0.136	-0.226
-622.405	-135.667	0.229	-0.027
-621.390	-200.000	0.004	0.304
-620.376	-113.706	-0.130	0.025
-619.361	312.968	0.145	-0.274
-618.346	-141.872	0.248	-0.025
-617.332	-200.000	-0.002	0.157
-616.317	-177.387	-0.199	0.005
-615.303	157.861	-0.203	0.282
-614.288	-101.703	-0.393	0.096
-613.273	40.628	-0.122	-0.110
-612.259	-103.673	0.109	0.026
-611.244	800.000	-0.071	0.287
-610.230	122.208	0.230	-0.287
-609.215	499.105	-0.057	-0.132
-608.201	-97.824	0.064	0.017
-607.186	-140.847	-0.252	-0.026
-606.171	48.139	-0.322	-0.302
-605.157	-125.744	0.572	-0.087
-604.142	150.906	-0.098	-0.133
-603.128	-57.509	-0.159	-0.070
-602.113	0.504	-0.362	-0.259
-601.098	22.812	-0.150	-0.123
-600.084	-22.976	0.344	-0.208
-599.069	-200.000	0.004	0.032
-598.055	175.326	0.072	-0.104
-597.040	59.163	-0.128	-0.126
-596.025	50.013	-0.313	0.295
-595.011	-15.432	-0.197	0.126
-593.996	-35.548	-0.249	0.135
-592.982	800.000	0.055	0.158
-591.967	-200.000	-0.091	0.488
-590.952	-110.120	-0.227	0.047
-589.938	174.685	0.125	0.181
-588.923	90.193	0.128	0.143
-587.909	116.811	-0.265	0.325
-586.894	-57.686	-0.229	-0.100
-585.879	-67.972	-0.325	0.127
-584.865	800.000	0.040	-0.117
-583.850	800.000	0.031	0.089
-582.836	115.549	0.052	-0.063
-581.821	-200.000	-0.005	0.168
-580.806	530.614	-0.169	0.399
-579.792	-40.553	-0.213	0.111
-578.777	-169.120	-0.180	-0.007
-577.763	19.423	0.169	-0.136
-576.748	4.413	0.355	-0.260
-575.733	-200.000	-0.002	0.052
-574.719	237.807	-0.184	-0.305
-573.704	406.097	-0.155	-0.326
-572.690	10.716	-0.129	0.098
-571.675	70.654	-0.179	0.185
-570.661	-129.465	0.467	0.065
-569.646	-140.349	0.463	0.048
-568.631	-115.409	-0.288	-0.054
-567.617	546.718	0.153	0.365
-566.602	67.610	0.130	-0.133
-565.588	-200.000	0.029	0.198
-564.573	336.753	0.085	0.165
-563.558	-200.000	-0.001	0.086
-562.544	-200.000	-0.085	0.479
-561.529	110.005	0.261	0.312
-560.515	-200.000	-0.030	0.389
-559.500	-156.468	0.198	-0.012
-558.485	70.423	0.228	0.235
-557.471	-145.152	-0.082	0.007
-556.456	-74.604	-0.508	-0.183
-555.442	800.000	0.048	0.187
-554.427	97.415	-0.139	-0.160
-553.412	145.779	-0.095	0.127
-552.398	-84.532	0.125	-0.039
-551.383	-4.990	0.221	0.152
-550.369	311.047	0.108	0.203
-549.354	-72.730	0.186	0.068
-548.339	-154.086	0.068	-0.005
-547.325	-104.406	-0.550	-0.127
-546.310	-51.492	0.066	0.031
-545.296	7.623	-0.115	0.086
-544.281	-53.225	0.151	-0.069
-543.266	-92.133	0.144	-0.041
-542.252	-38.225	-0.262	-0.139
-541.237	179.204	-0.107	-0.156
-540.223	800.000	-0.125	0.366
-539.208	-70.939	-0.206	0.077
-538.193	-195.488	0.425	-0.003
-537.179	-24.094	-0.163	0.097
-536.164	-71.062	-0.106	-0.040
-535.150	-13.859	-0.299	0.193
-534.135	274.154	-0.123	-0.217
-533.121	2.375	-0.202	0.146
-532.106	-30.419	0.460	0.261
-531.091	-139.791	0.231	-0.025
-530.077	-149.920	-0.212	-0.016
-529.062	-36.834	-0.433	0.232
-528.048	-136.752	0.163	-0.019
-527.033	190.697	0.045	0.068
-526.018	800.000	0.099	0.389
-525.004	-200.000	-0.007	-0.235
-523.989	-50.151	-0.172	-0.081
-522.975	-139.041	-0.386	-0.042
-521.960	168.555	-0.178	-0.253
-520.945	323.644	-0.127	0.242
-519.931	161.211	0.108	-0.151
-518.916	-134.995	-0.285	0.034
-517.902	-200.000	-0.003	-0.029
-516.887	762.798	0.160	0.432
-515.872	-200.000	-0.006	0.339
-514.858	14.587	0.231	0.180
-513.843	438.730	0.049	0.107
-512.829	-200.000	0.076	0.515
-511.814	-74.295	-0.101	0.036
-510.799	49.609	0.281	-0.264
-509.785	800.000	-0.073	-0.268
-508.770	-116.213	0.367	-0.068
-507.756	-137.470	0.111	0.012
-506.741	178.424	-0.147	0.215
-505.726	343.147	0.103	0.201
-504.712	800.000	0.008	-0.025
-503.697	-39.671	-0.241	0.126
-502.683	-114.083	-0.121	0.023
-501.668	48.779	0.199	0.186
-500.653	-134.398	0.380	-0.046
-499.639	-105.464	-0.215	0.049
-498.624	77.015	0.147	0.156
-497.610	-166.363	0.344	0.014
-496.595	-138.733	0.100	-0.011
-495.581	-33.944	0.106	0.058
-494.566	4.635	-0.205	-0.150
-493.551	54.408	-0.230	0.220
-492.537	-173.794	0.171	0.005
-491.522	-173.273	-0.210	0.006
-490.508	7.100	0.408	-0.303
-489.493	-52.431	0.268	0.124
-488.478	-55.318	-0.216	-0.097
-487.464	-200.000	0.442	0.001
-486.449	145.788	-0.052	-0.070
-485.435	-46.553	0.240	0.117
-484.420	-128.466	0.302	0.043
-483.405	-51.539	-0.062	-0.029
-482.391	-51.248	-0.097	0.045
-481.376	792.059	-0.211	-0.579
-480.362	206.987	0.104	-0.162
-479.347	-51.755	0.395	-0.183
-478.332	-96.540	0.112	-0.030
-477.318	-115.866	0.259	-0.048
-476.303	-74.365	-0.298	0.107
-475.289	-29.493	-0.328	-0.187
-474.274	207.474	0.298	-0.463
-473.259	800.000	0.050	-0.205
-472.245	800.000	0.064	0.223
-471.230	68.046	-0.094	0.095
-470.216	800.000	0.066	-0.198
-469.201	-200.000	-0.012	-0.441
-468.186	68.994	0.110	-0.112
-467.172	-58.643	-0.227	0.098
-466.157	85.471	-0.351	-0.383
-465.143	-172.183	0.093	0.003
-464.128	-200.000	0.077	0.363
-463.113	83.484	0.042	-0.046
-462.099	-200.000	0.002	-0.138
-461.084	16.796	-0.197	-0.155
-460.070	-79.008	0.127	0.043
-459.055	-117.964	-0.058	0.010
-458.040	691.030	0.091	0.237
-457.026	-74.971	0.261	0.093
-456.011	800.000	-0.017	-0.065
-454.997	172.517	-0.240	0.344
-453.982	360.396	-0.036	-0.071
-452.968	-200.000	-0.010	-0.112
-451.953	-197.772	0.146	-0.001
-450.938	-186.149	-0.255	0.004
-449.924	128.826	-0.176	-0.223
-448.909	100.631	0.154	-0.178
-447.895	231.127	-0.063	-0.103
-446.880	-34.954	-0.261	0.141
-445.865	98.309	-0.175	0.201
-444.851	-71.490	0.423	0.157
-443.836	-200.000	-0.077	0.385
-442.822	276.945	-0.052	0.092
-441.807	6.623	0.157	-0.116
-440.792	-38.076	-0.098	0.052
-439.778	245.050	0.207	-0.347
-438.763	-102.717	-0.151	-0.036
-437.749	26.224	-0.250	0.208
-436.734	-135.336	-0.122	-0.015
-435.719	385.815	0.109	-0.224
-434.705	-200.000	-0.046	-0.255
-433.690	-155.215	0.254	0.016
-432.676	-84.357	0.184	0.058
-431.661	-3.230	0.204	-0.141
-430.646	199.520	-0.300	0.458
-429.632	-122.139	0.057	0.009
-428.617	-24.379	-0.184	-0.109
-427.603	162.049	-0.065	0.090
-426.588	-25.226	0.169	-0.099
-425.573	-99.656	-0.154	0.038
-424.559	379.859	-0.056	0.114
-423.544	-200.000	0.038	0.248
-422.530	-200.000	0.078	0.000
-421.515	-72.952	0.149	-0.055
-420.500	36.098	0.032	-0.028
-419.486	-131.903	-0.232	0.030
-418.471	75.450	-0.094	-0.099
-417.457	-155.411	-0.568	-0.037
-416.442	-200.000	-0.011	0.067
-415.428	87.159	0.089	-0.098
-414.413	-128.530	-0.107	0.015
-413.398	-24.043	-0.044	-0.026
-412.384	-145.672	-0.537	-0.048
-411.369	-20.084	0.223	0.137
-410.355	202.054	0.120	-0.184
-409.340	1.594	0.160	0.114
-408.325	144.177	0.130	-0.172
-407.311	-39.233	-0.007	0.004
-406.296	-200.000	-0.000	0.101
-405.282	-200.000	0.005	0.168
-404.267	-200.000	-0.034	-0.239
-403.252	-128.958	0.220	0.031
-402.238	479.705	0.046	0.104
-401.223	-141.799	0.317	0.031
-400.209	-140.034	-0.416	-0.044
-399.194	-89.603	-0.448	0.130
-398.179	-121.955	0.240	0.039
-397.165	-131.136	-0.218	-0.029
-396.150	-55.716	-0.410	0.182
-395.136	160.367	-0.130	0.180
-394.121	-200.000	0.075	-0.470
-393.106	-174.172	0.200	-0.006
-392.092	800.000	0.011	0.030
-391.077	75.710	0.055	-0.057
-390.063	21.310	-0.137	-0.110
-389.048	-68.819	-0.158	0.061
-388.033	45.187	-0.112	-0.102
-387.019	219.113	0.126	0.200
-386.004	800.000	0.082	0.226
-384.990	-200.000	0.016	-0.431
-383.975	2.754	0.060	0.043
-382.960	67.866	0.255	0.259
-381.946	-64.224	-0.156	0.063
-380.931	-74.488	-0.229	0.082
-379.917	35.245	-0.193	0.168
-378.902	800.000	0.055	-0.210
-377.888	-116.360	-0.113	-0.021
-376.873	-155.346	0.277	-0.018
-375.858	21.996	0.103	0.084
-374.844	-200.000	0.012	-0.119
-373.829	301.048	-0.015	0.028
-372.815	800.000	-0.040	-0.120
-371.800	207.918	0.147	-0.228
-370.785	339.796	0.088	-0.170
-369.771	302.338	-0.044	-0.081
-368.756	320.705	0.117	-0.220
-367.742	367.930	0.009	-0.019
-366.727	418.919	0.100	-0.213
-365.712	169.166	-0.205	-0.290
-364.698	-152.610	0.338	-0.024
-363.683	-200.000	-0.008	-0.131
-362.669	800.000	-0.029	0.091
-361.654	736.297	-0.035	0.092
-360.639	-200.000	-0.031	0.275
-359.625	-41.440	0.153	0.078
-358.610	198.405	-0.069	0.105
-357.596	132.862	-0.267	-0.342
-356.581	16.012	-0.268	-0.209
-355.566	800.000	0.002	0.008
-354.552	131.234	0.220	0.280
-353.537	-11.440	-0.245	0.160
-352.523	-24.763	0.128	-0.075
-351.508	141.768	0.087	0.115
-350.493	-200.000	0.010	0.247
-349.479	-132.054	0.296	-0.038
-348.464	487.951	0.107	-0.241
-347.450	167.863	0.034	0.048
-346.435	800.000	-0.041	-0.131
-345.420	443.498	-0.044	0.095
-344.406	-200.000	-0.075	-0.361
-343.391	-122.486	0.135	0.022
-342.377	-200.000	-0.020	0.263
-341.362	96.705	-0.258	-0.293
-340.348	172.650	0.151	0.216
-339.333	690.200	-0.118	0.306
-338.318	-55.117	-0.062	-0.027
-337.304	85.936	-0.151	-0.164
-336.289	-108.475	-0.150	-0.032
-335.275	-16.079	-0.051	-0.032
-334.260	82.591	-0.102	-0.110
-333.245	528.884	0.100	0.233
-332.231	130.193	-0.121	-0.153
-331.216	-91.416	-0.186	0.053
-330.202	90.736	-0.078	0.086
-329.187	74.507	0.084	-0.087
-328.172	144.560	-0.153	0.202
-327.158	37.963	0.216	0.190
-326.143	-103.430	-0.305	-0.071
-325.129	-152.996	-0.241	-0.017
-324.114	-108.263	-0.301	-0.064
-323.099	-28.929	-0.269	-0.153
-322.085	-0.488	-0.085	0.060
-321.070	-194.126	-0.219	0.002
-320.056	672.025	0.054	0.139
-319.041	16.068	-0.093	-0.073
-318.026	36.354	-0.281	-0.245
-317.012	-129.074	0.167	-0.023
-315.997	-143.283	0.396	-0.038
-314.983	-143.894	-0.339	0.032
-313.968	800.000	-0.050	0.213
-312.953	-200.000	0.048	0.347
-311.939	800.000	0.079	0.235
-310.924	-200.000	-0.061	0.299
-309.910	-82.090	0.309	-0.100
-308.895	-36.601	-0.324	0.173
-307.880	79.687	-0.053	0.056
-306.866	69.889	0.214	-0.218
-305.851	658.139	0.123	0.313
-304.837	173.054	0.064	-0.092
-303.822	-144.616	0.259	0.024
-302.807	-200.000	-0.031	0.191
-301.793	200.781	0.077	-0.117
-300.778	-40.394	-0.026	0.013
-299.764	386.350	-0.085	-0.174
-298.749	-1.327	0.211	0.147
-297.735	565.795	0.169	-0.405
-296.720	-88.099	0.315	0.094
-295.705	-54.798	-0.441	0.197
-294.691	78.118	-0.143	-0.151
-293.676	142.543	0.064	0.083
-292.662	-200.000	-0.027	0.152
-291.647	-90.852	-0.551	-0.157
-290.632	89.751	-0.232	-0.256
-289.618	-200.000	-0.016	-0.299
-288.603	-200.000	-0.006	-0.123
-287.589	-51.220	-0.261	-0.121
-286.574	719.595	-0.142	-0.372
-285.559	-173.635	0.030	-0.001
-284.545	800.000	0.076	-0.221
-283.530	-0.259	-0.069	0.048
-282.516	3.988	0.104	-0.075
-281.501	129.947	0.180	-0.227
-280.486	-78.751	0.245	-0.083
-279.472	800.000	0.089	0.297
-278.457	707.242	-0.148	0.387
-277.443	-4.593	0.133	0.091
-276.428	98.631	-0.189	0.216
-275.413	-115.919	0.400	0.074
-274.399	800.000	-0.074	-0.245
-273.384	90.101	0.189	-0.209
-272.370	-92.496	0.232	-0.064
-271.355	-159.422	-0.272	0.015
-270.340	-8.213	-0.104	0.069
-269.326	182.372	-0.133	0.194
-268.311	-200.000	-0.043	-0.328
-267.297	51.288	-0.266	0.250
-266.282	-77.769	0.388	0.132
-265.267	-151.317	0.276	0.020
-264.253	-56.721	0.252	0.110
-263.238	-65.116	0.088	0.035
-262.224	49.715	-0.284	-0.264
-261.209	-171.773	-0.312	-0.010
-260.195	498.075	0.030	-0.068
-259.180	-90.560	0.185	-0.053
-258.165	72.074	0.242	0.249
-257.151	86.344	0.019	0.020
-256.136	800.000	0.049	-0.162
-255.122	419.917	0.055	-0.115
-254.107	249.878	0.063	-0.106
-253.092	-200.000	0.056	0.413
-252.078	-3.308	0.237	-0.163
-251.063	800.000	-0.078	-0.269
-250.049	90.011	0.068	-0.075
-249.034	-16.291	0.198	-0.124
-248.019	-110.187	0.180	-0.037
-247.005	-25.456	0.345	-0.201
-245.990	-39.755	0.286	-0.148
-244.976	-55.823	-0.279	-0.123
-243.961	75.646	-0.101	0.106
-242.946	-200.000	-0.006	0.186
-241.932	32.235	-0.105	-0.089
-240.917	581.231	-0.076	0.185
-239.903	-171.256	0.184	-0.006
-238.888	-10.593	-0.256	-0.167
-237.873	-9.638	-0.142	-0.093
-236.859	-200.000	-0.011	-0.135
-235.844	-200.000	0.041	-0.259
-234.830	69.391	-0.166	-0.168
-233.815	290.525	-0.057	0.101
-232.800	33.921	0.107	0.092
-231.786	800.000	0.098	0.356
-230.771	-200.000	0.082	-0.372
-229.757	-200.000	0.046	0.203
-228.742	515.142	-0.136	0.313
-227.727	-153.569	0.266	0.018
-226.713	-124.671	0.016	0.002
-225.698	-70.042	-0.333	0.125
-224.684	33.563	-0.093	0.080
-223.669	88.981	-0.134	0.147
-222.655	-55.037	0.162	-0.072
-221.640	16.982	0.237	0.185
-220.625	-45.903	-0.183	-0.089
-219.611	171.228	0.063	-0.089
-218.596	110.657	-0.098	0.116
-217.582	-109.910	0.198	-0.041
-216.567	-156.436	0.227	0.014
-215.552	-157.037	-0.146	-0.009
-214.538	800.000	-0.109	-0.307
-213.523	800.000	0.089	0.325
-212.509	-169.423	0.309	0.011
-211.494	-200.000	-0.016	-0.156
-210.479	-200.000	0.052	-0.545
-209.465	34.661	0.181	0.156
-208.450	-86.159	-0.325	0.099
-207.436	-174.456	0.168	0.005
-206.421	-200.000	0.001	-0.173
-205.406	-200.000	0.006	0.310
-204.392	135.664	0.072	0.092
-203.377	174.740	0.086	-0.122
-202.363	119.988	0.144	-0.176
-201.348	46.702	0.162	0.148
-200.333	-119.547	0.165	-0.028
-199.319	-101.568	0.181	-0.043
-198.304	-173.869	-0.097	0.003
-197.290	280.373	0.081	-0.143
-196.275	-68.225	-0.402	0.154
-195.260	259.962	-0.085	-0.145
-194.246	-87.263	-0.154	0.046
-193.231	5.969	0.354	-0.258
-192.217	-179.551	0.380	-0.008
-191.202	325.966	0.104	-0.196
-190.187	-35.643	0.310	0.165
-189.173	-135.576	0.095	-0.011
-188.158	-77.782	-0.292	-0.099
-187.144	-66.452	-0.097	-0.038
-186.129	-200.000	0.069	-0.449
-185.114	-122.805	0.331	0.053
-184.100	-34.737	-0.336	-0.181
-183.085	800.000	0.037	0.134
-182.071	268.693	0.055	-0.096
-181.056	88.090	0.107	-0.117
-180.042	106.300	-0.182	0.213
-179.027	-200.000	0.015	0.131
-178.012	250.372	0.151	-0.253
-176.998	-200.000	0.087	0.455
-175.983	-121.435	-0.250	-0.041
-174.969	-32.533	0.033	-0.018
-173.954	-135.484	0.151	0.018
-172.939	-152.911	-0.094	0.007
-171.925	-200.000	-0.015	0.136
-170.910	800.000	-0.043	-0.139
-169.896	9.037	0.205	-0.152
-168.881	488.254	-0.087	-0.196
-167.866	-200.000	-0.226	0.000
-166.852	-200.000	0.011	-0.092
-165.837	37.610	0.298	0.261
-164.823	323.138	-0.183	0.343
-163.808	800.000	-0.056	-0.211
-162.793	-102.633	0.120	0.028
-161.779	247.720	0.074	-0.122
-160.764	800.000	-0.063	-0.201
-159.750	68.603	-0.050	-0.051
-158.735	-200.000	0.113	-0.497
-157.720	24.535	-0.201	0.163
-156.706	-0.442	-0.128	-0.089
-155.691	-22.285	-0.426	-0.254
-154.677	-160.089	0.372	-0.020
-153.662	-64.482	0.217	-0.087
-152.647	-74.751	0.057	0.020
-151.633	-135.257	0.179	0.021
-150.618	246.977	-0.031	0.052
-149.604	177.935	0.049	-0.070
-148.589	-200.000	0.001	0.017
-147.574	44.969	-0.202	-0.183
-146.560	347.937	0.047	-0.091
-145.545	562.059	-0.051	0.121
-144.531	-26.498	0.113	-0.065
-143.516	-200.000	-0.033	0.392
-142.502	-26.493	0.267	-0.154
-141.487	-88.781	0.324	-0.095
-140.472	-200.000	-0.022	-0.173
-139.458	800.000	-0.082	-0.266
-138.443	-200.000	-0.046	0.248
-137.429	426.624	0.133	0.281
-136.414	-32.719	-0.180	-0.098
-135.399	-119.183	0.327	0.056
-134.385	-200.000	0.028	-0.177
-133.370	234.974	0.121	0.197
-132.356	137.409	0.186	0.239
-131.341	77.183	-0.115	0.120
-130.326	-71.591	0.115	0.042
-129.312	800.000	0.047	-0.152
-128.297	72.195	-0.238	0.244
-127.283	17.928	-0.024	-0.019
-126.268	161.177	0.034	-0.047
-125.253	-200.000	0.074	-0.378
-124.239	22.734	0.055	0.045
-123.224	-74.782	-0.438	0.154
-122.210	-39.147	-0.173	0.089
-121.195	132.363	0.116	0.146
-120.180	-127.208	0.230	0.033
-119.166	3.947	0.183	-0.131
-118.151	800.000	0.056	-0.207
-117.137	52.256	0.021	-0.020
-116.122	251.222	-0.111	0.186
-115.107	192.191	-0.097	0.143
-114.093	-24.539	0.157	0.092
-113.078	800.000	0.050	-0.154
-112.064	800.000	-0.043	-0.120
-111.049	800.000	-0.104	0.297
-110.034	-200.000	0.038	-0.224
-109.020	-182.361	-0.262	0.005
-108.005	8.036	0.232	0.171
-106.991	-113.458	0.049	0.010
-105.976	104.021	-0.020	-0.023
-104.962	-200.000	-0.064	0.356
-103.947	-9.680	-0.160	-0.104
-102.932	800.000	-0.033	-0.109
-101.918	-200.000	-0.014	0.310
-100.903	-50.571	0.262	0.121
-99.889	-150.479	-0.122	-0.009
-98.874	-87.672	-0.217	-0.064
-97.859	-23.431	-0.190	-0.112
-96.845	-200.000	-0.002	0.012
-95.830	-61.457	-0.390	-0.161
-94.816	120.760	0.243	-0.296
-93.801	31.666	-0.377	0.318
-92.786	225.606	0.354	-0.563
-91.772	-17.313	0.296	-0.183
-90.757	-106.735	0.044	-0.010
-89.743	247.103	-0.243	-0.402
-88.728	50.566	-0.274	0.254
-87.713	142.723	-0.122	-0.159
-86.699	-128.690	-0.119	0.016
-85.684	26.056	0.177	0.145
-84.670	-122.005	0.232	-0.037
-83.655	88.491	-0.081	0.088
-82.640	-140.189	-0.039	-0.004
-81.626	-200.000	-0.026	-0.140
-80.611	-42.371	0.184	-0.092
-79.597	800.000	-0.098	-0.321
-78.582	-22.450	-0.085	0.051
-77.567	17.099	-0.148	0.115
-76.553	395.550	0.206	-0.422
-75.538	-44.374	-0.107	-0.052
-74.524	-21.904	0.284	-0.169
-73.509	106.285	0.145	0.168
-72.494	-129.555	0.257	-0.035
-71.480	-1.756	0.157	0.108
-70.465	-133.000	0.134	-0.017
-69.451	23.905	-0.091	0.073
-68.436	-88.920	-0.127	0.037
-67.422	226.753	0.073	0.117
-66.407	-200.000	0.007	-0.050
-65.392	110.985	-0.125	0.147
-64.378	-8.804	0.071	0.047
-63.363	-53.333	0.163	-0.073
-62.349	67.252	0.201	0.201
-61.334	125.904	-1.036	-1.283
-60.319	48.722	0.457	0.420
-59.305	-200.000	-0.026	-1.262
-58.290	91.511	0.928	1.022
-57.276	737.037	0.602	1.582
-56.261	-200.000	105.976	614.447
-55.246	510.756	1509.570	3440.260
-54.232	176.473	2701.984	3846.041
-53.217	111.285	2164.973	2555.594
-52.203	41.316	1600.150	1417.270
-51.188	32.784	1334.940	1131.422
-50.173	29.787	1293.454	1078.770
-49.159	54.114	1348.026	1269.812
-48.144	54.203	1363.760	1285.111
-47.130	32.859	1318.168	1117.477
-46.115	29.564	1299.863	1082.634
-45.100	29.269	1295.051	1076.861
-44.086	29.179	1293.017	1074.604
-43.071	29.197	1290.504	1072.576
-42.057	29.115	1288.502	1070.393
-41.042	29.263	1286.558	1069.597
-40.027	29.199	1285.166	1068.025
-39.013	29.157	1283.244	1066.142
-37.998	29.286	1280.984	1064.965
-36.984	29.274	1279.959	1064.000
-35.969	29.275	1277.879	1062.238
-34.954	29.338	1276.276	1061.224
-33.940	29.295	1275.032	1059.901
-32.925	29.344	1273.978	1059.262
-31.911	29.447	1272.272	1058.396
-30.896	29.408	1270.887	1056.975
-29.881	29.443	1269.183	1055.717
-28.867	29.390	1268.127	1054.496
-27.852	29.364	1266.482	1052.935
-26.838	29.415	1264.980	1051.937
-25.823	29.410	1263.965	1051.025
-24.809	29.296	1263.085	1049.601
-23.794	29.425	1260.946	1048.516
-22.779	29.353	1259.912	1047.204
-21.765	29.426	1258.487	1046.392
-20.750	29.385	1257.411	1045.223
-19.736	29.215	1256.534	1043.490
-18.721	29.234	1255.322	1042.548
-17.706	29.298	1253.570	1041.413
-16.692	29.405	1252.366	1040.980
-15.677	29.288	1251.677	1039.702
-14.663	29.274	1250.145	1038.313
-13.648	29.142	1249.698	1037.155
-12.633	29.288	1248.454	1036.905
-11.619	29.183	1248.081	1035.963
-10.604	29.266	1246.436	1035.021
-9.590	29.157	1246.103	1034.091
-8.575	29.254	1245.162	1033.815
-7.560	29.150	1244.096	1032.304
-6.546	29.134	1243.425	1031.616
-5.531	29.297	1242.418	1031.654
-4.517	29.215	1241.763	1030.611
-3.502	29.208	1240.943	1029.850
-2.487	29.359	1239.275	1029.268
-1.473	29.157	1235.834	1025.246
-0.458	27.899	1220.967	1005.946
0.556	22.320	1204.235	970.224
1.571	18.948	1210.042	956.103
2.586	18.229	1224.856	963.674
3.600	18.198	1214.187	955.023
4.615	13.346	1144.145	874.266
5.629	4.510	1068.944	772.932
6.644	0.040	1048.772	736.426
7.659	-0.223	1045.677	732.904
8.673	-0.426	1045.088	731.436
9.688	-0.560	1043.939	729.913
10.702	0.009	1042.317	731.482
11.717	6.016	1050.569	766.597
12.731	15.045	1063.036	820.044
13.746	19.418	1068.755	845.874
14.761	20.474	1069.733	851.752
15.775	20.421	1069.519	851.247
16.790	20.209	1068.389	849.234
17.804	20.160	1067.978	848.592
18.819	20.224	1067.529	848.473
19.834	20.210	1067.836	848.572
20.848	20.359	1066.763	848.376
21.863	20.391	1066.028	847.873
22.877	20.271	1065.489	846.783
23.892	20.240	1064.431	845.714
24.907	20.318	1063.850	845.559
25.921	20.347	1062.545	844.588
26.936	20.281	1061.673	843.499
27.950	20.258	1059.682	841.733
28.965	20.181	1058.231	840.132
29.980	20.171	1056.544	838.671
30.994	20.444	1055.932	839.427
32.009	20.408	1054.022	837.662
33.023	20.155	1053.181	835.700
34.038	20.229	1052.465	835.413
35.053	20.417	1051.673	835.618
36.067	20.433	1050.378	834.591
37.082	20.417	1050.056	834.184
38.096	20.578	1049.171	834.180
39.111	20.645	1048.693	834.046
40.126	20.394	1047.334	831.691
41.140	20.153	1045.462	828.978
42.155	19.987	1043.930	826.896
43.169	20.108	1043.051	826.705
44.184	19.988	1042.345	825.502
45.199	19.982	1040.670	824.075
46.213	19.923	1040.293	823.420
47.228	20.151	1039.083	823.474
48.242	20.093	1038.374	822.565
49.257	20.294	1037.463	822.721
50.271	20.524	1036.493	822.971
51.286	20.461	1035.778	822.030
52.301	20.473	1034.749	821.198
53.315	20.319	1033.957	819.771
54.330	20.304	1033.030	818.890
55.344	20.266	1032.826	818.475
56.359	20.272	1031.551	817.423
57.374	19.975	1030.645	815.235
58.388	20.137	1029.638	815.128
59.403	20.005	1028.968	813.906
60.417	19.903	1027.990	812.582
61.432	20.138	1026.988	812.816
62.447	20.223	1026.845	813.034
63.461	20.257	1026.061	812.500
64.476	20.225	1024.647	811.156
65.490	19.997	1024.430	809.850
66.505	20.181	1023.171	809.639
67.520	20.184	1022.628	809.153
68.534	19.986	1021.501	807.264
69.549	19.686	1020.409	804.937
70.563	19.744	1019.349	804.298
71.578	19.717	1018.944	803.782
72.593	19.727	1017.773	802.832
73.607	19.632	1017.527	802.126
74.622	20.070	1017.010	803.681
75.636	20.076	1015.868	802.736
76.651	19.854	1015.474	801.324
77.666	19.776	1014.891	800.431
78.680	19.889	1014.207	800.345
79.695	20.101	1013.255	800.503
80.709	20.020	1012.891	799.766
81.724	20.079	1011.626	798.972
82.739	20.232	1010.879	799.016
83.753	20.400	1010.548	799.459
84.768	20.687	1009.779	800.099
85.782	20.715	1008.465	799.114
86.797	20.571	1007.975	797.996
87.812	20.392	1006.787	796.162
88.826	20.516	1006.389	796.347
89.841	20.568	1005.394	795.725
90.855	20.646	1004.051	794.951
91.870	20.529	1003.520	793.922
92.884	20.460	1002.334	792.601
93.899	20.425	1001.347	791.592
94.914	20.562	1000.781	791.697
95.928	20.508	999.264	790.183
96.943	20.229	998.314	788.094
97.957	19.970	997.387	786.116
98.972	19.751	995.992	783.955
99.987	20.074	995.753	785.161
101.001	20.377	994.288	785.304
102.016	20.233	993.922	784.295
103.030	20.242	993.044	783.574
104.045	20.000	991.996	781.586
105.060	19.967	990.634	780.297
106.074	20.128	989.951	780.412
107.089	20.455	989.596	781.538
108.103	20.368	988.638	780.319
109.118	20.175	987.369	778.383
110.133	20.010	986.497	776.887
111.147	19.929	985.215	775.446
112.162	19.934	983.671	774.185
113.176	20.103	983.202	774.500
114.191	19.995	982.123	773.100
115.206	19.692	981.093	770.868
116.220	19.619	980.832	770.273
117.235	19.891	979.635	770.475
118.249	19.842	978.795	769.527
119.264	19.746	978.227	768.585
120.279	19.832	977.647	768.445
121.293	19.776	977.355	767.898
122.308	19.868	975.992	767.169
123.322	20.037	974.278	766.500
124.337	19.927	972.894	764.857
125.352	19.258	971.246	760.543
126.366	19.233	970.697	759.935
127.381	20.076	970.423	763.368
128.395	20.397	969.743	764.179
129.410	20.408	969.099	763.653
130.424	20.311	968.275	762.509
131.439	20.322	966.997	761.482
132.454	20.383	966.115	760.992
133.468	20.204	965.780	759.872
134.483	20.412	964.771	759.923
135.497	20.510	964.052	759.719
136.512	20.622	962.830	759.177
137.527	20.687	961.863	758.631
138.541	20.665	961.112	757.873
139.556	20.456	960.355	756.303
140.570	20.526	959.851	756.141
141.585	20.550	958.181	754.863
142.600	20.633	957.054	754.267
143.614	20.746	956.922	754.589
144.629	20.876	955.896	754.274
145.643	20.702	954.560	752.403
146.658	20.506	953.418	750.587
147.673	20.486	952.157	749.444
148.687	20.360	951.064	747.975
149.702	20.378	950.334	747.409
150.716	20.228	949.757	746.244
151.731	20.485	948.981	746.673
152.746	20.835	948.200	747.499
153.760	20.740	947.757	746.673
154.775	20.847	947.269	746.683
155.789	20.806	946.215	745.608
156.804	20.678	944.909	743.968
157.819	20.721	944.551	743.802
158.833	20.752	943.888	743.347
159.848	20.754	942.591	742.272
160.862	20.611	941.534	740.763
161.877	20.641	941.131	740.508
162.892	20.823	939.807	740.173
163.906	20.771	938.751	739.054
164.921	20.612	937.827	737.591
165.935	20.824	936.977	737.755
166.950	20.681	935.959	736.280
167.964	20.805	935.056	736.031
168.979	20.531	934.435	734.318
169.994	20.550	933.303	733.444
171.008	20.702	932.967	733.758
172.023	20.747	931.965	733.092
173.037	20.465	930.480	730.673
174.052	20.553	929.296	730.050
175.067	20.444	929.112	729.381
176.081	20.585	928.830	729.689
177.096	20.609	927.660	728.806
178.110	20.241	926.647	726.404
179.125	20.033	926.324	725.217
180.140	20.161	925.818	725.292
181.154	20.421	925.033	725.699
182.169	20.553	925.243	726.352
183.183	20.757	924.486	726.546
184.198	20.554	923.949	725.212
185.213	20.662	922.894	724.769
186.227	20.634	922.617	724.368
187.242	20.740	921.856	724.148
188.256	20.789	920.661	723.350
189.271	20.821	919.723	722.684
190.286	20.484	919.318	720.900
191.300	20.113	917.489	717.868
192.315	19.269	916.136	713.252
193.329	19.163	915.978	712.629
194.344	20.177	916.190	716.927
195.359	20.492	916.595	718.482
196.373	20.631	915.630	718.237
197.388	20.530	914.400	716.792
198.402	20.518	914.120	716.460
199.417	20.538	913.287	715.826
200.432	20.283	912.400	714.016
201.446	20.105	912.103	712.991
202.461	20.144	911.343	712.490
203.475	19.392	909.237	707.699
204.490	18.587	908.240	703.561
205.504	19.630	908.436	707.924
206.519	20.125	908.515	709.951
207.534	20.338	907.865	710.252
208.548	20.577	908.073	711.331
209.563	20.349	907.146	709.609
210.577	20.522	905.747	709.158
211.592	20.830	905.580	710.222
212.607	20.742	904.936	709.296
213.621	20.925	903.792	709.081
214.636	20.743	903.701	708.207
215.650	20.838	902.392	707.503
216.665	20.897	901.926	707.317
217.680	20.705	901.405	706.062
218.694	20.182	900.060	702.828
219.709	20.133	899.048	701.779
220.723	20.525	898.741	703.064
221.738	20.759	898.203	703.525
222.753	20.549	897.631	702.168
223.767	20.814	897.368	702.969
224.782	21.086	896.546	703.359
225.796	20.843	896.506	702.288
226.811	20.251	895.007	698.666
227.826	19.477	893.892	694.620
228.840	19.915	893.235	695.809
229.855	19.988	892.373	695.368
230.869	19.578	891.325	692.845
231.884	19.955	891.635	694.538
232.899	20.814	891.513	697.825
233.913	20.599	890.668	696.242
234.928	20.710	890.081	696.166
235.942	20.521	889.756	695.095
236.957	20.311	888.731	693.394
237.972	20.257	888.252	692.742
238.986	20.454	887.370	692.779
240.001	20.400	886.976	692.194
241.015	20.518	886.166	691.971
242.030	20.598	885.791	691.936
243.045	20.631	885.319	691.635
244.059	20.748	884.989	691.782
245.074	20.574	883.918	690.195
246.088	20.176	882.794	687.675
247.103	20.572	882.451	688.916
248.117	21.064	882.539	690.876
249.132	21.102	882.088	690.610
250.147	21.239	881.434	690.580
251.161	21.443	880.538	690.622
252.176	21.317	880.268	689.850
253.190	21.590	879.216	690.042
254.205	21.611	878.988	689.887
255.220	21.547	878.537	689.218
256.234	21.476	877.988	688.446
257.249	21.373	877.066	687.258
258.263	21.316	876.510	686.539
259.278	21.470	875.799	686.527
260.293	21.474	875.064	685.905
261.307	21.361	874.274	684.782
262.322	21.053	873.653	683.030
263.336	20.274	871.513	678.250
264.351	19.354	869.411	672.968
265.366	19.519	869.303	673.465
266.380	20.647	870.452	678.700
267.395	21.055	869.606	679.572
268.409	21.140	869.144	679.483
269.424	21.183	868.723	679.259
270.439	21.264	868.014	678.959
271.453	21.418	867.350	678.976
272.468	21.600	866.887	679.262
273.482	21.578	866.557	678.856
274.497	21.035	865.278	675.692
275.512	20.812	863.960	673.742
276.526	21.267	864.544	675.897
277.541	21.200	864.203	675.312
278.555	21.127	862.996	674.027
279.570	20.945	862.369	672.775
280.585	21.186	861.754	673.167
281.599	21.198	860.598	672.250
282.614	20.665	859.229	669.070
283.628	20.653	858.805	668.637
284.643	21.028	858.605	669.860
285.657	20.476	857.696	666.977
286.672	20.224	856.996	665.406
287.687	20.947	856.421	667.669
288.701	20.783	856.359	666.933
289.716	20.683	855.052	665.474
290.730	20.539	854.617	664.528
291.745	20.216	853.782	662.585
292.760	20.501	854.009	663.790
293.774	21.540	854.093	667.763
294.789	21.725	853.746	668.140
295.803	21.771	853.269	667.883
296.818	21.834	852.659	667.587
297.833	21.377	851.409	664.811
298.847	21.340	850.647	664.015
299.862	21.704	850.262	665.040
300.876	21.845	850.067	665.363
301.891	21.897	848.637	664.380
302.906	21.410	847.976	661.961
303.920	21.394	847.843	661.740
304.935	21.574	848.057	662.529
305.949	21.756	846.942	662.288
306.964	21.530	846.083	660.703
307.979	21.661	845.988	661.066
308.993	22.031	845.819	662.271
310.008	21.890	844.784	660.870
311.022	21.673	844.322	659.633
312.037	21.673	843.486	658.921
313.052	21.448	842.404	657.171
314.066	20.464	841.259	652.529
315.081	20.258	840.462	651.079
316.095	21.137	840.810	654.590
317.110	21.530	840.498	655.763
318.125	20.708	838.970	651.435
319.139	19.774	837.697	646.897
320.154	19.846	837.379	646.863
321.168	20.757	837.573	650.359
322.183	21.220	838.204	652.522
323.197	21.392	837.910	652.878
324.212	21.608	836.993	652.912
325.227	21.638	836.617	652.675
326.241	21.445	835.868	651.312
327.256	21.413	835.252	650.656
328.270	21.449	834.200	649.913
329.285	21.107	833.549	648.078
330.300	20.990	832.931	647.105
331.314	21.432	832.092	648.035
332.329	21.672	832.533	649.209
333.343	21.602	832.312	648.722
334.358	21.675	831.579	648.363
335.373	21.597	831.864	648.238
336.387	22.024	831.409	649.407
337.402	22.126	831.025	649.426
338.416	21.996	830.482	648.466
339.431	22.043	830.524	648.615
340.446	22.276	829.695	648.769
341.460	22.216	829.217	648.115
342.475	21.954	828.879	646.829
343.489	21.950	828.469	646.439
344.504	22.264	827.867	647.067
345.519	22.399	827.891	647.523
346.533	22.478	827.696	647.604
347.548	22.506	826.813	646.958
348.562	22.484	826.319	646.434
349.577	22.411	825.777	645.684
350.592	22.469	824.918	645.169
351.606	22.434	824.371	644.554
352.621	22.387	823.465	643.620
353.635	22.184	823.001	642.459
354.650	21.511	821.279	638.602
355.665	20.772	819.396	634.390
356.679	21.245	819.190	635.895
357.694	21.622	819.163	637.189
358.708	21.555	818.517	636.386
359.723	21.769	818.642	637.208
360.738	22.199	818.061	638.261
361.752	22.211	817.616	637.899
362.767	22.515	817.622	638.949
363.781	22.750	817.066	639.313
364.796	22.791	816.462	638.930
365.810	22.823	816.223	638.804
366.825	22.841	815.765	638.452
367.840	22.411	815.031	636.269
368.854	22.216	814.060	634.751
369.869	22.153	813.870	634.317
370.883	22.353	812.876	634.208
371.898	22.119	813.083	633.469
372.913	22.188	812.520	633.222
373.927	22.381	811.635	633.173
374.942	22.530	811.902	633.862
375.956	22.511	811.470	633.401
376.971	22.537	810.887	632.983
377.986	22.910	810.601	634.041
379.000	22.787	810.068	633.128
380.015	22.492	809.712	631.737
381.029	22.659	808.734	631.515
382.044	22.759	808.269	631.453
383.059	22.851	807.645	631.238
384.073	22.745	807.373	630.592
385.088	22.762	806.729	630.095
386.102	22.653	806.051	629.118
387.117	22.593	805.253	628.226
388.132	22.343	804.005	626.307
389.146	21.700	803.638	623.677
390.161	22.167	803.186	624.933
391.175	22.531	802.886	625.940
392.190	22.149	802.359	624.116
393.205	20.831	799.953	617.521
394.219	19.489	798.260	611.409
395.234	19.541	798.439	611.676
396.248	21.090	799.750	618.116
397.263	22.544	800.351	623.677
398.278	22.285	800.153	622.550
399.292	22.157	799.464	621.506
400.307	22.205	798.784	621.094
401.321	22.247	798.099	620.655
402.336	22.731	798.266	622.435
403.350	22.929	798.388	623.176
404.365	23.132	798.033	623.558
405.380	23.421	797.453	624.069
406.394	23.563	797.172	624.291
407.409	23.378	796.535	623.090
408.423	23.348	796.248	622.701
409.438	23.451	795.916	622.749
410.453	23.479	795.381	622.374
411.467	23.374	795.054	621.695
412.482	23.279	794.814	621.119
413.496	23.529	794.239	621.489
414.511	23.440	793.960	620.905
415.526	23.439	793.636	620.593
416.540	23.330	792.603	619.349
417.555	23.255	791.835	618.434
418.569	23.156	791.122	617.477
419.584	23.050	791.112	617.044
420.599	22.893	790.698	616.118
421.613	158.433	1364.644	1799.909
422.628	137.257	1448.255	1800.003
