DTS Sentinel unit serial number:	SN413079Multiplexer serial number:	ORYXHardware model number:	OX4-SRSoftware version number:	ORYX F/W v4.00 Oryx Data Collector v3.7.2.0data status	okinstallation	princeton_trtdifferential loss correction	single-endedforward channel	channel 1reverse channel	N/Adate	2019/09/12time	04:12:11forward acquisition time	60.00reverse acquisition time	0.00gamma	496.2192k internal	0.2322k external	0.2322temperature offset calibration	1.0088default loss term (dB/km)	0.3790temperature slope calibration	1.0000multiplexer offset coefficient	1.0000multiplexer slope coefficient	1.0000fibre end	0.00T internal ref (°C)	31.91T ext. ref 1 (°C)	2.22T ext. ref 2 (°C)	25.34length (m)	temperature (°C)	Stokes	anti-Stokes-747.200	4.421	-0.211	0.157
-746.185	405.617	0.145	0.310
-745.171	-62.156	-0.165	0.069
-744.156	-20.923	-0.339	0.210
-743.142	387.416	-0.011	0.024
-742.127	800.000	0.079	0.292
-741.112	59.776	0.087	-0.087
-740.098	800.000	0.074	0.228
-739.083	-160.972	0.151	0.008
-738.069	53.572	-0.133	-0.129
-737.054	-27.009	-0.036	0.021
-736.039	-89.618	0.123	-0.036
-735.025	153.732	0.183	0.253
-734.010	16.566	-0.279	0.222
-732.996	188.511	-0.252	0.381
-731.981	-18.488	0.229	-0.144
-730.966	378.773	-0.071	0.146
-729.952	-15.874	0.025	-0.016
-728.937	264.565	-0.216	-0.380
-727.923	800.000	0.025	-0.081
-726.908	28.403	-0.201	-0.172
-725.894	195.145	-0.018	-0.027
-724.879	-104.041	-0.399	-0.094
-723.864	-178.803	0.204	0.005
-722.850	-200.000	-0.023	0.176
-721.835	800.000	0.126	0.440
-720.821	401.995	-0.116	0.245
-719.806	-200.000	0.056	0.288
-718.791	-146.419	-0.325	0.029
-717.777	800.000	0.043	-0.185
-716.762	16.863	0.107	-0.085
-715.748	-200.000	-0.038	-0.185
-714.733	-45.215	0.293	0.147
-713.718	64.283	-0.179	-0.182
-712.704	-46.743	-0.425	-0.210
-711.689	-42.639	0.271	-0.139
-710.675	-124.641	-0.449	0.070
-709.660	66.619	-0.132	0.136
-708.645	-31.570	-0.156	-0.088
-707.631	800.000	0.086	-0.314
-706.616	-127.013	-0.283	-0.042
-705.602	800.000	0.107	0.415
-704.587	-200.000	-0.052	0.326
-703.572	99.846	0.083	0.097
-702.558	184.477	0.032	-0.048
-701.543	-178.938	0.531	0.012
-700.529	-67.071	-0.099	-0.040
-699.514	228.713	-0.269	0.442
-698.499	280.016	-0.068	0.122
-697.485	-167.099	0.317	0.013
-696.470	-200.000	-0.002	-0.130
-695.456	-14.653	-0.193	-0.125
-694.441	-88.043	-0.390	0.118
-693.426	-86.144	-0.228	-0.071
-692.412	-62.734	0.160	0.067
-691.397	-200.000	-0.035	0.246
-690.383	581.250	-0.045	0.112
-689.368	-30.338	0.381	-0.218
-688.354	143.507	-0.154	-0.207
-687.339	-200.000	0.012	0.077
-686.324	-200.000	0.019	-0.269
-685.310	800.000	-0.040	-0.158
-684.295	301.771	0.138	0.258
-683.281	378.520	0.027	-0.055
-682.266	-25.636	0.024	-0.014
-681.251	-53.503	-0.121	0.056
-680.237	800.000	0.074	-0.248
-679.222	-200.000	-0.002	-0.101
-678.208	310.883	-0.099	-0.187
-677.193	800.000	-0.062	-0.260
-676.178	13.202	0.068	-0.053
-675.164	-87.254	-0.176	0.054
-674.149	800.000	0.028	0.113
-673.135	-200.000	0.004	0.021
-672.120	-51.451	0.116	-0.055
-671.105	-200.000	-0.001	0.075
-670.091	-19.325	0.067	-0.042
-669.076	97.517	-0.212	-0.245
-668.062	-200.000	-0.069	-0.525
-667.047	51.454	0.248	0.237
-666.032	-31.049	0.330	0.187
-665.018	-8.691	0.394	0.266
-664.003	25.312	0.339	-0.284
-662.989	-113.709	-0.161	-0.032
-661.974	-110.687	-0.116	0.024
-660.959	167.912	-0.058	-0.083
-659.945	21.790	-0.324	-0.266
-658.930	49.135	0.196	-0.185
-657.916	-38.845	-0.148	-0.079
-656.901	-200.000	-0.028	0.549
-655.886	-122.717	0.168	0.027
-654.872	-59.828	0.091	-0.039
-653.857	46.448	-0.164	0.153
-652.843	341.747	-0.112	-0.220
-651.828	-7.220	0.125	0.086
-650.814	-94.292	0.188	-0.052
-649.799	-59.891	0.034	-0.015
-648.784	-98.572	-0.183	0.047
-647.770	-200.000	-0.073	-0.412
-646.755	-200.000	-0.070	-0.359
-645.741	-77.075	0.268	-0.094
-644.726	115.866	0.119	0.147
-643.711	-200.000	0.011	-0.249
-642.697	531.416	-0.067	0.159
-641.682	42.804	-0.088	0.080
-640.668	-48.349	-0.114	0.055
-639.653	-105.985	-0.118	-0.027
-638.638	-91.925	0.256	-0.073
-637.624	307.937	0.073	0.137
-636.609	18.900	-0.076	-0.061
-635.595	374.578	-0.054	0.111
-634.580	-200.000	0.011	-0.187
-633.565	139.498	0.134	-0.178
-632.551	42.157	0.136	-0.124
-631.536	-200.000	-0.012	-0.204
-630.522	-200.000	-0.014	-0.136
-629.507	800.000	0.024	-0.102
-628.492	39.802	-0.353	-0.319
-627.478	-200.000	-0.026	0.143
-626.463	-200.000	0.002	0.190
-625.449	1.868	-0.129	0.094
-624.434	800.000	-0.007	-0.028
-623.419	-119.483	-0.168	-0.029
-622.405	-58.713	-0.020	0.009
-621.390	-75.902	-0.090	-0.032
-620.376	-200.000	-0.023	-0.109
-619.361	116.981	-0.228	0.281
-618.346	461.152	-0.166	-0.371
-617.332	36.259	0.065	0.058
-616.317	-124.894	-0.274	0.042
-615.303	-88.636	0.199	0.059
-614.288	-200.000	-0.005	0.147
-613.273	60.269	0.122	-0.121
-612.259	800.000	-0.031	0.114
-611.244	800.000	0.015	-0.061
-610.230	65.795	-0.211	-0.215
-609.215	148.817	-0.144	-0.196
-608.201	-200.000	-0.005	0.093
-607.186	42.584	0.086	-0.079
-606.171	-200.000	-0.038	0.377
-605.157	-200.000	0.018	0.231
-604.142	-142.445	-0.432	0.043
-603.128	800.000	0.038	-0.113
-602.113	-26.209	-0.100	0.059
-601.098	275.679	-0.133	0.237
-600.084	-72.395	0.120	0.045
-599.069	86.159	-0.154	-0.170
-598.055	-72.224	0.105	0.039
-597.040	-200.000	-0.015	0.078
-596.025	-200.000	0.001	-0.247
-595.011	-28.558	0.064	0.037
-593.996	251.355	0.131	0.223
-592.982	-86.692	0.027	0.008
-591.967	490.009	-0.190	-0.437
-590.952	-54.715	0.268	-0.121
-589.938	-165.229	-0.096	0.004
-588.923	-200.000	-0.028	0.184
-587.909	-122.508	-0.527	0.086
-586.894	-200.000	0.022	0.162
-585.879	-171.101	-0.386	-0.013
-584.865	-88.199	-0.322	0.097
-583.850	352.292	0.109	0.218
-582.836	-200.000	-0.052	0.324
-581.821	-200.000	-0.014	-0.317
-580.806	-111.058	-0.032	-0.007
-579.792	65.118	-0.221	0.224
-578.777	800.000	-0.048	0.202
-577.763	-119.067	0.302	-0.053
-576.748	-200.000	0.039	0.361
-575.733	-176.962	-0.162	0.004
-574.719	800.000	0.120	-0.334
-573.704	800.000	0.028	-0.099
-572.690	127.705	-0.162	-0.207
-571.675	38.088	-0.122	-0.108
-570.661	-110.481	0.068	0.014
-569.646	26.978	-0.203	0.171
-568.631	-91.073	0.291	-0.084
-567.617	-68.995	-0.325	-0.126
-566.602	393.510	-0.096	-0.200
-565.588	-191.704	-0.097	0.001
-564.573	258.073	-0.090	0.156
-563.558	-125.837	-0.157	0.024
-562.544	182.127	0.118	-0.175
-561.529	-98.997	0.063	0.016
-560.515	-200.000	0.009	-0.139
-559.500	418.623	-0.025	-0.055
-558.485	12.284	0.204	0.157
-557.471	143.479	0.048	0.064
-556.456	-109.360	0.420	0.089
-555.442	175.601	-0.110	0.160
-554.427	-63.184	0.209	0.087
-553.412	-94.493	0.098	0.027
-552.398	131.226	-0.152	0.195
-551.383	112.780	0.265	0.321
-550.369	763.872	-0.048	-0.130
-549.354	338.336	-0.122	-0.238
-548.339	-200.000	0.079	0.433
-547.325	9.594	0.209	0.159
-546.310	-115.954	0.072	-0.013
-545.296	309.856	-0.203	-0.381
-544.281	-4.845	-0.345	-0.239
-543.266	800.000	0.049	-0.143
-542.252	-108.802	-0.064	-0.014
-541.237	4.067	0.180	-0.132
-540.223	800.000	-0.130	-0.472
-539.208	-200.000	0.035	-0.317
-538.193	120.077	0.132	0.164
-537.179	-200.000	0.014	0.282
-536.164	-200.000	-0.043	0.195
-535.150	-7.187	-0.451	-0.306
-534.135	-4.672	0.105	-0.072
-533.121	-101.996	-0.073	-0.018
-532.106	31.403	0.241	-0.207
-531.091	-121.877	-0.180	0.030
-530.077	-105.155	0.083	0.019
-529.062	800.000	-0.052	-0.212
-528.048	-77.927	0.156	-0.054
-527.033	377.583	0.114	0.233
-526.018	-200.000	0.003	0.079
-525.004	-200.000	0.000	0.169
-523.989	123.892	-0.120	0.151
-522.975	85.661	0.159	0.175
-521.960	-97.482	0.129	0.034
-520.945	719.729	0.038	-0.100
-519.931	748.974	-0.113	-0.306
-518.916	56.875	-0.078	-0.076
-517.902	146.374	0.069	0.092
-516.887	-85.167	-0.034	0.011
-515.872	326.581	0.169	-0.325
-514.858	-23.468	0.167	0.100
-513.843	-55.338	-0.209	-0.094
-512.829	-200.000	0.032	-0.543
-511.814	-200.000	0.009	0.270
-510.799	-122.245	0.179	-0.029
-509.785	-170.685	0.133	0.005
-508.770	-49.313	0.052	-0.025
-507.756	-8.990	-0.156	-0.105
-506.741	161.865	-0.182	0.256
-505.726	-200.000	-0.001	-0.203
-504.712	-200.000	-0.048	-0.464
-503.697	308.816	0.034	-0.063
-502.683	-137.869	0.282	-0.032
-501.668	-120.224	-0.490	0.084
-500.653	699.616	0.031	-0.082
-499.639	39.312	0.179	0.161
-498.624	-38.872	-0.228	-0.120
-497.610	315.537	0.134	0.252
-496.595	130.689	0.090	0.116
-495.581	-47.165	-0.443	0.216
-494.566	794.064	-0.024	-0.066
-493.551	-200.000	0.024	0.131
-492.537	800.000	0.053	0.229
-491.522	144.614	-0.144	0.192
-490.508	-58.299	0.178	-0.078
-489.493	800.000	0.075	-0.244
-488.478	45.724	0.157	-0.145
-487.464	-44.275	-0.063	-0.032
-486.449	-39.415	-0.292	0.153
-485.435	-60.853	-0.403	-0.171
-484.420	45.862	0.095	-0.088
-483.405	206.162	-0.094	0.146
-482.391	800.000	-0.102	0.391
-481.376	166.625	-0.142	-0.202
-480.362	-131.135	-0.186	0.025
-479.347	-58.865	0.169	-0.073
-478.332	-78.592	0.208	-0.071
-477.318	-107.475	-0.305	0.067
-476.303	-200.000	-0.030	0.269
-475.289	-200.000	-0.033	0.158
-474.274	800.000	0.102	-0.348
-473.259	15.460	0.161	0.127
-472.245	-200.000	-0.026	0.127
-471.230	1.059	-0.122	-0.088
-470.216	800.000	0.071	0.198
-469.201	-63.283	-0.067	0.028
-468.186	799.845	0.081	0.223
-467.172	-31.015	0.138	0.078
-466.157	-200.000	0.009	0.073
-465.143	508.531	0.091	0.211
-464.128	800.000	0.096	0.273
-463.113	-75.509	-0.350	0.124
-462.099	-41.964	-0.061	0.031
-461.084	-116.832	-0.392	0.072
-460.070	-200.000	-0.049	0.218
-459.055	106.565	0.232	0.274
-458.040	41.999	-0.304	0.276
-457.026	800.000	0.099	-0.304
-456.011	-200.000	0.017	0.085
-454.997	-4.086	0.115	0.079
-453.982	-149.591	0.304	0.024
-452.968	-200.000	-0.038	-0.314
-451.953	39.763	-0.118	-0.106
-450.938	-70.061	-0.107	-0.041
-449.924	795.419	-0.054	-0.150
-448.909	-38.379	-0.044	0.023
-447.895	-102.380	-0.315	-0.075
-446.880	311.154	-0.219	-0.410
-445.865	-200.000	0.006	-0.231
-444.851	98.497	0.085	-0.098
-443.836	543.925	-0.021	-0.050
-442.822	800.000	0.052	-0.170
-441.807	-200.000	0.052	-0.275
-440.792	-25.632	0.175	0.103
-439.778	122.375	0.143	-0.179
-438.763	-200.000	0.039	0.269
-437.749	-200.000	-0.055	-0.330
-436.734	-115.802	0.276	-0.052
-435.719	-91.020	0.327	-0.094
-434.705	-80.470	-0.203	-0.068
-433.690	501.703	0.054	-0.124
-432.676	-87.331	0.235	-0.071
-431.661	-1.074	-0.186	0.131
-430.646	-130.690	0.265	0.036
-429.632	68.091	0.236	-0.241
-428.617	491.557	-0.117	0.268
-427.603	74.223	-0.175	0.183
-426.588	-162.709	0.149	-0.007
-425.573	58.656	-0.204	-0.200
-424.559	-28.707	-0.088	0.050
-423.544	-105.960	-0.246	-0.055
-422.530	179.551	-0.114	0.166
-421.515	-178.161	0.419	-0.010
-420.500	-23.678	-0.362	-0.216
-419.486	105.025	0.190	0.223
-418.471	-164.624	-0.230	0.010
-417.457	279.104	0.103	0.184
-416.442	-200.000	0.029	0.161
-415.428	-168.038	0.299	-0.012
-414.413	101.315	-0.300	-0.349
-413.398	-103.507	-0.318	0.075
-412.384	800.000	-0.073	0.286
-411.369	-200.000	0.010	0.295
-410.355	-49.628	-0.038	-0.018
-409.340	-200.000	-0.022	0.095
-408.325	125.648	0.039	0.049
-407.311	-61.159	0.440	-0.185
-406.296	-18.159	-0.082	-0.051
-405.282	612.897	-0.126	-0.314
-404.267	22.395	-0.176	-0.144
-403.252	278.973	-0.120	-0.214
-402.238	114.509	-0.130	0.157
-401.223	800.000	-0.022	0.088
-400.209	33.460	-0.097	0.084
-399.194	17.846	-0.142	0.113
-398.179	-90.841	0.454	-0.130
-397.165	-200.000	-0.045	0.290
-396.150	800.000	0.070	0.301
-395.136	-32.140	-0.150	0.084
-394.121	255.526	0.089	-0.152
-393.106	-200.000	0.054	-0.391
-392.092	58.751	-0.044	0.043
-391.077	-200.000	0.091	0.513
-390.063	-6.311	0.275	0.187
-389.048	119.853	0.214	0.265
-388.033	38.089	-0.175	-0.155
-387.019	800.000	-0.053	0.183
-386.004	326.456	-0.121	0.231
-384.990	-156.972	0.184	-0.011
-383.975	-117.256	-0.094	-0.017
-382.960	112.661	0.130	0.156
-381.946	31.647	-0.147	0.126
-380.931	-153.338	-0.249	-0.017
-379.917	-141.844	0.173	0.017
-378.902	279.921	0.075	0.134
-377.888	800.000	0.056	0.178
-376.873	-63.487	0.243	-0.100
-375.858	10.241	0.119	-0.090
-374.844	93.042	0.179	-0.201
-373.829	-200.000	0.003	0.300
-372.815	-200.000	-0.005	0.196
-371.800	480.828	-0.080	0.180
-370.785	592.111	-0.090	0.221
-369.771	-200.000	-0.016	-0.126
-368.756	46.384	-0.123	-0.114
-367.742	-200.000	-0.014	0.124
-366.727	-62.801	0.288	-0.119
-365.712	33.470	0.090	0.078
-364.698	-36.902	-0.039	0.021
-363.683	-95.075	0.217	-0.058
-362.669	61.150	0.256	0.253
-361.654	800.000	-0.074	0.306
-360.639	800.000	-0.040	0.150
-359.625	403.764	-0.106	0.222
-358.610	79.207	-0.099	-0.106
-357.596	-200.000	0.034	-0.172
-356.581	-129.941	-0.286	-0.039
-355.566	-134.343	-0.226	0.028
-354.552	800.000	0.026	-0.107
-353.537	800.000	-0.017	-0.064
-352.523	41.207	0.083	-0.074
-351.508	181.003	-0.062	-0.091
-350.493	21.291	0.222	-0.179
-349.479	-11.549	0.132	0.086
-348.464	363.841	-0.117	0.233
-347.450	-98.804	-0.128	0.033
-346.435	94.300	0.121	0.136
-345.420	91.242	0.212	0.236
-344.406	37.761	0.107	0.095
-343.391	-105.279	0.252	0.057
-342.377	-43.546	0.094	0.047
-341.362	177.934	-0.197	-0.286
-340.348	-112.823	-0.149	-0.029
-339.333	-4.857	0.219	-0.150
-338.318	-22.286	-0.016	-0.009
-337.304	45.600	0.369	-0.339
-336.289	2.523	-0.121	0.087
-335.275	329.085	0.116	0.222
-334.260	-140.929	0.324	0.033
-333.245	112.880	-0.060	-0.072
-332.231	-172.353	0.532	-0.017
-331.216	-49.171	0.108	0.051
-330.202	-34.110	0.106	0.058
-329.187	-92.299	0.046	-0.013
-328.172	31.943	-0.360	0.309
-327.158	47.666	-0.231	-0.214
-326.143	7.360	0.088	0.065
-325.129	-200.000	-0.046	0.339
-324.114	119.299	0.075	-0.092
-323.099	146.433	0.166	0.221
-322.085	-37.239	-0.158	-0.084
-321.070	5.306	-0.098	-0.072
-320.056	38.696	0.261	0.231
-319.041	800.000	-0.078	-0.277
-318.026	-56.949	0.285	-0.125
-317.012	593.097	-0.089	-0.218
-315.997	1.386	0.324	-0.231
-314.983	-143.471	-0.241	-0.023
-313.968	-31.317	-0.212	0.118
-312.953	21.946	-0.097	0.079
-311.939	160.198	-0.273	-0.377
-310.924	-39.737	0.173	0.090
-309.910	-70.589	-0.272	-0.102
-308.895	18.464	0.037	0.030
-307.880	-46.996	0.043	-0.021
-306.866	-200.000	0.011	-0.145
-305.851	-200.000	-0.037	0.188
-304.837	-144.292	0.333	-0.031
-303.822	-93.877	0.384	-0.105
-302.807	-149.633	0.135	-0.011
-301.793	33.584	-0.270	-0.233
-300.778	-96.899	-0.238	-0.062
-299.764	800.000	0.065	0.230
-298.749	303.678	0.024	0.044
-297.735	-156.046	-0.271	-0.017
-296.720	464.546	0.049	0.110
-295.705	-150.884	0.167	-0.013
-294.691	56.601	-0.105	0.101
-293.676	115.282	-0.138	0.167
-292.662	-41.382	-0.272	0.139
-291.647	768.075	0.130	-0.351
-290.632	-92.423	0.413	0.115
-289.618	-200.000	0.059	-0.404
-288.603	-51.873	0.177	0.082
-287.589	26.543	-0.140	-0.116
-286.574	800.000	-0.075	-0.296
-285.559	-200.000	0.005	0.351
-284.545	-0.707	-0.111	0.078
-283.530	-27.491	-0.308	0.177
-282.516	-14.738	0.140	-0.089
-281.501	699.994	-0.108	-0.283
-280.486	-131.615	0.071	-0.009
-279.472	28.669	0.175	-0.147
-278.457	517.637	-0.110	-0.255
-277.443	-200.000	0.009	0.125
-276.428	390.309	-0.114	-0.235
-275.413	800.000	-0.168	-0.475
-274.399	642.174	0.123	-0.311
-273.384	800.000	0.060	0.242
-272.370	89.859	-0.037	-0.041
-271.355	-59.906	0.025	0.011
-270.340	114.641	0.120	0.145
-269.326	-200.000	-0.055	0.252
-268.311	720.862	0.054	0.143
-267.297	-56.198	-0.144	0.064
-266.282	800.000	-0.135	0.403
-265.267	61.575	-0.031	-0.031
-264.253	35.059	0.073	-0.063
-263.238	247.958	0.175	-0.293
-262.224	194.976	-0.076	-0.114
-261.209	116.227	0.018	0.022
-260.195	177.824	-0.041	0.060
-259.180	-161.893	0.090	0.005
-258.165	-200.000	0.037	-0.172
-257.151	-4.412	0.150	0.103
-256.136	-200.000	0.053	0.236
-255.122	-118.893	-0.096	-0.017
-254.107	26.162	-0.108	0.089
-253.092	139.480	0.115	0.149
-252.078	401.108	-0.137	-0.286
-251.063	66.085	0.023	-0.023
-250.049	800.000	0.101	0.429
-249.034	408.618	0.153	0.320
-248.019	93.578	-0.194	0.217
-247.005	800.000	-0.091	-0.271
-245.990	-200.000	-0.036	0.170
-244.976	800.000	-0.085	0.243
-243.961	78.363	-0.207	0.219
-242.946	800.000	0.065	-0.197
-241.932	-200.000	0.007	-0.135
-240.917	-137.805	-0.106	-0.012
-239.903	800.000	0.076	-0.325
-238.888	-200.000	0.039	-0.190
-237.873	168.903	-0.097	0.137
-236.859	95.317	0.132	0.148
-235.844	-200.000	-0.011	-0.086
-234.830	-165.983	-0.114	0.005
-233.815	-200.000	-0.042	-0.411
-232.800	-22.301	0.154	-0.092
-231.786	85.007	-0.252	-0.274
-230.771	-75.853	0.233	0.082
-229.757	14.067	-0.250	0.193
-228.742	447.596	0.062	0.134
-227.727	800.000	0.064	-0.244
-226.713	558.688	0.089	0.214
-225.698	-200.000	-0.030	-0.132
-224.684	-111.945	-0.179	-0.036
-223.669	191.864	-0.175	-0.261
-222.655	-63.186	-0.095	0.039
-221.640	-128.424	0.110	0.015
-220.625	159.076	-0.110	0.151
-219.611	543.842	0.119	0.281
-218.596	-200.000	-0.042	0.342
-217.582	-138.013	0.013	0.001
-216.567	81.937	0.155	0.166
-215.552	-88.615	0.303	0.089
-214.538	328.969	0.046	0.088
-213.523	242.970	0.136	-0.225
-212.509	597.535	-0.067	-0.165
-211.494	564.285	-0.070	0.168
-210.479	-118.025	0.262	0.046
-209.465	719.577	0.081	-0.212
-208.450	-120.830	-0.182	0.030
-207.436	800.000	-0.068	0.221
-206.421	-58.867	0.187	0.080
-205.406	800.000	0.023	0.085
-204.392	302.789	0.113	-0.207
-203.377	-55.132	-0.084	0.037
-202.363	197.677	0.108	0.163
-201.348	213.351	-0.049	0.077
-200.333	-200.000	-0.048	-0.329
-199.319	-68.134	0.128	-0.049
-198.304	-102.339	0.239	-0.057
-197.290	800.000	0.030	0.094
-196.275	194.707	-0.126	0.189
-195.260	-125.298	0.139	0.021
-194.246	-121.105	-0.137	-0.023
-193.231	800.000	-0.084	-0.345
-192.217	-0.530	0.348	-0.244
-191.202	16.542	0.198	0.155
-190.187	-200.000	-0.034	0.201
-189.173	149.115	0.151	0.203
-188.158	-200.000	0.002	-0.158
-187.144	181.509	-0.039	-0.057
-186.129	-79.545	-0.262	0.088
-185.114	-127.772	-0.125	-0.018
-184.100	580.039	-0.099	0.239
-183.085	-49.922	-0.043	-0.020
-182.071	-111.003	0.280	-0.057
-181.056	638.158	-0.138	-0.345
-180.042	105.429	0.138	0.162
-179.027	-200.000	-0.022	-0.107
-178.012	-100.545	0.237	0.058
-176.998	800.000	-0.039	-0.116
-175.983	-110.722	-0.136	0.028
-174.969	515.322	0.080	-0.186
-173.954	-200.000	-0.000	-0.343
-172.939	542.784	0.063	-0.149
-171.925	189.272	0.182	-0.269
-170.910	195.453	0.108	-0.162
-169.896	-200.000	0.038	-0.290
-168.881	-123.664	0.209	0.033
-167.866	222.266	0.063	0.100
-166.852	800.000	0.034	-0.107
-165.837	-61.389	0.203	0.084
-164.823	-151.723	0.135	0.010
-163.808	800.000	-0.034	-0.101
-162.793	-84.825	0.349	0.108
-161.779	791.540	-0.119	0.324
-160.764	-131.105	0.419	-0.055
-159.750	47.366	-0.226	-0.208
-158.735	-200.000	-0.047	0.261
-157.720	800.000	0.018	0.077
-156.706	50.405	-0.162	-0.151
-155.691	-200.000	-0.069	0.400
-154.677	-200.000	0.024	-0.128
-153.662	-121.129	-0.176	-0.029
-152.647	119.837	-0.068	0.084
-151.633	69.223	0.156	-0.158
-150.618	-200.000	-0.033	0.289
-149.604	-200.000	0.021	0.227
-148.589	-200.000	0.079	-0.479
-147.574	-93.492	0.433	-0.118
-146.560	70.241	-0.185	-0.189
-145.545	-200.000	-0.006	-0.139
-144.531	133.353	-0.105	0.134
-143.516	-94.711	-0.223	0.060
-142.502	-108.275	0.207	0.044
-141.487	800.000	-0.035	0.124
-140.472	-200.000	-0.026	0.221
-139.458	136.349	-0.115	-0.147
-138.443	92.268	0.115	-0.127
-137.429	6.412	0.183	0.134
-136.414	769.742	-0.034	0.091
-135.399	-66.482	0.064	-0.025
-134.385	-156.160	-0.327	-0.020
-133.370	78.755	-0.054	-0.057
-132.356	85.643	0.051	0.056
-131.341	-48.383	0.306	-0.146
-130.326	-200.000	0.005	0.300
-129.312	-200.000	-0.006	0.412
-128.297	215.160	-0.135	0.212
-127.283	-21.727	-0.043	0.026
-126.268	76.061	-0.072	-0.075
-125.253	65.828	0.293	0.292
-124.239	800.000	-0.102	-0.322
-123.224	51.875	-0.263	-0.247
-122.210	-200.000	0.017	-0.109
-121.195	-136.520	-0.195	-0.022
-120.180	-72.566	0.109	-0.040
-119.166	-42.035	0.070	-0.035
-118.151	-200.000	-0.007	0.199
-117.137	131.166	0.115	0.146
-116.122	172.947	0.006	0.009
-115.107	-37.363	0.125	-0.066
-114.093	800.000	-0.048	-0.181
-113.078	-131.684	0.344	0.044
-112.064	-30.042	0.524	0.294
-111.049	-77.898	-0.045	-0.015
-110.034	285.915	-0.087	0.154
-109.020	223.912	-0.080	0.127
-108.005	-200.000	-0.031	-0.187
-106.991	-200.000	0.015	0.593
-105.976	663.209	-0.098	0.249
-104.962	5.907	0.199	0.145
-103.947	51.406	-0.298	0.279
-102.932	800.000	0.145	0.463
-101.918	438.107	-0.042	0.090
-100.903	-83.278	0.201	0.063
-99.889	-155.222	0.144	-0.009
-98.874	-200.000	0.108	-0.474
-97.859	-200.000	-0.041	0.244
-96.845	800.000	0.071	0.281
-95.830	3.295	-0.174	-0.124
-94.816	-134.308	-0.215	0.026
-93.801	-82.073	0.090	-0.029
-92.786	21.337	0.272	0.218
-91.772	-200.000	0.016	0.199
-90.757	800.000	-0.066	0.231
-89.743	254.972	0.278	0.469
-88.728	34.365	0.164	0.141
-87.713	60.619	0.193	0.188
-86.699	22.149	-0.074	-0.059
-85.684	-81.231	0.621	0.202
-84.670	-200.000	-0.007	-0.143
-83.655	-28.346	-0.299	0.170
-82.640	205.747	-0.213	-0.326
-81.626	800.000	0.048	0.147
-80.611	2.204	-0.139	0.099
-79.597	193.845	-0.095	0.141
-78.582	-83.396	0.328	0.103
-77.567	90.034	-0.071	0.078
-76.553	24.383	-0.207	0.168
-75.538	102.778	0.083	0.096
-74.524	134.605	0.281	0.359
-73.509	-200.000	0.007	-0.228
-72.494	71.794	-0.195	-0.200
-71.480	56.642	0.171	0.164
-70.465	-18.288	-0.165	0.102
-69.451	-126.443	0.372	0.054
-68.436	-135.418	-0.060	-0.007
-67.422	-70.327	0.158	-0.059
-66.407	-200.000	-0.003	0.408
-65.392	10.049	0.168	0.125
-64.378	110.791	0.308	0.365
-63.363	146.834	-0.227	0.300
-62.349	367.023	-0.122	0.242
-61.334	39.635	-0.863	-0.761
-60.319	83.260	0.471	0.505
-59.305	354.831	-0.362	-0.708
-58.290	288.170	0.531	0.944
-57.276	775.908	0.571	1.534
-56.261	-200.000	96.924	604.032
-55.246	564.948	1366.732	3257.279
-54.232	162.576	2543.823	3509.043
-53.217	114.009	2132.701	2550.178
-52.203	43.796	1596.432	1437.025
-51.188	35.421	1334.706	1151.400
-50.173	32.252	1293.292	1097.168
-49.159	55.224	1340.702	1274.254
-48.144	57.049	1357.336	1300.835
-47.130	35.550	1316.049	1135.888
-46.115	32.073	1298.509	1100.369
-45.100	31.937	1293.364	1095.176
-44.086	31.846	1291.369	1092.913
-43.071	31.742	1289.269	1090.484
-42.057	31.707	1286.925	1088.253
-41.042	31.809	1285.034	1087.203
-40.027	31.852	1283.769	1086.342
-39.013	31.807	1281.437	1084.062
-37.998	31.909	1279.736	1083.170
-36.984	31.924	1278.200	1081.915
-35.969	32.013	1276.076	1080.589
-34.954	31.860	1274.775	1078.561
-33.940	32.019	1273.231	1078.123
-32.925	31.982	1272.107	1076.920
-31.911	32.051	1270.164	1075.629
-30.896	31.949	1269.001	1074.017
-29.881	31.910	1267.844	1072.771
-28.867	32.074	1266.313	1072.370
-27.852	31.963	1264.738	1070.357
-26.838	32.121	1263.140	1069.866
-25.823	32.012	1262.175	1068.383
-24.809	32.027	1260.656	1067.140
-23.794	31.930	1260.020	1066.012
-22.779	31.978	1258.226	1064.720
-21.765	32.064	1257.110	1064.224
-20.750	32.071	1255.572	1062.918
-19.736	31.940	1254.725	1061.418
-18.721	31.793	1253.720	1059.697
-17.706	31.849	1252.178	1058.663
-16.692	31.838	1250.935	1057.512
-15.677	31.893	1249.692	1056.727
-14.663	31.815	1249.199	1055.829
-13.648	31.808	1248.272	1054.967
-12.633	31.808	1246.813	1053.688
-11.619	31.793	1246.018	1052.893
-10.604	31.780	1244.994	1051.915
-9.590	31.802	1244.001	1051.156
-8.575	31.752	1242.743	1049.768
-7.560	31.819	1242.322	1049.748
-6.546	31.873	1241.345	1049.185
-5.531	31.811	1240.661	1048.218
-4.517	31.717	1239.662	1046.808
-3.502	31.759	1239.002	1046.442
-2.487	31.729	1237.783	1045.202
-1.473	31.749	1233.690	1041.817
-0.458	30.220	1219.252	1021.173
0.556	27.730	1203.243	987.057
1.571	24.907	1209.626	976.830
2.586	24.456	1225.623	987.164
3.600	24.044	1214.725	976.042
4.615	17.794	1141.380	884.716
5.629	7.352	1064.148	774.044
6.644	2.491	1043.700	735.787
7.659	2.255	1041.175	732.809
8.673	2.087	1039.831	730.994
9.688	2.057	1038.446	729.812
10.702	2.574	1037.529	731.569
11.717	9.673	1047.053	772.333
12.731	19.618	1060.989	830.601
13.746	24.347	1066.627	857.741
14.761	25.372	1068.125	863.805
15.775	25.528	1067.502	863.974
16.790	25.241	1066.566	861.763
17.804	25.179	1066.288	861.162
18.819	25.281	1065.961	861.312
19.834	25.346	1065.501	861.176
20.848	25.541	1064.825	861.485
21.863	25.532	1064.565	861.158
22.877	25.393	1063.849	859.837
23.892	25.465	1062.560	859.064
24.907	25.379	1062.493	858.522
25.921	25.458	1061.299	857.860
26.936	25.359	1059.852	856.141
27.950	25.340	1058.442	854.836
28.965	25.183	1056.949	852.810
29.980	25.321	1055.177	851.956
30.994	25.413	1054.391	851.683
32.009	25.450	1053.243	850.857
33.023	25.357	1051.879	849.239
34.038	25.420	1051.286	848.983
35.053	25.361	1050.983	848.386
36.067	25.442	1049.836	847.766
37.082	25.501	1049.239	847.486
38.096	25.745	1048.496	847.961
39.111	25.749	1047.945	847.459
40.126	25.512	1046.249	844.899
41.140	25.208	1044.619	842.081
42.155	24.942	1043.464	839.827
43.169	25.050	1042.297	839.323
44.184	25.055	1041.669	838.764
45.199	25.069	1039.979	837.396
46.213	25.082	1039.105	836.680
47.228	25.187	1038.912	836.940
48.242	25.239	1038.171	836.511
49.257	25.364	1037.151	836.196
50.271	25.460	1036.636	836.156
51.286	25.484	1035.946	835.633
52.301	25.490	1034.723	834.602
53.315	25.436	1033.950	833.656
54.330	25.355	1033.363	832.733
55.344	25.459	1032.247	832.241
56.359	25.392	1031.289	831.083
57.374	25.242	1030.410	829.608
58.388	25.142	1030.023	828.759
59.403	25.100	1028.714	827.443
60.417	25.021	1028.007	826.435
61.432	25.132	1027.324	826.323
62.447	25.212	1026.762	826.170
63.461	25.244	1025.934	825.576
64.476	25.204	1024.770	824.383
65.490	25.121	1023.908	823.236
66.505	25.162	1023.224	822.801
67.520	25.208	1022.815	822.612
68.534	24.971	1021.582	820.461
69.549	24.646	1020.606	818.113
70.563	24.804	1019.771	818.097
71.578	24.762	1018.983	817.201
72.593	24.463	1017.750	814.774
73.607	24.620	1018.173	815.756
74.622	24.817	1017.521	816.062
75.636	25.028	1016.437	816.079
76.651	24.834	1015.731	814.560
77.666	24.762	1014.916	813.507
78.680	24.798	1014.035	812.890
79.695	24.954	1013.682	813.246
80.709	25.096	1012.897	813.189
81.724	24.991	1012.049	811.959
82.739	25.051	1011.624	811.820
83.753	25.452	1010.871	812.955
84.768	25.658	1010.324	813.376
85.782	25.782	1009.733	813.389
86.797	25.669	1008.514	811.824
87.812	25.508	1007.780	810.435
88.826	25.654	1006.669	810.131
89.841	25.746	1005.924	809.871
90.855	25.783	1004.743	809.013
91.870	25.614	1004.215	807.758
92.884	25.428	1002.630	805.577
93.899	25.476	1002.119	805.313
94.914	25.796	1000.885	805.682
95.928	25.532	1000.230	803.902
96.943	25.345	998.785	801.835
97.957	24.989	997.590	799.215
98.972	24.923	996.434	797.926
99.987	25.194	995.968	798.688
101.001	25.374	995.463	799.016
102.016	25.351	994.237	797.856
103.030	25.274	993.613	796.945
104.045	25.116	992.475	795.258
105.060	25.107	991.529	794.394
106.074	25.241	991.118	794.585
107.089	25.469	990.758	795.234
108.103	25.396	989.336	793.700
109.118	25.013	988.365	791.160
110.133	25.239	987.029	791.020
111.147	25.044	985.796	789.102
112.162	24.871	985.201	787.795
113.176	25.197	984.698	788.755
114.191	25.105	983.655	787.446
115.206	24.727	983.055	785.239
116.220	24.610	982.157	783.938
117.235	24.851	981.417	784.334
118.249	24.724	980.814	783.228
119.264	24.706	979.867	782.323
120.279	24.794	979.564	782.395
121.293	24.970	978.257	782.051
122.308	24.949	977.671	781.420
123.322	24.757	976.315	779.433
124.337	24.734	974.994	778.209
125.352	24.260	973.284	774.715
126.366	24.125	973.041	773.868
127.381	24.871	973.140	777.118
128.395	25.316	972.407	778.394
129.410	25.453	971.799	778.433
130.424	25.277	970.693	776.716
131.439	25.390	969.730	776.366
132.454	25.432	968.620	775.587
133.468	25.224	967.880	774.028
134.483	25.381	967.284	774.159
135.497	25.490	966.548	773.975
136.512	25.553	965.663	773.467
137.527	25.727	964.991	773.607
138.541	25.671	964.072	772.561
139.556	25.650	963.142	771.659
140.570	25.663	962.669	771.269
141.585	25.668	961.325	770.143
142.600	25.606	960.273	768.966
143.614	25.828	960.284	769.859
144.629	26.029	959.174	769.758
145.643	25.691	958.040	767.339
146.658	25.615	956.710	765.882
147.673	25.556	955.290	764.427
148.687	25.380	954.954	763.342
149.702	25.455	953.409	762.356
150.716	25.298	952.970	761.272
151.731	25.495	952.109	761.351
152.746	25.721	951.740	761.949
153.760	25.747	951.410	761.724
154.775	25.695	951.028	761.133
155.789	25.691	950.168	760.358
156.804	25.764	949.065	759.717
157.819	25.745	948.287	758.946
158.833	25.981	947.401	759.165
159.848	26.007	946.432	758.432
160.862	25.714	945.754	756.590
161.877	25.832	944.606	756.098
162.892	25.860	943.322	755.122
163.906	25.682	942.905	753.975
164.921	25.674	941.729	752.934
165.935	25.792	940.673	752.516
166.950	25.790	939.955	751.867
167.964	25.698	939.098	750.730
168.979	25.727	937.935	749.856
169.994	25.475	937.796	748.631
171.008	25.678	937.197	748.931
172.023	25.873	935.926	748.657
173.037	25.607	935.244	746.944
174.052	25.467	934.057	745.349
175.067	25.514	933.518	745.045
176.081	25.706	932.696	745.121
177.096	25.536	932.064	743.845
178.110	25.261	931.272	742.012
179.125	25.094	930.603	740.721
180.140	25.264	929.751	740.679
181.154	25.366	929.977	741.216
182.169	25.604	929.818	742.003
183.183	25.745	929.494	742.262
184.198	25.658	928.483	741.031
185.213	25.568	927.948	740.167
186.227	25.589	927.529	739.853
187.242	25.769	926.593	739.783
188.256	25.817	926.006	739.443
189.271	25.895	924.746	738.695
190.286	25.401	924.509	736.413
191.300	24.908	922.700	732.891
192.315	24.107	921.134	728.305
193.329	24.007	920.980	727.711
194.344	25.001	921.413	732.054
195.359	25.680	920.826	734.295
196.373	25.727	920.473	734.140
197.388	25.556	920.147	733.116
198.402	25.606	919.636	732.850
199.417	25.613	918.928	732.248
200.432	25.304	918.054	730.231
201.446	25.291	917.364	729.563
202.461	25.375	916.652	729.274
203.475	24.288	914.900	723.409
204.490	23.684	913.363	719.681
205.504	24.570	914.088	723.783
206.519	25.279	913.540	726.151
207.534	25.384	913.256	726.288
208.548	25.720	913.303	727.621
209.563	25.646	911.688	725.970
210.577	25.441	911.449	724.889
211.592	25.994	910.925	726.636
212.607	25.789	910.304	725.250
213.621	25.841	909.538	724.786
214.636	25.956	908.770	724.573
215.650	25.670	908.422	723.081
216.665	25.991	907.725	723.750
217.680	25.908	907.000	722.775
218.694	25.298	906.370	719.765
219.709	25.252	905.113	718.519
220.723	25.646	904.663	719.676
221.738	25.723	903.987	719.378
222.753	25.611	903.339	718.355
223.767	25.686	903.459	718.685
224.782	25.967	903.134	719.485
225.796	25.974	902.159	718.674
226.811	25.241	900.750	714.567
227.826	24.499	899.683	710.707
228.840	24.946	899.105	711.964
229.855	25.027	898.097	711.423
230.869	24.578	897.534	709.136
231.884	24.932	897.426	710.389
232.899	25.657	897.673	713.399
233.913	25.646	896.495	712.355
234.928	25.548	895.844	711.387
235.942	25.541	895.382	710.930
236.957	25.021	895.103	708.591
237.972	25.277	894.084	708.730
238.986	25.295	893.666	708.407
240.001	25.243	893.237	707.802
241.015	25.466	892.760	708.238
242.030	25.604	892.222	708.292
243.045	25.762	891.705	708.443
244.059	25.865	891.563	708.671
245.074	25.507	890.537	706.388
246.088	25.244	889.472	704.446
247.103	25.661	888.977	705.627
248.117	26.160	889.063	707.592
249.132	26.447	888.639	708.313
250.147	26.363	888.528	707.834
251.161	26.570	888.085	708.228
252.176	26.524	887.385	707.429
253.190	26.619	886.881	707.334
254.205	26.810	886.177	707.457
255.220	26.673	885.629	706.421
256.234	26.562	884.837	705.295
257.249	26.553	883.860	704.418
258.263	26.471	883.055	703.397
259.278	26.681	882.610	703.797
260.293	26.620	882.272	703.227
261.307	26.587	881.629	702.524
262.322	26.285	880.862	700.681
263.336	25.469	878.887	695.888
264.351	24.525	876.754	690.489
265.366	24.724	876.748	691.194
266.380	25.835	877.528	696.043
267.395	26.151	877.126	696.880
268.409	26.151	876.397	696.239
269.424	26.389	875.875	696.683
270.439	26.367	875.519	696.253
271.453	26.434	874.872	695.936
272.468	26.614	874.521	696.285
273.482	26.695	873.819	695.977
274.497	26.182	872.735	693.082
275.512	25.849	871.944	691.115
276.526	26.271	872.086	692.786
277.541	26.365	871.765	692.828
278.555	26.107	870.843	691.046
279.570	26.098	869.915	690.216
280.585	26.254	869.545	690.456
281.599	26.239	868.642	689.623
282.614	25.538	867.334	685.849
283.628	25.692	867.004	686.117
284.643	26.042	867.013	687.395
285.657	25.523	865.734	684.345
286.672	25.249	865.032	682.688
287.687	25.894	864.689	684.809
288.701	26.070	863.902	684.792
289.716	25.632	863.217	682.527
290.730	25.705	862.732	682.360
291.745	25.303	861.986	680.186
292.760	25.498	861.982	680.862
293.774	26.688	861.853	685.206
294.789	26.961	861.974	686.273
295.803	26.905	861.571	685.679
296.818	26.991	860.606	685.175
297.833	26.630	859.558	682.921
298.847	26.246	859.217	681.141
299.862	26.710	858.835	682.527
300.876	26.983	858.592	683.298
301.891	26.857	857.678	682.037
302.906	26.406	856.584	679.414
303.920	26.626	856.412	680.043
304.935	26.913	856.156	680.859
305.949	26.834	855.585	680.045
306.964	26.684	855.001	678.960
307.979	26.825	854.538	679.059
308.993	27.112	854.041	679.677
310.008	27.084	853.363	678.974
311.022	26.795	852.639	677.260
312.037	26.611	852.238	676.194
313.052	26.336	851.384	674.429
314.066	25.416	849.451	669.412
315.081	25.171	848.612	667.780
316.095	25.965	849.298	671.218
317.110	26.621	849.021	673.382
318.125	25.658	847.595	668.614
319.139	24.534	845.971	663.102
320.154	24.699	845.663	663.413
321.168	25.641	846.019	667.131
322.183	26.382	846.017	669.816
323.197	26.484	845.991	670.113
324.212	26.562	845.749	670.152
325.227	26.426	845.257	669.198
326.241	26.570	844.047	668.712
327.256	26.417	843.921	667.990
328.270	26.310	843.048	666.845
329.285	26.178	842.135	665.575
330.300	25.942	841.429	664.092
331.314	26.221	841.492	665.110
332.329	26.662	841.170	666.419
333.343	26.804	840.974	666.727
334.358	26.808	840.156	666.033
335.373	26.849	840.086	666.071
336.387	27.086	839.795	666.651
337.402	27.240	840.165	667.448
338.416	27.092	839.460	666.288
339.431	27.208	838.830	666.156
340.446	27.289	838.877	666.428
341.460	27.099	838.677	665.514
342.475	27.080	837.808	664.697
343.489	27.247	837.253	664.811
344.504	27.528	836.940	665.527
345.519	27.585	837.133	665.830
346.533	27.728	836.076	665.453
347.548	27.666	835.712	664.878
348.562	27.573	835.002	663.915
349.577	27.505	834.949	663.566
350.592	27.509	834.066	662.823
351.606	27.447	833.420	662.025
352.621	27.440	832.352	661.092
353.635	27.376	831.767	660.335
354.650	26.587	830.227	656.198
355.665	25.639	828.781	651.564
356.679	26.297	828.730	653.850
357.694	26.537	828.533	654.504
358.708	26.644	827.432	653.961
359.723	27.105	827.112	655.314
360.738	27.182	827.277	655.664
361.752	27.318	826.684	655.629
362.767	27.590	826.627	656.504
363.781	27.756	826.181	656.691
364.796	27.875	825.747	656.713
365.810	27.995	825.561	656.938
366.825	27.998	825.028	656.469
367.840	27.507	824.240	654.022
368.854	27.321	823.183	652.458
369.869	27.315	822.893	652.148
370.883	27.335	822.621	651.945
371.898	27.130	822.187	650.812
372.913	27.427	821.809	651.518
373.927	27.427	821.534	651.239
374.942	27.642	820.863	651.421
375.956	27.741	820.573	651.486
376.971	27.820	819.937	651.203
377.986	28.002	819.905	651.771
379.000	27.909	819.311	650.909
380.015	27.816	818.773	650.093
381.029	27.833	818.152	649.604
382.044	27.784	817.829	649.115
383.059	27.917	817.020	648.886
384.073	27.880	816.479	648.270
385.088	27.865	815.872	647.678
386.102	27.865	814.741	646.722
387.117	27.656	814.006	645.342
388.132	27.364	813.132	643.557
389.146	26.904	812.518	641.390
390.161	27.307	812.134	642.455
391.175	27.594	812.101	643.385
392.190	27.291	811.076	641.448
393.205	25.829	809.310	634.846
394.219	24.540	807.588	628.903
395.234	24.380	807.522	628.232
396.248	26.172	808.873	635.542
397.263	27.300	809.912	640.276
398.278	27.430	809.031	639.978
399.292	26.990	808.447	637.913
400.307	27.185	807.907	638.117
401.321	27.360	807.681	638.496
402.336	27.850	807.298	639.853
403.350	27.948	807.953	640.661
404.365	28.406	807.298	641.690
405.380	28.625	807.065	642.213
406.394	28.740	806.438	642.060
407.409	28.381	806.341	640.670
408.423	28.565	805.451	640.547
409.438	28.449	805.206	639.890
410.453	28.631	804.501	639.910
411.467	28.586	804.050	639.337
412.482	28.673	803.669	639.280
413.496	28.674	803.335	638.961
414.511	28.803	802.837	638.960
415.526	28.697	802.559	638.311
416.540	28.506	802.097	637.225
417.555	28.238	801.430	635.708
418.569	28.422	800.831	635.815
419.584	28.344	800.387	635.134
420.599	28.253	799.507	634.066
421.613	112.338	1286.556	1461.049
422.628	96.948	1357.520	1461.152
