DTS Sentinel unit serial number:	SN413079Multiplexer serial number:	ORYXHardware model number:	OX4-SRSoftware version number:	ORYX F/W v4.00 Oryx Data Collector v3.7.2.0data status	okinstallation	princeton_trtdifferential loss correction	single-endedforward channel	channel 1reverse channel	N/Adate	2019/09/11time	03:20:12forward acquisition time	60.00reverse acquisition time	0.00gamma	496.2192k internal	0.2331k external	0.2331temperature offset calibration	0.9925default loss term (dB/km)	0.3790temperature slope calibration	1.0000multiplexer offset coefficient	1.0000multiplexer slope coefficient	1.0000fibre end	0.00T internal ref (°C)	29.39T ext. ref 1 (°C)	-0.28T ext. ref 2 (°C)	24.14length (m)	temperature (°C)	Stokes	anti-Stokes-747.200	-108.166	-0.144	0.031
-746.185	-119.051	-0.069	-0.012
-745.171	79.093	0.128	0.138
-744.156	354.442	0.190	0.379
-743.142	-128.677	-0.172	-0.024
-742.127	53.362	-0.224	-0.216
-741.112	-58.171	0.100	-0.044
-740.098	315.833	-0.031	-0.059
-739.083	-100.791	-0.159	0.039
-738.069	-60.888	0.135	0.057
-737.054	56.575	-0.052	-0.051
-736.039	735.069	0.076	0.206
-735.025	-147.486	0.114	-0.010
-734.010	46.064	0.066	0.062
-732.996	-200.000	-0.038	-0.343
-731.981	43.374	0.207	-0.190
-730.966	192.788	0.140	-0.212
-729.952	-200.000	0.014	-0.216
-728.937	800.000	0.050	-0.143
-727.923	800.000	0.032	-0.124
-726.908	59.240	-0.083	-0.082
-725.894	-163.206	-0.112	-0.005
-724.879	184.590	0.111	-0.166
-723.864	-200.000	0.000	-0.167
-722.850	800.000	-0.033	-0.124
-721.835	800.000	0.007	-0.032
-720.821	800.000	-0.032	0.096
-719.806	25.211	-0.014	0.011
-718.791	-162.264	-0.297	-0.015
-717.777	-109.193	0.063	-0.013
-716.762	-121.694	-0.264	-0.044
-715.748	-83.065	0.434	-0.140
-714.733	27.624	0.113	-0.095
-713.718	-51.140	-0.059	-0.028
-712.704	379.673	-0.072	-0.147
-711.689	-65.714	0.214	0.086
-710.675	151.653	0.123	-0.169
-709.660	48.174	-0.231	0.217
-708.645	-170.578	-0.223	0.008
-707.631	23.699	0.306	-0.254
-706.616	-93.546	-0.572	0.159
-705.602	759.733	0.081	0.220
-704.587	-164.667	-0.126	0.006
-703.572	-85.934	0.278	-0.086
-702.558	-47.344	0.319	-0.156
-701.543	-14.765	-0.353	0.228
-700.529	-67.050	0.218	-0.086
-699.514	-48.237	0.098	0.047
-698.499	127.453	0.058	-0.074
-697.485	-151.228	0.052	-0.004
-696.470	-73.627	-0.409	-0.150
-695.456	222.346	-0.051	0.083
-694.441	800.000	0.081	-0.224
-693.426	-200.000	-0.018	0.159
-692.412	632.752	0.093	-0.237
-691.397	-127.197	0.183	0.027
-690.383	299.572	-0.057	0.105
-689.368	-108.238	0.239	-0.052
-688.354	458.263	-0.032	-0.072
-687.339	-1.945	0.093	0.066
-686.324	465.945	-0.134	-0.302
-685.310	146.365	0.290	0.392
-684.295	-35.719	-0.376	-0.205
-683.281	79.799	0.182	-0.196
-682.266	202.766	0.079	0.122
-681.251	-96.930	-0.070	-0.018
-680.237	119.456	0.067	-0.083
-679.222	254.168	0.173	0.297
-678.208	254.976	0.182	0.313
-677.193	682.333	0.037	-0.096
-676.178	800.000	-0.019	-0.063
-675.164	-200.000	-0.016	-0.181
-674.149	-14.883	0.084	-0.054
-673.135	-143.535	0.258	-0.025
-672.120	-200.000	0.007	-0.108
-671.105	112.959	0.227	0.276
-670.091	-80.896	-0.315	0.105
-669.076	800.000	-0.058	-0.234
-668.062	-200.000	-0.062	0.326
-667.047	-74.061	-0.454	0.165
-666.032	4.222	0.296	-0.217
-665.018	-200.000	-0.010	-0.210
-664.003	124.180	-0.163	0.206
-662.989	458.861	0.152	0.340
-661.974	-129.807	0.146	-0.020
-660.959	11.710	-0.170	-0.131
-659.945	37.723	-0.079	-0.071
-658.930	175.405	0.120	0.175
-657.916	506.179	0.021	-0.049
-656.901	-200.000	0.050	-0.372
-655.886	-30.308	0.424	0.241
-654.872	496.940	0.029	0.066
-653.857	579.282	0.016	0.039
-652.843	-72.394	-0.184	0.068
-651.828	-200.000	-0.045	-0.210
-650.814	-98.939	-0.225	0.057
-649.799	11.780	0.086	-0.066
-648.784	-174.315	-0.304	-0.009
-647.770	-114.054	-0.149	0.029
-646.755	151.646	-0.203	-0.278
-645.741	71.330	0.163	-0.170
-644.726	48.855	-0.111	0.104
-643.711	-113.599	-0.384	0.075
-642.697	-1.096	0.084	-0.060
-641.682	800.000	-0.049	0.184
-640.668	199.916	0.024	0.037
-639.653	167.691	0.071	-0.101
-638.638	800.000	-0.174	0.534
-637.624	131.862	-0.287	0.370
-636.609	8.789	0.295	0.223
-635.595	746.245	-0.113	-0.305
-634.580	800.000	0.080	-0.296
-633.565	-174.209	-0.231	-0.007
-632.551	382.646	-0.018	0.036
-631.536	-200.000	-0.039	-0.183
-630.522	-103.779	0.174	-0.041
-629.507	-99.744	-0.327	-0.082
-628.492	800.000	-0.034	0.111
-627.478	248.543	0.106	0.179
-626.463	-24.519	0.343	-0.205
-625.449	26.536	0.114	-0.096
-624.434	-134.591	-0.159	0.019
-623.419	-200.000	-0.052	-0.354
-622.405	220.940	-0.110	0.176
-621.390	-135.089	0.163	-0.020
-620.376	-44.966	0.242	0.121
-619.361	493.104	0.010	-0.023
-618.346	-113.226	-0.276	0.054
-617.332	299.787	-0.052	0.096
-616.317	-61.722	-0.042	-0.017
-615.303	-121.548	0.216	0.036
-614.288	271.548	0.051	-0.090
-613.273	82.746	0.122	0.133
-612.259	95.280	-0.075	-0.086
-611.244	800.000	0.110	0.365
-610.230	-138.265	0.080	-0.009
-609.215	-61.327	-0.347	-0.146
-608.201	308.510	0.060	0.112
-607.186	178.410	0.262	0.383
-606.171	231.198	-0.046	0.075
-605.157	-57.721	-0.110	0.048
-604.142	367.438	0.041	-0.083
-603.128	-200.000	-0.018	-0.156
-602.113	-134.585	0.138	0.017
-601.098	-170.981	-0.011	0.000
-600.084	500.259	-0.114	0.263
-599.069	-20.660	-0.206	-0.126
-598.055	-108.836	-0.208	0.045
-597.040	800.000	0.052	-0.150
-596.025	756.190	-0.131	-0.354
-595.011	-200.000	-0.023	-0.198
-593.996	184.683	-0.243	-0.360
-592.982	21.846	-0.111	0.091
-591.967	-200.000	0.018	0.365
-590.952	-200.000	0.039	0.236
-589.938	328.207	0.056	0.108
-588.923	-87.364	-0.145	0.044
-587.909	-200.000	-0.006	0.243
-586.894	466.909	-0.035	-0.079
-585.879	424.405	-0.129	-0.278
-584.865	42.307	0.047	-0.043
-583.850	130.704	0.056	0.072
-582.836	-130.082	-0.104	-0.014
-581.821	-2.202	-0.045	0.032
-580.806	-56.808	0.277	0.122
-579.792	-118.929	0.186	-0.033
-578.777	270.672	0.092	-0.161
-577.763	-9.841	0.266	-0.177
-576.748	-200.000	-0.053	-0.285
-575.733	-200.000	0.021	-0.265
-574.719	800.000	0.064	-0.244
-573.704	-104.373	0.036	-0.008
-572.690	-200.000	-0.006	0.046
-571.675	-16.560	0.200	0.127
-570.661	266.969	0.100	-0.175
-569.646	-171.605	0.159	-0.005
-568.631	536.456	-0.116	-0.275
-567.617	-200.000	0.024	0.195
-566.602	450.967	0.100	0.220
-565.588	-113.151	0.091	-0.018
-564.573	38.427	-0.066	-0.059
-563.558	72.699	0.035	-0.037
-562.544	-200.000	-0.020	-0.134
-561.529	-91.857	0.474	-0.134
-560.515	-39.000	0.197	-0.104
-559.500	83.685	-0.404	-0.441
-558.485	-178.475	-0.298	0.007
-557.471	800.000	0.020	0.065
-556.456	36.410	-0.154	0.136
-555.442	-43.114	-0.124	0.063
-554.427	800.000	0.051	0.167
-553.412	-95.425	0.293	-0.079
-552.398	11.177	0.268	0.205
-551.383	28.342	-0.326	0.276
-550.369	-4.800	0.386	0.266
-549.354	14.410	0.130	-0.102
-548.339	178.244	-0.098	-0.143
-547.325	-200.000	0.030	0.208
-546.310	-124.050	-0.362	0.057
-545.296	-79.957	-0.156	-0.052
-544.281	800.000	0.072	0.282
-543.266	800.000	-0.027	-0.114
-542.252	225.457	0.093	-0.151
-541.237	-21.758	0.104	0.063
-540.223	-92.935	-0.365	0.102
-539.208	-200.000	0.049	-0.445
-538.193	171.367	-0.103	-0.148
-537.179	155.205	0.091	-0.126
-536.164	-31.800	-0.276	-0.154
-535.150	-200.000	0.018	-0.202
-534.135	-16.979	-0.232	-0.146
-533.121	-200.000	0.021	-0.261
-532.106	103.636	0.191	-0.224
-531.091	-98.640	-0.134	0.034
-530.077	-200.000	-0.013	0.268
-529.062	-5.870	-0.373	-0.255
-528.048	72.710	0.109	-0.113
-527.033	236.285	-0.154	-0.255
-526.018	-36.204	-0.135	-0.073
-525.004	-178.982	-0.261	0.006
-523.989	-50.019	-0.128	0.061
-522.975	-40.617	-0.264	-0.136
-521.960	800.000	0.081	-0.319
-520.945	-41.687	-0.321	0.165
-519.931	-25.970	-0.189	0.111
-518.916	557.721	0.078	0.188
-517.902	275.920	0.162	0.287
-516.887	165.220	-0.097	0.137
-515.872	436.691	0.067	0.146
-514.858	57.790	-0.167	-0.163
-513.843	187.627	0.061	0.091
-512.829	-150.139	-0.333	0.026
-511.814	800.000	0.034	-0.131
-510.799	-41.732	-0.196	0.100
-509.785	544.228	0.125	-0.297
-508.770	514.400	-0.099	-0.230
-507.756	502.343	0.060	0.138
-506.741	34.355	0.160	0.139
-505.726	-200.000	0.004	-0.047
-504.712	-43.854	-0.088	-0.044
-503.697	131.987	-0.075	-0.096
-502.683	-34.493	0.130	0.071
-501.668	-66.365	-0.049	0.020
-500.653	-200.000	0.009	-0.059
-499.639	220.601	-0.170	-0.272
-498.624	746.463	0.083	-0.222
-497.610	140.717	0.119	0.157
-496.595	-76.198	-0.492	-0.173
-495.581	291.591	-0.132	-0.239
-494.566	318.177	-0.070	-0.131
-493.551	180.511	-0.092	0.135
-492.537	-21.453	-0.232	0.141
-491.522	-200.000	0.017	0.187
-490.508	-22.110	-0.091	-0.055
-489.493	602.342	-0.049	0.122
-488.478	-46.202	-0.199	-0.098
-487.464	800.000	-0.003	0.012
-486.449	-200.000	-0.024	0.161
-485.435	800.000	-0.112	0.367
-484.420	-200.000	0.027	0.409
-483.405	168.659	-0.054	-0.077
-482.391	-200.000	-0.022	0.434
-481.376	291.024	0.011	-0.020
-480.362	3.315	0.087	0.063
-479.347	-137.863	-0.483	0.054
-478.332	-29.296	0.139	0.079
-477.318	82.790	0.150	0.162
-476.303	-16.663	-0.227	-0.143
-475.289	428.203	-0.153	0.330
-474.274	800.000	0.093	0.300
-473.259	-16.893	0.160	0.100
-472.245	-113.984	0.126	0.024
-471.230	800.000	0.139	0.389
-470.216	800.000	0.028	0.077
-469.201	-5.029	0.012	0.008
-468.186	153.940	0.091	-0.124
-467.172	800.000	0.057	0.190
-466.157	2.186	0.158	-0.114
-465.143	-70.284	0.360	-0.136
-464.128	800.000	-0.120	-0.348
-463.113	-200.000	0.042	0.205
-462.099	111.298	0.155	-0.186
-461.084	-124.044	0.084	0.013
-460.070	262.150	-0.088	-0.152
-459.055	-59.398	-0.049	-0.021
-458.040	215.703	-0.055	-0.087
-457.026	-7.581	0.127	0.085
-456.011	-200.000	-0.021	0.138
-454.997	-200.000	0.099	0.000
-453.982	-132.958	0.185	0.023
-452.968	706.744	0.147	-0.387
-451.953	-114.535	-0.234	-0.045
-450.938	-76.291	0.214	0.075
-449.924	-79.984	0.181	0.060
-448.909	800.000	-0.035	0.120
-447.895	-200.000	-0.009	0.155
-446.880	800.000	0.027	0.103
-445.865	800.000	-0.100	-0.287
-444.851	-27.192	0.128	-0.074
-443.836	-176.396	0.061	0.002
-442.822	15.261	-0.232	-0.181
-441.807	-93.254	0.212	0.059
-440.792	800.000	-0.037	-0.108
-439.778	535.036	-0.051	0.120
-438.763	-200.000	-0.048	-0.321
-437.749	64.741	-0.176	0.176
-436.734	-41.518	-0.267	0.136
-435.719	-178.553	-0.274	-0.006
-434.705	51.428	-0.156	-0.148
-433.690	-60.014	-0.115	-0.049
-432.676	-2.397	-0.142	0.099
-431.661	800.000	-0.048	0.136
-430.646	-116.790	0.342	-0.062
-429.632	653.530	-0.101	-0.259
-428.617	800.000	-0.109	-0.337
-427.603	-200.000	0.034	-0.215
-426.588	-101.685	0.191	0.046
-425.573	129.184	-0.151	-0.191
-424.559	-0.116	-0.156	0.111
-423.544	800.000	-0.056	0.191
-422.530	222.098	0.020	-0.032
-421.515	-95.584	-0.274	-0.073
-420.500	-98.938	0.213	0.054
-419.486	68.027	0.144	0.146
-418.471	800.000	0.020	0.074
-417.457	-12.551	-0.139	-0.090
-416.442	-73.464	-0.211	-0.076
-415.428	-140.761	0.038	0.004
-414.413	-108.663	0.341	-0.073
-413.398	175.043	0.071	-0.103
-412.384	382.982	0.172	-0.351
-411.369	70.447	-0.120	0.124
-410.355	12.347	0.169	-0.130
-409.340	546.341	-0.149	0.353
-408.325	-200.000	0.000	0.177
-407.311	478.076	-0.197	-0.444
-406.296	66.775	0.086	-0.087
-405.282	-149.083	-0.215	0.017
-404.267	18.643	0.325	-0.258
-403.252	800.000	-0.039	-0.158
-402.238	-169.417	-0.120	0.004
-401.223	136.277	0.034	0.044
-400.209	387.491	-0.128	-0.263
-399.194	61.948	0.152	0.150
-398.179	800.000	-0.047	0.176
-397.165	68.535	0.207	0.211
-396.150	-116.579	0.218	-0.040
-395.136	-111.104	-0.197	0.040
-394.121	-71.183	0.314	-0.117
-393.106	800.000	0.088	-0.356
-392.092	-48.108	-0.304	-0.146
-391.077	-62.724	0.422	0.174
-390.063	800.000	-0.068	0.193
-389.048	-134.358	-0.400	0.049
-388.033	281.317	0.179	0.318
-387.019	157.253	-0.171	0.235
-386.004	-113.187	0.282	-0.055
-384.990	-200.000	-0.039	0.239
-383.975	570.283	-0.134	0.322
-382.960	288.085	-0.100	0.179
-381.946	-43.443	-0.059	-0.029
-380.931	-101.240	0.126	-0.031
-379.917	160.965	-0.176	0.244
-378.902	-70.102	-0.277	0.105
-377.888	765.215	-0.128	0.344
-376.873	-200.000	0.006	-0.128
-375.858	-14.421	-0.041	-0.026
-374.844	-23.017	0.067	0.040
-373.829	703.725	-0.061	0.159
-372.815	238.151	-0.059	0.097
-371.800	-200.000	-0.032	0.449
-370.785	182.681	0.052	0.076
-369.771	69.004	0.158	-0.161
-368.756	599.615	0.048	0.118
-367.742	-131.520	-0.161	-0.021
-366.727	-139.123	-0.038	-0.004
-365.712	-145.039	0.233	0.021
-364.698	-195.266	0.228	-0.002
-363.683	-103.238	0.048	-0.011
-362.669	-51.320	0.357	-0.166
-361.654	-200.000	-0.070	0.311
-360.639	495.011	-0.024	-0.054
-359.625	-77.569	0.078	-0.027
-358.610	27.977	0.104	0.087
-357.596	-200.000	-0.035	0.162
-356.581	-1.057	0.326	0.229
-355.566	-92.517	0.393	0.109
-354.552	-200.000	0.022	0.281
-353.537	-40.634	-0.324	-0.167
-352.523	93.982	-0.014	0.016
-351.508	-88.879	0.095	-0.028
-350.493	-84.740	0.358	0.112
-349.479	446.547	-0.054	-0.119
-348.464	800.000	0.104	0.368
-347.450	-200.000	0.008	-0.130
-346.435	606.503	-0.041	-0.102
-345.420	-153.699	0.097	-0.007
-344.406	-134.541	0.221	0.027
-343.391	34.295	-0.160	-0.138
-342.377	-103.762	0.427	0.099
-341.362	-143.346	0.107	-0.010
-340.348	161.282	-0.136	-0.188
-339.333	-94.649	0.210	0.056
-338.318	-200.000	0.016	0.285
-337.304	800.000	0.023	-0.094
-336.289	-117.382	0.224	-0.040
-335.275	-200.000	-0.094	0.443
-334.260	499.027	0.132	-0.302
-333.245	374.839	-0.015	0.031
-332.231	-1.823	0.142	-0.099
-331.216	337.152	-0.079	-0.152
-330.202	-77.505	0.347	-0.119
-329.187	84.425	0.186	0.202
-328.172	800.000	0.075	-0.270
-327.158	-145.194	0.272	0.024
-326.143	-129.363	0.190	-0.026
-325.129	383.020	0.062	-0.126
-324.114	-22.792	-0.106	-0.063
-323.099	-102.576	0.295	-0.070
-322.085	13.249	-0.245	0.188
-321.070	-200.000	-0.022	-0.329
-320.056	-123.768	0.097	-0.015
-319.041	-35.979	0.204	0.109
-318.026	214.450	0.059	0.092
-317.012	800.000	0.032	0.124
-315.997	17.891	0.081	-0.064
-314.983	14.649	-0.248	0.192
-313.968	-164.640	0.313	-0.014
-312.953	189.440	-0.101	-0.150
-311.939	-21.262	-0.196	0.119
-310.924	69.909	0.118	0.121
-309.910	-200.000	-0.003	0.147
-308.895	238.323	0.224	-0.368
-307.880	-28.053	-0.150	0.086
-306.866	-130.093	-0.302	-0.041
-305.851	-105.952	0.310	-0.069
-304.837	-200.000	0.026	-0.261
-303.822	627.693	-0.157	-0.392
-302.807	800.000	0.048	-0.164
-301.793	427.330	-0.106	-0.226
-300.778	-2.169	0.086	-0.060
-299.764	-200.000	0.045	0.291
-298.749	-110.493	0.144	0.029
-297.735	800.000	-0.058	-0.240
-296.720	800.000	-0.078	-0.311
-295.705	117.413	-0.093	0.113
-294.691	-82.580	0.166	-0.053
-293.676	648.164	-0.153	0.386
-292.662	-56.526	-0.224	0.098
-291.647	91.652	-0.260	0.289
-290.632	-200.000	0.025	0.114
-289.618	-106.412	-0.073	-0.016
-288.603	18.352	-0.215	0.170
-287.589	57.932	0.164	0.159
-286.574	305.951	0.043	-0.079
-285.559	-33.625	0.208	0.113
-284.545	-140.730	-0.088	0.009
-283.530	55.308	-0.089	-0.085
-282.516	-138.014	-0.164	0.018
-281.501	237.338	0.066	0.108
-280.486	-123.258	-0.093	0.015
-279.472	-9.316	0.344	0.227
-278.457	718.264	-0.061	0.160
-277.443	152.025	0.048	-0.065
-276.428	-64.658	-0.250	0.100
-275.413	380.638	-0.166	0.337
-274.399	205.111	-0.179	-0.275
-273.384	-78.626	0.085	0.029
-272.370	167.619	-0.052	0.074
-271.355	329.029	-0.053	0.100
-270.340	-119.736	-0.211	0.036
-269.326	-160.058	0.465	-0.025
-268.311	42.632	0.151	0.136
-267.297	-89.200	-0.103	-0.030
-266.282	800.000	0.068	0.233
-265.267	-21.233	0.154	-0.093
-264.253	-6.258	-0.122	-0.082
-263.238	229.348	-0.188	-0.303
-262.224	-1.067	0.163	-0.114
-261.209	-61.472	-0.255	-0.106
-260.195	267.682	-0.152	-0.263
-259.180	-104.292	0.302	-0.069
-258.165	-62.071	-0.278	0.115
-257.151	-75.299	-0.142	-0.050
-256.136	219.994	0.119	0.188
-255.122	800.000	0.102	0.335
-254.107	192.783	0.130	0.194
-253.092	-163.740	-0.270	-0.013
-252.078	51.788	0.215	-0.202
-251.063	361.831	0.090	-0.178
-250.049	10.341	0.205	-0.154
-249.034	-200.000	0.036	-0.171
-248.019	293.455	0.176	-0.318
-247.005	474.329	-0.122	-0.273
-245.990	800.000	0.144	0.431
-244.976	183.354	0.189	-0.275
-243.961	156.041	0.153	-0.208
-242.946	-169.928	-0.073	-0.003
-241.932	50.793	-0.289	0.270
-240.917	-200.000	0.020	0.251
-239.903	-138.946	0.026	0.003
-238.888	-174.236	-0.189	-0.005
-237.873	-200.000	-0.040	-0.189
-236.859	800.000	0.086	0.351
-235.844	36.186	-0.330	0.287
-234.830	331.234	-0.111	-0.210
-233.815	148.382	0.142	0.190
-232.800	-115.982	-0.163	-0.030
-231.786	-96.953	-0.183	0.047
-230.771	-109.905	-0.062	0.013
-229.757	91.898	0.079	-0.087
-228.742	165.632	0.097	-0.135
-227.727	552.721	0.172	-0.407
-226.713	-200.000	-0.194	-0.001
-225.698	125.424	0.155	-0.192
-224.684	-120.620	0.390	0.065
-223.669	-56.089	-0.365	-0.160
-222.655	-84.817	-0.225	-0.070
-221.640	-200.000	0.018	0.331
-220.625	463.152	-0.043	0.094
-219.611	161.130	-0.078	0.107
-218.596	178.950	0.145	-0.208
-217.582	302.947	0.054	0.099
-216.567	-58.004	-0.268	0.115
-215.552	-46.907	0.352	-0.170
-214.538	-42.660	-0.197	0.099
-213.523	228.020	-0.087	0.139
-212.509	-107.668	-0.378	0.081
-211.494	196.258	0.064	-0.095
-210.479	339.758	0.126	-0.242
-209.465	151.282	-0.238	0.319
-208.450	800.000	-0.020	-0.057
-207.436	-28.417	0.255	-0.145
-206.421	-200.000	0.064	0.307
-205.406	-54.747	-0.260	-0.116
-204.392	-97.263	-0.131	-0.034
-203.377	181.658	0.238	0.345
-202.363	-7.396	0.188	0.125
-201.348	-159.024	-0.333	-0.019
-200.333	223.600	0.109	0.173
-199.319	-200.000	-0.002	0.024
-198.304	64.241	-0.290	0.288
-197.290	270.465	-0.085	0.147
-196.275	-110.069	0.391	0.081
-195.260	601.421	-0.169	-0.415
-194.246	-200.000	-0.063	-0.317
-193.231	255.725	0.132	0.223
-192.217	-70.582	0.201	-0.075
-191.202	-77.718	0.211	-0.072
-190.187	800.000	0.082	-0.308
-189.173	-36.144	0.133	-0.071
-188.158	-52.434	0.233	-0.106
-187.144	159.691	0.147	0.201
-186.129	-3.251	0.216	0.148
-185.114	-12.229	0.325	-0.209
-184.100	536.734	0.043	0.100
-183.085	-7.913	0.140	0.093
-182.071	773.541	0.066	0.176
-181.056	-115.455	-0.272	0.050
-180.042	-104.367	0.207	-0.047
-179.027	-10.786	0.073	0.048
-178.012	-135.683	-0.199	0.023
-176.998	124.415	0.113	0.139
-175.983	713.813	-0.088	-0.230
-174.969	-200.000	0.009	-0.108
-173.954	159.548	0.111	-0.152
-172.939	444.618	-0.056	0.122
-171.925	-14.111	0.110	0.070
-170.910	-113.084	-0.137	-0.027
-169.896	-77.691	-0.128	-0.044
-168.881	313.693	-0.185	-0.342
-167.866	191.077	0.033	0.049
-166.852	-200.000	0.041	-0.258
-165.837	501.875	0.058	-0.131
-164.823	-81.296	-0.291	-0.094
-163.808	-200.000	0.025	0.245
-162.793	-36.399	-0.127	0.067
-161.779	-80.096	0.279	-0.092
-160.764	-200.000	0.007	-0.086
-159.750	-43.122	-0.139	-0.070
-158.735	-50.067	0.213	-0.099
-157.720	63.471	0.166	0.163
-156.706	-200.000	0.000	0.207
-155.691	25.126	0.414	-0.338
-154.677	-200.000	0.162	0.001
-153.662	58.073	-0.199	-0.192
-152.647	187.047	-0.201	-0.295
-151.633	-102.408	-0.085	-0.020
-150.618	-162.831	0.073	0.003
-149.604	-132.586	-0.204	-0.026
-148.589	340.622	-0.165	-0.316
-147.574	-49.626	-0.103	0.048
-146.560	-160.395	0.420	-0.022
-145.545	-2.496	0.187	0.129
-144.531	17.195	0.244	-0.191
-143.516	-123.588	-0.241	-0.038
-142.502	228.745	0.160	0.257
-141.487	-68.191	-0.203	-0.078
-140.472	800.000	-0.058	-0.240
-139.458	-43.883	0.141	-0.070
-138.443	-44.170	-0.365	0.180
-137.429	658.585	-0.073	0.183
-136.414	-135.808	0.108	-0.013
-135.399	210.861	0.117	0.181
-134.385	-146.369	-0.141	0.012
-133.370	-112.615	-0.095	0.019
-132.356	-11.496	0.096	0.062
-131.341	-200.000	-0.002	-0.117
-130.326	800.000	0.037	-0.124
-129.312	-91.688	-0.073	0.020
-128.297	800.000	-0.120	-0.357
-127.283	67.770	-0.173	0.174
-126.268	76.015	0.251	-0.261
-125.253	-39.539	0.202	-0.104
-124.239	687.880	-0.084	-0.216
-123.224	96.959	-0.257	-0.290
-122.210	-82.197	-0.120	0.039
-121.195	-116.842	0.122	0.022
-120.180	-144.112	0.225	0.021
-119.166	-51.230	-0.115	-0.053
-118.151	63.322	-0.188	-0.185
-117.137	-29.567	-0.184	0.103
-116.122	723.296	-0.115	-0.300
-115.107	-200.000	0.046	0.313
-114.093	800.000	0.071	-0.273
-113.078	164.404	-0.097	0.135
-112.064	723.996	0.094	0.246
-111.049	-200.000	0.079	0.000
-110.034	800.000	-0.084	-0.257
-109.020	-140.179	0.181	-0.019
-108.005	1.709	-0.616	0.436
-106.991	-124.913	-0.242	-0.037
-105.976	433.078	-0.176	0.376
-104.962	195.275	0.097	0.144
-103.947	126.703	-0.084	0.104
-102.932	800.000	0.088	0.357
-101.918	256.405	-0.140	0.236
-100.903	800.000	-0.048	-0.147
-99.889	-112.006	0.229	0.045
-98.874	6.517	0.071	0.051
-97.859	341.752	0.131	-0.251
-96.845	-112.939	0.335	0.065
-95.830	-151.906	0.251	-0.018
-94.816	489.258	-0.050	0.111
-93.801	34.439	-0.072	-0.062
-92.786	366.369	0.236	0.467
-91.772	353.723	-0.086	0.167
-90.757	800.000	-0.032	-0.118
-89.743	-91.721	0.241	0.067
-88.728	800.000	0.065	0.182
-87.713	-173.764	-0.119	-0.003
-86.699	661.835	0.022	-0.057
-85.684	-136.592	0.279	-0.032
-84.670	800.000	-0.063	-0.210
-83.655	607.358	-0.076	-0.186
-82.640	-117.637	-0.347	0.061
-81.626	324.371	-0.082	0.153
-80.611	249.339	0.124	-0.205
-79.597	-200.000	0.020	0.185
-78.582	194.128	-0.255	-0.379
-77.567	-81.052	-0.186	0.060
-76.553	-200.000	-0.017	0.273
-75.538	-200.000	-0.016	-0.229
-74.524	800.000	-0.093	0.271
-73.509	-42.926	0.071	-0.036
-72.494	-200.000	-0.035	-0.410
-71.480	79.879	-0.294	-0.310
-70.465	-200.000	-0.016	-0.132
-69.451	-120.528	0.267	0.044
-68.436	322.526	0.222	0.415
-67.422	-53.167	-0.148	0.067
-66.407	271.094	0.045	0.077
-65.392	290.133	-0.145	0.258
-64.378	87.037	-0.054	0.058
-63.363	-31.931	-0.158	-0.087
-62.349	660.694	-0.073	0.185
-61.334	43.014	-1.140	-1.019
-60.319	-46.388	0.549	0.264
-59.305	-200.000	-0.214	-0.974
-58.290	702.348	0.478	1.234
-57.276	800.000	0.577	1.670
-56.261	-200.000	106.358	614.303
-55.246	503.933	1510.332	3423.391
-54.232	176.139	2702.626	3844.326
-53.217	111.223	2164.692	2555.077
-52.203	41.346	1599.085	1416.739
-51.188	32.885	1333.293	1130.788
-50.173	29.725	1292.230	1077.533
-49.159	54.376	1346.429	1270.020
-48.144	54.706	1361.732	1286.364
-47.130	32.990	1316.386	1116.891
-46.115	29.543	1298.337	1081.391
-45.100	29.387	1293.301	1076.241
-44.086	29.285	1291.303	1073.943
-43.071	29.224	1289.193	1071.789
-42.057	29.280	1286.240	1069.618
-41.042	29.193	1285.310	1068.296
-40.027	29.405	1283.265	1067.784
-39.013	29.321	1281.809	1066.043
-37.998	29.341	1279.966	1064.585
-36.984	29.430	1278.032	1063.445
-35.969	29.418	1276.222	1061.828
-34.954	29.416	1274.412	1060.267
-33.940	29.413	1273.169	1059.174
-32.925	29.456	1271.644	1058.112
-31.911	29.455	1270.418	1057.043
-30.896	29.570	1268.748	1056.271
-29.881	29.526	1267.960	1055.322
-28.867	29.516	1265.832	1053.449
-27.852	29.558	1264.752	1052.747
-26.838	29.591	1263.306	1051.694
-25.823	29.408	1262.406	1049.858
-24.809	29.469	1260.874	1048.889
-23.794	29.390	1259.513	1047.269
-22.779	29.425	1258.326	1046.439
-21.765	29.565	1256.665	1045.807
-20.750	29.358	1255.643	1043.743
-19.736	29.287	1254.348	1042.226
-18.721	29.344	1252.970	1041.362
-17.706	29.321	1252.042	1040.421
-16.692	29.415	1250.725	1039.811
-15.677	29.427	1250.003	1039.238
-14.663	29.327	1248.814	1037.644
-13.648	29.340	1247.594	1036.663
-12.633	29.274	1246.790	1035.587
-11.619	29.311	1245.884	1035.000
-10.604	29.298	1244.957	1034.113
-9.590	29.300	1244.097	1033.371
-8.575	29.244	1243.271	1032.331
-7.560	29.331	1242.410	1032.062
-6.546	29.382	1241.501	1031.551
-5.531	29.283	1240.945	1030.494
-4.517	29.327	1239.659	1029.628
-3.502	29.397	1238.816	1029.281
-2.487	29.352	1237.548	1027.938
-1.473	29.375	1233.552	1024.705
-0.458	27.972	1219.387	1005.183
0.556	22.352	1202.909	969.735
1.571	19.072	1208.673	956.102
2.586	18.400	1222.898	963.489
3.600	18.247	1213.206	954.920
4.615	13.664	1142.101	874.743
5.629	4.543	1067.215	772.164
6.644	0.145	1046.922	735.943
7.659	-0.428	1044.854	731.628
8.673	-0.376	1043.357	730.771
9.688	-0.479	1042.069	729.300
10.702	0.072	1040.417	730.757
11.717	5.919	1049.003	765.296
12.731	15.016	1062.151	819.555
13.746	19.371	1067.375	844.898
14.761	20.380	1068.148	850.383
15.775	20.516	1067.558	850.500
16.790	20.101	1067.106	848.035
17.804	20.107	1066.471	847.484
18.819	20.224	1065.917	847.543
19.834	20.389	1065.380	847.846
20.848	20.417	1064.980	847.591
21.863	20.272	1064.692	846.576
22.877	20.228	1064.312	845.988
23.892	20.113	1063.205	844.473
24.907	20.430	1062.131	845.088
25.921	20.402	1060.921	843.912
26.936	20.305	1059.848	842.516
27.950	20.208	1058.331	840.762
28.965	20.212	1056.046	838.893
29.980	20.097	1055.096	837.507
30.994	20.388	1053.828	837.832
32.009	20.340	1052.738	836.661
33.023	20.168	1051.224	834.555
34.038	20.296	1050.986	834.906
35.053	20.439	1049.757	834.546
36.067	20.210	1049.503	833.171
37.082	20.395	1048.233	832.974
38.096	20.462	1047.748	832.835
39.111	20.589	1046.697	832.536
40.126	20.523	1044.988	830.789
41.140	20.187	1043.133	827.634
42.155	20.020	1041.939	825.818
43.169	20.015	1041.239	825.167
44.184	19.999	1040.523	824.452
45.199	19.925	1038.970	822.796
46.213	19.836	1038.365	821.822
47.228	20.181	1037.283	822.531
48.242	20.238	1036.052	821.750
49.257	20.287	1035.561	821.520
50.271	20.415	1035.008	821.613
51.286	20.444	1033.762	820.687
52.301	20.385	1033.145	819.848
53.315	20.318	1032.288	818.781
54.330	20.214	1031.248	817.391
55.344	20.358	1030.609	817.493
56.359	20.317	1029.158	816.077
57.374	20.122	1028.648	814.683
58.388	20.223	1027.254	813.980
59.403	20.213	1026.548	813.301
60.417	19.947	1025.999	811.547
61.432	20.089	1024.777	811.176
62.447	20.160	1024.121	810.914
63.461	20.172	1023.826	810.666
64.476	20.220	1022.582	809.831
65.490	20.033	1021.966	808.403
66.505	20.132	1021.253	808.229
67.520	20.139	1020.707	807.756
68.534	19.872	1019.405	805.411
69.549	19.695	1018.202	803.569
70.563	19.760	1016.990	802.842
71.578	19.661	1016.594	801.998
72.593	19.554	1016.004	800.967
73.607	19.645	1015.567	800.972
74.622	20.004	1014.478	801.707
75.636	20.077	1013.563	801.251
76.651	19.886	1012.719	799.628
77.666	19.770	1012.524	798.868
78.680	19.864	1011.698	798.579
79.695	19.912	1011.148	798.295
80.709	20.020	1010.338	798.085
81.724	19.827	1009.702	796.620
82.739	20.016	1009.121	796.963
83.753	20.266	1008.573	797.608
84.768	20.591	1007.599	798.261
85.782	20.711	1006.596	797.944
86.797	20.533	1005.638	796.300
87.812	20.219	1005.080	794.349
88.826	20.495	1004.175	794.827
89.841	20.665	1002.821	794.461
90.855	20.584	1002.164	793.500
91.870	20.531	1001.247	792.461
92.884	20.354	999.774	790.422
93.899	20.515	998.736	790.263
94.914	20.577	998.282	790.117
95.928	20.400	997.436	788.570
96.943	20.177	995.801	786.198
97.957	19.973	994.609	784.266
98.972	19.658	993.982	782.273
99.987	20.042	993.085	783.236
101.001	20.299	992.125	783.569
102.016	20.237	991.960	783.090
103.030	20.225	990.436	781.762
104.045	20.038	989.348	779.993
105.060	19.912	988.846	778.964
106.074	20.204	987.551	779.184
107.089	20.394	987.816	780.177
108.103	20.375	986.522	779.002
109.118	20.146	985.055	776.751
110.133	20.173	983.802	775.813
111.147	19.936	983.321	774.304
112.162	19.909	982.012	773.085
113.176	19.980	981.661	773.058
114.191	19.944	980.693	772.066
115.206	19.696	979.076	769.623
116.220	19.720	978.574	769.264
117.235	19.930	977.300	769.129
118.249	19.743	976.702	767.760
119.264	19.657	976.012	766.767
120.279	19.739	975.598	766.738
121.293	19.826	974.638	766.302
122.308	19.962	973.476	765.923
123.322	19.904	972.292	764.665
124.337	19.856	970.650	763.095
125.352	19.212	969.052	758.936
126.366	19.258	968.069	758.303
127.381	19.971	968.412	761.639
128.395	20.416	967.431	762.758
129.410	20.405	966.867	762.197
130.424	20.279	966.167	761.022
131.439	20.389	965.010	760.526
132.454	20.360	963.848	759.416
133.468	20.219	963.344	758.337
134.483	20.406	962.403	758.344
135.497	20.508	961.698	758.168
136.512	20.519	961.070	757.654
137.527	20.527	959.651	756.504
138.541	20.528	959.142	756.037
139.556	20.560	958.250	755.407
140.570	20.514	957.809	754.794
141.585	20.609	956.249	753.910
142.600	20.500	955.373	752.680
143.614	20.752	955.102	753.492
144.629	20.810	954.216	752.977
145.643	20.721	952.901	751.489
146.658	20.556	951.459	749.570
147.673	20.355	950.407	747.810
148.687	20.334	950.068	747.389
149.702	20.360	948.333	746.069
150.716	20.318	947.942	745.517
151.731	20.587	947.116	745.954
152.746	20.656	946.263	745.510
153.760	20.743	945.841	745.487
154.775	20.775	945.103	744.976
155.789	20.696	944.350	743.978
156.804	20.733	943.240	743.197
157.819	20.743	942.028	742.217
158.833	20.881	941.523	742.341
159.848	20.811	940.690	741.323
160.862	20.624	939.614	739.612
161.877	20.814	938.599	739.554
162.892	20.698	937.560	738.179
163.906	20.720	936.601	737.452
164.921	20.642	935.928	736.527
165.935	20.654	935.076	735.842
166.950	20.728	934.086	735.310
167.964	20.642	933.632	734.524
168.979	20.592	931.950	732.928
169.994	20.604	931.016	732.177
171.008	20.881	930.795	733.105
172.023	20.750	929.597	731.546
173.037	20.407	928.665	729.305
174.052	20.559	927.534	728.991
175.067	20.455	926.946	728.030
176.081	20.671	926.834	728.780
177.096	20.360	926.180	726.903
178.110	20.240	924.927	725.350
179.125	20.099	924.140	724.080
180.140	20.191	923.809	724.142
181.154	20.255	923.505	724.107
182.169	20.462	923.538	724.930
183.183	20.527	923.674	725.246
184.198	20.611	921.836	724.087
185.213	20.577	921.365	723.512
186.227	20.788	920.605	723.730
187.242	20.707	919.920	722.791
188.256	20.932	918.984	722.925
189.271	20.809	918.452	721.931
190.286	20.609	916.814	719.754
191.300	19.956	915.973	716.329
192.315	19.297	914.393	712.308
193.329	19.281	914.011	711.880
194.344	20.167	914.312	715.713
195.359	20.639	913.970	717.328
196.373	20.742	913.392	717.235
197.388	20.494	912.984	715.830
198.402	20.441	912.361	715.060
199.417	20.414	911.826	714.466
200.432	20.182	910.794	712.639
201.446	20.126	909.856	711.613
202.461	20.241	908.918	711.288
203.475	19.267	907.072	705.795
204.490	18.668	906.067	702.499
205.504	19.633	906.454	706.685
206.519	20.242	906.260	708.960
207.534	20.263	906.104	708.861
208.548	20.743	905.722	710.459
209.563	20.390	904.793	708.228
210.577	20.370	904.039	707.495
211.592	20.831	903.735	709.073
212.607	20.668	902.918	707.705
213.621	20.858	902.305	707.934
214.636	20.689	901.825	706.809
215.650	20.710	900.730	705.974
216.665	20.863	900.222	706.132
217.680	20.713	899.365	704.790
218.694	20.262	898.394	702.143
219.709	20.143	897.598	700.978
220.723	20.529	896.948	701.966
221.738	20.555	896.266	701.475
222.753	20.484	895.664	700.656
223.767	20.730	895.268	701.276
224.782	20.747	895.401	701.385
225.796	20.853	894.425	700.985
226.811	20.192	893.102	697.228
227.826	19.428	892.213	693.407
228.840	19.710	891.310	693.773
229.855	19.929	890.316	693.815
230.869	19.518	889.325	691.339
231.884	19.856	889.749	692.959
232.899	20.649	889.837	696.142
233.913	20.518	888.855	694.789
234.928	20.663	887.927	694.580
235.942	20.584	887.302	693.713
236.957	20.222	886.577	691.642
237.972	20.137	886.017	690.807
238.986	20.315	885.681	691.192
240.001	20.298	884.569	690.194
241.015	20.455	884.105	690.397
242.030	20.475	883.704	690.103
243.045	20.533	883.520	690.125
244.059	20.719	882.800	690.244
245.074	20.520	881.854	688.652
246.088	20.275	880.722	686.740
247.103	20.492	880.656	687.486
248.117	21.095	880.402	689.611
249.132	21.155	879.760	689.282
250.147	21.260	879.352	689.316
251.161	21.460	878.436	689.324
252.176	21.357	877.896	688.434
253.190	21.394	877.758	688.410
254.205	21.518	877.301	688.480
255.220	21.503	876.484	687.719
256.234	21.365	875.766	686.555
257.249	21.346	874.653	685.547
258.263	21.407	873.913	685.145
259.278	21.505	873.485	685.132
260.293	21.522	872.809	684.606
261.307	21.359	872.039	683.307
262.322	21.175	871.319	681.961
263.336	20.441	869.263	677.430
264.351	19.330	867.664	671.796
265.366	19.599	866.919	672.209
266.380	20.714	867.997	677.325
267.395	21.033	867.958	678.479
268.409	21.068	866.899	677.726
269.424	21.180	866.468	677.765
270.439	21.308	865.673	677.579
271.453	21.270	865.283	677.065
272.468	21.380	865.244	677.404
273.482	21.582	864.249	677.344
274.497	21.230	862.861	674.836
275.512	20.808	862.239	672.662
276.526	21.408	862.144	674.845
277.541	21.405	862.116	674.751
278.555	21.131	861.049	672.801
279.570	20.915	860.484	671.468
280.585	20.996	860.100	671.420
281.599	21.048	858.865	670.597
282.614	20.552	857.392	667.483
283.628	20.506	857.427	667.276
284.643	20.920	856.671	668.216
285.657	20.419	855.601	665.401
286.672	20.416	854.761	664.677
287.687	20.733	854.984	666.005
288.701	20.831	854.414	665.877
289.716	20.628	853.066	663.994
290.730	20.569	852.542	663.302
291.745	20.160	851.593	660.945
292.760	20.540	851.795	662.495
293.774	21.603	851.983	666.629
294.789	21.904	851.635	667.446
295.803	21.933	851.206	667.161
296.818	21.870	850.626	666.405
297.833	21.367	849.362	663.447
298.847	21.140	849.086	662.313
299.862	21.617	848.648	663.721
300.876	21.755	848.457	664.036
301.891	21.772	847.639	663.402
302.906	21.442	846.085	660.879
303.920	21.482	846.293	661.134
304.935	21.758	845.886	661.799
305.949	21.664	845.203	660.852
306.964	21.390	844.829	659.468
307.979	21.654	844.235	659.943
308.993	21.932	844.357	661.027
310.008	21.883	843.640	660.222
311.022	21.755	842.393	658.707
312.037	21.479	841.855	657.193
313.052	21.331	840.708	655.683
314.066	20.355	839.949	651.371
315.081	20.222	839.143	650.192
316.095	20.946	839.621	653.216
317.110	21.461	839.062	654.653
318.125	20.704	837.435	650.498
319.139	19.731	835.951	645.656
320.154	19.750	835.796	645.550
321.168	20.574	836.105	648.808
322.183	21.294	836.224	651.526
323.197	21.469	835.771	651.770
324.212	21.617	835.220	651.835
325.227	21.666	834.700	651.552
326.241	21.335	834.335	649.979
327.256	21.483	833.738	650.004
328.270	21.286	833.016	648.654
329.285	21.215	831.555	647.194
330.300	20.952	831.497	646.119
331.314	21.218	831.349	646.931
332.329	21.552	831.169	647.970
333.343	21.843	830.356	648.358
334.358	21.691	829.829	647.326
335.373	21.684	829.889	647.291
336.387	22.076	829.656	648.497
337.402	22.131	829.538	648.553
338.416	22.024	829.176	647.815
339.431	22.108	828.690	647.689
340.446	22.370	828.431	648.394
341.460	22.019	827.779	646.535
342.475	21.863	827.355	645.573
343.489	21.971	827.222	645.809
344.504	22.316	826.470	646.432
345.519	22.384	826.392	646.563
346.533	22.511	826.046	646.704
347.548	22.359	825.719	645.831
348.562	22.322	825.191	645.225
349.577	22.339	824.612	644.779
350.592	22.457	823.366	644.177
351.606	22.376	822.767	643.355
352.621	22.139	822.232	642.016
353.635	22.144	821.343	641.281
354.650	21.447	820.052	637.676
355.665	20.732	818.116	633.513
356.679	21.223	818.031	635.177
357.694	21.654	817.710	636.440
358.708	21.423	817.391	635.296
359.723	21.869	817.096	636.630
360.738	22.028	816.993	637.070
361.752	22.278	816.288	637.371
362.767	22.423	816.131	637.716
363.781	22.614	815.656	637.980
364.796	22.832	815.579	638.651
365.810	22.710	815.267	637.908
366.825	22.797	814.394	637.485
367.840	22.334	813.704	635.217
368.854	22.020	812.829	633.346
369.869	22.127	812.069	633.082
370.883	22.210	812.406	633.590
371.898	21.909	811.680	631.880
372.913	22.231	810.783	632.285
373.927	22.314	810.435	632.259
374.942	22.333	810.089	631.999
375.956	22.516	809.873	632.431
376.971	22.593	809.647	632.474
377.986	22.870	808.875	632.809
379.000	22.686	808.298	631.642
380.015	22.676	807.760	631.133
381.029	22.655	807.535	630.825
382.044	22.771	806.817	630.623
383.059	22.770	806.340	630.189
384.073	22.896	806.033	630.346
385.088	22.786	805.578	629.540
386.102	22.542	804.645	627.884
387.117	22.584	803.646	627.200
388.132	22.153	802.802	624.955
389.146	21.678	802.050	622.626
390.161	22.129	801.928	624.078
391.175	22.533	801.520	625.140
392.190	22.174	800.480	623.002
393.205	20.882	798.723	617.004
394.219	19.319	797.476	610.456
395.234	19.504	796.926	610.635
396.248	21.063	798.128	617.023
397.263	22.470	798.727	622.409
398.278	22.305	798.837	621.855
399.292	22.145	797.687	620.341
400.307	22.270	796.953	620.154
401.321	22.260	796.981	620.087
402.336	22.611	797.160	621.407
403.350	23.010	796.843	622.513
404.365	23.291	796.178	622.927
405.380	23.523	796.333	623.809
406.394	23.393	795.768	622.851
407.409	23.454	795.171	622.547
408.423	23.186	794.922	621.356
409.438	23.342	794.584	621.582
410.453	23.356	794.158	621.243
411.467	23.409	793.568	620.913
412.482	23.489	793.079	620.753
413.496	23.378	793.022	620.268
414.511	23.375	792.421	619.732
415.526	23.521	791.684	619.609
416.540	23.223	791.376	618.272
417.555	23.123	790.387	617.096
418.569	23.133	790.069	616.828
419.584	23.128	789.524	616.331
420.599	22.853	788.824	614.772
421.613	157.602	1365.769	1798.147
422.628	136.422	1449.811	1798.241
