DTS Sentinel unit serial number:	SN413079Multiplexer serial number:	ORYXHardware model number:	OX4-SRSoftware version number:	ORYX F/W v4.00 Oryx Data Collector v3.7.2.0data status	okinstallation	princeton_trtdifferential loss correction	single-endedforward channel	channel 1reverse channel	N/Adate	2019/09/11time	12:28:11forward acquisition time	60.00reverse acquisition time	0.00gamma	496.2192k internal	0.2294k external	0.2294temperature offset calibration	0.9940default loss term (dB/km)	0.3790temperature slope calibration	1.0000multiplexer offset coefficient	1.0000multiplexer slope coefficient	1.0000fibre end	0.00T internal ref (°C)	40.42T ext. ref 1 (°C)	0.22T ext. ref 2 (°C)	38.37length (m)	temperature (°C)	Stokes	anti-Stokes-747.200	198.783	0.026	0.041
-746.185	-6.815	-0.348	0.242
-745.171	76.706	-0.094	-0.102
-744.156	230.337	0.129	0.216
-743.142	-139.725	-0.147	-0.016
-742.127	-200.000	0.007	0.118
-741.112	-39.548	-0.175	0.094
-740.098	800.000	0.154	0.562
-739.083	-22.345	-0.283	0.175
-738.069	800.000	-0.165	0.500
-737.054	800.000	-0.035	0.122
-736.039	-200.000	0.049	0.376
-735.025	740.346	0.045	-0.122
-734.010	523.658	-0.128	-0.307
-732.996	99.821	-0.131	0.155
-731.981	-200.000	0.028	0.216
-730.966	-73.187	0.335	0.125
-729.952	800.000	-0.028	-0.109
-728.937	-44.511	-0.537	-0.275
-727.923	2.944	-0.179	-0.133
-726.908	-151.017	0.146	0.011
-725.894	-117.174	-0.271	-0.050
-724.879	158.508	0.274	-0.388
-723.864	800.000	-0.045	-0.146
-722.850	-92.255	-0.251	-0.072
-721.835	167.638	-0.180	0.261
-720.821	-13.257	0.249	0.165
-719.806	-200.000	0.057	-0.333
-718.791	-36.625	-0.213	0.117
-717.777	800.000	0.031	0.137
-716.762	481.741	-0.161	0.374
-715.748	-3.114	0.240	-0.171
-714.733	363.350	0.224	-0.459
-713.718	-110.150	-0.424	0.090
-712.704	691.419	-0.083	-0.222
-711.689	-87.879	-0.356	0.109
-710.675	-200.000	-0.003	-0.121
-709.660	-15.539	0.156	-0.102
-708.645	316.679	0.084	-0.162
-707.631	-10.221	-0.137	0.093
-706.616	-199.180	-0.260	0.001
-705.602	93.958	-0.235	0.272
-704.587	45.153	-0.131	-0.124
-703.572	50.356	-0.078	0.075
-702.558	26.246	-0.238	0.203
-701.543	56.926	-0.125	-0.124
-700.529	709.929	-0.119	-0.322
-699.514	-53.793	-0.194	0.091
-698.499	-54.577	0.106	-0.049
-697.485	147.449	-0.228	-0.313
-696.470	-94.830	-0.218	-0.060
-695.456	225.309	-0.046	0.076
-694.441	800.000	0.060	0.236
-693.426	-85.408	0.115	-0.037
-692.412	-13.582	-0.161	0.106
-691.397	-117.613	0.150	-0.028
-690.383	-63.241	-0.243	0.102
-689.368	241.511	0.046	0.078
-688.354	800.000	-0.030	-0.118
-687.339	-200.000	0.027	0.311
-686.324	-200.000	0.018	0.186
-685.310	-109.294	0.183	0.040
-684.295	491.198	0.080	0.188
-683.281	-44.242	0.343	0.175
-682.266	269.115	-0.088	0.158
-681.251	-110.334	0.143	0.030
-680.237	-51.307	-0.120	-0.057
-679.222	77.748	-0.099	0.107
-678.208	-200.000	-0.012	-0.138
-677.193	87.901	0.194	0.219
-676.178	107.870	0.167	-0.203
-675.164	-200.000	0.030	0.245
-674.149	117.971	0.171	0.215
-673.135	800.000	-0.122	0.476
-672.120	74.463	-0.124	-0.132
-671.105	291.387	-0.058	-0.107
-670.091	227.640	-0.166	0.276
-669.076	693.998	-0.109	-0.293
-668.062	800.000	-0.023	0.102
-667.047	33.647	-0.126	0.111
-666.032	202.030	0.187	0.293
-665.018	130.956	-0.164	-0.214
-664.003	-126.621	0.169	-0.026
-662.989	188.467	-0.119	-0.182
-661.974	-32.597	0.113	-0.064
-660.959	-42.245	-0.118	-0.062
-659.945	800.000	-0.057	-0.210
-658.930	115.854	-0.022	0.027
-657.916	189.669	0.023	-0.035
-656.901	124.752	0.083	0.107
-655.886	-138.437	0.083	-0.009
-654.872	-101.309	0.143	0.036
-653.857	15.032	0.175	-0.139
-652.843	-200.000	0.001	-0.302
-651.828	800.000	-0.052	-0.226
-650.814	-200.000	-0.013	0.144
-649.799	153.395	-0.142	0.198
-648.784	-172.936	-0.275	-0.009
-647.770	33.780	-0.356	0.316
-646.755	79.553	0.248	0.271
-645.741	19.913	0.153	-0.126
-644.726	-32.424	-0.165	0.094
-643.711	-93.437	0.175	0.049
-642.697	-46.749	0.103	0.051
-641.682	-155.143	-0.130	-0.009
-640.668	-200.000	0.017	0.307
-639.653	453.088	0.125	-0.281
-638.638	-91.826	0.236	-0.068
-637.624	-43.954	0.297	0.152
-636.609	45.241	0.030	0.029
-635.595	800.000	-0.054	-0.177
-634.580	800.000	0.083	-0.253
-633.565	-158.235	-0.184	0.011
-632.551	-200.000	-0.022	-0.121
-631.536	-54.920	-0.334	0.153
-630.522	-41.674	-0.046	-0.024
-629.507	59.369	-0.201	0.202
-628.492	362.503	-0.163	0.334
-627.478	800.000	-0.048	-0.204
-626.463	-7.842	-0.149	0.102
-625.449	52.720	0.335	0.326
-624.434	258.774	-0.163	-0.286
-623.419	21.959	0.150	-0.124
-622.405	64.697	0.064	0.066
-621.390	-84.251	0.167	-0.054
-620.376	800.000	-0.051	-0.172
-619.361	-71.448	0.262	0.100
-618.346	-169.852	-0.302	-0.011
-617.332	-200.000	-0.000	-0.242
-616.317	185.770	-0.081	-0.123
-615.303	-122.695	0.101	0.017
-614.288	776.545	0.045	0.126
-613.273	79.394	-0.223	-0.244
-612.259	-24.693	-0.124	-0.075
-611.244	7.520	0.094	0.072
-610.230	-200.000	-0.013	0.110
-609.215	-200.000	0.002	0.103
-608.201	800.000	-0.111	0.355
-607.186	362.676	0.123	0.252
-606.171	-53.698	-0.296	-0.138
-605.157	-8.972	0.246	-0.168
-604.142	-200.000	-0.035	-0.380
-603.128	800.000	-0.043	-0.135
-602.113	-200.000	-0.040	0.399
-601.098	74.165	0.042	0.045
-600.084	-200.000	0.002	0.217
-599.069	154.965	-0.277	-0.388
-598.055	-178.529	-0.161	0.004
-597.040	74.079	-0.133	0.142
-596.025	-200.000	0.046	-0.293
-595.011	517.157	0.175	-0.417
-593.996	522.011	-0.139	0.331
-592.982	-120.282	0.184	0.032
-591.967	45.576	0.040	0.038
-590.952	445.587	0.083	-0.186
-589.938	667.355	-0.057	-0.150
-588.923	245.653	-0.124	-0.212
-587.909	23.378	0.202	-0.169
-586.894	109.807	0.075	-0.091
-585.879	800.000	-0.153	0.491
-584.865	-60.681	0.206	-0.089
-583.850	800.000	0.046	-0.181
-582.836	81.307	0.138	0.152
-581.821	-87.463	-0.026	0.008
-580.806	-67.873	0.278	0.110
-579.792	48.951	0.079	-0.075
-578.777	422.013	0.060	0.131
-577.763	-116.320	-0.096	-0.018
-576.748	800.000	-0.074	0.309
-575.733	341.234	0.092	0.183
-574.719	16.764	-0.261	0.210
-573.704	-186.401	-0.066	0.001
-572.690	-197.951	-0.109	-0.001
-571.675	-174.730	0.188	-0.005
-570.661	-130.581	0.284	-0.039
-569.646	-104.670	0.404	-0.094
-568.631	326.261	-0.058	0.113
-567.617	539.244	-0.046	0.110
-566.602	431.900	0.093	-0.204
-565.588	50.015	-0.129	0.124
-564.573	-200.000	-0.015	-0.074
-563.558	800.000	0.070	-0.256
-562.544	-118.430	0.052	-0.009
-561.529	800.000	-0.145	0.411
-560.515	-107.690	0.085	-0.019
-559.500	92.213	0.149	-0.171
-558.485	-200.000	-0.055	0.268
-557.471	102.234	-0.297	0.352
-556.456	393.172	-0.096	0.202
-555.442	78.208	-0.126	0.136
-554.427	3.741	-0.091	-0.067
-553.412	800.000	-0.027	-0.077
-552.398	15.316	-0.143	0.114
-551.383	-109.364	0.222	0.048
-550.369	-200.000	-0.089	0.425
-549.354	-2.888	0.287	-0.204
-548.339	187.971	0.151	0.229
-547.325	-29.674	-0.377	-0.219
-546.310	-200.000	0.027	-0.131
-545.296	-25.221	0.248	-0.149
-544.281	800.000	0.107	-0.342
-543.266	800.000	-0.049	-0.212
-542.252	-200.000	-0.029	-0.397
-541.237	47.150	0.097	-0.092
-540.223	-164.666	0.070	0.003
-539.208	157.597	0.228	0.320
-538.193	141.912	0.058	0.078
-537.179	-136.927	0.124	0.014
-536.164	-200.000	0.039	0.184
-535.150	-50.800	0.197	-0.094
-534.135	-5.166	0.083	0.058
-533.121	-148.668	0.314	0.026
-532.106	-200.000	-0.003	0.363
-531.091	-200.000	-0.032	0.346
-530.077	-200.000	-0.018	0.182
-529.062	239.691	0.132	0.222
-528.048	-22.954	-0.317	-0.194
-527.033	-163.229	0.169	0.008
-526.018	173.692	0.064	0.094
-525.004	106.868	0.166	-0.200
-523.989	138.149	-0.046	0.062
-522.975	37.270	-0.135	0.121
-521.960	334.075	0.059	0.115
-520.945	-37.367	0.082	-0.045
-519.931	-107.619	-0.436	0.097
-518.916	194.602	-0.056	-0.086
-517.902	758.197	0.104	0.285
-516.887	294.852	-0.080	-0.147
-515.872	-24.830	-0.271	0.163
-514.858	416.991	-0.149	0.321
-513.843	-200.000	-0.090	-0.450
-512.829	-200.000	0.005	-0.406
-511.814	112.411	0.051	-0.062
-510.799	289.779	-0.117	-0.215
-509.785	528.575	-0.139	0.333
-508.770	-69.611	-0.305	0.118
-507.756	-155.530	-0.156	0.010
-506.741	417.466	0.073	0.158
-505.726	-200.000	0.045	-0.279
-504.712	-54.885	0.191	-0.087
-503.697	-112.297	-0.334	-0.068
-502.683	800.000	-0.086	0.265
-501.668	34.312	0.015	0.013
-500.653	18.722	0.326	-0.264
-499.639	-200.000	0.009	-0.041
-498.624	33.502	0.050	0.044
-497.610	552.880	0.087	-0.211
-496.595	37.771	0.038	-0.034
-495.581	-110.163	-0.257	-0.054
-494.566	-200.000	-0.012	-0.068
-493.551	800.000	-0.076	0.212
-492.537	-200.000	-0.023	0.268
-491.522	627.434	-0.015	-0.039
-490.508	248.234	0.076	-0.130
-489.493	542.347	-0.080	-0.194
-488.478	-200.000	0.007	-0.038
-487.464	-14.346	-0.091	-0.059
-486.449	49.601	0.024	0.023
-485.435	-200.000	0.018	0.152
-484.420	-103.466	0.147	-0.035
-483.405	800.000	-0.022	0.077
-482.391	800.000	0.061	0.263
-481.376	-10.454	-0.213	-0.143
-480.362	-11.612	0.076	0.051
-479.347	49.403	0.105	0.100
-478.332	274.166	-0.116	0.207
-477.318	800.000	-0.060	-0.239
-476.303	180.507	-0.098	-0.146
-475.289	251.451	-0.128	0.221
-474.274	-110.431	0.176	-0.037
-473.259	-172.563	0.100	0.003
-472.245	-200.000	0.069	-0.353
-471.230	-144.931	-0.303	0.028
-470.216	620.767	-0.051	0.129
-469.201	-84.711	-0.142	0.045
-468.186	800.000	0.034	-0.144
-467.172	-180.860	-0.213	-0.004
-466.157	-200.000	0.033	-0.177
-465.143	149.291	0.281	0.385
-464.128	-72.073	0.165	-0.062
-463.113	-167.946	0.121	-0.005
-462.099	413.442	-0.081	-0.175
-461.084	137.685	0.195	-0.258
-460.070	-162.509	0.046	-0.002
-459.055	5.910	0.109	-0.081
-458.040	-161.602	0.256	-0.013
-457.026	165.321	0.102	-0.146
-456.011	-200.000	-0.009	0.090
-454.997	-200.000	-0.024	-0.213
-453.982	91.323	-0.279	-0.317
-452.968	800.000	-0.064	-0.197
-451.953	-150.360	-0.264	-0.021
-450.938	-109.690	-0.056	0.012
-449.924	-163.020	-0.138	-0.007
-448.909	59.638	-0.210	-0.209
-447.895	-134.605	-0.126	0.016
-446.880	29.500	-0.144	-0.124
-445.865	-91.672	0.108	-0.031
-444.851	-200.000	0.002	0.188
-443.836	-95.233	-0.200	-0.055
-442.822	350.449	-0.063	-0.125
-441.807	-120.187	0.073	-0.013
-440.792	-200.000	-0.028	0.301
-439.778	44.769	-0.125	-0.116
-438.763	77.248	0.248	-0.267
-437.749	73.987	-0.227	0.240
-436.734	131.082	0.192	-0.249
-435.719	435.663	0.057	0.124
-434.705	-191.294	-0.166	0.002
-433.690	-41.626	-0.156	0.081
-432.676	-200.000	0.011	0.239
-431.661	-159.803	-0.231	-0.013
-430.646	-153.954	-0.229	-0.016
-429.632	-122.257	0.126	0.021
-428.617	66.574	0.171	0.176
-427.603	800.000	0.103	-0.390
-426.588	-155.561	0.316	-0.021
-425.573	42.814	-0.207	-0.190
-424.559	76.095	-0.099	0.106
-423.544	80.999	-0.097	-0.105
-422.530	84.980	0.122	-0.135
-421.515	-77.238	-0.053	-0.019
-420.500	156.803	0.129	0.179
-419.486	425.222	-0.139	0.302
-418.471	78.647	0.058	-0.063
-417.457	10.038	-0.252	0.194
-416.442	-65.287	0.528	0.215
-415.428	-106.973	0.206	-0.046
-414.413	39.917	-0.071	0.065
-413.398	43.268	0.211	-0.195
-412.384	22.548	-0.064	-0.053
-411.369	800.000	0.051	0.183
-410.355	-200.000	0.045	0.203
-409.340	-84.997	-0.288	-0.091
-408.325	800.000	0.021	-0.081
-407.311	1.204	-0.309	0.224
-406.296	-200.000	0.031	-0.144
-405.282	800.000	0.075	-0.225
-404.267	-26.520	0.189	0.112
-403.252	166.712	0.243	0.348
-402.238	482.377	0.135	-0.309
-401.223	58.937	0.234	0.232
-400.209	-200.000	-0.031	-0.378
-399.194	-106.003	-0.200	0.045
-398.179	308.784	-0.051	-0.096
-397.165	41.998	-0.153	0.140
-396.150	-14.627	0.149	-0.097
-395.136	112.665	-0.100	0.122
-394.121	-200.000	-0.026	0.120
-393.106	-66.682	-0.291	-0.116
-392.092	124.586	-0.100	-0.127
-391.077	-200.000	-0.055	0.375
-390.063	-126.122	-0.232	0.035
-389.048	-42.599	0.060	-0.031
-388.033	-200.000	0.034	-0.269
-387.019	428.275	0.082	0.179
-386.004	-156.901	-0.241	-0.015
-384.990	-86.457	0.235	-0.073
-383.975	-200.000	-0.059	0.306
-382.960	167.160	0.134	-0.192
-381.946	-8.606	-0.170	-0.115
-380.931	30.399	0.093	0.080
-379.917	-42.655	0.157	-0.080
-378.902	800.000	0.020	0.080
-377.888	-200.000	0.007	0.067
-376.873	-168.961	0.364	0.014
-375.858	-200.000	-0.040	-0.493
-374.844	55.510	-0.137	0.134
-373.829	800.000	0.042	-0.175
-372.815	-65.555	-0.276	-0.111
-371.800	-116.004	-0.327	0.061
-370.785	247.848	-0.090	-0.153
-369.771	61.091	0.073	0.074
-368.756	-100.077	0.140	-0.035
-367.742	-200.000	0.078	0.404
-366.727	-76.040	-0.342	-0.122
-365.712	-200.000	-0.038	-0.289
-364.698	-68.505	-0.043	-0.017
-363.683	430.453	0.088	-0.191
-362.669	800.000	-0.049	-0.137
-361.654	800.000	0.033	0.141
-360.639	800.000	-0.053	0.202
-359.625	-200.000	-0.006	-0.193
-358.610	514.618	-0.105	0.247
-357.596	-200.000	0.041	0.211
-356.581	-200.000	0.014	-0.068
-355.566	295.695	0.124	0.229
-354.552	368.743	0.050	0.102
-353.537	800.000	0.043	0.132
-352.523	800.000	0.020	-0.070
-351.508	347.947	0.194	-0.386
-350.493	-114.049	-0.402	0.078
-349.479	-46.285	-0.173	0.086
-348.464	-61.948	0.401	0.169
-347.450	134.379	-0.186	-0.243
-346.435	-22.818	-0.126	-0.077
-345.420	-200.000	0.006	0.294
-344.406	15.862	0.113	-0.090
-343.391	-5.672	-0.096	-0.066
-342.377	213.783	0.210	-0.334
-341.362	256.799	-0.085	0.147
-340.348	-42.875	0.046	0.024
-339.333	0.975	-0.172	0.124
-338.318	-200.000	0.072	-0.338
-337.304	383.821	-0.015	-0.031
-336.289	9.901	0.375	-0.286
-335.275	78.286	0.210	0.226
-334.260	73.995	0.180	-0.190
-333.245	-55.460	0.353	-0.159
-332.231	-15.641	-0.315	-0.202
-331.216	-200.000	0.014	-0.245
-330.202	-200.000	-0.063	-0.303
-329.187	-75.093	0.210	-0.076
-328.172	-53.693	-0.090	-0.041
-327.158	-96.690	-0.139	0.037
-326.143	-71.652	-0.332	-0.125
-325.129	186.011	0.119	0.178
-324.114	-200.000	0.028	0.142
-323.099	-200.000	0.053	-0.248
-322.085	-200.000	0.040	-0.193
-321.070	-50.922	0.302	0.143
-320.056	105.653	0.285	-0.339
-319.041	-85.528	-0.503	-0.157
-318.026	800.000	0.075	-0.215
-317.012	-95.811	-0.129	-0.035
-315.997	-57.995	-0.124	-0.054
-314.983	-37.477	-0.011	-0.006
-313.968	-77.561	-0.371	0.129
-312.953	-92.303	0.213	0.060
-311.939	3.906	-0.296	0.217
-310.924	-72.396	0.094	0.035
-309.910	-200.000	-0.006	-0.132
-308.895	-200.000	0.010	0.079
-307.880	800.000	-0.112	0.357
-306.866	-51.415	-0.078	0.036
-305.851	-41.551	0.357	-0.184
-304.837	79.924	0.239	-0.258
-303.822	800.000	-0.034	-0.144
-302.807	-200.000	-0.065	-0.366
-301.793	93.246	0.142	-0.161
-300.778	192.236	0.088	0.134
-299.764	-29.482	-0.086	-0.049
-298.749	148.623	-0.149	0.202
-297.735	-79.730	-0.265	-0.090
-296.720	-137.796	-0.114	-0.013
-295.705	-148.210	-0.291	-0.024
-294.691	10.809	-0.077	-0.059
-293.676	133.627	0.317	-0.413
-292.662	-16.401	0.060	0.039
-291.647	-66.047	-0.248	-0.099
-290.632	-200.000	0.004	0.025
-289.618	564.694	0.067	-0.163
-288.603	800.000	0.022	-0.084
-287.589	78.753	0.129	-0.138
-286.574	-129.930	-0.154	0.021
-285.559	352.271	-0.099	-0.197
-284.545	719.576	-0.041	-0.108
-283.530	69.850	0.273	0.283
-282.516	299.139	0.004	-0.008
-281.501	-200.000	0.022	0.097
-280.486	-3.765	0.516	-0.360
-279.472	27.966	-0.173	-0.146
-278.457	-34.447	-0.094	0.052
-277.443	6.679	0.095	0.071
-276.428	-128.514	-0.277	-0.039
-275.413	800.000	-0.066	0.258
-274.399	306.750	0.200	0.374
-273.384	60.280	-0.095	0.094
-272.370	-200.000	0.041	0.242
-271.355	-22.733	-0.206	0.125
-270.340	-102.577	-0.103	0.025
-269.326	19.294	0.275	-0.222
-268.311	5.012	0.091	0.067
-267.297	-200.000	-0.002	-0.153
-266.282	-149.352	-0.112	-0.009
-265.267	424.273	-0.169	-0.365
-264.253	800.000	-0.068	-0.268
-263.238	472.639	-0.120	-0.271
-262.224	-8.869	-0.068	-0.046
-261.209	-200.000	-0.020	-0.305
-260.195	-200.000	0.006	0.222
-259.180	-200.000	-0.034	0.402
-258.165	-200.000	0.005	0.056
-257.151	4.655	0.187	0.138
-256.136	800.000	-0.054	0.187
-255.122	-200.000	-0.007	0.200
-254.107	-25.041	-0.330	-0.196
-253.092	-200.000	-0.021	0.134
-252.078	800.000	-0.049	-0.139
-251.063	696.004	0.072	0.188
-250.049	800.000	0.063	-0.183
-249.034	564.413	0.112	0.273
-248.019	432.139	-0.131	0.284
-247.005	215.060	-0.160	0.254
-245.990	304.319	-0.078	0.146
-244.976	800.000	0.023	-0.083
-243.961	-6.721	0.162	0.110
-242.946	134.468	0.193	0.251
-241.932	64.590	-0.285	-0.288
-240.917	-87.789	-0.471	-0.142
-239.903	-172.777	0.055	0.002
-238.888	-200.000	-0.049	-0.329
-237.873	-45.568	0.211	-0.105
-236.859	60.775	-0.227	0.226
-235.844	32.982	0.156	0.136
-234.830	-136.573	0.171	-0.020
-233.815	800.000	-0.059	-0.211
-232.800	-118.898	0.273	-0.048
-231.786	203.570	-0.139	0.216
-230.771	139.224	-0.158	0.208
-229.757	-76.906	-0.266	0.093
-228.742	94.043	-0.231	0.262
-227.727	-110.976	-0.287	0.059
-226.713	-200.000	-0.012	0.334
-225.698	-79.540	0.284	-0.096
-224.684	-200.000	0.023	0.192
-223.669	-107.884	-0.313	0.068
-222.655	800.000	0.038	-0.133
-221.640	-45.063	0.197	0.098
-220.625	-169.321	0.082	0.003
-219.611	-152.257	0.397	0.029
-218.596	-142.470	0.067	0.007
-217.582	-43.161	-0.133	-0.068
-216.567	99.821	-0.205	-0.238
-215.552	-200.000	0.002	0.442
-214.538	26.556	-0.123	0.103
-213.523	-200.000	0.001	-0.065
-212.509	800.000	0.165	0.459
-211.494	522.715	0.123	-0.289
-210.479	-63.799	-0.173	0.071
-209.465	299.793	0.172	0.317
-208.450	-133.212	0.328	0.041
-207.436	-24.640	0.145	0.086
-206.421	131.381	0.003	-0.004
-205.406	-177.865	-0.244	0.006
-204.392	173.078	-0.124	-0.179
-203.377	130.594	0.073	-0.094
-202.363	-200.000	0.058	-0.485
-201.348	234.167	0.131	0.216
-200.333	-22.603	-0.310	0.188
-199.319	-200.000	-0.021	0.264
-198.304	-11.450	-0.371	0.244
-197.290	716.910	-0.063	-0.168
-196.275	-200.000	-0.004	-0.133
-195.260	527.009	0.098	0.232
-194.246	-64.183	0.283	-0.115
-193.231	266.185	-0.071	0.124
-192.217	50.366	-0.171	-0.162
-191.202	-200.000	0.001	-0.125
-190.187	800.000	-0.054	-0.195
-189.173	-92.732	0.144	0.040
-188.158	-161.553	0.438	0.022
-187.144	-200.000	0.043	0.223
-186.129	-112.263	0.466	-0.094
-185.114	-83.275	-0.265	0.085
-184.100	362.692	0.131	-0.263
-183.085	800.000	0.115	-0.337
-182.071	106.986	-0.135	0.160
-181.056	-109.630	-0.069	0.015
-180.042	29.910	0.061	-0.052
-179.027	-200.000	-0.012	-0.155
-178.012	-63.285	0.442	0.182
-176.998	83.798	-0.172	-0.188
-175.983	91.011	0.251	0.281
-174.969	-159.607	0.304	0.017
-173.954	132.381	0.172	0.221
-172.939	24.538	-0.159	0.132
-171.925	426.389	-0.084	0.180
-170.910	-75.962	0.238	0.084
-169.896	193.587	0.114	0.173
-168.881	-32.318	-0.077	-0.043
-167.866	-200.000	-0.022	0.177
-166.852	-169.745	0.105	0.004
-165.837	57.876	0.222	-0.217
-164.823	-176.765	0.142	-0.004
-163.808	-51.905	0.140	0.065
-162.793	572.880	-0.144	0.351
-161.779	800.000	-0.079	0.224
-160.764	800.000	0.048	0.144
-159.750	9.751	0.193	0.146
-158.735	214.701	-0.109	-0.173
-157.720	156.840	0.186	-0.256
-156.706	-200.000	0.025	-0.479
-155.691	-17.103	0.225	-0.142
-154.677	800.000	-0.093	-0.329
-153.662	50.808	-0.231	-0.218
-152.647	174.161	0.204	0.295
-151.633	-105.083	0.249	0.057
-150.618	335.469	0.057	-0.111
-149.604	-200.000	-0.106	0.468
-148.589	-200.000	0.064	0.294
-147.574	800.000	-0.051	-0.200
-146.560	-39.186	0.055	-0.029
-145.545	-83.959	-0.081	0.026
-144.531	334.120	0.120	-0.232
-143.516	-82.568	0.200	0.065
-142.502	141.907	-0.106	-0.141
-141.487	-200.000	-0.008	-0.046
-140.472	51.439	0.193	-0.183
-139.458	-97.585	0.158	0.041
-138.443	110.773	-0.129	0.155
-137.429	-200.000	0.008	0.106
-136.414	41.761	-0.270	-0.245
-135.399	-103.917	0.031	-0.007
-134.385	116.733	-0.146	0.179
-133.370	-66.029	-0.388	-0.155
-132.356	-143.330	0.365	-0.035
-131.341	800.000	-0.036	0.151
-130.326	-92.549	-0.278	-0.078
-129.312	-200.000	0.017	-0.320
-128.297	-38.758	-0.073	-0.039
-127.283	800.000	-0.060	0.198
-126.268	510.804	-0.125	-0.291
-125.253	428.795	0.109	-0.236
-124.239	-162.930	0.078	0.004
-123.224	331.260	0.075	0.145
-122.210	-131.030	-0.045	0.006
-121.195	495.015	0.091	0.209
-120.180	-200.000	0.023	-0.265
-119.166	800.000	0.058	0.192
-118.151	137.330	0.092	0.121
-117.137	-22.133	0.196	-0.119
-116.122	136.442	0.089	-0.116
-115.107	-75.141	0.306	0.109
-114.093	132.268	0.080	0.103
-113.078	-98.237	0.187	0.048
-112.064	674.720	0.072	0.188
-111.049	171.541	0.184	0.264
-110.034	471.050	0.092	0.207
-109.020	-94.938	-0.132	-0.036
-108.005	-110.274	0.402	-0.083
-106.991	-200.000	0.001	-0.252
-105.976	-95.989	-0.025	0.007
-104.962	-125.077	-0.084	0.013
-103.947	-52.803	-0.191	-0.088
-102.932	-1.100	-0.146	-0.103
-101.918	-75.785	0.382	0.135
-100.903	138.151	0.039	0.051
-99.889	-99.292	0.233	-0.059
-98.874	0.086	0.044	-0.032
-97.859	-1.048	-0.336	-0.237
-96.845	73.694	0.075	-0.078
-95.830	-200.000	0.028	-0.185
-94.816	800.000	0.092	0.399
-93.801	293.899	0.057	0.104
-92.786	-200.000	-0.011	-0.132
-91.772	-51.567	0.244	0.113
-90.757	-71.247	-0.177	-0.066
-89.743	726.637	-0.051	0.134
-88.728	158.835	-0.255	-0.353
-87.713	56.429	0.161	0.156
-86.699	342.329	0.203	0.395
-85.684	77.653	-0.034	0.036
-84.670	-153.577	0.245	0.017
-83.655	-73.165	0.182	-0.066
-82.640	108.632	0.296	-0.352
-81.626	50.986	0.023	0.022
-80.611	-149.771	0.225	0.018
-79.597	118.956	0.121	0.149
-78.582	178.267	-0.171	0.249
-77.567	206.890	0.212	0.329
-76.553	-134.966	0.585	-0.070
-75.538	315.994	0.162	0.305
-74.524	-134.255	-0.113	0.014
-73.509	-200.000	0.041	0.288
-72.494	-49.688	0.071	-0.033
-71.480	800.000	0.118	-0.351
-70.465	-200.000	0.037	-0.175
-69.451	-11.178	-0.129	0.085
-68.436	-200.000	-0.001	0.444
-67.422	342.703	0.117	0.229
-66.407	-113.799	-0.232	0.045
-65.392	-143.011	-0.235	0.023
-64.378	-187.099	-0.484	0.007
-63.363	113.048	0.267	-0.322
-62.349	602.877	0.135	0.335
-61.334	199.207	-0.815	-1.243
-60.319	-56.897	0.438	0.193
-59.305	703.701	-0.260	-0.683
-58.290	155.376	0.453	0.620
-57.276	800.000	0.445	1.454
-56.261	-200.000	75.739	507.763
-55.246	527.992	1332.694	3128.411
-54.232	143.483	2587.331	3429.033
-53.217	115.785	2248.931	2738.050
-52.203	52.363	1689.611	1604.272
-51.188	44.233	1409.915	1287.384
-50.173	40.605	1363.555	1222.697
-49.159	58.645	1399.324	1367.393
-48.144	65.646	1417.936	1429.010
-47.130	44.559	1380.443	1262.294
-46.115	40.637	1363.733	1222.858
-45.100	40.329	1359.300	1216.947
-44.086	40.240	1356.821	1214.132
-43.071	40.228	1354.323	1211.775
-42.057	40.263	1351.602	1209.507
-41.042	40.276	1349.953	1208.063
-40.027	40.323	1348.565	1207.059
-39.013	40.322	1346.603	1205.248
-37.998	40.379	1344.771	1203.907
-36.984	40.395	1343.260	1202.603
-35.969	40.500	1341.307	1201.444
-34.954	40.533	1339.041	1199.563
-33.940	40.516	1337.861	1198.359
-32.925	40.547	1336.458	1197.242
-31.911	40.568	1334.789	1195.822
-30.896	40.570	1333.600	1194.725
-29.881	40.454	1332.473	1192.968
-28.867	40.390	1331.006	1191.223
-27.852	40.485	1329.179	1190.111
-26.838	40.625	1327.176	1189.109
-25.823	40.638	1325.777	1187.884
-24.809	40.464	1324.956	1186.064
-23.794	40.452	1323.538	1184.674
-22.779	40.517	1321.949	1183.593
-21.765	40.542	1320.534	1182.429
-20.750	40.404	1319.372	1180.521
-19.736	40.421	1317.912	1179.267
-18.721	40.519	1316.642	1178.669
-17.706	40.390	1315.487	1176.818
-16.692	40.328	1314.213	1175.264
-15.677	40.430	1313.137	1174.863
-14.663	40.259	1312.384	1173.130
-13.648	40.353	1311.070	1172.460
-12.633	40.354	1309.896	1171.373
-11.619	40.378	1308.925	1170.597
-10.604	40.308	1308.572	1169.823
-9.590	40.357	1306.944	1168.611
-8.575	40.245	1306.029	1167.087
-7.560	40.334	1305.045	1166.683
-6.546	40.302	1304.241	1165.730
-5.531	40.301	1303.856	1165.335
-4.517	40.228	1302.543	1163.688
-3.502	40.242	1301.507	1162.799
-2.487	40.323	1300.254	1162.106
-1.473	40.372	1297.108	1159.536
-0.458	39.698	1282.741	1142.741
0.556	34.700	1263.175	1105.029
1.571	30.928	1267.602	1086.854
2.586	29.848	1282.301	1092.985
3.600	28.250	1271.282	1074.128
4.615	19.646	1191.366	958.982
5.629	6.486	1104.826	821.076
6.644	0.656	1080.112	772.878
7.659	0.199	1077.022	768.266
8.673	0.066	1075.769	766.626
9.688	-0.049	1074.158	764.823
10.702	0.489	1073.404	766.957
11.717	8.323	1085.941	816.005
12.731	19.456	1101.675	885.181
13.746	22.841	1105.045	905.199
14.761	22.359	1104.219	901.971
15.775	22.269	1103.662	900.977
16.790	21.918	1103.116	898.652
17.804	21.792	1102.124	897.122
18.819	21.939	1101.820	897.545
19.834	21.986	1101.324	897.305
20.848	21.982	1100.916	896.869
21.863	22.142	1099.934	896.811
22.877	22.019	1099.429	895.690
23.892	21.965	1098.598	894.659
24.907	21.925	1097.677	893.627
25.921	22.027	1096.725	893.290
26.936	21.874	1095.773	891.661
27.950	22.016	1093.954	890.820
28.965	21.852	1092.038	888.348
29.980	21.940	1090.400	887.384
30.994	22.102	1089.835	887.663
32.009	22.135	1088.419	886.598
33.023	21.921	1087.153	884.410
34.038	21.954	1086.165	883.695
35.053	22.243	1085.210	884.294
36.067	21.980	1085.004	882.727
37.082	22.126	1083.930	882.507
38.096	22.220	1083.454	882.513
39.111	22.260	1082.881	882.169
40.126	22.062	1081.334	879.839
41.140	21.868	1079.145	877.009
42.155	21.649	1077.890	874.817
43.169	21.704	1076.827	874.152
44.184	21.744	1075.887	873.513
45.199	21.712	1074.704	872.313
46.213	21.632	1074.399	871.594
47.228	21.776	1073.269	871.315
48.242	22.024	1072.104	871.520
49.257	22.095	1071.374	871.205
50.271	22.113	1070.847	870.786
51.286	22.272	1070.254	871.015
52.301	22.145	1069.535	869.727
53.315	22.160	1068.144	868.593
54.330	22.067	1067.197	867.284
55.344	22.126	1066.644	867.049
56.359	22.124	1064.972	865.604
57.374	21.767	1064.571	863.444
58.388	21.862	1063.859	863.256
59.403	21.776	1062.800	861.897
60.417	21.583	1061.768	860.037
61.432	21.709	1061.359	860.251
62.447	21.933	1060.551	860.618
63.461	21.891	1059.892	859.801
64.476	21.716	1058.906	858.065
65.490	21.765	1057.993	857.493
66.505	21.883	1056.907	857.113
67.520	21.836	1056.545	856.512
68.534	21.621	1055.576	854.602
69.549	21.440	1054.175	852.507
70.563	21.379	1053.044	851.222
71.578	21.363	1052.270	850.445
72.593	21.193	1051.371	848.816
73.607	21.182	1051.189	848.540
74.622	21.608	1050.658	850.103
75.636	21.754	1049.479	849.785
76.651	21.495	1049.239	848.261
77.666	21.437	1048.530	847.329
78.680	21.535	1047.614	846.991
79.695	21.551	1046.784	846.320
80.709	21.692	1046.219	846.469
81.724	21.618	1045.380	845.357
82.739	21.792	1044.451	845.373
83.753	22.012	1044.035	846.019
84.768	22.291	1043.424	846.796
85.782	22.293	1042.621	846.076
86.797	22.324	1041.136	844.947
87.812	22.079	1040.355	843.063
88.826	22.230	1039.088	842.684
89.841	22.319	1038.694	842.715
90.855	22.412	1037.305	841.962
91.870	22.312	1036.254	840.556
92.884	22.019	1035.717	838.648
93.899	22.092	1034.349	837.813
94.914	22.354	1033.054	837.935
95.928	22.114	1031.999	835.865
96.943	21.923	1030.989	834.063
97.957	21.596	1029.616	831.330
98.972	21.506	1028.887	830.239
99.987	21.733	1028.004	830.527
101.001	21.952	1027.377	830.988
102.016	21.930	1026.451	830.059
103.030	21.893	1025.422	828.980
104.045	21.712	1024.546	827.343
105.060	21.601	1023.572	825.958
106.074	21.761	1023.054	826.222
107.089	22.149	1022.537	827.562
108.103	22.007	1021.360	825.868
109.118	21.710	1019.806	823.140
110.133	21.885	1018.461	822.802
111.147	21.686	1017.267	820.834
112.162	21.450	1016.695	819.197
113.176	21.670	1016.293	819.829
114.191	21.597	1015.387	818.683
115.206	21.372	1014.116	816.537
116.220	21.416	1013.016	815.783
117.235	21.560	1012.407	815.894
118.249	21.446	1011.654	814.680
119.264	21.398	1010.770	813.672
120.279	21.531	1009.672	813.336
121.293	21.603	1009.075	813.120
122.308	21.610	1008.138	812.321
123.322	21.603	1006.674	811.040
124.337	21.357	1005.819	809.140
125.352	20.762	1004.172	804.993
126.366	20.864	1003.056	804.497
127.381	21.637	1002.806	807.795
128.395	21.988	1002.764	809.309
129.410	22.062	1001.727	808.738
130.424	21.925	1000.848	807.327
131.439	22.056	999.631	806.877
132.454	22.025	999.207	806.322
133.468	21.932	998.285	805.078
134.483	22.060	997.283	804.788
135.497	22.322	996.719	805.457
136.512	22.342	995.823	804.757
137.527	22.355	995.214	804.254
138.541	22.313	994.474	803.392
139.556	22.308	993.374	802.407
140.570	22.409	992.605	802.175
141.585	22.441	991.227	801.138
142.600	22.456	990.152	800.268
143.614	22.509	989.599	799.991
144.629	22.596	988.859	799.713
145.643	22.458	987.840	798.195
146.658	22.290	986.069	795.931
147.673	22.113	985.379	794.505
148.687	22.083	984.080	793.250
149.702	22.054	982.987	792.172
150.716	22.036	982.149	791.345
151.731	22.099	981.261	790.842
152.746	22.298	980.758	791.263
153.760	22.361	980.139	790.975
154.775	22.368	979.637	790.531
155.789	22.524	978.504	790.249
156.804	22.401	977.811	789.066
157.819	22.366	977.053	788.229
158.833	22.559	976.182	788.320
159.848	22.397	975.267	786.788
160.862	22.332	973.990	785.397
161.877	22.466	972.933	785.070
162.892	22.449	971.884	784.080
163.906	22.500	970.439	783.073
164.921	22.401	969.846	782.086
165.935	22.463	968.820	781.462
166.950	22.435	967.871	780.503
167.964	22.407	967.310	779.860
168.979	22.232	966.127	778.064
169.994	22.233	964.813	776.941
171.008	22.611	964.633	778.393
172.023	22.546	963.767	777.339
173.037	22.268	962.659	775.155
174.052	22.067	961.670	773.405
175.067	22.166	960.904	773.154
176.081	22.348	960.181	773.303
177.096	22.230	959.892	772.484
178.110	21.958	958.745	770.301
179.125	21.675	957.869	768.284
180.140	21.764	957.572	768.371
181.154	21.912	957.393	768.806
182.169	22.308	956.800	769.994
183.183	22.461	956.356	770.239
184.198	22.300	955.491	768.773
185.213	22.429	954.601	768.552
186.227	22.342	954.487	768.013
187.242	22.530	953.370	767.865
188.256	22.431	952.800	766.906
189.271	22.636	951.914	767.016
190.286	22.364	950.403	764.551
191.300	21.650	949.292	760.489
192.315	20.801	948.149	755.824
193.329	20.840	947.380	755.312
194.344	21.685	948.122	759.504
195.359	22.226	947.899	761.600
196.373	22.297	947.350	761.401
197.388	22.226	946.435	760.287
198.402	22.100	946.245	759.527
199.417	22.375	945.151	759.769
200.432	21.984	944.280	757.313
201.446	21.933	943.096	756.078
202.461	22.025	942.475	755.907
203.475	21.100	940.927	750.622
204.490	20.417	939.008	746.091
205.504	21.284	939.822	750.401
206.519	21.931	939.734	753.041
207.534	21.903	939.374	752.562
208.548	22.427	938.888	754.356
209.563	22.107	938.163	752.336
210.577	22.139	937.911	752.204
211.592	22.527	937.148	753.184
212.607	22.519	935.854	752.042
213.621	22.530	935.569	751.794
214.636	22.502	935.078	751.212
215.650	22.578	933.830	750.470
216.665	22.670	933.124	750.224
217.680	22.559	932.551	749.226
218.694	22.046	931.684	746.283
219.709	21.836	930.750	744.580
220.723	22.226	930.314	745.818
221.738	22.368	929.860	745.992
222.753	22.321	929.110	745.124
223.767	22.373	928.919	745.123
224.782	22.584	928.373	745.513
225.796	22.654	927.647	745.162
226.811	21.991	926.410	741.301
227.826	21.279	924.962	737.076
228.840	21.398	924.512	737.152
229.855	21.559	923.308	736.804
230.869	21.210	922.875	734.926
231.884	21.635	923.030	736.774
232.899	22.369	922.406	739.294
233.913	22.308	921.611	738.336
234.928	22.247	921.144	737.642
235.942	22.187	920.440	736.763
236.957	21.953	919.704	735.125
237.972	21.969	919.071	734.620
238.986	21.917	918.522	733.901
240.001	22.175	917.533	734.125
241.015	22.086	917.656	733.786
242.030	22.230	917.123	733.894
243.045	22.180	916.475	733.103
244.059	22.555	915.698	733.980
245.074	22.223	915.194	732.129
246.088	21.992	913.961	730.116
247.103	22.205	913.346	730.446
248.117	22.852	913.202	732.954
249.132	22.825	913.231	732.799
250.147	23.114	912.907	733.674
251.161	23.052	912.306	732.867
252.176	23.170	911.476	732.624
253.190	23.098	911.146	731.997
254.205	23.270	910.802	732.367
255.220	23.244	909.661	731.276
256.234	23.166	909.014	730.371
257.249	23.077	907.891	729.035
258.263	23.106	907.545	728.816
259.278	23.137	907.113	728.529
260.293	23.189	906.143	727.902
261.307	23.044	905.674	726.865
262.322	23.072	904.697	726.130
263.336	22.244	902.659	721.036
264.351	21.196	900.826	715.216
265.366	21.217	900.649	715.101
266.380	22.325	901.308	720.098
267.395	22.793	900.902	721.624
268.409	22.854	899.787	720.915
269.424	23.068	899.283	721.322
270.439	22.995	899.083	720.800
271.453	22.998	898.539	720.313
272.468	23.187	898.419	720.919
273.482	23.259	897.699	720.571
274.497	22.943	896.271	718.080
275.512	22.504	895.149	715.332
276.526	23.034	894.895	717.219
277.541	22.986	894.934	716.991
278.555	22.699	894.702	715.579
279.570	22.774	893.055	714.502
280.585	22.938	892.468	714.632
281.599	22.946	891.538	713.856
282.614	22.447	890.073	710.609
283.628	22.243	890.455	710.027
284.643	22.697	889.491	711.024
285.657	22.235	888.529	708.331
286.672	21.948	887.847	706.570
287.687	22.594	887.953	709.191
288.701	22.617	887.072	708.516
289.716	22.265	886.298	706.423
290.730	22.254	885.769	705.896
291.745	21.974	884.965	704.068
292.760	22.262	884.742	704.985
293.774	23.283	885.048	709.256
294.789	23.660	884.714	710.437
295.803	23.555	884.280	709.606
296.818	23.557	883.694	709.079
297.833	23.216	882.195	706.452
298.847	23.014	881.904	705.353
299.862	23.341	881.596	706.347
300.876	23.575	881.342	707.014
301.891	23.496	880.143	705.673
302.906	23.132	879.162	703.377
303.920	23.106	879.344	703.358
304.935	23.432	879.033	704.342
305.949	23.424	878.198	703.578
306.964	23.283	877.512	702.408
307.979	23.337	877.079	702.216
308.993	23.604	877.083	703.213
310.008	23.639	875.976	702.401
311.022	23.432	875.221	700.915
312.037	23.310	874.326	699.656
313.052	22.982	873.353	697.521
314.066	22.305	871.808	693.558
315.081	21.713	871.482	690.902
316.095	22.724	871.749	695.038
317.110	23.201	871.580	696.721
318.125	22.356	870.030	692.098
319.139	21.403	868.484	687.063
320.154	21.416	867.888	686.582
321.168	22.324	868.367	690.464
322.183	23.000	868.835	693.431
323.197	23.035	868.657	693.362
324.212	23.264	868.002	693.678
325.227	23.331	866.988	693.069
326.241	23.246	866.652	692.405
327.256	23.164	865.550	691.145
328.270	22.976	865.205	690.071
329.285	22.924	864.342	689.121
330.300	22.603	863.485	687.124
331.314	22.910	863.099	687.955
332.329	23.282	863.046	689.300
333.343	23.512	862.557	689.741
334.358	23.372	862.409	689.016
335.373	23.506	861.881	689.054
336.387	23.714	861.964	689.871
337.402	23.848	862.006	690.362
338.416	23.723	861.294	689.247
339.431	23.805	861.007	689.273
340.446	23.953	860.813	689.632
341.460	23.918	860.052	688.822
342.475	23.703	859.074	687.149
343.489	23.825	859.012	687.510
344.504	24.124	858.863	688.487
345.519	24.346	858.489	688.984
346.533	24.234	857.855	687.980
347.548	24.224	857.585	687.664
348.562	24.064	856.924	686.455
349.577	24.108	856.274	686.046
350.592	24.097	855.697	685.479
351.606	24.156	854.860	684.976
352.621	23.835	854.358	683.279
353.635	23.800	853.215	682.170
354.650	23.303	851.778	679.056
355.665	22.485	849.961	674.415
356.679	22.744	849.984	675.366
357.694	23.427	849.493	677.530
358.708	23.008	849.430	675.815
359.723	23.593	849.044	677.683
360.738	23.714	848.777	677.874
361.752	23.934	848.340	678.302
362.767	24.195	847.887	678.876
363.781	24.415	847.412	679.271
364.796	24.638	847.102	679.814
365.810	24.589	846.575	679.141
366.825	24.465	846.349	678.428
367.840	24.249	845.600	676.948
368.854	23.915	844.294	674.577
369.869	23.966	844.113	674.565
370.883	23.992	843.490	674.106
371.898	23.802	843.332	673.202
372.913	23.973	842.755	673.327
373.927	24.078	842.516	673.476
374.942	24.061	842.529	673.363
375.956	24.277	841.503	673.298
376.971	24.347	841.098	673.179
377.986	24.524	840.885	673.614
379.000	24.480	840.323	672.940
380.015	24.387	839.572	671.929
381.029	24.391	839.319	671.681
382.044	24.465	838.661	671.376
383.059	24.457	837.954	670.719
384.073	24.490	837.618	670.516
385.088	24.471	836.857	669.775
386.102	24.289	836.094	668.421
387.117	24.190	835.590	667.590
388.132	23.916	834.124	665.337
389.146	23.553	833.116	663.115
390.161	23.878	833.028	664.201
391.175	24.251	833.106	665.599
392.190	23.998	832.057	663.755
393.205	22.646	829.871	656.922
394.219	21.159	828.443	650.200
395.234	20.976	828.219	649.285
396.248	22.707	829.206	656.449
397.263	24.105	830.374	662.520
398.278	23.957	830.101	661.693
399.292	23.742	829.099	660.037
400.307	23.855	828.677	660.062
401.321	23.911	828.239	659.861
402.336	24.296	828.544	661.476
403.350	24.736	827.718	662.387
404.365	25.067	827.517	663.392
405.380	25.176	827.390	663.638
406.394	25.243	826.882	663.416
407.409	25.256	826.149	662.818
408.423	25.109	825.687	661.847
409.438	25.131	825.968	662.095
410.453	25.221	825.246	661.789
411.467	25.166	824.826	661.193
412.482	25.198	824.025	660.610
413.496	25.372	823.707	660.935
414.511	25.335	823.426	660.515
415.526	25.328	822.903	660.013
416.540	25.132	822.168	658.644
417.555	24.847	821.491	656.998
418.569	24.849	821.250	656.755
419.584	24.991	820.453	656.581
420.599	24.674	819.891	654.909
421.613	93.801	1263.199	1380.929
422.628	80.799	1327.783	1381.072
