DTS Sentinel unit serial number:	SN413079Multiplexer serial number:	ORYXHardware model number:	OX4-SRSoftware version number:	ORYX F/W v4.00 Oryx Data Collector v3.7.2.0data status	okinstallation	princeton_trtdifferential loss correction	single-endedforward channel	channel 1reverse channel	N/Adate	2019/09/12time	02:32:11forward acquisition time	60.00reverse acquisition time	0.00gamma	496.2192k internal	0.2322k external	0.2322temperature offset calibration	1.0079default loss term (dB/km)	0.3790temperature slope calibration	1.0000multiplexer offset coefficient	1.0000multiplexer slope coefficient	1.0000fibre end	0.00T internal ref (°C)	32.44T ext. ref 1 (°C)	2.05T ext. ref 2 (°C)	27.26length (m)	temperature (°C)	Stokes	anti-Stokes-747.200	800.000	-0.030	0.129
-746.185	-200.000	-0.063	-0.431
-745.171	184.407	-0.074	-0.110
-744.156	232.447	-0.212	0.352
-743.142	-50.372	-0.372	-0.177
-742.127	-13.580	-0.063	0.042
-741.112	-29.408	0.043	0.025
-740.098	104.643	-0.266	0.317
-739.083	134.470	-0.239	-0.313
-738.069	353.622	0.209	0.418
-737.054	26.400	0.292	0.247
-736.039	-200.000	0.034	0.207
-735.025	201.120	0.143	0.222
-734.010	800.000	-0.047	0.181
-732.996	800.000	0.042	-0.180
-731.981	-84.486	0.240	-0.076
-730.966	299.892	0.021	-0.039
-729.952	-22.807	-0.103	-0.063
-728.937	145.181	-0.155	-0.210
-727.923	139.880	-0.051	-0.068
-726.908	800.000	-0.090	-0.263
-725.894	100.592	-0.321	-0.377
-724.879	-161.649	-0.282	0.015
-723.864	-114.828	-0.165	0.032
-722.850	-200.000	-0.007	-0.056
-721.835	-181.716	-0.171	-0.003
-720.821	-129.235	-0.076	-0.011
-719.806	-108.457	0.304	-0.066
-718.791	737.906	-0.127	-0.344
-717.777	-184.007	-0.153	-0.003
-716.762	-109.139	-0.262	-0.056
-715.748	576.269	-0.022	-0.054
-714.733	-70.075	0.139	0.053
-713.718	-123.808	0.231	-0.037
-712.704	52.518	0.244	0.235
-711.689	42.981	-0.199	-0.183
-710.675	800.000	-0.029	-0.124
-709.660	-112.009	-0.282	0.057
-708.645	399.450	0.151	0.320
-707.631	-146.564	0.302	0.027
-706.616	17.767	-0.349	-0.280
-705.602	18.399	-0.242	0.195
-704.587	-147.288	-0.301	-0.026
-703.572	-200.000	0.042	-0.368
-702.558	89.736	0.171	-0.192
-701.543	8.753	-0.123	-0.093
-700.529	800.000	-0.054	-0.179
-699.514	114.166	-0.173	0.212
-698.499	-185.996	-0.259	-0.004
-697.485	-38.707	-0.052	-0.028
-696.470	-130.815	-0.420	-0.057
-695.456	800.000	0.096	0.321
-694.441	232.615	-0.196	0.324
-693.426	179.403	0.211	-0.311
-692.412	-200.000	-0.003	0.101
-691.397	-151.154	0.351	0.027
-690.383	-200.000	0.032	-0.274
-689.368	-177.857	-0.291	-0.007
-688.354	-200.000	0.002	0.036
-687.339	-83.748	0.399	0.128
-686.324	-89.103	-0.315	-0.094
-685.310	167.368	-0.167	-0.239
-684.295	59.166	-0.104	-0.104
-683.281	64.292	-0.034	0.034
-682.266	-44.537	0.223	-0.113
-681.251	800.000	-0.019	0.080
-680.237	707.680	0.035	0.093
-679.222	-48.658	-0.151	0.073
-678.208	-200.000	-0.006	0.089
-677.193	800.000	0.060	-0.215
-676.178	444.262	-0.120	-0.265
-675.164	-33.489	0.232	-0.129
-674.149	-200.000	0.041	-0.383
-673.135	-200.000	-0.012	0.204
-672.120	-53.215	-0.126	-0.058
-671.105	705.255	0.021	-0.057
-670.091	800.000	0.047	-0.197
-669.076	-20.043	-0.184	0.114
-668.062	-140.127	0.070	-0.007
-667.047	-200.000	-0.020	-0.149
-666.032	-200.000	-0.028	0.124
-665.018	-118.372	-0.350	0.063
-664.003	230.586	-0.028	0.046
-662.989	800.000	-0.068	-0.292
-661.974	-9.614	0.192	0.129
-660.959	-200.000	-0.053	0.309
-659.945	134.534	0.144	0.188
-658.930	800.000	-0.055	0.228
-657.916	246.974	0.103	0.174
-656.901	-30.183	-0.322	0.184
-655.886	-200.000	0.528	0.000
-654.872	38.177	0.199	0.179
-653.857	800.000	-0.126	0.394
-652.843	433.106	0.089	-0.194
-651.828	23.844	0.042	-0.035
-650.814	492.638	0.088	-0.204
-649.799	-82.099	-0.180	-0.059
-648.784	433.188	-0.080	0.174
-647.770	-200.000	0.014	-0.097
-646.755	800.000	0.033	0.142
-645.741	-110.561	-0.222	-0.046
-644.726	355.999	-0.105	-0.210
-643.711	18.632	0.065	0.053
-642.697	90.264	0.201	-0.227
-641.682	-200.000	-0.023	-0.546
-640.668	-200.000	-0.058	-0.350
-639.653	133.316	-0.066	0.085
-638.638	91.117	-0.375	-0.423
-637.624	-28.227	0.067	0.039
-636.609	-111.631	-0.322	-0.066
-635.595	-134.367	0.220	0.027
-634.580	-82.719	0.179	0.058
-633.565	-200.000	-0.012	0.254
-632.551	800.000	-0.009	0.028
-631.536	-83.929	0.146	-0.047
-630.522	-200.000	0.011	-0.384
-629.507	-19.060	-0.173	0.108
-628.492	-75.325	-0.137	0.049
-627.478	800.000	0.076	0.232
-626.463	-104.968	-0.164	0.038
-625.449	70.167	0.178	0.185
-624.434	0.677	0.212	0.153
-623.419	-200.000	0.026	-0.121
-622.405	-2.541	-0.362	0.255
-621.390	-200.000	0.014	-0.115
-620.376	-31.044	-0.149	0.084
-619.361	-200.000	-0.045	-0.205
-618.346	109.752	0.288	-0.347
-617.332	800.000	-0.054	0.160
-616.317	-93.822	0.196	0.054
-615.303	-60.951	-0.451	-0.192
-614.288	-200.000	0.027	-0.329
-613.273	-200.000	0.019	0.133
-612.259	14.786	-0.083	0.065
-611.244	187.273	0.023	-0.034
-610.230	-54.136	-0.216	0.099
-609.215	-79.174	0.064	-0.022
-608.201	-4.749	0.183	-0.127
-607.186	-163.267	0.164	0.008
-606.171	800.000	-0.051	0.186
-605.157	-94.324	0.254	0.070
-604.142	-32.147	-0.085	0.048
-603.128	274.277	-0.110	0.195
-602.113	198.925	-0.090	0.139
-601.098	40.516	0.281	-0.255
-600.084	-200.000	-0.045	0.293
-599.069	126.212	0.097	0.124
-598.055	-44.252	0.099	-0.050
-597.040	-67.746	0.139	0.055
-596.025	-137.352	0.288	0.033
-595.011	4.760	0.199	0.147
-593.996	-38.235	0.137	-0.073
-592.982	-200.000	-0.009	0.069
-591.967	143.369	-0.234	-0.313
-590.952	80.529	0.106	0.114
-589.938	237.933	0.020	-0.034
-588.923	-59.412	-0.062	0.027
-587.909	461.977	-0.077	0.172
-586.894	773.758	0.057	-0.155
-585.879	-94.944	-0.395	-0.107
-584.865	-119.589	-0.098	-0.017
-583.850	46.015	-0.050	-0.047
-582.836	126.909	0.074	-0.094
-581.821	20.459	0.241	0.196
-580.806	45.118	-0.148	0.137
-579.792	-65.365	0.287	-0.116
-578.777	135.265	-0.161	0.210
-577.763	-12.996	0.325	0.212
-576.748	170.266	-0.068	-0.098
-575.733	-200.000	0.025	-0.129
-574.719	456.855	-0.087	0.194
-573.704	424.621	0.082	-0.178
-572.690	-56.858	0.222	0.098
-571.675	240.693	-0.051	0.085
-570.661	75.162	-0.066	0.070
-569.646	-20.672	0.042	-0.026
-568.631	97.130	0.182	0.209
-567.617	-103.695	-0.262	-0.062
-566.602	-140.610	0.124	0.013
-565.588	-200.000	0.039	-0.422
-564.573	131.532	0.128	-0.165
-563.558	111.430	0.081	-0.098
-562.544	-18.509	0.310	-0.194
-561.529	-200.000	-0.029	0.293
-560.515	31.119	0.240	0.207
-559.500	-68.959	0.234	0.090
-558.485	-71.068	-0.338	-0.127
-557.471	-200.000	0.045	-0.282
-556.456	-53.324	0.101	0.046
-555.442	242.745	0.221	0.372
-554.427	81.325	0.208	0.225
-553.412	-159.351	-0.131	-0.007
-552.398	253.664	0.069	-0.119
-551.383	-80.288	-0.099	-0.033
-550.369	-40.667	0.101	-0.053
-549.354	800.000	0.112	0.333
-548.339	-103.593	-0.408	0.096
-547.325	-200.000	0.030	0.326
-546.310	56.226	0.118	-0.115
-545.296	-5.454	-0.344	0.237
-544.281	10.720	-0.041	0.031
-543.266	98.310	-0.115	-0.133
-542.252	800.000	0.087	0.316
-541.237	-200.000	-0.015	0.134
-540.223	-97.301	-0.123	-0.032
-539.208	-200.000	-0.086	-0.535
-538.193	50.328	0.067	0.063
-537.179	29.943	-0.200	0.170
-536.164	-100.442	0.136	0.034
-535.150	17.036	-0.066	-0.053
-534.135	182.970	-0.116	0.171
-533.121	800.000	0.072	-0.291
-532.106	-120.121	-0.017	-0.003
-531.091	-108.178	-0.204	-0.044
-530.077	-200.000	0.000	-0.091
-529.062	-116.871	0.228	-0.042
-528.048	-200.000	-0.020	0.284
-527.033	422.878	0.106	0.229
-526.018	-200.000	-0.046	0.296
-525.004	800.000	-0.042	0.183
-523.989	-34.362	0.313	0.172
-522.975	690.396	-0.130	0.340
-521.960	-200.000	-0.032	-0.310
-520.945	-46.748	0.116	-0.057
-519.931	11.518	-0.357	-0.274
-518.916	-15.179	-0.233	-0.150
-517.902	35.184	-0.115	-0.101
-516.887	-14.997	0.392	-0.252
-515.872	-111.394	-0.248	0.051
-514.858	-200.000	0.012	-0.118
-513.843	-63.360	0.046	0.019
-512.829	242.742	0.104	0.174
-511.814	23.581	0.046	0.038
-510.799	-35.870	-0.302	0.164
-509.785	-148.542	0.398	-0.033
-508.770	85.344	0.175	0.192
-507.756	-28.556	0.068	0.039
-506.741	310.749	0.105	-0.197
-505.726	-200.000	0.006	0.216
-504.712	-200.000	-0.014	-0.067
-503.697	44.328	-0.156	-0.144
-502.683	159.569	0.057	0.080
-501.668	159.252	0.067	0.093
-500.653	45.003	-0.151	0.140
-499.639	30.934	0.360	-0.309
-498.624	-110.792	-0.162	-0.033
-497.610	328.889	-0.131	0.251
-496.595	6.848	0.022	-0.017
-495.581	800.000	-0.029	-0.089
-494.566	-105.061	0.174	0.040
-493.551	800.000	0.053	-0.200
-492.537	-83.550	-0.331	0.106
-491.522	-200.000	-0.020	-0.212
-490.508	-105.117	0.378	0.087
-489.493	-182.203	0.112	0.002
-488.478	480.573	-0.074	-0.169
-487.464	37.813	-0.165	0.146
-486.449	-200.000	-0.008	0.214
-485.435	-200.000	-0.035	-0.275
-484.420	-44.194	0.124	-0.062
-483.405	-200.000	-0.009	0.381
-482.391	-105.343	0.121	0.028
-481.376	106.117	-0.153	-0.181
-480.362	310.420	-0.055	-0.102
-479.347	-108.322	-0.191	0.041
-478.332	-64.461	0.232	-0.094
-477.318	-27.262	0.243	0.141
-476.303	94.715	-0.162	-0.184
-475.289	-67.867	-0.275	0.108
-474.274	753.090	-0.081	-0.218
-473.259	198.966	-0.180	0.275
-472.245	277.458	-0.120	-0.213
-471.230	-119.171	0.088	-0.015
-470.216	-200.000	0.016	0.163
-469.201	-200.000	0.011	-0.267
-468.186	11.806	-0.094	0.072
-467.172	-49.417	-0.151	0.072
-466.157	109.895	0.033	0.039
-465.143	-200.000	0.004	0.521
-464.128	255.613	-0.056	-0.097
-463.113	-200.000	-0.038	-0.336
-462.099	51.777	0.365	-0.347
-461.084	85.884	-0.040	0.044
-460.070	-21.548	0.097	0.059
-459.055	17.166	0.234	0.185
-458.040	7.177	-0.198	-0.148
-457.026	-87.036	-0.074	0.022
-456.011	800.000	-0.068	0.244
-454.997	17.316	0.031	-0.024
-453.982	-138.096	0.055	-0.006
-452.968	-32.528	0.258	-0.144
-451.953	-131.434	0.345	0.046
-450.938	314.126	-0.028	-0.053
-449.924	79.115	-0.122	0.130
-448.909	-120.849	-0.104	0.018
-447.895	-113.865	0.096	-0.019
-446.880	266.961	-0.085	-0.148
-445.865	-89.445	-0.200	0.059
-444.851	92.332	0.215	-0.242
-443.836	89.751	0.093	-0.103
-442.822	-200.000	-0.034	-0.408
-441.807	-101.712	0.172	0.042
-440.792	28.957	-0.130	0.110
-439.778	-93.241	0.399	0.111
-438.763	-159.333	-0.040	-0.002
-437.749	657.806	-0.097	-0.249
-436.734	-200.000	0.000	0.261
-435.719	152.609	-0.097	0.133
-434.705	-6.491	0.232	-0.158
-433.690	-32.898	0.220	0.122
-432.676	-200.000	-0.022	0.335
-431.661	-39.534	-0.240	0.126
-430.646	-2.695	0.152	-0.106
-429.632	-154.234	0.521	0.035
-428.617	-200.000	0.034	-0.477
-427.603	150.897	0.140	-0.189
-426.588	99.359	0.232	-0.268
-425.573	-81.520	0.321	0.105
-424.559	-52.810	0.183	0.084
-423.544	25.253	-0.042	-0.035
-422.530	-49.120	-0.498	0.238
-421.515	14.467	-0.311	-0.242
-420.500	21.622	-0.171	-0.139
-419.486	128.228	0.099	0.126
-418.471	-200.000	-0.015	0.216
-417.457	-189.985	0.085	-0.001
-416.442	-22.947	-0.213	0.128
-415.428	-167.496	0.474	-0.019
-414.413	-44.963	0.157	-0.078
-413.398	-73.940	-0.369	-0.134
-412.384	424.972	-0.095	-0.205
-411.369	-15.238	-0.245	0.156
-410.355	-17.560	-0.045	-0.028
-409.340	116.019	-0.124	0.151
-408.325	-131.959	0.161	-0.021
-407.311	800.000	-0.084	-0.260
-406.296	-200.000	0.064	-0.289
-405.282	115.617	0.086	-0.105
-404.267	800.000	0.046	-0.135
-403.252	-200.000	-0.154	-0.001
-402.238	-200.000	0.047	-0.258
-401.223	-200.000	0.014	-0.279
-400.209	800.000	-0.085	-0.276
-399.194	-186.906	-0.253	0.004
-398.179	118.815	0.196	-0.242
-397.165	-19.428	-0.054	-0.033
-396.150	-13.128	-0.422	0.274
-395.136	187.000	-0.033	0.049
-394.121	-200.000	0.010	0.179
-393.106	474.805	0.092	0.206
-392.092	377.718	0.117	0.239
-391.077	141.569	0.089	-0.117
-390.063	191.789	-0.189	-0.284
-389.048	550.059	0.093	-0.223
-388.033	-110.013	-0.043	-0.009
-387.019	-200.000	-0.046	-0.219
-386.004	-17.672	0.188	-0.118
-384.990	124.692	-0.160	0.200
-383.975	-200.000	0.016	0.178
-382.960	-163.959	0.088	-0.004
-381.946	208.930	-0.133	-0.208
-380.931	-83.590	0.258	0.082
-379.917	-182.701	0.427	0.008
-378.902	1.310	0.165	-0.118
-377.888	27.891	0.077	0.065
-376.873	433.515	0.088	-0.191
-375.858	275.977	-0.167	0.296
-374.844	273.632	-0.052	-0.091
-373.829	6.199	0.052	0.038
-372.815	-37.709	-0.174	0.092
-371.800	617.163	-0.133	0.332
-370.785	708.143	-0.042	0.110
-369.771	-63.135	-0.213	0.087
-368.756	12.806	0.054	-0.041
-367.742	-127.705	0.059	-0.008
-366.727	397.496	-0.099	0.205
-365.712	-186.750	0.298	0.004
-364.698	-115.006	-0.255	0.048
-363.683	800.000	0.045	0.143
-362.669	-66.680	-0.182	-0.072
-361.654	108.178	-0.133	-0.158
-360.639	531.150	-0.094	0.222
-359.625	7.816	-0.036	-0.027
-358.610	98.993	-0.165	-0.190
-357.596	-200.000	-0.050	-0.484
-356.581	-200.000	0.018	-0.410
-355.566	-119.366	-0.317	0.055
-354.552	100.535	-0.099	-0.115
-353.537	-63.759	-0.076	0.031
-352.523	290.646	-0.115	-0.207
-351.508	188.136	-0.121	-0.179
-350.493	-68.998	0.221	0.085
-349.479	-86.449	-0.099	-0.030
-348.464	-63.031	-0.094	-0.039
-347.450	-76.832	0.141	-0.049
-346.435	-110.430	0.033	-0.007
-345.420	-0.036	0.198	-0.140
-344.406	-1.643	0.021	-0.015
-343.391	-200.000	-0.010	-0.153
-342.377	800.000	-0.040	-0.116
-341.362	-200.000	0.027	0.296
-340.348	-190.250	-0.171	0.002
-339.333	224.959	0.060	-0.097
-338.318	-183.664	-0.267	0.005
-337.304	-16.132	0.037	-0.023
-336.289	-172.757	-0.384	-0.012
-335.275	2.157	-0.243	0.175
-334.260	-32.916	-0.114	0.063
-333.245	103.491	-0.069	-0.081
-332.231	-200.000	-0.017	-0.118
-331.216	-67.571	0.139	-0.054
-330.202	-3.990	-0.089	-0.061
-329.187	-200.000	-0.252	0.000
-328.172	-200.000	0.040	0.200
-327.158	395.246	0.090	-0.187
-326.143	203.197	0.127	-0.195
-325.129	-175.966	-0.034	0.001
-324.114	225.142	0.130	-0.209
-323.099	138.064	0.113	-0.147
-322.085	-50.573	-0.334	-0.157
-321.070	-200.000	-0.010	-0.149
-320.056	-200.000	-0.006	0.079
-319.041	-87.717	0.109	-0.033
-318.026	-10.983	-0.308	-0.202
-317.012	89.980	0.080	0.089
-315.997	-11.570	0.167	-0.109
-314.983	-102.627	-0.115	-0.027
-313.968	234.193	-0.036	-0.060
-312.953	800.000	0.048	0.134
-311.939	-200.000	-0.011	0.117
-310.924	-20.035	0.299	0.183
-309.910	-184.784	-0.369	-0.006
-308.895	602.012	0.078	0.193
-307.880	-110.778	0.225	0.046
-306.866	-175.077	0.382	0.011
-305.851	800.000	0.053	0.217
-304.837	-22.980	-0.079	-0.047
-303.822	65.429	-0.123	-0.124
-302.807	800.000	-0.009	-0.027
-301.793	101.103	-0.148	0.171
-300.778	-22.386	0.196	0.118
-299.764	-81.763	-0.369	-0.120
-298.749	800.000	-0.138	-0.385
-297.735	693.295	0.056	-0.147
-296.720	-57.616	0.361	0.157
-295.705	-200.000	-0.018	0.091
-294.691	800.000	-0.148	-0.435
-293.676	800.000	0.023	-0.092
-292.662	-81.879	-0.367	0.119
-291.647	165.464	0.090	0.126
-290.632	96.253	-0.089	-0.101
-289.618	-6.172	-0.195	-0.132
-288.603	59.060	-0.231	0.225
-287.589	-72.500	-0.249	-0.091
-286.574	-200.000	0.015	0.314
-285.559	209.007	0.091	-0.142
-284.545	22.637	0.070	0.057
-283.530	800.000	0.047	-0.172
-282.516	800.000	-0.053	-0.209
-281.501	226.549	-0.092	-0.148
-280.486	-200.000	0.029	0.221
-279.472	710.738	-0.119	0.314
-278.457	-148.443	-0.323	0.026
-277.443	-200.000	-0.015	0.430
-276.428	4.993	0.202	0.148
-275.413	246.507	0.314	0.525
-274.399	-44.047	0.358	-0.178
-273.384	-34.675	0.204	-0.111
-272.370	-200.000	-0.008	-0.221
-271.355	800.000	0.049	-0.183
-270.340	103.573	-0.283	-0.329
-269.326	-167.888	0.296	0.012
-268.311	797.396	-0.061	-0.168
-267.297	-119.540	0.304	-0.052
-266.282	-130.276	0.361	-0.049
-265.267	-141.619	-0.206	0.021
-264.253	-0.510	-0.245	0.172
-263.238	688.057	0.128	0.331
-262.224	-200.000	-0.020	-0.180
-261.209	94.154	0.219	0.246
-260.195	800.000	0.046	-0.140
-259.180	-200.000	-0.006	0.067
-258.165	19.240	-0.227	0.180
-257.151	96.580	-0.095	-0.108
-256.136	-200.000	-0.002	-0.069
-255.122	11.909	-0.247	0.188
-254.107	7.992	-0.206	0.153
-253.092	-200.000	-0.011	-0.052
-252.078	285.306	0.065	0.116
-251.063	-200.000	0.033	0.254
-250.049	-200.000	0.020	0.449
-249.034	-55.318	-0.251	-0.112
-248.019	-114.175	0.042	-0.008
-247.005	-148.470	0.153	-0.012
-245.990	-79.110	0.276	-0.093
-244.976	67.134	-0.254	0.257
-243.961	249.612	-0.056	0.094
-242.946	-200.000	-0.008	0.317
-241.932	-160.913	0.083	0.004
-240.917	-69.999	0.267	-0.101
-239.903	10.922	-0.119	-0.090
-238.888	-56.771	-0.211	0.093
-237.873	-50.559	-0.283	0.132
-236.859	10.016	-0.234	0.176
-235.844	800.000	0.062	-0.202
-234.830	-200.000	-0.047	-0.233
-233.815	-52.780	-0.077	0.035
-232.800	-105.292	-0.187	0.042
-231.786	-47.517	0.320	-0.154
-230.771	542.482	0.142	-0.334
-229.757	800.000	0.041	-0.120
-228.742	164.762	0.212	-0.296
-227.727	800.000	0.037	0.111
-226.713	800.000	0.058	0.187
-225.698	-52.518	-0.144	0.066
-224.684	-137.760	0.083	-0.009
-223.669	-200.000	0.034	0.250
-222.655	800.000	0.107	0.337
-221.640	15.718	0.229	0.178
-220.625	271.245	-0.137	0.239
-219.611	-143.287	0.233	0.022
-218.596	509.219	-0.072	-0.166
-217.582	-114.766	-0.151	-0.029
-216.567	800.000	-0.015	-0.050
-215.552	7.776	-0.231	-0.171
-214.538	217.710	-0.066	-0.104
-213.523	-84.759	-0.183	0.057
-212.509	405.016	-0.010	-0.022
-211.494	-200.000	-0.046	0.355
-210.479	-32.118	-0.009	-0.005
-209.465	800.000	0.055	0.175
-208.450	155.869	0.074	0.101
-207.436	-200.000	-0.006	-0.171
-206.421	189.035	-0.158	-0.234
-205.406	652.380	-0.058	-0.148
-204.392	-16.530	0.144	-0.090
-203.377	-200.000	0.058	-0.271
-202.363	396.866	-0.131	0.271
-201.348	76.668	-0.114	0.119
-200.333	156.161	0.081	-0.110
-199.319	-159.392	-0.328	-0.018
-198.304	-171.324	0.262	-0.009
-197.290	74.135	0.163	-0.170
-196.275	-26.971	0.204	-0.118
-195.260	-200.000	-0.033	-0.174
-194.246	537.295	-0.107	0.252
-193.231	-82.697	0.275	0.088
-192.217	-89.432	-0.235	0.068
-191.202	-97.109	-0.121	0.031
-190.187	717.532	0.118	0.310
-189.173	154.513	0.105	-0.143
-188.158	544.630	-0.109	0.258
-187.144	-66.062	-0.157	-0.062
-186.129	386.177	0.090	0.184
-185.114	-200.000	-0.018	0.270
-184.100	-185.827	-0.125	-0.002
-183.085	228.334	0.082	0.132
-182.071	-24.140	0.325	0.192
-181.056	91.224	-0.207	0.230
-180.042	-17.928	0.277	0.172
-179.027	103.012	0.104	0.120
-178.012	7.496	0.034	0.025
-176.998	800.000	0.022	0.080
-175.983	-61.777	0.536	0.222
-174.969	395.148	-0.050	0.103
-173.954	-200.000	0.001	-0.190
-172.939	-110.492	-0.260	0.053
-171.925	343.010	0.165	0.319
-170.910	187.714	-0.068	0.100
-169.896	25.090	0.225	0.184
-168.881	212.662	-0.106	-0.165
-167.866	140.493	-0.240	-0.313
-166.852	-200.000	0.003	-0.112
-165.837	143.559	0.103	0.136
-164.823	-130.460	0.111	-0.015
-163.808	800.000	-0.108	-0.298
-162.793	-138.482	0.223	-0.024
-161.779	-89.377	-0.164	-0.048
-160.764	-200.000	-0.007	0.315
-159.750	59.618	0.185	0.181
-158.735	-86.537	-0.152	-0.046
-157.720	118.227	0.236	0.288
-156.706	-200.000	-0.022	-0.277
-155.691	94.077	-0.126	0.142
-154.677	800.000	-0.075	-0.209
-153.662	120.658	0.392	-0.481
-152.647	-89.705	-0.277	-0.080
-151.633	800.000	0.040	-0.126
-150.618	100.202	-0.183	-0.209
-149.604	-200.000	0.003	0.135
-148.589	38.266	0.240	0.211
-147.574	479.049	0.106	-0.237
-146.560	-49.039	-0.290	0.137
-145.545	476.766	-0.061	-0.136
-144.531	-100.062	0.135	0.033
-143.516	-8.856	-0.050	-0.033
-142.502	209.041	-0.077	0.119
-141.487	-63.337	0.049	0.020
-140.472	29.521	-0.175	-0.147
-139.458	-200.000	0.086	-0.421
-138.443	-108.091	-0.108	-0.023
-137.429	246.643	-0.220	-0.365
-136.414	299.311	0.221	-0.402
-135.399	83.568	0.164	0.177
-134.385	800.000	-0.052	-0.171
-133.370	191.132	0.094	0.139
-132.356	-95.297	-0.111	-0.030
-131.341	-134.674	-0.418	0.050
-130.326	-16.211	-0.135	0.085
-129.312	-163.586	-0.317	0.015
-128.297	74.056	0.301	0.311
-127.283	91.846	0.182	-0.202
-126.268	249.949	-0.122	0.205
-125.253	-150.775	0.247	0.019
-124.239	-200.000	0.041	-0.404
-123.224	-112.875	0.110	-0.021
-122.210	214.500	0.113	-0.177
-121.195	349.622	-0.142	-0.277
-120.180	-95.056	-0.231	0.061
-119.166	-200.000	-0.051	-0.289
-118.151	-200.000	-0.012	-0.404
-117.137	-200.000	0.006	0.105
-116.122	30.053	0.134	-0.113
-115.107	35.659	-0.074	-0.064
-114.093	-100.451	-0.307	-0.075
-113.078	121.250	0.122	-0.149
-112.064	180.341	0.143	-0.206
-111.049	179.546	-0.103	-0.149
-110.034	65.221	-0.142	0.141
-109.020	-160.053	0.240	0.013
-108.005	800.000	0.020	0.070
-106.991	-200.000	-0.060	0.433
-105.976	272.091	-0.223	0.387
-104.962	96.593	-0.052	-0.059
-103.947	-200.000	-0.003	0.191
-102.932	-200.000	-0.028	0.387
-101.918	247.639	-0.089	-0.149
-100.903	-90.323	-0.136	-0.039
-99.889	59.950	-0.118	0.115
-98.874	-200.000	-0.036	0.329
-97.859	-200.000	0.039	0.389
-96.845	800.000	0.081	-0.254
-95.830	800.000	-0.117	0.374
-94.816	-117.751	-0.324	0.057
-93.801	-185.989	0.603	0.009
-92.786	329.625	-0.015	-0.029
-91.772	-40.282	0.484	-0.248
-90.757	-200.000	-0.044	-0.262
-89.743	245.783	-0.215	0.356
-88.728	81.348	-0.270	0.288
-87.713	800.000	-0.045	0.130
-86.699	229.086	-0.128	-0.205
-85.684	59.431	0.155	-0.151
-84.670	-200.000	0.045	-0.196
-83.655	62.693	0.432	0.425
-82.640	4.123	0.458	0.330
-81.626	-83.588	0.173	0.054
-80.611	-62.265	-0.159	-0.065
-79.597	-200.000	-0.108	0.467
-78.582	-39.178	-0.359	0.186
-77.567	800.000	0.073	0.262
-76.553	-16.557	-0.159	0.099
-75.538	-200.000	0.020	0.351
-74.524	430.905	0.080	0.171
-73.509	-103.239	0.185	-0.043
-72.494	-200.000	0.007	0.158
-71.480	-180.157	0.279	-0.006
-70.465	56.176	0.085	-0.082
-69.451	721.157	-0.031	-0.081
-68.436	-186.780	-0.093	0.001
-67.422	90.357	0.115	0.127
-66.407	-200.000	-0.023	-0.300
-65.392	-16.567	-0.101	-0.063
-64.378	41.908	-0.319	-0.285
-63.363	-56.175	-0.024	-0.011
-62.349	75.344	0.104	-0.108
-61.334	83.753	-0.855	-0.918
-60.319	311.499	0.371	0.684
-59.305	151.381	-0.493	-0.660
-58.290	505.024	0.493	1.124
-57.276	311.548	0.900	1.660
-56.261	-200.000	96.172	586.674
-55.246	565.580	1367.934	3262.912
-54.232	162.586	2540.425	3505.854
-53.217	113.427	2134.356	2548.259
-52.203	44.175	1600.798	1444.228
-51.188	35.974	1339.479	1159.313
-50.173	32.903	1297.559	1105.047
-49.159	54.362	1345.041	1273.819
-48.144	56.603	1361.685	1302.874
-47.130	36.039	1320.705	1143.271
-46.115	32.716	1303.038	1108.437
-45.100	32.492	1297.926	1102.732
-44.086	32.359	1296.132	1100.385
-43.071	32.347	1293.807	1098.297
-42.057	32.325	1291.656	1096.301
-41.042	32.404	1289.771	1095.118
-40.027	32.355	1288.478	1093.691
-39.013	32.341	1286.319	1091.731
-37.998	32.315	1284.538	1090.029
-36.984	32.377	1282.921	1088.972
-35.969	32.479	1281.044	1087.926
-34.954	32.395	1279.446	1086.038
-33.940	32.482	1278.359	1085.575
-32.925	32.413	1277.466	1084.377
-31.911	32.581	1275.478	1083.610
-30.896	32.542	1273.631	1081.773
-29.881	32.728	1271.717	1081.173
-28.867	32.625	1270.709	1079.682
-27.852	32.598	1269.542	1078.493
-26.838	32.619	1267.938	1077.211
-25.823	32.601	1266.453	1075.803
-24.809	32.472	1265.517	1074.226
-23.794	32.485	1263.938	1072.916
-22.779	32.562	1262.902	1072.438
-21.765	32.551	1260.991	1070.707
-20.750	32.573	1259.999	1069.946
-19.736	32.358	1258.861	1067.720
-18.721	32.371	1258.022	1067.037
-17.706	32.309	1256.923	1065.712
-16.692	32.283	1255.615	1064.412
-15.677	32.417	1254.092	1063.838
-14.663	32.347	1253.172	1062.618
-13.648	32.367	1252.415	1062.048
-12.633	32.360	1251.242	1060.971
-11.619	32.377	1250.241	1060.179
-10.604	32.325	1249.943	1059.591
-9.590	32.403	1248.495	1058.760
-8.575	32.374	1247.800	1057.966
-7.560	32.353	1246.714	1056.886
-6.546	32.280	1246.152	1055.956
-5.531	32.432	1245.026	1055.814
-4.517	32.398	1244.481	1055.118
-3.502	32.377	1243.579	1054.194
-2.487	32.299	1242.348	1052.673
-1.473	32.315	1238.499	1049.459
-0.458	31.015	1223.577	1029.598
0.556	27.968	1205.375	991.370
1.571	24.407	1210.385	975.964
2.586	23.764	1224.743	983.891
3.600	23.097	1214.575	971.974
4.615	16.963	1141.843	881.897
5.629	6.834	1064.942	773.079
6.644	2.407	1044.593	736.956
7.659	1.974	1042.107	733.054
8.673	1.890	1040.783	731.655
9.688	1.921	1039.323	730.716
10.702	2.552	1037.768	732.574
11.717	9.059	1047.350	770.601
12.731	19.020	1061.994	829.572
13.746	24.119	1067.526	858.471
14.761	25.130	1069.159	864.582
15.775	25.257	1068.415	864.516
16.790	24.954	1067.927	862.587
17.804	24.990	1067.109	862.024
18.819	25.122	1066.881	862.398
19.834	25.249	1066.083	862.287
20.848	25.320	1066.002	862.488
21.863	25.273	1065.243	861.571
22.877	25.293	1064.881	861.297
23.892	25.213	1063.738	859.914
24.907	25.201	1063.329	859.451
25.921	25.314	1061.946	858.798
26.936	25.189	1060.739	857.149
27.950	25.079	1059.336	855.414
28.965	25.102	1057.560	854.012
29.980	24.998	1056.120	852.277
30.994	25.360	1055.140	853.135
32.009	25.227	1054.349	851.786
33.023	25.125	1052.832	850.003
34.038	25.163	1052.594	849.913
35.053	25.265	1051.690	849.593
36.067	25.208	1051.061	848.741
37.082	25.302	1050.366	848.548
38.096	25.486	1049.773	848.864
39.111	25.512	1048.888	848.194
40.126	25.253	1047.551	845.820
41.140	25.016	1045.745	843.171
42.155	24.831	1044.816	841.476
43.169	24.745	1044.145	840.458
44.184	24.853	1043.034	839.994
45.199	24.730	1042.057	838.557
46.213	24.878	1040.992	838.317
47.228	24.960	1040.647	838.353
48.242	25.056	1039.480	837.788
49.257	25.227	1038.698	837.883
50.271	25.368	1037.761	837.708
51.286	25.250	1037.484	836.858
52.301	25.444	1036.245	836.691
53.315	25.296	1035.242	835.117
54.330	25.080	1034.732	833.630
55.344	25.335	1033.618	833.842
56.359	25.227	1032.669	832.499
57.374	24.864	1032.212	830.377
58.388	24.979	1031.218	830.035
59.403	24.950	1029.999	828.844
60.417	24.889	1029.137	827.796
61.432	24.963	1028.695	827.708
62.447	24.970	1028.519	827.529
63.461	25.073	1027.455	827.073
64.476	24.835	1026.763	825.345
65.490	24.770	1025.664	824.092
66.505	24.891	1025.384	824.348
67.520	24.936	1024.379	823.674
68.534	24.822	1023.149	822.088
69.549	24.437	1022.448	819.684
70.563	24.556	1021.146	819.114
71.578	24.545	1020.486	818.465
72.593	24.410	1019.308	816.829
73.607	24.525	1019.087	817.106
74.622	24.795	1018.525	817.816
75.636	24.814	1018.413	817.739
76.651	24.599	1017.336	815.821
77.666	24.539	1016.517	814.818
78.680	24.560	1015.985	814.416
79.695	24.822	1014.755	814.553
80.709	24.777	1014.330	813.933
81.724	24.845	1013.864	813.797
82.739	24.926	1012.905	813.324
83.753	25.353	1012.137	814.571
84.768	25.619	1011.808	815.441
85.782	25.671	1010.761	814.762
86.797	25.456	1010.183	813.247
87.812	25.381	1008.948	811.845
88.826	25.553	1007.949	811.747
89.841	25.440	1007.303	810.643
90.855	25.516	1006.186	810.015
91.870	25.563	1005.142	809.313
92.884	25.457	1004.213	808.017
93.899	25.387	1003.279	806.880
94.914	25.472	1002.474	806.544
95.928	25.223	1001.972	804.953
96.943	24.997	1000.569	802.742
97.957	24.815	999.795	801.232
98.972	24.723	998.834	799.982
99.987	25.017	997.843	800.430
101.001	25.202	997.072	800.565
102.016	25.299	996.136	800.178
103.030	25.065	995.599	798.633
104.045	24.929	994.852	797.358
105.060	24.872	993.510	795.957
106.074	25.028	993.024	796.191
107.089	25.382	992.145	796.988
108.103	25.147	991.391	795.267
109.118	24.862	990.607	793.305
110.133	24.984	988.931	792.435
111.147	24.590	988.096	789.954
112.162	24.662	986.826	789.187
113.176	24.855	987.063	790.156
114.191	24.795	985.871	788.867
115.206	24.549	984.520	786.636
116.220	24.398	984.244	785.681
117.235	24.693	983.388	786.223
118.249	24.559	982.637	784.967
119.264	24.427	981.948	783.764
120.279	24.567	981.039	783.584
121.293	24.721	980.259	783.569
122.308	24.624	979.705	782.632
123.322	24.639	978.042	781.297
124.337	24.357	977.158	779.290
125.352	24.048	975.480	776.537
126.366	23.935	974.509	775.201
127.381	24.720	974.694	778.701
128.395	25.089	974.460	780.050
129.410	25.278	973.085	779.703
130.424	25.224	972.104	778.613
131.439	25.188	971.243	777.696
132.454	25.143	970.308	776.685
133.468	25.201	969.492	776.217
134.483	25.189	968.856	775.587
135.497	25.327	968.141	775.541
136.512	25.389	967.377	775.129
137.527	25.366	967.033	774.685
138.541	25.411	965.854	773.864
139.556	25.471	964.942	773.323
140.570	25.574	964.534	773.374
141.585	25.567	962.996	772.040
142.600	25.389	962.035	770.437
143.614	25.600	961.909	771.176
144.629	25.765	960.677	770.825
145.643	25.578	959.104	768.696
146.658	25.503	957.747	767.219
147.673	25.355	956.966	765.894
148.687	25.272	956.167	764.834
149.702	25.220	955.088	763.683
150.716	25.195	954.635	763.147
151.731	25.409	954.366	763.771
152.746	25.583	953.244	763.544
153.760	25.605	953.124	763.475
154.775	25.660	952.234	762.929
155.789	25.678	951.267	762.161
156.804	25.599	950.607	761.233
157.819	25.704	949.597	760.800
158.833	25.763	949.022	760.519
159.848	25.814	947.997	759.849
160.862	25.484	947.124	757.688
161.877	25.707	945.722	757.439
162.892	25.657	944.814	756.435
163.906	25.556	943.910	755.222
164.921	25.600	943.035	754.639
165.935	25.548	942.116	753.617
166.950	25.623	941.498	753.369
167.964	25.526	940.857	752.386
168.979	25.441	939.786	751.108
169.994	25.402	938.428	749.791
171.008	25.785	937.929	750.926
172.023	25.688	936.963	749.680
173.037	25.487	935.981	747.993
174.052	25.424	935.049	746.919
175.067	25.403	934.414	746.257
176.081	25.506	934.001	746.293
177.096	25.276	933.774	745.089
178.110	25.072	932.471	743.136
179.125	24.877	931.906	741.812
180.140	24.865	931.514	741.384
181.154	25.097	931.758	742.475
182.169	25.415	931.359	743.409
183.183	25.555	930.772	743.453
184.198	25.502	929.726	742.334
185.213	25.419	928.848	741.223
186.227	25.613	928.361	741.570
187.242	25.588	928.145	741.227
188.256	25.615	927.474	740.739
189.271	25.798	926.304	740.491
190.286	25.492	925.024	738.142
191.300	24.690	924.008	733.976
192.315	23.901	922.612	729.569
193.329	23.946	921.800	729.046
194.344	24.752	922.558	732.887
195.359	25.331	922.422	735.082
196.373	25.592	921.868	735.646
197.388	25.531	920.926	734.577
198.402	25.454	920.625	733.960
199.417	25.509	919.634	733.330
200.432	25.127	919.365	731.489
201.446	25.105	918.146	730.367
202.461	25.179	917.394	730.005
203.475	24.116	916.215	724.680
204.490	23.521	914.486	720.830
205.504	24.499	914.810	724.994
206.519	25.028	914.607	726.919
207.534	25.082	914.515	726.999
208.548	25.443	914.468	728.360
209.563	25.207	913.290	726.402
210.577	25.206	912.513	725.718
211.592	25.729	912.468	727.730
212.607	25.547	911.450	726.120
213.621	25.675	910.872	726.112
214.636	25.681	910.096	725.451
215.650	25.561	909.635	724.538
216.665	25.789	908.705	724.650
217.680	25.746	908.234	724.040
218.694	25.267	906.842	720.941
219.709	25.096	905.964	719.491
220.723	25.432	905.758	720.612
221.738	25.344	905.593	720.065
222.753	25.400	904.734	719.544
223.767	25.563	904.110	719.634
224.782	25.768	904.110	720.393
225.796	25.708	903.794	719.836
226.811	25.146	901.599	715.780
227.826	24.545	900.670	712.583
228.840	24.617	900.001	712.279
229.855	24.727	899.630	712.362
230.869	24.308	898.501	709.736
231.884	24.691	898.456	711.162
232.899	25.416	898.688	714.164
233.913	25.263	897.956	712.912
234.928	25.480	897.223	713.127
235.942	25.328	896.710	712.055
236.957	25.050	895.665	710.063
237.972	25.097	895.009	709.665
238.986	25.132	894.799	709.574
240.001	25.109	894.274	709.003
241.015	25.314	893.560	709.186
242.030	25.356	893.320	709.095
243.045	25.406	892.794	708.813
244.059	25.490	892.414	708.781
245.074	25.439	891.667	707.926
246.088	25.110	890.669	705.775
247.103	25.386	890.181	706.412
248.117	25.912	890.389	708.581
249.132	26.057	889.962	708.749
250.147	26.272	889.375	709.063
251.161	26.402	889.039	709.240
252.176	26.332	888.234	708.263
253.190	26.582	887.552	708.636
254.205	26.466	887.475	708.057
255.220	26.481	886.465	707.247
256.234	26.426	885.979	706.581
257.249	26.233	885.194	705.139
258.263	26.243	884.713	704.732
259.278	26.405	883.763	704.546
260.293	26.512	883.074	704.349
261.307	26.304	882.739	703.212
262.322	26.235	881.696	702.051
263.336	25.333	879.929	697.082
264.351	24.415	878.384	692.235
265.366	24.506	878.021	692.240
266.380	25.456	878.519	696.256
267.395	26.003	878.298	698.138
268.409	25.889	877.618	697.094
269.424	26.034	877.016	697.115
270.439	26.220	876.784	697.586
271.453	26.279	875.939	697.082
272.468	26.356	876.092	697.437
273.482	26.577	874.986	697.347
274.497	26.054	874.074	694.544
275.512	25.592	873.606	692.335
276.526	26.211	873.142	694.284
277.541	26.180	872.995	693.987
278.555	26.006	872.183	692.612
279.570	25.829	871.551	691.370
280.585	25.977	870.930	691.386
281.599	26.186	869.544	691.021
282.614	25.501	868.374	687.415
283.628	25.355	868.130	686.600
284.643	25.648	867.857	687.444
285.657	25.452	866.644	685.674
286.672	25.132	865.551	683.529
287.687	25.658	866.046	685.866
288.701	25.836	865.413	685.983
289.716	25.333	864.521	683.301
290.730	25.495	863.540	683.078
291.745	25.107	862.875	681.021
292.760	25.578	862.577	682.513
293.774	26.452	863.369	686.394
294.789	26.690	863.252	687.145
295.803	26.663	862.594	686.458
296.818	26.798	861.832	686.302
297.833	26.457	860.584	683.959
298.847	26.224	860.143	682.667
299.862	26.621	859.609	683.682
300.876	26.805	859.650	684.347
301.891	26.637	858.895	683.053
302.906	26.210	857.788	680.503
303.920	26.501	857.756	681.516
304.935	26.781	857.645	682.420
305.949	26.584	856.956	681.072
306.964	26.327	856.137	679.394
307.979	26.523	855.616	679.656
308.993	27.065	854.815	680.992
310.008	26.792	854.910	679.983
311.022	26.634	853.716	678.382
312.037	26.537	853.137	677.501
313.052	26.202	852.353	675.564
314.066	25.365	850.549	670.950
315.081	25.122	849.985	669.539
316.095	25.843	850.324	672.436
317.110	26.563	850.090	674.878
318.125	25.493	848.569	669.627
319.139	24.487	847.111	664.674
320.154	24.536	846.983	664.697
321.168	25.407	847.425	668.227
322.183	26.124	847.620	670.989
323.197	26.312	847.188	671.286
324.212	26.437	846.956	671.505
325.227	26.545	846.268	671.303
326.241	26.382	845.474	670.009
327.256	26.278	844.804	669.033
328.270	26.311	844.125	668.559
329.285	26.003	843.421	666.804
330.300	25.771	842.416	665.093
331.314	26.146	842.283	666.314
332.329	26.475	842.104	667.328
333.343	26.600	842.072	667.702
334.358	26.687	841.383	667.418
335.373	26.558	841.314	666.828
336.387	27.016	841.233	668.393
337.402	27.052	840.843	668.155
338.416	26.944	840.658	667.552
339.431	27.050	840.218	667.533
340.446	27.359	839.815	668.288
341.460	27.086	839.262	666.787
342.475	26.832	838.988	665.578
343.489	26.966	838.633	665.729
344.504	27.334	838.083	666.584
345.519	27.410	837.639	666.448
346.533	27.488	837.228	666.350
347.548	27.525	836.625	665.946
348.562	27.477	835.968	665.189
349.577	27.271	835.959	664.370
350.592	27.182	835.144	663.336
351.606	27.253	834.297	662.866
352.621	27.378	833.122	662.329
353.635	27.329	832.051	661.239
354.650	26.611	830.571	657.398
355.665	25.562	829.510	652.696
356.679	25.853	829.530	653.711
357.694	26.382	829.133	655.257
358.708	26.343	828.616	654.649
359.723	26.833	827.890	655.789
360.738	26.973	828.135	656.433
361.752	27.042	827.911	656.447
362.767	27.458	827.665	657.696
363.781	27.756	826.717	657.960
364.796	27.873	826.417	658.085
365.810	27.899	826.414	658.116
366.825	27.910	825.564	657.420
367.840	27.323	825.109	654.890
368.854	26.934	824.184	652.698
369.869	27.301	823.418	653.354
370.883	27.068	823.672	652.659
371.898	27.065	822.795	651.895
372.913	27.143	822.554	651.927
373.927	27.279	821.909	651.845
374.942	27.515	821.960	652.673
375.956	27.485	821.512	652.154
376.971	27.626	821.417	652.523
377.986	27.730	820.690	652.261
379.000	27.650	820.472	651.746
380.015	27.524	819.474	650.446
381.029	27.559	819.111	650.222
382.044	27.754	818.457	650.342
383.059	27.789	817.953	650.010
384.073	27.609	817.493	648.944
385.088	27.715	816.814	648.725
386.102	27.446	815.973	647.045
387.117	27.354	815.149	646.006
388.132	27.118	814.228	644.384
389.146	26.589	813.148	641.597
390.161	27.014	813.299	643.166
391.175	27.428	813.476	644.713
392.190	27.080	812.031	642.284
393.205	25.665	809.822	635.486
394.219	24.230	808.242	629.128
395.234	24.241	808.072	628.977
396.248	25.902	809.331	635.769
397.263	27.429	810.310	641.866
398.278	27.334	809.976	641.211
399.292	27.092	809.301	639.771
400.307	27.071	808.830	639.267
401.321	27.180	808.370	639.230
402.336	27.480	808.323	640.189
403.350	27.924	808.490	641.825
404.365	28.185	808.085	642.362
405.380	28.526	807.726	643.218
406.394	28.487	807.145	642.561
407.409	28.394	806.673	641.801
408.423	28.317	806.652	641.458
409.438	28.495	805.924	641.445
410.453	28.607	805.526	641.465
411.467	28.415	804.745	640.115
412.482	28.419	804.477	639.858
413.496	28.461	804.337	639.838
414.511	28.462	804.067	639.569
415.526	28.400	803.403	638.770
416.540	28.359	802.762	638.062
417.555	28.060	802.126	636.458
418.569	28.027	801.884	636.095
419.584	28.177	801.165	635.989
420.599	27.729	800.891	634.159
421.613	111.522	1285.674	1457.936
422.628	96.251	1356.301	1458.026
