DTS Sentinel unit serial number:	SN413079Multiplexer serial number:	ORYXHardware model number:	OX4-SRSoftware version number:	ORYX F/W v4.00 Oryx Data Collector v3.7.2.0data status	okinstallation	princeton_trtdifferential loss correction	single-endedforward channel	channel 1reverse channel	N/Adate	2019/09/12time	06:52:11forward acquisition time	60.00reverse acquisition time	0.00gamma	496.2192k internal	0.2320k external	0.2320temperature offset calibration	1.0050default loss term (dB/km)	0.3790temperature slope calibration	1.0000multiplexer offset coefficient	1.0000multiplexer slope coefficient	1.0000fibre end	0.00T internal ref (°C)	32.14T ext. ref 1 (°C)	1.60T ext. ref 2 (°C)	27.25length (m)	temperature (°C)	Stokes	anti-Stokes-747.200	-16.158	0.225	0.144
-746.185	-124.163	-0.276	-0.044
-745.171	800.000	-0.081	-0.335
-744.156	800.000	0.115	0.471
-743.142	-149.531	0.403	-0.032
-742.127	113.019	0.038	-0.047
-741.112	-31.245	0.216	-0.123
-740.098	141.346	-0.204	0.273
-739.083	97.700	0.113	0.131
-738.069	-200.000	-0.017	0.211
-737.054	-55.895	-0.253	0.114
-736.039	-200.000	-0.002	-0.109
-735.025	-200.000	-0.018	0.157
-734.010	-200.000	0.036	-0.381
-732.996	-200.000	-0.013	-0.260
-731.981	-200.000	0.009	0.167
-730.966	-200.000	0.090	0.493
-729.952	67.784	0.187	0.193
-728.937	-33.309	0.065	-0.036
-727.923	181.090	-0.128	-0.189
-726.908	-200.000	0.011	0.202
-725.894	-100.114	-0.218	-0.055
-724.879	218.784	0.173	-0.279
-723.864	269.508	-0.073	0.130
-722.850	-62.211	-0.087	-0.037
-721.835	-11.946	0.149	0.099
-720.821	-200.000	0.028	-0.141
-719.806	-200.000	0.028	0.170
-718.791	-41.578	0.060	0.031
-717.777	1.322	0.149	0.108
-716.762	1.046	0.123	-0.089
-715.748	427.510	0.054	-0.119
-714.733	226.930	-0.124	-0.204
-713.718	277.438	-0.219	0.394
-712.704	-18.164	0.062	-0.039
-711.689	169.193	0.107	-0.155
-710.675	-118.344	0.222	0.040
-709.660	-114.951	-0.220	-0.042
-708.645	69.148	0.209	-0.217
-707.631	593.328	0.072	-0.180
-706.616	-86.640	0.295	-0.091
-705.602	612.523	-0.053	-0.135
-704.587	-28.680	0.157	-0.092
-703.572	134.359	-0.053	-0.070
-702.558	-200.000	0.000	0.172
-701.543	-140.043	0.213	0.023
-700.529	23.830	0.057	0.048
-699.514	65.381	-0.088	-0.090
-698.499	-9.625	-0.157	-0.105
-697.485	-49.505	0.228	0.110
-696.470	-2.199	0.032	0.022
-695.456	-200.000	-0.014	-0.094
-694.441	-193.337	0.141	-0.001
-693.426	800.000	-0.068	0.267
-692.412	-90.135	-0.281	0.083
-691.397	-114.914	0.324	0.062
-690.383	-80.302	-0.295	-0.099
-689.368	-200.000	-0.062	0.320
-688.354	-118.679	-0.509	-0.091
-687.339	12.846	0.326	-0.254
-686.324	-38.072	0.077	0.041
-685.310	82.716	0.029	0.031
-684.295	172.574	0.018	0.026
-683.281	-147.247	-0.192	0.016
-682.266	-18.409	0.083	0.052
-681.251	-25.403	0.246	0.147
-680.237	705.901	0.081	-0.215
-679.222	-181.347	-0.297	0.006
-678.208	421.933	-0.146	-0.317
-677.193	785.255	-0.074	-0.204
-676.178	-25.826	0.163	0.097
-675.164	-200.000	-0.009	-0.059
-674.149	51.034	0.096	-0.092
-673.135	115.959	-0.150	0.185
-672.120	-200.000	-0.020	-0.179
-671.105	-200.000	0.023	-0.222
-670.091	106.053	0.057	-0.068
-669.076	-200.000	0.018	0.181
-668.062	-200.000	0.028	-0.168
-667.047	-17.298	0.300	-0.191
-666.032	81.566	-0.394	-0.430
-665.018	539.816	-0.099	-0.236
-664.003	282.030	-0.054	0.097
-662.989	-50.809	-0.352	-0.167
-661.974	-200.000	-0.060	-0.283
-660.959	92.586	0.228	-0.259
-659.945	-183.633	-0.401	0.007
-658.930	182.304	0.072	0.107
-657.916	-128.383	-0.452	-0.065
-656.901	232.110	-0.057	-0.094
-655.886	800.000	0.088	-0.266
-654.872	-200.000	-0.021	-0.191
-653.857	-181.159	-0.491	-0.010
-652.843	-159.797	0.392	-0.022
-651.828	2.311	-0.112	0.082
-650.814	-196.399	0.287	-0.002
-649.799	627.015	-0.104	0.263
-648.784	-68.931	0.261	0.102
-647.770	121.207	-0.116	-0.145
-646.755	-134.657	-0.314	-0.038
-645.741	-69.806	-0.209	-0.081
-644.726	-5.074	0.119	0.082
-643.711	-42.780	-0.285	0.146
-642.697	-200.000	0.003	-0.025
-641.682	48.699	0.160	0.151
-640.668	156.167	0.119	0.166
-639.653	-63.647	-0.159	-0.066
-638.638	800.000	-0.133	-0.429
-637.624	-50.936	0.283	-0.134
-636.609	637.720	-0.084	-0.216
-635.595	165.229	0.120	-0.170
-634.580	198.796	0.144	0.223
-633.565	630.581	0.092	0.235
-632.551	800.000	-0.048	-0.183
-631.536	174.225	0.065	0.095
-630.522	-200.000	-0.024	0.158
-629.507	220.252	-0.217	-0.350
-628.492	153.029	-0.057	-0.078
-627.478	-22.910	0.306	0.186
-626.463	-163.553	-0.298	0.014
-625.449	800.000	-0.068	0.254
-624.434	-200.000	0.001	0.118
-623.419	8.080	0.160	0.121
-622.405	286.818	-0.058	0.106
-621.390	-28.571	-0.110	-0.064
-620.376	-29.395	-0.098	-0.056
-619.361	800.000	0.017	0.075
-618.346	-10.599	0.128	-0.085
-617.332	9.391	0.107	-0.081
-616.317	245.931	-0.127	-0.215
-615.303	-200.000	0.034	-0.169
-614.288	60.119	-0.013	-0.013
-613.273	-134.691	-0.115	0.014
-612.259	-200.000	-0.045	0.392
-611.244	800.000	0.062	0.176
-610.230	-156.286	-0.208	-0.013
-609.215	800.000	-0.110	-0.343
-608.201	800.000	-0.106	0.295
-607.186	-200.000	0.054	0.312
-606.171	-200.000	0.012	-0.160
-605.157	77.337	0.177	-0.189
-604.142	160.542	0.150	-0.210
-603.128	-200.000	-0.024	-0.175
-602.113	800.000	0.077	0.221
-601.098	-200.000	0.008	-0.429
-600.084	23.993	0.018	0.015
-599.069	-112.561	0.334	-0.067
-598.055	652.774	-0.098	0.253
-597.040	-150.138	-0.173	0.013
-596.025	65.414	0.381	-0.387
-595.011	113.078	-0.137	-0.167
-593.996	9.718	-0.222	0.169
-592.982	440.812	0.179	0.394
-591.967	-145.983	0.362	0.032
-590.952	-200.000	0.034	0.288
-589.938	-120.643	0.060	-0.010
-588.923	31.410	0.066	0.057
-587.909	123.971	-0.337	-0.425
-586.894	-84.207	-0.061	-0.020
-585.879	27.396	0.144	0.122
-584.865	-131.007	0.161	0.022
-583.850	-200.000	-0.091	-0.450
-582.836	-63.234	-0.128	0.053
-581.821	-200.000	-0.028	0.209
-580.806	-49.759	-0.131	-0.062
-579.792	-121.760	-0.318	0.053
-578.777	800.000	-0.048	-0.162
-577.763	109.265	0.071	-0.086
-576.748	31.487	-0.255	-0.220
-575.733	236.014	-0.237	-0.394
-574.719	14.700	-0.210	0.165
-573.704	12.011	-0.157	0.121
-572.690	800.000	0.084	-0.261
-571.675	-200.000	-0.016	-0.113
-570.661	47.580	-0.102	0.096
-569.646	145.940	0.109	0.146
-568.631	800.000	0.043	-0.150
-567.617	25.736	-0.182	0.153
-566.602	-173.400	-0.138	-0.004
-565.588	-89.034	-0.111	-0.033
-564.573	-200.000	0.016	0.082
-563.558	-200.000	0.004	-0.027
-562.544	-139.847	0.278	-0.030
-561.529	-200.000	0.009	-0.082
-560.515	-15.274	-0.203	0.130
-559.500	-36.110	0.184	-0.100
-558.485	800.000	0.022	0.074
-557.471	-200.000	0.011	0.111
-556.456	-60.150	0.143	-0.061
-555.442	34.796	0.114	-0.100
-554.427	661.091	0.072	-0.185
-553.412	-118.490	0.293	0.052
-552.398	800.000	0.069	-0.198
-551.383	-200.000	-0.011	0.109
-550.369	-199.188	0.397	-0.002
-549.354	215.642	-0.160	0.256
-548.339	121.167	-0.128	-0.160
-547.325	-200.000	0.001	0.021
-546.310	800.000	0.063	-0.181
-545.296	77.872	-0.254	-0.271
-544.281	88.450	-0.152	-0.169
-543.266	71.456	0.125	-0.131
-542.252	-75.681	-0.108	-0.038
-541.237	47.594	-0.093	-0.087
-540.223	103.153	-0.266	-0.313
-539.208	117.438	-0.064	0.078
-538.193	42.105	-0.126	-0.115
-537.179	-143.272	-0.211	0.020
-536.164	-112.812	-0.371	-0.074
-535.150	-150.343	-0.220	-0.017
-534.135	15.480	0.249	0.196
-533.121	-110.824	0.158	0.033
-532.106	800.000	0.121	-0.530
-531.091	272.215	0.163	0.288
-530.077	504.330	0.042	-0.097
-529.062	47.873	0.088	0.082
-528.048	142.384	-0.292	0.388
-527.033	-200.000	0.308	0.000
-526.018	430.849	0.117	-0.253
-525.004	-6.250	-0.368	-0.252
-523.989	-12.697	0.118	-0.077
-522.975	65.445	-0.144	0.146
-521.960	800.000	-0.054	0.227
-520.945	-166.284	0.185	0.008
-519.931	367.786	-0.042	0.085
-518.916	-200.000	0.044	0.211
-517.902	38.572	-0.112	-0.100
-516.887	234.959	0.111	0.183
-515.872	35.354	-0.192	0.169
-514.858	-27.215	0.300	-0.175
-513.843	27.717	0.287	0.242
-512.829	-43.377	0.127	0.065
-511.814	-96.778	-0.194	-0.051
-510.799	-93.395	0.272	-0.075
-509.785	333.616	-0.065	-0.126
-508.770	25.046	0.163	-0.135
-507.756	308.415	0.152	-0.284
-506.741	-61.604	-0.222	-0.093
-505.726	466.959	0.078	-0.176
-504.712	-97.848	-0.169	0.044
-503.697	-8.043	-0.210	0.142
-502.683	438.367	0.094	-0.205
-501.668	-154.787	-0.339	-0.022
-500.653	389.284	0.119	-0.246
-499.639	8.805	0.247	-0.186
-498.624	167.505	-0.075	-0.107
-497.610	-200.000	0.029	-0.133
-496.595	-85.849	-0.252	-0.078
-495.581	800.000	-0.041	0.170
-494.566	800.000	-0.092	0.368
-493.551	49.711	0.056	-0.053
-492.537	34.909	-0.200	-0.175
-491.522	-200.000	0.044	-0.240
-490.508	38.224	-0.244	-0.217
-489.493	15.192	-0.083	-0.065
-488.478	219.833	-0.237	-0.379
-487.464	800.000	0.029	-0.098
-486.449	-15.358	0.182	0.116
-485.435	10.834	0.279	-0.213
-484.420	306.418	0.099	-0.184
-483.405	-200.000	-0.019	0.100
-482.391	69.047	-0.250	0.257
-481.376	152.820	0.108	0.147
-480.362	-200.000	0.004	0.089
-479.347	54.340	0.082	0.079
-478.332	-26.639	-0.139	-0.082
-477.318	-200.000	-0.041	0.536
-476.303	3.906	0.116	0.085
-475.289	-15.294	-0.151	-0.097
-474.274	-71.534	-0.090	0.034
-473.259	184.090	-0.096	0.142
-472.245	71.770	-0.108	0.112
-471.230	800.000	-0.037	0.112
-470.216	800.000	0.044	0.154
-469.201	-130.615	-0.378	-0.051
-468.186	800.000	0.064	-0.270
-467.172	-200.000	-0.010	0.157
-466.157	42.476	0.234	-0.213
-465.143	-200.000	0.049	-0.457
-464.128	-66.843	-0.236	-0.093
-463.113	675.638	0.260	0.676
-462.099	35.911	0.170	-0.150
-461.084	-12.774	-0.084	-0.055
-460.070	99.775	-0.166	-0.192
-459.055	385.119	-0.175	-0.361
-458.040	800.000	-0.032	-0.133
-457.026	-190.589	0.046	-0.000
-456.011	87.349	0.106	0.117
-454.997	53.263	-0.134	-0.128
-453.982	-5.694	0.232	-0.159
-452.968	800.000	-0.033	-0.141
-451.953	800.000	-0.044	0.153
-450.938	33.703	0.029	-0.025
-449.924	-85.278	-0.057	0.018
-448.909	417.381	0.126	0.269
-447.895	107.708	-0.132	-0.157
-446.880	-37.202	0.163	-0.087
-445.865	-70.044	-0.091	-0.035
-444.851	-23.274	0.535	-0.322
-443.836	800.000	0.027	-0.112
-442.822	-84.807	0.326	0.103
-441.807	-119.711	0.333	-0.057
-440.792	51.396	-0.172	-0.163
-439.778	38.119	0.059	-0.052
-438.763	-67.450	0.046	0.018
-437.749	-200.000	-0.015	-0.400
-436.734	-68.286	-0.233	-0.090
-435.719	-124.816	-0.099	0.015
-434.705	28.791	-0.157	-0.133
-433.690	-7.198	0.201	0.136
-432.676	-200.000	-0.027	0.355
-431.661	17.962	0.075	0.059
-430.646	-44.174	0.068	-0.034
-429.632	416.954	0.231	0.492
-428.617	138.953	0.126	-0.165
-427.603	49.901	0.170	0.160
-426.588	800.000	-0.051	-0.177
-425.573	750.534	0.154	0.415
-424.559	800.000	0.040	0.131
-423.544	-147.417	0.377	0.032
-422.530	-107.763	0.418	0.091
-421.515	-200.000	0.011	0.196
-420.500	218.538	-0.046	0.073
-419.486	800.000	-0.024	-0.083
-418.471	-127.570	0.223	-0.032
-417.457	-89.508	0.327	0.096
-416.442	69.017	-0.081	-0.083
-415.428	800.000	0.029	-0.098
-414.413	102.584	0.067	-0.078
-413.398	29.790	-0.130	-0.111
-412.384	-200.000	-0.015	0.091
-411.369	800.000	0.040	0.163
-410.355	800.000	-0.095	0.272
-409.340	800.000	-0.106	-0.434
-408.325	-40.199	0.291	0.151
-407.311	-35.558	0.156	0.084
-406.296	62.625	-0.230	-0.229
-405.282	-200.000	0.006	0.198
-404.267	24.011	0.267	0.220
-403.252	-168.921	-0.376	0.014
-402.238	800.000	-0.040	-0.162
-401.223	39.050	-0.084	0.075
-400.209	-99.860	-0.116	0.029
-399.194	386.443	0.038	0.078
-398.179	-107.526	0.286	-0.063
-397.165	-34.881	0.167	0.091
-396.150	760.538	-0.048	0.129
-395.136	-200.000	0.012	0.164
-394.121	-75.763	-0.152	0.054
-393.106	-7.579	-0.143	0.096
-392.092	-200.000	0.022	0.354
-391.077	-200.000	-0.000	0.024
-390.063	-200.000	0.014	0.189
-389.048	13.993	0.069	0.053
-388.033	-133.539	-0.245	-0.031
-387.019	38.892	0.213	0.189
-386.004	104.844	-0.257	0.302
-384.990	800.000	0.090	-0.319
-383.975	800.000	-0.077	-0.218
-382.960	109.697	-0.164	-0.196
-381.946	-42.062	0.078	0.040
-380.931	649.272	0.053	0.136
-379.917	-22.479	-0.299	0.180
-378.902	-103.685	-0.097	-0.023
-377.888	800.000	-0.141	-0.417
-376.873	-52.489	0.218	0.100
-375.858	-8.580	-0.304	0.204
-374.844	-200.000	0.050	-0.264
-373.829	-200.000	0.039	-0.264
-372.815	-87.387	0.274	-0.083
-371.800	-54.752	0.149	-0.067
-370.785	-200.000	0.003	0.350
-369.771	-200.000	0.034	-0.229
-368.756	-120.077	-0.133	0.023
-367.742	-200.000	0.001	-0.049
-366.727	10.035	0.051	-0.038
-365.712	-19.854	-0.392	0.241
-364.698	-38.311	0.119	-0.063
-363.683	137.586	0.172	-0.224
-362.669	15.647	0.191	0.149
-361.654	-200.000	0.050	0.266
-360.639	-112.783	-0.199	0.039
-359.625	-200.000	-0.056	0.468
-358.610	-99.206	-0.221	-0.056
-357.596	-129.205	0.200	0.028
-356.581	800.000	0.103	-0.369
-355.566	-123.878	-0.141	0.022
-354.552	-3.323	0.362	-0.251
-353.537	-200.000	0.025	-0.409
-352.523	31.425	0.214	-0.183
-351.508	-160.521	0.197	0.010
-350.493	-32.237	0.220	-0.122
-349.479	-84.798	0.270	0.084
-348.464	-22.493	0.246	-0.148
-347.450	-61.408	0.300	-0.126
-346.435	-83.277	-0.210	-0.067
-345.420	-200.000	-0.024	0.158
-344.406	-200.000	-0.000	0.162
-343.391	628.820	-0.047	-0.118
-342.377	-46.651	0.343	0.167
-341.362	-51.782	-0.141	0.065
-340.348	35.982	-0.221	0.194
-339.333	-200.000	0.035	0.334
-338.318	-82.690	0.292	0.094
-337.304	143.538	0.054	0.072
-336.289	-26.987	-0.176	0.102
-335.275	352.859	-0.030	-0.059
-334.260	70.624	-0.141	0.145
-333.245	800.000	-0.027	0.113
-332.231	-200.000	-0.044	-0.286
-331.216	-200.000	0.012	0.171
-330.202	-57.993	-0.185	0.080
-329.187	-15.419	0.049	0.031
-328.172	-200.000	0.028	-0.132
-327.158	-67.102	0.091	0.036
-326.143	-59.616	0.132	-0.056
-325.129	-200.000	-0.038	0.252
-324.114	-50.478	0.186	0.087
-323.099	-126.673	-0.054	-0.008
-322.085	-200.000	-0.025	0.223
-321.070	8.493	-0.166	-0.124
-320.056	-142.095	0.082	-0.008
-319.041	704.458	0.128	0.336
-318.026	800.000	-0.065	0.197
-317.012	187.735	0.119	0.176
-315.997	80.833	0.124	0.133
-314.983	-123.594	-0.373	-0.059
-313.968	-45.061	-0.296	0.146
-312.953	166.355	-0.057	-0.080
-311.939	126.150	-0.198	0.249
-310.924	392.385	0.034	0.070
-309.910	800.000	0.058	0.227
-308.895	104.366	0.164	0.192
-307.880	-46.597	0.227	0.110
-306.866	-19.200	-0.167	0.103
-305.851	9.826	-0.160	0.121
-304.837	-25.743	0.184	0.108
-303.822	-144.565	-0.136	-0.013
-302.807	-140.371	-0.236	0.024
-301.793	-200.000	-0.005	0.147
-300.778	77.948	-0.041	0.043
-299.764	-200.000	0.019	-0.235
-298.749	277.799	-0.169	0.299
-297.735	-126.696	-0.241	-0.035
-296.720	-2.469	0.146	0.101
-295.705	306.039	0.066	0.122
-294.691	800.000	0.030	0.119
-293.676	85.241	0.015	-0.016
-292.662	587.643	0.040	0.097
-291.647	20.642	-0.048	-0.039
-290.632	62.143	-0.081	-0.080
-289.618	-140.991	-0.095	-0.010
-288.603	-116.300	-0.240	-0.044
-287.589	37.591	-0.071	0.063
-286.574	606.301	0.167	-0.413
-285.559	-43.292	-0.419	-0.211
-284.545	236.796	-0.088	-0.145
-283.530	208.742	-0.049	0.075
-282.516	53.702	-0.013	-0.012
-281.501	560.552	-0.145	0.349
-280.486	-200.000	-0.016	-0.128
-279.472	-95.827	-0.171	0.045
-278.457	800.000	-0.063	-0.214
-277.443	-15.413	0.205	0.130
-276.428	165.591	-0.094	0.132
-275.413	-200.000	0.363	0.002
-274.399	-200.000	-0.011	-0.266
-273.384	175.691	-0.090	0.129
-272.370	-200.000	0.041	0.189
-271.355	-36.897	-0.387	0.206
-270.340	13.264	0.287	0.221
-269.326	-156.278	-0.103	-0.006
-268.311	-200.000	-0.024	0.165
-267.297	136.844	-0.213	-0.276
-266.282	166.536	0.143	-0.202
-265.267	397.876	0.036	0.074
-264.253	271.430	0.082	-0.143
-263.238	800.000	-0.012	-0.039
-262.224	112.620	0.231	0.277
-261.209	301.962	-0.137	-0.252
-260.195	-121.547	0.047	0.008
-259.180	-200.000	0.008	-0.207
-258.165	-200.000	-0.011	-0.191
-257.151	233.850	-0.109	-0.177
-256.136	-122.386	-0.052	0.008
-255.122	99.298	-0.234	0.268
-254.107	-46.597	0.202	0.098
-253.092	101.974	-0.039	0.045
-252.078	-65.364	-0.111	-0.044
-251.063	-56.366	0.212	-0.093
-250.049	-200.000	-0.005	0.059
-249.034	55.253	-0.138	0.132
-248.019	-70.126	0.156	0.059
-247.005	-200.000	-0.013	-0.056
-245.990	-118.566	-0.085	-0.015
-244.976	-73.028	-0.078	-0.028
-243.961	-200.000	-0.013	-0.062
-242.946	222.398	0.183	-0.292
-241.932	168.917	0.045	-0.064
-240.917	-52.792	0.374	0.171
-239.903	-200.000	-0.022	-0.148
-238.888	-200.000	0.019	0.202
-237.873	-15.512	0.326	0.207
-236.859	-81.147	-0.101	0.033
-235.844	446.605	-0.110	0.240
-234.830	763.811	0.079	0.212
-233.815	-109.709	0.143	-0.030
-232.800	-2.499	0.116	-0.080
-231.786	800.000	-0.044	0.170
-230.771	113.819	0.080	0.097
-229.757	-148.386	-0.060	0.005
-228.742	-4.804	-0.217	0.148
-227.727	166.718	0.273	0.384
-226.713	-200.000	0.009	0.256
-225.698	-200.000	-0.018	-0.175
-224.684	-72.492	-0.185	0.068
-223.669	-30.979	0.120	-0.067
-222.655	161.988	-0.199	-0.276
-221.640	-108.037	0.190	0.041
-220.625	-45.945	-0.238	-0.116
-219.611	150.707	-0.080	-0.108
-218.596	-200.000	0.045	-0.311
-217.582	-108.408	-0.054	-0.011
-216.567	-80.140	0.047	-0.015
-215.552	450.982	0.166	-0.363
-214.538	101.289	0.138	-0.159
-213.523	-69.732	-0.339	-0.128
-212.509	800.000	-0.067	-0.241
-211.494	-200.000	0.082	0.525
-210.479	-24.521	0.113	-0.067
-209.465	399.231	0.073	0.151
-208.450	115.380	0.030	-0.037
-207.436	-200.000	-0.051	-0.337
-206.421	-9.857	0.214	-0.141
-205.406	10.068	0.322	0.243
-204.392	800.000	-0.118	0.329
-203.377	-25.229	0.378	-0.221
-202.363	-200.000	-0.027	-0.343
-201.348	-77.009	-0.019	0.006
-200.333	1.864	0.051	0.036
-199.319	-56.762	-0.135	0.059
-198.304	-200.000	-0.009	0.054
-197.290	-122.202	-0.313	-0.051
-196.275	-113.221	0.148	-0.029
-195.260	349.442	0.087	0.169
-194.246	27.900	0.104	-0.087
-193.231	-200.000	-0.021	0.416
-192.217	-200.000	-0.042	-0.205
-191.202	-200.000	-0.009	-0.160
-190.187	800.000	0.052	-0.217
-189.173	381.260	0.106	-0.215
-188.158	-200.000	-0.040	-0.216
-187.144	800.000	-0.069	-0.205
-186.129	-140.074	0.276	-0.029
-185.114	-103.848	-0.262	0.061
-184.100	-39.674	-0.059	-0.030
-183.085	800.000	-0.109	-0.310
-182.071	68.183	-0.104	0.105
-181.056	-61.337	-0.252	0.105
-180.042	457.562	0.039	-0.086
-179.027	-200.000	-0.061	-0.341
-178.012	-200.000	-0.097	0.527
-176.998	-122.528	0.157	0.025
-175.983	-64.038	-0.239	-0.096
-174.969	-148.636	-0.250	0.020
-173.954	-76.754	-0.204	0.071
-172.939	215.528	-0.096	-0.151
-171.925	52.806	0.145	0.137
-170.910	200.190	0.147	-0.224
-169.896	800.000	0.080	0.229
-168.881	170.370	-0.089	0.126
-167.866	-200.000	-0.053	-0.237
-166.852	-70.639	0.121	0.045
-165.837	-103.477	0.354	0.082
-164.823	-200.000	0.014	-0.132
-163.808	-120.434	0.474	-0.080
-162.793	-122.529	-0.062	-0.010
-161.779	8.847	-0.106	0.079
-160.764	-142.969	-0.296	0.028
-159.750	-200.000	-0.031	-0.360
-158.735	-94.053	-0.118	0.032
-157.720	-200.000	0.046	0.323
-156.706	-200.000	0.004	0.265
-155.691	32.920	-0.218	-0.186
-154.677	110.734	0.066	-0.078
-153.662	-200.000	-0.085	0.412
-152.647	-200.000	0.003	0.056
-151.633	16.043	-0.123	0.095
-150.618	-119.428	0.280	-0.048
-149.604	-17.310	0.297	0.185
-148.589	57.863	-0.280	-0.271
-147.574	763.437	0.086	-0.229
-146.560	176.745	0.238	-0.342
-145.545	32.845	0.319	-0.272
-144.531	-1.877	0.396	-0.275
-143.516	117.692	0.143	-0.174
-142.502	622.402	-0.125	-0.312
-141.487	277.531	0.112	0.198
-140.472	-16.231	-0.315	0.198
-139.458	4.052	-0.267	0.193
-138.443	-200.000	0.002	0.241
-137.429	-85.704	-0.256	0.078
-136.414	-35.979	0.269	0.143
-135.399	-200.000	-0.046	0.370
-134.385	800.000	-0.098	0.298
-133.370	686.478	0.040	-0.102
-132.356	104.270	0.052	0.061
-131.341	-200.000	-0.058	-0.477
-130.326	643.697	-0.024	0.061
-129.312	282.355	0.065	-0.115
-128.297	-115.682	-0.199	0.037
-127.283	-58.002	-0.291	0.125
-126.268	-105.288	0.105	0.024
-125.253	207.247	0.103	0.159
-124.239	103.711	-0.069	0.079
-123.224	-200.000	-0.024	-0.338
-122.210	-115.159	-0.158	0.029
-121.195	-106.121	0.416	-0.092
-120.180	-200.000	-0.009	0.074
-119.166	-24.498	-0.064	0.038
-118.151	-130.473	0.382	-0.051
-117.137	50.419	0.255	0.238
-116.122	-200.000	-0.000	0.030
-115.107	-200.000	0.004	0.062
-114.093	800.000	-0.058	-0.248
-113.078	33.572	0.126	0.108
-112.064	-85.772	-0.190	-0.058
-111.049	-97.475	0.339	0.087
-110.034	216.337	0.162	0.253
-109.020	181.480	-0.270	-0.392
-108.005	-103.848	-0.069	-0.016
-106.991	-71.682	0.101	-0.037
-105.976	-119.874	0.126	0.021
-104.962	15.563	-0.252	0.195
-103.947	83.817	0.079	-0.085
-102.932	-26.720	0.091	0.053
-101.918	-168.469	0.046	0.002
-100.903	800.000	0.032	-0.109
-99.889	166.140	-0.137	0.191
-98.874	16.771	-0.115	0.090
-97.859	-200.000	0.001	-0.102
-96.845	-171.769	-0.215	0.007
-95.830	106.986	-0.076	-0.089
-94.816	-58.055	-0.272	-0.117
-93.801	-107.787	0.108	-0.023
-92.786	-200.000	0.014	-0.098
-91.772	-200.000	-0.004	-0.084
-90.757	302.351	-0.034	-0.062
-89.743	-84.671	-0.368	-0.114
-88.728	-113.143	0.071	0.014
-87.713	366.908	0.119	-0.236
-86.699	457.894	-0.141	0.308
-85.684	-200.000	0.041	0.224
-84.670	-118.505	-0.171	-0.030
-83.655	-155.917	0.345	0.022
-82.640	-47.671	0.353	-0.169
-81.626	-82.806	0.148	-0.047
-80.611	-75.635	-0.141	0.049
-79.597	7.435	-0.176	-0.129
-78.582	-200.000	0.036	0.268
-77.567	-12.042	-0.161	0.104
-76.553	191.420	0.178	-0.264
-75.538	-18.408	0.321	-0.198
-74.524	-146.522	0.434	0.037
-73.509	369.405	-0.094	0.187
-72.494	167.655	-0.212	-0.297
-71.480	55.508	-0.174	0.166
-70.465	-24.606	0.289	0.170
-69.451	-78.851	-0.014	0.005
-68.436	20.382	-0.261	0.208
-67.422	-45.743	-0.266	-0.130
-66.407	-55.432	0.535	-0.236
-65.392	10.435	-0.139	-0.104
-64.378	37.532	-0.506	0.442
-63.363	-81.789	-0.061	-0.020
-62.349	58.692	0.272	0.263
-61.334	133.124	-0.557	-0.708
-60.319	-43.949	0.792	0.392
-59.305	-200.000	-0.192	-0.948
-58.290	748.893	0.450	1.193
-57.276	800.000	0.574	1.603
-56.261	-200.000	95.784	594.889
-55.246	565.733	1372.759	3276.634
-54.232	160.895	2550.902	3506.718
-53.217	113.461	2142.515	2559.750
-52.203	44.093	1604.635	1447.926
-51.188	35.799	1341.736	1160.870
-50.173	32.488	1300.622	1105.847
-49.159	54.555	1348.165	1278.644
-48.144	56.822	1364.232	1307.358
-47.130	35.923	1322.998	1145.212
-46.115	32.388	1305.769	1109.457
-45.100	32.153	1300.942	1103.930
-44.086	32.014	1298.504	1100.998
-43.071	32.031	1295.963	1098.900
-42.057	31.989	1293.831	1096.808
-41.042	32.072	1291.996	1095.688
-40.027	32.076	1290.694	1094.567
-39.013	32.101	1288.649	1092.935
-37.998	32.038	1287.231	1091.320
-36.984	32.153	1285.334	1090.336
-35.969	32.136	1283.648	1088.767
-34.954	32.202	1281.679	1087.433
-33.940	32.176	1280.864	1086.550
-32.925	32.269	1278.960	1085.426
-31.911	32.170	1277.880	1083.898
-30.896	32.144	1276.053	1082.157
-29.881	32.275	1274.572	1081.610
-28.867	32.384	1273.152	1080.989
-27.852	32.251	1272.084	1079.277
-26.838	32.285	1269.902	1077.578
-25.823	32.267	1269.214	1076.845
-24.809	32.250	1267.820	1075.526
-23.794	32.186	1266.871	1074.308
-22.779	32.169	1265.397	1072.923
-21.765	32.293	1263.814	1072.243
-20.750	32.268	1263.091	1071.446
-19.736	32.068	1261.941	1069.290
-18.721	32.081	1260.910	1068.445
-17.706	32.121	1259.485	1067.422
-16.692	32.024	1258.195	1065.734
-15.677	32.152	1256.958	1065.372
-14.663	32.034	1256.092	1063.928
-13.648	32.161	1254.536	1063.284
-12.633	32.078	1253.793	1062.146
-11.619	31.936	1253.335	1060.914
-10.604	32.019	1252.314	1060.475
-9.590	32.024	1251.304	1059.606
-8.575	32.038	1250.111	1058.631
-7.560	32.119	1249.154	1058.237
-6.546	32.125	1247.922	1057.185
-5.531	32.017	1247.469	1056.153
-4.517	32.203	1246.656	1056.465
-3.502	32.134	1245.860	1055.364
-2.487	32.054	1244.819	1053.987
-1.473	32.091	1240.493	1050.492
-0.458	30.581	1225.961	1029.789
0.556	27.218	1208.266	993.068
1.571	23.604	1214.185	977.972
2.586	22.748	1229.653	985.561
3.600	22.239	1218.522	973.736
4.615	15.919	1144.955	881.875
5.629	6.017	1069.349	774.918
6.644	1.897	1049.540	740.515
7.659	1.592	1046.249	736.651
8.673	1.425	1045.710	735.396
9.688	1.487	1043.708	734.226
10.702	1.764	1042.609	734.722
11.717	7.563	1051.010	768.713
12.731	17.862	1065.043	829.192
13.746	23.771	1072.580	863.806
14.761	24.816	1074.493	870.356
15.775	25.057	1073.998	871.052
16.790	24.865	1072.913	869.164
17.804	24.635	1072.080	867.297
18.819	24.763	1071.921	867.713
19.834	24.898	1071.718	868.126
20.848	24.981	1071.072	867.928
21.863	25.040	1070.653	867.795
22.877	24.994	1070.026	866.989
23.892	24.939	1069.217	865.989
24.907	24.842	1068.819	865.120
25.921	24.929	1067.728	864.582
26.936	24.840	1066.129	862.783
27.950	24.811	1064.293	861.081
28.965	24.633	1062.805	858.945
29.980	24.787	1061.189	858.300
30.994	25.030	1060.131	858.534
32.009	25.036	1058.958	857.536
33.023	24.969	1057.859	856.252
34.038	24.987	1057.129	855.670
35.053	24.916	1056.615	854.839
36.067	24.964	1056.026	854.516
37.082	25.061	1054.935	854.021
38.096	25.228	1054.540	854.418
39.111	25.282	1053.739	853.955
40.126	25.201	1052.155	852.207
41.140	24.709	1050.577	848.523
42.155	24.522	1049.242	846.484
43.169	24.660	1048.468	846.435
44.184	24.624	1047.428	845.352
45.199	24.547	1046.510	844.173
46.213	24.477	1046.150	843.473
47.228	24.700	1045.321	843.785
48.242	24.833	1044.316	843.526
49.257	24.915	1043.433	843.123
50.271	24.989	1042.554	842.688
51.286	25.014	1041.985	842.269
52.301	25.007	1040.961	841.337
53.315	24.965	1040.129	840.390
54.330	24.921	1038.760	839.004
55.344	24.947	1038.312	838.689
56.359	24.818	1037.625	837.457
57.374	24.654	1036.729	835.896
58.388	24.630	1036.180	835.266
59.403	24.795	1034.838	834.879
60.417	24.499	1034.332	833.016
61.432	24.567	1033.860	832.882
62.447	24.674	1033.276	832.834
63.461	24.774	1032.182	832.346
64.476	24.688	1031.064	830.970
65.490	24.568	1030.380	829.789
66.505	24.536	1029.962	829.230
67.520	24.696	1029.043	829.159
68.534	24.458	1028.308	827.388
69.549	24.116	1027.031	824.706
70.563	24.184	1026.543	824.552
71.578	24.130	1025.384	823.302
72.593	23.996	1024.652	822.022
73.607	24.146	1024.185	822.269
74.622	24.460	1023.819	823.348
75.636	24.619	1022.628	823.051
76.651	24.335	1022.257	821.371
77.666	24.325	1021.520	820.659
78.680	24.365	1020.722	820.130
79.695	24.593	1019.936	820.474
80.709	24.462	1019.726	819.630
81.724	24.485	1018.983	819.065
82.739	24.579	1017.660	818.363
83.753	25.009	1017.833	820.399
84.768	25.243	1016.992	820.718
85.782	25.452	1015.626	820.498
86.797	25.236	1014.738	818.720
87.812	25.172	1013.922	817.698
88.826	25.176	1013.102	816.983
89.841	25.242	1012.285	816.554
90.855	25.287	1011.049	815.689
91.870	25.176	1010.580	814.732
92.884	25.105	1009.389	813.379
93.899	25.085	1008.445	812.456
94.914	25.223	1007.543	812.284
95.928	25.133	1006.241	810.756
96.943	24.814	1005.091	808.314
97.957	24.652	1004.099	806.716
98.972	24.541	1003.309	805.508
99.987	24.856	1002.683	806.354
101.001	24.903	1001.854	805.828
102.016	24.905	1001.233	805.266
103.030	24.763	1000.459	803.934
104.045	24.669	999.264	802.481
105.060	24.494	998.567	801.065
106.074	24.770	997.832	801.639
107.089	25.060	997.066	802.252
108.103	24.881	996.333	800.789
109.118	24.690	995.214	798.966
110.133	24.616	994.190	797.746
111.147	24.413	993.219	795.987
112.162	24.331	991.808	794.422
113.176	24.569	991.281	794.991
114.191	24.492	990.632	794.056
115.206	24.240	989.396	791.876
116.220	24.297	988.596	791.420
117.235	24.462	987.842	791.478
118.249	24.388	987.083	790.471
119.264	24.137	986.485	788.810
120.279	24.360	985.735	789.125
121.293	24.539	984.554	788.903
122.308	24.471	983.767	787.903
123.322	24.394	982.691	786.631
124.337	24.200	981.591	784.828
125.352	23.664	980.218	781.299
126.366	23.636	979.090	780.211
127.381	24.466	979.404	784.037
128.395	24.819	978.722	784.970
129.410	24.900	978.203	784.840
130.424	24.887	976.811	783.597
131.439	24.911	975.847	782.859
132.454	24.900	974.805	781.905
133.468	24.751	974.245	780.737
134.483	24.726	974.004	780.368
135.497	25.123	972.722	780.999
136.512	25.053	972.187	780.196
137.527	25.217	970.875	779.790
138.541	25.145	970.416	779.037
139.556	25.085	969.888	778.286
140.570	25.261	968.912	778.197
141.585	25.207	967.890	777.071
142.600	25.246	966.792	776.292
143.614	25.317	966.200	776.054
144.629	25.434	965.958	776.298
145.643	25.326	964.186	774.340
146.658	25.193	962.609	772.432
147.673	25.027	961.827	771.020
148.687	25.004	960.872	770.087
149.702	25.029	959.565	769.080
150.716	24.887	958.968	767.923
151.731	25.191	958.062	768.431
152.746	25.230	957.803	768.325
153.760	25.309	957.136	768.059
154.775	25.431	956.587	768.074
155.789	25.423	955.669	767.233
156.804	25.372	954.408	765.936
157.819	25.432	954.001	765.798
158.833	25.534	953.283	765.587
159.848	25.478	952.480	764.636
160.862	25.289	951.573	763.037
161.877	25.272	950.352	761.919
162.892	25.349	949.544	761.529
163.906	25.203	948.420	759.941
164.921	25.195	947.711	759.273
165.935	25.429	946.381	759.129
166.950	25.233	945.897	757.847
167.964	25.316	945.193	757.565
168.979	25.204	943.966	756.042
169.994	25.122	942.974	754.836
171.008	25.332	942.904	755.597
172.023	25.376	941.555	754.636
173.037	25.222	940.408	753.003
174.052	25.063	939.571	751.600
175.067	25.038	939.046	751.007
176.081	25.151	938.676	751.118
177.096	25.101	937.931	750.248
178.110	24.694	937.085	747.801
179.125	24.728	936.127	747.114
180.140	24.741	935.861	746.888
181.154	24.945	935.672	747.524
182.169	25.127	935.815	748.330
183.183	25.403	934.892	748.676
184.198	25.185	934.230	747.173
185.213	25.120	933.485	746.241
186.227	25.263	933.119	746.476
187.242	25.333	932.217	745.979
188.256	25.398	931.788	745.840
189.271	25.385	930.849	744.970
190.286	25.078	929.761	742.758
191.300	24.456	928.335	738.983
192.315	23.660	926.944	734.517
193.329	23.764	926.149	734.250
194.344	24.586	927.026	738.282
195.359	25.180	926.810	740.496
196.373	25.240	926.257	740.237
197.388	25.149	925.756	739.395
198.402	25.148	925.247	738.920
199.417	25.139	924.694	738.376
200.432	24.966	923.175	736.386
201.446	24.871	922.670	735.528
202.461	24.956	921.872	735.174
203.475	24.034	920.131	729.943
204.490	23.200	918.581	725.233
205.504	24.260	919.058	729.886
206.519	24.608	919.792	731.830
207.534	24.856	919.055	732.196
208.548	25.201	918.848	733.374
209.563	24.998	917.563	731.458
210.577	24.901	917.047	730.584
211.592	25.509	916.716	732.734
212.607	25.397	915.797	731.479
213.621	25.445	915.518	731.389
214.636	25.471	914.585	730.685
215.650	25.345	914.092	729.713
216.665	25.506	912.865	729.321
217.680	25.446	912.285	728.551
218.694	24.997	911.153	725.764
219.709	24.878	910.698	724.854
220.723	25.255	910.098	725.841
221.738	25.192	909.890	725.355
222.753	25.189	909.229	724.750
223.767	25.262	908.649	724.520
224.782	25.428	908.496	725.004
225.796	25.483	907.408	724.292
226.811	24.816	906.421	720.755
227.826	24.209	904.689	716.872
228.840	24.295	904.713	717.175
229.855	24.311	904.030	716.635
230.869	24.257	902.522	715.157
231.884	24.572	903.113	716.829
232.899	25.095	903.133	718.878
233.913	24.955	902.677	717.891
234.928	24.994	901.622	717.145
235.942	25.018	900.906	716.606
236.957	24.822	900.024	715.057
237.972	24.704	899.853	714.390
238.986	24.951	898.790	714.469
240.001	24.790	898.635	713.639
241.015	24.960	898.265	713.958
242.030	25.299	897.387	714.547
243.045	25.342	896.694	714.102
244.059	25.302	896.874	714.023
245.074	25.085	895.905	712.329
246.088	24.846	894.498	710.197
247.103	25.007	894.695	710.931
248.117	25.603	894.791	713.307
249.132	25.871	894.060	713.723
250.147	25.977	893.784	713.860
251.161	26.160	893.398	714.213
252.176	26.103	892.414	713.138
253.190	26.117	892.006	712.803
254.205	26.305	891.490	713.072
255.220	26.251	890.987	712.394
256.234	25.973	890.581	710.908
257.249	26.002	889.159	709.824
258.263	26.077	888.735	709.718
259.278	26.054	887.952	708.939
260.293	26.256	887.218	709.085
261.307	25.980	886.550	707.407
262.322	25.763	886.189	706.201
263.336	25.083	884.042	701.768
264.351	24.135	882.350	696.656
265.366	24.235	881.986	696.698
266.380	25.221	883.083	701.362
267.395	25.637	882.458	702.425
268.409	25.653	881.661	701.792
269.424	25.918	881.257	702.442
270.439	25.987	880.668	702.177
271.453	25.901	880.242	701.444
272.468	26.046	879.735	701.541
273.482	26.209	878.943	701.479
274.497	25.763	878.253	699.135
275.512	25.358	877.434	696.852
276.526	25.957	876.632	698.472
277.541	26.020	876.754	698.754
278.555	25.633	875.966	696.566
279.570	25.611	875.508	696.053
280.585	25.737	874.784	695.904
281.599	25.746	873.978	695.236
282.614	25.153	872.799	691.950
283.628	25.091	872.495	691.409
284.643	25.543	871.916	692.628
285.657	25.130	870.699	690.013
286.672	24.820	870.115	688.297
287.687	25.297	870.454	690.338
288.701	25.529	869.379	690.317
289.716	25.188	868.548	688.285
290.730	25.240	867.895	687.909
291.745	24.782	867.206	685.544
292.760	25.101	867.166	686.674
293.774	26.128	867.291	690.645
294.789	26.443	867.188	691.706
295.803	26.427	866.608	691.122
296.818	26.625	865.428	690.875
297.833	26.160	864.474	688.282
298.847	25.913	863.797	686.741
299.862	26.317	863.781	688.205
300.876	26.574	863.537	688.927
301.891	26.330	862.703	687.274
302.906	25.959	861.932	685.188
303.920	26.135	861.563	685.503
304.935	26.381	861.809	686.575
305.949	26.380	860.613	685.557
306.964	26.191	859.884	684.199
307.979	26.219	859.574	683.996
308.993	26.642	859.273	685.298
310.008	26.542	858.920	684.576
311.022	26.364	857.737	682.903
312.037	26.143	857.090	681.490
313.052	25.883	856.648	680.099
314.066	24.857	854.841	674.738
315.081	24.613	854.441	673.442
316.095	25.558	854.584	677.055
317.110	25.955	854.488	678.414
318.125	25.206	852.925	674.301
319.139	24.063	851.305	668.670
320.154	24.193	851.129	668.958
321.168	25.208	851.403	672.924
322.183	25.759	851.552	675.050
323.197	26.140	851.042	676.013
324.212	26.229	850.775	676.076
325.227	26.337	849.702	675.565
326.241	26.040	849.436	674.184
327.256	25.962	848.900	673.407
328.270	25.998	847.879	672.673
329.285	25.881	846.827	671.342
330.300	25.570	846.244	669.664
331.314	25.718	846.276	670.183
332.329	26.214	846.454	672.110
333.343	26.334	846.176	672.274
334.358	26.185	845.566	671.177
335.373	26.409	845.111	671.589
336.387	26.465	845.428	671.990
337.402	26.780	845.293	672.991
338.416	26.684	844.505	671.949
339.431	26.978	843.936	672.527
340.446	27.043	843.719	672.533
341.460	26.806	843.338	671.294
342.475	26.583	842.902	670.063
343.489	26.767	842.468	670.339
344.504	27.032	842.299	671.123
345.519	27.085	841.780	670.846
346.533	27.046	841.628	670.522
347.548	27.176	840.843	670.317
348.562	27.052	840.342	669.401
349.577	27.106	839.418	668.805
350.592	27.129	839.041	668.529
351.606	26.707	838.467	666.460
352.621	26.980	837.269	666.453
353.635	26.725	836.413	664.776
354.650	26.046	834.999	661.108
355.665	25.055	834.265	656.837
356.679	25.656	833.478	658.359
357.694	26.052	833.246	659.566
358.708	26.128	832.375	659.096
359.723	26.485	832.346	660.317
360.738	26.841	831.753	661.085
361.752	26.893	831.269	660.834
362.767	27.020	831.195	661.178
363.781	27.397	830.967	662.309
364.796	27.530	830.457	662.328
365.810	27.451	830.207	661.784
366.825	27.442	830.001	661.527
367.840	27.106	829.089	659.525
368.854	26.695	828.008	657.113
369.869	26.783	827.790	657.202
370.883	26.843	827.471	657.107
371.898	26.684	826.935	656.048
372.913	26.789	826.680	656.168
373.927	26.861	826.426	656.170
374.942	27.193	825.658	656.701
375.956	27.068	825.521	656.082
376.971	27.419	824.709	656.644
377.986	27.425	824.726	656.622
379.000	27.442	824.140	656.159
380.015	27.326	823.322	655.033
381.029	27.407	822.726	654.792
382.044	27.509	822.226	654.704
383.059	27.444	821.707	653.996
384.073	27.578	821.286	654.084
385.088	27.464	820.434	652.941
386.102	27.263	820.063	651.867
387.117	27.042	819.584	650.638
388.132	26.868	817.927	648.641
389.146	26.410	817.087	646.283
390.161	26.787	817.302	647.742
391.175	27.116	817.183	648.765
392.190	26.772	815.805	646.388
393.205	25.511	813.757	640.221
394.219	24.057	812.093	633.681
395.234	23.859	811.819	632.707
396.248	25.393	813.387	639.338
397.263	26.946	814.369	645.584
398.278	26.957	814.009	645.280
399.292	26.635	813.001	643.280
400.307	26.530	812.914	642.781
401.321	26.745	812.466	643.134
402.336	27.179	812.468	644.617
403.350	27.483	812.189	645.415
404.365	27.857	811.899	646.452
405.380	28.076	811.862	647.141
406.394	28.089	811.337	646.711
407.409	28.063	810.636	646.005
408.423	28.029	810.291	645.551
409.438	28.227	809.957	645.927
410.453	28.165	809.554	645.330
411.467	28.073	808.865	644.399
412.482	28.057	808.542	644.028
413.496	28.125	808.468	644.155
414.511	28.183	807.795	643.766
415.526	28.213	807.422	643.515
416.540	27.988	806.672	642.069
417.555	27.888	805.719	640.903
418.569	27.864	805.523	640.607
419.584	27.748	805.511	640.136
420.599	27.668	804.312	638.845
421.613	110.480	1286.471	1458.735
422.628	95.379	1356.727	1458.856
