DTS Sentinel unit serial number:	SN413079Multiplexer serial number:	ORYXHardware model number:	OX4-SRSoftware version number:	ORYX F/W v4.00 Oryx Data Collector v3.7.2.0data status	okinstallation	princeton_trtdifferential loss correction	single-endedforward channel	channel 1reverse channel	N/Adate	2019/09/12time	02:24:11forward acquisition time	60.00reverse acquisition time	0.00gamma	496.2192k internal	0.2321k external	0.2321temperature offset calibration	1.0080default loss term (dB/km)	0.3790temperature slope calibration	1.0000multiplexer offset coefficient	1.0000multiplexer slope coefficient	1.0000fibre end	0.00T internal ref (°C)	32.55T ext. ref 1 (°C)	2.07T ext. ref 2 (°C)	27.08length (m)	temperature (°C)	Stokes	anti-Stokes-747.200	-101.592	0.493	0.121
-746.185	389.002	0.088	0.184
-745.171	106.028	-0.126	0.150
-744.156	-29.076	-0.100	0.058
-743.142	776.478	0.083	0.228
-742.127	-200.000	-0.010	0.074
-741.112	-81.273	0.047	-0.016
-740.098	-64.937	-0.469	-0.192
-739.083	222.852	0.196	0.320
-738.069	-200.000	0.047	0.314
-737.054	177.793	-0.139	0.205
-736.039	71.508	-0.219	-0.230
-735.025	800.000	0.088	-0.249
-734.010	800.000	-0.087	0.280
-732.996	-200.000	-0.021	-0.302
-731.981	21.129	-0.474	0.388
-730.966	-67.424	0.166	0.066
-729.952	-60.226	0.296	-0.128
-728.937	-40.596	-0.186	-0.097
-727.923	-49.082	0.228	0.110
-726.908	-200.000	0.001	-0.182
-725.894	800.000	0.050	-0.155
-724.879	-58.779	0.054	-0.024
-723.864	-13.271	0.432	0.283
-722.850	-200.000	-0.041	-0.278
-721.835	-59.568	0.072	0.031
-720.821	207.477	-0.070	0.110
-719.806	106.091	-0.083	0.099
-718.791	-122.015	0.196	0.033
-717.777	-54.280	0.248	-0.113
-716.762	-59.578	-0.135	-0.058
-715.748	-56.701	0.302	0.135
-714.733	12.827	-0.217	-0.169
-713.718	-79.323	-0.288	-0.099
-712.704	-200.000	0.022	-0.195
-711.689	549.725	-0.081	-0.196
-710.675	149.115	-0.073	-0.100
-709.660	800.000	0.096	-0.418
-708.645	130.662	0.221	-0.286
-707.631	-122.168	-0.288	-0.048
-706.616	-155.700	-0.310	0.020
-705.602	578.167	-0.051	-0.125
-704.587	495.105	-0.101	0.235
-703.572	-130.472	0.179	-0.024
-702.558	-4.735	0.201	0.140
-701.543	784.664	-0.062	0.171
-700.529	800.000	0.066	-0.225
-699.514	-77.222	-0.262	-0.092
-698.499	-148.537	-0.111	-0.009
-697.485	375.999	-0.090	-0.184
-696.470	-105.532	-0.394	0.090
-695.456	142.271	0.268	0.359
-694.441	404.189	-0.037	0.078
-693.426	216.765	-0.012	-0.019
-692.412	105.354	-0.175	-0.209
-691.397	459.662	-0.103	-0.231
-690.383	-47.658	-0.099	0.049
-689.368	-88.733	-0.355	-0.106
-688.354	194.637	0.185	-0.283
-687.339	-200.000	0.038	-0.244
-686.324	-153.751	-0.240	0.017
-685.310	39.668	0.250	-0.226
-684.295	800.000	-0.106	-0.309
-683.281	7.032	-0.128	-0.096
-682.266	-6.965	-0.287	-0.196
-681.251	-32.215	0.342	0.193
-680.237	23.439	-0.161	-0.134
-679.222	-14.898	-0.458	-0.296
-678.208	-200.000	-0.010	0.117
-677.193	-44.596	0.215	-0.108
-676.178	-25.320	-0.236	-0.140
-675.164	8.502	-0.065	-0.049
-674.149	67.268	-0.210	0.216
-673.135	402.739	-0.056	-0.119
-672.120	305.951	-0.031	0.058
-671.105	106.303	-0.058	0.070
-670.091	-200.000	-0.010	0.344
-669.076	-27.376	0.030	0.017
-668.062	181.687	-0.132	-0.196
-667.047	-64.745	0.163	0.066
-666.032	800.000	0.052	-0.224
-665.018	94.238	-0.088	-0.101
-664.003	660.135	0.013	-0.033
-662.989	-200.000	0.008	-0.043
-661.974	800.000	0.092	-0.314
-660.959	-97.149	0.144	0.038
-659.945	469.350	-0.098	0.222
-658.930	-101.341	-0.279	-0.069
-657.916	800.000	-0.129	0.375
-656.901	-63.378	-0.338	0.140
-655.886	-78.455	-0.321	-0.111
-654.872	20.614	-0.178	0.145
-653.857	-200.000	-0.008	-0.290
-652.843	-54.440	0.079	-0.036
-651.828	-47.641	-0.172	0.084
-650.814	94.411	0.151	-0.173
-649.799	-74.194	-0.243	0.088
-648.784	800.000	-0.070	-0.260
-647.770	114.758	0.034	0.042
-646.755	-38.780	-0.534	-0.283
-645.741	-83.304	0.329	-0.106
-644.726	117.027	-0.118	0.146
-643.711	-4.406	-0.140	0.098
-642.697	800.000	0.018	0.059
-641.682	-200.000	0.047	-0.455
-640.668	42.677	-0.148	0.136
-639.653	-200.000	-0.020	-0.127
-638.638	346.516	-0.009	0.017
-637.624	442.269	0.078	0.173
-636.609	800.000	-0.025	-0.100
-635.595	-200.000	0.004	-0.118
-634.580	-38.290	-0.313	0.167
-633.565	-132.350	0.113	-0.015
-632.551	496.531	0.069	0.160
-631.536	0.332	0.123	0.088
-630.522	370.747	-0.123	-0.251
-629.507	176.648	-0.027	-0.039
-628.492	-22.417	-0.252	0.154
-627.478	115.838	-0.105	-0.130
-626.463	-200.000	0.014	-0.091
-625.449	109.353	-0.172	0.208
-624.434	-200.000	-0.028	-0.201
-623.419	185.412	-0.165	-0.247
-622.405	-200.000	-0.059	0.406
-621.390	-85.473	0.172	-0.054
-620.376	-111.426	-0.073	0.015
-619.361	800.000	-0.020	-0.078
-618.346	267.163	-0.116	-0.203
-617.332	-35.743	0.164	-0.089
-616.317	54.197	0.171	-0.166
-615.303	100.025	-0.148	0.173
-614.288	-85.512	0.243	-0.076
-613.273	70.214	-0.064	0.066
-612.259	800.000	-0.109	0.344
-611.244	500.053	0.079	-0.184
-610.230	-36.840	-0.069	-0.037
-609.215	-135.274	0.606	-0.073
-608.201	-200.000	0.052	-0.253
-607.186	-146.860	-0.090	-0.008
-606.171	-46.309	-0.375	0.185
-605.157	-25.280	-0.180	0.107
-604.142	23.935	0.199	-0.165
-603.128	800.000	0.048	-0.209
-602.113	-23.446	-0.237	-0.143
-601.098	434.715	-0.139	-0.303
-600.084	20.590	0.061	-0.049
-599.069	-135.131	0.398	0.048
-598.055	-52.430	-0.200	0.093
-597.040	-200.000	0.049	-0.259
-596.025	-200.000	0.012	-0.073
-595.011	-60.303	-0.349	0.149
-593.996	-155.762	-0.312	-0.020
-592.982	-200.000	-0.027	-0.304
-591.967	800.000	0.031	-0.136
-590.952	800.000	0.007	0.027
-589.938	-106.226	-0.318	0.072
-588.923	-84.184	-0.131	-0.042
-587.909	68.875	0.096	0.100
-586.894	419.614	-0.023	0.048
-585.879	-134.808	-0.228	-0.028
-584.865	265.160	-0.059	0.103
-583.850	258.726	0.109	-0.189
-582.836	25.319	0.377	0.315
-581.821	232.788	-0.040	-0.066
-580.806	385.693	-0.037	0.076
-579.792	426.413	0.072	-0.157
-578.777	-50.237	-0.122	0.058
-577.763	-43.322	0.121	-0.061
-576.748	173.373	-0.041	0.059
-575.733	800.000	-0.101	0.384
-574.719	249.113	-0.077	0.130
-573.704	-186.103	-0.372	0.005
-572.690	-200.000	0.045	-0.249
-571.675	53.906	0.165	-0.159
-570.661	5.510	0.153	-0.114
-569.646	-148.914	-0.489	0.040
-568.631	508.272	0.142	0.331
-567.617	-36.977	0.106	0.057
-566.602	-112.324	0.228	-0.046
-565.588	-45.367	-0.058	0.029
-564.573	760.585	-0.019	0.052
-563.558	-51.369	-0.061	-0.029
-562.544	364.701	0.093	-0.187
-561.529	800.000	0.069	-0.280
-560.515	188.813	0.068	0.103
-559.500	-47.704	0.300	-0.146
-558.485	-165.335	-0.108	0.005
-557.471	228.326	-0.084	0.137
-556.456	-200.000	0.020	-0.202
-555.442	-3.218	0.115	0.081
-554.427	-200.000	-0.034	-0.165
-553.412	-200.000	0.007	-0.224
-552.398	-200.000	0.011	0.297
-551.383	-44.778	0.365	-0.183
-550.369	-130.359	-0.162	-0.022
-549.354	-200.000	-0.058	-0.344
-548.339	-95.203	-0.209	0.056
-547.325	28.130	-0.051	0.043
-546.310	-10.062	0.188	-0.125
-545.296	159.918	0.226	-0.316
-544.281	-187.210	-0.111	0.002
-543.266	-200.000	-0.016	0.278
-542.252	-31.322	0.166	0.094
-541.237	206.480	-0.082	0.127
-540.223	800.000	0.020	-0.084
-539.208	34.191	-0.182	0.159
-538.193	145.586	0.187	-0.251
-537.179	800.000	0.069	0.302
-536.164	-52.296	-0.209	0.097
-535.150	71.270	0.110	-0.115
-534.135	-27.745	0.073	-0.043
-533.121	54.785	-0.245	-0.237
-532.106	800.000	0.036	-0.118
-531.091	52.104	-0.173	-0.165
-530.077	-50.731	0.369	0.174
-529.062	-200.000	-0.055	0.251
-528.048	126.005	-0.080	-0.101
-527.033	-67.011	0.140	-0.055
-526.018	-37.318	0.141	-0.075
-525.004	-200.000	0.004	0.075
-523.989	-200.000	-0.004	-0.130
-522.975	-98.523	-0.176	-0.045
-521.960	-200.000	0.015	0.099
-520.945	-200.000	-0.019	-0.227
-519.931	213.014	-0.076	-0.120
-518.916	-200.000	0.015	0.321
-517.902	800.000	0.090	0.394
-516.887	571.068	0.176	0.428
-515.872	754.099	-0.088	-0.239
-514.858	8.155	-0.038	0.029
-513.843	800.000	-0.070	-0.305
-512.829	800.000	-0.048	-0.139
-511.814	72.633	-0.078	0.081
-510.799	374.845	-0.022	-0.045
-509.785	-189.234	0.315	0.004
-508.770	-110.314	-0.042	-0.009
-507.756	185.797	-0.036	0.053
-506.741	309.036	-0.185	0.346
-505.726	-200.000	0.017	-0.201
-504.712	-200.000	0.053	-0.367
-503.697	-75.880	-0.239	-0.085
-502.683	800.000	-0.064	-0.233
-501.668	361.272	-0.112	0.225
-500.653	-34.403	-0.252	-0.138
-499.639	-61.178	0.353	-0.149
-498.624	568.536	-0.030	-0.073
-497.610	211.792	0.125	0.197
-496.595	45.597	0.323	-0.298
-495.581	-54.761	-0.280	-0.127
-494.566	37.915	0.256	-0.227
-493.551	-180.983	-0.234	-0.005
-492.537	287.906	-0.063	-0.113
-491.522	186.550	0.053	-0.078
-490.508	228.836	0.027	0.045
-489.493	213.675	-0.066	-0.104
-488.478	-138.637	0.084	-0.009
-487.464	-61.592	0.155	-0.065
-486.449	53.020	-0.107	0.102
-485.435	143.560	0.083	0.111
-484.420	800.000	-0.051	0.165
-483.405	70.593	0.299	0.309
-482.391	-108.063	0.333	0.072
-481.376	-67.977	-0.270	0.105
-480.362	-137.386	0.184	0.021
-479.347	-37.503	-0.240	0.128
-478.332	-200.000	-0.004	-0.232
-477.318	-124.079	-0.304	0.048
-476.303	-65.712	-0.103	-0.041
-475.289	-58.513	-0.132	-0.057
-474.274	-157.340	0.376	0.023
-473.259	75.898	0.026	0.027
-472.245	-113.837	-0.188	0.036
-471.230	-146.971	-0.133	-0.011
-470.216	-200.000	0.024	-0.164
-469.201	-200.000	0.009	-0.265
-468.186	166.629	0.093	-0.131
-467.172	-144.044	-0.218	-0.020
-466.157	1.845	0.043	-0.031
-465.143	-162.764	-0.210	0.010
-464.128	-70.646	0.435	-0.164
-463.113	42.511	0.053	-0.048
-462.099	-200.000	-0.058	-0.256
-461.084	330.738	-0.103	-0.198
-460.070	-200.000	0.042	0.307
-459.055	800.000	0.052	-0.175
-458.040	150.511	0.121	-0.164
-457.026	-67.472	-0.227	-0.089
-456.011	16.712	0.075	-0.059
-454.997	98.739	-0.113	0.130
-453.982	-74.840	-0.144	0.051
-452.968	-104.419	0.235	-0.054
-451.953	-16.234	0.132	-0.084
-450.938	-81.440	-0.214	0.070
-449.924	-151.360	-0.139	0.010
-448.909	-200.000	-0.025	0.152
-447.895	-91.342	0.123	0.035
-446.880	-168.109	0.133	-0.005
-445.865	300.464	-0.150	-0.276
-444.851	-200.000	0.017	-0.087
-443.836	-200.000	-0.014	-0.162
-442.822	800.000	0.054	-0.213
-441.807	-15.862	0.337	0.214
-440.792	245.867	0.171	-0.287
-439.778	59.365	-0.272	0.268
-438.763	800.000	0.099	0.380
-437.749	47.399	-0.123	-0.114
-436.734	-132.086	-0.166	0.022
-435.719	326.058	0.119	0.227
-434.705	-28.502	-0.230	0.133
-433.690	5.748	0.022	-0.016
-432.676	195.998	0.174	0.264
-431.661	800.000	0.071	0.298
-430.646	29.791	0.098	-0.083
-429.632	-22.734	-0.189	-0.114
-428.617	-28.185	-0.122	0.070
-427.603	-135.399	-0.142	0.017
-426.588	-200.000	0.009	-0.186
-425.573	665.170	-0.048	-0.123
-424.559	-94.093	-0.218	0.060
-423.544	-200.000	0.007	0.130
-422.530	-2.903	-0.169	0.118
-421.515	-22.182	0.326	-0.197
-420.500	70.810	0.316	-0.326
-419.486	-54.261	-0.198	-0.090
-418.471	-148.892	-0.254	0.021
-417.457	493.925	-0.186	0.425
-416.442	800.000	0.100	0.356
-415.428	-169.343	0.344	-0.013
-414.413	-93.946	0.092	-0.025
-413.398	-87.264	0.453	-0.137
-412.384	-61.044	-0.091	-0.039
-411.369	-200.000	-0.026	-0.391
-410.355	368.829	-0.070	-0.142
-409.340	-200.000	0.028	0.260
-408.325	200.242	-0.100	0.154
-407.311	378.911	-0.125	-0.254
-406.296	-17.000	-0.241	0.151
-405.282	-153.887	0.237	-0.016
-404.267	-200.000	-0.038	-0.221
-403.252	-157.327	0.332	0.020
-402.238	18.374	0.068	-0.054
-401.223	-43.695	0.050	-0.025
-400.209	167.828	0.248	0.352
-399.194	136.343	-0.043	0.055
-398.179	-138.772	0.101	-0.011
-397.165	-25.692	-0.177	-0.104
-396.150	-164.011	0.167	0.008
-395.136	136.482	0.146	-0.190
-394.121	162.023	0.151	0.212
-393.106	635.692	0.039	0.098
-392.092	-200.000	-0.016	-0.186
-391.077	-46.165	0.164	0.080
-390.063	-200.000	0.002	0.212
-389.048	5.782	0.455	0.336
-388.033	23.607	-0.226	0.185
-387.019	-200.000	-0.006	-0.193
-386.004	57.503	-0.291	-0.284
-384.990	800.000	0.034	0.110
-383.975	800.000	-0.094	-0.286
-382.960	43.642	0.145	0.132
-381.946	-144.853	0.356	-0.032
-380.931	385.997	-0.047	0.097
-379.917	399.784	-0.083	-0.173
-378.902	-200.000	-0.005	-0.128
-377.888	195.539	-0.184	0.279
-376.873	800.000	0.097	0.304
-375.858	800.000	0.096	0.276
-374.844	-52.762	-0.072	0.033
-373.829	-28.335	0.327	0.188
-372.815	800.000	-0.036	0.139
-371.800	-102.583	-0.265	-0.063
-370.785	570.198	0.100	-0.242
-369.771	800.000	-0.137	0.413
-368.756	-148.444	-0.176	-0.014
-367.742	800.000	0.088	-0.281
-366.727	107.576	0.140	-0.166
-365.712	-200.000	-0.011	0.176
-364.698	-200.000	0.048	-0.230
-363.683	-200.000	-0.008	-0.282
-362.669	162.557	-0.075	0.104
-361.654	637.295	0.122	0.307
-360.639	-31.537	-0.051	-0.028
-359.625	-44.036	0.207	-0.104
-358.610	-161.940	0.047	0.002
-357.596	-113.838	0.154	0.030
-356.581	-119.933	-0.339	-0.058
-355.566	252.827	0.065	-0.111
-354.552	20.414	0.165	-0.133
-353.537	-118.499	-0.132	-0.023
-352.523	130.240	-0.168	-0.214
-351.508	-57.768	-0.090	0.039
-350.493	180.908	-0.100	-0.146
-349.479	48.883	-0.193	-0.180
-348.464	206.128	0.035	-0.054
-347.450	-21.469	-0.164	-0.100
-346.435	405.430	-0.063	0.132
-345.420	-179.572	-0.108	-0.002
-344.406	62.378	-0.370	-0.368
-343.391	800.000	0.027	-0.100
-342.377	-200.000	0.024	0.283
-341.362	-127.081	-0.412	0.060
-340.348	235.012	0.084	0.137
-339.333	36.330	-0.167	0.146
-338.318	77.014	0.274	0.290
-337.304	-121.194	0.338	0.056
-336.289	-200.000	0.024	-0.220
-335.275	-114.519	-0.142	-0.027
-334.260	-200.000	0.061	0.399
-333.245	-116.040	-0.193	0.036
-332.231	-34.202	0.282	0.154
-331.216	-200.000	-0.007	-0.091
-330.202	132.040	-0.045	-0.057
-329.187	137.512	0.106	-0.138
-328.172	-161.048	-0.085	0.004
-327.158	92.670	-0.083	-0.093
-326.143	-59.842	-0.382	-0.163
-325.129	-200.000	-0.014	-0.165
-324.114	162.031	0.080	-0.112
-323.099	-200.000	-0.019	-0.270
-322.085	12.877	-0.269	-0.207
-321.070	89.884	0.157	0.175
-320.056	135.841	0.111	0.143
-319.041	-130.959	0.133	0.018
-318.026	-75.202	-0.179	-0.064
-317.012	478.299	-0.092	-0.206
-315.997	392.845	0.120	-0.248
-314.983	346.513	0.113	0.221
-313.968	92.029	0.122	0.136
-312.953	800.000	0.041	-0.154
-311.939	103.951	0.092	-0.107
-310.924	8.529	-0.016	-0.012
-309.910	165.770	0.055	-0.077
-308.895	36.660	0.026	-0.023
-307.880	-200.000	0.001	-0.239
-306.866	324.871	0.052	0.098
-305.851	800.000	0.037	0.159
-304.837	85.414	-0.172	0.188
-303.822	190.448	0.150	0.224
-302.807	91.302	0.226	-0.252
-301.793	800.000	0.090	-0.336
-300.778	-79.399	0.152	0.051
-299.764	-130.433	-0.311	0.042
-298.749	800.000	-0.072	-0.281
-297.735	-119.549	0.217	0.037
-296.720	-39.884	-0.087	0.045
-295.705	800.000	-0.035	0.132
-294.691	507.467	0.093	0.215
-293.676	-64.701	-0.226	0.091
-292.662	280.369	0.145	0.258
-291.647	207.590	-0.099	0.153
-290.632	308.986	0.164	-0.305
-289.618	-107.776	0.509	0.110
-288.603	800.000	-0.106	0.353
-287.589	-71.764	0.224	0.083
-286.574	-90.235	-0.238	-0.069
-285.559	59.360	-0.232	0.227
-284.545	-170.150	0.088	-0.003
-283.530	205.243	-0.174	0.269
-282.516	-200.000	0.032	-0.154
-281.501	-1.052	0.117	-0.082
-280.486	10.650	0.095	-0.072
-279.472	130.144	0.078	-0.099
-278.457	-33.935	0.093	0.051
-277.443	-25.132	-0.230	0.135
-276.428	40.275	-0.090	-0.080
-275.413	132.045	-0.191	0.244
-274.399	33.166	0.150	0.129
-273.384	-95.734	0.090	-0.024
-272.370	-200.000	-0.015	0.190
-271.355	-5.319	0.142	0.097
-270.340	128.917	-0.133	-0.168
-269.326	422.646	0.072	-0.153
-268.311	355.105	-0.075	-0.147
-267.297	-87.570	0.317	0.095
-266.282	-79.237	-0.298	0.100
-265.267	64.199	-0.297	-0.297
-264.253	-200.000	-0.014	-0.195
-263.238	-11.817	-0.096	-0.062
-262.224	32.467	-0.107	0.092
-261.209	439.403	0.194	0.419
-260.195	800.000	-0.084	0.250
-259.180	669.787	-0.097	0.248
-258.165	145.022	0.067	-0.089
-257.151	39.596	0.138	-0.123
-256.136	800.000	0.088	-0.289
-255.122	-81.912	-0.219	0.071
-254.107	46.820	0.126	0.116
-253.092	18.869	0.128	-0.101
-252.078	-200.000	-0.033	0.165
-251.063	129.974	0.358	-0.454
-250.049	111.035	0.217	-0.259
-249.034	800.000	0.090	-0.248
-248.019	105.810	0.170	-0.199
-247.005	-200.000	0.037	-0.237
-245.990	800.000	-0.009	-0.039
-244.976	-107.652	-0.203	0.044
-243.961	116.375	-0.194	0.235
-242.946	69.557	0.356	0.364
-241.932	88.857	-0.175	-0.193
-240.917	-200.000	0.003	-0.030
-239.903	-200.000	-0.000	0.022
-238.888	-114.360	-0.086	0.016
-237.873	-200.000	0.016	-0.136
-236.859	-200.000	0.018	0.215
-235.844	124.279	0.131	-0.164
-234.830	-68.604	-0.169	-0.065
-233.815	800.000	0.086	0.260
-232.800	-154.705	0.106	0.007
-231.786	-76.766	0.059	-0.020
-230.771	74.095	0.115	-0.119
-229.757	19.811	0.171	-0.137
-228.742	70.655	-0.146	0.150
-227.727	-47.767	0.229	-0.110
-226.713	800.000	0.028	-0.082
-225.698	-89.287	0.248	-0.073
-224.684	96.709	-0.029	-0.033
-223.669	-68.522	-0.364	-0.140
-222.655	131.975	0.083	0.106
-221.640	57.436	0.099	0.096
-220.625	210.547	-0.133	0.208
-219.611	87.885	0.208	0.229
-218.596	70.555	-0.201	0.206
-217.582	-200.000	0.017	0.114
-216.567	4.941	0.076	0.055
-215.552	75.230	0.206	0.215
-214.538	-104.734	-0.243	-0.055
-213.523	-69.766	-0.200	-0.075
-212.509	-123.736	0.116	-0.018
-211.494	47.527	0.184	-0.169
-210.479	574.530	-0.028	0.067
-209.465	67.247	0.158	0.160
-208.450	382.355	0.070	0.143
-207.436	-119.629	-0.122	-0.021
-206.421	213.463	-0.153	-0.239
-205.406	-21.954	-0.479	0.288
-204.392	-185.200	-0.310	-0.005
-203.377	117.702	0.032	0.039
-202.363	-42.273	-0.102	0.051
-201.348	17.476	0.268	0.211
-200.333	800.000	0.155	0.428
-199.319	123.898	0.039	-0.048
-198.304	155.870	0.090	-0.122
-197.290	76.911	0.093	-0.098
-196.275	-200.000	0.002	0.468
-195.260	-200.000	0.019	-0.170
-194.246	-191.077	-0.073	-0.001
-193.231	-200.000	-0.006	0.044
-192.217	-163.468	0.190	-0.009
-191.202	70.666	0.210	0.215
-190.187	474.774	-0.124	-0.276
-189.173	263.408	0.042	-0.072
-188.158	510.435	-0.025	-0.057
-187.144	800.000	0.061	0.169
-186.129	-200.000	-0.054	-0.249
-185.114	-82.920	-0.242	0.077
-184.100	-32.038	-0.204	-0.113
-183.085	100.387	0.153	-0.176
-182.071	358.523	0.152	0.300
-181.056	183.482	-0.055	0.080
-180.042	-200.000	0.001	0.031
-179.027	-126.211	-0.339	0.050
-178.012	-146.379	-0.178	0.015
-176.998	-129.504	0.208	0.029
-175.983	0.648	-0.150	0.106
-174.969	-195.906	-0.131	0.001
-173.954	78.434	0.124	-0.131
-172.939	-73.520	-0.036	-0.013
-171.925	-200.000	-0.002	-0.138
-170.910	-152.250	-0.142	0.010
-169.896	276.869	0.252	0.442
-168.881	-200.000	-0.034	0.157
-167.866	188.707	-0.237	0.350
-166.852	221.581	0.098	0.155
-165.837	-159.650	0.374	0.020
-164.823	256.481	-0.116	0.196
-163.808	31.929	0.407	0.346
-162.793	-72.011	-0.236	0.087
-161.779	800.000	0.098	0.273
-160.764	-64.997	0.192	0.077
-159.750	783.018	0.031	0.084
-158.735	67.876	0.281	0.284
-157.720	-17.959	-0.248	-0.154
-156.706	-200.000	-0.047	0.297
-155.691	13.541	0.110	-0.084
-154.677	-79.769	-0.313	-0.104
-153.662	120.308	-0.051	0.062
-152.647	31.272	0.124	0.105
-151.633	0.137	-0.048	-0.034
-150.618	136.441	-0.131	-0.168
-149.604	615.005	0.044	0.110
-148.589	399.641	0.182	0.376
-147.574	-90.981	0.038	-0.011
-146.560	210.927	-0.179	-0.278
-145.545	763.756	0.051	0.137
-144.531	37.359	-0.191	-0.167
-143.516	-200.000	0.072	-0.464
-142.502	-200.000	0.038	0.211
-141.487	39.240	0.070	-0.062
-140.472	559.911	-0.038	-0.090
-139.458	-102.411	0.102	-0.024
-138.443	-154.271	0.252	0.017
-137.429	184.843	-0.185	-0.271
-136.414	0.713	-0.111	-0.078
-135.399	706.737	-0.080	0.209
-134.385	-200.000	-0.001	0.326
-133.370	-74.003	0.288	-0.103
-132.356	-93.551	0.266	-0.073
-131.341	-200.000	0.013	-0.096
-130.326	-131.947	-0.656	-0.084
-129.312	9.240	0.211	-0.157
-128.297	-5.700	-0.160	0.108
-127.283	197.890	0.109	-0.165
-126.268	-200.000	-0.043	0.250
-125.253	261.447	-0.128	0.219
-124.239	48.598	0.101	-0.093
-123.224	-200.000	0.022	-0.097
-122.210	-11.487	0.061	-0.040
-121.195	800.000	-0.086	-0.262
-120.180	37.524	-0.043	0.038
-119.166	-135.461	0.333	-0.039
-118.151	800.000	-0.177	0.501
-117.137	-115.122	0.212	0.040
-116.122	144.880	0.110	0.145
-115.107	539.161	0.136	-0.319
-114.093	-200.000	0.004	-0.303
-113.078	196.315	0.051	-0.076
-112.064	-108.883	0.412	-0.087
-111.049	-169.299	0.347	-0.013
-110.034	753.123	-0.048	0.127
-109.020	-200.000	-0.004	-0.162
-108.005	-102.059	0.105	-0.025
-106.991	-66.040	-0.174	-0.069
-105.976	-106.050	0.020	0.004
-104.962	-60.969	-0.073	0.030
-103.947	-200.000	0.021	0.221
-102.932	-114.618	0.460	-0.087
-101.918	112.259	-0.135	0.161
-100.903	-58.168	-0.391	0.168
-99.889	-48.205	-0.159	0.076
-98.874	-90.916	-0.273	-0.077
-97.859	-200.000	0.061	-0.271
-96.845	-149.646	-0.342	0.027
-95.830	-200.000	0.006	-0.303
-94.816	560.397	-0.116	-0.277
-93.801	-151.011	-0.188	0.014
-92.786	-147.816	0.133	-0.011
-91.772	72.039	0.035	0.036
-90.757	800.000	-0.117	-0.320
-89.743	112.627	-0.227	-0.270
-88.728	96.789	0.253	-0.286
-87.713	-58.715	-0.084	0.036
-86.699	111.826	-0.238	-0.283
-85.684	-52.213	0.263	-0.120
-84.670	-7.932	-0.204	0.136
-83.655	-21.384	0.205	-0.123
-82.640	-200.000	0.082	0.403
-81.626	-7.248	0.117	0.078
-80.611	98.603	-0.082	-0.093
-79.597	-21.505	-0.167	0.100
-78.582	-23.345	0.189	-0.112
-77.567	23.276	-0.350	0.283
-76.553	31.678	-0.148	0.125
-75.538	-108.480	0.199	-0.042
-74.524	-200.000	-0.020	-0.207
-73.509	119.695	-0.166	0.202
-72.494	-87.380	-0.452	0.135
-71.480	-200.000	-0.035	0.404
-70.465	4.198	-0.115	-0.083
-69.451	-94.796	0.302	-0.081
-68.436	-31.079	-0.069	0.038
-67.422	-170.978	0.260	-0.009
-66.407	-115.855	0.169	0.031
-65.392	-38.499	0.030	0.015
-64.378	109.914	0.185	-0.218
-63.363	800.000	-0.049	-0.140
-62.349	-18.835	0.254	0.155
-61.334	14.594	-0.966	-0.742
-60.319	37.430	0.534	0.466
-59.305	800.000	-0.305	-1.150
-58.290	228.695	0.780	1.251
-57.276	368.365	0.722	1.435
-56.261	-200.000	95.883	585.155
-55.246	565.173	1368.951	3264.491
-54.232	162.805	2540.168	3507.601
-53.217	113.341	2135.217	2548.640
-52.203	44.206	1601.723	1445.325
-51.188	36.066	1340.086	1160.429
-50.173	32.862	1298.462	1105.604
-49.159	54.619	1345.202	1275.519
-48.144	56.817	1362.152	1304.630
-47.130	36.135	1321.109	1144.219
-46.115	32.672	1303.610	1108.693
-45.100	32.532	1298.962	1103.880
-44.086	32.533	1296.074	1101.384
-43.071	32.381	1293.852	1098.565
-42.057	32.414	1291.650	1096.843
-41.042	32.542	1290.511	1096.578
-40.027	32.399	1288.926	1094.357
-39.013	32.413	1286.743	1092.539
-37.998	32.390	1285.732	1091.504
-36.984	32.413	1283.690	1089.861
-35.969	32.538	1281.584	1088.756
-34.954	32.678	1279.746	1087.960
-33.940	32.642	1278.538	1086.680
-32.925	32.582	1277.598	1085.489
-31.911	32.747	1275.264	1084.416
-30.896	32.569	1274.453	1082.662
-29.881	32.783	1272.432	1082.125
-28.867	32.664	1271.580	1080.680
-27.852	32.698	1269.624	1079.166
-26.838	32.770	1268.427	1078.516
-25.823	32.703	1267.292	1077.126
-24.809	32.694	1265.616	1075.607
-23.794	32.625	1264.683	1074.378
-22.779	32.672	1262.990	1073.168
-21.765	32.659	1262.212	1072.391
-20.750	32.585	1260.847	1070.767
-19.736	32.487	1259.876	1069.342
-18.721	32.523	1258.479	1068.316
-17.706	32.537	1257.564	1067.581
-16.692	32.439	1255.962	1065.623
-15.677	32.462	1254.939	1064.840
-14.663	32.516	1253.933	1064.249
-13.648	32.425	1252.730	1062.675
-12.633	32.453	1252.130	1062.282
-11.619	32.408	1251.205	1061.203
-10.604	32.476	1250.200	1060.689
-9.590	32.404	1249.534	1059.675
-8.575	32.475	1248.075	1058.794
-7.560	32.458	1247.429	1058.113
-6.546	32.395	1246.727	1057.117
-5.531	32.538	1245.384	1056.739
-4.517	32.490	1244.478	1055.661
-3.502	32.515	1243.928	1055.292
-2.487	32.442	1242.847	1053.927
-1.473	32.349	1238.861	1049.983
-0.458	30.961	1223.771	1029.491
0.556	28.040	1205.824	992.055
1.571	24.408	1210.529	976.012
2.586	23.645	1225.299	983.605
3.600	23.225	1214.604	972.628
4.615	17.015	1141.977	882.204
5.629	6.979	1065.129	773.866
6.644	2.499	1044.509	737.281
7.659	1.979	1042.108	733.027
8.673	1.925	1040.758	731.750
9.688	1.889	1039.215	730.433
10.702	2.439	1037.832	732.026
11.717	9.011	1047.351	770.311
12.731	19.039	1061.605	829.297
13.746	24.262	1067.358	858.960
14.761	25.244	1068.908	864.866
15.775	25.352	1068.297	864.815
16.790	25.152	1067.551	863.171
17.804	25.035	1067.121	862.187
18.819	25.206	1066.497	862.429
19.834	25.310	1066.183	862.596
20.848	25.286	1066.143	862.374
21.863	25.366	1065.126	861.855
22.877	25.298	1064.587	861.021
23.892	25.246	1063.898	860.135
24.907	25.172	1063.567	859.437
25.921	25.142	1062.039	857.985
26.936	25.222	1060.620	857.143
27.950	25.206	1058.998	855.679
28.965	25.102	1056.941	853.445
29.980	25.203	1055.956	853.058
30.994	25.364	1055.303	853.220
32.009	25.307	1054.239	852.012
33.023	25.056	1052.854	849.629
34.038	25.238	1052.322	849.983
35.053	25.334	1051.641	849.815
36.067	25.332	1050.980	849.194
37.082	25.465	1049.658	848.680
38.096	25.429	1049.567	848.361
39.111	25.495	1048.979	848.122
40.126	25.413	1047.184	846.210
41.140	25.102	1045.417	843.245
42.155	24.867	1044.348	841.206
43.169	24.986	1043.196	840.759
44.184	24.932	1042.452	839.834
45.199	24.860	1041.503	838.658
46.213	24.961	1040.334	838.116
47.228	25.128	1040.126	838.653
48.242	25.186	1039.034	837.969
49.257	25.185	1038.291	837.294
50.271	25.363	1037.690	837.561
51.286	25.326	1036.659	836.485
52.301	25.298	1035.950	835.709
53.315	25.291	1034.821	834.693
54.330	25.348	1033.872	834.116
55.344	25.250	1033.571	833.346
56.359	25.389	1032.224	832.829
57.374	25.014	1031.270	830.250
58.388	24.891	1031.510	829.801
59.403	24.992	1029.996	828.976
60.417	24.808	1029.147	827.367
61.432	24.896	1029.149	827.705
62.447	25.012	1028.069	827.296
63.461	24.995	1027.424	826.625
64.476	24.882	1026.696	825.446
65.490	25.048	1025.086	824.843
66.505	24.916	1024.966	824.065
67.520	25.094	1023.919	823.968
68.534	24.737	1023.230	821.703
69.549	24.489	1021.959	819.472
70.563	24.551	1021.232	819.097
71.578	24.539	1020.548	818.423
72.593	24.361	1019.521	816.713
73.607	24.518	1019.488	817.330
74.622	24.695	1018.974	817.659
75.636	24.773	1018.458	817.526
76.651	24.763	1017.231	816.423
77.666	24.628	1016.382	815.057
78.680	24.697	1015.502	814.591
79.695	24.794	1015.147	814.676
80.709	25.024	1014.404	815.056
81.724	24.824	1013.737	813.539
82.739	24.994	1012.666	813.380
83.753	25.306	1011.955	814.149
84.768	25.619	1011.607	815.216
85.782	25.670	1010.800	814.726
86.797	25.573	1009.706	813.332
87.812	25.577	1008.490	812.300
88.826	25.488	1007.900	811.350
89.841	25.651	1006.680	811.031
90.855	25.678	1005.830	810.396
91.870	25.568	1004.916	809.094
92.884	25.325	1003.749	806.989
93.899	25.330	1002.789	806.170
94.914	25.616	1002.307	806.994
95.928	25.232	1001.805	804.798
96.943	25.135	1000.062	802.892
97.957	24.812	999.300	800.762
98.972	24.786	997.830	799.396
99.987	25.175	997.402	800.721
101.001	25.178	996.738	800.132
102.016	25.171	995.923	799.377
103.030	25.061	994.850	797.955
104.045	24.899	994.105	796.564
105.060	24.910	993.150	795.779
106.074	24.987	992.322	795.386
107.089	25.330	991.768	796.394
108.103	25.205	990.743	794.945
109.118	25.045	989.504	793.171
110.133	25.020	988.642	792.299
111.147	24.917	987.238	790.649
112.162	24.702	986.367	788.937
113.176	24.995	985.921	789.802
114.191	24.875	984.960	788.434
115.206	24.564	983.766	786.038
116.220	24.576	983.018	785.425
117.235	24.737	982.363	785.539
118.249	24.654	981.383	784.322
119.264	24.568	980.834	783.435
120.279	24.636	980.137	783.109
121.293	24.836	979.326	783.266
122.308	24.760	978.268	782.020
123.322	24.594	977.152	780.331
124.337	24.303	976.415	778.403
125.352	24.081	974.098	775.520
126.366	23.986	973.387	774.474
127.381	24.782	973.516	777.970
128.395	25.147	973.245	779.271
129.410	25.218	972.710	779.080
130.424	25.256	971.116	777.904
131.439	25.178	970.255	776.806
132.454	25.218	969.159	776.032
133.468	25.174	968.419	775.181
134.483	25.118	968.027	774.558
135.497	25.527	967.199	775.592
136.512	25.420	966.622	774.597
137.527	25.434	965.485	773.680
138.541	25.528	964.509	773.233
139.556	25.425	963.941	772.265
140.570	25.653	963.048	772.460
141.585	25.713	961.772	771.627
142.600	25.489	960.949	769.940
143.614	25.760	960.267	770.485
144.629	25.780	959.504	769.888
145.643	25.635	958.498	768.395
146.658	25.579	957.074	766.945
147.673	25.413	956.206	765.476
148.687	25.295	955.453	764.301
149.702	25.264	954.123	763.040
150.716	25.214	953.546	762.299
151.731	25.374	953.163	762.604
152.746	25.633	952.653	763.224
153.760	25.631	951.724	762.406
154.775	25.667	951.350	762.190
155.789	25.705	950.259	761.410
156.804	25.550	949.388	759.990
157.819	25.691	948.730	759.992
158.833	25.705	948.213	759.571
159.848	25.750	947.027	758.743
160.862	25.595	945.897	757.119
161.877	25.658	944.910	756.528
162.892	25.718	943.547	755.618
163.906	25.764	942.649	755.026
164.921	25.601	941.887	753.666
165.935	25.698	941.132	753.400
166.950	25.654	940.381	752.551
167.964	25.597	939.622	751.637
168.979	25.349	938.827	749.899
169.994	25.385	937.624	749.020
171.008	25.809	936.805	750.070
172.023	25.763	936.125	749.267
173.037	25.475	935.093	747.174
174.052	25.316	934.317	745.828
175.067	25.347	933.909	745.565
176.081	25.513	932.921	745.401
177.096	25.448	932.385	744.638
178.110	25.045	931.479	742.179
179.125	25.007	930.448	741.134
180.140	25.115	929.805	741.005
181.154	25.232	930.170	741.713
182.169	25.535	930.059	742.809
183.183	25.571	929.839	742.717
184.198	25.513	928.586	741.412
185.213	25.442	927.899	740.506
186.227	25.598	927.342	740.638
187.242	25.486	927.205	740.002
188.256	25.621	926.180	739.674
189.271	25.797	925.478	739.769
190.286	25.362	924.355	737.020
191.300	24.823	922.297	733.108
192.315	23.980	921.238	728.750
193.329	23.966	920.810	728.289
194.344	24.905	921.251	732.419
195.359	25.337	921.520	734.334
196.373	25.721	920.338	734.894
197.388	25.481	920.222	733.756
198.402	25.530	919.591	733.389
199.417	25.494	919.092	732.780
200.432	25.166	917.902	730.429
201.446	25.206	917.014	729.821
202.461	25.150	916.628	729.223
203.475	24.199	914.817	723.856
204.490	23.526	913.701	720.179
205.504	24.494	913.627	723.984
206.519	25.156	913.395	726.419
207.534	25.109	913.644	726.361
208.548	25.572	913.230	727.840
209.563	25.300	912.510	726.103
210.577	25.360	911.467	725.451
211.592	25.757	911.389	726.928
212.607	25.737	910.099	725.753
213.621	25.649	909.654	724.981
214.636	25.759	909.064	724.889
215.650	25.657	908.391	723.878
216.665	25.812	907.973	724.104
217.680	25.592	907.143	722.497
218.694	25.282	905.676	720.021
219.709	25.168	905.176	719.101
220.723	25.426	905.030	719.954
221.738	25.507	904.343	719.668
222.753	25.451	903.770	718.923
223.767	25.697	903.590	719.701
224.782	25.859	903.152	719.939
225.796	25.798	902.238	718.903
226.811	25.127	900.670	714.916
227.826	24.485	899.639	711.474
228.840	24.714	899.110	711.905
229.855	24.775	898.530	711.626
230.869	24.476	897.179	709.305
231.884	24.806	897.878	711.107
232.899	25.659	897.489	714.121
233.913	25.483	896.895	712.888
234.928	25.352	896.325	711.852
235.942	25.453	895.412	711.464
236.957	25.249	894.625	709.970
237.972	25.121	894.425	709.244
238.986	25.241	893.699	709.077
240.001	25.210	893.090	708.411
241.015	25.309	892.659	708.397
242.030	25.463	892.542	708.848
243.045	25.441	892.043	708.304
244.059	25.709	891.439	708.817
245.074	25.482	890.673	707.251
246.088	25.148	889.554	704.986
247.103	25.414	889.106	705.613
248.117	26.024	889.217	708.033
249.132	26.276	888.596	708.466
250.147	26.284	888.453	708.322
251.161	26.372	888.091	708.315
252.176	26.388	887.404	707.765
253.190	26.437	887.066	707.626
254.205	26.662	886.220	707.768
255.220	26.470	885.947	706.735
256.234	26.467	885.005	705.912
257.249	26.418	884.348	705.132
258.263	26.356	883.196	703.911
259.278	26.516	882.679	704.060
260.293	26.410	882.634	703.549
261.307	26.434	881.487	702.664
262.322	26.234	880.548	701.079
263.336	25.347	879.152	696.466
264.351	24.364	877.099	690.972
265.366	24.603	876.845	691.635
266.380	25.605	877.700	696.131
267.395	26.050	877.335	697.499
268.409	25.941	876.473	696.332
269.424	26.281	875.766	697.020
270.439	26.254	875.527	696.665
271.453	26.319	875.116	696.527
272.468	26.500	874.575	696.733
273.482	26.511	874.227	696.436
274.497	26.110	872.807	693.702
275.512	25.757	872.028	691.664
276.526	26.043	872.414	693.010
277.541	26.219	871.817	693.150
278.555	26.028	870.920	691.642
279.570	25.929	870.217	690.642
280.585	26.142	869.440	690.781
281.599	26.051	868.426	689.566
282.614	25.338	867.547	686.085
283.628	25.609	866.737	686.416
284.643	25.980	866.847	687.857
285.657	25.496	865.538	684.915
286.672	25.177	864.949	683.173
287.687	25.796	864.790	685.346
288.701	25.838	864.267	685.030
289.716	25.387	863.617	682.737
290.730	25.456	862.953	682.415
291.745	25.146	861.896	680.343
292.760	25.625	861.905	682.107
293.774	26.438	862.305	685.447
294.789	26.753	861.934	686.283
295.803	26.869	861.320	686.172
296.818	26.789	860.536	685.184
297.833	26.345	859.510	682.630
298.847	26.417	858.589	682.112
299.862	26.393	858.940	682.237
300.876	26.799	858.554	683.402
301.891	26.731	857.888	682.555
302.906	26.245	857.121	680.055
303.920	26.444	856.720	680.425
304.935	26.751	856.034	680.975
305.949	26.638	855.697	680.220
306.964	26.423	855.101	678.882
307.979	26.556	854.668	678.975
308.993	26.903	854.609	680.168
310.008	26.777	853.849	679.032
311.022	26.824	852.463	678.048
312.037	26.582	852.291	676.944
313.052	26.216	851.251	674.693
314.066	25.305	849.792	670.077
315.081	24.974	849.389	668.466
316.095	25.862	849.708	671.970
317.110	26.483	849.067	673.717
318.125	25.601	847.588	669.203
319.139	24.491	846.351	664.041
320.154	24.523	846.028	663.848
321.168	25.488	846.263	667.561
322.183	26.082	846.595	669.969
323.197	26.204	846.311	670.137
324.212	26.508	845.640	670.674
325.227	26.441	845.328	670.119
326.241	26.402	844.486	669.251
327.256	26.205	844.325	668.334
328.270	26.180	843.165	667.262
329.285	26.018	842.249	665.883
330.300	25.803	841.364	664.330
331.314	26.046	841.664	665.404
332.329	26.392	841.300	666.333
333.343	26.715	840.623	666.926
334.358	26.660	840.296	666.407
335.373	26.792	840.204	666.760
336.387	26.945	840.077	667.163
337.402	27.149	839.974	667.770
338.416	27.210	839.525	667.580
339.431	27.179	839.124	667.086
340.446	27.207	839.217	667.205
341.460	27.026	838.654	666.035
342.475	26.971	837.930	665.201
343.489	26.967	837.493	664.777
344.504	27.321	837.118	665.716
345.519	27.481	836.656	665.876
346.533	27.510	836.377	665.700
347.548	27.508	835.888	665.246
348.562	27.545	835.168	664.748
349.577	27.457	834.498	663.835
350.592	27.454	833.850	663.253
351.606	27.391	833.227	662.466
352.621	27.257	832.352	661.227
353.635	27.098	831.735	660.098
354.650	26.436	830.176	656.401
355.665	25.446	829.140	651.935
356.679	25.941	828.689	653.318
357.694	26.243	828.686	654.351
358.708	26.483	827.329	654.089
359.723	26.744	827.669	655.244
360.738	27.017	827.173	655.780
361.752	27.079	826.963	655.781
362.767	27.442	826.632	656.768
363.781	27.690	826.017	657.116
364.796	27.762	825.695	657.058
365.810	27.860	824.974	656.780
366.825	27.722	824.951	656.208
367.840	27.506	823.792	654.450
368.854	27.000	823.237	652.137
369.869	27.243	822.815	652.617
370.883	27.345	821.896	652.196
371.898	26.990	821.765	650.761
372.913	27.149	821.547	651.102
373.927	27.400	821.008	651.516
374.942	27.473	820.721	651.490
375.956	27.499	820.361	651.242
376.971	27.728	820.069	651.769
377.986	27.928	819.511	651.981
379.000	27.704	818.916	650.652
380.015	27.720	818.284	650.150
381.029	27.670	817.963	649.658
382.044	27.715	817.463	649.365
383.059	27.721	817.081	649.023
384.073	27.810	816.363	648.711
385.088	27.641	815.935	647.713
386.102	27.527	814.842	646.386
387.117	27.528	814.076	645.724
388.132	27.127	813.326	643.652
389.146	26.582	812.520	641.028
390.161	26.913	812.519	642.141
391.175	27.470	812.068	643.697
392.190	27.294	810.876	642.075
393.205	25.778	808.771	635.010
394.219	24.390	807.129	628.777
395.234	24.229	807.152	628.173
396.248	25.891	808.558	635.072
397.263	27.443	809.128	640.931
398.278	27.261	808.856	640.020
399.292	27.075	808.257	638.835
400.307	27.057	807.634	638.221
401.321	27.045	807.857	638.302
402.336	27.594	807.630	639.993
403.350	28.159	807.030	641.441
404.365	28.192	807.018	641.492
405.380	28.330	807.084	641.972
406.394	28.561	806.366	642.152
407.409	28.322	805.930	640.911
408.423	28.351	805.557	640.659
409.438	28.569	804.764	640.733
410.453	28.512	804.531	640.291
411.467	28.378	803.921	639.284
412.482	28.338	803.647	638.867
413.496	28.570	803.424	639.444
414.511	28.498	802.905	638.722
415.526	28.531	802.426	638.400
416.540	28.341	801.760	637.153
417.555	28.118	801.067	635.770
418.569	28.172	800.616	635.546
419.584	28.192	799.672	634.807
420.599	27.962	799.503	633.819
421.613	112.169	1284.509	1459.664
422.628	96.828	1355.181	1459.765
