DTS Sentinel unit serial number:	SN413079Multiplexer serial number:	ORYXHardware model number:	OX4-SRSoftware version number:	ORYX F/W v4.00 Oryx Data Collector v3.7.2.0data status	okinstallation	princeton_trtdifferential loss correction	single-endedforward channel	channel 1reverse channel	N/Adate	2019/09/11time	01:20:11forward acquisition time	60.00reverse acquisition time	0.00gamma	496.2192k internal	0.2331k external	0.2331temperature offset calibration	0.9929default loss term (dB/km)	0.3790temperature slope calibration	1.0000multiplexer offset coefficient	1.0000multiplexer slope coefficient	1.0000fibre end	0.00T internal ref (°C)	29.12T ext. ref 1 (°C)	-0.30T ext. ref 2 (°C)	23.22length (m)	temperature (°C)	Stokes	anti-Stokes-747.200	800.000	0.010	0.041
-746.185	204.550	-0.251	0.391
-745.171	-200.000	0.057	-0.290
-744.156	-58.180	-0.155	-0.068
-743.142	147.438	-0.112	0.152
-742.127	-169.325	-0.136	-0.005
-741.112	-184.770	-0.318	0.005
-740.098	-200.000	-0.021	-0.125
-739.083	56.904	-0.158	-0.155
-738.069	35.663	-0.234	0.207
-737.054	800.000	0.072	-0.221
-736.039	149.848	0.103	-0.140
-735.025	-154.774	0.242	-0.016
-734.010	27.058	-0.102	-0.086
-732.996	29.693	0.125	-0.107
-731.981	-200.000	0.010	0.262
-730.966	-33.144	0.266	-0.148
-729.952	-18.559	-0.409	0.257
-728.937	176.559	-0.087	-0.127
-727.923	181.015	-0.285	0.421
-726.908	-200.000	0.052	0.243
-725.894	-160.797	0.224	0.012
-724.879	-126.495	-0.253	0.038
-723.864	-178.317	0.304	0.007
-722.850	-20.982	-0.041	0.025
-721.835	800.000	-0.131	-0.458
-720.821	-200.000	0.009	0.126
-719.806	177.780	-0.101	0.148
-718.791	242.001	0.083	-0.139
-717.777	-27.038	-0.178	-0.104
-716.762	45.802	-0.280	-0.260
-715.748	-49.525	0.093	-0.044
-714.733	-29.429	-0.130	-0.075
-713.718	-137.608	-0.311	0.035
-712.704	-2.278	0.030	0.021
-711.689	51.836	0.096	-0.092
-710.675	44.419	-0.245	-0.226
-709.660	330.007	-0.112	0.217
-708.645	-130.012	0.416	-0.057
-707.631	-68.711	-0.192	-0.075
-706.616	-146.649	0.255	0.022
-705.602	800.000	-0.062	0.261
-704.587	800.000	0.110	-0.440
-703.572	-180.502	0.409	0.008
-702.558	-82.389	-0.238	0.078
-701.543	220.669	-0.155	-0.250
-700.529	243.270	-0.228	0.384
-699.514	279.231	-0.059	-0.105
-698.499	-200.000	-0.060	-0.329
-697.485	-71.309	-0.377	0.142
-696.470	-200.000	-0.001	-0.059
-695.456	142.904	0.037	0.049
-694.441	-79.681	0.157	-0.053
-693.426	-164.182	0.078	0.004
-692.412	363.158	-0.076	0.154
-691.397	211.755	0.197	0.312
-690.383	218.344	-0.118	-0.189
-689.368	-54.743	0.094	-0.042
-688.354	-147.914	-0.201	0.017
-687.339	-39.435	-0.060	0.032
-686.324	-85.126	0.268	-0.084
-685.310	331.262	0.127	-0.247
-684.295	5.663	-0.119	-0.088
-683.281	3.190	-0.257	-0.188
-682.266	-200.000	-0.016	0.133
-681.251	-200.000	0.042	0.286
-680.237	-4.610	-0.217	0.150
-679.222	-200.000	-0.007	0.160
-678.208	31.837	-0.183	-0.158
-677.193	440.135	0.126	-0.276
-676.178	-200.000	0.025	0.182
-675.164	52.939	-0.205	-0.197
-674.149	-200.000	-0.033	-0.229
-673.135	-200.000	-0.008	0.128
-672.120	-116.733	0.113	-0.021
-671.105	59.968	0.157	-0.156
-670.091	587.653	-0.132	0.326
-669.076	528.367	-0.102	0.241
-668.062	-103.280	-0.088	0.021
-667.047	197.690	0.141	0.215
-666.032	593.648	0.165	0.410
-665.018	-121.660	0.191	-0.032
-664.003	77.950	-0.063	0.068
-662.989	85.183	0.088	-0.097
-661.974	56.340	-0.196	0.191
-660.959	219.711	-0.264	0.424
-659.945	112.751	-0.225	-0.274
-658.930	-125.793	0.322	0.049
-657.916	-16.667	0.048	0.030
-656.901	-200.000	-0.012	0.175
-655.886	-64.883	-0.436	0.177
-654.872	52.338	-0.034	0.032
-653.857	168.121	0.071	-0.101
-652.843	136.991	0.122	-0.160
-651.828	135.092	-0.177	0.230
-650.814	151.109	0.020	-0.027
-649.799	-200.000	0.264	0.000
-648.784	226.415	0.126	0.206
-647.770	-200.000	0.050	-0.296
-646.755	-200.000	-0.128	0.711
-645.741	530.715	0.066	0.156
-644.726	-37.935	0.194	0.103
-643.711	-46.328	0.112	-0.055
-642.697	-117.951	-0.285	0.051
-641.682	-200.000	-0.024	-0.217
-640.668	787.830	-0.090	-0.248
-639.653	239.427	-0.063	-0.105
-638.638	800.000	0.053	0.204
-637.624	-138.002	-0.437	-0.049
-636.609	-4.417	0.139	0.096
-635.595	-40.989	-0.441	-0.229
-634.580	502.932	0.061	0.140
-633.565	106.067	-0.037	-0.043
-632.551	-168.166	-0.623	0.024
-631.536	-120.913	-0.168	-0.028
-630.522	-200.000	-0.067	0.412
-629.507	27.713	0.256	-0.216
-628.492	-200.000	-0.019	-0.175
-627.478	-6.892	0.247	0.168
-626.463	-13.939	-0.308	-0.199
-625.449	-168.084	0.189	-0.007
-624.434	284.399	0.114	0.205
-623.419	400.259	0.132	-0.276
-622.405	800.000	-0.114	0.333
-621.390	46.205	-0.083	0.077
-620.376	-200.000	0.010	-0.195
-619.361	-158.319	0.164	0.010
-618.346	800.000	0.081	0.267
-617.332	-200.000	0.006	0.051
-616.317	-120.829	-0.138	-0.023
-615.303	-72.607	0.161	0.060
-614.288	-200.000	0.004	0.424
-613.273	153.121	0.129	0.177
-612.259	-69.965	-0.082	-0.031
-611.244	-200.000	-0.005	-0.054
-610.230	16.368	-0.106	-0.083
-609.215	399.416	0.079	-0.166
-608.201	237.494	-0.046	-0.076
-607.186	8.381	-0.121	-0.091
-606.171	800.000	-0.048	0.170
-605.157	-150.821	0.250	-0.019
-604.142	-131.602	0.279	-0.037
-603.128	-200.000	-0.041	0.185
-602.113	62.864	0.192	-0.192
-601.098	-116.201	0.254	-0.047
-600.084	124.067	-0.155	0.195
-599.069	176.535	0.164	-0.238
-598.055	-126.907	0.182	0.027
-597.040	-81.405	-0.061	0.020
-596.025	13.878	-0.175	-0.136
-595.011	-200.000	-0.003	0.068
-593.996	132.698	-0.017	-0.022
-592.982	43.726	0.223	-0.204
-591.967	-200.000	-0.046	-0.351
-590.952	374.323	-0.040	0.082
-589.938	87.468	-0.187	-0.207
-588.923	-200.000	-0.027	0.127
-587.909	-32.448	-0.114	0.063
-586.894	-4.897	-0.120	-0.083
-585.879	-53.329	0.398	-0.182
-584.865	-70.326	-0.159	-0.060
-583.850	28.293	0.247	0.208
-582.836	-89.721	-0.156	0.046
-581.821	-125.691	-0.170	-0.026
-580.806	-147.430	0.168	-0.014
-579.792	800.000	-0.159	-0.518
-578.777	800.000	0.064	-0.207
-577.763	-104.783	0.171	0.039
-576.748	98.169	0.195	0.225
-575.733	64.571	-0.205	-0.207
-574.719	-200.000	-0.031	-0.391
-573.704	-44.789	-0.072	-0.036
-572.690	85.224	0.111	0.121
-571.675	-15.437	0.235	-0.150
-570.661	95.853	-0.053	0.061
-569.646	-200.000	-0.015	0.273
-568.631	-182.639	0.215	0.004
-567.617	-200.000	-0.027	-0.183
-566.602	-200.000	-0.024	-0.197
-565.588	22.253	-0.150	-0.123
-564.573	-200.000	0.005	0.098
-563.558	-25.751	0.284	-0.168
-562.544	383.879	0.046	0.094
-561.529	-127.704	-0.216	-0.031
-560.515	-200.000	-0.026	0.190
-559.500	800.000	0.056	0.235
-558.485	-12.599	-0.097	0.063
-557.471	-134.287	0.218	0.027
-556.456	470.549	0.060	0.135
-555.442	800.000	0.006	0.022
-554.427	365.126	-0.043	-0.086
-553.412	800.000	-0.036	-0.139
-552.398	262.746	-0.156	0.270
-551.383	-100.761	-0.325	-0.080
-550.369	112.116	0.212	-0.256
-549.354	-61.770	-0.285	-0.119
-548.339	266.278	0.030	0.052
-547.325	-55.126	-0.062	-0.028
-546.310	-19.567	-0.208	0.128
-545.296	-66.129	-0.159	0.063
-544.281	86.830	-0.126	-0.139
-543.266	124.509	-0.160	-0.202
-542.252	145.419	0.079	-0.106
-541.237	-119.770	-0.284	-0.049
-540.223	-106.061	0.162	-0.036
-539.208	800.000	-0.120	-0.467
-538.193	-106.758	0.251	0.056
-537.179	800.000	0.079	0.241
-536.164	-32.903	-0.009	-0.005
-535.150	83.255	-0.009	0.010
-534.135	652.263	0.058	-0.149
-533.121	-200.000	0.013	-0.064
-532.106	42.610	-0.188	-0.171
-531.091	-61.650	-0.177	-0.074
-530.077	-49.194	0.208	0.099
-529.062	-71.772	0.122	0.045
-528.048	96.651	-0.140	0.160
-527.033	388.813	-0.185	0.382
-526.018	219.829	-0.137	-0.219
-525.004	171.312	0.084	-0.120
-523.989	-200.000	0.059	-0.315
-522.975	53.329	-0.326	-0.311
-521.960	-114.361	0.473	0.091
-520.945	-200.000	0.029	-0.190
-519.931	43.985	0.074	-0.067
-518.916	109.389	-0.097	0.116
-517.902	28.891	-0.109	0.092
-516.887	34.003	-0.194	-0.168
-515.872	-200.000	-0.030	0.171
-514.858	18.962	-0.089	0.071
-513.843	798.391	-0.070	-0.193
-512.829	-41.171	0.210	0.108
-511.814	800.000	-0.024	0.104
-510.799	136.743	-0.078	0.102
-509.785	-106.242	-0.223	0.050
-508.770	-200.000	0.004	0.194
-507.756	45.430	0.138	0.127
-506.741	577.263	0.098	0.239
-505.726	-48.695	-0.407	0.195
-504.712	209.887	-0.165	-0.258
-503.697	-88.278	0.286	-0.085
-502.683	-200.000	0.034	-0.259
-501.668	790.774	0.075	-0.207
-500.653	-79.551	-0.068	-0.023
-499.639	-10.845	0.133	0.087
-498.624	-44.035	-0.040	0.020
-497.610	-200.000	0.003	0.269
-496.595	-72.430	0.526	-0.194
-495.581	-200.000	-0.033	0.157
-494.566	800.000	0.053	-0.187
-493.551	312.595	0.145	0.271
-492.537	249.143	-0.174	0.294
-491.522	-2.434	0.223	-0.156
-490.508	110.868	0.079	0.095
-489.493	-107.455	-0.219	-0.048
-488.478	91.884	-0.064	0.072
-487.464	-148.067	0.186	-0.015
-486.449	526.633	0.119	-0.280
-485.435	-67.869	-0.047	-0.018
-484.420	-183.935	0.303	0.005
-483.405	746.314	-0.046	0.123
-482.391	704.219	0.133	-0.348
-481.376	-91.218	0.122	0.035
-480.362	125.642	-0.059	0.074
-479.347	-106.041	-0.152	-0.034
-478.332	800.000	-0.099	-0.320
-477.318	-16.218	0.292	-0.185
-476.303	-200.000	-0.009	-0.127
-475.289	128.869	-0.077	0.098
-474.274	-61.080	-0.123	0.052
-473.259	-200.000	-0.036	0.265
-472.245	-24.757	0.271	0.161
-471.230	-54.889	0.153	-0.069
-470.216	-56.766	-0.227	-0.100
-469.201	-27.814	0.189	-0.109
-468.186	-128.402	-0.187	0.026
-467.172	50.471	0.136	-0.128
-466.157	582.503	0.074	0.181
-465.143	316.308	-0.042	-0.078
-464.128	688.810	0.021	0.055
-463.113	3.876	-0.144	0.105
-462.099	-200.000	-0.010	-0.169
-461.084	-164.903	0.075	-0.003
-460.070	-200.000	-0.028	-0.179
-459.055	118.870	-0.219	-0.269
-458.040	800.000	0.057	-0.165
-457.026	35.543	-0.273	0.239
-456.011	800.000	-0.053	0.178
-454.997	-58.659	-0.202	0.087
-453.982	415.525	0.090	0.191
-452.968	63.661	0.107	-0.107
-451.953	-200.000	0.016	0.256
-450.938	180.019	-0.142	-0.207
-449.924	-142.591	-0.250	0.024
-448.909	-173.443	0.299	-0.009
-447.895	253.602	0.075	0.128
-446.880	131.696	-0.096	-0.123
-445.865	800.000	-0.098	-0.408
-444.851	160.785	0.173	-0.241
-443.836	190.817	0.094	0.141
-442.822	-82.556	-0.186	0.060
-441.807	387.056	-0.241	0.495
-440.792	-66.881	0.213	0.084
-439.778	304.811	0.132	-0.243
-438.763	434.363	0.039	-0.084
-437.749	168.487	-0.205	-0.290
-436.734	-9.941	-0.159	0.105
-435.719	405.699	-0.066	0.138
-434.705	-200.000	0.028	0.341
-433.690	-46.294	0.236	0.116
-432.676	-200.000	-0.045	-0.262
-431.661	800.000	0.036	-0.155
-430.646	-103.139	0.213	0.050
-429.632	-200.000	-0.037	0.210
-428.617	800.000	-0.043	-0.133
-427.603	9.715	0.396	-0.298
-426.588	-200.000	-0.034	0.214
-425.573	-128.802	0.178	-0.025
-424.559	-200.000	-0.030	0.150
-423.544	-74.082	0.188	0.068
-422.530	-49.604	-0.293	-0.138
-421.515	485.243	-0.055	-0.124
-420.500	49.955	-0.072	0.067
-419.486	-26.577	-0.261	-0.152
-418.471	215.673	-0.279	-0.440
-417.457	-200.000	-0.084	-0.448
-416.442	800.000	-0.070	-0.191
-415.428	-200.000	0.012	-0.149
-414.413	-102.137	0.040	-0.010
-413.398	-10.787	0.047	0.031
-412.384	-146.228	-0.372	-0.032
-411.369	-137.276	0.126	0.014
-410.355	-43.345	0.163	-0.082
-409.340	-10.417	-0.251	0.166
-408.325	-33.687	-0.115	0.063
-407.311	18.981	-0.143	0.114
-406.296	15.705	-0.508	0.397
-405.282	800.000	0.002	0.007
-404.267	-200.000	-0.011	0.098
-403.252	749.971	-0.178	-0.476
-402.238	-83.233	-0.296	0.094
-401.223	-181.780	0.536	-0.010
-400.209	84.149	0.156	-0.169
-399.194	54.887	-0.147	-0.141
-398.179	800.000	0.131	-0.448
-397.165	-200.000	-0.026	-0.358
-396.150	-200.000	0.028	-0.174
-395.136	-3.246	-0.074	-0.051
-394.121	800.000	0.058	0.235
-393.106	-200.000	-0.023	0.181
-392.092	-70.585	-0.307	0.115
-391.077	633.986	0.061	-0.152
-390.063	-67.688	0.046	0.018
-389.048	-141.397	-0.214	0.022
-388.033	113.949	-0.058	-0.070
-387.019	210.310	-0.243	0.378
-386.004	800.000	-0.049	0.167
-384.990	-19.580	-0.205	0.126
-383.975	-136.272	0.201	-0.023
-382.960	-0.552	0.221	-0.156
-381.946	58.518	-0.244	-0.237
-380.931	-87.077	0.244	-0.074
-379.917	-141.275	0.101	0.010
-378.902	-63.980	0.050	-0.020
-377.888	800.000	-0.057	-0.186
-376.873	73.626	0.266	0.276
-375.858	-25.190	-0.219	0.129
-374.844	-200.000	0.001	0.067
-373.829	-82.999	0.230	0.073
-372.815	800.000	0.045	-0.153
-371.800	-49.256	0.569	0.270
-370.785	800.000	-0.037	-0.107
-369.771	-127.867	0.216	0.031
-368.756	-18.574	0.119	-0.074
-367.742	-158.456	0.156	0.009
-366.727	83.233	0.061	-0.066
-365.712	-168.244	0.044	0.002
-364.698	12.178	-0.182	0.139
-363.683	-155.929	-0.082	-0.005
-362.669	-136.721	-0.140	0.016
-361.654	-200.000	0.040	0.279
-360.639	-88.911	0.358	-0.105
-359.625	-200.000	-0.047	-0.360
-358.610	800.000	0.052	0.165
-357.596	24.920	-0.208	-0.171
-356.581	54.704	0.112	-0.107
-355.566	-200.000	0.015	-0.115
-354.552	123.148	0.096	-0.119
-353.537	-81.987	-0.108	0.035
-352.523	-93.810	-0.071	0.019
-351.508	-200.000	-0.014	0.074
-350.493	114.074	0.135	0.163
-349.479	-153.188	0.147	-0.010
-348.464	136.030	-0.139	0.179
-347.450	-106.891	0.021	0.005
-346.435	157.412	-0.156	-0.214
-345.420	-72.829	0.310	-0.113
-344.406	800.000	0.064	0.253
-343.391	800.000	-0.061	0.168
-342.377	279.374	-0.110	-0.194
-341.362	800.000	-0.019	0.064
-340.348	474.399	0.286	0.639
-339.333	-90.391	-0.178	0.051
-338.318	-200.000	0.039	0.212
-337.304	-200.000	-0.048	-0.279
-336.289	-81.741	0.130	-0.042
-335.275	800.000	0.042	-0.132
-334.260	0.450	-0.038	-0.027
-333.245	-200.000	-0.039	0.210
-332.231	31.218	-0.143	-0.121
-331.216	252.704	-0.139	-0.234
-330.202	325.459	-0.095	0.179
-329.187	56.122	0.068	-0.065
-328.172	-84.212	-0.260	-0.082
-327.158	335.354	-0.042	0.081
-326.143	252.082	0.176	-0.297
-325.129	157.334	-0.073	0.099
-324.114	-187.408	0.043	-0.001
-323.099	-99.166	0.125	-0.031
-322.085	130.822	0.080	0.101
-321.070	-200.000	0.032	0.227
-320.056	17.609	0.149	0.117
-319.041	-200.000	0.022	0.136
-318.026	78.875	0.199	0.211
-317.012	-133.628	0.272	0.034
-315.997	800.000	-0.057	-0.180
-314.983	-131.360	-0.516	0.068
-313.968	25.881	0.181	0.150
-312.953	-115.795	0.327	0.060
-311.939	454.840	-0.110	-0.241
-310.924	-113.431	-0.093	0.018
-309.910	456.779	0.108	0.237
-308.895	-200.000	0.005	-0.296
-307.880	-102.195	-0.189	-0.045
-306.866	138.268	-0.044	0.057
-305.851	800.000	0.033	-0.122
-304.837	-200.000	0.022	0.206
-303.822	-85.944	-0.118	0.036
-302.807	104.205	-0.194	0.226
-301.793	-101.598	-0.014	-0.003
-300.778	-55.000	-0.106	0.047
-299.764	35.762	-0.251	0.218
-298.749	-141.276	0.075	-0.008
-297.735	-200.000	-0.013	0.197
-296.720	-88.270	-0.269	-0.080
-295.705	170.457	-0.189	-0.267
-294.691	-51.456	-0.128	-0.059
-293.676	-117.370	0.211	-0.038
-292.662	-79.246	0.202	-0.068
-291.647	-82.597	-0.393	-0.126
-290.632	71.166	-0.124	-0.127
-289.618	69.950	0.126	-0.128
-288.603	418.221	-0.122	-0.259
-287.589	-13.558	0.137	-0.088
-286.574	-45.378	0.104	0.051
-285.559	-200.000	0.057	0.266
-284.545	800.000	0.071	-0.284
-283.530	-136.382	0.187	0.022
-282.516	-200.000	-0.006	0.232
-281.501	322.824	0.149	0.280
-280.486	-150.564	-0.115	-0.009
-279.472	-200.000	0.017	0.167
-278.457	-44.559	0.185	-0.092
-277.443	-200.000	-0.033	-0.340
-276.428	-22.616	-0.257	-0.154
-275.413	-73.565	0.194	-0.070
-274.399	-200.000	0.045	0.342
-273.384	317.598	-0.073	-0.136
-272.370	-200.000	0.010	-0.290
-271.355	-8.969	0.083	0.055
-270.340	-12.884	0.043	0.028
-269.326	12.908	0.110	0.084
-268.311	-200.000	0.075	0.351
-267.297	-37.469	-0.100	0.053
-266.282	800.000	0.056	0.155
-265.267	197.759	-0.126	-0.190
-264.253	-200.000	-0.003	0.226
-263.238	-13.223	0.210	0.135
-262.224	-178.549	-0.211	0.005
-261.209	453.835	-0.120	0.262
-260.195	-200.000	-0.005	-0.116
-259.180	800.000	-0.083	0.299
-258.165	17.624	-0.266	0.209
-257.151	-200.000	-0.008	0.109
-256.136	800.000	0.074	-0.271
-255.122	-200.000	0.010	0.221
-254.107	-60.148	-0.276	0.116
-253.092	800.000	0.156	0.456
-252.078	800.000	-0.060	0.190
-251.063	54.283	-0.188	-0.179
-250.049	-105.816	-0.193	0.043
-249.034	-181.564	-0.210	0.004
-248.019	106.769	0.108	-0.126
-247.005	-17.833	0.069	-0.043
-245.990	171.898	-0.027	0.038
-244.976	-164.015	0.281	-0.013
-243.961	800.000	-0.034	0.101
-242.946	21.600	0.129	-0.104
-241.932	69.570	-0.225	0.228
-240.917	-53.493	0.291	0.131
-239.903	-200.000	-0.039	0.250
-238.888	-200.000	-0.053	0.325
-237.873	-135.062	0.314	0.037
-236.859	317.222	0.145	0.271
-235.844	137.046	-0.155	-0.200
-234.830	-78.225	0.057	0.019
-233.815	536.737	-0.148	-0.346
-232.800	-165.186	0.231	-0.010
-231.786	4.019	0.213	0.154
-230.771	-200.000	0.009	0.214
-229.757	800.000	-0.050	-0.141
-228.742	-33.761	0.205	-0.111
-227.727	8.135	-0.191	0.142
-226.713	-158.480	0.153	-0.009
-225.698	316.933	-0.101	0.189
-224.684	-83.208	0.346	-0.110
-223.669	-25.618	0.336	-0.195
-222.655	62.332	-0.112	0.110
-221.640	-200.000	-0.036	-0.222
-220.625	-162.536	-0.170	-0.008
-219.611	-55.748	0.132	-0.058
-218.596	-200.000	-0.022	-0.464
-217.582	50.212	-0.099	-0.092
-216.567	52.996	0.343	0.323
-215.552	416.855	-0.034	0.072
-214.538	579.018	0.044	0.106
-213.523	-200.000	0.008	-0.252
-212.509	800.000	0.020	-0.077
-211.494	539.461	0.149	0.350
-210.479	7.288	-0.184	-0.135
-209.465	0.285	-0.245	-0.172
-208.450	187.809	-0.074	-0.108
-207.436	228.722	0.080	0.129
-206.421	391.882	-0.062	-0.128
-205.406	760.598	-0.129	-0.346
-204.392	800.000	-0.047	-0.129
-203.377	302.082	0.013	-0.023
-202.363	-200.000	-0.004	-0.088
-201.348	-42.309	0.084	0.042
-200.333	-168.068	0.113	0.004
-199.319	83.137	-0.150	0.160
-198.304	121.324	0.072	-0.088
-197.290	131.933	0.027	0.034
-196.275	-200.000	-0.056	0.283
-195.260	-134.620	0.320	-0.038
-194.246	261.233	-0.060	-0.102
-193.231	-200.000	-0.041	0.268
-192.217	18.900	-0.105	-0.083
-191.202	53.005	-0.144	-0.136
-190.187	800.000	0.024	-0.086
-189.173	367.481	-0.074	-0.148
-188.158	-94.435	-0.126	-0.034
-187.144	147.517	0.175	0.232
-186.129	177.843	-0.141	-0.202
-185.114	-200.000	-0.092	0.399
-184.100	-40.662	-0.074	0.038
-183.085	14.532	-0.158	0.121
-182.071	-75.280	-0.048	-0.017
-181.056	-200.000	0.066	-0.000
-180.042	-113.288	-0.375	-0.073
-179.027	-200.000	0.003	0.071
-178.012	41.099	-0.247	0.220
-176.998	-173.876	0.451	0.013
-175.983	-0.451	0.128	-0.089
-174.969	-111.957	0.260	-0.052
-173.954	-62.584	0.244	-0.100
-172.939	172.334	0.150	0.213
-171.925	5.502	0.114	0.083
-170.910	224.248	-0.143	0.227
-169.896	158.780	0.152	0.208
-168.881	-200.000	-0.004	0.058
-167.866	-144.149	0.415	0.038
-166.852	109.749	-0.133	0.157
-165.837	-200.000	-0.091	0.401
-164.823	-2.019	-0.122	0.084
-163.808	11.625	0.137	-0.103
-162.793	-35.138	0.211	-0.113
-161.779	-200.000	-0.052	0.262
-160.764	-102.540	0.169	0.040
-159.750	-68.409	0.129	-0.049
-158.735	800.000	-0.040	-0.153
-157.720	800.000	-0.034	0.142
-156.706	-19.955	0.303	-0.184
-155.691	57.116	-0.211	-0.202
-154.677	-110.218	-0.200	-0.041
-153.662	122.825	0.143	-0.176
-152.647	-25.943	-0.420	0.243
-151.633	-200.000	-0.024	-0.440
-150.618	-200.000	-0.035	0.343
-149.604	-141.982	0.338	0.033
-148.589	5.748	0.143	0.104
-147.574	-35.486	-0.093	-0.050
-146.560	91.507	0.079	0.088
-145.545	800.000	-0.027	-0.115
-144.531	-0.454	-0.156	0.109
-143.516	22.930	0.479	0.386
-142.502	-200.000	-0.011	-0.236
-141.487	800.000	0.103	0.400
-140.472	38.973	-0.179	0.157
-139.458	528.621	0.162	-0.375
-138.443	251.969	0.100	-0.168
-137.429	-54.693	0.115	-0.051
-136.414	-46.124	-0.617	-0.298
-135.399	32.755	0.378	0.321
-134.385	92.641	-0.292	0.323
-133.370	-35.820	-0.235	-0.125
-132.356	-163.390	0.224	-0.010
-131.341	252.193	-0.161	0.270
-130.326	-167.031	0.042	0.002
-129.312	175.125	-0.122	0.173
-128.297	-74.225	-0.319	0.113
-127.283	-200.000	0.064	0.342
-126.268	71.670	-0.120	0.122
-125.253	45.036	0.310	0.281
-124.239	800.000	-0.078	0.221
-123.224	-22.081	-0.417	-0.248
-122.210	-64.878	0.313	0.124
-121.195	800.000	0.051	-0.170
-120.180	-200.000	0.017	-0.239
-119.166	32.450	0.049	-0.042
-118.151	616.648	-0.010	-0.025
-117.137	-200.000	0.032	-0.199
-116.122	-135.354	-0.360	0.042
-115.107	-30.047	0.210	0.117
-114.093	-200.000	-0.008	0.095
-113.078	20.818	0.250	0.199
-112.064	-200.000	-0.040	0.270
-111.049	800.000	0.114	0.338
-110.034	179.198	0.094	-0.135
-109.020	-82.910	0.229	0.072
-108.005	800.000	-0.119	0.331
-106.991	229.225	-0.041	-0.065
-105.976	-45.718	-0.047	-0.023
-104.962	800.000	0.027	0.104
-103.947	402.229	-0.095	0.196
-102.932	-6.870	-0.077	0.052
-101.918	-165.979	-0.289	-0.012
-100.903	99.689	0.164	0.186
-99.889	-187.411	-0.162	0.002
-98.874	-154.024	0.105	0.007
-97.859	-93.793	0.278	0.075
-96.845	207.222	0.104	0.159
-95.830	-155.841	0.144	-0.009
-94.816	800.000	-0.124	0.350
-93.801	-200.000	-0.005	-0.087
-92.786	-16.214	-0.140	0.087
-91.772	-82.957	-0.145	0.046
-90.757	-129.236	0.289	0.040
-89.743	96.008	-0.312	-0.350
-88.728	203.376	0.110	0.167
-87.713	-200.000	0.061	-0.274
-86.699	-135.936	0.351	0.041
-85.684	-35.065	0.071	-0.038
-84.670	76.362	-0.276	0.286
-83.655	72.221	0.023	-0.024
-82.640	51.998	0.014	-0.013
-81.626	36.015	0.237	-0.205
-80.611	779.352	-0.080	0.216
-79.597	4.135	0.108	0.078
-78.582	-118.919	0.136	-0.023
-77.567	800.000	0.065	0.188
-76.553	628.693	-0.075	0.186
-75.538	720.316	0.067	-0.173
-74.524	-26.640	0.442	-0.254
-73.509	-39.044	-0.179	0.093
-72.494	-0.895	0.198	-0.137
-71.480	-153.771	0.240	-0.016
-70.465	-87.640	0.199	0.059
-69.451	-115.826	0.274	-0.050
-68.436	319.637	0.049	0.092
-67.422	-200.000	0.028	0.177
-66.407	38.592	0.283	0.247
-65.392	-200.000	-0.029	-0.186
-64.378	-168.267	-0.209	0.008
-63.363	102.998	0.175	0.201
-62.349	144.425	0.177	0.231
-61.334	113.743	-0.922	-1.097
-60.319	63.524	0.556	0.547
-59.305	392.134	-0.564	-1.149
-58.290	800.000	0.459	1.264
-57.276	649.704	0.614	1.540
-56.261	-200.000	108.060	628.323
-55.246	523.338	1516.063	3489.895
-54.232	176.301	2703.557	3846.775
-53.217	112.107	2161.252	2558.321
-52.203	40.975	1600.124	1414.873
-51.188	32.798	1336.925	1133.225
-50.173	29.561	1296.422	1079.960
-49.159	53.749	1351.147	1270.637
-48.144	53.864	1366.071	1285.312
-47.130	32.667	1320.537	1118.382
-46.115	29.356	1302.929	1084.002
-45.100	29.147	1297.848	1078.511
-44.086	29.103	1295.710	1076.429
-43.071	29.011	1293.520	1074.035
-42.057	28.960	1291.285	1071.839
-41.042	28.868	1289.727	1069.967
-40.027	29.072	1287.546	1069.301
-39.013	29.075	1285.562	1067.628
-37.998	29.001	1283.992	1065.851
-36.984	29.145	1282.181	1065.140
-35.969	29.112	1280.622	1063.610
-34.954	29.241	1278.241	1062.334
-33.940	29.161	1277.216	1060.982
-32.925	29.143	1276.103	1059.910
-31.911	29.164	1274.935	1059.018
-30.896	29.185	1273.678	1058.051
-29.881	29.318	1271.598	1057.046
-28.867	29.100	1270.899	1055.174
-27.852	29.266	1269.289	1054.747
-26.838	29.179	1267.833	1052.994
-25.823	29.280	1265.985	1051.994
-24.809	29.215	1264.860	1050.646
-23.794	29.162	1263.957	1049.555
-22.779	29.199	1262.391	1048.422
-21.765	29.282	1261.046	1047.734
-20.750	29.197	1259.862	1046.227
-19.736	29.011	1258.757	1044.213
-18.721	29.040	1257.553	1043.337
-17.706	29.146	1256.337	1042.886
-16.692	29.172	1255.205	1042.052
-15.677	29.183	1254.228	1041.261
-14.663	29.096	1252.856	1039.591
-13.648	29.101	1252.283	1039.103
-12.633	29.135	1250.707	1037.944
-11.619	29.011	1250.273	1036.845
-10.604	28.954	1249.912	1036.187
-9.590	28.951	1248.776	1035.183
-8.575	29.043	1247.563	1034.654
-7.560	28.997	1246.873	1033.784
-6.546	29.102	1245.713	1033.373
-5.531	29.120	1244.810	1032.683
-4.517	28.970	1244.457	1031.506
-3.502	29.011	1243.735	1031.095
-2.487	29.077	1242.368	1030.291
-1.473	29.053	1238.014	1026.507
-0.458	27.577	1223.699	1006.455
0.556	21.993	1206.565	970.199
1.571	18.601	1212.300	955.860
2.586	17.928	1226.650	963.290
3.600	17.937	1215.660	954.628
4.615	13.031	1144.921	873.107
5.629	4.155	1070.772	772.407
6.644	-0.002	1050.858	737.612
7.659	-0.265	1048.696	734.741
8.673	-0.455	1047.216	732.709
9.688	-0.486	1046.226	731.801
10.702	0.017	1043.958	732.602
11.717	5.472	1052.667	765.389
12.731	14.525	1065.089	818.992
13.746	19.185	1070.974	846.399
14.761	20.187	1071.817	851.917
15.775	20.118	1071.576	851.311
16.790	19.830	1070.887	849.276
17.804	19.881	1069.814	848.600
18.819	19.891	1069.672	848.463
19.834	19.997	1069.299	848.610
20.848	20.029	1068.738	848.244
21.863	20.155	1067.874	848.100
22.877	20.011	1067.414	846.959
23.892	20.081	1066.205	846.265
24.907	19.982	1066.162	845.673
25.921	20.127	1064.964	845.356
26.936	20.092	1063.295	843.787
27.950	19.981	1061.626	841.846
28.965	19.976	1059.629	840.163
29.980	19.962	1058.142	838.844
30.994	20.105	1057.445	838.906
32.009	20.106	1055.939	837.645
33.023	19.784	1055.184	835.414
34.038	19.978	1054.229	835.524
35.053	20.064	1053.795	835.517
36.067	20.152	1052.587	834.913
37.082	20.084	1052.176	834.182
38.096	20.176	1051.465	833.991
39.111	20.373	1050.457	834.063
40.126	20.122	1048.795	831.466
41.140	19.840	1047.330	828.881
42.155	19.696	1045.786	826.894
43.169	19.843	1044.818	826.757
44.184	19.777	1043.627	825.427
45.199	19.639	1043.008	824.208
46.213	19.791	1041.667	823.800
47.228	19.850	1040.806	823.326
48.242	19.790	1040.180	822.474
49.257	20.046	1039.004	822.687
50.271	20.266	1038.189	823.012
51.286	20.024	1037.798	821.479
52.301	20.048	1036.958	820.859
53.315	20.047	1035.701	819.784
54.330	20.073	1034.583	818.952
55.344	20.215	1033.763	818.897
56.359	20.168	1032.464	817.577
57.374	19.793	1031.850	815.251
58.388	19.930	1031.302	815.389
59.403	19.820	1030.160	813.899
60.417	19.759	1029.470	812.996
61.432	19.746	1029.266	812.701
62.447	19.772	1028.511	812.153
63.461	19.950	1027.215	811.894
64.476	19.821	1026.277	810.475
65.490	19.793	1025.493	809.656
66.505	20.050	1024.626	810.098
67.520	19.831	1024.167	808.642
68.534	19.794	1022.372	806.980
69.549	19.452	1021.470	804.603
70.563	19.457	1021.023	804.203
71.578	19.402	1019.878	802.975
72.593	19.298	1019.009	801.735
73.607	19.369	1019.088	802.055
74.622	19.678	1018.425	802.897
75.636	19.863	1017.470	802.934
76.651	19.527	1016.726	800.716
77.666	19.553	1015.773	800.016
78.680	19.745	1014.855	800.109
79.695	19.640	1014.985	799.657
80.709	19.707	1014.069	799.172
81.724	19.716	1013.152	798.422
82.739	19.788	1012.319	798.027
83.753	20.031	1011.998	798.823
84.768	20.210	1011.226	798.968
85.782	20.409	1009.579	798.510
86.797	20.197	1008.955	796.972
87.812	20.203	1007.861	796.067
88.826	20.419	1006.574	795.971
89.841	20.290	1005.722	794.635
90.855	20.195	1005.176	793.696
91.870	20.258	1003.947	792.944
92.884	20.075	1003.193	791.443
93.899	20.248	1001.661	790.955
94.914	20.316	1001.027	790.694
95.928	20.134	1000.103	789.064
96.943	19.817	999.036	786.714
97.957	19.767	997.161	784.939
98.972	19.618	996.577	783.734
99.987	19.795	995.907	783.939
101.001	19.988	994.855	783.919
102.016	19.941	994.579	783.418
103.030	19.971	992.929	782.184
104.045	19.734	992.392	780.621
105.060	19.580	990.906	778.689
106.074	19.748	990.958	779.420
107.089	20.272	990.019	780.969
108.103	20.052	989.016	779.121
109.118	19.870	987.803	777.279
110.133	19.899	986.826	776.573
111.147	19.789	985.519	774.982
112.162	19.615	984.255	773.139
113.176	19.730	983.834	773.257
114.191	19.729	982.920	772.466
115.206	19.391	981.765	769.978
116.220	19.511	981.048	769.886
117.235	19.701	979.736	769.634
118.249	19.620	979.116	768.718
119.264	19.441	978.666	767.499
120.279	19.706	977.382	767.600
121.293	19.663	976.885	766.954
122.308	19.624	976.044	766.050
123.322	19.632	974.775	765.023
124.337	19.348	973.579	762.762
125.352	18.954	971.944	759.673
126.366	18.941	970.851	758.693
127.381	19.672	970.897	761.885
128.395	20.113	970.243	763.246
129.410	20.200	969.246	762.777
130.424	19.994	968.233	761.007
131.439	20.084	967.305	760.608
132.454	19.907	966.396	759.050
133.468	20.058	965.321	758.800
134.483	20.040	964.725	758.186
135.497	20.364	963.791	758.801
136.512	20.282	963.102	757.833
137.527	20.336	962.193	757.287
138.541	20.250	961.497	756.295
139.556	20.156	960.875	755.333
140.570	20.417	959.733	755.501
141.585	20.223	958.939	753.966
142.600	20.140	958.086	752.867
143.614	20.520	957.380	753.897
144.629	20.492	956.566	753.065
145.643	20.443	954.719	751.334
146.658	20.235	954.154	749.923
147.673	20.260	952.596	748.742
148.687	20.117	952.122	747.685
149.702	20.155	950.543	746.543
150.716	20.067	950.018	745.685
151.731	20.317	949.153	746.014
152.746	20.312	948.689	745.563
153.760	20.359	947.970	745.136
154.775	20.414	947.682	745.079
155.789	20.467	946.437	744.260
156.804	20.429	945.085	742.969
157.819	20.428	944.518	742.451
158.833	20.573	943.622	742.301
159.848	20.499	942.834	741.301
160.862	20.417	941.927	740.171
161.877	20.522	940.739	739.621
162.892	20.545	940.207	739.236
163.906	20.314	939.494	737.628
164.921	20.431	938.311	737.131
165.935	20.480	937.373	736.533
166.950	20.413	936.413	735.433
167.964	20.473	935.280	734.731
168.979	20.268	934.432	733.133
169.994	20.297	933.413	732.390
171.008	20.469	933.136	732.836
172.023	20.461	931.836	731.716
173.037	20.186	930.914	729.771
174.052	20.077	930.110	728.618
175.067	20.192	929.597	728.635
176.081	20.336	929.169	728.840
177.096	20.142	928.446	727.393
178.110	19.901	927.286	725.409
179.125	19.738	926.680	724.188
180.140	20.024	925.778	724.617
181.154	19.967	925.968	724.462
182.169	20.331	925.550	725.592
183.183	20.513	924.904	725.783
184.198	20.383	923.806	724.316
185.213	20.369	923.227	723.738
186.227	20.598	922.558	724.103
187.242	20.373	922.036	722.695
188.256	20.578	921.100	722.747
189.271	20.545	920.495	722.070
190.286	20.239	919.423	719.896
191.300	19.563	918.138	716.024
192.315	19.067	916.330	712.498
193.329	19.124	915.926	712.357
194.344	19.881	916.103	715.562
195.359	20.379	915.957	717.442
196.373	20.402	915.162	716.856
197.388	20.203	915.340	716.109
198.402	20.227	914.325	715.348
199.417	20.235	913.525	714.694
200.432	20.144	912.431	713.399
201.446	19.915	911.761	711.873
202.461	19.861	911.456	711.347
203.475	19.135	909.178	706.527
204.490	18.459	907.831	702.648
205.504	19.348	908.772	706.963
206.519	19.829	908.736	708.841
207.534	20.030	907.912	708.961
208.548	20.518	907.378	710.475
209.563	20.200	906.899	708.737
210.577	20.150	906.472	708.136
211.592	20.579	905.670	709.200
212.607	20.488	904.906	708.168
213.621	20.391	904.415	707.323
214.636	20.477	903.872	707.188
215.650	20.381	903.120	706.147
216.665	20.571	901.881	705.887
217.680	20.606	900.773	705.101
218.694	20.052	899.853	702.070
219.709	19.918	899.436	701.143
220.723	20.243	899.019	702.072
221.738	20.219	898.565	701.557
222.753	20.342	897.798	701.392
223.767	20.488	897.317	701.543
224.782	20.720	896.629	701.879
225.796	20.494	896.612	700.893
226.811	19.874	895.118	697.164
227.826	19.328	893.532	693.671
228.840	19.576	893.157	694.318
229.855	19.668	892.371	694.014
230.869	19.293	891.339	691.645
231.884	19.785	891.153	693.415
232.899	20.400	891.483	696.074
233.913	20.339	890.755	695.202
234.928	20.374	890.043	694.723
235.942	20.421	889.183	694.179
236.957	20.057	888.383	692.040
237.972	19.990	887.726	691.198
238.986	19.953	887.435	690.764
240.001	20.148	886.370	690.649
241.015	20.257	886.262	690.940
242.030	20.219	885.980	690.508
243.045	20.260	885.433	690.183
244.059	20.595	884.735	690.907
245.074	20.295	883.564	688.744
246.088	19.887	882.449	686.194
247.103	20.312	882.383	687.768
248.117	20.791	882.293	689.534
249.132	21.009	881.671	689.850
250.147	21.051	881.103	689.510
251.161	21.135	880.524	689.328
252.176	21.163	880.101	689.044
253.190	21.185	879.411	688.532
254.205	21.317	879.263	688.875
255.220	21.300	878.335	688.019
256.234	21.040	877.748	686.476
257.249	21.093	876.384	685.555
258.263	21.142	875.769	685.206
259.278	21.087	875.406	684.649
260.293	21.300	874.343	684.588
261.307	20.944	874.183	683.011
262.322	20.947	873.012	682.047
263.336	20.236	870.729	677.425
264.351	19.202	868.931	671.938
265.366	19.307	868.765	672.158
266.380	20.351	869.826	676.994
267.395	20.731	869.340	678.035
268.409	20.720	868.434	677.227
269.424	20.976	867.785	677.656
270.439	20.970	867.015	676.972
271.453	21.028	866.761	676.938
272.468	21.259	866.113	677.267
273.482	21.179	866.116	676.900
274.497	20.881	864.148	674.149
275.512	20.659	863.367	672.621
276.526	20.985	863.673	674.060
277.541	21.173	863.095	674.277
278.555	20.832	862.108	672.130
279.570	20.627	861.403	670.731
280.585	20.870	860.798	671.137
281.599	20.867	860.258	670.644
282.614	20.336	858.747	667.367
283.628	20.289	858.518	666.947
284.643	20.706	858.109	668.171
285.657	20.305	856.905	665.637
286.672	20.011	856.459	664.107
287.687	20.629	856.221	666.229
288.701	20.618	855.778	665.786
289.716	20.354	854.834	663.980
290.730	20.233	854.178	662.951
291.745	19.885	853.074	660.708
292.760	20.317	852.863	662.133
293.774	21.300	853.300	666.165
294.789	21.611	853.095	667.131
295.803	21.725	852.344	666.919
296.818	21.561	851.556	665.618
297.833	21.238	850.578	663.570
298.847	21.040	850.374	662.597
299.862	21.294	850.121	663.307
300.876	21.687	849.373	664.157
301.891	21.522	848.404	662.714
302.906	20.939	848.047	660.167
303.920	21.182	847.406	660.530
304.935	21.504	847.194	661.523
305.949	21.460	846.280	660.586
306.964	21.196	845.337	658.797
307.979	21.174	845.526	658.803
308.993	21.642	845.260	660.301
310.008	21.614	844.448	659.503
311.022	21.420	843.389	657.888
312.037	21.355	842.585	656.959
313.052	21.097	841.685	655.232
314.066	20.303	840.466	651.246
315.081	20.061	839.670	649.663
316.095	20.818	840.340	652.962
317.110	21.237	839.984	654.199
318.125	20.444	838.239	649.816
319.139	19.404	836.979	644.895
320.154	19.508	836.993	645.240
321.168	20.391	837.261	648.686
322.183	20.900	836.915	650.262
323.197	21.073	836.788	650.751
324.212	21.386	836.276	651.464
325.227	21.383	835.782	651.009
326.241	21.242	834.951	649.780
327.256	21.244	834.124	649.086
328.270	21.168	833.373	648.161
329.285	20.805	833.043	646.499
330.300	20.816	832.187	645.820
331.314	21.051	831.701	646.258
332.329	21.300	831.585	647.029
333.343	21.422	830.973	646.948
334.358	21.364	831.055	646.742
335.373	21.494	830.864	647.016
336.387	21.742	830.521	647.607
337.402	21.889	829.905	647.612
338.416	21.682	829.698	646.630
339.431	21.902	829.393	647.147
340.446	21.895	828.990	646.751
341.460	21.868	828.428	646.154
342.475	21.757	827.719	645.135
343.489	21.803	827.916	645.401
344.504	21.988	827.502	645.701
345.519	22.067	827.196	645.695
346.533	22.224	826.723	645.846
347.548	22.275	825.850	645.296
348.562	22.093	825.609	644.382
349.577	22.247	824.507	644.030
350.592	22.137	824.051	643.215
351.606	22.121	823.438	642.620
352.621	22.131	822.587	641.935
353.635	21.962	821.639	640.523
354.650	21.292	819.808	636.596
355.665	20.437	818.682	632.554
356.679	20.765	818.345	633.432
357.694	21.249	817.839	634.744
358.708	21.222	817.463	634.296
359.723	21.536	817.478	635.392
360.738	21.859	817.055	636.181
361.752	21.947	816.763	636.216
362.767	22.282	816.255	636.977
363.781	22.417	815.762	637.024
364.796	22.527	815.591	637.231
365.810	22.561	815.186	636.983
366.825	22.661	814.589	636.820
367.840	22.275	813.687	634.666
368.854	21.932	812.873	632.740
369.869	21.844	812.741	632.261
370.883	21.921	812.016	631.922
371.898	21.691	811.465	630.606
372.913	21.820	811.311	630.896
373.927	22.033	811.007	631.370
374.942	22.179	810.610	631.532
375.956	22.114	810.397	631.076
376.971	22.370	809.710	631.403
377.986	22.506	809.483	631.659
379.000	22.339	808.717	630.405
380.015	22.318	808.327	629.970
381.029	22.273	808.212	629.662
382.044	22.564	807.203	629.861
383.059	22.506	806.448	629.010
384.073	22.528	806.023	628.701
385.088	22.616	805.325	628.415
386.102	22.279	805.056	626.949
387.117	22.294	804.216	626.294
388.132	21.890	803.003	623.858
389.146	21.542	802.116	621.876
390.161	22.028	801.998	623.454
391.175	22.145	801.961	623.786
392.190	21.977	800.577	622.060
393.205	20.682	798.728	615.984
394.219	19.254	797.177	609.686
395.234	19.400	796.982	610.001
396.248	21.019	798.102	616.532
397.263	22.079	799.108	621.002
398.278	22.176	798.639	620.926
399.292	21.847	798.302	619.448
400.307	21.842	797.335	618.626
401.321	22.052	797.324	619.303
402.336	22.401	797.097	620.300
403.350	22.703	797.138	621.343
404.365	23.084	796.717	622.302
405.380	23.299	796.570	622.888
406.394	23.207	795.579	621.735
407.409	23.170	795.214	621.263
408.423	23.078	795.064	620.768
409.438	23.013	794.539	620.077
410.453	23.224	794.096	620.414
411.467	23.121	793.440	619.487
412.482	23.158	793.193	619.368
413.496	23.292	792.893	619.550
414.511	23.184	792.448	618.769
415.526	23.136	792.339	618.460
416.540	22.876	791.657	616.964
417.555	22.746	790.941	615.898
418.569	22.875	790.208	615.724
419.584	22.869	789.418	615.031
420.599	22.638	788.911	613.777
421.613	158.543	1364.716	1800.358
422.628	137.291	1448.602	1800.439
