DTS Sentinel unit serial number:	SN413079Multiplexer serial number:	ORYXHardware model number:	OX4-SRSoftware version number:	ORYX F/W v4.00 Oryx Data Collector v3.7.2.0data status	okinstallation	princeton_trtdifferential loss correction	single-endedforward channel	channel 1reverse channel	N/Adate	2019/09/12time	05:24:11forward acquisition time	60.00reverse acquisition time	0.00gamma	496.2192k internal	0.2322k external	0.2322temperature offset calibration	1.0051default loss term (dB/km)	0.3790temperature slope calibration	1.0000multiplexer offset coefficient	1.0000multiplexer slope coefficient	1.0000fibre end	0.00T internal ref (°C)	31.89T ext. ref 1 (°C)	1.62T ext. ref 2 (°C)	27.30length (m)	temperature (°C)	Stokes	anti-Stokes-747.200	-102.890	-0.226	0.054
-746.185	275.220	-0.048	0.086
-745.171	-85.999	0.101	-0.032
-744.156	120.652	-0.111	-0.139
-743.142	-3.651	-0.301	-0.211
-742.127	38.070	0.123	-0.110
-741.112	43.647	-0.173	0.160
-740.098	177.672	0.120	-0.177
-739.083	-76.776	-0.208	0.074
-738.069	800.000	0.187	0.597
-737.054	-200.000	0.004	-0.119
-736.039	26.481	-0.369	-0.312
-735.025	97.872	-0.015	0.017
-734.010	-142.439	-0.294	-0.029
-732.996	800.000	-0.134	-0.481
-731.981	-9.495	-0.227	-0.153
-730.966	144.069	0.185	0.249
-729.952	800.000	-0.035	-0.144
-728.937	-200.000	-0.014	-0.201
-727.923	-33.895	0.196	-0.109
-726.908	-48.175	-0.329	-0.160
-725.894	800.000	-0.028	0.086
-724.879	-182.338	0.185	0.003
-723.864	299.547	-0.064	-0.118
-722.850	-114.132	-0.241	-0.047
-721.835	218.200	0.229	0.368
-720.821	50.205	-0.051	0.049
-719.806	-56.679	-0.383	0.171
-718.791	-99.133	0.331	-0.085
-717.777	439.008	-0.069	-0.151
-716.762	-29.967	-0.146	-0.084
-715.748	800.000	0.090	-0.255
-714.733	-14.822	-0.329	-0.213
-713.718	800.000	-0.053	0.175
-712.704	13.893	-0.456	-0.358
-711.689	90.455	-0.061	0.069
-710.675	-200.000	0.091	0.614
-709.660	-103.365	0.188	-0.045
-708.645	183.490	0.034	0.051
-707.631	-1.888	-0.182	0.129
-706.616	68.551	-0.226	0.233
-705.602	164.025	-0.047	0.066
-704.587	-101.440	0.087	0.021
-703.572	120.823	-0.229	0.287
-702.558	-88.947	0.174	-0.052
-701.543	624.223	-0.051	0.131
-700.529	115.475	0.159	0.196
-699.514	800.000	0.140	0.394
-698.499	136.515	0.125	0.165
-697.485	241.478	0.182	-0.307
-696.470	32.631	-0.095	-0.083
-695.456	-119.958	-0.265	0.046
-694.441	190.026	-0.045	0.069
-693.426	80.041	0.091	-0.098
-692.412	-116.630	-0.128	0.024
-691.397	52.257	0.200	-0.192
-690.383	515.096	-0.095	-0.225
-689.368	-11.129	0.271	0.180
-688.354	149.750	0.190	-0.259
-687.339	421.774	-0.041	-0.089
-686.324	-39.482	-0.391	0.206
-685.310	-122.910	-0.176	0.029
-684.295	62.447	0.018	0.018
-683.281	-92.716	-0.437	0.123
-682.266	-39.491	-0.243	0.128
-681.251	-200.000	-0.021	-0.346
-680.237	800.000	0.030	-0.113
-679.222	-21.810	0.218	-0.134
-678.208	-81.839	-0.080	0.026
-677.193	800.000	-0.091	-0.260
-676.178	-14.567	-0.271	0.176
-675.164	-200.000	-0.003	-0.232
-674.149	-200.000	0.014	0.303
-673.135	56.928	0.194	-0.190
-672.120	4.872	-0.062	-0.046
-671.105	8.596	0.200	0.152
-670.091	90.067	0.153	-0.172
-669.076	800.000	-0.078	-0.268
-668.062	285.938	-0.128	0.233
-667.047	-65.665	-0.259	-0.105
-666.032	69.481	-0.159	0.165
-665.018	-60.585	0.235	-0.100
-664.003	-1.547	-0.332	-0.236
-662.989	-127.145	-0.209	-0.031
-661.974	-168.097	0.214	-0.008
-660.959	800.000	-0.042	0.146
-659.945	-200.000	0.030	0.322
-658.930	-200.000	0.010	0.149
-657.916	800.000	-0.128	0.468
-656.901	63.438	0.122	-0.123
-655.886	-80.976	0.196	-0.065
-654.872	-109.170	-0.148	0.032
-653.857	-80.324	-0.211	0.071
-652.843	39.206	-0.202	0.182
-651.828	351.466	-0.098	-0.195
-650.814	292.274	0.047	-0.087
-649.799	-159.098	-0.152	0.009
-648.784	208.636	0.038	0.059
-647.770	-17.836	-0.326	0.206
-646.755	-93.500	-0.223	-0.062
-645.741	56.846	-0.075	-0.074
-644.726	-26.831	0.111	0.066
-643.711	-163.835	-0.494	-0.023
-642.697	5.390	0.095	-0.071
-641.682	84.961	0.050	0.055
-640.668	-200.000	0.036	-0.202
-639.653	-59.524	-0.041	-0.018
-638.638	304.737	0.146	-0.274
-637.624	-200.000	0.013	0.256
-636.609	-127.816	-0.104	-0.015
-635.595	748.485	0.050	0.136
-634.580	75.538	0.249	-0.264
-633.565	-4.287	-0.175	-0.122
-632.551	-200.000	0.021	-0.128
-631.536	501.185	-0.094	-0.218
-630.522	-200.000	0.018	-0.225
-629.507	-113.926	-0.156	-0.030
-628.492	186.781	0.167	-0.250
-627.478	-126.053	0.275	0.041
-626.463	-200.000	-0.013	-0.121
-625.449	-200.000	-0.056	-0.290
-624.434	-32.296	0.082	-0.046
-623.419	-62.942	0.122	0.051
-622.405	557.758	0.108	-0.262
-621.390	-172.235	-0.135	0.004
-620.376	124.620	-0.060	0.076
-619.361	-55.553	0.167	-0.075
-618.346	-200.000	-0.023	-0.256
-617.332	152.250	-0.090	-0.124
-616.317	-0.889	0.050	-0.035
-615.303	-200.000	-0.034	0.166
-614.288	309.003	0.064	0.119
-613.273	68.571	-0.109	0.113
-612.259	57.588	-0.047	0.046
-611.244	-200.000	0.017	-0.166
-610.230	-90.303	-0.404	0.118
-609.215	-200.000	0.038	0.389
-608.201	-200.000	-0.029	0.176
-607.186	-94.830	-0.274	0.075
-606.171	-6.126	-0.053	-0.036
-605.157	449.792	-0.076	-0.168
-604.142	-16.378	-0.285	-0.182
-603.128	-84.582	-0.171	-0.054
-602.113	800.000	-0.038	0.108
-601.098	375.740	-0.053	-0.109
-600.084	93.156	0.123	0.140
-599.069	800.000	-0.043	-0.172
-598.055	7.345	-0.058	0.044
-597.040	134.228	-0.160	0.208
-596.025	-30.451	0.576	-0.328
-595.011	-24.391	0.123	-0.074
-593.996	147.970	-0.165	-0.223
-592.982	-200.000	-0.010	-0.127
-591.967	-200.000	-0.047	0.268
-590.952	-200.000	-0.002	-0.204
-589.938	3.854	0.158	-0.116
-588.923	800.000	0.050	-0.187
-587.909	-200.000	-0.030	0.162
-586.894	26.544	-0.069	-0.058
-585.879	139.117	-0.106	0.140
-584.865	-190.378	-0.225	-0.002
-583.850	123.318	-0.200	-0.251
-582.836	-174.025	0.517	-0.015
-581.821	35.873	0.071	0.063
-580.806	67.260	-0.143	-0.146
-579.792	-97.487	-0.256	0.067
-578.777	-57.977	0.168	-0.074
-577.763	130.608	-0.167	0.215
-576.748	-64.656	0.196	0.080
-575.733	-200.000	-0.017	-0.248
-574.719	-53.787	0.181	-0.083
-573.704	184.719	0.093	0.138
-572.690	221.354	0.052	0.083
-571.675	-200.000	0.007	0.089
-570.661	115.094	0.157	-0.192
-569.646	800.000	0.049	0.190
-568.631	31.402	-0.280	-0.241
-567.617	124.041	-0.199	-0.251
-566.602	-130.885	0.027	0.004
-565.588	-110.009	-0.111	-0.023
-564.573	-1.855	0.167	-0.118
-563.558	135.836	-0.127	-0.166
-562.544	114.258	0.179	-0.219
-561.529	174.404	-0.072	-0.105
-560.515	14.928	0.101	-0.079
-559.500	-131.960	-0.219	0.029
-558.485	-50.408	0.474	0.225
-557.471	-31.655	0.271	0.153
-556.456	200.216	-0.151	-0.232
-555.442	-106.476	0.136	0.030
-554.427	-200.000	-0.076	-0.471
-553.412	432.892	-0.229	-0.498
-552.398	540.474	0.074	0.177
-551.383	800.000	0.059	0.251
-550.369	-63.754	-0.049	-0.020
-549.354	-36.066	-0.223	0.121
-548.339	-134.756	-0.153	0.019
-547.325	54.862	-0.229	0.222
-546.310	-42.992	-0.122	0.062
-545.296	800.000	0.109	0.336
-544.281	29.468	0.090	-0.077
-543.266	-108.329	0.211	0.046
-542.252	800.000	0.044	0.161
-541.237	141.589	0.043	-0.057
-540.223	800.000	-0.073	-0.239
-539.208	-178.399	-0.142	0.003
-538.193	-131.572	-0.198	-0.026
-537.179	575.711	-0.099	-0.243
-536.164	-73.015	0.254	0.093
-535.150	60.703	0.057	-0.057
-534.135	47.669	-0.057	0.054
-533.121	154.588	0.282	-0.388
-532.106	-92.534	-0.068	-0.019
-531.091	800.000	-0.111	0.350
-530.077	166.568	0.038	-0.054
-529.062	-200.000	0.012	0.205
-528.048	242.687	0.049	-0.082
-527.033	-200.000	-0.009	0.101
-526.018	-51.234	0.093	0.044
-525.004	62.458	0.220	0.220
-523.989	800.000	-0.050	-0.149
-522.975	-4.517	-0.057	-0.039
-521.960	63.415	0.239	0.240
-520.945	-32.586	0.112	-0.062
-519.931	70.059	0.376	0.389
-518.916	-178.971	-0.153	0.003
-517.902	75.700	0.234	0.248
-516.887	800.000	-0.099	0.286
-515.872	-67.710	0.380	-0.149
-514.858	-200.000	-0.013	-0.142
-513.843	55.264	0.100	0.096
-512.829	-95.194	0.231	0.062
-511.814	-200.000	0.094	-0.417
-510.799	401.555	0.064	-0.134
-509.785	5.753	-0.163	0.121
-508.770	13.133	0.182	0.141
-507.756	-200.000	0.043	-0.241
-506.741	121.776	-0.169	0.211
-505.726	-42.809	0.061	0.031
-504.712	-35.737	0.176	0.095
-503.697	-200.000	0.014	-0.168
-502.683	45.164	0.314	-0.290
-501.668	-200.000	0.047	-0.236
-500.653	-100.004	-0.300	0.075
-499.639	-200.000	-0.011	-0.107
-498.624	-156.658	-0.174	-0.011
-497.610	-200.000	-0.018	0.098
-496.595	22.582	0.281	-0.230
-495.581	-0.781	-0.282	-0.200
-494.566	-200.000	0.011	-0.079
-493.551	-127.478	0.286	0.042
-492.537	-200.000	0.042	0.196
-491.522	261.268	-0.136	0.236
-490.508	-200.000	-0.022	-0.205
-489.493	-122.983	-0.183	0.029
-488.478	-200.000	-0.220	0.001
-487.464	681.415	0.058	-0.152
-486.449	216.514	-0.006	0.009
-485.435	157.113	-0.107	0.148
-484.420	533.353	-0.052	0.123
-483.405	-71.911	0.129	-0.048
-482.391	285.786	-0.145	0.261
-481.376	-99.570	-0.260	0.065
-480.362	-200.000	-0.013	-0.409
-479.347	-110.028	-0.202	0.042
-478.332	800.000	0.096	0.311
-477.318	-66.550	-0.073	0.029
-476.303	-19.912	0.311	-0.192
-475.289	67.190	-0.212	0.216
-474.274	-58.840	-0.268	-0.116
-473.259	480.404	0.055	-0.125
-472.245	-20.935	0.168	-0.103
-471.230	800.000	-0.049	-0.192
-470.216	66.468	-0.160	0.163
-469.201	-29.324	0.136	-0.078
-468.186	-128.060	0.261	0.037
-467.172	-200.000	-0.383	0.000
-466.157	800.000	-0.103	-0.351
-465.143	-28.710	-0.118	0.068
-464.128	41.746	0.141	-0.128
-463.113	-200.000	0.032	-0.317
-462.099	335.849	0.061	0.118
-461.084	414.770	-0.178	0.379
-460.070	-91.838	0.113	0.032
-459.055	-92.914	-0.285	-0.080
-458.040	-90.048	0.364	-0.106
-457.026	25.911	-0.218	0.182
-456.011	-200.000	0.031	0.259
-454.997	230.640	-0.054	-0.088
-453.982	-200.000	-0.097	-0.543
-452.968	-56.829	-0.389	-0.172
-451.953	-198.634	0.062	0.000
-450.938	-200.000	0.002	0.134
-449.924	-64.430	0.257	0.105
-448.909	-51.853	-0.151	0.070
-447.895	363.738	0.091	0.182
-446.880	722.606	-0.134	-0.357
-445.865	-200.000	-0.030	-0.141
-444.851	83.300	0.179	0.195
-443.836	800.000	0.064	-0.188
-442.822	419.418	-0.125	-0.267
-441.807	-111.208	0.276	-0.056
-440.792	-65.843	-0.336	0.134
-439.778	15.701	-0.086	-0.067
-438.763	-27.255	-0.076	-0.044
-437.749	-200.000	-0.015	-0.251
-436.734	283.793	-0.162	0.290
-435.719	-200.000	0.015	0.153
-434.705	21.684	0.233	0.190
-433.690	-136.757	0.196	-0.023
-432.676	-101.126	0.153	0.037
-431.661	12.035	0.096	0.074
-430.646	-151.411	-0.061	0.005
-429.632	81.830	-0.211	-0.228
-428.617	800.000	-0.085	-0.272
-427.603	45.160	-0.182	-0.168
-426.588	-9.721	0.225	-0.150
-425.573	-200.000	-0.012	-0.161
-424.559	800.000	0.090	0.353
-423.544	514.781	0.079	-0.185
-422.530	800.000	-0.111	0.388
-421.515	96.388	-0.232	0.265
-420.500	-167.727	-0.099	0.004
-419.486	-31.635	0.173	0.097
-418.471	-200.000	-0.018	-0.109
-417.457	710.959	0.035	0.092
-416.442	800.000	0.039	-0.160
-415.428	-104.947	-0.102	-0.023
-414.413	731.597	-0.035	0.093
-413.398	800.000	-0.042	-0.177
-412.384	23.538	-0.162	0.133
-411.369	43.725	-0.136	0.124
-410.355	263.549	-0.079	0.137
-409.340	45.006	-0.119	-0.109
-408.325	-200.000	-0.059	-0.493
-407.311	-79.839	-0.282	0.095
-406.296	-93.652	0.066	0.018
-405.282	3.103	0.263	-0.190
-404.267	-200.000	0.008	-0.255
-403.252	41.403	-0.262	0.236
-402.238	-153.784	0.129	-0.009
-401.223	355.245	-0.089	-0.177
-400.209	26.335	-0.149	-0.124
-399.194	198.577	0.087	0.132
-398.179	-200.000	-0.004	-0.076
-397.165	-200.000	-0.010	0.192
-396.150	571.317	0.044	-0.108
-395.136	-79.901	0.140	0.047
-394.121	100.044	0.085	-0.098
-393.106	303.707	-0.265	0.489
-392.092	0.898	-0.158	0.113
-391.077	-144.550	0.199	-0.018
-390.063	-148.595	-0.080	-0.006
-389.048	-82.373	0.208	-0.067
-388.033	-114.591	-0.123	-0.024
-387.019	129.630	-0.072	0.092
-386.004	-95.070	0.450	0.121
-384.990	-101.332	0.079	-0.019
-383.975	-65.600	0.114	0.045
-382.960	-3.696	0.299	-0.207
-381.946	77.847	-0.099	-0.105
-380.931	-38.477	-0.134	-0.071
-379.917	243.952	0.037	-0.062
-378.902	-200.000	-0.021	-0.210
-377.888	1.499	-0.142	-0.102
-376.873	237.449	0.147	0.243
-375.858	129.454	-0.041	-0.053
-374.844	61.007	-0.006	0.006
-373.829	95.904	-0.055	0.063
-372.815	491.800	0.058	-0.133
-371.800	36.378	0.261	-0.229
-370.785	19.899	0.328	0.264
-369.771	-200.000	0.038	0.208
-368.756	26.868	-0.111	-0.092
-367.742	71.153	-0.156	-0.161
-366.727	-200.000	-0.001	0.074
-365.712	782.857	0.045	-0.122
-364.698	-75.559	-0.163	0.058
-363.683	-200.000	0.085	0.396
-362.669	84.430	-0.149	0.163
-361.654	800.000	0.112	0.354
-360.639	200.245	0.097	0.149
-359.625	320.133	-0.157	-0.296
-358.610	-111.364	0.264	-0.054
-357.596	10.613	-0.436	0.331
-356.581	-0.927	0.129	0.091
-355.566	-137.678	-0.108	0.012
-354.552	-33.068	0.218	0.120
-353.537	252.956	0.113	0.192
-352.523	800.000	0.086	0.317
-351.508	140.461	0.204	0.268
-350.493	-200.000	-0.025	0.150
-349.479	-51.509	0.206	0.096
-348.464	385.642	-0.041	0.085
-347.450	-151.357	0.199	-0.015
-346.435	-163.273	0.197	0.009
-345.420	-18.699	0.192	0.119
-344.406	-39.181	0.116	0.060
-343.391	259.719	-0.091	-0.156
-342.377	751.777	0.065	-0.175
-341.362	218.395	-0.247	-0.392
-340.348	-165.847	-0.453	0.019
-339.333	-126.905	0.272	0.040
-338.318	-75.158	0.234	0.083
-337.304	3.508	-0.148	0.107
-336.289	-140.097	-0.240	0.025
-335.275	-108.829	0.034	0.007
-334.260	325.776	0.144	0.274
-333.245	314.820	-0.123	-0.230
-332.231	602.759	-0.100	-0.246
-331.216	-38.648	0.048	0.025
-330.202	-5.288	-0.236	0.161
-329.187	49.543	0.142	0.133
-328.172	78.910	-0.129	0.137
-327.158	69.017	0.109	0.111
-326.143	59.515	-0.270	-0.265
-325.129	800.000	0.129	-0.381
-324.114	82.909	0.159	-0.171
-323.099	-66.906	-0.242	-0.095
-322.085	292.348	0.155	-0.280
-321.070	173.787	0.222	0.319
-320.056	-88.932	0.346	0.102
-319.041	56.864	0.122	0.118
-318.026	800.000	0.132	0.462
-317.012	543.106	-0.131	-0.311
-315.997	-200.000	0.015	0.127
-314.983	-200.000	0.013	-0.160
-313.968	626.910	-0.125	0.313
-312.953	-200.000	-0.010	-0.081
-311.939	-14.829	-0.027	-0.017
-310.924	-200.000	-0.032	-0.233
-309.910	-200.000	0.017	-0.162
-308.895	-38.974	0.288	0.150
-307.880	-200.000	0.007	0.360
-306.866	14.287	0.283	-0.219
-305.851	131.386	-0.239	-0.305
-304.837	-136.641	-0.174	0.020
-303.822	50.495	0.063	-0.059
-302.807	52.056	-0.047	0.045
-301.793	452.857	0.210	-0.461
-300.778	800.000	-0.043	0.155
-299.764	507.826	0.087	0.200
-298.749	-128.081	-0.080	-0.011
-297.735	4.056	0.020	-0.015
-296.720	-39.217	0.334	0.174
-295.705	-200.000	0.019	0.090
-294.691	70.099	-0.119	0.121
-293.676	94.350	-0.428	0.482
-292.662	-185.383	0.092	0.001
-291.647	800.000	0.050	0.140
-290.632	800.000	0.045	0.158
-289.618	800.000	-0.025	-0.105
-288.603	168.195	-0.181	0.256
-287.589	-200.000	-0.026	-0.337
-286.574	-200.000	0.097	0.560
-285.559	59.491	-0.175	0.172
-284.545	-200.000	0.016	0.266
-283.530	-13.783	-0.129	0.083
-282.516	800.000	-0.062	0.216
-281.501	7.104	0.115	0.085
-280.486	85.650	0.103	-0.113
-279.472	-140.087	0.291	0.030
-278.457	528.947	-0.060	-0.141
-277.443	183.493	0.127	0.186
-276.428	104.880	0.224	-0.262
-275.413	-200.000	0.019	-0.099
-274.399	-69.352	-0.094	0.036
-273.384	560.479	0.067	0.159
-272.370	-81.824	-0.055	0.018
-271.355	800.000	0.099	0.272
-270.340	517.868	0.084	0.195
-269.326	121.591	-0.243	0.301
-268.311	-68.912	0.140	0.054
-267.297	-200.000	-0.033	-0.332
-266.282	-70.340	0.053	0.020
-265.267	210.855	-0.129	-0.200
-264.253	-200.000	-0.017	-0.197
-263.238	800.000	0.054	0.190
-262.224	95.442	-0.069	0.078
-261.209	-200.000	-0.044	0.205
-260.195	-200.000	0.001	-0.086
-259.180	80.626	0.210	0.225
-258.165	-59.799	0.298	0.127
-257.151	-73.308	-0.193	0.070
-256.136	800.000	-0.108	-0.446
-255.122	-200.000	0.030	-0.276
-254.107	-200.000	-0.007	-0.163
-253.092	-200.000	0.008	0.059
-252.078	-88.060	0.338	-0.101
-251.063	800.000	-0.049	-0.142
-250.049	540.557	0.095	0.223
-249.034	-200.000	-0.061	-0.561
-248.019	-200.000	-0.031	-0.288
-247.005	212.540	0.080	0.125
-245.990	-128.502	0.127	0.018
-244.976	800.000	0.091	-0.280
-243.961	-15.567	-0.225	0.143
-242.946	-99.177	0.284	-0.071
-241.932	-178.594	-0.230	0.005
-240.917	-39.603	0.125	0.065
-239.903	499.411	-0.133	0.304
-238.888	-53.430	0.102	0.046
-237.873	163.647	0.052	0.073
-236.859	-168.693	-0.092	0.003
-235.844	-152.273	-0.163	0.012
-234.830	800.000	-0.156	0.488
-233.815	557.935	0.096	-0.229
-232.800	800.000	-0.122	-0.377
-231.786	128.194	0.074	0.093
-230.771	-22.249	-0.157	-0.094
-229.757	-54.569	0.348	0.156
-228.742	-36.410	-0.207	-0.111
-227.727	-80.247	-0.262	-0.087
-226.713	800.000	-0.083	0.295
-225.698	139.663	-0.142	0.185
-224.684	21.433	0.071	0.057
-223.669	37.523	-0.174	-0.153
-222.655	93.045	-0.204	-0.229
-221.640	71.733	0.102	-0.105
-220.625	599.189	-0.117	0.288
-219.611	-106.825	0.366	-0.080
-218.596	-128.303	0.197	-0.028
-217.582	-167.079	0.378	-0.015
-216.567	605.469	-0.107	0.264
-215.552	120.427	0.209	-0.256
-214.538	31.392	-0.057	0.048
-213.523	-6.679	-0.459	-0.309
-212.509	-200.000	0.041	-0.218
-211.494	247.977	-0.153	0.257
-210.479	800.000	-0.062	-0.219
-209.465	186.034	-0.101	0.148
-208.450	258.107	-0.190	0.324
-207.436	-71.172	0.327	0.121
-206.421	161.967	0.089	-0.124
-205.406	-60.424	0.087	-0.037
-204.392	-14.723	-0.137	0.087
-203.377	136.530	0.134	-0.173
-202.363	-141.905	-0.263	0.026
-201.348	-123.499	0.301	-0.047
-200.333	221.227	0.058	-0.093
-199.319	42.051	0.374	0.336
-198.304	-104.269	0.360	-0.083
-197.290	800.000	-0.121	0.402
-196.275	-29.380	-0.341	0.193
-195.260	-200.000	-0.040	-0.319
-194.246	82.508	0.117	0.126
-193.231	-200.000	-0.005	-0.129
-192.217	216.144	0.188	-0.296
-191.202	357.757	0.099	0.195
-190.187	782.343	-0.126	0.341
-189.173	143.701	0.126	0.166
-188.158	8.637	0.201	-0.150
-187.144	-14.471	-0.209	0.133
-186.129	330.597	-0.074	-0.142
-185.114	27.699	-0.025	0.021
-184.100	122.314	-0.234	-0.289
-183.085	159.955	0.122	0.168
-182.071	36.177	0.263	0.229
-181.056	80.651	0.263	0.280
-180.042	-69.207	-0.230	0.087
-179.027	-77.493	-0.282	-0.097
-178.012	-68.558	0.356	0.136
-176.998	171.517	-0.077	0.110
-175.983	-30.801	-0.119	-0.067
-174.969	155.274	-0.270	-0.368
-173.954	464.241	-0.022	0.048
-172.939	61.780	-0.206	0.203
-171.925	-200.000	0.004	0.134
-170.910	62.914	-0.203	0.201
-169.896	295.574	-0.046	0.083
-168.881	-200.000	-0.027	0.124
-167.866	-200.000	-0.041	-0.197
-166.852	-75.090	0.240	0.085
-165.837	450.452	0.110	-0.241
-164.823	-47.162	0.163	-0.079
-163.808	-5.407	-0.358	0.243
-162.793	753.877	-0.151	0.403
-161.779	-63.524	-0.122	-0.050
-160.764	46.561	0.203	-0.186
-159.750	38.746	-0.250	0.221
-158.735	800.000	0.029	0.107
-157.720	372.833	-0.122	-0.246
-156.706	124.372	0.047	0.058
-155.691	492.946	-0.041	-0.092
-154.677	-24.608	-0.104	-0.061
-153.662	-200.000	-0.026	-0.176
-152.647	-134.148	-0.109	-0.013
-151.633	-200.000	0.049	-0.248
-150.618	800.000	0.119	-0.396
-149.604	-115.370	0.024	-0.004
-148.589	-107.969	0.202	0.043
-147.574	-79.973	0.113	-0.038
-146.560	25.044	0.054	-0.044
-145.545	478.346	-0.114	-0.256
-144.531	37.280	-0.166	0.145
-143.516	-200.000	0.069	0.313
-142.502	232.538	0.073	-0.118
-141.487	-43.036	0.206	0.103
-140.472	800.000	0.049	-0.152
-139.458	-3.967	-0.255	-0.174
-138.443	-200.000	-0.004	-0.118
-137.429	-4.921	0.107	-0.073
-136.414	-200.000	-0.011	0.176
-135.399	85.361	0.075	0.081
-134.385	-17.644	0.406	0.252
-133.370	76.665	0.075	-0.078
-132.356	-18.552	0.277	0.171
-131.341	-86.358	-0.415	0.126
-130.326	800.000	-0.068	0.273
-129.312	211.637	0.154	0.239
-128.297	143.930	0.165	0.217
-127.283	334.729	-0.049	0.093
-126.268	37.152	0.188	0.164
-125.253	-58.764	0.250	0.107
-124.239	-41.209	-0.257	0.131
-123.224	-87.338	-0.131	-0.039
-122.210	-200.000	0.005	0.102
-121.195	-131.287	-0.222	0.029
-120.180	-82.142	-0.079	-0.025
-119.166	49.854	0.164	-0.152
-118.151	230.866	0.045	0.073
-117.137	-79.075	0.109	-0.036
-116.122	-200.000	0.006	0.095
-115.107	134.406	0.162	0.207
-114.093	34.351	-0.107	0.092
-113.078	-110.628	0.208	0.043
-112.064	-79.978	0.229	-0.076
-111.049	230.505	0.045	0.072
-110.034	334.693	0.130	-0.248
-109.020	-70.712	0.236	0.088
-108.005	174.533	-0.110	-0.157
-106.991	80.474	-0.122	0.129
-105.976	800.000	-0.116	-0.341
-104.962	81.308	0.072	-0.077
-103.947	800.000	0.046	0.198
-102.932	-45.850	-0.156	0.076
-101.918	-200.000	-0.048	-0.289
-100.903	386.871	0.125	-0.255
-99.889	60.307	-0.117	-0.115
-98.874	278.406	0.057	0.099
-97.859	41.713	0.114	0.102
-96.845	291.056	-0.169	-0.302
-95.830	-1.641	-0.048	-0.034
-94.816	-200.000	-0.001	-0.173
-93.801	-123.996	0.138	-0.021
-92.786	627.266	0.088	-0.218
-91.772	135.772	-0.221	0.284
-90.757	-200.000	0.030	0.172
-89.743	-173.927	0.181	0.005
-88.728	-24.592	0.294	0.172
-87.713	-200.000	-0.032	0.143
-86.699	-36.471	0.285	-0.151
-85.684	26.476	-0.271	0.223
-84.670	453.050	0.036	0.078
-83.655	35.591	-0.088	0.076
-82.640	800.000	-0.040	-0.165
-81.626	102.718	0.084	0.096
-80.611	-35.487	0.193	0.103
-79.597	-200.000	0.002	-0.343
-78.582	-27.682	0.155	-0.089
-77.567	9.554	-0.336	-0.251
-76.553	800.000	-0.090	-0.324
-75.538	-74.271	-0.311	-0.111
-74.524	243.379	-0.131	-0.217
-73.509	-64.118	0.199	-0.080
-72.494	800.000	-0.101	-0.419
-71.480	-138.487	-0.375	-0.041
-70.465	36.608	-0.162	-0.141
-69.451	7.938	-0.194	0.143
-68.436	-72.785	0.180	0.065
-67.422	-83.455	-0.270	-0.085
-66.407	164.320	0.207	-0.287
-65.392	-200.000	0.044	-0.230
-64.378	105.342	-0.135	-0.157
-63.363	-200.000	0.044	0.341
-62.349	619.518	-0.137	0.340
-61.334	29.089	-0.806	-0.673
-60.319	-200.000	0.141	0.797
-59.305	-200.000	-0.120	-1.070
-58.290	59.590	0.832	0.807
-57.276	800.000	0.495	1.500
-56.261	-200.000	95.786	594.971
-55.246	563.170	1367.671	3256.751
-54.232	161.926	2546.481	3508.176
-53.217	113.402	2138.196	2552.655
-52.203	43.815	1600.420	1441.339
-51.188	35.409	1337.944	1154.595
-50.173	32.238	1296.549	1100.301
-49.159	54.360	1344.029	1272.854
-48.144	56.536	1360.535	1301.389
-47.130	35.568	1319.230	1139.205
-46.115	32.019	1302.379	1103.783
-45.100	31.913	1297.181	1098.713
-44.086	31.827	1294.470	1095.874
-43.071	31.677	1292.129	1092.970
-42.057	31.667	1290.128	1091.175
-41.042	31.783	1288.208	1090.187
-40.027	31.874	1286.987	1089.638
-39.013	31.931	1284.714	1088.002
-37.998	31.864	1282.975	1086.094
-36.984	31.876	1281.558	1084.926
-35.969	31.891	1279.521	1083.243
-34.954	31.930	1278.144	1082.261
-33.940	31.909	1276.903	1081.041
-32.925	31.903	1275.470	1079.752
-31.911	31.996	1273.434	1078.518
-30.896	31.924	1272.414	1077.199
-29.881	31.898	1271.424	1076.173
-28.867	32.014	1269.665	1075.304
-27.852	32.129	1267.909	1074.435
-26.838	32.037	1266.541	1072.708
-25.823	32.093	1264.947	1071.628
-24.809	31.996	1264.017	1070.248
-23.794	31.958	1263.215	1069.312
-22.779	31.926	1261.726	1067.823
-21.765	32.003	1260.370	1067.071
-20.750	31.934	1259.229	1065.670
-19.736	31.926	1257.487	1064.109
-18.721	31.813	1256.643	1062.713
-17.706	31.771	1255.547	1061.506
-16.692	31.847	1254.526	1061.029
-15.677	31.806	1253.762	1060.110
-14.663	31.893	1251.687	1058.803
-13.648	31.799	1250.930	1057.595
-12.633	31.866	1249.838	1057.007
-11.619	31.837	1248.940	1056.038
-10.604	31.770	1248.466	1055.223
-9.590	31.764	1247.180	1054.061
-8.575	31.795	1246.042	1053.231
-7.560	31.740	1245.510	1052.430
-6.546	31.838	1244.178	1051.812
-5.531	31.836	1243.641	1051.304
-4.517	31.822	1242.600	1050.305
-3.502	31.761	1241.985	1049.402
-2.487	31.840	1240.898	1048.885
-1.473	31.793	1236.811	1045.126
-0.458	30.549	1222.486	1026.113
0.556	27.218	1206.006	990.547
1.571	23.767	1211.414	975.980
2.586	23.039	1226.654	984.118
3.600	22.421	1215.369	971.570
4.615	16.141	1141.900	880.089
5.629	6.094	1065.457	771.959
6.644	1.926	1045.388	737.234
7.659	1.604	1042.885	733.850
8.673	1.501	1041.571	732.364
9.688	1.459	1040.359	731.243
10.702	1.618	1038.871	730.898
11.717	7.686	1047.748	766.405
12.731	18.095	1062.089	827.469
13.746	23.843	1068.668	860.428
14.761	24.791	1070.562	866.472
15.775	24.882	1069.821	866.233
16.790	24.698	1069.488	864.999
17.804	24.663	1068.578	864.016
18.819	24.851	1067.897	864.297
19.834	24.961	1067.786	864.664
20.848	24.957	1067.162	864.061
21.863	24.880	1066.930	863.426
22.877	24.868	1065.791	862.371
23.892	24.839	1065.634	862.028
24.907	24.850	1064.910	861.418
25.921	24.891	1063.439	860.349
26.936	24.707	1062.557	858.676
27.950	24.831	1060.706	857.699
28.965	24.521	1059.194	854.916
29.980	24.780	1057.361	854.598
30.994	25.045	1056.039	854.716
32.009	24.959	1055.100	853.472
33.023	24.732	1054.116	851.522
34.038	24.888	1053.285	851.515
35.053	24.876	1053.200	851.315
36.067	24.891	1052.061	850.392
37.082	25.023	1050.947	850.043
38.096	25.079	1050.692	850.028
39.111	25.187	1050.105	849.985
40.126	25.031	1048.845	848.155
41.140	24.730	1047.090	845.237
42.155	24.618	1045.241	843.139
43.169	24.560	1044.685	842.347
44.184	24.528	1044.066	841.620
45.199	24.450	1042.960	840.288
46.213	24.535	1041.910	839.767
47.228	24.763	1041.402	840.355
48.242	24.806	1040.342	839.627
49.257	24.881	1039.669	839.360
50.271	24.949	1039.339	839.339
51.286	24.832	1038.932	838.389
52.301	24.893	1037.581	837.508
53.315	24.875	1036.488	836.471
54.330	24.813	1035.539	835.341
55.344	24.888	1035.208	835.347
56.359	24.776	1034.044	833.814
57.374	24.657	1033.118	832.438
58.388	24.723	1032.199	831.933
59.403	24.588	1031.651	830.788
60.417	24.420	1030.674	829.147
61.432	24.436	1030.232	828.793
62.447	24.660	1029.516	829.183
63.461	24.795	1028.387	828.826
64.476	24.637	1027.416	827.236
65.490	24.623	1026.642	826.476
66.505	24.722	1025.917	826.280
67.520	24.791	1025.096	825.862
68.534	24.320	1024.549	823.173
69.549	24.162	1023.193	821.285
70.563	24.140	1022.316	820.406
71.578	24.111	1021.331	819.408
72.593	24.035	1020.658	818.447
73.607	24.112	1020.006	818.207
74.622	24.437	1019.810	819.471
75.636	24.493	1019.051	819.041
76.651	24.410	1018.399	818.065
77.666	24.299	1017.231	816.545
78.680	24.324	1017.016	816.416
79.695	24.464	1016.253	816.374
80.709	24.458	1015.812	815.918
81.724	24.453	1014.765	814.985
82.739	24.481	1014.234	814.611
83.753	24.888	1013.564	815.857
84.768	25.192	1012.898	816.633
85.782	25.349	1011.857	816.437
86.797	25.113	1011.182	814.746
87.812	25.004	1010.296	813.465
88.826	25.078	1009.358	812.973
89.841	25.032	1008.531	812.027
90.855	25.239	1006.989	811.652
91.870	25.160	1006.476	810.807
92.884	25.069	1005.414	809.472
93.899	24.945	1004.031	807.725
94.914	25.146	1003.880	808.441
95.928	25.010	1002.597	806.722
96.943	24.797	1001.328	804.670
97.957	24.543	999.993	802.386
98.972	24.376	999.126	800.870
99.987	24.634	998.707	801.621
101.001	25.010	997.537	802.296
102.016	25.026	996.210	801.230
103.030	24.789	996.262	800.141
104.045	24.613	995.089	798.342
105.060	24.472	994.616	797.258
106.074	24.584	993.838	797.068
107.089	24.903	993.214	797.917
108.103	24.840	991.971	796.569
109.118	24.655	990.561	794.544
110.133	24.573	990.036	793.689
111.147	24.349	988.578	791.454
112.162	24.320	987.832	790.658
113.176	24.586	987.353	791.384
114.191	24.454	986.562	790.094
115.206	24.127	985.677	787.870
116.220	24.085	984.743	786.870
117.235	24.249	983.768	786.743
118.249	24.314	983.378	786.650
119.264	24.149	982.487	785.140
120.279	24.262	981.529	784.801
121.293	24.199	981.123	784.128
122.308	24.324	979.852	783.595
123.322	24.433	978.707	783.090
124.337	24.202	977.532	781.067
125.352	23.639	976.422	777.645
126.366	23.524	975.406	776.264
127.381	24.346	975.133	779.571
128.395	24.813	974.975	781.416
129.410	24.770	973.981	780.362
130.424	24.940	973.062	780.299
131.439	24.833	972.139	779.025
132.454	24.856	970.847	778.020
133.468	24.659	970.685	776.963
134.483	24.975	969.523	777.338
135.497	25.056	969.060	777.250
136.512	25.221	967.792	776.877
137.527	25.157	967.446	776.255
138.541	25.067	966.395	774.955
139.556	25.104	965.858	774.615
140.570	25.133	965.347	774.262
141.585	25.151	964.361	773.480
142.600	25.048	962.807	771.722
143.614	25.310	962.839	772.804
144.629	25.408	961.917	772.419
145.643	25.191	960.354	770.163
146.658	25.231	959.020	769.196
147.673	24.911	958.375	767.241
148.687	24.983	957.027	766.400
149.702	24.800	956.483	765.118
150.716	24.832	955.422	764.334
151.731	24.985	954.611	764.272
152.746	25.207	954.231	764.849
153.760	25.259	953.394	764.331
154.775	25.348	953.118	764.421
155.789	25.249	952.172	763.173
156.804	25.279	951.305	762.538
157.819	25.255	950.655	761.847
158.833	25.303	950.251	761.659
159.848	25.362	949.127	760.941
160.862	25.144	947.966	759.021
161.877	25.265	946.366	758.185
162.892	25.305	945.550	757.632
163.906	25.211	944.701	756.488
164.921	25.112	943.840	755.317
165.935	25.229	943.217	755.241
166.950	25.337	941.959	754.623
167.964	25.266	941.297	753.726
168.979	25.077	940.637	752.339
169.994	25.095	939.050	751.080
171.008	25.161	938.948	751.208
172.023	25.339	937.796	750.965
173.037	25.139	937.033	749.451
174.052	24.982	936.085	747.970
175.067	24.881	935.460	746.985
176.081	25.007	935.245	747.271
177.096	24.953	934.666	746.519
178.110	24.788	933.163	744.564
179.125	24.585	932.665	743.258
180.140	24.601	932.430	743.070
181.154	24.752	932.359	743.577
182.169	25.097	931.805	744.502
183.183	25.175	931.720	744.691
184.198	25.206	930.468	743.751
185.213	25.034	929.919	742.535
186.227	25.349	928.798	742.876
187.242	25.265	928.341	742.101
188.256	25.236	927.710	741.410
189.271	25.342	927.225	741.396
190.286	25.003	925.777	738.772
191.300	24.386	924.801	735.386
192.315	23.628	922.811	730.620
193.329	23.599	922.826	730.450
194.344	24.592	922.801	734.446
195.359	24.934	923.540	736.378
196.373	25.175	922.764	736.682
197.388	25.053	922.015	735.519
198.402	24.976	921.557	734.773
199.417	25.300	920.337	735.062
200.432	24.826	919.709	732.556
201.446	24.629	919.241	731.312
202.461	24.720	918.334	730.897
203.475	23.945	916.797	726.447
204.490	23.247	915.308	722.354
205.504	24.051	915.910	726.046
206.519	24.704	915.330	728.185
207.534	24.694	915.637	728.324
208.548	25.176	914.972	729.692
209.563	24.847	914.390	727.826
210.577	25.108	913.268	727.927
211.592	25.429	912.820	728.807
212.607	25.272	912.232	727.640
213.621	25.334	911.602	727.324
214.636	25.322	911.193	726.883
215.650	25.259	910.423	725.950
216.665	25.299	910.108	725.795
217.680	25.224	908.956	724.510
218.694	24.872	907.835	722.132
219.709	24.768	907.072	721.041
220.723	24.988	907.196	721.965
221.738	25.116	906.111	721.552
222.753	25.066	905.773	721.017
223.767	25.340	904.966	721.412
224.782	25.382	905.028	721.566
225.796	25.357	904.544	721.016
226.811	24.614	903.100	716.823
227.826	24.091	901.790	713.624
228.840	24.381	900.956	714.060
229.855	24.505	900.330	713.997
230.869	23.895	899.669	710.973
231.884	24.465	899.602	713.135
232.899	25.104	899.061	715.191
233.913	25.013	898.865	714.609
234.928	25.097	898.007	714.198
235.942	24.855	897.807	713.012
236.957	24.644	896.790	711.305
237.972	24.752	895.901	710.966
238.986	24.748	895.987	710.955
240.001	24.667	895.237	709.975
241.015	24.902	894.420	710.196
242.030	24.964	894.347	710.320
243.045	25.206	893.832	710.809
244.059	25.251	893.200	710.423
245.074	24.945	892.549	708.630
246.088	24.763	891.398	706.935
247.103	25.020	891.053	707.613
248.117	25.573	891.367	709.986
249.132	25.749	890.571	709.980
250.147	25.915	890.188	710.267
251.161	26.055	889.894	710.521
252.176	26.062	889.145	709.889
253.190	26.138	888.847	709.887
254.205	26.269	888.301	709.900
255.220	26.009	887.729	708.360
256.234	25.994	886.898	707.577
257.249	25.756	886.336	706.133
258.263	25.984	885.281	706.123
259.278	25.964	884.616	705.450
260.293	26.078	884.352	705.625
261.307	26.061	883.141	704.528
262.322	25.885	882.774	703.487
263.336	25.058	880.835	698.655
264.351	24.058	878.822	693.107
265.366	24.180	878.679	693.406
266.380	25.323	879.288	698.276
267.395	25.725	879.147	699.662
268.409	25.572	878.486	698.480
269.424	25.700	877.956	698.493
270.439	25.906	877.346	698.746
271.453	25.908	876.574	698.079
272.468	25.998	876.859	698.593
273.482	26.108	876.132	698.376
274.497	25.626	874.404	695.074
275.512	25.504	873.690	693.977
276.526	25.800	873.795	695.142
277.541	25.797	873.851	695.112
278.555	25.833	872.419	694.050
279.570	25.554	872.028	692.601
280.585	25.806	871.608	693.178
281.599	25.594	870.409	691.350
282.614	25.158	869.045	688.529
283.628	25.177	868.570	688.168
284.643	25.396	868.492	688.882
285.657	25.084	867.353	686.723
286.672	24.722	866.720	684.777
287.687	25.349	866.808	687.184
288.701	25.351	866.557	686.932
289.716	25.082	865.108	684.696
290.730	25.215	864.762	684.870
291.745	24.689	863.879	682.103
292.760	25.039	863.917	683.409
293.774	26.117	864.183	687.666
294.789	26.286	864.156	688.227
295.803	26.411	863.168	687.856
296.818	26.411	862.785	687.489
297.833	26.047	860.995	684.623
298.847	25.838	860.883	683.680
299.862	26.077	860.770	684.438
300.876	26.450	860.400	685.496
301.891	26.367	859.504	684.406
302.906	25.821	858.459	681.450
303.920	26.027	858.299	682.041
304.935	26.386	858.038	683.131
305.949	26.231	857.587	682.125
306.964	26.117	856.388	680.682
307.979	26.229	856.317	680.988
308.993	26.526	856.387	682.100
310.008	26.422	855.822	681.200
311.022	26.177	854.914	679.495
312.037	26.080	853.881	678.247
313.052	25.825	853.121	676.626
314.066	25.007	852.017	672.621
315.081	24.528	851.191	670.111
316.095	25.494	851.686	674.070
317.110	26.075	850.915	675.576
318.125	25.185	849.459	671.033
319.139	24.165	847.819	665.867
320.154	24.091	847.621	665.375
321.168	25.035	848.134	669.245
322.183	25.749	848.090	671.818
323.197	25.891	847.864	672.109
324.212	25.995	847.612	672.236
325.227	26.146	846.876	672.155
326.241	26.052	845.811	670.902
327.256	25.846	845.489	669.821
328.270	25.833	845.142	669.439
329.285	25.547	843.981	667.399
330.300	25.503	843.229	666.581
331.314	25.713	843.399	667.438
332.329	26.061	843.374	668.646
333.343	26.270	842.707	668.833
334.358	26.216	842.169	668.149
335.373	26.066	842.418	667.730
336.387	26.545	841.756	668.916
337.402	26.812	841.562	669.690
338.416	26.716	840.916	668.763
339.431	26.631	841.169	668.589
340.446	26.860	840.914	669.175
341.460	26.765	840.194	668.193
342.475	26.561	839.782	667.051
343.489	26.631	839.359	666.915
344.504	26.854	839.098	667.471
345.519	27.040	838.527	667.641
346.533	27.047	838.229	667.371
347.548	26.954	837.888	666.698
348.562	26.929	837.293	666.072
349.577	26.852	836.787	665.330
350.592	26.770	836.330	664.607
351.606	26.916	835.091	664.098
352.621	26.758	834.221	662.771
353.635	26.735	833.508	662.062
354.650	26.073	832.210	658.554
355.665	25.350	830.347	654.389
356.679	25.525	830.394	655.005
357.694	25.943	830.365	656.450
358.708	25.970	829.626	655.904
359.723	26.366	829.529	657.208
360.738	26.543	829.340	657.646
361.752	26.720	828.913	657.891
362.767	27.209	828.298	659.116
363.781	27.317	828.001	659.213
364.796	27.408	827.645	659.200
365.810	27.451	827.016	658.799
366.825	27.374	826.810	658.296
367.840	27.084	826.199	656.703
368.854	26.601	825.705	654.508
369.869	26.615	824.898	653.860
370.883	26.670	824.556	653.731
371.898	26.728	823.824	653.303
372.913	26.782	823.624	653.278
373.927	26.810	822.983	652.815
374.942	26.888	823.112	653.140
375.956	27.118	822.731	653.605
376.971	27.266	822.104	653.584
377.986	27.417	821.524	653.607
379.000	27.230	821.077	652.520
380.015	27.266	820.287	651.964
381.029	27.262	820.011	651.674
382.044	27.341	819.186	651.244
383.059	27.378	818.862	651.062
384.073	27.276	818.577	650.412
385.088	27.282	817.799	649.756
386.102	27.059	817.047	648.305
387.117	27.013	816.238	647.441
388.132	26.776	815.127	645.660
389.146	26.378	813.936	643.246
390.161	26.602	814.541	644.463
391.175	27.159	813.961	645.925
392.190	26.758	812.912	643.613
393.205	25.439	810.669	637.106
394.219	23.815	808.853	629.873
395.234	23.695	809.135	629.611
396.248	25.328	810.856	636.693
397.263	26.822	811.724	642.614
398.278	26.853	810.840	641.970
399.292	26.566	810.216	640.403
400.307	26.709	809.720	640.460
401.321	26.777	809.343	640.346
402.336	27.097	809.184	641.291
403.350	27.577	809.129	642.886
404.365	27.841	808.938	643.608
405.380	28.017	808.736	644.009
406.394	28.049	808.232	643.664
407.409	28.049	807.730	643.208
408.423	27.921	807.489	642.509
409.438	28.094	807.213	642.839
410.453	28.197	806.286	642.407
411.467	28.024	805.629	641.222
412.482	28.044	805.533	641.156
413.496	28.193	805.231	641.381
414.511	28.071	804.843	640.588
415.526	28.041	804.336	640.024
416.540	27.784	803.681	638.548
417.555	27.590	803.058	637.317
418.569	27.686	803.207	637.715
419.584	27.659	802.322	636.861
420.599	27.546	801.617	635.852
421.613	110.841	1287.077	1460.217
422.628	95.613	1357.838	1460.319
