DTS Sentinel unit serial number:	SN413079Multiplexer serial number:	ORYXHardware model number:	OX4-SRSoftware version number:	ORYX F/W v4.00 Oryx Data Collector v3.7.2.0data status	okinstallation	princeton_trtdifferential loss correction	single-endedforward channel	channel 1reverse channel	N/Adate	2019/09/11time	23:00:11forward acquisition time	60.00reverse acquisition time	0.00gamma	496.2192k internal	0.2317k external	0.2317temperature offset calibration	1.0060default loss term (dB/km)	0.3790temperature slope calibration	1.0000multiplexer offset coefficient	1.0000multiplexer slope coefficient	1.0000fibre end	0.00T internal ref (°C)	34.62T ext. ref 1 (°C)	1.80T ext. ref 2 (°C)	29.08length (m)	temperature (°C)	Stokes	anti-Stokes-747.200	-2.031	-0.154	0.110
-746.185	-15.390	-0.216	0.140
-745.171	134.228	0.186	0.244
-744.156	-200.000	-0.023	0.360
-743.142	-13.307	0.202	0.133
-742.127	150.306	0.108	-0.149
-741.112	479.428	0.089	0.205
-740.098	-65.589	-0.413	0.168
-739.083	20.984	0.269	-0.221
-738.069	-119.326	-0.258	-0.045
-737.054	-6.872	-0.072	-0.049
-736.039	515.421	-0.047	0.111
-735.025	-100.755	0.145	-0.036
-734.010	-27.556	-0.356	0.209
-732.996	-174.204	-0.168	-0.005
-731.981	455.484	-0.044	-0.098
-730.966	66.692	0.114	0.117
-729.952	367.752	-0.050	-0.102
-728.937	-200.000	0.007	-0.474
-727.923	800.000	0.059	-0.199
-726.908	281.935	0.094	-0.170
-725.894	-25.584	-0.408	-0.244
-724.879	-43.446	0.172	-0.088
-723.864	-127.336	0.383	0.057
-722.850	800.000	0.167	-0.494
-721.835	-70.144	-0.421	-0.162
-720.821	-43.850	0.080	-0.041
-719.806	-200.000	0.020	0.105
-718.791	668.681	0.095	0.249
-717.777	-200.000	-0.010	0.268
-716.762	160.637	-0.162	-0.229
-715.748	47.038	0.198	0.187
-714.733	590.078	-0.167	-0.416
-713.718	-47.756	0.139	-0.068
-712.704	800.000	0.063	-0.205
-711.689	269.133	-0.127	-0.225
-710.675	-3.468	0.130	-0.092
-709.660	36.824	0.325	-0.291
-708.645	-200.000	0.024	-0.241
-707.631	-200.000	-0.041	-0.196
-706.616	5.587	0.314	-0.234
-705.602	-75.823	-0.074	-0.027
-704.587	-200.000	0.008	0.126
-703.572	203.481	-0.066	-0.103
-702.558	32.031	0.150	-0.130
-701.543	-200.000	-0.006	-0.302
-700.529	-200.000	-0.028	0.160
-699.514	800.000	0.009	-0.039
-698.499	93.083	0.044	0.050
-697.485	800.000	-0.053	0.192
-696.470	143.728	-0.214	-0.288
-695.456	146.093	-0.236	-0.320
-694.441	-43.868	-0.189	-0.096
-693.426	-90.496	-0.212	-0.062
-692.412	-80.213	0.367	-0.124
-691.397	-200.000	0.013	-0.069
-690.383	-36.718	-0.317	-0.172
-689.368	4.728	-0.223	0.166
-688.354	-36.968	0.330	-0.179
-687.339	-28.505	0.092	0.053
-686.324	176.749	0.147	-0.216
-685.310	-200.000	-0.050	-0.241
-684.295	-200.000	-0.007	0.069
-683.281	800.000	0.022	0.088
-682.266	12.247	-0.195	0.152
-681.251	194.414	-0.266	-0.407
-680.237	800.000	-0.019	-0.065
-679.222	53.658	0.020	0.019
-678.208	193.577	0.102	-0.157
-677.193	-176.454	-0.101	0.003
-676.178	-27.372	0.068	0.040
-675.164	-200.000	-0.060	-0.331
-674.149	-200.000	-0.068	0.381
-673.135	800.000	-0.071	-0.227
-672.120	-105.604	-0.129	-0.030
-671.105	191.766	0.077	0.117
-670.091	139.213	-0.084	-0.111
-669.076	-200.000	-0.016	0.094
-668.062	308.991	0.160	-0.301
-667.047	373.472	0.039	0.081
-666.032	119.358	0.220	-0.275
-665.018	46.413	0.180	-0.169
-664.003	-147.365	-0.127	-0.011
-662.989	616.279	0.088	-0.224
-661.974	275.025	0.087	-0.156
-660.959	-115.793	0.215	0.041
-659.945	6.106	-0.305	0.228
-658.930	197.161	0.172	0.264
-657.916	365.375	0.011	-0.023
-656.901	84.510	0.123	0.135
-655.886	-200.000	0.000	0.186
-654.872	-200.000	-0.076	-0.407
-653.857	-94.958	-0.271	-0.074
-652.843	-107.028	0.167	-0.037
-651.828	28.420	0.211	-0.180
-650.814	401.615	-0.190	-0.403
-649.799	800.000	0.089	-0.385
-648.784	-200.000	-0.026	0.131
-647.770	-90.355	-0.340	-0.100
-646.755	-200.000	-0.002	-0.047
-645.741	-49.311	0.175	0.084
-644.726	220.337	-0.109	0.176
-643.711	-200.000	-0.005	0.231
-642.697	800.000	-0.041	-0.147
-641.682	147.246	0.106	0.144
-640.668	285.819	0.145	0.263
-639.653	-20.907	-0.142	-0.088
-638.638	-200.000	0.020	-0.240
-637.624	800.000	0.048	0.176
-636.609	666.663	-0.116	-0.302
-635.595	57.938	0.052	-0.051
-634.580	-4.496	0.218	-0.152
-633.565	800.000	0.075	-0.281
-632.551	418.589	0.081	0.175
-631.536	-12.811	0.276	-0.181
-630.522	2.920	-0.075	0.055
-629.507	-200.000	-0.049	-0.245
-628.492	-172.541	-0.106	0.003
-627.478	800.000	-0.060	0.261
-626.463	-200.000	-0.040	-0.207
-625.449	-185.664	-0.365	-0.006
-624.434	-74.759	-0.111	0.040
-623.419	238.822	0.172	-0.288
-622.405	88.369	0.095	-0.107
-621.390	30.636	-0.185	-0.159
-620.376	-127.448	-0.200	-0.029
-619.361	4.569	0.202	0.149
-618.346	106.920	-0.249	-0.298
-617.332	214.329	0.273	-0.436
-616.317	800.000	-0.129	-0.442
-615.303	13.972	0.394	-0.309
-614.288	2.182	0.117	0.085
-613.273	800.000	0.053	-0.207
-612.259	127.874	0.160	0.205
-611.244	-200.000	0.006	-0.179
-610.230	-18.348	-0.231	-0.146
-609.215	-73.417	0.196	0.072
-608.201	-0.020	-0.095	0.068
-607.186	12.854	-0.304	0.237
-606.171	-111.003	-0.277	0.057
-605.157	85.288	-0.211	0.233
-604.142	-9.989	-0.268	-0.180
-603.128	-131.832	-0.064	0.008
-602.113	-200.000	0.033	0.184
-601.098	-200.000	0.009	-0.043
-600.084	62.590	-0.215	-0.216
-599.069	-118.564	-0.285	0.051
-598.055	300.435	0.038	0.071
-597.040	800.000	-0.095	-0.297
-596.025	-3.072	-0.086	-0.061
-595.011	-37.122	-0.254	-0.137
-593.996	-200.000	-0.039	-0.289
-592.982	-163.213	-0.445	0.021
-591.967	-141.725	0.368	0.037
-590.952	98.725	-0.129	-0.150
-589.938	-58.962	0.157	0.068
-588.923	800.000	0.074	0.300
-587.909	-200.000	-0.009	0.170
-586.894	-88.804	-0.238	-0.071
-585.879	345.662	-0.089	0.177
-584.865	-143.133	0.062	-0.006
-583.850	-43.001	0.382	-0.195
-582.836	-158.959	0.324	0.019
-581.821	-26.553	-0.074	0.044
-580.806	-81.158	-0.185	0.061
-579.792	-200.000	-0.058	-0.385
-578.777	215.771	-0.135	0.215
-577.763	-164.975	-0.494	-0.022
-576.748	3.505	-0.035	-0.026
-575.733	-39.897	0.310	0.163
-574.719	-200.000	-0.002	0.126
-573.704	661.291	-0.076	-0.197
-572.690	10.046	0.060	-0.045
-571.675	-200.000	0.027	0.219
-570.661	-51.711	-0.342	-0.160
-569.646	-71.810	-0.121	-0.045
-568.631	-92.429	-0.079	-0.022
-567.617	-200.000	-0.016	0.250
-566.602	505.621	0.141	-0.329
-565.588	-200.000	-0.003	0.032
-564.573	775.310	-0.055	-0.150
-563.558	25.838	0.110	-0.093
-562.544	222.670	-0.138	-0.223
-561.529	-66.458	-0.272	0.109
-560.515	800.000	0.095	0.283
-559.500	-200.000	0.016	0.290
-558.485	800.000	-0.043	-0.149
-557.471	124.676	-0.120	0.152
-556.456	-157.256	-0.325	-0.020
-555.442	-129.101	0.221	-0.031
-554.427	-147.961	-0.197	0.016
-553.412	-126.826	0.255	-0.038
-552.398	93.766	-0.228	-0.260
-551.383	-107.876	-0.095	-0.021
-550.369	401.598	0.084	0.178
-549.354	102.835	-0.097	-0.114
-548.339	-152.874	0.095	0.007
-547.325	177.671	-0.134	0.196
-546.310	-97.962	-0.229	-0.059
-545.296	125.730	0.186	0.236
-544.281	408.314	0.127	0.269
-543.266	-31.145	-0.238	0.135
-542.252	20.000	0.152	-0.123
-541.237	-200.000	-0.016	-0.383
-540.223	-84.092	0.182	0.058
-539.208	-77.677	-0.157	0.054
-538.193	128.951	0.069	-0.088
-537.179	-82.103	-0.193	0.063
-536.164	-200.000	0.046	0.389
-535.150	-200.000	0.003	-0.256
-534.135	-19.783	0.158	0.098
-533.121	86.365	0.189	0.210
-532.106	-21.127	0.167	-0.103
-531.091	-136.341	-0.372	-0.044
-530.077	-10.167	0.117	0.078
-529.062	-92.605	0.341	-0.096
-528.048	800.000	-0.008	0.029
-527.033	232.939	0.157	-0.259
-526.018	-26.862	-0.113	0.066
-525.004	-98.578	-0.261	-0.067
-523.989	-200.000	-0.097	0.440
-522.975	419.329	0.070	-0.150
-521.960	75.583	-0.076	0.080
-520.945	800.000	-0.034	-0.106
-519.931	293.288	-0.082	-0.150
-518.916	-128.656	-0.281	-0.040
-517.902	-73.163	-0.083	-0.031
-516.887	-115.199	-0.155	-0.029
-515.872	157.038	-0.183	-0.254
-514.858	-200.000	0.027	0.118
-513.843	166.730	0.106	0.150
-512.829	282.744	-0.064	-0.116
-511.814	262.944	0.052	0.091
-510.799	-200.000	-0.002	-0.193
-509.785	334.703	0.187	-0.363
-508.770	29.552	-0.218	-0.186
-507.756	-80.390	0.304	-0.102
-506.741	-200.000	-0.001	0.038
-505.726	-200.000	0.024	0.149
-504.712	-64.752	0.331	0.134
-503.697	800.000	0.089	-0.359
-502.683	-110.566	0.055	-0.011
-501.668	409.439	-0.160	0.339
-500.653	800.000	0.046	0.133
-499.639	-156.072	0.169	-0.011
-498.624	386.931	0.050	0.103
-497.610	-200.000	0.013	-0.244
-496.595	-159.456	0.398	0.022
-495.581	207.644	-0.179	0.280
-494.566	13.267	-0.045	0.035
-493.551	59.628	-0.131	-0.129
-492.537	-162.984	0.086	-0.004
-491.522	-140.781	-0.170	0.018
-490.508	-73.783	-0.171	0.062
-489.493	800.000	0.025	-0.095
-488.478	-81.791	0.097	0.032
-487.464	84.598	0.230	0.253
-486.449	-49.161	0.076	-0.037
-485.435	114.522	-0.137	-0.168
-484.420	88.684	0.192	0.214
-483.405	-109.086	-0.227	-0.048
-482.391	-56.297	0.078	0.035
-481.376	351.505	-0.117	0.232
-480.362	-146.473	-0.452	0.039
-479.347	-45.225	-0.324	0.161
-478.332	-200.000	-0.005	-0.114
-477.318	134.486	0.114	-0.148
-476.303	397.564	-0.067	-0.140
-475.289	45.544	-0.009	-0.009
-474.274	47.721	-0.170	0.159
-473.259	-93.789	0.014	0.004
-472.245	161.551	-0.149	0.209
-471.230	9.660	0.071	-0.054
-470.216	-200.000	-0.008	0.170
-469.201	-117.139	0.312	0.057
-468.186	-200.000	0.016	-0.089
-467.172	-33.072	0.143	-0.079
-466.157	-73.110	-0.158	-0.058
-465.143	-129.807	0.154	-0.021
-464.128	-29.073	0.233	-0.134
-463.113	-82.446	0.152	-0.050
-462.099	162.646	0.135	-0.189
-461.084	-75.101	-0.237	0.085
-460.070	7.619	0.280	0.210
-459.055	-125.695	-0.292	-0.044
-458.040	62.277	-0.202	-0.202
-457.026	-180.452	0.169	0.004
-456.011	160.982	0.106	-0.148
-454.997	-98.411	0.477	-0.122
-453.982	716.613	-0.146	-0.387
-452.968	319.211	0.130	-0.247
-451.953	-200.000	0.049	-0.324
-450.938	607.581	0.133	-0.333
-449.924	800.000	0.112	-0.314
-448.909	-200.000	0.041	0.244
-447.895	-90.990	-0.226	-0.065
-446.880	-80.948	-0.182	-0.060
-445.865	698.127	-0.116	0.306
-444.851	-29.868	-0.400	-0.228
-443.836	11.626	-0.241	0.185
-442.822	-20.454	-0.146	0.090
-441.807	64.843	0.141	-0.142
-440.792	-158.740	0.098	0.006
-439.778	800.000	-0.029	0.088
-438.763	800.000	-0.122	-0.385
-437.749	-122.430	0.228	-0.037
-436.734	59.623	0.171	0.169
-435.719	-200.000	-0.004	0.264
-434.705	-68.315	-0.265	-0.103
-433.690	-200.000	-0.010	0.195
-432.676	-111.953	-0.147	-0.030
-431.661	-28.473	0.049	0.028
-430.646	495.328	-0.074	0.170
-429.632	800.000	-0.094	0.315
-428.617	800.000	-0.043	-0.126
-427.603	312.331	0.182	0.341
-426.588	193.395	-0.162	-0.246
-425.573	-200.000	0.008	-0.169
-424.559	475.822	0.026	0.059
-423.544	119.188	-0.135	0.166
-422.530	162.893	0.028	0.040
-421.515	-164.347	0.103	0.005
-420.500	328.620	0.070	-0.135
-419.486	-13.655	0.273	0.177
-418.471	168.326	0.162	0.230
-417.457	577.205	0.086	0.211
-416.442	46.233	0.121	0.112
-415.428	-21.309	0.207	-0.127
-414.413	800.000	0.035	-0.122
-413.398	43.461	-0.308	0.282
-412.384	-200.000	-0.098	0.480
-411.369	-88.950	-0.201	0.059
-410.355	-200.000	0.015	0.208
-409.340	-103.791	0.171	0.040
-408.325	-180.836	0.105	-0.002
-407.311	88.149	0.175	-0.194
-406.296	-50.196	0.420	0.199
-405.282	-27.556	-0.126	0.073
-404.267	125.194	0.038	0.048
-403.252	-200.000	0.011	0.070
-402.238	-20.167	-0.146	0.090
-401.223	800.000	0.097	-0.306
-400.209	-200.000	0.025	-0.176
-399.194	404.808	0.096	0.203
-398.179	-88.854	0.295	0.087
-397.165	651.820	-0.121	0.309
-396.150	-62.727	0.117	-0.048
-395.136	800.000	0.061	-0.199
-394.121	-133.824	0.253	-0.031
-393.106	800.000	-0.047	0.182
-392.092	-72.355	-0.146	0.054
-391.077	-200.000	-0.000	0.123
-390.063	-200.000	0.001	-0.134
-389.048	-200.000	0.048	-0.231
-388.033	-200.000	0.011	0.193
-387.019	-60.176	-0.147	-0.062
-386.004	107.182	-0.061	-0.073
-384.990	-200.000	0.008	-0.221
-383.975	-200.000	0.089	-0.455
-382.960	197.679	-0.042	0.064
-381.946	45.208	0.195	-0.179
-380.931	69.206	-0.213	-0.218
-379.917	451.249	0.139	0.307
-378.902	-82.380	-0.156	0.050
-377.888	345.719	-0.022	-0.044
-376.873	-130.695	0.095	0.013
-375.858	86.857	-0.266	0.293
-374.844	800.000	0.054	-0.187
-373.829	-200.000	0.008	-0.282
-372.815	279.304	0.091	0.162
-371.800	800.000	-0.065	0.197
-370.785	11.934	-0.356	-0.273
-369.771	-80.093	0.218	-0.073
-368.756	405.561	0.144	0.303
-367.742	-200.000	0.011	0.057
-366.727	-200.000	-0.009	-0.173
-365.712	-200.000	-0.015	-0.102
-364.698	66.175	0.105	0.106
-363.683	113.872	0.220	0.267
-362.669	-83.787	-0.479	0.152
-361.654	-200.000	0.056	0.272
-360.639	134.849	0.167	0.216
-359.625	-70.245	-0.186	0.070
-358.610	-96.380	0.217	-0.057
-357.596	108.929	-0.053	-0.064
-356.581	800.000	0.125	0.386
-355.566	56.533	0.214	0.208
-354.552	691.791	-0.077	-0.201
-353.537	-200.000	0.003	0.269
-352.523	-200.000	-0.056	-0.291
-351.508	-142.799	-0.145	0.014
-350.493	12.033	0.271	-0.208
-349.479	466.652	-0.030	0.066
-348.464	519.556	0.150	0.350
-347.450	-88.546	0.268	0.080
-346.435	-200.000	-0.004	0.030
-345.420	64.950	-0.232	-0.233
-344.406	-19.018	0.397	0.246
-343.391	-107.335	-0.282	0.062
-342.377	145.206	-0.064	0.086
-341.362	147.019	-0.156	0.208
-340.348	279.252	-0.023	-0.041
-339.333	800.000	-0.057	-0.180
-338.318	-169.238	0.076	0.003
-337.304	498.371	-0.069	-0.159
-336.289	12.442	0.155	-0.119
-335.275	800.000	-0.037	0.132
-334.260	-58.665	-0.240	0.104
-333.245	-33.824	0.145	-0.080
-332.231	403.152	0.021	-0.044
-331.216	-80.801	0.217	-0.072
-330.202	637.013	0.137	0.347
-329.187	75.051	0.068	0.071
-328.172	-200.000	0.031	0.258
-327.158	111.957	-0.266	0.320
-326.143	316.080	-0.200	0.376
-325.129	197.050	0.146	0.222
-324.114	-25.728	-0.168	-0.099
-323.099	-108.942	0.368	-0.078
-322.085	800.000	-0.058	-0.165
-321.070	-164.877	0.205	0.009
-320.056	227.346	-0.085	-0.138
-319.041	-93.355	-0.460	-0.127
-318.026	-37.034	0.188	-0.100
-317.012	144.401	-0.091	-0.121
-315.997	-65.179	0.401	0.161
-314.983	142.895	-0.143	-0.190
-313.968	-13.342	0.106	0.069
-312.953	253.180	-0.188	0.319
-311.939	-200.000	-0.008	-0.092
-310.924	-200.000	0.057	0.399
-309.910	-30.149	-0.383	0.217
-308.895	190.159	-0.133	0.199
-307.880	-141.126	0.114	0.012
-306.866	-58.432	-0.232	0.100
-305.851	-33.344	-0.320	0.176
-304.837	-73.175	0.014	-0.005
-303.822	-142.270	0.185	0.018
-302.807	800.000	0.026	-0.080
-301.793	-121.470	-0.384	0.064
-300.778	-10.479	0.147	0.097
-299.764	771.439	-0.093	0.252
-298.749	-200.000	0.027	0.516
-297.735	-36.923	0.057	0.030
-296.720	-200.000	-0.014	-0.159
-295.705	-34.496	0.499	0.272
-294.691	-200.000	0.043	0.212
-293.676	800.000	0.203	0.596
-292.662	251.588	-0.048	-0.082
-291.647	-82.418	-0.277	0.090
-290.632	-55.981	0.172	0.076
-289.618	-116.814	0.079	0.014
-288.603	22.929	-0.231	-0.188
-287.589	-200.000	0.053	-0.254
-286.574	95.022	0.087	0.099
-285.559	10.974	-0.054	-0.041
-284.545	-200.000	-0.031	-0.240
-283.530	154.411	-0.042	-0.057
-282.516	800.000	0.041	-0.131
-281.501	-177.971	0.302	-0.007
-280.486	768.528	0.109	-0.294
-279.472	-8.622	0.238	-0.159
-278.457	39.679	-0.160	0.142
-277.443	-200.000	0.005	-0.060
-276.428	-200.000	0.046	0.220
-275.413	36.337	-0.138	0.121
-274.399	-39.219	0.115	0.060
-273.384	-47.998	0.259	0.124
-272.370	-128.938	-0.138	-0.019
-271.355	226.516	-0.134	-0.216
-270.340	191.367	-0.093	-0.138
-269.326	800.000	-0.014	0.060
-268.311	476.650	0.119	0.266
-267.297	-27.085	-0.251	0.146
-266.282	694.736	-0.083	0.216
-265.267	-77.989	0.091	-0.031
-264.253	1.071	-0.072	-0.051
-263.238	31.562	-0.124	-0.106
-262.224	376.716	0.095	-0.194
-261.209	-123.115	-0.168	0.027
-260.195	184.865	-0.121	-0.178
-259.180	33.219	-0.219	-0.189
-258.165	-0.930	-0.082	0.058
-257.151	800.000	0.032	0.128
-256.136	-59.659	-0.290	0.124
-255.122	-200.000	0.088	0.461
-254.107	19.740	0.137	0.109
-253.092	-117.685	-0.159	-0.028
-252.078	-51.376	-0.063	-0.029
-251.063	800.000	0.066	-0.187
-250.049	800.000	-0.060	0.172
-249.034	-29.351	-0.242	0.138
-248.019	143.472	-0.253	0.334
-247.005	776.782	-0.197	-0.534
-245.990	-131.876	0.074	-0.010
-244.976	-127.847	-0.175	-0.025
-243.961	69.477	0.150	-0.153
-242.946	490.518	-0.070	0.158
-241.932	142.461	-0.092	-0.121
-240.917	105.193	-0.111	0.130
-239.903	-73.748	0.278	-0.100
-238.888	-65.520	-0.157	0.063
-237.873	800.000	0.079	0.269
-236.859	475.440	-0.081	0.181
-235.844	-64.825	0.093	0.037
-234.830	-200.000	-0.013	0.124
-233.815	655.300	0.085	-0.216
-232.800	-200.000	-0.055	-0.317
-231.786	-67.333	-0.111	0.043
-230.771	-76.858	0.374	-0.130
-229.757	132.432	0.264	-0.338
-228.742	-34.969	0.369	-0.200
-227.727	-103.167	0.330	0.077
-226.713	221.124	-0.160	-0.255
-225.698	-108.954	-0.215	-0.045
-224.684	800.000	0.021	0.090
-223.669	251.162	-0.185	0.312
-222.655	-102.160	0.075	0.018
-221.640	3.554	-0.125	-0.090
-220.625	68.807	0.237	-0.242
-219.611	157.668	0.079	-0.108
-218.596	-98.147	-0.100	-0.026
-217.582	120.645	-0.027	0.034
-216.567	-200.000	0.031	-0.339
-215.552	466.398	-0.095	-0.212
-214.538	-150.834	0.150	0.011
-213.523	74.733	-0.070	0.073
-212.509	-16.788	0.183	0.115
-211.494	-110.648	0.294	-0.060
-210.479	227.732	0.082	-0.132
-209.465	-6.883	0.241	0.162
-208.450	184.853	-0.188	-0.276
-207.436	-61.539	0.176	0.073
-206.421	-91.442	0.539	0.153
-205.406	12.701	-0.158	-0.121
-204.392	-200.000	-0.034	-0.153
-203.377	-129.246	0.271	-0.037
-202.363	93.703	-0.074	-0.083
-201.348	110.205	0.149	-0.178
-200.333	721.361	0.050	-0.131
-199.319	-2.412	-0.086	0.060
-198.304	110.339	-0.189	0.225
-197.290	-200.000	-0.012	-0.080
-196.275	311.522	0.141	-0.262
-195.260	-54.533	0.340	-0.153
-194.246	256.754	0.210	-0.358
-193.231	299.511	-0.076	-0.139
-192.217	-13.191	-0.187	0.121
-191.202	126.280	-0.241	0.302
-190.187	-186.067	0.023	-0.000
-189.173	-200.000	-0.012	0.192
-188.158	483.662	-0.057	-0.129
-187.144	-200.000	-0.023	-0.199
-186.129	-166.211	0.291	-0.012
-185.114	-200.000	0.016	-0.080
-184.100	489.895	-0.087	0.197
-183.085	-30.189	-0.034	0.019
-182.071	11.973	-0.212	-0.161
-181.056	-104.288	-0.108	-0.025
-180.042	-52.812	-0.354	-0.162
-179.027	800.000	0.033	0.103
-178.012	-142.476	0.170	-0.017
-176.998	-0.365	-0.146	0.102
-175.983	-127.191	-0.089	-0.013
-174.969	472.010	0.078	0.174
-173.954	800.000	0.039	0.153
-172.939	-24.846	0.203	0.119
-171.925	26.513	0.129	-0.107
-170.910	86.326	-0.123	-0.134
-169.896	-48.001	0.371	0.178
-168.881	800.000	0.106	-0.421
-167.866	-80.161	0.256	-0.085
-166.852	26.632	0.427	-0.354
-165.837	-200.000	0.064	-0.295
-164.823	172.767	-0.123	0.176
-163.808	800.000	0.026	0.086
-162.793	91.014	0.087	-0.096
-161.779	-74.325	0.221	0.079
-160.764	800.000	-0.123	0.490
-159.750	200.705	0.124	-0.188
-158.735	-112.013	0.176	0.035
-157.720	-65.991	-0.273	0.108
-156.706	44.359	-0.279	-0.253
-155.691	107.041	-0.165	0.194
-154.677	210.857	0.109	-0.170
-153.662	-160.176	0.089	-0.005
-152.647	-200.000	-0.015	0.077
-151.633	-100.718	0.230	-0.056
-150.618	101.074	0.146	0.168
-149.604	-104.335	-0.540	-0.124
-148.589	156.043	-0.100	0.136
-147.574	438.289	0.088	-0.190
-146.560	-95.213	-0.109	0.029
-145.545	-54.666	0.311	-0.139
-144.531	-200.000	0.021	0.352
-143.516	-200.000	-0.066	-0.287
-142.502	131.849	-0.194	0.247
-141.487	172.885	-0.098	-0.140
-140.472	42.930	0.229	-0.206
-139.458	-78.887	-0.333	-0.112
-138.443	-93.210	-0.138	-0.038
-137.429	800.000	0.076	-0.236
-136.414	800.000	0.077	-0.298
-135.399	138.091	0.143	-0.186
-134.385	59.549	-0.050	0.048
-133.370	324.322	0.042	-0.078
-132.356	-56.085	-0.168	0.074
-131.341	-88.614	-0.200	0.059
-130.326	800.000	0.058	0.191
-129.312	-200.000	0.049	-0.236
-128.297	162.224	0.083	-0.115
-127.283	-122.152	-0.193	-0.031
-126.268	800.000	-0.060	0.193
-125.253	-73.237	0.336	0.122
-124.239	151.315	0.089	0.119
-123.224	-75.514	-0.180	-0.063
-122.210	-200.000	0.061	0.337
-121.195	28.143	-0.086	-0.072
-120.180	-95.229	-0.031	0.008
-119.166	140.971	0.184	0.241
-118.151	50.957	0.314	-0.294
-117.137	105.250	0.243	-0.284
-116.122	95.147	-0.023	-0.026
-115.107	-21.822	-0.283	-0.170
-114.093	-117.175	0.326	-0.059
-113.078	-200.000	0.008	0.155
-112.064	36.952	-0.224	0.196
-111.049	-13.596	0.108	-0.069
-110.034	9.094	0.121	0.090
-109.020	-19.182	-0.168	0.103
-108.005	734.380	0.121	0.320
-106.991	32.980	0.149	-0.127
-105.976	-41.572	-0.287	-0.145
-104.962	-46.810	-0.267	-0.129
-103.947	-101.340	-0.185	0.045
-102.932	-200.000	-0.003	0.320
-101.918	-3.180	-0.418	-0.288
-100.903	-2.909	0.088	0.060
-99.889	656.718	-0.100	0.254
-98.874	62.837	-0.060	-0.060
-97.859	34.175	-0.341	-0.293
-96.845	140.091	-0.129	0.168
-95.830	-200.000	-0.004	0.159
-94.816	52.905	0.257	-0.243
-93.801	66.838	0.286	-0.288
-92.786	-200.000	0.052	0.287
-91.772	-163.871	-0.159	-0.007
-90.757	800.000	0.041	0.144
-89.743	-200.000	-0.014	-0.329
-88.728	2.294	0.300	0.214
-87.713	-194.512	-0.201	0.002
-86.699	250.072	0.082	-0.138
-85.684	-124.246	-0.312	0.048
-84.670	800.000	-0.068	0.227
-83.655	26.383	-0.035	-0.029
-82.640	-92.698	-0.047	-0.013
-81.626	800.000	0.045	-0.191
-80.611	44.359	-0.103	0.093
-79.597	-200.000	-0.020	0.170
-78.582	-22.027	-0.124	-0.075
-77.567	-21.320	0.053	0.032
-76.553	800.000	-0.070	-0.202
-75.538	433.341	0.137	0.293
-74.524	9.589	-0.060	0.045
-73.509	800.000	-0.032	0.124
-72.494	-200.000	0.014	0.127
-71.480	-8.370	-0.149	0.099
-70.465	4.258	0.210	-0.152
-69.451	-23.186	0.222	0.132
-68.436	-87.345	-0.157	-0.047
-67.422	250.876	0.287	0.481
-66.407	304.049	0.120	0.219
-65.392	-126.976	0.301	-0.044
-64.378	-107.653	0.405	-0.087
-63.363	41.171	0.103	-0.092
-62.349	138.817	-0.136	-0.177
-61.334	20.153	-0.907	-0.722
-60.319	359.401	0.097	0.191
-59.305	582.683	-0.322	-0.779
-58.290	329.193	0.510	0.967
-57.276	699.900	0.574	1.489
-56.261	-200.000	97.847	588.758
-55.246	562.514	1384.906	3302.619
-54.232	154.093	2584.426	3493.501
-53.217	115.954	2157.667	2602.696
-52.203	46.455	1614.122	1475.440
-51.188	38.151	1351.527	1185.237
-50.173	34.833	1308.832	1128.210
-49.159	58.202	1359.059	1312.432
-48.144	62.213	1377.406	1354.136
-47.130	38.483	1330.653	1168.730
-46.115	34.811	1313.067	1131.548
-45.100	34.554	1308.464	1126.023
-44.086	34.500	1306.214	1123.721
-43.071	34.463	1303.736	1121.329
-42.057	34.462	1301.720	1119.546
-41.042	34.547	1299.430	1118.031
-40.027	34.516	1298.539	1117.039
-39.013	34.524	1296.539	1115.319
-37.998	34.593	1294.117	1113.595
-36.984	34.581	1293.157	1112.654
-35.969	34.606	1291.419	1111.261
-34.954	34.589	1289.633	1109.578
-33.940	34.734	1287.938	1108.920
-32.925	34.618	1287.061	1107.444
-31.911	34.729	1285.762	1106.930
-30.896	34.736	1284.226	1105.602
-29.881	34.753	1282.691	1104.338
-28.867	34.808	1281.221	1103.346
-27.852	34.814	1279.948	1102.240
-26.838	34.726	1278.887	1100.773
-25.823	34.706	1277.026	1099.013
-24.809	34.642	1275.917	1097.647
-23.794	34.714	1274.474	1096.774
-22.779	34.700	1273.071	1095.444
-21.765	34.684	1271.972	1094.364
-20.750	34.674	1270.580	1093.064
-19.736	34.529	1269.961	1091.660
-18.721	34.590	1267.965	1090.249
-17.706	34.643	1267.131	1089.790
-16.692	34.537	1265.857	1088.050
-15.677	34.630	1264.727	1087.565
-14.663	34.548	1264.061	1086.478
-13.648	34.549	1263.045	1085.570
-12.633	34.636	1261.240	1084.469
-11.619	34.451	1261.268	1083.400
-10.604	34.632	1259.919	1083.223
-9.590	34.613	1259.157	1082.421
-8.575	34.550	1258.218	1081.213
-7.560	34.643	1256.912	1080.573
-6.546	34.485	1256.120	1078.954
-5.531	34.528	1255.355	1078.498
-4.517	34.437	1254.719	1077.394
-3.502	34.627	1253.881	1077.705
-2.487	34.511	1252.844	1076.119
-1.473	34.563	1248.729	1072.831
-0.458	33.107	1233.822	1051.886
0.556	29.804	1215.897	1013.882
1.571	26.139	1220.891	997.742
2.586	25.239	1236.132	1005.070
3.600	24.467	1225.198	991.806
4.615	17.733	1151.953	897.123
5.629	6.991	1072.809	782.519
6.644	2.164	1051.313	743.323
7.659	1.706	1048.629	739.136
8.673	1.712	1047.569	738.350
9.688	1.639	1046.238	736.996
10.702	2.115	1045.115	738.442
11.717	9.020	1054.542	778.639
12.731	19.185	1069.777	839.623
13.746	24.067	1074.813	867.346
14.761	24.754	1075.674	871.315
15.775	24.854	1075.307	871.427
16.790	24.596	1074.484	869.429
17.804	24.491	1074.194	868.605
18.819	24.694	1073.359	868.838
19.834	24.828	1072.984	869.110
20.848	24.711	1073.140	868.589
21.863	24.701	1072.357	867.830
22.877	24.805	1071.309	867.414
23.892	24.702	1070.762	866.393
24.907	24.833	1069.867	866.224
25.921	24.756	1068.758	864.877
26.936	24.648	1067.640	863.377
27.950	24.662	1065.999	862.038
28.965	24.629	1063.970	860.164
29.980	24.683	1062.612	859.250
30.994	24.853	1062.030	859.518
32.009	24.750	1061.148	858.238
33.023	24.573	1059.600	856.060
34.038	24.595	1059.103	855.687
35.053	24.775	1058.109	855.672
36.067	24.735	1057.890	855.228
37.082	24.842	1056.934	854.886
38.096	24.921	1056.305	854.684
39.111	25.093	1055.208	854.539
40.126	24.853	1053.823	852.199
41.140	24.473	1052.767	849.462
42.155	24.381	1050.979	847.506
43.169	24.386	1049.795	846.498
44.184	24.612	1048.505	846.455
45.199	24.329	1048.247	844.833
46.213	24.455	1046.989	844.340
47.228	24.630	1046.642	844.814
48.242	24.635	1046.014	844.257
49.257	24.761	1044.667	843.686
50.271	24.864	1044.030	843.586
51.286	24.936	1043.677	843.562
52.301	24.930	1042.652	842.630
53.315	24.807	1041.651	841.171
54.330	24.677	1041.157	840.084
55.344	24.659	1040.135	839.101
56.359	24.771	1039.075	838.700
57.374	24.537	1037.677	836.401
58.388	24.557	1037.447	836.232
59.403	24.396	1036.647	834.761
60.417	24.319	1035.585	833.474
61.432	24.559	1034.919	833.984
62.447	24.487	1034.652	833.359
63.461	24.497	1033.898	832.726
64.476	24.436	1032.962	831.611
65.490	24.441	1031.707	830.554
66.505	24.511	1030.950	830.193
67.520	24.550	1030.639	830.052
68.534	24.217	1029.682	827.664
69.549	23.985	1028.363	825.450
70.563	24.063	1027.481	825.033
71.578	24.010	1027.015	824.338
72.593	23.964	1025.315	822.690
73.607	24.113	1025.094	823.129
74.622	24.241	1024.990	823.565
75.636	24.530	1023.565	823.677
76.651	24.279	1023.090	822.067
77.666	24.016	1022.529	820.329
78.680	24.168	1021.855	820.417
79.695	24.262	1021.179	820.235
80.709	24.305	1020.956	820.183
81.724	24.151	1020.017	818.645
82.739	24.476	1018.925	819.190
83.753	24.683	1018.849	820.006
84.768	25.097	1017.442	820.696
85.782	25.053	1016.838	819.938
86.797	25.052	1015.666	818.913
87.812	24.977	1014.601	817.641
88.826	24.974	1014.035	817.098
89.841	25.032	1013.222	816.636
90.855	25.035	1012.339	815.863
91.870	25.017	1011.734	815.224
92.884	24.912	1010.697	813.837
93.899	24.929	1009.226	812.660
94.914	25.085	1008.764	812.920
95.928	25.022	1007.281	811.368
96.943	24.656	1006.174	808.752
97.957	24.428	1005.242	806.901
98.972	24.364	1003.754	805.344
99.987	24.581	1003.522	806.068
101.001	24.754	1003.096	806.431
102.016	24.728	1001.961	805.330
103.030	24.645	1000.671	803.853
104.045	24.590	1000.110	803.079
105.060	24.444	998.871	801.359
106.074	24.630	998.181	801.571
107.089	24.777	998.249	802.214
108.103	24.603	996.982	800.343
109.118	24.382	995.811	798.345
110.133	24.591	994.538	798.188
111.147	24.307	993.110	795.705
112.162	24.088	992.614	794.258
113.176	24.408	992.069	795.180
114.191	24.400	990.803	794.058
115.206	24.054	989.876	791.708
116.220	24.073	989.300	791.262
117.235	24.229	988.456	791.208
118.249	24.256	987.713	790.662
119.264	24.160	986.699	789.356
120.279	24.096	986.500	788.843
121.293	24.205	985.236	788.243
122.308	24.189	984.655	787.641
123.322	24.074	983.539	786.171
124.337	23.980	982.285	784.685
125.352	23.417	980.994	781.103
126.366	23.462	979.690	780.193
127.381	24.123	980.023	783.296
128.395	24.604	979.467	784.897
129.410	24.802	978.263	784.730
130.424	24.791	977.503	784.002
131.439	24.741	976.632	783.017
132.454	24.764	976.101	782.622
133.468	24.540	975.252	780.893
134.483	24.782	974.196	781.035
135.497	24.960	973.679	781.329
136.512	24.993	972.702	780.620
137.527	24.989	971.708	779.736
138.541	24.918	971.251	778.990
139.556	25.075	970.417	778.934
140.570	25.162	969.666	778.641
141.585	25.053	968.385	777.073
142.600	24.857	967.630	775.548
143.614	25.135	967.342	776.450
144.629	25.259	966.184	775.991
145.643	25.086	964.633	773.928
146.658	24.923	963.102	771.931
147.673	24.798	962.315	770.690
148.687	24.718	961.320	769.484
149.702	24.727	960.334	768.663
150.716	24.583	959.647	767.426
151.731	24.833	959.260	768.125
152.746	25.153	958.451	768.779
153.760	25.115	957.669	767.924
154.775	25.159	957.022	767.522
155.789	25.097	956.665	766.905
156.804	25.085	955.477	765.835
157.819	25.248	954.522	765.694
158.833	25.282	954.052	765.396
159.848	25.306	953.031	764.609
160.862	25.138	951.507	762.606
161.877	25.157	950.609	761.900
162.892	25.243	949.666	761.439
163.906	25.091	948.668	759.931
164.921	24.968	948.093	758.879
165.935	25.165	947.186	758.922
166.950	25.062	946.559	757.918
167.964	25.009	945.450	756.736
168.979	24.903	944.293	755.295
169.994	24.832	943.554	754.341
171.008	25.077	943.154	754.985
172.023	25.261	941.779	754.593
173.037	24.956	940.586	752.290
174.052	24.849	939.564	750.955
175.067	24.734	939.603	750.436
176.081	24.903	938.994	750.591
177.096	24.807	938.135	749.437
178.110	24.702	937.072	748.084
179.125	24.409	936.370	746.233
180.140	24.539	936.165	746.547
181.154	24.719	935.808	746.948
182.169	24.976	935.823	747.966
183.183	25.126	935.105	747.951
184.198	25.081	933.933	746.759
185.213	24.964	933.894	746.176
186.227	25.026	933.109	745.740
187.242	25.136	932.030	745.268
188.256	25.165	931.787	745.131
189.271	25.168	931.177	744.590
190.286	24.937	929.197	741.984
191.300	24.271	928.055	738.249
192.315	23.531	926.425	733.824
193.329	23.457	926.626	733.614
194.344	24.375	926.773	737.462
195.359	25.069	926.521	740.064
196.373	25.157	926.160	740.071
197.388	24.861	925.351	738.138
198.402	24.827	925.336	737.921
199.417	24.968	924.364	737.662
200.432	24.691	923.472	735.745
201.446	24.611	922.453	734.539
202.461	24.621	921.890	734.069
203.475	23.932	920.108	729.760
204.490	23.103	918.503	725.023
205.504	23.927	919.311	728.977
206.519	24.581	918.916	731.276
207.534	24.678	918.540	731.308
208.548	25.000	918.563	732.581
209.563	24.970	917.205	731.308
210.577	24.885	916.738	730.527
211.592	25.283	916.143	731.609
212.607	25.096	915.490	730.264
213.621	25.260	914.840	730.347
214.636	25.166	914.050	729.271
215.650	25.308	913.008	728.951
216.665	25.428	912.317	728.820
217.680	25.207	912.013	727.618
218.694	24.723	910.801	724.625
219.709	24.539	910.086	723.246
220.723	24.821	910.132	724.360
221.738	24.947	909.479	724.285
222.753	25.037	908.698	723.965
223.767	25.094	908.339	723.843
224.782	25.252	908.244	724.341
225.796	25.371	907.115	723.858
226.811	24.688	905.411	719.686
227.826	24.029	904.591	716.320
228.840	24.044	904.406	716.170
229.855	24.291	903.403	716.305
230.869	23.904	902.419	713.907
231.884	24.322	902.352	715.467
232.899	25.113	902.461	718.662
233.913	24.999	901.640	717.489
234.928	24.875	901.291	716.653
235.942	24.960	900.578	716.363
236.957	24.618	899.380	713.980
237.972	24.736	899.040	714.116
238.986	24.680	898.611	713.491
240.001	24.652	898.239	713.021
241.015	24.880	897.255	713.086
242.030	24.973	897.001	713.192
243.045	25.083	896.600	713.244
244.059	25.151	896.149	713.093
245.074	24.999	895.377	711.811
246.088	24.550	894.253	709.074
247.103	24.992	893.702	710.325
248.117	25.432	894.064	712.296
249.132	25.706	893.573	712.930
250.147	25.728	893.327	712.757
251.161	25.966	892.617	713.068
252.176	25.864	891.994	712.103
253.190	26.045	891.282	712.188
254.205	26.180	890.936	712.379
255.220	26.028	890.465	711.341
256.234	25.991	889.649	710.481
257.249	25.772	888.693	708.791
258.263	25.979	888.161	709.121
259.278	26.007	887.797	708.877
260.293	25.969	886.907	707.955
261.307	25.786	886.422	706.786
262.322	25.560	885.525	705.123
263.336	24.855	883.719	700.864
264.351	23.733	882.053	695.089
265.366	23.978	881.707	695.716
266.380	25.094	882.263	700.456
267.395	25.406	882.493	701.796
268.409	25.443	881.506	701.093
269.424	25.615	880.966	701.270
270.439	25.772	880.121	701.148
271.453	25.707	879.716	700.512
272.468	25.912	879.562	701.122
273.482	26.116	878.498	701.007
274.497	25.605	877.696	698.320
275.512	25.121	876.884	695.736
276.526	25.679	876.743	697.725
277.541	25.825	876.235	697.826
278.555	25.584	875.439	696.196
279.570	25.478	874.453	694.941
280.585	25.627	874.359	695.380
281.599	25.566	873.406	694.327
282.614	24.954	872.089	690.857
283.628	25.042	871.712	690.838
284.643	25.425	871.354	691.967
285.657	24.905	870.545	689.262
286.672	24.672	869.625	687.579
287.687	25.205	869.784	689.692
288.701	25.398	869.115	689.842
289.716	24.879	868.369	687.198
290.730	24.884	867.744	686.659
291.745	24.718	866.622	685.076
292.760	25.100	866.449	686.340
293.774	25.863	867.151	689.757
294.789	26.335	866.584	691.052
295.803	26.306	865.937	690.364
296.818	26.404	865.253	690.131
297.833	25.784	864.453	687.067
298.847	25.733	863.605	686.139
299.862	26.170	863.486	687.647
300.876	26.377	863.212	688.156
301.891	26.294	862.249	687.014
302.906	25.753	861.331	684.165
303.920	25.939	861.215	684.718
304.935	26.310	860.840	685.767
305.949	26.206	860.083	684.713
306.964	25.900	859.253	682.829
307.979	25.940	859.206	682.883
308.993	26.383	858.676	684.080
310.008	26.514	857.860	683.863
311.022	26.148	857.221	681.912
312.037	26.083	856.587	681.101
313.052	25.718	855.785	679.028
314.066	24.960	854.302	674.936
315.081	24.478	853.389	672.338
316.095	25.406	853.762	676.067
317.110	25.831	853.438	677.349
318.125	25.143	851.818	673.421
319.139	24.028	850.700	668.294
320.154	23.988	850.506	667.932
321.168	24.933	850.288	671.245
322.183	25.672	851.014	674.533
323.197	25.797	850.372	674.429
324.212	25.948	850.469	675.011
325.227	26.055	849.424	674.522
326.241	25.830	848.718	673.064
327.256	25.690	848.512	672.316
328.270	25.657	847.435	671.282
329.285	25.430	846.671	669.770
330.300	25.274	845.534	668.232
331.314	25.826	845.061	669.853
332.329	26.050	845.357	670.861
333.343	26.157	844.956	670.880
334.358	26.202	844.331	670.491
335.373	26.249	844.355	670.627
336.387	26.530	844.091	671.399
337.402	26.632	844.023	671.665
338.416	26.497	843.485	670.677
339.431	26.474	843.626	670.642
340.446	26.828	842.958	671.363
341.460	26.735	842.182	670.344
342.475	26.356	841.898	668.657
343.489	26.419	841.816	668.763
344.504	26.904	841.252	670.047
345.519	26.889	840.953	669.696
346.533	27.004	840.528	669.723
347.548	26.977	839.838	669.013
348.562	27.014	839.328	668.684
349.577	26.886	838.846	667.769
350.592	26.865	837.894	666.875
351.606	26.745	837.184	665.810
352.621	26.685	836.487	664.979
353.635	26.706	835.890	664.520
354.650	25.983	834.489	660.703
355.665	25.068	832.600	655.801
356.679	25.419	832.597	657.024
357.694	25.817	832.147	658.064
358.708	25.815	831.662	657.618
359.723	26.376	831.403	659.400
360.738	26.471	831.464	659.735
361.752	26.597	830.896	659.687
362.767	27.102	830.559	661.200
363.781	27.206	830.378	661.375
364.796	27.286	829.825	661.168
365.810	27.295	829.648	661.000
366.825	27.169	829.260	660.175
367.840	26.956	827.970	658.316
368.854	26.589	827.426	656.495
369.869	26.605	826.825	656.018
370.883	26.491	826.859	655.575
371.898	26.627	825.836	655.197
372.913	26.530	825.706	654.687
373.927	26.735	825.234	654.993
374.942	26.914	825.036	655.424
375.956	27.035	824.422	655.317
376.971	27.178	824.273	655.656
377.986	27.455	823.559	656.030
379.000	27.282	823.000	654.903
380.015	27.095	822.360	653.663
381.029	27.095	821.747	653.117
382.044	27.320	821.733	653.857
383.059	27.405	820.748	653.320
384.073	27.325	820.561	652.825
385.088	27.272	819.562	651.785
386.102	27.087	818.753	650.421
387.117	27.117	817.962	649.844
388.132	26.532	817.299	647.169
389.146	26.136	816.185	644.813
390.161	26.588	816.176	646.364
391.175	26.951	816.097	647.537
392.190	26.623	814.993	645.436
393.205	25.269	813.004	638.986
394.219	23.897	810.965	632.453
395.234	23.736	811.422	632.181
396.248	25.494	812.452	639.183
397.263	26.767	813.549	644.518
398.278	26.867	812.683	644.131
399.292	26.535	812.241	642.548
400.307	26.515	811.790	642.060
401.321	26.760	811.454	642.608
402.336	26.947	811.505	643.254
403.350	27.406	811.258	644.627
404.365	27.690	811.125	645.472
405.380	28.038	810.177	645.888
406.394	27.967	810.555	645.882
407.409	27.839	809.931	644.874
408.423	27.813	809.144	644.100
409.438	27.949	808.776	644.228
410.453	27.960	808.783	644.215
411.467	27.857	807.984	643.160
412.482	28.027	807.283	643.144
413.496	28.056	807.280	643.188
414.511	27.878	807.438	642.630
415.526	27.938	806.567	642.089
416.540	27.854	805.499	640.887
417.555	27.520	805.060	639.311
418.569	27.582	804.942	639.378
419.584	27.549	804.170	638.593
420.599	27.490	803.276	637.618
421.613	108.738	1281.864	1445.462
422.628	93.828	1351.593	1445.587
