DTS Sentinel unit serial number:	SN413079Multiplexer serial number:	ORYXHardware model number:	OX4-SRSoftware version number:	ORYX F/W v4.00 Oryx Data Collector v3.7.2.0data status	okinstallation	princeton_trtdifferential loss correction	single-endedforward channel	channel 1reverse channel	N/Adate	2019/09/11time	16:32:11forward acquisition time	60.00reverse acquisition time	0.00gamma	496.2192k internal	0.2290k external	0.2290temperature offset calibration	0.9993default loss term (dB/km)	0.3790temperature slope calibration	1.0000multiplexer offset coefficient	1.0000multiplexer slope coefficient	1.0000fibre end	0.00T internal ref (°C)	43.69T ext. ref 1 (°C)	1.09T ext. ref 2 (°C)	39.45length (m)	temperature (°C)	Stokes	anti-Stokes-747.200	702.663	-0.059	-0.159
-746.185	-63.349	0.103	0.043
-745.171	-200.000	0.025	0.256
-744.156	678.635	0.061	0.164
-743.142	-97.066	-0.138	-0.037
-742.127	-108.339	-0.159	-0.035
-741.112	-51.359	-0.228	-0.109
-740.098	385.535	0.112	0.237
-739.083	-105.357	0.225	-0.053
-738.069	90.819	0.156	0.179
-737.054	113.165	-0.087	0.108
-736.039	-52.672	0.042	-0.020
-735.025	-42.862	-0.260	-0.135
-734.010	800.000	0.077	-0.228
-732.996	-194.192	0.198	-0.002
-731.981	-139.874	-0.315	-0.034
-730.966	-200.000	-0.020	-0.184
-729.952	-82.698	-0.051	-0.017
-728.937	-82.946	0.246	-0.081
-727.923	-30.930	-0.411	-0.238
-726.908	-17.351	-0.055	-0.035
-725.894	476.899	0.055	0.128
-724.879	-200.000	0.085	0.419
-723.864	-101.744	0.120	0.030
-722.850	56.681	-0.333	-0.332
-721.835	227.893	-0.170	-0.283
-720.821	-80.902	-0.156	0.053
-719.806	-42.528	-0.120	-0.062
-718.791	183.099	0.048	-0.072
-717.777	729.957	0.079	-0.216
-716.762	151.267	-0.145	-0.203
-715.748	160.627	0.155	-0.222
-714.733	25.836	-0.149	-0.127
-713.718	-27.293	0.147	-0.087
-712.704	639.852	0.090	0.234
-711.689	109.835	0.097	0.119
-710.675	-24.525	0.104	0.063
-709.660	121.416	-0.313	-0.399
-708.645	-200.000	0.027	0.140
-707.631	-52.422	0.155	-0.073
-706.616	80.021	0.247	0.272
-705.602	-43.718	0.113	-0.058
-704.587	17.805	0.263	-0.215
-703.572	-135.918	0.160	0.019
-702.558	800.000	-0.029	-0.121
-701.543	-200.000	-0.039	0.377
-700.529	-130.514	0.139	0.019
-699.514	-112.332	-0.041	-0.008
-698.499	-200.000	0.017	0.399
-697.485	285.148	-0.071	0.130
-696.470	-16.207	-0.212	-0.138
-695.456	155.167	0.102	0.143
-694.441	800.000	0.092	0.390
-693.426	517.595	0.066	0.158
-692.412	-69.611	0.162	-0.063
-691.397	-128.646	0.279	0.040
-690.383	-142.810	-0.288	0.029
-689.368	94.629	-0.120	0.139
-688.354	307.703	0.188	0.358
-687.339	-111.947	0.107	-0.022
-686.324	-76.102	-0.234	-0.085
-685.310	800.000	0.043	0.187
-684.295	-200.000	0.003	0.131
-683.281	69.362	-0.140	0.147
-682.266	247.773	0.021	0.037
-681.251	665.744	0.134	-0.354
-680.237	20.555	0.252	0.208
-679.222	-200.000	0.004	0.101
-678.208	121.676	-0.074	-0.094
-677.193	-200.000	0.040	-0.322
-676.178	332.895	0.191	-0.377
-675.164	127.951	-0.149	-0.194
-674.149	800.000	-0.098	0.396
-673.135	-200.000	-0.004	-0.082
-672.120	162.673	0.198	0.284
-671.105	-200.000	-0.008	-0.153
-670.091	-200.000	-0.011	0.062
-669.076	53.644	-0.161	0.158
-668.062	-174.999	0.119	0.003
-667.047	-138.825	-0.159	-0.018
-666.032	47.161	0.164	-0.156
-665.018	323.023	0.137	-0.266
-664.003	171.360	0.133	-0.194
-662.989	800.000	0.074	0.223
-661.974	346.850	0.024	0.048
-660.959	281.659	-0.084	0.154
-659.945	-57.924	-0.158	-0.071
-658.930	75.036	-0.071	-0.077
-657.916	213.771	-0.072	0.116
-656.901	-50.630	-0.096	0.046
-655.886	-112.314	-0.206	-0.042
-654.872	369.529	-0.006	-0.012
-653.857	-200.000	-0.035	0.181
-652.843	-200.000	-0.021	-0.112
-651.828	-200.000	-0.097	0.445
-650.814	3.443	-0.248	0.184
-649.799	65.312	0.236	-0.244
-648.784	-97.024	-0.345	-0.092
-647.770	128.056	-0.302	0.392
-646.755	40.427	0.182	0.167
-645.741	-48.360	0.220	-0.108
-644.726	-200.000	-0.017	-0.120
-643.711	-181.073	-0.088	-0.002
-642.697	-5.321	0.321	-0.225
-641.682	96.375	-0.150	-0.175
-640.668	109.692	-0.105	-0.129
-639.653	-152.457	0.345	-0.025
-638.638	-93.170	0.122	-0.035
-637.624	-200.000	-0.001	-0.132
-636.609	428.355	0.187	0.412
-635.595	-121.323	0.072	-0.012
-634.580	93.321	-0.147	0.170
-633.565	408.533	-0.106	0.229
-632.551	-139.663	0.233	-0.025
-631.536	-81.245	0.143	-0.048
-630.522	-107.591	-0.256	-0.057
-629.507	800.000	0.040	0.148
-628.492	-77.774	-0.142	-0.050
-627.478	370.529	-0.045	-0.093
-626.463	-47.201	-0.231	-0.115
-625.449	-52.293	-0.126	0.059
-624.434	368.798	-0.077	-0.159
-623.419	189.244	0.107	0.163
-622.405	-200.000	-0.032	0.187
-621.390	-152.276	0.125	-0.009
-620.376	-114.462	-0.364	0.071
-619.361	-184.323	-0.241	-0.004
-618.346	21.611	0.126	-0.105
-617.332	800.000	0.049	0.198
-616.317	-129.588	0.054	-0.008
-615.303	98.325	-0.208	-0.245
-614.288	-200.000	-0.002	-0.169
-613.273	-200.000	-0.038	0.261
-612.259	-44.431	0.222	0.113
-611.244	56.299	0.103	0.102
-610.230	-200.000	0.010	-0.114
-609.215	32.657	0.112	0.099
-608.201	334.245	-0.057	-0.112
-607.186	142.266	0.262	0.354
-606.171	350.119	-0.059	-0.119
-605.157	265.637	-0.081	-0.144
-604.142	-7.979	-0.240	0.165
-603.128	66.119	0.129	-0.133
-602.113	134.207	0.297	-0.392
-601.098	-16.691	-0.148	-0.095
-600.084	-200.000	-0.012	-0.147
-599.069	-200.000	0.017	-0.145
-598.055	13.118	0.237	0.187
-597.040	44.308	0.186	-0.174
-596.025	37.986	-0.262	-0.238
-595.011	-56.376	0.244	-0.110
-593.996	32.346	0.096	-0.084
-592.982	98.297	0.201	0.235
-591.967	436.346	-0.154	0.342
-590.952	177.460	-0.220	-0.326
-589.938	127.329	-0.028	0.037
-588.923	29.593	-0.180	0.156
-587.909	-200.000	0.002	-0.380
-586.894	90.901	-0.468	-0.535
-585.879	-200.000	-0.004	-0.109
-584.865	800.000	-0.085	-0.256
-583.850	85.180	0.198	-0.222
-582.836	73.945	0.175	0.187
-581.821	-200.000	0.009	0.108
-580.806	-35.368	-0.136	-0.075
-579.792	43.414	0.298	-0.277
-578.777	92.527	0.127	-0.146
-577.763	6.720	0.251	-0.190
-576.748	800.000	-0.044	0.128
-575.733	-79.784	-0.167	0.057
-574.719	175.366	-0.077	-0.113
-573.704	-200.000	0.010	0.084
-572.690	-100.325	0.486	0.123
-571.675	-200.000	-0.018	0.116
-570.661	-89.826	-0.202	0.060
-569.646	101.260	0.148	0.175
-568.631	-200.000	0.032	0.178
-567.617	-173.934	-0.142	0.004
-566.602	-129.851	0.113	-0.016
-565.588	220.973	0.077	0.126
-564.573	-27.141	0.097	0.057
-563.558	-200.000	0.006	-0.296
-562.544	800.000	0.012	0.037
-561.529	8.004	-0.164	-0.125
-560.515	-8.941	-0.275	-0.188
-559.500	-200.000	-0.007	-0.275
-558.485	800.000	0.082	0.255
-557.471	135.742	-0.229	-0.303
-556.456	800.000	-0.037	-0.160
-555.442	-200.000	0.025	0.124
-554.427	-200.000	-0.043	0.206
-553.412	116.603	0.089	-0.111
-552.398	159.497	-0.113	-0.159
-551.383	-105.951	-0.271	0.062
-550.369	324.931	-0.158	-0.308
-549.354	-113.627	-0.319	-0.063
-548.339	70.041	0.169	0.178
-547.325	-36.433	-0.204	0.112
-546.310	-78.046	-0.192	-0.067
-545.296	348.829	-0.167	-0.336
-544.281	43.254	0.189	-0.176
-543.266	80.521	-0.152	-0.167
-542.252	-24.366	0.157	-0.095
-541.237	196.676	-0.273	0.423
-540.223	-57.971	0.169	0.075
-539.208	-126.941	0.254	0.038
-538.193	-135.425	0.038	-0.005
-537.179	-200.000	0.011	0.152
-536.164	-103.929	0.157	0.037
-535.150	-47.178	-0.324	-0.161
-534.135	50.094	-0.426	-0.409
-533.121	15.195	0.177	-0.141
-532.106	800.000	0.090	-0.310
-531.091	637.105	-0.072	0.185
-530.077	800.000	0.069	0.209
-529.062	800.000	-0.060	-0.173
-528.048	-130.415	0.103	0.014
-527.033	-200.000	0.009	0.411
-526.018	409.613	-0.080	-0.171
-525.004	596.409	0.194	-0.488
-523.989	132.622	0.119	0.156
-522.975	48.035	-0.244	0.231
-521.960	-24.585	-0.228	0.138
-520.945	-114.178	0.500	-0.098
-519.931	-200.000	-0.061	0.299
-518.916	-41.532	-0.329	0.172
-517.902	-85.963	-0.121	-0.038
-516.887	-200.000	-0.034	-0.314
-515.872	130.524	-0.192	0.250
-514.858	110.096	0.211	-0.257
-513.843	109.132	-0.228	-0.277
-512.829	-89.107	-0.350	0.105
-511.814	-51.253	0.069	0.033
-510.799	22.386	0.150	0.125
-509.785	376.284	0.078	-0.162
-508.770	-90.980	-0.191	0.056
-507.756	-46.786	0.178	0.089
-506.741	-109.851	0.160	-0.034
-505.726	241.639	0.121	0.206
-504.712	-200.000	-0.030	-0.268
-503.697	-200.000	-0.017	-0.414
-502.683	-0.727	-0.156	-0.112
-501.668	253.537	-0.115	-0.199
-500.653	164.929	-0.056	-0.080
-499.639	516.427	0.051	-0.122
-498.624	92.646	0.200	0.229
-497.610	142.208	0.073	0.098
-496.595	800.000	0.174	0.515
-495.581	-197.035	0.343	-0.002
-494.566	-200.000	0.003	0.110
-493.551	-102.824	0.232	-0.056
-492.537	800.000	0.051	0.200
-491.522	-200.000	-0.020	0.246
-490.508	-86.556	-0.173	0.054
-489.493	-29.340	0.167	0.097
-488.478	-120.713	0.217	-0.037
-487.464	-129.964	0.149	-0.021
-486.449	197.569	0.226	-0.350
-485.435	-79.739	0.064	-0.022
-484.420	-141.946	-0.113	0.011
-483.405	42.574	0.057	-0.052
-482.391	14.391	-0.230	-0.182
-481.376	206.419	-0.226	-0.358
-480.362	-200.000	0.034	-0.159
-479.347	98.089	-0.172	0.201
-478.332	-200.000	-0.053	-0.238
-477.318	372.201	-0.010	0.022
-476.303	23.640	-0.075	0.062
-475.289	-200.000	0.005	-0.141
-474.274	-200.000	0.022	-0.386
-473.259	5.589	0.111	-0.083
-472.245	-33.633	-0.405	-0.227
-471.230	-114.374	-0.215	-0.042
-470.216	-200.000	0.036	-0.173
-469.201	217.998	-0.057	0.092
-468.186	-1.406	-0.183	-0.131
-467.172	-20.849	-0.242	-0.151
-466.157	800.000	0.030	0.114
-465.143	-200.000	0.028	0.184
-464.128	-93.530	0.157	-0.044
-463.113	32.648	-0.137	0.120
-462.099	-200.000	-0.147	0.000
-461.084	-18.837	0.344	0.217
-460.070	117.749	-0.268	0.334
-459.055	188.901	0.042	-0.063
-458.040	-100.491	-0.232	-0.058
-457.026	-38.304	0.134	0.072
-456.011	94.163	-0.041	0.047
-454.997	39.418	0.131	-0.118
-453.982	-62.596	0.134	0.056
-452.968	-200.000	-0.033	0.195
-451.953	800.000	-0.086	0.325
-450.938	800.000	0.087	-0.372
-449.924	365.858	0.025	-0.052
-448.909	-185.023	-0.244	-0.004
-447.895	-131.985	0.224	-0.030
-446.880	-200.000	-0.040	0.224
-445.865	-39.500	-0.024	-0.013
-444.851	800.000	-0.015	-0.058
-443.836	-99.114	-0.470	0.121
-442.822	102.918	0.142	0.169
-441.807	800.000	0.011	0.040
-440.792	-200.000	-0.054	-0.264
-439.778	-71.112	0.120	0.046
-438.763	25.551	0.076	-0.064
-437.749	-138.054	0.081	-0.009
-436.734	289.486	-0.226	0.416
-435.719	800.000	0.077	-0.309
-434.705	29.711	-0.178	-0.154
-433.690	485.133	0.167	0.385
-432.676	-200.000	-0.024	0.173
-431.661	292.851	0.163	-0.301
-430.646	-106.589	-0.176	0.040
-429.632	-90.509	0.363	-0.106
-428.617	-131.958	0.110	-0.015
-427.603	-122.372	0.242	-0.040
-426.588	54.689	-0.274	0.267
-425.573	-144.780	-0.296	-0.028
-424.559	-154.318	0.229	-0.016
-423.544	-109.924	0.166	-0.035
-422.530	800.000	0.118	0.466
-421.515	-200.000	0.007	-0.100
-420.500	-124.235	0.147	-0.023
-419.486	268.069	-0.050	0.089
-418.471	-200.000	-0.018	-0.104
-417.457	105.757	-0.143	0.171
-416.442	209.141	-0.058	-0.091
-415.428	-68.486	0.207	0.081
-414.413	473.503	-0.031	0.072
-413.398	405.811	0.052	-0.112
-412.384	-200.000	0.004	-0.070
-411.369	-5.526	-0.152	-0.105
-410.355	-132.750	0.140	0.018
-409.340	-71.087	-0.317	-0.121
-408.325	-60.025	0.277	-0.120
-407.311	-200.000	0.041	0.225
-406.296	17.172	-0.304	-0.244
-405.282	-48.396	-0.168	0.082
-404.267	174.720	-0.036	-0.052
-403.252	-103.774	0.164	0.039
-402.238	-75.462	0.189	-0.068
-401.223	616.442	-0.027	0.069
-400.209	800.000	-0.055	-0.182
-399.194	-45.993	-0.292	-0.146
-398.179	-60.280	-0.127	0.054
-397.165	-63.784	-0.262	-0.108
-396.150	386.263	-0.042	-0.087
-395.136	199.385	-0.228	-0.354
-394.121	-99.472	0.179	0.046
-393.106	38.083	-0.191	0.172
-392.092	-135.547	-0.317	0.038
-391.077	-105.500	-0.266	0.061
-390.063	-76.928	-0.221	-0.078
-389.048	-70.145	0.118	0.045
-388.033	-200.000	0.028	0.196
-387.019	-124.712	0.146	-0.023
-386.004	-200.000	0.026	0.222
-384.990	464.367	-0.150	0.340
-383.975	-200.000	0.019	0.134
-382.960	-156.688	0.185	0.012
-381.946	-39.148	-0.164	0.087
-380.931	142.949	0.101	0.136
-379.917	6.468	0.186	-0.139
-378.902	463.819	-0.106	0.240
-377.888	130.137	-0.136	-0.175
-376.873	800.000	0.083	0.313
-375.858	517.616	-0.110	-0.261
-374.844	75.556	-0.133	-0.142
-373.829	-37.076	0.064	0.035
-372.815	136.726	-0.108	0.142
-371.800	618.248	0.104	0.263
-370.785	-200.000	-0.032	-0.188
-369.771	86.354	0.254	-0.282
-368.756	203.356	-0.130	0.203
-367.742	520.195	-0.104	-0.247
-366.727	130.387	-0.109	0.141
-365.712	-200.000	-0.039	-0.409
-364.698	17.123	0.177	0.142
-363.683	435.407	0.142	-0.311
-362.669	-89.934	0.331	0.097
-361.654	259.275	0.047	-0.082
-360.639	-57.829	0.479	0.212
-359.625	-84.199	-0.021	0.007
-358.610	76.514	-0.140	0.150
-357.596	800.000	-0.067	-0.195
-356.581	-153.903	-0.248	-0.017
-355.566	-200.000	-0.005	-0.192
-354.552	11.298	-0.197	0.152
-353.537	122.140	-0.307	0.387
-352.523	568.867	0.065	0.161
-351.508	418.722	0.089	0.192
-350.493	731.882	0.138	0.372
-349.479	125.501	-0.138	0.175
-348.464	-45.733	0.250	-0.125
-347.450	800.000	-0.047	0.171
-346.435	636.727	0.064	-0.163
-345.420	197.430	-0.163	-0.252
-344.406	-200.000	-0.047	-0.227
-343.391	202.202	0.107	-0.166
-342.377	16.377	-0.231	-0.184
-341.362	-200.000	0.066	-0.345
-340.348	213.721	0.035	0.056
-339.333	79.630	-0.147	-0.159
-338.318	204.478	-0.085	-0.134
-337.304	263.392	0.118	0.207
-336.289	155.085	-0.088	-0.123
-335.275	-31.841	-0.146	-0.082
-334.260	24.195	-0.135	0.112
-333.245	613.059	-0.052	-0.132
-332.231	-99.705	0.192	-0.048
-331.216	400.093	0.114	0.242
-330.202	-200.000	-0.025	-0.185
-329.187	64.304	-0.252	0.256
-328.172	59.885	-0.166	0.165
-327.158	-95.517	-0.159	0.043
-326.143	49.659	-0.121	0.115
-325.129	29.124	-0.312	-0.267
-324.114	73.994	0.065	-0.069
-323.099	4.878	-0.336	0.249
-322.085	800.000	0.052	0.194
-321.070	41.828	0.239	0.218
-320.056	-17.603	0.183	0.116
-319.041	-200.000	-0.017	0.180
-318.026	-44.113	-0.122	0.062
-317.012	-87.542	-0.262	-0.080
-315.997	294.327	0.034	0.063
-314.983	800.000	-0.060	0.174
-313.968	-200.000	-0.015	0.400
-312.953	-121.413	0.098	-0.016
-311.939	344.661	-0.077	0.153
-310.924	800.000	-0.047	-0.160
-309.910	-200.000	0.001	0.050
-308.895	-48.493	-0.037	0.018
-307.880	592.457	0.065	-0.163
-306.866	-200.000	-0.045	0.202
-305.851	101.180	0.175	-0.205
-304.837	-200.000	-0.005	0.064
-303.822	-81.861	0.286	-0.094
-302.807	-200.000	-0.043	-0.216
-301.793	-5.435	0.120	0.083
-300.778	-61.310	-0.353	0.150
-299.764	-151.306	0.199	0.015
-298.749	800.000	-0.018	0.072
-297.735	160.773	0.224	-0.315
-296.720	-200.000	0.032	-0.143
-295.705	-168.494	0.234	0.009
-294.691	611.684	-0.147	-0.370
-293.676	-200.000	0.033	-0.278
-292.662	104.964	0.100	-0.119
-291.647	-200.000	0.029	-0.346
-290.632	77.768	-0.165	0.177
-289.618	-116.423	-0.134	0.025
-288.603	-75.136	0.297	-0.107
-287.589	66.795	0.278	0.285
-286.574	-200.000	-0.092	0.448
-285.559	558.888	-0.052	0.126
-284.545	-166.102	-0.187	0.008
-283.530	-30.302	-0.197	0.113
-282.516	800.000	0.091	0.258
-281.501	-64.056	0.125	0.051
-280.486	-88.861	0.266	-0.079
-279.472	-86.157	0.170	0.053
-278.457	800.000	-0.064	-0.222
-277.443	-69.924	-0.181	0.069
-276.428	-34.601	-0.046	0.025
-275.413	120.721	0.062	-0.077
-274.399	-107.309	-0.193	-0.043
-273.384	1.834	0.156	0.113
-272.370	-147.775	0.127	0.011
-271.355	-200.000	0.052	0.270
-270.340	-177.188	-0.155	-0.004
-269.326	800.000	0.085	0.294
-268.311	-200.000	0.025	-0.455
-267.297	-117.931	-0.463	0.083
-266.282	67.299	-0.257	0.264
-265.267	71.421	0.151	0.158
-264.253	92.021	-0.148	0.167
-263.238	-200.000	0.003	-0.222
-262.224	-6.636	0.189	-0.130
-261.209	800.000	-0.071	0.231
-260.195	331.931	0.052	-0.101
-259.180	-100.750	-0.059	-0.015
-258.165	-76.267	0.308	0.109
-257.151	-61.728	0.088	0.037
-256.136	-27.725	0.309	0.180
-255.122	-68.136	-0.153	0.060
-254.107	431.180	0.033	0.072
-253.092	-20.662	0.213	-0.132
-252.078	800.000	-0.069	0.239
-251.063	800.000	0.076	-0.257
-250.049	-200.000	0.006	-0.131
-249.034	-76.353	0.313	0.111
-248.019	425.250	-0.049	0.106
-247.005	49.193	0.036	0.034
-245.990	151.352	-0.118	0.161
-244.976	-79.644	0.288	0.098
-243.961	-200.000	0.023	0.264
-242.946	12.421	0.121	0.093
-241.932	-107.303	0.362	-0.080
-240.917	-200.000	-0.038	0.181
-239.903	94.507	-0.139	-0.159
-238.888	2.313	0.232	-0.169
-237.873	-103.429	0.231	0.055
-236.859	40.960	0.091	0.083
-235.844	-123.643	-0.361	0.057
-234.830	-200.000	0.092	-0.437
-233.815	-87.927	-0.241	-0.073
-232.800	745.696	-0.018	0.047
-231.786	-12.038	-0.045	0.030
-230.771	200.993	0.058	0.089
-229.757	-65.600	0.164	-0.066
-228.742	-200.000	0.030	-0.297
-227.727	-124.981	-0.194	-0.030
-226.713	64.674	0.026	-0.026
-225.698	499.039	-0.089	0.206
-224.684	241.903	-0.356	0.597
-223.669	800.000	0.115	-0.352
-222.655	421.706	-0.143	0.308
-221.640	-10.306	-0.126	0.084
-220.625	265.921	-0.076	0.133
-219.611	190.128	0.194	0.292
-218.596	-93.994	-0.208	-0.057
-217.582	-130.310	0.189	0.026
-216.567	-138.334	0.204	-0.023
-215.552	3.401	-0.130	-0.095
-214.538	-83.162	0.258	-0.083
-213.523	9.398	-0.062	-0.047
-212.509	-200.000	-0.036	-0.307
-211.494	127.086	0.028	0.036
-210.479	-87.619	-0.075	0.023
-209.465	-20.765	-0.089	0.055
-208.450	-150.696	0.089	0.007
-207.436	-99.258	0.076	0.019
-206.421	231.453	0.190	-0.313
-205.406	-96.091	-0.197	0.053
-204.392	-20.398	0.150	0.092
-203.377	700.354	-0.039	0.104
-202.363	49.875	-0.096	0.091
-201.348	-200.000	0.155	0.001
-200.333	-118.198	-0.123	-0.022
-199.319	-110.682	0.156	-0.032
-198.304	-74.983	-0.105	-0.038
-197.290	320.207	0.155	0.296
-196.275	-200.000	-0.038	-0.431
-195.260	-51.765	-0.187	-0.087
-194.246	-200.000	-0.008	0.089
-193.231	131.244	0.149	0.192
-192.217	-34.720	0.139	0.076
-191.202	800.000	0.089	-0.280
-190.187	351.585	-0.184	-0.365
-189.173	-67.646	0.392	-0.154
-188.158	-27.877	0.096	-0.056
-187.144	800.000	0.056	0.174
-186.129	426.587	-0.140	0.303
-185.114	176.430	0.226	-0.329
-184.100	-27.270	0.356	0.208
-183.085	29.056	0.148	0.126
-182.071	210.304	-0.111	0.175
-181.056	-109.311	-0.242	-0.051
-180.042	-65.015	0.121	-0.049
-179.027	725.881	0.172	0.461
-178.012	-127.935	0.089	-0.013
-176.998	498.257	-0.113	-0.261
-175.983	80.545	-0.117	0.127
-174.969	772.164	0.126	0.344
-173.954	35.786	0.357	0.314
-172.939	3.010	-0.250	0.182
-171.925	33.132	0.088	-0.076
-170.910	18.733	0.360	-0.289
-169.896	12.195	-0.101	-0.078
-168.881	-200.000	0.006	0.039
-167.866	65.919	0.081	0.082
-166.852	-200.000	0.016	-0.119
-165.837	-130.533	-0.151	0.020
-164.823	172.701	-0.156	0.225
-163.808	-200.000	-0.024	-0.275
-162.793	-31.965	0.239	0.134
-161.779	60.088	-0.096	-0.095
-160.764	-142.696	0.290	-0.028
-159.750	-4.849	0.258	0.178
-158.735	-128.209	0.205	0.029
-157.720	-90.073	-0.151	0.044
-156.706	-34.769	0.099	0.054
-155.691	-23.660	0.218	0.131
-154.677	800.000	-0.029	-0.090
-153.662	-12.952	-0.142	0.092
-152.647	-116.507	-0.253	-0.047
-151.633	800.000	-0.070	-0.237
-150.618	-15.971	0.138	-0.088
-149.604	-5.644	-0.482	-0.331
-148.589	-25.523	-0.077	0.045
-147.574	-144.406	-0.503	0.047
-146.560	-200.000	-0.039	-0.275
-145.545	800.000	-0.025	0.081
-144.531	-0.289	0.040	-0.028
-143.516	-106.685	-0.379	0.084
-142.502	123.809	0.256	-0.322
-141.487	800.000	0.034	-0.124
-140.472	-101.847	-0.293	0.071
-139.458	325.221	0.072	-0.137
-138.443	171.004	-0.068	0.098
-137.429	-31.253	-0.274	0.154
-136.414	315.131	-0.149	0.281
-135.399	-72.864	-0.061	-0.023
-134.385	-200.000	-0.033	-0.211
-133.370	169.210	0.149	-0.213
-132.356	-200.000	0.281	0.001
-131.341	-109.419	-0.124	-0.026
-130.326	-61.861	-0.011	0.004
-129.312	640.658	-0.069	0.176
-128.297	800.000	0.055	0.152
-127.283	-200.000	-0.016	0.224
-126.268	-119.161	0.399	0.070
-125.253	5.833	-0.266	-0.197
-124.239	113.040	-0.149	0.180
-123.224	-78.069	0.307	-0.106
-122.210	-4.945	0.052	-0.036
-121.195	-200.000	-0.056	-0.416
-120.180	364.200	-0.140	-0.283
-119.166	800.000	0.023	0.067
-118.151	-9.748	-0.190	-0.127
-117.137	-85.669	-0.147	0.046
-116.122	-132.616	-0.393	0.050
-115.107	24.732	0.201	-0.166
-114.093	-66.468	0.280	-0.111
-113.078	-89.248	0.214	-0.063
-112.064	-74.705	-0.220	0.079
-111.049	-179.289	-0.286	0.006
-110.034	-29.432	0.237	0.136
-109.020	-200.000	-0.039	-0.171
-108.005	-200.000	-0.036	0.182
-106.991	263.667	0.014	-0.024
-105.976	294.319	0.082	0.150
-104.962	-108.749	-0.184	0.039
-103.947	-200.000	-0.029	-0.230
-102.932	-35.173	-0.050	-0.027
-101.918	-200.000	-0.183	0.000
-100.903	-11.360	0.171	0.113
-99.889	13.371	-0.232	-0.180
-98.874	-200.000	0.021	-0.120
-97.859	-119.562	-0.373	-0.065
-96.845	-200.000	-0.036	0.270
-95.830	1.502	0.034	0.024
-94.816	800.000	-0.017	-0.069
-93.801	30.202	0.272	-0.232
-92.786	-129.656	-0.188	-0.026
-91.772	-200.000	-0.006	0.348
-90.757	-48.338	0.125	-0.060
-89.743	-200.000	-0.016	0.151
-88.728	43.356	-0.127	0.116
-87.713	-89.809	-0.312	-0.091
-86.699	-21.771	-0.123	0.075
-85.684	9.331	0.340	0.257
-84.670	800.000	-0.077	0.218
-83.655	114.321	0.110	0.134
-82.640	-117.618	0.250	0.045
-81.626	-191.992	0.463	-0.004
-80.611	24.243	-0.328	0.270
-79.597	717.440	0.054	-0.143
-78.582	-200.000	0.036	-0.212
-77.567	-200.000	0.336	0.001
-76.553	255.306	-0.157	0.269
-75.538	800.000	0.098	-0.286
-74.524	-161.977	0.266	-0.013
-73.509	-56.725	0.065	-0.029
-72.494	55.050	0.105	0.101
-71.480	-200.000	0.003	0.113
-70.465	343.120	-0.127	0.248
-69.451	-184.487	0.175	-0.003
-68.436	8.279	-0.065	-0.049
-67.422	109.269	-0.030	0.036
-66.407	-7.069	0.205	-0.139
-65.392	-67.994	-0.111	0.043
-64.378	30.166	-0.045	0.038
-63.363	257.310	0.169	0.289
-62.349	-104.051	0.078	0.018
-61.334	2.786	-0.854	-0.618
-60.319	-200.000	0.071	0.365
-59.305	-200.000	0.008	-0.608
-58.290	412.830	0.409	0.867
-57.276	432.617	0.782	1.692
-56.261	-200.000	71.105	524.175
-55.246	602.027	1274.938	3159.993
-54.232	147.795	2493.860	3352.267
-53.217	123.408	2224.817	2781.374
-52.203	56.943	1669.000	1621.738
-51.188	48.000	1385.655	1291.170
-50.173	44.004	1337.430	1222.155
-49.159	61.500	1369.422	1358.000
-48.144	70.471	1388.132	1430.833
-47.130	48.159	1351.598	1260.196
-46.115	43.866	1335.328	1219.209
-45.100	43.579	1330.641	1213.162
-44.086	43.575	1328.504	1211.140
-43.071	43.533	1326.171	1208.714
-42.057	43.485	1323.656	1206.089
-41.042	43.480	1322.170	1204.657
-40.027	43.447	1320.761	1203.129
-39.013	43.481	1318.742	1201.445
-37.998	43.664	1316.191	1200.159
-36.984	43.670	1314.817	1198.890
-35.969	43.638	1313.124	1197.111
-34.954	43.769	1311.457	1196.321
-33.940	43.730	1310.044	1194.753
-32.925	43.690	1308.799	1193.336
-31.911	43.859	1306.655	1192.325
-30.896	43.747	1305.599	1190.656
-29.881	43.846	1304.078	1189.806
-28.867	43.899	1302.556	1188.679
-27.852	43.848	1301.151	1187.050
-26.838	43.753	1299.773	1185.191
-25.823	43.804	1298.255	1184.057
-24.809	43.722	1297.043	1182.424
-23.794	43.854	1295.360	1181.613
-22.779	43.712	1294.535	1179.987
-21.765	43.732	1293.093	1178.742
-20.750	43.890	1291.656	1178.305
-19.736	43.713	1290.246	1175.945
-18.721	43.617	1288.620	1173.857
-17.706	43.574	1287.848	1172.860
-16.692	43.628	1286.805	1172.174
-15.677	43.672	1285.544	1171.237
-14.663	43.631	1284.123	1169.656
-13.648	43.628	1283.441	1168.972
-12.633	43.665	1282.014	1167.841
-11.619	43.714	1281.111	1167.255
-10.604	43.629	1280.590	1166.242
-9.590	43.581	1279.961	1165.349
-8.575	43.435	1278.787	1163.391
-7.560	43.519	1277.958	1163.072
-6.546	43.654	1276.553	1162.523
-5.531	43.648	1275.656	1161.627
-4.517	43.631	1275.040	1160.924
-3.502	43.565	1274.265	1159.791
-2.487	43.605	1272.993	1158.816
-1.473	43.724	1269.654	1156.412
-0.458	42.883	1254.680	1137.978
0.556	38.382	1233.865	1096.402
1.571	34.019	1236.016	1073.649
2.586	32.607	1250.610	1078.156
3.600	30.903	1240.032	1059.262
4.615	22.105	1161.382	944.905
5.629	8.238	1075.494	805.404
6.644	1.596	1049.675	753.194
7.659	1.083	1046.903	748.604
8.673	0.844	1045.978	746.697
9.688	0.839	1043.790	745.046
10.702	1.288	1043.035	746.648
11.717	8.789	1054.599	792.058
12.731	19.826	1069.827	858.503
13.746	23.694	1074.018	881.022
14.761	23.599	1073.279	879.866
15.775	23.518	1072.698	878.910
16.790	23.159	1072.488	876.882
17.804	23.214	1071.503	876.272
18.819	23.256	1071.246	876.188
19.834	23.332	1070.738	876.073
20.848	23.325	1070.116	875.450
21.863	23.395	1069.434	875.162
22.877	23.380	1068.784	874.478
23.892	23.310	1068.055	873.458
24.907	23.251	1067.448	872.596
25.921	23.333	1066.468	872.120
26.936	23.257	1065.040	870.503
27.950	23.293	1063.120	869.033
28.965	23.177	1061.644	867.178
29.980	23.200	1059.902	865.794
30.994	23.291	1059.174	865.569
32.009	23.401	1057.778	864.885
33.023	23.202	1056.698	862.958
34.038	23.183	1056.503	862.630
35.053	23.282	1055.615	862.310
36.067	23.286	1054.633	861.451
37.082	23.317	1053.900	860.925
38.096	23.479	1053.532	861.336
39.111	23.512	1053.159	861.114
40.126	23.558	1051.094	859.574
41.140	23.190	1049.527	856.437
42.155	22.825	1048.449	853.715
43.169	22.865	1047.717	853.236
44.184	22.986	1046.470	852.728
45.199	22.893	1045.369	851.308
46.213	23.049	1044.127	850.971
47.228	23.073	1043.957	850.877
48.242	23.277	1042.614	850.686
49.257	23.302	1041.926	850.169
50.271	23.313	1041.519	849.814
51.286	23.581	1039.869	849.678
52.301	23.290	1039.770	848.128
53.315	23.358	1038.726	847.527
54.330	23.248	1037.694	846.083
55.344	23.276	1036.859	845.459
56.359	23.325	1035.612	844.603
57.374	22.966	1035.372	842.623
58.388	23.157	1034.101	842.421
59.403	23.048	1033.832	841.608
60.417	22.910	1032.574	839.855
61.432	23.079	1031.913	840.047
62.447	23.107	1031.444	839.720
63.461	23.108	1030.558	838.933
64.476	23.085	1029.379	837.786
65.490	23.101	1028.185	836.815
66.505	22.999	1027.763	835.916
67.520	23.076	1027.136	835.699
68.534	22.990	1025.324	833.744
69.549	22.670	1024.710	831.664
70.563	22.599	1023.798	830.512
71.578	22.639	1023.139	830.092
72.593	22.536	1022.022	828.632
73.607	22.642	1021.854	828.919
74.622	22.880	1021.584	829.746
75.636	22.953	1020.668	829.270
76.651	22.904	1019.539	828.050
77.666	22.826	1019.016	827.187
78.680	22.762	1018.391	826.305
79.695	22.936	1017.909	826.655
80.709	22.991	1017.342	826.382
81.724	22.924	1016.597	825.387
82.739	23.035	1015.781	825.171
83.753	23.422	1015.065	826.320
84.768	23.683	1014.123	826.696
85.782	23.762	1013.223	826.255
86.797	23.619	1012.220	824.700
87.812	23.531	1011.460	823.599
88.826	23.662	1010.472	823.329
89.841	23.604	1009.640	822.311
90.855	23.616	1008.630	821.472
91.870	23.639	1007.696	820.745
92.884	23.530	1006.533	819.224
93.899	23.511	1005.677	818.367
94.914	23.669	1005.006	818.474
95.928	23.370	1003.893	816.121
96.943	23.165	1002.770	814.190
97.957	23.032	1001.237	812.265
98.972	22.926	999.737	810.486
99.987	23.156	999.606	811.363
101.001	23.184	999.096	811.006
102.016	23.357	997.916	810.771
103.030	23.238	997.184	809.557
104.045	23.120	996.331	808.254
105.060	22.959	994.896	806.285
106.074	23.115	994.526	806.625
107.089	23.529	993.520	807.622
108.103	23.298	992.515	805.687
109.118	23.074	991.333	803.637
110.133	23.099	990.435	802.952
111.147	22.953	989.130	801.160
112.162	22.847	987.965	799.667
113.176	22.932	988.069	800.065
114.191	22.901	987.080	799.051
115.206	22.686	985.806	796.978
116.220	22.584	985.013	795.806
117.235	22.917	983.879	796.321
118.249	22.877	983.215	795.532
119.264	22.751	982.331	794.178
120.279	22.738	981.687	793.533
121.293	22.824	981.179	793.435
122.308	22.868	980.162	792.740
123.322	22.887	978.739	791.606
124.337	22.731	977.816	790.092
125.352	22.213	976.253	786.443
126.366	22.039	975.657	785.114
127.381	22.777	975.384	788.123
128.395	23.272	975.066	790.003
129.410	23.350	974.133	789.527
130.424	23.282	973.387	788.548
131.439	23.366	972.049	787.768
132.454	23.364	971.454	787.207
133.468	23.348	970.494	786.288
134.483	23.414	969.974	786.092
135.497	23.583	969.020	785.998
136.512	23.723	968.096	785.796
137.527	23.574	967.608	784.671
138.541	23.617	967.002	784.303
139.556	23.712	965.882	783.743
140.570	23.788	965.180	783.440
141.585	23.727	964.227	782.330
142.600	23.816	962.516	781.264
143.614	23.865	962.372	781.291
144.629	24.000	961.687	781.258
145.643	23.785	960.495	779.277
146.658	23.729	958.941	777.705
147.673	23.558	957.892	776.035
148.687	23.550	957.214	775.383
149.702	23.365	956.587	773.997
150.716	23.441	955.342	773.254
151.731	23.441	955.150	773.031
152.746	23.692	954.341	773.399
153.760	23.790	953.350	772.953
154.775	23.807	952.936	772.626
155.789	23.608	952.338	771.209
156.804	23.764	950.809	770.579
157.819	23.748	949.804	769.628
158.833	23.954	949.318	770.057
159.848	23.963	948.208	769.128
160.862	23.488	947.696	766.591
161.877	23.664	946.205	766.077
162.892	23.799	945.089	765.687
163.906	23.865	944.114	765.114
164.921	23.750	942.931	763.590
165.935	23.822	942.543	763.518
166.950	23.744	941.820	762.533
167.964	23.702	940.947	761.578
168.979	23.514	940.004	759.942
169.994	23.427	939.064	758.741
171.008	23.851	938.406	759.957
172.023	23.879	937.438	759.225
173.037	23.651	936.719	757.602
174.052	23.359	935.636	755.415
175.067	23.455	935.064	755.293
176.081	23.533	934.235	754.890
177.096	23.517	933.658	754.291
178.110	23.181	932.770	752.078
179.125	22.978	932.142	750.641
180.140	23.179	931.725	751.093
181.154	23.292	931.258	751.129
182.169	23.566	931.062	752.065
183.183	23.781	930.940	752.813
184.198	23.663	929.674	751.223
185.213	23.571	929.336	750.495
186.227	23.669	928.419	750.103
187.242	23.672	928.216	749.884
188.256	23.805	927.179	749.541
189.271	23.930	926.360	749.340
190.286	23.546	925.086	746.624
191.300	22.993	923.807	743.205
192.315	22.209	922.459	738.759
193.329	22.056	922.139	737.794
194.344	22.893	922.557	741.580
195.359	23.530	922.254	743.944
196.373	23.738	921.604	744.227
197.388	23.634	921.061	743.287
198.402	23.503	920.318	742.074
199.417	23.578	919.739	741.855
200.432	23.329	919.213	740.322
201.446	23.229	918.284	739.093
202.461	23.262	917.476	738.512
203.475	22.460	915.964	733.888
204.490	21.727	914.088	729.272
205.504	22.452	914.607	732.638
206.519	23.098	914.684	735.325
207.534	23.241	914.069	735.359
208.548	23.572	914.236	736.804
209.563	23.463	912.854	735.173
210.577	23.446	912.272	734.568
211.592	23.844	912.065	735.984
212.607	23.792	910.934	734.789
213.621	23.742	910.668	734.306
214.636	23.842	909.831	733.979
215.650	23.724	909.233	732.941
216.665	23.887	908.521	732.977
217.680	23.919	907.517	732.232
218.694	23.346	906.831	729.256
219.709	23.333	905.694	728.226
220.723	23.575	905.344	728.873
221.738	23.648	904.580	728.492
222.753	23.633	904.127	728.002
223.767	23.710	903.977	728.134
224.782	23.938	903.660	728.748
225.796	23.850	903.369	728.089
226.811	23.294	901.525	724.263
227.826	22.769	899.800	720.672
228.840	22.869	899.928	721.116
229.855	22.875	899.135	720.441
230.869	22.467	898.324	718.065
231.884	22.895	898.167	719.622
232.899	23.566	898.363	722.449
233.913	23.637	897.366	721.870
234.928	23.570	896.991	721.234
235.942	23.568	896.107	720.452
236.957	23.141	895.334	718.033
237.972	23.315	894.863	718.297
238.986	23.452	894.166	718.231
240.001	23.362	893.701	717.429
241.015	23.389	893.086	716.978
242.030	23.536	892.953	717.404
243.045	23.684	892.194	717.330
244.059	23.799	892.035	717.604
245.074	23.636	890.886	715.958
246.088	23.239	889.914	713.512
247.103	23.513	889.824	714.483
248.117	24.076	889.642	716.539
249.132	24.254	889.315	716.928
250.147	24.349	888.776	716.812
251.161	24.535	888.165	717.004
252.176	24.660	887.145	716.619
253.190	24.546	887.172	716.119
254.205	24.728	886.606	716.326
255.220	24.652	885.852	715.351
256.234	24.712	884.752	714.640
257.249	24.382	884.445	713.007
258.263	24.390	883.583	712.284
259.278	24.447	883.198	712.136
260.293	24.670	882.318	712.254
261.307	24.402	881.922	710.804
262.322	24.443	880.379	709.659
263.336	23.576	878.937	704.992
264.351	22.572	876.938	699.343
265.366	22.676	876.665	699.475
266.380	23.671	877.116	703.718
267.395	24.296	876.703	705.803
268.409	24.140	876.223	704.737
269.424	24.358	875.715	705.128
270.439	24.482	875.252	705.183
271.453	24.428	874.805	704.546
272.468	24.489	874.692	704.633
273.482	24.696	874.011	704.837
274.497	24.203	872.810	701.864
275.512	24.009	871.538	700.017
276.526	24.200	871.736	700.867
277.541	24.418	871.430	701.416
278.555	24.170	870.873	699.930
279.570	24.006	869.985	698.510
280.585	24.214	869.586	698.944
281.599	24.305	868.355	698.249
282.614	23.548	867.635	694.648
283.628	23.603	866.862	694.182
284.643	24.098	866.405	695.687
285.657	23.527	865.651	692.793
286.672	23.385	864.600	691.335
287.687	23.917	864.422	693.207
288.701	23.926	863.949	692.800
289.716	23.692	863.380	691.374
290.730	23.634	862.485	690.370
291.745	23.367	861.384	688.387
292.760	23.625	861.663	689.555
293.774	24.567	861.888	693.329
294.789	24.968	861.467	694.485
295.803	24.964	860.594	693.708
296.818	24.965	860.092	693.245
297.833	24.346	859.758	690.518
298.847	24.324	858.937	689.712
299.862	24.646	858.395	690.460
300.876	24.972	857.875	691.239
301.891	24.776	857.169	689.853
302.906	24.388	856.350	687.636
303.920	24.452	856.032	687.568
304.935	24.975	855.778	689.318
305.949	24.802	855.219	688.141
306.964	24.531	854.512	686.468
307.979	24.592	853.781	686.055
308.993	25.054	853.658	687.670
310.008	24.903	853.334	686.767
311.022	24.646	852.636	685.160
312.037	24.669	851.935	684.625
313.052	24.417	850.777	682.668
314.066	23.495	849.306	677.905
315.081	23.044	848.833	675.746
316.095	23.966	849.035	679.367
317.110	24.694	848.537	681.688
318.125	23.797	847.045	677.013
319.139	22.708	845.910	671.900
320.154	22.664	845.557	671.394
321.168	23.627	845.718	675.126
322.183	24.375	845.546	677.770
323.197	24.518	845.344	678.092
324.212	24.630	844.991	678.175
325.227	24.849	844.568	678.606
326.241	24.583	844.150	677.202
327.256	24.516	843.448	676.325
328.270	24.390	842.748	675.226
329.285	24.215	841.814	673.756
330.300	24.014	840.956	672.250
331.314	24.328	840.391	672.926
332.329	24.624	840.804	674.313
333.343	24.673	840.381	674.100
334.358	24.709	839.607	673.553
335.373	24.820	839.198	673.586
336.387	24.979	839.288	674.194
337.402	25.174	839.382	674.945
338.416	25.111	838.938	674.291
339.431	25.137	838.710	674.147
340.446	25.410	838.072	674.600
341.460	25.270	837.808	673.800
342.475	25.029	837.250	672.388
343.489	25.130	836.717	672.280
344.504	25.396	836.547	673.080
345.519	25.599	836.393	673.658
346.533	25.384	835.949	672.434
347.548	25.553	835.226	672.426
348.562	25.415	834.708	671.435
349.577	25.541	833.571	670.930
350.592	25.472	833.376	670.457
351.606	25.429	832.798	669.772
352.621	25.361	831.802	668.661
353.635	25.317	830.865	667.685
354.650	24.627	829.460	663.934
355.665	23.831	828.029	659.776
356.679	23.956	827.876	660.060
357.694	24.551	827.482	661.893
358.708	24.436	827.081	661.086
359.723	24.818	826.890	662.289
360.738	25.231	826.595	663.522
361.752	25.375	826.078	663.580
362.767	25.595	826.082	664.337
363.781	25.665	825.803	664.313
364.796	25.865	825.181	664.491
365.810	25.957	824.668	664.359
366.825	25.751	824.712	663.577
367.840	25.476	823.928	661.875
368.854	25.280	822.395	659.864
369.869	25.179	822.261	659.326
370.883	25.240	822.099	659.363
371.898	25.142	821.287	658.293
372.913	25.273	821.180	658.631
373.927	25.343	820.799	658.524
374.942	25.511	820.071	658.496
375.956	25.604	820.031	658.744
376.971	25.587	819.641	658.313
377.986	25.942	819.189	659.190
379.000	25.840	818.513	658.214
380.015	25.711	818.039	657.304
381.029	25.871	817.207	657.161
382.044	25.874	816.789	656.775
383.059	25.890	816.143	656.259
384.073	25.871	815.908	655.943
385.088	25.847	814.921	655.004
386.102	25.656	814.108	653.599
387.117	25.551	813.850	652.950
388.132	25.335	812.359	650.916
389.146	24.767	811.529	648.133
390.161	25.142	811.446	649.370
391.175	25.561	811.345	650.746
392.190	25.330	810.303	649.019
393.205	23.831	808.501	642.108
394.219	22.463	806.473	635.506
395.234	22.377	806.484	635.149
396.248	23.833	807.634	641.256
397.263	25.300	809.105	647.664
398.278	25.483	808.126	647.482
399.292	25.271	807.670	646.296
400.307	25.188	807.114	645.495
401.321	25.171	807.164	645.418
402.336	25.572	806.686	646.422
403.350	26.056	806.501	647.955
404.365	26.254	806.499	648.607
405.380	26.704	805.812	649.608
406.394	26.750	805.252	649.264
407.409	26.570	805.027	648.382
408.423	26.547	804.652	647.940
409.438	26.672	804.139	647.916
410.453	26.639	804.003	647.630
411.467	26.561	803.339	646.762
412.482	26.378	803.078	645.839
413.496	26.583	802.922	646.390
414.511	26.595	802.385	645.943
415.526	26.396	802.136	644.977
416.540	26.487	800.742	644.123
417.555	26.327	800.012	642.909
418.569	26.357	799.909	642.875
419.584	26.264	799.200	641.917
420.599	26.076	798.563	640.683
421.613	84.231	1241.192	1304.159
422.628	71.696	1305.695	1304.296
