DTS Sentinel unit serial number:	SN413079Multiplexer serial number:	ORYXHardware model number:	OX4-SRSoftware version number:	ORYX F/W v4.00 Oryx Data Collector v3.7.2.0data status	okinstallation	princeton_trtdifferential loss correction	single-endedforward channel	channel 1reverse channel	N/Adate	2019/09/11time	06:36:11forward acquisition time	60.00reverse acquisition time	0.00gamma	496.2192k internal	0.2330k external	0.2330temperature offset calibration	0.9920default loss term (dB/km)	0.3790temperature slope calibration	1.0000multiplexer offset coefficient	1.0000multiplexer slope coefficient	1.0000fibre end	0.00T internal ref (°C)	29.69T ext. ref 1 (°C)	-0.17T ext. ref 2 (°C)	24.37length (m)	temperature (°C)	Stokes	anti-Stokes-747.200	-98.199	0.409	0.106
-746.185	-29.396	-0.205	-0.118
-745.171	-151.550	0.110	0.008
-744.156	-35.556	0.308	0.168
-743.142	-74.126	-0.183	-0.067
-742.127	800.000	0.061	0.182
-741.112	11.383	-0.219	0.169
-740.098	-126.511	-0.191	-0.029
-739.083	122.511	0.024	-0.031
-738.069	-118.699	-0.388	0.069
-737.054	800.000	0.040	-0.128
-736.039	106.647	-0.179	-0.214
-735.025	-200.000	-0.010	0.227
-734.010	-70.833	-0.274	0.104
-732.996	800.000	0.048	0.198
-731.981	-46.341	-0.359	-0.177
-730.966	-200.000	0.004	-0.058
-729.952	163.078	-0.164	-0.232
-728.937	395.959	-0.033	0.070
-727.923	781.584	-0.077	-0.213
-726.908	-200.000	-0.045	0.355
-725.894	800.000	-0.058	0.226
-724.879	-200.000	-0.025	0.283
-723.864	-117.183	0.030	-0.005
-722.850	-144.564	0.329	0.031
-721.835	11.881	-0.248	-0.192
-720.821	-200.000	-0.000	-0.179
-719.806	402.172	-0.128	-0.271
-718.791	-104.807	-0.363	0.084
-717.777	183.607	0.100	-0.149
-716.762	43.281	-0.079	0.072
-715.748	54.424	0.154	-0.149
-714.733	-23.659	0.179	0.108
-713.718	87.255	-0.145	-0.161
-712.704	258.390	0.110	0.190
-711.689	-58.539	-0.254	-0.111
-710.675	321.014	-0.117	-0.223
-709.660	-59.262	-0.498	-0.216
-708.645	78.143	0.197	-0.211
-707.631	-149.840	-0.042	-0.003
-706.616	62.361	0.172	-0.172
-705.602	-10.786	0.132	0.088
-704.587	-187.221	0.414	0.006
-703.572	-45.486	-0.037	0.018
-702.558	82.170	-0.060	-0.066
-701.543	-200.000	0.039	-0.250
-700.529	59.994	0.184	-0.183
-699.514	2.012	0.209	-0.151
-698.499	75.067	-0.188	0.199
-697.485	147.681	0.094	0.128
-696.470	-98.348	-0.285	0.073
-695.456	-149.655	0.162	-0.013
-694.441	268.252	-0.115	-0.202
-693.426	-45.187	-0.045	-0.023
-692.412	259.925	-0.149	0.258
-691.397	-27.342	-0.180	0.105
-690.383	800.000	0.074	-0.319
-689.368	-200.000	-0.030	0.146
-688.354	-200.000	0.002	-0.070
-687.339	-200.000	-0.021	0.120
-686.324	800.000	-0.043	-0.167
-685.310	-200.000	0.015	-0.180
-684.295	-168.489	0.051	0.002
-683.281	-74.863	0.155	-0.056
-682.266	800.000	0.064	-0.228
-681.251	-63.755	-0.269	-0.111
-680.237	800.000	-0.145	-0.438
-679.222	-38.175	0.126	-0.067
-678.208	-9.626	0.211	-0.141
-677.193	800.000	-0.113	0.398
-676.178	-47.871	0.031	-0.015
-675.164	554.685	-0.076	-0.184
-674.149	-7.147	0.210	0.143
-673.135	209.344	-0.174	0.273
-672.120	-200.000	-0.055	0.256
-671.105	345.387	-0.048	-0.094
-670.091	7.389	-0.133	-0.100
-669.076	-200.000	0.017	-0.126
-668.062	800.000	0.193	-0.555
-667.047	-20.515	-0.025	-0.016
-666.032	-200.000	-0.026	0.271
-665.018	146.902	0.129	-0.174
-664.003	-15.597	0.165	-0.106
-662.989	-115.924	0.056	-0.010
-661.974	19.644	-0.107	0.087
-660.959	-39.595	0.155	-0.082
-659.945	115.610	0.105	0.129
-658.930	66.843	0.185	0.189
-657.916	800.000	0.083	-0.302
-656.901	108.115	0.175	-0.210
-655.886	-44.041	-0.044	-0.022
-654.872	-200.000	-0.010	0.180
-653.857	-127.268	-0.126	0.018
-652.843	-200.000	0.041	0.203
-651.828	546.861	0.164	-0.394
-650.814	465.627	0.060	-0.134
-649.799	-35.778	0.111	0.060
-648.784	-200.000	0.013	0.084
-647.770	59.704	0.093	0.092
-646.755	-81.712	-0.255	0.084
-645.741	-89.565	0.315	0.093
-644.726	7.227	0.206	-0.155
-643.711	800.000	-0.053	0.173
-642.697	472.617	-0.160	0.362
-641.682	-83.771	0.242	0.077
-640.668	-6.953	0.179	0.122
-639.653	-129.494	-0.222	0.031
-638.638	355.039	-0.068	0.136
-637.624	-200.000	-0.028	0.247
-636.609	-95.831	0.230	0.062
-635.595	15.505	-0.061	-0.048
-634.580	-95.726	-0.150	0.040
-633.565	6.483	0.151	-0.112
-632.551	347.869	-0.133	-0.262
-631.536	800.000	-0.058	-0.193
-630.522	-200.000	0.006	-0.270
-629.507	-200.000	-0.096	-0.000
-628.492	107.364	0.065	0.077
-627.478	-77.030	-0.526	-0.184
-626.463	733.431	0.089	0.238
-625.449	-200.000	-0.029	-0.189
-624.434	-76.069	-0.284	0.101
-623.419	-200.000	0.015	0.149
-622.405	-174.979	-0.225	-0.006
-621.390	800.000	-0.059	-0.185
-620.376	165.514	-0.162	-0.230
-619.361	4.097	0.134	0.099
-618.346	-38.236	0.226	-0.120
-617.332	-67.454	0.145	-0.057
-616.317	385.184	0.106	-0.219
-615.303	5.278	-0.335	0.248
-614.288	52.262	0.161	-0.153
-613.273	-153.150	-0.375	0.026
-612.259	-11.274	-0.246	-0.162
-611.244	521.935	0.029	-0.068
-610.230	96.091	-0.096	0.110
-609.215	-75.032	-0.274	-0.098
-608.201	-177.480	-0.295	0.007
-607.186	-73.925	-0.332	0.121
-606.171	696.706	0.053	-0.141
-605.157	66.907	0.130	-0.133
-604.142	566.431	0.125	0.303
-603.128	130.684	0.132	0.170
-602.113	85.113	0.052	-0.058
-601.098	165.067	0.065	-0.093
-600.084	3.001	-0.195	-0.142
-599.069	800.000	-0.014	-0.062
-598.055	-144.289	-0.126	-0.012
-597.040	669.848	0.040	-0.103
-596.025	-58.609	-0.171	-0.074
-595.011	-118.708	-0.082	0.014
-593.996	-200.000	0.026	0.201
-592.982	16.739	0.130	-0.103
-591.967	-200.000	0.098	0.475
-590.952	-55.668	0.183	0.082
-589.938	-99.005	0.263	0.067
-588.923	138.904	-0.116	-0.152
-587.909	-91.289	0.069	-0.020
-586.894	-154.324	-0.183	0.012
-585.879	-63.908	-0.235	0.096
-584.865	727.193	0.031	-0.084
-583.850	-15.567	-0.064	0.041
-582.836	98.932	0.093	0.108
-581.821	800.000	-0.059	0.209
-580.806	-119.237	0.111	-0.019
-579.792	-76.397	0.054	-0.019
-578.777	800.000	-0.073	0.312
-577.763	-86.640	0.229	-0.070
-576.748	108.850	0.088	-0.106
-575.733	69.575	0.175	-0.181
-574.719	-200.000	0.046	-0.232
-573.704	7.372	0.038	-0.028
-572.690	20.405	-0.167	0.135
-571.675	-132.510	0.047	0.006
-570.661	-178.056	-0.118	-0.003
-569.646	187.323	-0.038	0.056
-568.631	-46.007	-0.286	0.141
-567.617	-200.000	0.370	0.001
-566.602	39.850	0.037	0.033
-565.588	94.733	-0.019	0.021
-564.573	-200.000	-0.050	0.321
-563.558	-77.684	-0.471	0.163
-562.544	-44.815	-0.031	-0.016
-561.529	53.891	-0.077	0.074
-560.515	800.000	0.096	-0.347
-559.500	-70.134	-0.431	0.164
-558.485	160.129	0.144	-0.201
-557.471	-152.105	-0.183	0.013
-556.456	-200.000	0.007	-0.158
-555.442	63.112	0.114	0.114
-554.427	395.342	-0.087	0.181
-553.412	-132.256	0.146	-0.019
-552.398	-61.305	0.065	0.027
-551.383	-200.000	0.007	-0.127
-550.369	-34.433	-0.290	0.159
-549.354	40.256	-0.232	-0.208
-548.339	800.000	-0.084	0.337
-547.325	-92.963	-0.504	-0.141
-546.310	289.571	-0.220	-0.399
-545.296	-167.470	0.203	0.008
-544.281	-112.492	0.102	0.020
-543.266	-47.442	-0.355	-0.172
-542.252	-24.816	0.068	0.040
-541.237	37.395	0.261	0.231
-540.223	-200.000	-0.055	-0.387
-539.208	181.893	-0.151	-0.222
-538.193	82.607	0.136	0.148
-537.179	-200.000	0.022	0.100
-536.164	149.624	-0.131	0.177
-535.150	107.244	-0.191	0.227
-534.135	49.271	0.145	0.136
-533.121	42.311	0.139	-0.126
-532.106	-17.470	-0.117	-0.074
-531.091	-139.698	0.132	-0.014
-530.077	42.241	-0.094	-0.085
-529.062	-10.825	0.163	0.108
-528.048	522.475	0.011	-0.025
-527.033	-200.000	-0.008	-0.083
-526.018	-133.265	-0.299	0.038
-525.004	-142.638	-0.076	0.007
-523.989	17.506	-0.232	-0.184
-522.975	800.000	0.087	0.350
-521.960	-200.000	-0.028	-0.157
-520.945	612.287	0.063	0.157
-519.931	-99.463	-0.287	0.072
-518.916	-200.000	0.039	0.276
-517.902	-97.668	0.336	0.087
-516.887	548.022	0.092	0.221
-515.872	-118.997	0.112	0.020
-514.858	800.000	0.070	-0.205
-513.843	-200.000	-0.046	0.300
-512.829	58.258	0.333	0.325
-511.814	-86.129	-0.264	0.081
-510.799	647.595	0.085	0.217
-509.785	-61.178	0.160	0.067
-508.770	-200.000	-0.022	0.399
-507.756	-73.875	0.234	-0.085
-506.741	-200.000	-0.022	-0.169
-505.726	27.137	0.218	-0.182
-504.712	-113.012	-0.280	0.055
-503.697	143.465	-0.185	-0.245
-502.683	199.604	0.215	0.329
-501.668	-75.210	-0.289	-0.103
-500.653	-122.632	-0.420	0.068
-499.639	-87.662	-0.193	0.058
-498.624	48.579	0.194	-0.181
-497.610	-96.772	0.217	-0.057
-496.595	-200.000	-0.061	-0.286
-495.581	-84.245	-0.261	0.082
-494.566	-57.606	0.124	-0.054
-493.551	-1.982	-0.138	-0.097
-492.537	314.340	-0.018	0.034
-491.522	800.000	-0.061	-0.237
-490.508	-200.000	-0.020	-0.098
-489.493	-17.351	0.144	-0.091
-488.478	103.511	0.187	-0.219
-487.464	101.721	0.283	-0.329
-486.449	124.679	0.070	-0.088
-485.435	800.000	0.076	0.219
-484.420	14.181	0.139	-0.108
-483.405	-21.910	0.273	0.166
-482.391	-12.975	-0.125	-0.081
-481.376	118.644	0.096	0.118
-480.362	-92.147	-0.176	0.050
-479.347	-200.000	0.009	-0.081
-478.332	-134.988	0.287	-0.035
-477.318	-75.054	0.254	-0.090
-476.303	214.780	0.071	0.111
-475.289	-102.898	-0.083	-0.020
-474.274	-153.986	0.075	-0.005
-473.259	405.982	-0.158	0.332
-472.245	173.965	0.113	0.162
-471.230	240.258	0.090	0.149
-470.216	641.476	0.157	-0.399
-469.201	800.000	0.016	-0.068
-468.186	-62.966	-0.088	-0.036
-467.172	-200.000	-0.021	0.268
-466.157	-10.806	-0.101	-0.067
-465.143	212.144	0.176	-0.277
-464.128	-1.790	0.235	0.165
-463.113	157.455	0.077	0.106
-462.099	28.210	0.269	-0.226
-461.084	48.432	-0.135	0.126
-460.070	-120.747	-0.119	-0.020
-459.055	-102.288	0.119	0.028
-458.040	-200.000	0.058	-0.486
-457.026	-125.702	-0.281	-0.042
-456.011	-200.000	0.018	-0.151
-454.997	-177.834	-0.148	-0.004
-453.982	31.764	-0.243	-0.208
-452.968	-200.000	0.051	-0.283
-451.953	-165.974	-0.414	0.018
-450.938	639.413	-0.069	0.174
-449.924	-200.000	-0.018	0.161
-448.909	-149.051	0.052	0.004
-447.895	158.501	-0.211	0.291
-446.880	800.000	0.077	-0.288
-445.865	-77.879	-0.156	-0.054
-444.851	692.469	0.126	-0.328
-443.836	-2.991	0.171	-0.119
-442.822	800.000	-0.061	0.192
-441.807	-31.712	0.077	0.043
-440.792	-109.960	0.216	-0.045
-439.778	-200.000	-0.045	0.424
-438.763	120.602	-0.194	0.239
-437.749	800.000	0.072	-0.209
-436.734	800.000	-0.099	0.275
-435.719	-69.411	0.135	0.051
-434.705	559.100	0.086	0.206
-433.690	-166.511	-0.141	-0.006
-432.676	-11.662	-0.183	0.120
-431.661	-48.718	0.426	0.203
-430.646	62.106	0.244	0.242
-429.632	117.790	0.063	0.078
-428.617	-200.000	-0.031	-0.333
-427.603	60.117	-0.084	0.082
-426.588	547.070	-0.187	-0.445
-425.573	-128.660	-0.095	-0.013
-424.559	90.544	-0.141	-0.157
-423.544	345.735	-0.080	0.156
-422.530	97.956	-0.181	0.208
-421.515	-115.279	-0.311	-0.058
-420.500	644.512	0.185	-0.470
-419.486	146.034	0.100	-0.133
-418.471	-5.265	0.153	0.105
-417.457	-75.936	-0.140	-0.049
-416.442	-99.034	0.229	0.058
-415.428	61.599	0.208	-0.206
-414.413	327.931	-0.118	-0.226
-413.398	92.102	-0.225	0.252
-412.384	-128.952	-0.257	-0.036
-411.369	800.000	0.050	-0.144
-410.355	6.686	-0.119	-0.088
-409.340	-65.107	-0.161	0.065
-408.325	66.894	-0.258	-0.261
-407.311	-200.000	0.041	-0.245
-406.296	3.553	0.205	0.149
-405.282	-17.367	0.169	-0.106
-404.267	136.683	0.095	-0.123
-403.252	800.000	-0.117	0.338
-402.238	-134.630	0.154	0.019
-401.223	-15.542	0.263	0.167
-400.209	53.689	-0.244	0.233
-399.194	69.320	-0.347	-0.354
-398.179	-200.000	0.002	-0.063
-397.165	800.000	0.066	0.205
-396.150	800.000	0.039	0.141
-395.136	-7.274	-0.275	-0.185
-394.121	7.505	-0.279	-0.207
-393.106	-200.000	-0.042	0.233
-392.092	98.734	-0.421	0.482
-391.077	-15.783	0.214	0.135
-390.063	-200.000	0.003	-0.086
-389.048	580.154	-0.217	-0.527
-388.033	153.844	-0.135	-0.184
-387.019	659.787	0.061	-0.156
-386.004	-200.000	0.017	-0.133
-384.990	225.661	-0.156	0.251
-383.975	-200.000	0.030	0.166
-382.960	-109.032	-0.080	0.017
-381.946	638.457	-0.069	-0.174
-380.931	373.075	0.197	-0.398
-379.917	-200.000	-0.013	0.098
-378.902	-200.000	-0.069	-0.301
-377.888	-137.367	0.286	-0.032
-376.873	-179.191	-0.293	0.006
-375.858	121.054	-0.236	0.292
-374.844	59.508	0.112	-0.110
-373.829	22.912	0.214	0.174
-372.815	-184.765	0.163	-0.003
-371.800	6.633	-0.014	0.011
-370.785	-133.887	-0.244	-0.030
-369.771	-51.889	0.271	0.125
-368.756	225.552	0.078	0.126
-367.742	-146.452	0.131	0.011
-366.727	-200.000	0.028	0.312
-365.712	23.182	0.295	-0.241
-364.698	-4.962	-0.026	-0.018
-363.683	312.659	-0.035	0.066
-362.669	-200.000	-0.014	0.188
-361.654	-177.568	0.214	-0.005
-360.639	161.997	-0.126	0.175
-359.625	-24.386	-0.057	-0.033
-358.610	-200.000	-0.028	0.144
-357.596	5.510	-0.099	0.073
-356.581	-200.000	0.002	-0.039
-355.566	184.646	-0.189	-0.278
-354.552	-200.000	0.038	-0.195
-353.537	-81.920	-0.317	-0.103
-352.523	55.638	-0.299	-0.288
-351.508	-150.040	0.097	0.007
-350.493	-100.456	0.149	-0.037
-349.479	-36.440	0.062	-0.033
-348.464	-200.000	-0.004	0.140
-347.450	-150.454	0.293	0.022
-346.435	16.802	-0.187	0.146
-345.420	22.191	-0.121	-0.098
-344.406	373.037	0.038	-0.076
-343.391	97.772	-0.008	0.009
-342.377	-154.684	-0.299	-0.020
-341.362	286.189	-0.076	0.135
-340.348	-111.212	-0.204	-0.041
-339.333	216.541	-0.153	-0.241
-338.318	-137.725	0.086	0.010
-337.304	-79.177	-0.324	0.109
-336.289	-51.962	-0.147	0.068
-335.275	-84.184	0.161	0.051
-334.260	800.000	-0.070	0.228
-333.245	-160.418	-0.274	0.015
-332.231	104.980	0.163	0.190
-331.216	55.594	-0.081	0.078
-330.202	-134.092	0.142	0.017
-329.187	-0.127	-0.112	0.079
-328.172	316.764	0.264	-0.493
-327.158	93.374	0.106	0.119
-326.143	-66.777	-0.483	0.189
-325.129	-76.948	0.286	-0.099
-324.114	-75.527	0.185	0.065
-323.099	8.427	0.389	-0.290
-322.085	-200.000	0.043	-0.239
-321.070	30.690	-0.138	-0.117
-320.056	114.990	0.114	0.138
-319.041	-200.000	-0.002	0.118
-318.026	-200.000	-0.004	-0.563
-317.012	-39.066	0.181	0.094
-315.997	-200.000	-0.007	0.094
-314.983	142.722	0.163	0.215
-313.968	-200.000	-0.002	-0.330
-312.953	800.000	0.079	0.274
-311.939	-88.841	-0.373	0.110
-310.924	-170.153	0.132	0.005
-309.910	68.965	-0.092	0.093
-308.895	-143.549	0.265	0.025
-307.880	-152.484	0.267	0.019
-306.866	-164.946	-0.155	0.007
-305.851	-169.690	0.396	-0.014
-304.837	254.052	-0.112	-0.190
-303.822	22.131	-0.187	0.151
-302.807	215.317	-0.126	-0.198
-301.793	-115.482	-0.298	-0.055
-300.778	-166.108	0.184	0.008
-299.764	210.960	-0.151	0.235
-298.749	-200.000	-0.008	0.155
-297.735	-160.641	-0.369	0.019
-296.720	-21.540	0.325	0.196
-295.705	171.059	-0.087	0.123
-294.691	-128.292	0.017	-0.002
-293.676	-88.184	0.230	-0.068
-292.662	-103.311	0.025	-0.006
-291.647	486.613	-0.094	0.213
-290.632	-200.000	-0.006	-0.106
-289.618	-91.573	0.081	-0.023
-288.603	800.000	0.094	-0.325
-287.589	678.903	0.095	0.244
-286.574	-98.633	0.128	-0.032
-285.559	576.012	0.081	0.194
-284.545	4.840	-0.066	-0.048
-283.530	-200.000	0.001	-0.121
-282.516	41.068	-0.180	0.160
-281.501	-189.528	0.073	0.001
-280.486	145.359	-0.070	-0.093
-279.472	-200.000	0.037	0.202
-278.457	33.265	-0.109	-0.094
-277.443	135.919	0.164	0.211
-276.428	-5.232	0.116	0.079
-275.413	292.601	-0.109	-0.197
-274.399	215.063	-0.161	-0.252
-273.384	-72.228	0.163	0.060
-272.370	128.269	0.039	-0.049
-271.355	-90.921	-0.177	0.050
-270.340	800.000	0.084	0.253
-269.326	9.378	-0.129	-0.096
-268.311	-200.000	0.020	-0.214
-267.297	-137.517	0.134	0.015
-266.282	149.779	0.132	0.177
-265.267	713.874	-0.112	-0.293
-264.253	111.987	0.083	0.099
-263.238	411.948	-0.058	-0.121
-262.224	114.140	0.083	-0.100
-261.209	800.000	0.124	-0.503
-260.195	137.168	-0.060	-0.078
-259.180	375.166	-0.058	0.117
-258.165	-56.537	0.249	0.109
-257.151	372.635	-0.062	-0.125
-256.136	608.958	-0.059	-0.146
-255.122	-200.000	-0.018	0.099
-254.107	-109.134	0.497	0.104
-253.092	122.542	0.150	0.185
-252.078	156.904	-0.032	-0.043
-251.063	151.272	-0.157	0.212
-250.049	-50.138	-0.069	0.032
-249.034	-21.294	-0.180	0.109
-248.019	162.917	-0.203	0.281
-247.005	319.504	0.123	-0.230
-245.990	-119.270	-0.371	0.064
-244.976	-200.000	0.013	-0.335
-243.961	-28.989	-0.085	0.048
-242.946	-181.102	0.289	-0.006
-241.932	59.591	0.032	-0.031
-240.917	-200.000	0.002	-0.072
-239.903	-132.367	0.357	-0.045
-238.888	9.821	-0.226	-0.170
-237.873	-138.735	0.203	0.022
-236.859	-62.749	0.479	0.196
-235.844	-44.067	-0.216	-0.107
-234.830	-105.595	0.228	-0.051
-233.815	355.644	-0.118	0.233
-232.800	100.275	-0.168	-0.193
-231.786	-145.519	0.064	-0.006
-230.771	-8.110	0.102	0.068
-229.757	-163.174	-0.125	-0.006
-228.742	-77.120	0.212	-0.073
-227.727	-76.859	0.118	-0.041
-226.713	22.187	0.117	-0.094
-225.698	761.128	0.048	0.129
-224.684	4.864	-0.242	0.175
-223.669	18.069	0.332	-0.261
-222.655	21.279	0.237	-0.190
-221.640	318.510	-0.099	0.185
-220.625	-64.337	0.464	-0.186
-219.611	-8.310	-0.284	0.188
-218.596	-200.000	-0.001	-0.184
-217.582	800.000	0.075	0.218
-216.567	-113.555	0.153	0.030
-215.552	111.530	-0.149	0.177
-214.538	-98.284	0.328	0.083
-213.523	-67.394	0.183	0.071
-212.509	-200.000	0.057	0.278
-211.494	-100.139	-0.056	-0.014
-210.479	800.000	0.065	0.268
-209.465	210.859	0.137	0.212
-208.450	479.315	-0.116	-0.258
-207.436	352.374	-0.074	-0.144
-206.421	-121.085	0.162	0.027
-205.406	149.588	0.213	0.284
-204.392	472.156	-0.061	0.136
-203.377	-104.724	0.553	0.126
-202.363	253.181	0.115	-0.193
-201.348	-67.379	0.144	0.056
-200.333	-50.329	-0.130	0.061
-199.319	-76.669	-0.168	-0.058
-198.304	26.509	-0.082	-0.068
-197.290	800.000	-0.044	0.129
-196.275	23.850	-0.206	0.167
-195.260	130.708	0.135	0.171
-194.246	-71.872	-0.189	-0.069
-193.231	-200.000	0.033	0.163
-192.217	195.389	0.103	0.154
-191.202	224.694	-0.064	0.102
-190.187	-73.251	-0.277	-0.100
-189.173	-53.019	-0.095	0.043
-188.158	-200.000	-0.057	-0.346
-187.144	328.866	-0.084	-0.160
-186.129	-187.819	0.134	0.002
-185.114	-159.816	-0.212	0.011
-184.100	800.000	0.029	-0.089
-183.085	800.000	-0.040	-0.150
-182.071	-49.983	0.174	-0.081
-181.056	92.959	-0.089	0.099
-180.042	88.749	0.034	-0.037
-179.027	168.489	-0.095	0.134
-178.012	-187.571	-0.163	-0.002
-176.998	344.894	-0.088	-0.171
-175.983	-45.146	0.187	0.092
-174.969	416.305	0.034	-0.070
-173.954	-35.574	0.056	-0.030
-172.939	44.218	0.141	0.127
-171.925	33.841	0.123	0.105
-170.910	-200.000	0.030	-0.252
-169.896	800.000	-0.078	0.324
-168.881	-23.909	-0.102	0.060
-167.866	145.541	0.253	0.334
-166.852	-19.814	0.161	-0.098
-165.837	-45.420	-0.052	-0.025
-164.823	178.670	0.129	-0.186
-163.808	-200.000	-0.044	-0.189
-162.793	-127.121	-0.044	-0.006
-161.779	-88.223	0.157	-0.046
-160.764	800.000	0.083	-0.233
-159.750	86.474	0.171	0.186
-158.735	-54.275	0.079	0.035
-157.720	25.149	-0.189	-0.154
-156.706	-200.000	-0.002	-0.259
-155.691	175.779	0.187	-0.266
-154.677	256.131	0.180	-0.304
-153.662	-174.760	0.441	0.012
-152.647	249.762	0.057	0.094
-151.633	-200.000	0.005	-0.134
-150.618	61.489	-0.207	0.203
-149.604	-200.000	-0.017	0.426
-148.589	146.960	-0.172	-0.227
-147.574	800.000	0.032	-0.136
-146.560	551.791	-0.074	-0.175
-145.545	-173.306	-0.385	0.012
-144.531	-116.573	-0.380	-0.069
-143.516	275.686	-0.075	0.131
-142.502	18.293	-0.342	-0.268
-141.487	-60.697	-0.047	-0.020
-140.472	-39.847	0.450	-0.231
-139.458	-200.000	-0.025	0.360
-138.443	-200.000	0.007	0.111
-137.429	-79.779	0.249	0.083
-136.414	-60.487	-0.127	-0.053
-135.399	-93.095	0.294	-0.080
-134.385	89.638	0.079	0.087
-133.370	-58.619	-0.234	-0.100
-132.356	30.197	-0.074	0.062
-131.341	-144.417	0.408	-0.037
-130.326	3.420	-0.262	-0.187
-129.312	-156.075	0.229	0.014
-128.297	-20.282	0.334	-0.202
-127.283	158.285	0.101	0.137
-126.268	50.577	-0.070	0.065
-125.253	800.000	0.052	-0.159
-124.239	-47.760	-0.317	0.151
-123.224	26.746	-0.039	0.032
-122.210	-68.078	0.286	0.110
-121.195	-128.917	0.188	-0.026
-120.180	-200.000	0.016	-0.152
-119.166	-82.205	0.111	-0.036
-118.151	84.354	0.203	-0.218
-117.137	14.314	0.247	-0.189
-116.122	330.415	-0.119	0.225
-115.107	-196.973	-0.242	-0.002
-114.093	435.891	0.163	-0.348
-113.078	-84.847	0.410	0.127
-112.064	52.446	-0.103	0.096
-111.049	800.000	-0.096	0.262
-110.034	-181.952	-0.312	0.006
-109.020	265.409	0.105	0.180
-108.005	-200.000	0.065	0.459
-106.991	99.763	0.303	0.345
-105.976	102.539	-0.089	-0.102
-104.962	-89.989	0.157	0.045
-103.947	-200.000	-0.020	-0.228
-102.932	-37.800	0.136	-0.071
-101.918	49.225	-0.196	-0.181
-100.903	48.705	0.066	-0.061
-99.889	-35.977	-0.143	-0.076
-98.874	-200.000	0.043	-0.190
-97.859	-28.463	0.136	0.077
-96.845	-21.839	0.094	0.056
-95.830	210.155	0.166	0.256
-94.816	480.517	-0.137	0.304
-93.801	-37.803	0.225	-0.118
-92.786	-98.504	0.313	-0.079
-91.772	320.925	0.051	-0.095
-90.757	8.049	0.296	0.218
-89.743	-32.920	0.293	-0.160
-88.728	-1.025	0.126	0.088
-87.713	-200.000	0.041	0.238
-86.699	306.078	-0.077	-0.140
-85.684	700.075	-0.088	-0.227
-84.670	199.745	0.151	0.227
-83.655	-98.438	0.098	-0.025
-82.640	-200.000	0.002	-0.082
-81.626	-173.556	0.357	-0.011
-80.611	-200.000	-0.020	-0.424
-79.597	-102.775	0.337	0.079
-78.582	146.414	-0.277	0.364
-77.567	-200.000	0.038	0.225
-76.553	-89.820	0.346	-0.099
-75.538	-85.916	0.145	0.044
-74.524	-86.047	0.145	0.044
-73.509	37.898	-0.152	0.132
-72.494	-80.756	-0.035	0.012
-71.480	67.020	0.118	-0.118
-70.465	-100.222	0.185	-0.045
-69.451	800.000	-0.047	0.168
-68.436	352.197	-0.039	-0.076
-67.422	-78.464	0.154	0.052
-66.407	-41.775	-0.122	0.061
-65.392	800.000	-0.173	0.551
-64.378	-147.647	0.239	-0.020
-63.363	211.265	-0.084	-0.130
-62.349	-5.548	0.151	-0.101
-61.334	106.402	-0.985	-1.145
-60.319	-45.816	0.330	0.160
-59.305	-200.000	-0.113	-0.921
-58.290	154.855	0.738	0.995
-57.276	356.769	0.818	1.597
-56.261	-200.000	105.072	609.254
-55.246	501.001	1499.196	3391.010
-54.232	177.397	2694.042	3845.165
-53.217	112.720	2164.899	2568.967
-52.203	41.865	1597.093	1419.103
-51.188	33.190	1330.301	1130.429
-50.173	30.035	1289.457	1077.365
-49.159	53.950	1342.900	1264.592
-48.144	54.776	1358.625	1284.246
-47.130	33.392	1313.475	1117.145
-46.115	29.717	1296.496	1081.216
-45.100	29.692	1290.941	1076.393
-44.086	29.548	1288.769	1073.701
-43.071	29.526	1286.308	1071.484
-42.057	29.507	1284.061	1069.459
-41.042	29.591	1282.242	1068.389
-40.027	29.610	1281.135	1067.529
-39.013	29.571	1279.547	1065.942
-37.998	29.599	1277.599	1064.437
-36.984	29.655	1275.880	1063.282
-35.969	29.789	1273.795	1062.277
-34.954	29.720	1272.018	1060.354
-33.940	29.693	1270.984	1059.298
-32.925	29.719	1269.864	1058.467
-31.911	29.754	1268.373	1057.387
-30.896	29.790	1266.832	1056.264
-29.881	29.875	1264.913	1055.109
-28.867	29.798	1263.401	1053.364
-27.852	29.723	1262.820	1052.412
-26.838	29.856	1261.206	1051.784
-25.823	29.788	1259.834	1050.209
-24.809	29.698	1258.775	1048.776
-23.794	29.801	1257.071	1047.896
-22.779	29.778	1255.962	1046.800
-21.765	29.861	1254.425	1045.944
-20.750	29.874	1253.269	1045.017
-19.736	29.734	1252.179	1043.274
-18.721	29.601	1251.143	1041.623
-17.706	29.528	1250.162	1040.351
-16.692	29.696	1248.658	1040.001
-15.677	29.651	1247.908	1039.082
-14.663	29.516	1246.912	1037.453
-13.648	29.641	1245.268	1036.750
-12.633	29.730	1244.309	1036.410
-11.619	29.643	1243.543	1035.241
-10.604	29.625	1243.031	1034.672
-9.590	29.652	1241.691	1033.666
-8.575	29.553	1241.080	1032.561
-7.560	29.551	1240.509	1032.038
-6.546	29.489	1239.655	1030.937
-5.531	29.642	1238.559	1030.838
-4.517	29.505	1237.830	1029.430
-3.502	29.622	1236.731	1029.126
-2.487	29.563	1235.960	1028.116
-1.473	29.531	1232.129	1024.710
-0.458	28.389	1217.060	1005.873
0.556	22.724	1200.586	970.712
1.571	19.371	1205.906	956.361
2.586	18.613	1220.080	963.261
3.600	18.474	1209.529	954.073
4.615	13.700	1138.755	873.092
5.629	4.870	1064.101	772.171
6.644	0.162	1043.896	734.506
7.659	-0.183	1040.962	730.699
8.673	-0.303	1039.409	728.961
9.688	-0.365	1038.102	727.678
10.702	0.258	1036.949	729.827
11.717	6.223	1045.387	764.765
12.731	15.246	1058.134	818.257
13.746	19.639	1063.989	844.227
14.761	20.892	1064.848	850.954
15.775	20.917	1064.182	850.473
16.790	20.723	1063.492	848.897
17.804	20.607	1063.172	848.000
18.819	20.746	1062.828	848.331
19.834	20.876	1062.247	848.423
20.848	20.799	1061.712	847.548
21.863	20.890	1061.202	847.509
22.877	20.894	1060.334	846.760
23.892	20.722	1059.796	845.416
24.907	20.868	1058.913	845.346
25.921	20.786	1057.875	844.047
26.936	20.684	1056.548	842.422
27.950	20.723	1054.893	841.216
28.965	20.613	1053.110	839.185
29.980	20.648	1051.701	838.158
30.994	20.890	1050.782	838.520
32.009	20.794	1049.532	836.986
33.023	20.686	1048.148	835.290
34.038	20.737	1047.863	835.231
35.053	20.864	1047.013	835.090
36.067	20.904	1046.043	834.435
37.082	20.904	1045.369	833.823
38.096	20.995	1044.868	833.782
39.111	21.093	1044.058	833.534
40.126	20.896	1042.863	831.565
41.140	20.619	1040.681	828.431
42.155	20.374	1039.510	826.261
43.169	20.440	1038.163	825.428
44.184	20.720	1037.125	825.862
45.199	20.435	1036.519	823.953
46.213	20.476	1035.640	823.374
47.228	20.634	1034.831	823.410
48.242	20.682	1034.029	822.926
49.257	20.665	1033.083	822.016
50.271	20.843	1032.751	822.521
51.286	20.907	1031.902	822.073
52.301	20.895	1030.758	821.032
53.315	20.846	1029.779	819.949
54.330	20.787	1029.307	819.223
55.344	20.892	1028.394	818.920
56.359	20.760	1027.005	817.120
57.374	20.547	1026.387	815.556
58.388	20.745	1025.123	815.407
59.403	20.534	1024.792	814.088
60.417	20.511	1023.629	812.981
61.432	20.556	1023.206	812.784
62.447	20.649	1022.548	812.626
63.461	20.599	1021.745	811.679
64.476	20.621	1020.390	810.633
65.490	20.531	1019.667	809.572
66.505	20.606	1018.616	809.013
67.520	20.633	1018.136	808.688
68.534	20.427	1017.464	807.123
69.549	20.092	1016.056	804.379
70.563	20.251	1015.119	804.304
71.578	20.020	1014.477	802.655
72.593	20.086	1013.373	802.018
73.607	20.402	1012.610	802.800
74.622	20.475	1012.681	803.126
75.636	20.428	1011.993	802.291
76.651	20.243	1010.829	800.442
77.666	20.196	1010.345	799.774
78.680	20.313	1009.261	799.385
79.695	20.410	1008.762	799.362
80.709	20.448	1007.903	798.786
81.724	20.385	1007.332	797.974
82.739	20.575	1006.268	797.931
83.753	20.832	1005.903	798.752
84.768	21.120	1004.632	798.989
85.782	21.081	1004.328	798.498
86.797	20.964	1003.356	797.120
87.812	20.929	1001.768	795.630
88.826	20.875	1001.461	795.069
89.841	20.963	1000.587	794.703
90.855	21.068	999.363	794.139
91.870	20.951	998.583	792.919
92.884	20.800	997.522	791.317
93.899	20.813	996.141	790.215
94.914	21.058	995.199	790.504
95.928	20.844	994.258	788.719
96.943	20.572	993.181	786.566
97.957	20.341	991.823	784.375
98.972	20.272	990.699	783.109
99.987	20.450	990.490	783.678
101.001	20.684	989.540	783.908
102.016	20.722	988.336	783.057
103.030	20.627	987.300	781.741
104.045	20.453	986.354	780.139
105.060	20.401	985.404	779.087
106.074	20.527	985.277	779.481
107.089	20.961	984.020	780.364
108.103	20.793	983.434	779.075
109.118	20.548	982.095	776.850
110.133	20.514	981.280	775.985
111.147	20.299	979.885	773.855
112.162	20.239	979.026	772.841
113.176	20.466	978.075	773.034
114.191	20.409	977.158	771.987
115.206	20.134	975.923	769.721
116.220	20.162	975.437	769.397
117.235	20.270	974.617	769.157
118.249	20.332	973.722	768.660
119.264	20.225	972.900	767.467
120.279	20.150	972.272	766.576
121.293	20.336	970.986	766.311
122.308	20.479	969.806	765.947
123.322	20.326	968.801	764.412
124.337	20.200	967.042	762.402
125.352	19.667	965.619	758.872
126.366	19.458	965.549	757.833
127.381	20.432	964.695	761.364
128.395	20.855	964.269	762.815
129.410	20.843	963.340	761.959
130.424	20.812	962.562	761.143
131.439	20.740	961.610	760.008
132.454	20.728	960.646	759.124
133.468	20.515	960.456	757.978
134.483	20.854	958.839	758.113
135.497	20.892	958.122	757.641
136.512	21.022	957.286	757.478
137.527	21.032	956.526	756.856
138.541	20.928	956.419	756.253
139.556	21.005	955.195	755.550
140.570	21.097	954.356	755.220
141.585	21.003	953.377	753.968
142.600	20.881	952.536	752.712
143.614	21.072	951.789	752.880
144.629	21.283	950.923	753.036
145.643	21.126	949.464	751.137
146.658	20.842	948.429	749.031
147.673	20.807	947.414	748.013
148.687	20.797	946.519	747.198
149.702	20.640	945.434	745.602
150.716	20.767	944.501	745.346
151.731	20.772	943.785	744.736
152.746	21.064	943.109	745.386
153.760	21.095	942.408	744.897
154.775	21.177	941.873	744.757
155.789	21.166	941.152	744.074
156.804	21.116	940.196	743.041
157.819	21.154	939.521	742.605
158.833	21.186	938.592	741.941
159.848	21.358	937.275	741.561
160.862	21.073	936.120	739.376
161.877	21.267	935.091	739.320
162.892	21.217	934.689	738.722
163.906	21.189	933.267	737.415
164.921	21.097	932.899	736.670
165.935	21.232	931.639	736.179
166.950	21.219	930.706	735.321
167.964	21.065	930.340	734.321
168.979	21.147	928.490	733.141
169.994	21.014	927.749	731.930
171.008	21.194	927.460	732.395
172.023	21.149	926.826	731.640
173.037	20.892	925.302	729.297
174.052	20.813	924.534	728.297
175.067	20.937	923.882	728.238
176.081	21.143	922.929	728.281
177.096	20.937	922.496	727.015
178.110	20.799	921.132	725.302
179.125	20.429	920.896	723.511
180.140	20.650	920.174	723.797
181.154	20.606	920.467	723.781
182.169	20.986	920.240	725.122
183.183	21.187	919.903	725.627
184.198	20.973	918.630	723.668
185.213	21.030	917.977	723.325
186.227	21.218	916.790	723.109
187.242	21.111	916.381	722.276
188.256	21.208	915.816	722.170
189.271	21.228	914.917	721.480
190.286	21.019	913.444	719.393
191.300	20.516	912.112	716.208
192.315	19.683	910.945	711.799
193.329	19.575	910.626	711.042
194.344	20.453	911.112	714.972
195.359	20.964	911.105	717.004
196.373	21.128	910.118	716.841
197.388	20.894	909.584	715.397
198.402	20.835	909.371	714.922
199.417	20.977	908.508	714.763
200.432	20.724	907.364	712.763
201.446	20.554	906.673	711.463
202.461	20.680	906.101	711.466
203.475	19.702	904.432	706.100
204.490	19.149	903.020	702.676
205.504	19.999	903.613	706.544
206.519	20.512	903.382	708.395
207.534	20.665	902.806	708.503
208.548	21.091	902.828	710.191
209.563	20.813	901.476	707.935
210.577	20.719	901.444	707.465
211.592	21.276	900.575	708.981
212.607	21.263	899.429	707.963
213.621	21.297	899.083	707.765
214.636	21.355	898.466	707.455
215.650	21.224	897.504	706.104
216.665	21.330	897.008	706.080
217.680	21.297	895.916	705.024
218.694	20.755	894.960	702.026
219.709	20.714	894.336	701.306
220.723	20.967	893.942	701.955
221.738	20.992	893.613	701.737
222.753	20.910	893.352	701.139
223.767	20.984	892.767	700.914
224.782	21.360	892.377	702.058
225.796	21.171	891.733	700.731
226.811	20.533	890.477	697.123
227.826	20.050	889.125	694.069
228.840	20.222	888.326	694.073
229.855	20.354	887.542	693.928
230.869	19.914	886.513	691.301
231.884	20.513	886.679	693.765
232.899	21.057	887.167	696.255
233.913	20.936	886.080	694.857
234.928	21.020	885.559	694.724
235.942	21.026	884.592	693.926
236.957	20.769	883.955	692.344
237.972	20.780	883.577	692.030
238.986	20.760	882.932	691.384
240.001	20.782	882.407	690.998
241.015	20.897	881.877	690.980
242.030	20.965	881.457	690.860
243.045	21.146	880.853	691.042
244.059	21.201	880.419	690.858
245.074	20.955	879.626	689.201
246.088	20.723	878.429	687.285
247.103	21.052	877.882	688.097
248.117	21.560	878.377	690.426
249.132	21.649	877.807	690.269
250.147	21.696	876.996	689.756
251.161	21.864	876.592	690.036
252.176	21.749	876.194	689.212
253.190	21.757	875.410	688.563
254.205	21.971	875.045	689.054
255.220	22.048	874.090	688.545
256.234	21.970	873.356	687.601
257.249	21.767	872.692	686.224
258.263	21.920	871.824	686.076
259.278	21.915	871.425	685.684
260.293	21.815	871.186	685.043
261.307	21.805	870.098	684.087
262.322	21.698	869.059	682.794
263.336	20.897	867.187	678.147
264.351	19.784	865.872	672.730
265.366	20.007	865.505	673.252
266.380	21.033	866.014	677.577
267.395	21.554	865.734	679.321
268.409	21.507	864.989	678.495
269.424	21.615	864.430	678.415
270.439	21.668	864.004	678.227
271.453	21.839	863.342	678.306
272.468	22.058	862.875	678.727
273.482	22.018	862.306	678.066
274.497	21.677	861.212	675.831
275.512	21.226	860.390	673.385
276.526	21.660	860.593	675.157
277.541	21.813	860.241	675.410
278.555	21.629	859.113	673.758
279.570	21.487	857.901	672.202
280.585	21.545	857.970	672.419
281.599	21.561	856.990	671.653
282.614	20.959	855.823	668.372
283.628	21.043	855.244	668.182
284.643	21.339	855.080	669.129
285.657	21.135	853.519	667.071
286.672	20.615	853.239	664.805
287.687	21.280	853.232	667.281
288.701	21.333	852.271	666.672
289.716	21.035	851.651	664.991
290.730	21.075	850.805	664.427
291.745	20.765	850.078	662.618
292.760	21.010	850.196	663.583
293.774	21.943	850.577	667.372
294.789	22.241	850.205	668.156
295.803	22.357	849.331	667.849
296.818	22.332	848.700	667.199
297.833	21.775	848.081	664.543
298.847	21.729	847.237	663.648
299.862	22.113	846.875	664.758
300.876	22.291	846.504	665.081
301.891	22.184	845.681	663.974
302.906	21.756	844.789	661.598
303.920	21.860	844.660	661.831
304.935	22.220	844.563	663.055
305.949	22.100	843.508	661.718
306.964	21.939	842.907	660.580
307.979	22.107	842.273	660.657
308.993	22.376	842.451	661.749
310.008	22.398	841.272	660.847
311.022	22.147	840.915	659.566
312.037	21.928	840.085	658.034
313.052	21.772	839.396	656.852
314.066	20.878	837.984	652.343
315.081	20.492	837.506	650.472
316.095	21.609	837.444	654.543
317.110	21.857	837.266	655.272
318.125	21.006	836.032	651.073
319.139	20.109	834.434	646.427
320.154	20.071	834.242	646.080
321.168	21.063	834.348	649.799
322.183	21.636	834.190	651.754
323.197	21.905	834.030	652.572
324.212	21.950	833.909	652.587
325.227	21.988	833.350	652.233
326.241	21.838	832.485	650.939
327.256	21.992	831.630	650.787
328.270	21.844	830.947	649.644
329.285	21.449	830.210	647.549
330.300	21.493	829.386	647.012
331.314	21.634	829.215	647.345
332.329	21.979	829.105	648.474
333.343	22.041	828.667	648.302
334.358	22.099	827.969	647.914
335.373	22.174	828.249	648.352
336.387	22.373	828.009	648.840
337.402	22.582	827.889	649.460
338.416	22.436	827.466	648.534
339.431	22.482	826.968	648.253
340.446	22.752	826.494	648.817
341.460	22.559	826.193	647.814
342.475	22.455	825.313	646.685
343.489	22.435	825.324	646.562
344.504	22.789	824.756	647.358
345.519	22.905	824.644	647.640
346.533	22.971	824.284	647.543
347.548	22.896	823.850	646.867
348.562	22.974	823.164	646.558
349.577	22.852	822.402	645.457
350.592	22.928	821.856	645.249
351.606	23.091	820.667	644.853
352.621	22.740	819.939	642.944
353.635	22.598	819.406	641.953
354.650	21.872	818.181	638.296
355.665	20.957	816.563	633.653
356.679	21.522	816.529	635.622
357.694	21.999	816.335	637.148
358.708	21.858	815.475	635.910
359.723	22.232	815.729	637.405
360.738	22.470	815.111	637.730
361.752	22.731	814.574	638.195
362.767	22.914	814.356	638.631
363.781	23.118	813.709	638.805
364.796	23.418	813.073	639.332
365.810	23.249	813.073	638.666
366.825	23.248	812.500	638.154
367.840	22.937	811.713	636.361
368.854	22.514	811.059	634.267
369.869	22.644	810.585	634.308
370.883	22.591	810.312	633.850
371.898	22.477	809.725	632.925
372.913	22.697	809.273	633.306
373.927	22.828	808.811	633.357
374.942	22.891	808.498	633.282
375.956	22.916	808.333	633.185
376.971	23.067	807.881	633.314
377.986	23.209	807.595	633.543
379.000	23.145	806.914	632.726
380.015	23.020	806.223	631.681
381.029	23.120	805.798	631.648
382.044	23.165	805.406	631.448
383.059	23.180	804.875	631.029
384.073	23.192	804.472	630.700
385.088	23.188	803.554	629.908
386.102	22.854	802.821	628.091
387.117	22.917	802.326	627.870
388.132	22.706	800.763	625.846
389.146	22.199	799.881	623.302
390.161	22.563	800.197	624.786
391.175	22.866	800.005	625.654
392.190	22.508	798.721	623.328
393.205	21.340	796.718	617.584
394.219	19.894	795.053	611.135
395.234	19.913	794.885	611.022
396.248	21.555	796.239	617.809
397.263	22.997	797.105	623.515
398.278	22.724	796.658	622.150
399.292	22.585	796.200	621.246
400.307	22.564	795.540	620.603
401.321	22.602	795.600	620.727
402.336	22.923	795.353	621.609
403.350	23.274	795.110	622.600
404.365	23.671	794.971	623.830
405.380	24.028	794.316	624.513
406.394	23.914	793.980	623.794
407.409	23.835	793.407	623.012
408.423	23.680	793.374	622.387
409.438	23.877	792.832	622.598
410.453	23.874	792.349	622.154
411.467	23.856	791.733	621.552
412.482	23.765	791.616	621.088
413.496	23.984	791.384	621.615
414.511	23.877	790.934	620.834
415.526	23.924	790.258	620.411
416.540	23.859	789.396	619.453
417.555	23.428	788.868	617.484
418.569	23.504	788.728	617.582
419.584	23.564	787.829	617.035
420.599	23.426	787.214	616.018
421.613	157.387	1365.822	1798.667
422.628	136.163	1450.131	1798.748
