DTS Sentinel unit serial number:	SN413079Multiplexer serial number:	ORYXHardware model number:	OX4-SRSoftware version number:	ORYX F/W v4.00 Oryx Data Collector v3.7.2.0data status	okinstallation	princeton_trtdifferential loss correction	single-endedforward channel	channel 1reverse channel	N/Adate	2019/09/11time	04:00:11forward acquisition time	60.00reverse acquisition time	0.00gamma	496.2192k internal	0.2331k external	0.2331temperature offset calibration	0.9927default loss term (dB/km)	0.3790temperature slope calibration	1.0000multiplexer offset coefficient	1.0000multiplexer slope coefficient	1.0000fibre end	0.00T internal ref (°C)	29.56T ext. ref 1 (°C)	-0.28T ext. ref 2 (°C)	23.81length (m)	temperature (°C)	Stokes	anti-Stokes-747.200	114.329	0.032	-0.039
-746.185	-112.858	0.274	0.055
-745.171	272.006	0.068	0.122
-744.156	800.000	0.094	-0.269
-743.142	-163.003	-0.152	0.007
-742.127	-106.405	-0.240	-0.054
-741.112	521.250	-0.133	-0.313
-740.098	-77.018	0.122	-0.043
-739.083	800.000	-0.053	-0.213
-738.069	800.000	0.042	0.135
-737.054	-7.494	0.172	0.117
-736.039	154.279	-0.145	0.200
-735.025	197.173	-0.189	-0.291
-734.010	-93.784	0.249	-0.069
-732.996	-200.000	0.027	-0.148
-731.981	-200.000	0.068	-0.301
-730.966	-200.000	0.021	-0.287
-729.952	-40.898	-0.112	-0.058
-728.937	-28.443	-0.244	0.141
-727.923	800.000	0.080	0.286
-726.908	-89.332	-0.209	-0.062
-725.894	800.000	0.050	-0.213
-724.879	177.604	-0.105	-0.154
-723.864	0.863	-0.139	-0.100
-722.850	-72.204	0.292	0.109
-721.835	-200.000	0.017	-0.176
-720.821	664.409	0.057	-0.148
-719.806	800.000	-0.028	-0.093
-718.791	43.945	0.197	0.182
-717.777	-200.000	0.070	-0.000
-716.762	-118.418	0.156	0.028
-715.748	732.562	-0.011	-0.031
-714.733	800.000	0.037	-0.133
-713.718	-163.817	-0.202	-0.010
-712.704	37.169	-0.180	-0.161
-711.689	-79.619	-0.314	0.107
-710.675	168.874	0.077	0.111
-709.660	233.811	0.094	-0.156
-708.645	-109.155	-0.139	-0.030
-707.631	-80.578	0.074	0.025
-706.616	800.000	0.051	-0.224
-705.602	-138.059	-0.273	0.031
-704.587	-107.987	-0.250	-0.055
-703.572	681.841	0.062	-0.161
-702.558	-120.379	0.020	-0.003
-701.543	-200.000	-0.010	-0.112
-700.529	16.526	-0.151	-0.120
-699.514	-49.169	-0.088	-0.042
-698.499	139.107	0.239	-0.316
-697.485	-200.000	-0.003	-0.292
-696.470	-66.484	-0.320	-0.128
-695.456	-61.474	0.238	0.101
-694.441	-19.997	0.046	-0.028
-693.426	-68.660	0.272	0.106
-692.412	321.415	0.180	0.345
-691.397	96.363	-0.243	0.279
-690.383	-200.000	0.002	-0.064
-689.368	103.988	-0.146	-0.172
-688.354	-13.462	-0.334	-0.217
-687.339	-60.655	0.144	-0.061
-686.324	-40.342	0.142	0.074
-685.310	114.824	-0.077	-0.094
-684.295	160.410	0.218	-0.306
-683.281	82.655	-0.082	0.089
-682.266	157.983	0.094	0.131
-681.251	-63.731	0.264	-0.109
-680.237	113.533	-0.130	-0.158
-679.222	-200.000	-0.005	-0.056
-678.208	228.895	0.057	-0.094
-677.193	59.121	0.250	-0.247
-676.178	-177.996	-0.074	0.002
-675.164	800.000	-0.051	-0.153
-674.149	649.901	0.140	-0.359
-673.135	196.240	0.215	-0.328
-672.120	-140.948	-0.207	0.021
-671.105	800.000	0.055	-0.163
-670.091	-119.944	-0.208	-0.036
-669.076	800.000	-0.099	0.336
-668.062	582.272	-0.084	-0.206
-667.047	800.000	0.057	0.220
-666.032	-200.000	0.007	-0.339
-665.018	-200.000	-0.001	-0.142
-664.003	734.422	-0.121	-0.326
-662.989	-24.910	0.198	-0.118
-661.974	-200.000	-0.009	-0.137
-660.959	-17.773	-0.120	-0.076
-659.945	-106.873	-0.055	0.012
-658.930	800.000	0.052	0.148
-657.916	-88.277	-0.283	-0.085
-656.901	-200.000	-0.034	-0.231
-655.886	-200.000	-0.025	0.129
-654.872	800.000	-0.016	0.053
-653.857	152.632	0.121	0.166
-652.843	115.557	-0.071	0.087
-651.828	-200.000	-0.004	-0.157
-650.814	160.506	-0.132	-0.184
-649.799	-154.504	-0.201	0.013
-648.784	123.806	-0.148	0.186
-647.770	-48.010	-0.078	0.038
-646.755	-33.868	-0.227	0.125
-645.741	-2.058	0.277	0.195
-644.726	800.000	-0.132	0.393
-643.711	-78.151	0.388	0.134
-642.697	280.600	0.123	0.220
-641.682	48.620	0.252	-0.236
-640.668	800.000	0.047	0.196
-639.653	-80.918	-0.166	-0.055
-638.638	110.654	-0.091	-0.109
-637.624	-56.284	-0.384	-0.171
-636.609	-97.220	-0.469	-0.123
-635.595	-148.339	0.243	0.020
-634.580	200.182	-0.016	-0.024
-633.565	-200.000	-0.080	-0.385
-632.551	800.000	-0.050	0.150
-631.536	-200.000	-0.005	-0.064
-630.522	-9.150	0.357	0.239
-629.507	-54.868	0.316	-0.143
-628.492	-148.869	-0.040	0.003
-627.478	-200.000	0.025	0.398
-626.463	-200.000	-0.058	-0.346
-625.449	-150.519	-0.721	0.055
-624.434	-93.751	0.260	0.072
-623.419	33.938	-0.132	-0.115
-622.405	141.572	0.126	0.167
-621.390	-200.000	0.011	0.069
-620.376	-200.000	0.003	-0.061
-619.361	-200.000	0.012	-0.101
-618.346	-44.829	-0.170	-0.085
-617.332	3.333	0.087	0.063
-616.317	33.416	0.417	0.363
-615.303	34.541	-0.140	0.122
-614.288	487.861	0.081	0.184
-613.273	173.664	0.062	-0.090
-612.259	800.000	-0.073	-0.228
-611.244	236.719	0.023	0.039
-610.230	-200.000	-0.000	-0.162
-609.215	-200.000	0.022	0.198
-608.201	-200.000	0.006	0.060
-607.186	-200.000	0.089	-0.432
-606.171	800.000	0.056	-0.173
-605.157	-200.000	0.021	0.314
-604.142	102.806	0.336	-0.394
-603.128	235.636	0.129	-0.213
-602.113	-153.656	0.061	-0.004
-601.098	206.365	-0.258	-0.402
-600.084	557.596	0.097	-0.234
-599.069	-200.000	0.041	0.373
-598.055	800.000	-0.124	0.346
-597.040	-15.186	-0.222	-0.142
-596.025	-200.000	-0.032	-0.383
-595.011	800.000	-0.072	-0.283
-593.996	294.348	0.093	0.169
-592.982	800.000	-0.066	-0.259
-591.967	-200.000	-0.047	0.315
-590.952	86.447	0.187	-0.206
-589.938	265.940	0.194	-0.339
-588.923	-9.193	0.192	0.129
-587.909	-96.888	-0.052	0.014
-586.894	98.097	0.124	-0.143
-585.879	33.061	-0.065	-0.057
-584.865	800.000	-0.051	-0.141
-583.850	800.000	0.046	0.175
-582.836	146.118	-0.178	0.239
-581.821	183.941	-0.082	0.122
-580.806	116.944	-0.168	0.206
-579.792	174.543	0.081	0.117
-578.777	639.818	0.059	-0.151
-577.763	800.000	-0.087	-0.295
-576.748	-200.000	0.002	-0.224
-575.733	-127.786	-0.111	0.016
-574.719	453.713	-0.041	0.092
-573.704	34.596	0.220	0.192
-572.690	22.613	0.029	0.024
-571.675	-95.633	-0.103	0.027
-570.661	74.905	-0.206	0.217
-569.646	699.254	-0.130	0.343
-568.631	134.311	0.228	-0.295
-567.617	-147.305	-0.221	-0.019
-566.602	-122.380	-0.157	0.026
-565.588	800.000	-0.088	-0.285
-564.573	90.766	0.269	-0.302
-563.558	-200.000	-0.019	-0.181
-562.544	4.484	-0.172	-0.126
-561.529	800.000	-0.096	-0.286
-560.515	38.336	-0.414	-0.369
-559.500	-17.603	0.341	0.214
-558.485	797.513	-0.045	-0.123
-557.471	102.470	-0.125	-0.146
-556.456	-143.945	0.064	0.006
-555.442	779.736	-0.042	0.115
-554.427	800.000	-0.115	0.442
-553.412	-106.667	0.264	0.059
-552.398	-111.518	-0.140	-0.029
-551.383	-94.447	0.197	-0.054
-550.369	800.000	-0.058	-0.216
-549.354	800.000	0.089	-0.257
-548.339	218.918	0.086	-0.138
-547.325	-37.083	-0.153	0.082
-546.310	8.220	-0.258	-0.194
-545.296	109.970	-0.250	0.300
-544.281	191.940	0.088	0.133
-543.266	-200.000	-0.022	-0.112
-542.252	-200.000	-0.008	-0.326
-541.237	14.250	-0.228	0.178
-540.223	-200.000	0.010	-0.055
-539.208	36.975	-0.181	-0.160
-538.193	417.208	0.134	-0.286
-537.179	574.269	0.085	-0.207
-536.164	371.801	0.041	-0.084
-535.150	800.000	-0.170	0.492
-534.135	-97.112	0.092	-0.024
-533.121	34.254	-0.197	-0.171
-532.106	-157.543	-0.283	-0.017
-531.091	226.759	-0.044	0.071
-530.077	-100.245	0.385	-0.095
-529.062	76.293	0.105	0.111
-528.048	24.587	-0.194	-0.160
-527.033	235.817	-0.135	-0.223
-526.018	800.000	0.080	-0.291
-525.004	216.260	-0.132	-0.209
-523.989	245.889	0.058	-0.098
-522.975	-112.424	-0.194	0.039
-521.960	774.957	-0.058	0.158
-520.945	800.000	0.087	-0.294
-519.931	-200.000	-0.012	-0.166
-518.916	-41.520	0.276	-0.142
-517.902	-33.696	-0.142	-0.078
-516.887	103.407	-0.173	0.202
-515.872	800.000	0.066	0.265
-514.858	-200.000	-0.019	0.111
-513.843	-56.126	0.247	-0.110
-512.829	-123.115	0.150	-0.024
-511.814	250.852	-0.168	0.285
-510.799	800.000	0.031	-0.107
-509.785	-193.995	-0.236	-0.002
-508.770	-34.529	-0.043	0.024
-507.756	742.301	0.070	-0.188
-506.741	-79.679	-0.190	0.064
-505.726	370.767	-0.235	0.475
-504.712	-94.943	-0.087	0.024
-503.697	9.621	-0.397	0.300
-502.683	800.000	-0.071	0.235
-501.668	-45.324	0.109	0.054
-500.653	477.826	0.057	-0.129
-499.639	-200.000	0.002	-0.327
-498.624	-147.093	0.089	0.008
-497.610	-50.547	0.345	-0.162
-496.595	-21.316	0.242	0.147
-495.581	-104.658	0.044	0.010
-494.566	-121.965	-0.098	0.016
-493.551	141.027	-0.145	0.191
-492.537	42.479	0.183	-0.166
-491.522	133.823	-0.219	0.283
-490.508	-200.000	0.085	0.414
-489.493	-75.852	0.163	0.058
-488.478	-200.000	0.012	-0.132
-487.464	-64.544	-0.183	-0.074
-486.449	149.729	0.093	-0.125
-485.435	106.353	0.070	-0.083
-484.420	-173.708	-0.409	0.012
-483.405	-41.629	-0.178	-0.091
-482.391	-102.602	0.043	0.010
-481.376	800.000	0.098	0.348
-480.362	-132.510	-0.110	-0.014
-479.347	-138.514	0.232	-0.025
-478.332	119.755	0.158	-0.194
-477.318	-95.904	0.194	0.051
-476.303	160.337	0.118	-0.164
-475.289	14.720	0.128	-0.100
-474.274	-200.000	0.022	0.312
-473.259	-92.556	0.447	0.125
-472.245	-200.000	0.015	-0.214
-471.230	-77.288	-0.026	-0.009
-470.216	-200.000	-0.030	0.212
-469.201	-28.126	0.352	0.203
-468.186	-135.298	-0.190	0.023
-467.172	378.886	-0.146	0.297
-466.157	738.521	-0.141	0.378
-465.143	-119.791	0.108	-0.019
-464.128	-84.818	-0.250	-0.078
-463.113	393.528	0.130	-0.270
-462.099	85.178	0.068	0.075
-461.084	-120.379	-0.243	-0.041
-460.070	25.148	-0.344	0.284
-459.055	668.734	-0.133	-0.343
-458.040	-34.181	-0.056	0.030
-457.026	-181.913	0.197	-0.004
-456.011	-62.681	-0.035	0.014
-454.997	-117.004	-0.234	-0.042
-453.982	-12.447	-0.287	-0.187
-452.968	284.975	0.091	0.164
-451.953	-94.384	0.184	0.050
-450.938	333.593	-0.005	0.009
-449.924	-13.288	0.298	0.193
-448.909	-164.822	-0.112	0.005
-447.895	391.927	0.067	-0.139
-446.880	14.426	-0.418	-0.325
-445.865	-82.185	0.218	-0.071
-444.851	-200.000	0.015	-0.117
-443.836	-47.174	0.227	-0.110
-442.822	800.000	0.044	0.128
-441.807	-7.226	-0.078	-0.052
-440.792	-29.330	-0.220	0.125
-439.778	-71.681	-0.183	0.068
-438.763	-21.065	0.139	-0.085
-437.749	-22.301	-0.052	-0.031
-436.734	185.103	0.205	0.302
-435.719	-57.835	-0.102	-0.044
-434.705	201.580	-0.018	0.027
-433.690	140.833	0.064	-0.084
-432.676	800.000	-0.056	-0.187
-431.661	-135.053	0.308	0.037
-430.646	160.833	-0.072	-0.101
-429.632	-108.079	0.355	-0.077
-428.617	2.287	-0.294	-0.212
-427.603	50.678	-0.171	0.161
-426.588	712.214	-0.027	0.071
-425.573	-127.986	-0.120	0.017
-424.559	24.975	0.127	0.105
-423.544	-63.703	-0.480	0.196
-422.530	-160.467	0.156	0.008
-421.515	279.309	0.130	-0.230
-420.500	45.786	0.058	0.053
-419.486	223.371	-0.206	-0.331
-418.471	193.658	0.084	0.127
-417.457	79.056	-0.082	-0.087
-416.442	-73.424	0.099	-0.036
-415.428	-144.945	-0.376	-0.034
-414.413	56.315	0.174	0.168
-413.398	-71.510	0.347	0.129
-412.384	12.612	0.187	-0.143
-411.369	75.036	0.055	0.058
-410.355	-5.906	-0.155	-0.105
-409.340	64.038	0.225	-0.225
-408.325	47.924	-0.171	0.159
-407.311	-200.000	0.008	0.056
-406.296	81.055	-0.102	-0.109
-405.282	153.187	0.143	-0.194
-404.267	-56.099	-0.121	0.054
-403.252	326.218	0.054	-0.102
-402.238	301.224	0.084	-0.154
-401.223	-200.000	0.015	-0.170
-400.209	108.243	-0.177	0.210
-399.194	-173.184	0.333	-0.010
-398.179	-12.519	0.183	0.119
-397.165	-47.448	0.121	-0.058
-396.150	-200.000	-0.036	0.405
-395.136	24.180	0.073	0.060
-394.121	0.874	0.084	-0.060
-393.106	-64.234	0.140	0.057
-392.092	7.928	0.344	-0.256
-391.077	-200.000	-0.020	0.198
-390.063	752.429	-0.130	-0.349
-389.048	800.000	0.093	-0.307
-388.033	-167.166	-0.218	-0.009
-387.019	-15.850	-0.147	-0.093
-386.004	392.182	0.007	0.015
-384.990	-12.589	0.298	0.193
-383.975	-135.991	0.406	-0.047
-382.960	299.067	-0.097	-0.177
-381.946	-200.000	0.015	0.267
-380.931	800.000	0.042	-0.179
-379.917	800.000	-0.068	0.279
-378.902	800.000	-0.060	0.234
-377.888	-67.316	0.089	0.035
-376.873	67.470	-0.352	-0.357
-375.858	-80.100	0.256	-0.085
-374.844	-43.536	0.224	0.112
-373.829	72.230	0.079	-0.082
-372.815	-15.598	-0.142	0.090
-371.800	-152.519	0.124	-0.009
-370.785	-200.000	-0.043	-0.432
-369.771	-163.823	0.255	0.012
-368.756	-140.605	-0.124	0.013
-367.742	-173.672	-0.271	-0.008
-366.727	-65.225	-0.246	-0.098
-365.712	-71.751	0.014	-0.005
-364.698	-22.538	0.131	-0.079
-363.683	-30.820	0.180	-0.101
-362.669	115.197	-0.103	0.125
-361.654	800.000	0.157	0.537
-360.639	58.526	0.141	0.138
-359.625	58.282	-0.153	0.149
-358.610	800.000	-0.039	-0.133
-357.596	156.791	0.075	0.103
-356.581	444.321	-0.056	0.123
-355.566	3.185	-0.201	0.145
-354.552	255.111	0.279	-0.473
-353.537	-196.484	0.114	-0.001
-352.523	-200.000	-0.087	0.387
-351.508	-200.000	0.019	0.285
-350.493	-39.564	0.150	0.078
-349.479	-200.000	0.079	0.389
-348.464	505.285	-0.070	0.160
-347.450	-101.508	-0.217	-0.052
-346.435	-14.917	-0.170	-0.108
-345.420	487.454	-0.133	-0.302
-344.406	800.000	0.104	0.412
-343.391	247.413	0.062	0.104
-342.377	-72.222	0.092	-0.034
-341.362	800.000	0.079	0.226
-340.348	-119.504	0.075	-0.013
-339.333	-146.539	0.306	0.026
-338.318	43.959	-0.162	-0.147
-337.304	185.080	-0.176	-0.259
-336.289	33.532	-0.198	0.170
-335.275	-49.087	-0.134	0.063
-334.260	-126.432	0.303	-0.045
-333.245	-142.044	-0.365	-0.036
-332.231	-50.691	0.104	-0.048
-331.216	-156.174	0.245	0.015
-330.202	285.152	0.183	-0.326
-329.187	59.560	-0.106	0.104
-328.172	218.287	-0.145	-0.228
-327.158	-57.888	-0.334	-0.144
-326.143	88.016	-0.078	-0.086
-325.129	299.113	0.101	0.185
-324.114	800.000	0.056	-0.213
-323.099	-90.822	0.313	-0.089
-322.085	-193.061	0.204	-0.002
-321.070	-67.712	-0.300	0.116
-320.056	-145.417	-0.045	-0.004
-319.041	54.232	-0.166	0.158
-318.026	-4.173	0.162	0.111
-317.012	96.746	0.193	-0.218
-315.997	-49.988	-0.330	-0.155
-314.983	-80.598	-0.253	0.083
-313.968	-156.007	-0.317	-0.020
-312.953	1.000	-0.135	0.096
-311.939	-62.209	-0.205	0.085
-310.924	195.300	-0.038	0.057
-309.910	357.561	0.044	-0.086
-308.895	-105.003	0.361	-0.082
-307.880	800.000	-0.023	-0.091
-306.866	-75.406	-0.167	0.059
-305.851	187.693	0.056	0.083
-304.837	-200.000	-0.051	0.278
-303.822	101.265	-0.336	-0.387
-302.807	800.000	0.124	-0.497
-301.793	106.014	0.144	0.168
-300.778	-79.075	0.198	0.066
-299.764	422.387	0.234	0.498
-298.749	100.169	-0.145	0.167
-297.735	-191.262	-0.291	0.003
-296.720	-200.000	0.056	0.248
-295.705	-55.911	-0.250	-0.110
-294.691	759.128	-0.055	0.147
-293.676	800.000	-0.060	-0.164
-292.662	120.536	0.260	0.320
-291.647	15.428	0.022	-0.017
-290.632	-200.000	-0.116	-0.504
-289.618	534.607	-0.093	0.218
-288.603	706.580	-0.292	0.762
-287.589	-103.345	0.573	-0.134
-286.574	-88.454	0.196	0.058
-285.559	-200.000	-0.027	0.140
-284.545	168.147	-0.082	0.116
-283.530	-20.446	-0.269	-0.164
-282.516	-200.000	-0.030	-0.247
-281.501	-200.000	0.038	-0.271
-280.486	40.822	-0.138	0.123
-279.472	46.114	0.146	-0.133
-278.457	485.088	-0.077	-0.173
-277.443	428.474	-0.004	-0.009
-276.428	231.240	0.102	0.165
-275.413	504.803	-0.082	0.188
-274.399	-200.000	0.014	-0.101
-273.384	-3.978	0.101	0.069
-272.370	-200.000	0.061	-0.266
-271.355	-60.504	0.407	0.171
-270.340	-91.150	-0.102	0.029
-269.326	-156.914	0.334	-0.020
-268.311	416.822	0.167	0.351
-267.297	800.000	-0.136	0.449
-266.282	800.000	-0.027	-0.113
-265.267	7.494	-0.338	-0.249
-264.253	113.105	0.118	0.142
-263.238	173.206	0.213	0.303
-262.224	-71.747	-0.394	0.145
-261.209	-79.089	-0.153	0.051
-260.195	-200.000	-0.041	0.185
-259.180	318.549	-0.052	0.098
-258.165	-200.000	0.008	-0.061
-257.151	-137.888	0.183	-0.020
-256.136	800.000	-0.031	-0.125
-255.122	172.850	-0.219	0.311
-254.107	-200.000	0.009	-0.223
-253.092	800.000	-0.038	-0.132
-252.078	-70.622	0.455	0.170
-251.063	-66.538	-0.195	0.077
-250.049	396.720	0.115	-0.238
-249.034	98.795	0.047	-0.053
-248.019	-194.063	0.325	0.003
-247.005	58.843	0.142	0.138
-245.990	-176.036	-0.194	-0.005
-244.976	-16.342	-0.199	0.124
-243.961	-45.838	-0.173	-0.084
-242.946	-200.000	-0.017	0.102
-241.932	-200.000	-0.033	-0.147
-240.917	5.591	-0.123	-0.090
-239.903	-128.138	0.334	0.047
-238.888	-159.826	-0.090	0.005
-237.873	16.713	-0.203	0.159
-236.859	-178.594	0.243	-0.006
-235.844	112.778	-0.059	0.071
-234.830	471.635	-0.033	0.074
-233.815	585.559	0.021	0.051
-232.800	-40.375	0.046	-0.024
-231.786	-200.000	-0.011	0.188
-230.771	-71.539	-0.160	0.059
-229.757	-200.000	0.010	-0.404
-228.742	-154.327	-0.009	-0.001
-227.727	3.709	-0.250	-0.180
-226.713	99.727	0.022	-0.025
-225.698	-200.000	0.013	0.062
-224.684	-200.000	-0.032	0.143
-223.669	-200.000	0.089	0.581
-222.655	800.000	-0.051	-0.208
-221.640	-200.000	0.017	-0.264
-220.625	486.995	-0.074	-0.167
-219.611	357.501	-0.088	0.173
-218.596	-127.736	0.256	0.036
-217.582	8.824	0.133	-0.099
-216.567	-14.007	0.205	-0.130
-215.552	-7.923	-0.267	-0.177
-214.538	96.842	0.041	0.046
-213.523	-200.000	0.038	-0.206
-212.509	636.365	0.083	-0.208
-211.494	-42.472	-0.232	0.117
-210.479	3.253	0.181	0.130
-209.465	380.558	0.070	0.141
-208.450	335.647	-0.106	-0.202
-207.436	-102.216	0.269	0.064
-206.421	-115.296	0.146	-0.027
-205.406	225.387	0.004	0.006
-204.392	-200.000	-0.012	0.119
-203.377	-182.552	-0.147	0.003
-202.363	-200.000	0.012	-0.087
-201.348	83.619	0.041	0.044
-200.333	63.582	-0.065	0.065
-199.319	228.691	0.409	0.657
-198.304	-200.000	0.032	-0.182
-197.290	-29.469	-0.060	0.034
-196.275	-172.603	0.138	0.004
-195.260	-109.958	0.189	-0.039
-194.246	-86.205	-0.047	0.014
-193.231	800.000	0.043	0.147
-192.217	-32.368	0.154	-0.085
-191.202	-19.591	-0.222	-0.135
-190.187	324.895	0.133	-0.251
-189.173	-79.723	-0.101	0.034
-188.158	-200.000	0.022	-0.097
-187.144	296.173	0.049	0.088
-186.129	-139.326	-0.188	-0.020
-185.114	53.532	-0.169	0.159
-184.100	-118.700	-0.139	-0.024
-183.085	-200.000	0.330	0.001
-182.071	-53.128	-0.346	0.156
-181.056	487.231	-0.085	-0.192
-180.042	111.925	0.295	0.351
-179.027	-108.997	0.223	-0.047
-178.012	-200.000	0.067	-0.347
-176.998	-154.671	0.180	-0.012
-175.983	-21.414	0.115	0.069
-174.969	-56.203	-0.391	-0.171
-173.954	-33.902	0.216	0.117
-172.939	675.380	0.064	0.163
-171.925	-31.166	0.031	-0.017
-170.910	8.930	0.207	-0.154
-169.896	-134.002	-0.220	0.027
-168.881	-72.664	-0.206	0.075
-167.866	-52.742	0.265	0.120
-166.852	800.000	-0.003	-0.014
-165.837	184.675	-0.198	0.288
-164.823	800.000	-0.036	-0.128
-163.808	-200.000	0.025	0.118
-162.793	-200.000	0.005	-0.070
-161.779	800.000	-0.069	0.251
-160.764	-178.357	0.322	0.007
-159.750	-119.885	0.210	0.036
-158.735	79.784	0.152	-0.160
-157.720	-124.998	0.315	0.048
-156.706	533.563	-0.046	-0.108
-155.691	-165.890	-0.193	0.008
-154.677	743.689	-0.203	-0.538
-153.662	481.552	-0.192	-0.429
-152.647	-53.516	-0.074	0.033
-151.633	-200.000	0.003	0.136
-150.618	429.277	-0.095	0.202
-149.604	-76.180	-0.080	0.028
-148.589	-200.000	0.021	-0.231
-147.574	-39.352	-0.096	-0.050
-146.560	-87.339	0.243	0.073
-145.545	-118.302	0.123	-0.022
-144.531	-46.479	-0.312	-0.151
-143.516	-160.410	0.199	0.011
-142.502	687.696	0.051	-0.132
-141.487	130.982	-0.014	-0.018
-140.472	-12.077	0.178	0.114
-139.458	232.292	-0.201	-0.324
-138.443	76.965	0.118	-0.123
-137.429	-103.692	-0.057	0.013
-136.414	235.851	0.162	-0.262
-135.399	270.617	0.145	-0.251
-134.385	-87.930	0.178	0.053
-133.370	-26.062	0.193	0.111
-132.356	-135.051	0.084	0.010
-131.341	-200.000	-0.055	-0.297
-130.326	-64.121	0.180	0.072
-129.312	-200.000	0.028	-0.127
-128.297	-38.683	-0.151	0.079
-127.283	8.188	0.353	-0.261
-126.268	-200.000	-0.017	0.126
-125.253	-8.774	-0.265	0.175
-124.239	-200.000	0.002	-0.055
-123.224	-45.232	0.130	-0.063
-122.210	106.303	-0.155	0.180
-121.195	110.212	0.366	-0.432
-120.180	223.853	0.083	0.131
-119.166	20.116	0.143	0.114
-118.151	430.621	-0.038	0.081
-117.137	-139.826	-0.268	-0.028
-116.122	-148.131	-0.247	-0.020
-115.107	-93.664	-0.161	0.044
-114.093	16.020	0.227	0.176
-113.078	375.004	0.065	-0.129
-112.064	800.000	-0.007	0.027
-111.049	800.000	0.063	-0.173
-110.034	265.518	0.117	-0.201
-109.020	-70.433	0.318	-0.118
-108.005	12.239	-0.281	-0.213
-106.991	-64.417	0.184	-0.074
-105.976	59.603	0.216	-0.209
-104.962	-11.199	0.240	-0.155
-103.947	-133.017	-0.156	0.019
-102.932	-200.000	-0.073	0.422
-101.918	-170.194	0.232	-0.008
-100.903	-133.324	0.234	0.029
-99.889	114.287	-0.186	0.222
-98.874	-61.135	-0.162	-0.067
-97.859	717.596	-0.081	-0.210
-96.845	-51.694	-0.072	-0.033
-95.830	268.362	0.030	-0.052
-94.816	-200.000	0.001	-0.260
-93.801	-52.325	0.259	0.118
-92.786	800.000	-0.045	0.125
-91.772	-15.092	0.404	-0.254
-90.757	148.873	-0.190	0.252
-89.743	-15.503	0.375	0.235
-88.728	-21.172	-0.044	-0.026
-87.713	23.246	0.230	0.185
-86.699	-200.000	-0.006	0.068
-85.684	244.917	-0.242	-0.399
-84.670	800.000	0.023	-0.065
-83.655	290.098	-0.159	-0.283
-82.640	112.361	0.107	-0.127
-81.626	275.852	-0.044	0.076
-80.611	-200.000	-0.016	0.111
-79.597	800.000	-0.073	0.262
-78.582	-120.532	-0.226	0.038
-77.567	-29.500	-0.213	-0.119
-76.553	-200.000	0.014	-0.059
-75.538	-200.000	0.005	-0.084
-74.524	300.654	-0.068	0.123
-73.509	-118.334	-0.129	0.023
-72.494	79.939	0.110	-0.116
-71.480	191.384	0.043	-0.063
-70.465	-4.241	-0.051	0.034
-69.451	-98.688	0.315	0.079
-68.436	-33.478	0.146	0.079
-67.422	800.000	0.020	0.079
-66.407	-200.000	-0.002	-0.165
-65.392	70.065	0.201	-0.204
-64.378	182.378	-0.117	-0.169
-63.363	21.362	-0.280	0.223
-62.349	-200.000	0.041	-0.268
-61.334	26.683	-1.174	-0.963
-60.319	383.304	0.474	0.955
-59.305	-200.000	-0.161	-1.054
-58.290	357.085	0.629	1.228
-57.276	218.829	0.913	1.430
-56.261	-200.000	106.025	612.382
-55.246	502.260	1508.332	3414.564
-54.232	176.465	2700.653	3845.062
-53.217	111.815	2165.678	2561.634
-52.203	41.574	1598.037	1417.600
-51.188	33.060	1331.712	1130.632
-50.173	29.982	1290.072	1077.359
-49.159	54.273	1344.482	1267.734
-48.144	54.644	1360.215	1284.717
-47.130	33.180	1315.031	1117.004
-46.115	29.745	1296.943	1081.542
-45.100	29.402	1292.135	1075.488
-44.086	29.439	1289.815	1073.729
-43.071	29.438	1287.243	1071.540
-42.057	29.308	1285.542	1069.327
-41.042	29.384	1283.723	1068.214
-40.027	29.387	1282.326	1067.025
-39.013	29.492	1280.298	1065.904
-37.998	29.477	1278.542	1064.310
-36.984	29.560	1276.420	1062.983
-35.969	29.546	1274.538	1061.290
-34.954	29.575	1272.918	1060.065
-33.940	29.555	1271.711	1058.906
-32.925	29.615	1270.325	1058.054
-31.911	29.708	1269.145	1057.562
-30.896	29.758	1267.429	1056.377
-29.881	29.681	1266.354	1054.997
-28.867	29.662	1264.570	1053.360
-27.852	29.665	1263.340	1052.310
-26.838	29.666	1261.920	1051.090
-25.823	29.613	1261.183	1050.137
-24.809	29.621	1259.520	1048.753
-23.794	29.559	1258.236	1047.293
-22.779	29.630	1257.107	1046.714
-21.765	29.616	1255.631	1045.364
-20.750	29.679	1254.334	1044.600
-19.736	29.709	1252.448	1043.158
-18.721	29.541	1251.826	1041.646
-17.706	29.556	1250.429	1040.531
-16.692	29.552	1249.596	1039.771
-15.677	29.568	1248.458	1038.874
-14.663	29.506	1247.520	1037.702
-13.648	29.502	1246.792	1037.032
-12.633	29.477	1245.344	1035.649
-11.619	29.488	1244.457	1034.933
-10.604	29.467	1243.931	1034.336
-9.590	29.416	1243.125	1033.337
-8.575	29.538	1241.732	1032.821
-7.560	29.521	1241.291	1032.321
-6.546	29.389	1240.417	1030.813
-5.531	29.434	1239.763	1030.481
-4.517	29.509	1238.398	1029.721
-3.502	29.466	1237.592	1028.772
-2.487	29.422	1237.301	1028.243
-1.473	29.560	1232.063	1024.617
-0.458	28.161	1217.554	1004.834
0.556	22.432	1200.459	968.084
1.571	18.941	1206.091	953.221
2.586	18.241	1220.092	960.270
3.600	18.247	1209.229	951.674
4.615	13.839	1138.728	872.975
5.629	4.717	1064.944	771.290
6.644	0.131	1044.341	733.973
7.659	-0.345	1042.158	730.057
8.673	-0.438	1040.799	728.590
9.688	-0.487	1039.433	727.330
10.702	0.013	1038.069	728.737
11.717	6.060	1046.415	764.004
12.731	15.122	1058.780	817.376
13.746	19.598	1064.343	843.508
14.761	20.476	1065.914	848.971
15.775	20.614	1065.175	848.980
16.790	20.404	1064.430	847.285
17.804	20.286	1064.035	846.322
18.819	20.586	1063.309	847.133
19.834	20.534	1062.790	846.389
20.848	20.507	1062.629	846.055
21.863	20.518	1061.910	845.459
22.877	20.398	1061.387	844.388
23.892	20.415	1060.353	843.571
24.907	20.432	1059.981	843.284
25.921	20.579	1058.468	842.719
26.936	20.376	1057.553	840.932
27.950	20.363	1055.742	839.354
28.965	20.308	1053.390	837.147
29.980	20.387	1052.097	836.424
30.994	20.616	1050.911	836.510
32.009	20.453	1050.122	835.021
33.023	20.274	1048.853	833.079
34.038	20.447	1047.826	833.021
35.053	20.570	1047.271	833.097
36.067	20.605	1046.321	832.435
37.082	20.532	1046.148	831.873
38.096	20.679	1045.193	831.741
39.111	20.656	1044.595	831.082
40.126	20.549	1042.993	829.223
41.140	20.308	1041.302	826.662
42.155	20.153	1040.128	824.919
43.169	20.132	1038.931	823.795
44.184	20.144	1037.819	822.896
45.199	20.147	1036.688	821.941
46.213	20.291	1035.828	821.869
47.228	20.357	1034.989	821.446
48.242	20.307	1034.042	820.385
49.257	20.296	1033.773	820.047
50.271	20.550	1032.797	820.396
51.286	20.510	1032.177	819.643
52.301	20.574	1031.108	819.024
53.315	20.490	1030.295	817.911
54.330	20.647	1028.767	817.360
55.344	20.462	1028.508	816.215
56.359	20.440	1027.343	815.116
57.374	20.153	1026.849	813.303
58.388	20.340	1025.500	813.042
59.403	20.277	1024.901	812.196
60.417	20.263	1023.773	811.167
61.432	20.222	1023.332	810.556
62.447	20.235	1022.948	810.238
63.461	20.391	1021.548	809.788
64.476	20.373	1020.496	808.796
65.490	20.154	1020.280	807.535
66.505	20.274	1019.448	807.365
67.520	20.274	1018.700	806.697
68.534	20.087	1017.499	804.809
69.549	19.901	1015.872	802.589
70.563	19.913	1015.476	802.257
71.578	19.917	1014.580	801.499
72.593	19.781	1013.577	800.008
73.607	19.857	1013.241	800.021
74.622	20.212	1013.041	801.434
75.636	20.145	1012.320	800.483
76.651	20.078	1011.110	799.148
77.666	20.003	1010.225	798.030
78.680	20.064	1009.792	797.899
79.695	20.130	1008.807	797.356
80.709	20.198	1008.139	797.068
81.724	20.104	1007.349	795.943
82.739	20.216	1006.939	796.062
83.753	20.629	1005.998	797.138
84.768	20.944	1005.189	797.870
85.782	20.875	1004.386	796.847
86.797	20.564	1003.953	795.012
87.812	20.473	1002.895	793.688
88.826	20.688	1001.596	793.571
89.841	20.704	1001.103	793.182
90.855	20.767	999.872	792.423
91.870	20.762	998.619	791.335
92.884	20.640	997.502	789.829
93.899	20.672	996.845	789.385
94.914	20.790	995.390	788.695
95.928	20.441	995.122	786.834
96.943	20.405	993.980	785.697
97.957	20.011	992.586	782.746
98.972	19.977	991.039	781.304
99.987	20.266	990.756	782.313
101.001	20.482	989.981	782.607
102.016	20.436	989.207	781.718
103.030	20.281	988.349	780.276
104.045	20.200	987.244	778.970
105.060	20.030	986.307	777.399
106.074	20.164	986.288	777.916
107.089	20.682	985.304	779.391
108.103	20.478	984.074	777.438
109.118	20.257	982.643	775.250
110.133	20.298	982.052	774.899
111.147	19.948	980.924	772.377
112.162	20.164	979.420	772.088
113.176	20.159	979.334	771.930
114.191	20.269	978.026	771.321
115.206	19.899	977.237	768.987
116.220	19.885	976.273	768.098
117.235	19.977	975.397	767.747
118.249	20.017	974.266	766.964
119.264	19.894	973.488	765.741
120.279	19.983	973.275	765.901
121.293	20.102	972.204	765.514
122.308	20.223	970.771	764.852
123.322	19.964	970.035	763.062
124.337	19.830	968.167	760.939
125.352	19.451	967.017	758.301
126.366	19.397	966.197	757.355
127.381	20.107	965.870	760.145
128.395	20.441	965.625	761.348
129.410	20.585	964.465	760.998
130.424	20.479	963.576	759.766
131.439	20.538	962.470	759.082
132.454	20.443	961.738	758.025
133.468	20.381	960.685	756.857
134.483	20.511	960.383	757.120
135.497	20.795	959.325	757.452
136.512	20.746	958.482	756.506
137.527	20.869	957.425	756.142
138.541	20.762	956.878	755.177
139.556	20.789	956.300	754.774
140.570	20.769	955.047	753.630
141.585	20.834	953.925	752.960
142.600	20.701	953.082	751.652
143.614	20.883	952.716	752.083
144.629	20.984	951.625	751.591
145.643	20.902	950.502	750.283
146.658	20.617	949.463	748.172
147.673	20.605	948.077	746.964
148.687	20.591	947.257	746.191
149.702	20.589	946.413	745.450
150.716	20.567	945.456	744.538
151.731	20.592	945.110	744.304
152.746	20.854	944.094	744.557
153.760	21.057	943.385	744.798
154.775	20.903	943.230	743.956
155.789	21.010	941.855	743.259
156.804	20.872	941.534	742.356
157.819	20.985	940.206	741.721
158.833	21.017	939.602	741.317
159.848	20.885	938.720	739.995
160.862	20.790	937.890	738.871
161.877	20.872	936.658	738.184
162.892	20.983	935.764	737.881
163.906	20.921	934.721	736.734
164.921	20.818	934.006	735.668
165.935	20.853	932.784	734.790
166.950	20.878	932.222	734.386
167.964	20.933	931.289	733.816
168.979	20.832	930.178	732.454
169.994	20.737	929.394	731.371
171.008	20.898	929.256	731.877
172.023	20.792	928.413	730.701
173.037	20.766	926.919	729.350
174.052	20.628	925.739	727.784
175.067	20.676	925.441	727.683
176.081	20.853	924.999	728.012
177.096	20.780	923.971	726.833
178.110	20.446	923.248	724.805
179.125	20.212	922.660	723.305
180.140	20.518	921.602	723.688
181.154	20.475	921.832	723.625
182.169	20.885	921.263	724.820
183.183	20.713	921.454	724.189
184.198	20.704	920.256	723.148
185.213	20.720	919.715	722.723
186.227	20.896	918.748	722.630
187.242	20.814	918.080	721.702
188.256	20.866	917.342	721.272
189.271	20.915	916.697	720.903
190.286	20.667	915.299	718.714
191.300	20.040	914.081	715.109
192.315	19.428	912.269	711.108
193.329	19.233	912.644	710.533
194.344	20.376	912.510	715.076
195.359	20.764	912.684	716.746
196.373	20.749	911.907	716.011
197.388	20.647	911.335	715.078
198.402	20.674	910.608	714.555
199.417	20.739	910.096	714.356
200.432	20.568	908.903	712.655
201.446	20.290	907.983	710.734
202.461	20.306	907.465	710.330
203.475	19.597	905.625	705.933
204.490	18.759	904.389	701.485
205.504	19.682	905.182	705.807
206.519	20.468	904.319	708.277
207.534	20.377	904.378	707.890
208.548	20.844	903.966	709.407
209.563	20.708	903.120	708.130
210.577	20.645	902.596	707.397
211.592	21.088	902.224	708.846
212.607	20.892	901.066	707.076
213.621	21.011	900.363	706.946
214.636	21.173	899.331	706.727
215.650	20.837	899.168	705.178
216.665	21.048	898.475	705.423
217.680	20.877	897.746	704.099
218.694	20.463	896.277	701.214
219.709	20.382	895.935	700.556
220.723	20.730	895.546	701.594
221.738	20.866	894.668	701.391
222.753	20.645	894.118	700.010
223.767	20.933	893.613	700.710
224.782	20.995	893.489	700.798
225.796	20.957	893.105	700.286
226.811	20.361	891.422	696.514
227.826	19.782	890.122	693.114
228.840	19.927	889.788	693.376
229.855	19.959	889.214	692.996
230.869	19.658	887.939	690.738
231.884	20.091	888.370	692.743
232.899	20.858	888.225	695.629
233.913	20.641	887.030	693.767
234.928	20.677	886.923	693.767
235.942	20.596	886.072	692.716
236.957	20.383	885.199	691.126
237.972	20.588	884.325	691.198
238.986	20.527	884.187	690.787
240.001	20.335	883.656	689.546
241.015	20.603	882.836	689.909
242.030	20.641	882.797	689.970
243.045	20.812	882.018	689.976
244.059	20.966	881.537	690.148
245.074	20.626	880.552	687.973
246.088	20.429	879.437	686.260
247.103	20.636	879.220	686.849
248.117	21.280	879.307	689.399
249.132	21.334	878.721	689.092
250.147	21.493	877.779	688.917
251.161	21.685	877.260	689.204
252.176	21.512	876.774	688.083
253.190	21.560	876.339	687.866
254.205	21.748	875.891	688.193
255.220	21.859	875.047	687.903
256.234	21.574	874.503	686.298
257.249	21.632	873.373	685.578
258.263	21.681	872.803	685.262
259.278	21.689	872.128	684.704
260.293	21.605	871.792	684.049
261.307	21.581	870.957	683.242
262.322	21.352	870.080	681.600
263.336	20.531	867.966	676.689
264.351	19.540	866.356	671.520
265.366	19.770	865.794	671.918
266.380	20.872	866.764	676.899
267.395	21.118	866.290	677.420
268.409	21.091	865.942	676.985
269.424	21.426	864.965	677.461
270.439	21.439	864.484	677.073
271.453	21.501	864.118	676.966
272.468	21.695	863.670	677.305
273.482	21.888	862.768	677.283
274.497	21.317	861.920	674.354
275.512	21.025	860.972	672.429
276.526	21.280	861.313	673.620
277.541	21.584	860.633	674.200
278.555	21.183	859.806	671.947
279.570	21.065	859.295	671.034
280.585	21.191	858.567	670.892
281.599	21.292	857.254	670.194
282.614	20.641	856.054	666.703
283.628	20.736	855.848	666.845
284.643	21.025	855.473	667.602
285.657	20.695	854.317	665.378
286.672	20.495	853.521	663.935
287.687	21.049	853.700	666.134
288.701	20.929	853.087	665.138
289.716	20.628	852.168	663.215
290.730	20.808	851.145	663.047
291.745	20.506	850.077	661.005
292.760	20.752	850.503	662.214
293.774	21.605	850.898	665.710
294.789	21.909	850.734	666.675
295.803	21.989	849.738	666.141
296.818	22.098	849.064	665.967
297.833	21.640	847.818	663.198
298.847	21.408	847.241	661.808
299.862	22.003	846.634	663.523
300.876	22.031	846.601	663.547
301.891	21.934	845.807	662.500
302.906	21.411	845.386	660.135
303.920	21.685	844.668	660.550
304.935	22.031	844.375	661.565
305.949	21.884	843.892	660.576
306.964	21.676	843.009	659.045
307.979	21.610	842.883	658.638
308.993	22.078	842.946	660.391
310.008	22.184	841.487	659.586
311.022	21.912	841.031	658.151
312.037	21.742	840.516	657.052
313.052	21.398	839.794	655.143
314.066	20.521	838.410	650.721
315.081	20.449	837.508	649.694
316.095	21.226	837.789	652.762
317.110	21.639	837.634	654.125
318.125	20.913	835.832	649.954
319.139	19.743	834.797	644.730
320.154	19.777	834.166	644.312
321.168	20.649	834.468	647.736
322.183	21.477	834.286	650.619
323.197	21.557	834.031	650.661
324.212	21.681	833.894	650.956
325.227	21.709	833.429	650.641
326.241	21.611	832.636	649.601
327.256	21.559	831.699	648.619
328.270	21.555	830.796	647.844
329.285	21.422	830.440	647.015
330.300	21.220	829.418	645.417
331.314	21.338	829.240	645.656
332.329	21.970	828.937	647.695
333.343	21.929	828.438	647.098
334.358	21.627	828.368	645.872
335.373	21.902	828.177	646.679
336.387	22.218	827.940	647.602
337.402	22.214	827.960	647.543
338.416	22.283	827.016	647.005
339.431	22.248	827.069	646.858
340.446	22.419	826.786	647.209
341.460	22.066	826.092	645.312
342.475	22.229	825.141	645.109
343.489	22.122	825.187	644.696
344.504	22.508	824.999	645.908
345.519	22.662	824.517	646.036
346.533	22.695	824.083	645.761
347.548	22.638	823.887	645.343
348.562	22.723	823.000	644.901
349.577	22.587	822.421	643.892
350.592	22.519	822.243	643.447
351.606	22.480	821.077	642.337
352.621	22.494	820.212	641.653
353.635	22.489	819.078	640.693
354.650	21.773	817.463	636.772
355.665	20.855	816.323	632.496
356.679	21.396	816.179	634.292
357.694	21.792	815.713	635.308
358.708	21.598	815.268	634.203
359.723	21.905	815.629	635.539
360.738	22.295	814.866	636.299
361.752	22.414	814.122	636.092
362.767	22.644	814.255	636.970
363.781	22.883	814.017	637.592
364.796	22.963	813.489	637.412
365.810	22.886	813.477	637.067
366.825	22.878	812.407	636.143
367.840	22.766	811.445	634.932
368.854	22.326	810.715	632.721
369.869	22.256	810.637	632.353
370.883	22.545	809.750	632.644
371.898	22.269	809.397	631.323
372.913	22.392	808.993	631.391
373.927	22.407	809.139	631.503
374.942	22.450	808.481	631.087
375.956	22.607	808.128	631.318
376.971	22.755	808.007	631.700
377.986	23.021	807.357	632.085
379.000	23.072	806.380	631.448
380.015	22.828	806.066	630.274
381.029	22.796	805.241	629.461
382.044	23.013	805.050	630.028
383.059	23.111	804.321	629.751
384.073	23.040	803.914	629.123
385.088	22.887	803.634	628.305
386.102	22.856	802.728	627.429
387.117	22.654	802.149	626.204
388.132	22.250	801.162	623.947
389.146	21.971	800.149	622.115
390.161	22.333	800.262	623.429
391.175	22.582	799.868	623.949
392.190	22.277	799.153	622.256
393.205	21.077	796.641	616.010
394.219	19.534	795.302	609.480
395.234	19.595	794.996	609.406
396.248	21.239	796.403	616.236
397.263	22.635	797.169	621.698
398.278	22.586	796.732	621.131
399.292	22.252	796.158	619.451
400.307	22.229	795.589	618.872
401.321	22.475	795.256	619.426
402.336	22.748	794.914	620.063
403.350	23.166	794.936	621.494
404.365	23.453	794.938	622.448
405.380	23.565	794.072	622.110
406.394	23.592	794.016	622.106
407.409	23.512	793.537	621.394
408.423	23.637	793.128	621.455
409.438	23.494	792.755	620.610
410.453	23.676	792.147	620.713
411.467	23.394	791.693	619.318
412.482	23.598	791.424	619.766
413.496	23.732	790.829	619.710
414.511	23.653	790.455	619.088
415.526	23.748	789.998	619.008
416.540	23.456	789.712	617.711
417.555	23.146	788.986	616.010
418.569	23.478	788.333	616.600
419.584	23.320	787.789	615.570
420.599	23.142	787.082	614.345
421.613	158.121	1364.442	1798.670
422.628	136.847	1448.584	1798.763
