DTS Sentinel unit serial number:	SN413079Multiplexer serial number:	ORYXHardware model number:	OX4-SRSoftware version number:	ORYX F/W v4.00 Oryx Data Collector v3.7.2.0data status	okinstallation	princeton_trtdifferential loss correction	single-endedforward channel	channel 1reverse channel	N/Adate	2019/09/11time	11:28:11forward acquisition time	60.00reverse acquisition time	0.00gamma	496.2192k internal	0.2294k external	0.2294temperature offset calibration	0.9952default loss term (dB/km)	0.3790temperature slope calibration	1.0000multiplexer offset coefficient	1.0000multiplexer slope coefficient	1.0000fibre end	0.00T internal ref (°C)	37.94T ext. ref 1 (°C)	0.16T ext. ref 2 (°C)	35.90length (m)	temperature (°C)	Stokes	anti-Stokes-747.200	800.000	0.034	-0.131
-746.185	-200.000	-0.041	0.257
-745.171	-48.363	0.323	-0.159
-744.156	-200.000	0.031	0.575
-743.142	800.000	-0.029	0.129
-742.127	250.987	-0.161	0.279
-741.112	-44.518	-0.135	0.069
-740.098	-200.000	0.030	0.262
-739.083	555.745	-0.009	0.023
-738.069	103.429	-0.153	0.184
-737.054	197.678	-0.177	-0.276
-736.039	-29.066	-0.393	0.230
-735.025	145.032	0.109	0.149
-734.010	-164.871	-0.120	0.006
-732.996	-35.470	-0.156	-0.087
-731.981	800.000	-0.068	0.235
-730.966	51.059	-0.237	0.230
-729.952	4.203	0.120	-0.089
-728.937	-56.503	0.214	-0.097
-727.923	-200.000	-0.017	-0.165
-726.908	-6.498	-0.084	-0.059
-725.894	31.659	0.016	0.014
-724.879	-117.721	-0.199	-0.037
-723.864	-33.200	-0.132	-0.075
-722.850	231.288	-0.171	-0.286
-721.835	-113.640	0.310	0.062
-720.821	-200.000	0.050	0.349
-719.806	2.385	-0.197	-0.145
-718.791	-21.065	-0.026	-0.016
-717.777	-200.000	-0.002	-0.139
-716.762	-200.000	-0.031	-0.153
-715.748	-98.499	0.342	-0.089
-714.733	12.232	-0.091	0.071
-713.718	34.264	0.092	0.082
-712.704	244.833	-0.176	0.303
-711.689	2.466	-0.075	0.056
-710.675	59.007	-0.169	-0.170
-709.660	779.782	-0.069	0.194
-708.645	-55.498	0.182	-0.083
-707.631	-87.547	0.274	-0.084
-706.616	30.494	-0.175	-0.153
-705.602	-200.000	0.022	-0.137
-704.587	-200.000	-0.021	-0.120
-703.572	84.821	-0.087	0.098
-702.558	-200.000	0.003	0.029
-701.543	368.823	-0.088	-0.181
-700.529	47.758	-0.182	-0.174
-699.514	800.000	0.023	-0.094
-698.499	244.515	0.014	0.024
-697.485	800.000	0.144	0.444
-696.470	-41.791	-0.312	0.164
-695.456	-133.634	0.220	0.028
-694.441	83.611	0.096	0.107
-693.426	-200.000	-0.006	0.184
-692.412	-96.924	-0.281	-0.075
-691.397	-134.293	0.200	-0.025
-690.383	369.023	-0.099	-0.204
-689.368	153.564	0.058	0.081
-688.354	-200.000	0.003	0.262
-687.339	800.000	-0.021	-0.061
-686.324	-200.000	-0.006	-0.341
-685.310	-42.491	0.257	0.134
-684.295	800.000	0.078	-0.323
-683.281	647.169	-0.151	-0.394
-682.266	125.988	-0.224	-0.289
-681.251	128.283	-0.180	-0.234
-680.237	800.000	0.067	-0.200
-679.222	-26.625	-0.169	0.101
-678.208	-102.669	0.233	-0.057
-677.193	33.436	-0.039	-0.035
-676.178	-200.000	0.003	-0.259
-675.164	-200.000	0.019	-0.263
-674.149	-133.577	0.225	0.029
-673.135	-16.807	-0.057	0.037
-672.120	-76.037	0.125	0.045
-671.105	481.421	0.094	-0.217
-670.091	78.816	0.186	0.203
-669.076	-78.301	-0.049	-0.017
-668.062	159.598	-0.213	0.302
-667.047	800.000	-0.054	0.158
-666.032	15.238	-0.363	0.290
-665.018	363.044	0.176	-0.361
-664.003	153.213	-0.151	0.211
-662.989	-74.206	-0.087	0.032
-661.974	125.901	0.145	-0.187
-660.959	-200.000	-0.038	0.249
-659.945	199.679	0.086	-0.134
-658.930	-117.198	-0.142	0.026
-657.916	442.601	0.129	0.288
-656.901	36.157	0.153	-0.138
-655.886	454.423	0.029	0.065
-654.872	171.581	0.121	-0.177
-653.857	21.423	-0.164	-0.136
-652.843	-200.000	0.070	-0.327
-651.828	73.638	0.178	0.190
-650.814	800.000	-0.073	-0.235
-649.799	-102.674	-0.142	0.035
-648.784	-140.803	0.115	0.012
-647.770	51.101	0.210	-0.202
-646.755	46.385	-0.210	-0.198
-645.741	800.000	-0.125	-0.367
-644.726	174.842	-0.146	0.216
-643.711	-200.000	-0.006	-0.268
-642.697	234.814	-0.086	-0.145
-641.682	-29.405	-0.177	-0.103
-640.668	-46.492	0.284	-0.142
-639.653	476.892	0.144	0.331
-638.638	-200.000	-0.031	0.160
-637.624	800.000	0.084	-0.296
-636.609	-200.000	0.002	0.054
-635.595	-148.174	-0.382	0.032
-634.580	-70.781	0.150	-0.058
-633.565	-58.193	0.237	0.105
-632.551	-23.653	-0.361	0.221
-631.536	-46.791	-0.187	-0.093
-630.522	338.822	0.082	-0.162
-629.507	-200.000	0.000	0.088
-628.492	604.066	-0.057	-0.144
-627.478	-102.759	0.170	0.041
-626.463	-131.380	-0.400	0.054
-625.449	-116.396	-0.399	-0.075
-624.434	89.792	0.096	0.109
-623.419	-40.279	0.266	-0.141
-622.405	-200.000	-0.048	0.252
-621.390	-200.000	-0.031	0.423
-620.376	800.000	0.027	0.089
-619.361	-97.606	0.234	0.062
-618.346	177.601	-0.050	0.075
-617.332	800.000	-0.013	0.041
-616.317	-54.170	0.098	0.045
-615.303	-200.000	-0.016	-0.145
-614.288	800.000	0.099	0.407
-613.273	-111.694	0.067	-0.014
-612.259	-200.000	-0.029	0.188
-611.244	-16.083	-0.357	0.231
-610.230	318.427	-0.072	0.138
-609.215	-33.830	-0.131	0.073
-608.201	-43.594	0.234	0.120
-607.186	-200.000	-0.035	0.158
-606.171	-70.737	0.104	0.040
-605.157	-116.934	-0.042	-0.008
-604.142	0.621	-0.328	-0.239
-603.128	-164.358	0.108	0.005
-602.113	234.585	-0.027	-0.045
-601.098	-72.269	-0.087	-0.033
-600.084	-200.000	-0.060	-0.477
-599.069	800.000	-0.059	-0.192
-598.055	-75.775	-0.358	0.129
-597.040	275.697	-0.153	-0.277
-596.025	-200.000	0.024	0.159
-595.011	154.752	-0.224	-0.312
-593.996	125.390	-0.129	-0.165
-592.982	137.895	0.218	0.291
-591.967	-113.793	-0.321	0.064
-590.952	-200.000	0.008	0.141
-589.938	-4.440	0.058	-0.041
-588.923	286.555	-0.162	-0.297
-587.909	-200.000	-0.048	-0.430
-586.894	594.352	-0.041	0.102
-585.879	126.322	-0.033	0.043
-584.865	-87.568	-0.322	-0.099
-583.850	-54.409	0.255	-0.117
-582.836	-200.000	0.019	0.117
-581.821	-200.000	-0.047	0.312
-580.806	800.000	0.066	-0.227
-579.792	-26.127	0.165	-0.099
-578.777	-28.933	-0.340	0.198
-577.763	-200.000	0.043	-0.256
-576.748	277.032	0.107	-0.193
-575.733	-128.749	-0.071	-0.010
-574.719	-200.000	-0.007	-0.331
-573.704	-200.000	-0.017	0.184
-572.690	-39.998	-0.158	-0.084
-571.675	-200.000	-0.025	0.119
-570.661	-200.000	-0.014	-0.099
-569.646	799.981	0.072	0.202
-568.631	-98.357	0.173	-0.045
-567.617	45.440	-0.214	-0.201
-566.602	157.838	-0.186	0.261
-565.588	-17.591	0.130	0.083
-564.573	-12.415	0.243	-0.161
-563.558	53.718	-0.191	-0.186
-562.544	323.166	-0.058	-0.111
-561.529	-200.000	-0.008	-0.278
-560.515	59.684	-0.065	0.066
-559.500	-92.151	-0.140	-0.040
-558.485	-146.625	0.176	-0.015
-557.471	-200.000	-0.048	0.219
-556.456	46.149	-0.067	-0.063
-555.442	602.344	0.154	-0.388
-554.427	-78.878	-0.145	-0.050
-553.412	-35.227	0.166	0.092
-552.398	-128.202	0.177	0.026
-551.383	-146.036	-0.230	-0.021
-550.369	-5.142	-0.225	0.157
-549.354	-97.110	-0.273	0.072
-548.339	-200.000	0.006	-0.103
-547.325	-147.822	-0.108	-0.009
-546.310	800.000	-0.012	0.050
-545.296	-190.548	-0.109	0.001
-544.281	-79.270	-0.416	-0.143
-543.266	91.271	-0.082	0.093
-542.252	123.466	-0.110	-0.140
-541.237	-200.000	0.053	0.244
-540.223	-106.159	0.238	-0.054
-539.208	-200.000	-0.067	-0.382
-538.193	-200.000	-0.013	-0.106
-537.179	-72.046	0.152	0.057
-536.164	800.000	0.045	0.128
-535.150	117.477	0.100	0.125
-534.135	800.000	0.035	0.119
-533.121	-123.777	0.391	-0.063
-532.106	237.066	-0.192	-0.323
-531.091	800.000	-0.069	0.242
-530.077	289.939	-0.054	0.100
-529.062	800.000	-0.015	0.062
-528.048	91.109	0.143	0.163
-527.033	-176.922	-0.134	0.003
-526.018	-56.890	-0.251	-0.113
-525.004	233.604	-0.039	-0.065
-523.989	223.215	0.090	-0.147
-522.975	29.620	0.153	-0.132
-521.960	-75.409	0.115	0.041
-520.945	-24.109	0.098	-0.059
-519.931	-200.000	-0.008	0.177
-518.916	78.613	0.065	0.070
-517.902	-123.661	0.296	0.048
-516.887	-116.140	0.211	-0.040
-515.872	-92.891	-0.149	0.042
-514.858	-50.255	0.257	-0.123
-513.843	373.691	-0.086	0.177
-512.829	-200.000	-0.001	-0.045
-511.814	-200.000	-0.026	0.262
-510.799	800.000	0.047	-0.135
-509.785	-77.670	0.127	0.044
-508.770	234.316	0.279	0.466
-507.756	79.299	-0.052	-0.056
-506.741	54.367	-0.160	-0.157
-505.726	-200.000	0.022	-0.174
-504.712	74.710	-0.101	-0.107
-503.697	-31.190	-0.279	0.159
-502.683	68.940	-0.050	-0.052
-501.668	159.244	-0.043	-0.060
-500.653	17.593	-0.074	0.060
-499.639	-69.788	-0.054	-0.021
-498.624	-200.000	-0.005	0.065
-497.610	20.356	-0.204	0.167
-496.595	299.974	0.162	0.302
-495.581	-200.000	0.013	-0.067
-494.566	5.193	0.058	0.043
-493.551	-105.192	-0.225	-0.052
-492.537	19.734	-0.267	0.217
-491.522	-200.000	-0.010	0.157
-490.508	192.609	-0.132	-0.202
-489.493	564.769	-0.030	0.074
-488.478	-72.842	-0.253	-0.094
-487.464	-46.726	0.160	0.079
-486.449	191.174	0.130	0.198
-485.435	-200.000	-0.043	-0.273
-484.420	5.553	0.038	-0.028
-483.405	73.851	0.133	0.141
-482.391	152.112	-0.150	-0.207
-481.376	26.539	-0.127	-0.107
-480.362	97.634	0.061	0.071
-479.347	-200.000	0.008	0.164
-478.332	19.571	0.195	-0.159
-477.318	564.802	0.049	0.119
-476.303	134.335	0.056	-0.073
-475.289	189.724	-0.111	0.168
-474.274	-200.000	-0.002	-0.232
-473.259	-128.305	-0.214	-0.031
-472.245	632.431	-0.050	-0.129
-471.230	347.167	-0.061	0.122
-470.216	-105.484	-0.211	0.049
-469.201	-200.000	-0.003	-0.223
-468.186	132.890	0.072	0.093
-467.172	-200.000	-0.017	-0.235
-466.157	561.784	0.070	0.171
-465.143	-53.540	-0.142	-0.066
-464.128	54.972	-0.098	-0.096
-463.113	-200.000	-0.040	0.237
-462.099	6.414	-0.069	-0.052
-461.084	-76.761	0.384	-0.136
-460.070	15.054	-0.159	0.126
-459.055	-200.000	0.039	-0.241
-458.040	-72.593	0.079	0.029
-457.026	-62.410	0.171	-0.072
-456.011	72.825	-0.130	0.137
-454.997	733.375	0.114	-0.308
-453.982	-103.924	-0.060	-0.014
-452.968	-200.000	-0.050	0.236
-451.953	413.945	0.099	-0.212
-450.938	-53.053	0.182	0.084
-449.924	145.367	0.097	0.132
-448.909	-200.000	0.015	0.194
-447.895	110.214	-0.320	0.388
-446.880	29.344	0.136	0.116
-445.865	800.000	-0.056	0.234
-444.851	800.000	0.066	-0.217
-443.836	-70.531	0.333	0.127
-442.822	-39.849	-0.198	-0.105
-441.807	-46.523	0.255	0.126
-440.792	-156.248	0.180	-0.011
-439.778	-113.440	-0.116	-0.023
-438.763	-131.984	-0.390	-0.051
-437.749	800.000	0.105	-0.439
-436.734	475.614	0.058	-0.131
-435.719	800.000	0.052	0.181
-434.705	533.635	-0.191	0.458
-433.690	-163.460	0.195	-0.009
-432.676	-200.000	-0.044	0.419
-431.661	55.563	0.169	-0.165
-430.646	-200.000	-0.033	-0.411
-429.632	-200.000	-0.006	-0.193
-428.617	800.000	-0.065	0.203
-427.603	-200.000	-0.029	0.311
-426.588	-141.559	0.380	-0.039
-425.573	-200.000	-0.007	-0.146
-424.559	-200.000	-0.012	-0.072
-423.544	-105.373	0.187	0.043
-422.530	800.000	0.062	0.183
-421.515	-200.000	-0.006	-0.164
-420.500	218.005	0.289	-0.465
-419.486	-200.000	-0.013	-0.182
-418.471	187.855	0.056	0.084
-417.457	94.790	-0.110	0.126
-416.442	-200.000	-0.088	0.514
-415.428	-183.591	0.367	-0.006
-414.413	-47.782	-0.259	-0.127
-413.398	-27.226	-0.325	-0.191
-412.384	800.000	0.015	0.062
-411.369	-83.582	-0.376	-0.121
-410.355	-66.728	0.381	-0.152
-409.340	104.312	0.241	-0.286
-408.325	17.010	-0.113	-0.091
-407.311	-200.000	0.068	0.409
-406.296	365.361	0.145	0.295
-405.282	230.357	-0.131	-0.217
-404.267	150.466	0.087	0.119
-403.252	109.151	0.216	-0.260
-402.238	-200.000	0.017	-0.175
-401.223	800.000	0.025	0.083
-400.209	7.603	-0.076	0.057
-399.194	306.708	-0.051	0.095
-398.179	800.000	0.019	0.084
-397.165	-28.788	-0.235	0.136
-396.150	800.000	-0.027	0.079
-395.136	-42.141	0.077	0.040
-394.121	800.000	-0.073	-0.300
-393.106	-200.000	0.050	0.238
-392.092	137.884	-0.145	0.191
-391.077	264.835	0.157	0.275
-390.063	-200.000	0.059	-0.360
-389.048	800.000	0.080	-0.298
-388.033	-200.000	0.007	-0.335
-387.019	800.000	0.050	0.167
-386.004	410.326	0.058	0.124
-384.990	-133.083	-0.375	-0.048
-383.975	-200.000	-0.013	-0.137
-382.960	-14.938	0.198	-0.128
-381.946	-200.000	0.013	-0.124
-380.931	145.828	0.041	-0.055
-379.917	-152.450	-0.090	0.007
-378.902	800.000	-0.107	-0.349
-377.888	44.733	-0.210	0.195
-376.873	-200.000	0.020	-0.107
-375.858	420.895	-0.104	-0.224
-374.844	-15.654	0.240	0.154
-373.829	-117.783	0.637	0.115
-372.815	-200.000	-0.008	0.260
-371.800	19.729	0.169	-0.137
-370.785	-50.839	0.245	0.116
-369.771	-16.188	-0.203	0.130
-368.756	800.000	0.030	0.092
-367.742	259.297	-0.069	0.120
-366.727	-28.936	0.063	0.036
-365.712	-112.082	0.349	-0.071
-364.698	-43.103	0.078	-0.040
-363.683	15.481	0.242	0.191
-362.669	18.770	-0.211	0.170
-361.654	-200.000	-0.054	0.245
-360.639	2.535	0.366	0.267
-359.625	800.000	0.170	0.476
-358.610	112.700	0.114	0.140
-357.596	-54.956	-0.392	-0.178
-356.581	-81.490	0.150	-0.050
-355.566	498.259	0.151	-0.351
-354.552	33.890	0.072	0.063
-353.537	228.258	0.252	0.414
-352.523	-15.612	0.236	0.152
-351.508	-125.751	0.083	0.013
-350.493	430.604	0.013	0.028
-349.479	-76.985	-0.185	0.065
-348.464	-79.483	-0.092	0.031
-347.450	-100.588	-0.125	-0.031
-346.435	-52.142	0.178	-0.083
-345.420	-31.565	-0.286	0.162
-344.406	92.648	0.250	0.284
-343.391	436.117	0.014	-0.031
-342.377	522.863	0.042	-0.100
-341.362	21.950	-0.114	-0.094
-340.348	254.013	0.121	-0.209
-339.333	94.003	0.061	0.069
-338.318	304.520	0.109	0.205
-337.304	166.781	-0.097	-0.138
-336.289	-72.400	0.108	-0.040
-335.275	-59.598	0.119	0.051
-334.260	-26.762	-0.139	-0.082
-333.245	-189.661	0.182	-0.002
-332.231	1.113	-0.260	-0.188
-331.216	-20.135	-0.299	-0.185
-330.202	275.293	-0.020	-0.035
-329.187	800.000	-0.060	-0.229
-328.172	-79.877	0.216	0.073
-327.158	403.437	0.133	0.282
-326.143	114.073	-0.028	-0.034
-325.129	68.265	0.053	0.055
-324.114	800.000	0.008	-0.033
-323.099	-31.132	-0.154	-0.087
-322.085	314.481	0.085	0.160
-321.070	-200.000	-0.017	-0.363
-320.056	437.541	0.083	0.182
-319.041	-96.775	0.181	0.048
-318.026	-101.176	-0.112	0.027
-317.012	-122.084	-0.416	-0.069
-315.997	96.893	0.128	0.147
-314.983	-91.213	-0.342	-0.098
-313.968	24.165	-0.116	-0.096
-312.953	-97.696	0.401	-0.104
-311.939	-98.523	0.149	-0.038
-310.924	186.491	0.201	0.301
-309.910	99.629	-0.244	-0.283
-308.895	-141.936	-0.292	-0.029
-307.880	364.374	-0.075	-0.153
-306.866	-50.486	0.114	0.054
-305.851	-129.981	0.110	0.015
-304.837	-155.792	-0.213	-0.014
-303.822	-55.353	-0.226	-0.102
-302.807	-111.440	0.239	-0.049
-301.793	-76.115	-0.346	-0.123
-300.778	702.728	0.018	-0.049
-299.764	-149.273	0.061	-0.005
-298.749	647.294	0.126	-0.324
-297.735	-137.241	0.406	0.046
-296.720	-179.917	0.261	0.006
-295.705	-163.226	-0.111	-0.005
-294.691	-117.131	-0.452	-0.083
-293.676	-98.192	0.261	0.067
-292.662	-55.088	-0.203	0.092
-291.647	-200.000	0.012	-0.138
-290.632	-142.057	-0.456	-0.046
-289.618	-167.814	-0.398	0.016
-288.603	48.820	0.108	-0.101
-287.589	128.281	-0.112	-0.144
-286.574	-123.904	0.113	0.018
-285.559	-38.940	-0.095	0.050
-284.545	163.929	0.113	0.160
-283.530	-167.800	0.176	-0.007
-282.516	-200.000	-0.011	0.239
-281.501	-174.269	-0.122	-0.004
-280.486	800.000	0.049	0.162
-279.472	200.410	0.199	0.306
-278.457	-200.000	-0.160	0.000
-277.443	423.838	0.113	0.243
-276.428	14.545	0.179	-0.140
-275.413	-196.239	-0.215	0.001
-274.399	-200.000	0.059	0.290
-273.384	-94.931	-0.147	0.040
-272.370	345.155	-0.046	-0.091
-271.355	619.923	-0.072	-0.181
-270.340	-200.000	-0.028	-0.355
-269.326	-200.000	-0.021	-0.313
-268.311	800.000	-0.047	-0.204
-267.297	800.000	0.149	-0.508
-266.282	-200.000	-0.004	0.332
-265.267	239.411	0.239	0.399
-264.253	-200.000	0.015	0.134
-263.238	83.262	-0.102	0.112
-262.224	140.077	0.161	-0.213
-261.209	-200.000	-0.021	-0.141
-260.195	-181.241	-0.099	-0.002
-259.180	-147.122	-0.225	0.019
-258.165	-22.427	-0.098	0.060
-257.151	-32.777	0.224	0.125
-256.136	-114.786	-0.081	-0.015
-255.122	-80.375	-0.373	0.125
-254.107	90.820	-0.199	-0.224
-253.092	-200.000	-0.006	0.157
-252.078	-98.139	0.181	-0.047
-251.063	218.940	0.095	0.152
-250.049	-57.759	0.063	-0.027
-249.034	64.356	0.268	0.271
-248.019	-0.440	0.247	-0.176
-247.005	-63.816	0.127	-0.052
-245.990	44.507	-0.036	0.034
-244.976	-28.045	0.213	0.124
-243.961	-200.000	0.042	-0.240
-242.946	-18.272	-0.130	0.082
-241.932	800.000	0.055	-0.186
-240.917	800.000	0.033	0.137
-239.903	-80.368	0.111	0.037
-238.888	42.140	-0.184	-0.168
-237.873	-100.763	0.305	-0.075
-236.859	168.803	0.078	-0.111
-235.844	84.903	-0.198	-0.217
-234.830	-14.123	-0.185	-0.120
-233.815	676.551	0.058	-0.151
-232.800	-21.220	0.096	0.059
-231.786	50.729	0.053	0.050
-230.771	-67.297	0.076	-0.030
-229.757	595.482	0.101	0.251
-228.742	800.000	-0.101	0.286
-227.727	327.499	0.018	-0.035
-226.713	359.185	-0.112	-0.224
-225.698	29.684	0.253	0.216
-224.684	-58.349	-0.272	-0.118
-223.669	800.000	0.057	0.183
-222.655	800.000	-0.129	0.373
-221.640	800.000	0.113	0.387
-220.625	-149.207	-0.100	-0.008
-219.611	44.938	0.156	-0.144
-218.596	800.000	0.111	0.459
-217.582	22.778	-0.217	0.178
-216.567	-200.000	0.033	-0.190
-215.552	-200.000	0.011	0.157
-214.538	10.993	0.042	-0.032
-213.523	292.000	-0.133	0.242
-212.509	43.109	-0.243	-0.222
-211.494	-200.000	0.002	-0.159
-210.479	96.388	-0.247	-0.283
-209.465	620.998	0.089	-0.224
-208.450	-131.527	0.217	0.029
-207.436	79.668	0.265	0.285
-206.421	-87.438	0.130	-0.039
-205.406	84.930	0.046	0.050
-204.392	-136.519	0.072	-0.008
-203.377	270.640	0.193	0.340
-202.363	-46.613	0.135	-0.066
-201.348	-200.000	-0.060	0.520
-200.333	302.375	0.144	0.266
-199.319	-162.539	0.037	-0.002
-198.304	9.017	-0.066	-0.050
-197.290	134.115	-0.233	-0.302
-196.275	-200.000	0.062	-0.379
-195.260	187.903	0.187	0.280
-194.246	-129.783	-0.191	0.026
-193.231	800.000	-0.070	-0.260
-192.217	-200.000	-0.027	-0.165
-191.202	503.902	0.145	0.336
-190.187	284.202	0.099	0.178
-189.173	178.573	-0.114	-0.166
-188.158	54.510	0.185	0.179
-187.144	-200.000	-0.038	-0.293
-186.129	558.097	-0.076	-0.182
-185.114	-142.274	-0.230	-0.023
-184.100	-82.718	-0.049	-0.016
-183.085	257.803	0.095	0.164
-182.071	199.256	-0.168	-0.258
-181.056	-200.000	0.009	0.250
-180.042	771.066	-0.027	-0.073
-179.027	667.429	-0.115	-0.297
-178.012	-162.021	-0.368	0.019
-176.998	-132.985	0.402	-0.051
-175.983	800.000	0.108	-0.386
-174.969	647.908	0.071	0.181
-173.954	309.027	0.055	-0.102
-172.939	-69.513	0.146	-0.056
-171.925	209.927	-0.076	0.119
-170.910	800.000	-0.096	0.303
-169.896	189.416	0.121	-0.181
-168.881	112.498	0.037	0.045
-167.866	25.337	0.174	0.145
-166.852	-45.689	0.325	-0.161
-165.837	-164.985	0.110	0.005
-164.823	-25.955	0.117	0.069
-163.808	800.000	-0.070	0.230
-162.793	182.595	0.166	-0.244
-161.779	-200.000	0.032	-0.287
-160.764	-45.193	0.078	-0.039
-159.750	-200.000	0.034	-0.164
-158.735	-55.120	-0.293	0.132
-157.720	25.081	-0.249	0.206
-156.706	-108.911	0.330	0.070
-155.691	-100.839	-0.187	0.046
-154.677	-34.047	-0.158	-0.087
-153.662	113.286	-0.099	-0.120
-152.647	711.005	0.068	0.181
-151.633	713.947	0.125	-0.332
-150.618	-17.651	-0.369	-0.232
-149.604	203.880	0.036	-0.056
-148.589	-54.052	-0.234	0.107
-147.574	744.741	0.118	0.316
-146.560	-124.291	0.430	0.067
-145.545	-120.871	0.326	-0.055
-144.531	-148.076	0.085	-0.007
-143.516	-90.363	0.166	-0.048
-142.502	-78.245	-0.352	0.121
-141.487	-31.824	-0.223	-0.125
-140.472	-125.281	-0.394	0.060
-139.458	414.176	-0.129	0.275
-138.443	-200.000	0.014	-0.211
-137.429	-24.300	-0.058	0.035
-136.414	-23.620	0.183	0.110
-135.399	-13.079	0.276	-0.179
-134.385	624.971	-0.085	0.213
-133.370	-136.007	0.112	-0.013
-132.356	-61.552	-0.170	0.071
-131.341	-200.000	0.014	0.263
-130.326	-200.000	-0.020	0.101
-129.312	800.000	0.074	0.286
-128.297	-36.337	-0.204	0.110
-127.283	-200.000	-0.004	0.018
-126.268	-23.864	-0.204	0.122
-125.253	-164.016	0.073	-0.003
-124.239	-200.000	-0.030	0.305
-123.224	-76.460	0.189	-0.066
-122.210	178.472	0.204	0.297
-121.195	-143.687	-0.227	-0.022
-120.180	-200.000	-0.005	0.101
-119.166	144.007	-0.101	-0.134
-118.151	-200.000	0.026	-0.156
-117.137	-43.498	0.241	0.122
-116.122	132.065	0.221	-0.284
-115.107	194.983	-0.204	-0.310
-114.093	-18.423	-0.150	0.093
-113.078	-200.000	0.053	-0.320
-112.064	-101.835	-0.038	0.009
-111.049	-3.209	-0.137	-0.095
-110.034	-200.000	0.064	-0.314
-109.020	800.000	-0.059	0.247
-108.005	-200.000	0.035	0.259
-106.991	167.824	-0.106	-0.151
-105.976	-139.813	-0.199	0.021
-104.962	46.730	-0.147	0.137
-103.947	42.434	0.164	0.149
-102.932	-43.622	-0.223	0.112
-101.918	17.558	0.250	-0.198
-100.903	40.995	0.236	-0.213
-99.889	-23.499	-0.176	-0.106
-98.874	-200.000	0.026	0.236
-97.859	-200.000	0.035	-0.186
-96.845	234.266	-0.238	-0.392
-95.830	336.454	0.134	0.259
-94.816	148.520	0.155	0.208
-93.801	-22.478	-0.158	-0.095
-92.786	164.167	-0.026	-0.037
-91.772	-49.761	0.148	0.070
-90.757	238.777	0.137	0.227
-89.743	-200.000	0.068	0.302
-88.728	230.027	-0.109	-0.178
-87.713	516.153	-0.032	-0.074
-86.699	-200.000	-0.027	0.144
-85.684	-17.392	0.163	0.102
-84.670	-55.389	0.239	-0.107
-83.655	800.000	0.032	-0.099
-82.640	180.814	-0.130	-0.190
-81.626	21.036	-0.140	0.113
-80.611	-96.853	0.211	-0.055
-79.597	-200.000	-0.048	-0.213
-78.582	-200.000	-0.037	0.172
-77.567	-85.103	-0.126	0.039
-76.553	-124.550	0.186	0.029
-75.538	228.501	0.099	0.161
-74.524	-75.040	0.216	0.077
-73.509	800.000	-0.102	-0.295
-72.494	-160.210	0.154	0.008
-71.480	470.419	-0.062	0.140
-70.465	-163.967	0.397	-0.018
-69.451	-10.622	0.238	-0.157
-68.436	739.282	0.122	0.325
-67.422	23.529	0.170	-0.139
-66.407	-200.000	0.012	-0.076
-65.392	-132.563	0.138	-0.018
-64.378	68.883	0.101	0.103
-63.363	223.932	0.167	0.269
-62.349	353.003	-0.110	-0.218
-61.334	10.514	-0.781	-0.593
-60.319	129.884	0.363	0.462
-59.305	621.865	-0.309	-0.774
-58.290	83.404	0.694	0.753
-57.276	800.000	0.484	1.440
-56.261	-200.000	83.117	503.692
-55.246	558.419	1379.141	3311.844
-54.232	181.045	2615.201	3824.960
-53.217	121.804	2252.779	2796.751
-52.203	49.188	1701.859	1591.909
-51.188	41.230	1432.877	1289.033
-50.173	38.049	1388.812	1229.345
-49.159	56.612	1427.652	1382.350
-48.144	61.410	1446.510	1431.106
-47.130	41.862	1407.460	1269.978
-46.115	38.077	1390.577	1230.889
-45.100	37.878	1386.313	1225.810
-44.086	37.869	1383.915	1223.587
-43.071	37.655	1381.757	1220.291
-42.057	37.657	1379.679	1218.419
-41.042	37.695	1377.838	1216.981
-40.027	37.889	1376.006	1216.529
-39.013	37.792	1374.707	1214.724
-37.998	37.776	1373.022	1213.088
-36.984	37.918	1370.492	1211.689
-35.969	38.025	1368.628	1210.657
-34.954	37.936	1366.962	1208.580
-33.940	38.010	1365.667	1207.844
-32.925	38.068	1364.093	1206.768
-31.911	38.069	1362.579	1205.385
-30.896	37.920	1361.912	1203.826
-29.881	38.061	1359.751	1202.740
-28.867	38.127	1358.075	1201.616
-27.852	37.991	1356.783	1199.588
-26.838	37.994	1355.582	1198.495
-25.823	37.957	1353.870	1196.707
-24.809	38.070	1352.302	1195.969
-23.794	38.068	1351.245	1194.971
-22.779	38.042	1349.547	1193.264
-21.765	38.029	1348.340	1192.073
-20.750	37.902	1347.401	1190.415
-19.736	38.000	1345.579	1189.359
-18.721	37.813	1344.736	1187.424
-17.706	37.927	1343.173	1186.695
-16.692	37.900	1342.143	1185.569
-15.677	37.993	1340.678	1184.795
-14.663	37.776	1339.967	1182.805
-13.648	37.844	1338.715	1182.063
-12.633	38.042	1337.400	1182.053
-11.619	37.967	1336.734	1180.964
-10.604	37.829	1336.196	1179.609
-9.590	37.909	1334.847	1178.853
-8.575	37.853	1333.690	1177.446
-7.560	37.816	1333.024	1176.587
-6.546	37.908	1331.934	1176.132
-5.531	37.777	1331.386	1174.813
-4.517	37.860	1329.891	1173.949
-3.502	37.879	1329.077	1173.297
-2.487	37.911	1328.196	1172.663
-1.473	38.034	1324.241	1169.865
-0.458	37.272	1309.546	1152.318
0.556	32.338	1292.009	1114.963
1.571	28.959	1297.574	1099.510
2.586	27.897	1313.443	1106.430
3.600	26.427	1301.154	1087.151
4.615	18.300	1219.818	973.102
5.629	5.925	1133.803	838.639
6.644	0.461	1109.532	791.988
7.659	0.120	1107.113	788.401
8.673	0.148	1105.352	787.224
9.688	-0.078	1104.153	785.122
10.702	0.440	1103.138	787.033
11.717	7.813	1114.857	834.091
12.731	18.525	1130.698	902.552
13.746	22.126	1134.972	924.874
14.761	22.051	1134.941	924.375
15.775	22.105	1133.589	923.475
16.790	21.900	1132.996	921.833
17.804	21.865	1132.403	921.086
18.819	21.895	1131.988	920.825
19.834	21.936	1131.384	920.467
20.848	21.972	1131.064	920.311
21.863	21.990	1130.617	919.961
22.877	21.966	1129.665	918.979
23.892	21.934	1128.920	918.128
24.907	21.893	1128.159	917.213
25.921	21.983	1127.038	916.687
26.936	21.935	1126.047	915.552
27.950	21.884	1123.952	913.502
28.965	21.782	1122.039	911.335
29.980	21.911	1120.451	910.633
30.994	21.990	1119.568	910.248
32.009	21.927	1118.474	908.948
33.023	21.774	1117.151	907.002
34.038	21.798	1116.403	906.442
35.053	21.964	1115.721	906.664
36.067	21.936	1115.115	905.944
37.082	21.929	1114.098	905.003
38.096	22.229	1112.863	905.465
39.111	22.254	1112.271	905.032
40.126	22.119	1110.726	903.004
41.140	21.713	1108.987	899.424
42.155	21.428	1107.620	896.776
43.169	21.667	1106.361	896.899
44.184	21.671	1105.973	896.525
45.199	21.452	1104.572	894.192
46.213	21.563	1103.840	894.087
47.228	21.795	1103.038	894.541
48.242	21.767	1101.810	893.322
49.257	21.976	1100.683	893.396
50.271	22.056	1100.082	893.237
51.286	22.050	1099.352	892.534
52.301	22.054	1098.393	891.695
53.315	22.004	1097.089	890.307
54.330	21.974	1096.427	889.538
55.344	21.934	1095.733	888.694
56.359	21.924	1094.380	887.465
57.374	21.675	1093.267	885.228
58.388	21.791	1092.555	885.156
59.403	21.651	1091.992	883.915
60.417	21.530	1090.836	882.292
61.432	21.593	1090.263	882.069
62.447	21.813	1089.753	882.684
63.461	21.856	1088.718	881.984
64.476	21.766	1087.635	880.576
65.490	21.743	1086.278	879.287
66.505	21.600	1086.309	878.514
67.520	21.747	1085.438	878.469
68.534	21.529	1084.509	876.551
69.549	21.194	1083.206	873.745
70.563	21.240	1082.211	873.091
71.578	21.323	1081.175	872.593
72.593	21.108	1080.366	870.790
73.607	21.283	1079.865	871.184
74.622	21.453	1079.179	871.401
75.636	21.517	1079.047	871.534
76.651	21.428	1077.479	869.749
77.666	21.341	1076.582	868.515
78.680	21.457	1076.097	868.624
79.695	21.537	1075.235	868.248
80.709	21.624	1074.742	868.202
81.724	21.633	1073.669	867.304
82.739	21.615	1073.239	866.794
83.753	21.853	1073.038	867.730
84.768	22.256	1071.554	868.444
85.782	22.308	1070.492	867.764
86.797	22.187	1070.005	866.695
87.812	22.109	1068.631	865.123
88.826	22.141	1067.853	864.575
89.841	22.200	1066.492	863.686
90.855	22.211	1065.785	863.087
91.870	22.192	1064.796	862.121
92.884	21.989	1064.138	860.513
93.899	21.981	1062.666	859.208
94.914	22.229	1061.893	859.722
95.928	21.991	1060.570	857.409
96.943	21.851	1059.275	855.607
97.957	21.494	1058.128	852.862
98.972	21.410	1056.891	851.381
99.987	21.741	1056.013	852.207
101.001	21.906	1055.694	852.677
102.016	21.813	1055.280	851.816
103.030	21.777	1053.624	850.232
104.045	21.691	1052.337	848.698
105.060	21.676	1051.662	848.006
106.074	21.702	1051.365	847.818
107.089	22.051	1050.841	849.010
108.103	21.933	1049.648	847.399
109.118	21.753	1047.929	845.072
110.133	21.722	1047.150	844.216
111.147	21.568	1045.290	841.905
112.162	21.474	1044.501	840.741
113.176	21.609	1044.229	841.097
114.191	21.593	1043.415	840.287
115.206	21.271	1042.068	837.584
116.220	21.259	1041.255	836.802
117.235	21.453	1040.458	837.015
118.249	21.417	1039.309	835.847
119.264	21.281	1038.822	834.729
120.279	21.335	1037.878	834.153
121.293	21.429	1037.146	833.940
122.308	21.498	1036.234	833.462
123.322	21.353	1034.958	831.674
124.337	21.203	1033.669	829.852
125.352	20.751	1031.879	826.193
126.366	20.709	1031.108	825.307
127.381	21.483	1030.631	828.520
128.395	21.807	1030.911	830.202
129.410	21.995	1029.665	830.019
130.424	21.944	1028.367	828.654
131.439	22.082	1027.240	828.326
132.454	22.013	1026.545	827.366
133.468	21.918	1025.533	826.029
134.483	21.944	1025.012	825.659
135.497	22.225	1024.220	826.272
136.512	22.167	1023.351	825.222
137.527	22.229	1022.209	824.519
138.541	22.205	1021.578	823.827
139.556	22.079	1020.823	822.554
140.570	22.236	1019.801	822.391
141.585	22.293	1018.429	821.479
142.600	22.206	1017.208	820.016
143.614	22.354	1017.200	820.627
144.629	22.424	1016.125	820.016
145.643	22.359	1014.804	818.572
146.658	22.129	1013.197	816.135
147.673	22.056	1012.297	815.001
148.687	21.945	1011.176	813.513
149.702	21.857	1010.187	812.236
150.716	21.853	1009.358	811.477
151.731	21.979	1008.768	811.514
152.746	22.083	1008.740	811.904
153.760	22.337	1007.406	811.929
154.775	22.350	1006.674	811.324
155.789	22.302	1005.966	810.464
156.804	22.191	1004.819	808.957
157.819	22.406	1004.234	809.400
158.833	22.418	1003.507	808.801
159.848	22.512	1002.130	808.052
160.862	22.344	1000.702	806.058
161.877	22.309	999.807	805.107
162.892	22.464	998.801	804.933
163.906	22.374	997.317	803.256
164.921	22.366	996.761	802.698
165.935	22.398	995.790	801.990
166.950	22.322	994.740	800.731
167.964	22.252	994.022	799.761
168.979	22.008	993.160	797.888
169.994	22.185	991.724	797.470
171.008	22.358	991.234	797.786
172.023	22.397	991.057	797.750
173.037	22.140	989.451	795.227
174.052	21.961	988.817	793.835
175.067	22.054	987.852	793.410
176.081	22.125	987.456	793.345
177.096	22.060	986.480	792.196
178.110	21.791	985.372	790.024
179.125	21.671	984.665	788.849
180.140	21.912	984.230	789.512
181.154	21.856	984.104	789.090
182.169	22.177	983.807	790.226
183.183	22.246	983.364	790.108
184.198	22.246	982.132	789.049
185.213	22.139	981.639	788.106
186.227	22.241	980.765	787.791
187.242	22.324	980.045	787.516
188.256	22.327	979.549	787.061
189.271	22.245	978.662	785.909
190.286	22.143	977.206	784.218
191.300	21.459	976.161	780.260
192.315	20.758	974.819	775.994
193.329	20.796	973.899	775.359
194.344	21.671	974.414	779.599
195.359	22.147	974.245	781.513
196.373	22.214	973.694	781.297
197.388	22.209	972.760	780.456
198.402	22.004	973.116	779.765
199.417	22.186	971.749	779.408
200.432	21.937	970.407	777.159
201.446	21.693	970.275	775.905
202.461	21.838	969.371	775.753
203.475	21.124	967.108	770.722
204.490	20.237	965.787	765.686
205.504	21.167	966.460	770.260
206.519	21.712	966.611	772.716
207.534	21.966	965.767	773.090
208.548	22.254	965.842	774.351
209.563	21.964	964.532	771.958
210.577	21.940	963.799	771.195
211.592	22.460	963.344	773.048
212.607	22.250	962.484	771.367
213.621	22.461	961.901	771.759
214.636	22.306	961.329	770.549
215.650	22.258	960.660	769.739
216.665	22.443	959.929	769.893
217.680	22.380	958.637	768.513
218.694	22.002	957.362	765.775
219.709	21.781	956.799	764.291
220.723	22.151	956.495	765.596
221.738	22.137	955.806	764.912
222.753	22.287	954.726	764.634
223.767	22.291	954.715	764.574
224.782	22.459	954.273	764.883
225.796	22.478	953.882	764.583
226.811	21.829	951.705	759.958
227.826	21.285	950.505	756.579
228.840	21.426	950.041	756.752
229.855	21.556	949.087	756.489
230.869	21.108	948.294	753.854
231.884	21.671	948.124	756.085
232.899	22.310	948.388	758.983
233.913	22.106	948.003	757.730
234.928	22.086	947.489	757.165
235.942	22.023	946.459	756.006
236.957	21.647	945.790	753.787
237.972	21.785	944.987	753.673
238.986	21.977	944.291	753.873
240.001	22.000	943.494	753.270
241.015	22.048	943.124	753.115
242.030	22.155	942.792	753.240
243.045	22.207	942.367	753.057
244.059	22.276	941.903	752.916
245.074	22.110	940.976	751.398
246.088	21.898	939.530	749.274
247.103	22.182	939.347	750.273
248.117	22.653	939.491	752.329
249.132	22.810	939.110	752.626
250.147	22.847	938.439	752.180
251.161	23.146	937.744	752.833
252.176	22.958	937.437	751.716
253.190	23.083	936.880	751.737
254.205	23.238	936.272	751.840
255.220	23.135	935.621	750.813
256.234	23.092	934.686	749.816
257.249	22.945	933.922	748.512
258.263	23.016	933.076	748.069
259.278	23.071	932.688	747.924
260.293	22.986	932.219	747.122
261.307	23.128	930.865	746.573
262.322	22.796	929.996	744.409
263.336	22.100	928.166	739.947
264.351	20.920	926.273	733.411
265.366	21.143	925.764	733.879
266.380	22.164	926.686	738.841
267.395	22.694	926.371	740.749
268.409	22.522	926.174	739.806
269.424	22.673	925.203	739.597
270.439	22.737	924.842	739.512
271.453	22.932	923.990	739.582
272.468	23.085	923.710	739.931
273.482	23.172	922.900	739.578
274.497	22.852	921.255	736.863
275.512	22.467	920.753	734.790
276.526	22.919	920.766	736.620
277.541	22.917	920.623	736.434
278.555	22.583	920.094	734.550
279.570	22.577	918.603	733.271
280.585	22.748	918.171	733.575
281.599	22.781	916.859	732.596
282.614	22.094	915.989	728.988
283.628	22.166	915.358	728.719
284.643	22.526	915.040	729.891
285.657	22.114	913.877	727.194
286.672	21.820	913.250	725.414
287.687	22.349	913.429	727.682
288.701	22.593	912.541	727.917
289.716	22.263	911.052	725.305
290.730	22.101	910.837	724.401
291.745	21.826	909.851	722.419
292.760	22.221	909.505	723.707
293.774	23.156	910.135	727.996
294.789	23.436	909.782	728.798
295.803	23.322	909.263	727.851
296.818	23.407	908.438	727.474
297.833	22.934	907.314	724.570
298.847	22.805	906.750	723.529
299.862	23.157	906.126	724.408
300.876	23.283	906.164	724.888
301.891	23.278	905.201	724.033
302.906	22.929	903.861	721.474
303.920	23.012	903.936	721.807
304.935	23.381	903.684	723.048
305.949	23.242	902.877	721.774
306.964	23.037	902.014	720.185
307.979	23.058	901.698	719.952
308.993	23.546	901.523	721.737
310.008	23.503	900.801	720.920
311.022	23.209	899.879	718.926
312.037	23.068	899.375	717.885
313.052	22.856	898.230	716.047
314.066	21.996	896.601	711.204
315.081	21.742	896.068	709.690
316.095	22.689	896.327	713.667
317.110	23.041	896.074	714.823
318.125	22.253	894.246	710.123
319.139	21.101	892.984	704.409
320.154	21.135	892.749	704.298
321.168	22.066	893.495	708.583
322.183	22.826	892.928	711.135
323.197	22.899	892.752	711.224
324.212	23.165	892.398	711.950
325.227	23.202	891.862	711.610
326.241	22.926	891.022	709.767
327.256	23.015	890.410	709.574
328.270	22.838	889.403	708.000
329.285	22.888	888.301	707.257
330.300	22.539	887.633	705.270
331.314	22.756	887.657	706.093
332.329	23.258	887.131	707.620
333.343	23.323	887.209	707.878
334.358	23.071	886.771	706.460
335.373	23.181	886.359	706.507
336.387	23.665	886.125	708.191
337.402	23.718	885.921	708.175
338.416	23.543	885.610	707.167
339.431	23.698	885.319	707.488
340.446	24.089	884.494	708.322
341.460	23.666	884.474	706.560
342.475	23.557	883.436	705.238
343.489	23.711	883.051	705.477
344.504	23.938	883.207	706.441
345.519	24.051	882.584	706.332
346.533	24.052	882.180	705.949
347.548	24.020	881.615	705.308
348.562	24.208	880.766	705.311
349.577	23.855	880.335	703.505
350.592	23.855	879.907	703.101
351.606	24.045	878.721	702.842
352.621	23.890	878.003	701.592
353.635	23.623	877.534	700.105
354.650	23.229	875.314	696.720
355.665	22.225	873.893	691.579
356.679	22.755	873.594	693.365
357.694	23.072	873.217	694.250
358.708	22.993	872.927	693.647
359.723	23.396	872.871	695.124
360.738	23.673	872.608	695.939
361.752	23.749	872.087	695.758
362.767	24.072	871.447	696.450
363.781	24.501	870.892	697.622
364.796	24.577	870.698	697.701
365.810	24.536	869.994	696.914
366.825	24.364	869.835	696.055
367.840	24.027	869.096	694.089
368.854	23.669	868.287	691.987
369.869	23.681	867.840	691.613
370.883	23.862	867.117	691.682
371.898	23.692	866.744	690.663
372.913	23.890	866.265	690.987
373.927	23.832	865.753	690.295
374.942	23.963	865.377	690.440
375.956	23.928	865.413	690.275
376.971	24.164	864.791	690.632
377.986	24.417	864.140	691.032
379.000	24.289	863.972	690.339
380.015	24.207	863.004	689.188
381.029	24.207	862.172	688.464
382.044	24.366	861.974	688.856
383.059	24.402	861.416	688.488
384.073	24.405	860.639	687.817
385.088	24.414	859.803	687.123
386.102	24.106	859.244	685.432
387.117	24.162	858.583	685.058
388.132	23.681	857.553	682.329
389.146	23.425	856.461	680.417
390.161	23.604	856.872	681.371
391.175	24.137	856.622	683.155
392.190	23.998	854.694	681.025
393.205	22.451	853.180	673.846
394.219	20.947	851.150	666.435
395.234	20.924	851.104	666.254
396.248	22.564	852.637	673.671
397.263	23.948	853.503	679.585
398.278	23.951	852.790	678.969
399.292	23.603	852.469	677.327
400.307	23.698	851.778	677.079
401.321	23.726	851.639	677.016
402.336	24.207	850.968	678.252
403.350	24.615	850.989	679.762
404.365	24.805	850.994	680.428
405.380	25.146	850.601	681.349
406.394	25.176	850.345	681.199
407.409	25.081	849.314	679.953
408.423	25.041	848.845	679.363
409.438	25.078	848.640	679.281
410.453	25.170	847.972	679.034
411.467	24.986	847.607	677.988
412.482	25.018	846.989	677.553
413.496	25.157	846.943	677.983
414.511	24.947	846.930	677.117
415.526	25.034	846.078	676.706
416.540	24.992	845.010	675.633
417.555	24.600	844.588	673.756
418.569	24.773	843.944	673.834
419.584	24.646	843.628	673.046
420.599	24.468	842.942	671.770
421.613	148.222	1366.817	1777.287
422.628	129.684	1443.160	1777.409
