DTS Sentinel unit serial number:	SN413079Multiplexer serial number:	ORYXHardware model number:	OX4-SRSoftware version number:	ORYX F/W v4.00 Oryx Data Collector v3.7.2.0data status	okinstallation	princeton_trtdifferential loss correction	single-endedforward channel	channel 1reverse channel	N/Adate	2019/09/11time	02:32:12forward acquisition time	60.00reverse acquisition time	0.00gamma	496.2192k internal	0.2332k external	0.2332temperature offset calibration	0.9930default loss term (dB/km)	0.3790temperature slope calibration	1.0000multiplexer offset coefficient	1.0000multiplexer slope coefficient	1.0000fibre end	0.00T internal ref (°C)	29.25T ext. ref 1 (°C)	-0.29T ext. ref 2 (°C)	23.52length (m)	temperature (°C)	Stokes	anti-Stokes-747.200	-9.856	-0.349	-0.234
-746.185	118.007	-0.064	-0.080
-745.171	-200.000	-0.009	-0.142
-744.156	800.000	0.084	0.310
-743.142	70.323	0.058	0.060
-742.127	193.329	0.038	0.058
-741.112	-200.000	0.070	0.392
-740.098	117.581	0.193	0.239
-739.083	800.000	0.043	-0.155
-738.069	115.409	-0.144	0.177
-737.054	511.802	0.042	-0.099
-736.039	588.479	-0.059	-0.146
-735.025	-200.000	0.025	-0.248
-734.010	88.005	0.042	-0.046
-732.996	-44.336	-0.226	0.114
-731.981	178.179	-0.124	-0.182
-730.966	29.288	-0.086	0.074
-729.952	261.078	-0.164	0.285
-728.937	-52.102	-0.468	0.218
-727.923	-88.556	-0.174	0.052
-726.908	-75.725	0.153	-0.055
-725.894	-73.258	-0.228	-0.084
-724.879	800.000	0.054	-0.195
-723.864	800.000	-0.047	0.175
-722.850	-119.872	-0.341	-0.059
-721.835	-68.536	-0.171	-0.067
-720.821	800.000	0.092	0.393
-719.806	115.404	0.170	0.209
-718.791	-83.152	-0.138	-0.045
-717.777	-62.968	-0.135	0.056
-716.762	-200.000	-0.017	-0.202
-715.748	-102.422	0.060	-0.014
-714.733	-147.530	-0.299	0.025
-713.718	-87.526	0.233	0.071
-712.704	-80.574	-0.318	-0.106
-711.689	79.119	-0.097	-0.104
-710.675	-67.582	-0.097	0.038
-709.660	110.056	-0.076	0.092
-708.645	23.241	-0.031	0.026
-707.631	-200.000	-0.006	-0.142
-706.616	40.847	0.144	-0.131
-705.602	527.170	0.018	0.042
-704.587	-200.000	0.015	-0.491
-703.572	-60.332	-0.179	0.077
-702.558	800.000	0.085	-0.244
-701.543	-200.000	0.084	-0.505
-700.529	-61.908	-0.081	-0.034
-699.514	-44.518	0.158	-0.079
-698.499	800.000	-0.068	-0.272
-697.485	800.000	0.048	0.158
-696.470	8.987	0.185	0.140
-695.456	282.025	-0.181	0.325
-694.441	80.731	-0.150	-0.162
-693.426	-126.371	0.492	-0.074
-692.412	71.389	-0.238	-0.248
-691.397	134.447	0.024	-0.032
-690.383	-8.510	0.138	-0.093
-689.368	-200.000	0.019	-0.233
-688.354	188.282	-0.038	-0.057
-687.339	24.898	0.147	0.122
-686.324	53.186	0.274	-0.263
-685.310	222.850	0.166	-0.269
-684.295	125.392	-0.200	-0.254
-683.281	-5.357	-0.131	-0.090
-682.266	-102.831	0.172	-0.041
-681.251	105.909	-0.086	-0.102
-680.237	14.546	0.253	-0.198
-679.222	-17.277	-0.101	0.064
-678.208	-93.113	0.059	-0.017
-677.193	-12.533	-0.214	0.140
-676.178	-49.927	-0.144	0.069
-675.164	-200.000	-0.030	-0.237
-674.149	-72.364	0.160	0.059
-673.135	-200.000	-0.016	0.127
-672.120	605.900	-0.119	-0.298
-671.105	491.111	0.130	-0.298
-670.091	-147.122	-0.329	-0.028
-669.076	-59.951	0.149	-0.064
-668.062	332.898	0.075	-0.146
-667.047	-200.000	0.009	0.052
-666.032	-88.692	-0.299	0.089
-665.018	-134.857	-0.248	0.030
-664.003	-200.000	-0.002	-0.035
-662.989	-200.000	0.048	-0.234
-661.974	-200.000	0.035	-0.613
-660.959	42.443	-0.235	0.215
-659.945	152.931	-0.093	0.128
-658.930	248.621	0.262	0.444
-657.916	134.013	0.305	0.396
-656.901	107.456	-0.196	-0.234
-655.886	-30.067	-0.115	-0.065
-654.872	222.510	0.140	-0.226
-653.857	140.436	0.131	0.173
-652.843	632.496	0.031	0.078
-651.828	-45.271	0.096	0.048
-650.814	-64.909	0.191	-0.077
-649.799	-126.332	0.239	0.036
-648.784	-200.000	0.088	0.419
-647.770	-200.000	0.062	-0.299
-646.755	331.647	0.165	-0.319
-645.741	277.039	-0.150	0.267
-644.726	-9.911	-0.168	-0.112
-643.711	-60.012	0.244	0.105
-642.697	-200.000	-0.012	0.212
-641.682	800.000	0.024	0.084
-640.668	298.285	0.175	-0.323
-639.653	-200.000	0.004	0.125
-638.638	52.622	-0.081	0.078
-637.624	-200.000	-0.100	-0.642
-636.609	38.607	0.048	-0.043
-635.595	33.795	-0.066	-0.058
-634.580	-146.626	0.192	-0.017
-633.565	218.241	0.094	0.150
-632.551	51.284	-0.177	0.168
-631.536	-200.000	0.017	0.103
-630.522	3.195	0.192	0.140
-629.507	793.347	-0.133	0.366
-628.492	-72.902	0.164	0.060
-627.478	6.661	0.045	0.033
-626.463	-87.803	-0.084	0.025
-625.449	537.692	0.116	-0.276
-624.434	180.528	-0.195	-0.286
-623.419	800.000	-0.010	-0.045
-622.405	-138.741	0.169	-0.018
-621.390	6.805	-0.093	0.069
-620.376	-128.101	0.325	-0.047
-619.361	-157.757	0.258	-0.015
-618.346	131.838	0.132	-0.171
-617.332	120.233	-0.153	-0.190
-616.317	-130.790	0.296	0.040
-615.303	-85.874	0.315	-0.098
-614.288	-200.000	-0.013	0.057
-613.273	60.155	-0.058	0.057
-612.259	800.000	-0.009	-0.034
-611.244	-121.627	0.346	0.057
-610.230	-200.000	-0.011	-0.238
-609.215	-200.000	-0.010	0.178
-608.201	339.552	-0.058	0.113
-607.186	-200.000	0.018	0.154
-606.171	-142.919	0.149	-0.014
-605.157	-193.742	-0.293	0.002
-604.142	596.462	0.031	-0.076
-603.128	-200.000	0.010	0.180
-602.113	-128.833	0.239	-0.034
-601.098	246.610	-0.135	-0.229
-600.084	27.716	-0.257	-0.217
-599.069	246.647	-0.166	-0.281
-598.055	-53.913	-0.129	-0.059
-597.040	34.743	0.146	-0.128
-596.025	-59.558	-0.259	-0.111
-595.011	-95.583	-0.149	0.040
-593.996	-130.621	-0.083	-0.011
-592.982	271.609	0.068	-0.119
-591.967	316.706	0.049	0.092
-590.952	-27.297	0.078	0.045
-589.938	138.042	-0.162	-0.213
-588.923	-65.939	-0.144	0.057
-587.909	181.487	-0.072	-0.106
-586.894	-81.176	-0.094	0.031
-585.879	789.998	-0.067	0.185
-584.865	-105.753	0.270	-0.061
-583.850	-68.808	-0.034	-0.013
-582.836	-53.531	0.308	-0.141
-581.821	-98.836	0.516	-0.131
-580.806	-80.473	-0.382	-0.127
-579.792	-158.352	-0.098	0.006
-578.777	63.120	0.198	-0.198
-577.763	21.818	0.260	0.212
-576.748	329.386	-0.103	0.197
-575.733	-200.000	0.004	0.030
-574.719	17.741	0.025	-0.020
-573.704	-21.105	-0.159	-0.097
-572.690	-200.000	0.030	-0.137
-571.675	402.334	-0.051	0.108
-570.661	-18.457	-0.288	-0.179
-569.646	166.096	0.096	0.136
-568.631	89.962	0.214	-0.239
-567.617	-62.797	-0.065	0.027
-566.602	-200.000	-0.022	0.528
-565.588	664.818	-0.072	0.186
-564.573	-4.165	0.286	0.198
-563.558	10.496	-0.356	0.271
-562.544	293.424	-0.109	-0.199
-561.529	-98.842	-0.218	-0.055
-560.515	-141.465	0.136	0.014
-559.500	46.992	-0.268	-0.249
-558.485	-90.940	0.081	-0.023
-557.471	87.230	0.047	0.052
-556.456	296.086	0.135	0.246
-555.442	-200.000	0.059	0.318
-554.427	0.837	-0.315	0.226
-553.412	-200.000	-0.029	-0.626
-552.398	493.069	-0.116	-0.266
-551.383	342.479	0.237	-0.463
-550.369	450.488	0.067	-0.147
-549.354	800.000	0.106	-0.307
-548.339	800.000	0.072	0.281
-547.325	677.029	-0.060	-0.157
-546.310	66.218	0.107	-0.109
-545.296	353.847	0.033	-0.066
-544.281	-164.907	0.131	-0.006
-543.266	-29.947	0.143	0.082
-542.252	-200.000	-0.017	-0.164
-541.237	390.366	-0.086	-0.179
-540.223	-97.072	0.102	0.027
-539.208	-51.857	-0.166	-0.077
-538.193	-198.877	0.197	-0.001
-537.179	206.393	-0.165	-0.257
-536.164	66.065	-0.035	0.036
-535.150	-62.993	-0.075	0.031
-534.135	-200.000	-0.010	-0.144
-533.121	-200.000	-0.028	-0.174
-532.106	-65.225	0.157	-0.063
-531.091	661.089	-0.105	-0.269
-530.077	800.000	-0.033	-0.105
-529.062	-200.000	0.013	-0.177
-528.048	-55.821	-0.153	0.068
-527.033	110.082	-0.176	-0.211
-526.018	216.226	0.033	-0.053
-525.004	-96.326	-0.322	-0.085
-523.989	-110.979	0.079	0.016
-522.975	130.659	0.205	0.262
-521.960	-200.000	0.142	-0.001
-520.945	68.174	-0.513	0.524
-519.931	-49.245	0.100	-0.048
-518.916	-88.791	-0.102	0.030
-517.902	-48.506	-0.230	-0.110
-516.887	-27.584	-0.055	-0.032
-515.872	-200.000	-0.030	0.196
-514.858	111.517	0.144	-0.173
-513.843	-200.000	-0.055	-0.275
-512.829	-51.203	0.206	0.096
-511.814	396.114	-0.146	0.305
-510.799	-200.000	-0.014	-0.286
-509.785	747.703	-0.079	-0.212
-508.770	-19.968	0.161	-0.099
-507.756	245.541	-0.132	0.222
-506.741	-16.252	0.263	-0.166
-505.726	800.000	-0.078	-0.234
-504.712	-200.000	-0.001	-0.088
-503.697	-97.039	-0.269	-0.070
-502.683	800.000	0.084	-0.315
-501.668	-200.000	-0.069	-0.378
-500.653	-162.727	0.120	-0.006
-499.639	-91.821	0.356	0.101
-498.624	28.352	0.155	0.131
-497.610	-48.342	-0.268	0.129
-496.595	13.837	0.112	0.087
-495.581	-168.759	0.182	-0.007
-494.566	800.000	0.019	0.064
-493.551	800.000	0.013	0.047
-492.537	71.959	-0.116	0.121
-491.522	-200.000	0.006	0.151
-490.508	214.771	0.320	-0.505
-489.493	-49.617	0.367	-0.174
-488.478	-179.782	-0.113	0.002
-487.464	202.984	0.256	-0.393
-486.449	-113.741	0.319	-0.062
-485.435	14.439	0.314	0.244
-484.420	734.015	-0.047	-0.125
-483.405	-200.000	0.022	-0.307
-482.391	84.765	-0.073	-0.080
-481.376	212.127	0.058	0.091
-480.362	-77.274	-0.330	0.114
-479.347	-200.000	0.037	0.187
-478.332	-85.903	-0.295	0.091
-477.318	30.373	-0.175	-0.149
-476.303	373.399	0.064	0.130
-475.289	306.854	-0.070	-0.131
-474.274	-111.301	0.024	0.005
-473.259	-16.345	0.079	-0.050
-472.245	487.570	-0.082	0.187
-471.230	800.000	-0.036	-0.145
-470.216	-105.186	0.162	-0.037
-469.201	67.470	0.376	-0.382
-468.186	800.000	0.097	-0.328
-467.172	183.367	0.037	0.054
-466.157	-73.161	-0.303	0.110
-465.143	-162.766	-0.252	0.012
-464.128	90.928	-0.208	0.232
-463.113	112.152	-0.165	-0.198
-462.099	268.772	-0.054	-0.093
-461.084	-200.000	0.022	0.263
-460.070	131.250	-0.180	0.230
-459.055	616.347	0.086	-0.215
-458.040	800.000	-0.035	-0.096
-457.026	-103.870	-0.130	-0.030
-456.011	196.214	-0.214	-0.324
-454.997	28.267	0.173	0.146
-453.982	-60.179	-0.164	0.070
-452.968	76.765	-0.147	0.155
-451.953	211.713	0.078	-0.122
-450.938	800.000	-0.112	0.323
-449.924	-200.000	-0.051	0.226
-448.909	229.527	-0.112	-0.182
-447.895	800.000	-0.032	0.092
-446.880	251.129	-0.092	0.155
-445.865	629.381	-0.061	0.154
-444.851	-132.586	-0.247	-0.032
-443.836	113.464	0.149	0.180
-442.822	-54.346	0.253	0.114
-441.807	-144.343	0.129	0.012
-440.792	17.291	-0.154	0.122
-439.778	198.880	0.155	-0.237
-438.763	183.621	-0.118	0.174
-437.749	-78.421	-0.310	0.106
-436.734	-34.053	0.299	0.163
-435.719	-99.915	0.584	-0.145
-434.705	800.000	0.112	-0.318
-433.690	-106.863	0.314	-0.069
-432.676	125.377	-0.154	0.193
-431.661	49.972	-0.277	0.260
-430.646	-200.000	-0.021	-0.212
-429.632	11.662	0.176	0.134
-428.617	255.871	-0.105	-0.179
-427.603	-40.757	-0.136	0.070
-426.588	-124.394	-0.134	0.021
-425.573	497.928	-0.128	0.294
-424.559	377.391	-0.186	0.378
-423.544	-200.000	-0.046	-0.215
-422.530	13.935	-0.026	-0.020
-421.515	-16.347	0.136	0.086
-420.500	-120.593	-0.191	-0.032
-419.486	111.849	0.124	-0.148
-418.471	-200.000	-0.022	0.247
-417.457	800.000	0.037	-0.130
-416.442	-98.347	0.085	0.022
-415.428	396.610	-0.224	0.465
-414.413	-36.283	0.100	-0.054
-413.398	-200.000	0.019	0.120
-412.384	253.216	-0.094	-0.159
-411.369	52.059	-0.042	-0.040
-410.355	800.000	0.065	0.201
-409.340	-141.839	-0.146	-0.014
-408.325	-200.000	-0.085	-0.415
-407.311	377.003	0.074	-0.150
-406.296	-25.064	0.175	-0.103
-405.282	-200.000	-0.000	-0.149
-404.267	-45.073	-0.077	0.038
-403.252	66.210	-0.254	-0.256
-402.238	-90.861	-0.234	0.067
-401.223	-44.229	0.071	-0.035
-400.209	27.677	-0.102	-0.085
-399.194	32.994	-0.191	0.165
-398.179	-109.308	0.339	-0.071
-397.165	-22.550	0.218	0.131
-396.150	-200.000	-0.030	0.286
-395.136	-200.000	0.019	0.248
-394.121	-200.000	-0.023	0.195
-393.106	-152.075	0.174	0.013
-392.092	150.929	-0.151	0.204
-391.077	-200.000	-0.074	0.477
-390.063	176.990	-0.123	0.177
-389.048	-6.931	0.373	0.251
-388.033	323.244	0.145	-0.274
-387.019	-39.707	-0.053	-0.027
-386.004	176.329	-0.106	0.153
-384.990	24.155	-0.292	0.239
-383.975	800.000	0.028	-0.087
-382.960	53.774	0.128	0.122
-381.946	-200.000	0.003	0.129
-380.931	110.231	0.341	-0.406
-379.917	-14.757	-0.295	0.188
-378.902	-63.792	0.193	0.079
-377.888	187.316	0.030	-0.044
-376.873	-200.000	0.057	0.690
-375.858	-200.000	0.003	-0.376
-374.844	19.351	-0.294	0.235
-373.829	-200.000	-0.006	-0.046
-372.815	26.750	0.286	0.237
-371.800	35.157	-0.219	0.190
-370.785	-24.513	-0.273	0.161
-369.771	-16.823	0.074	-0.047
-368.756	-200.000	0.023	-0.218
-367.742	-200.000	0.021	0.172
-366.727	154.362	-0.052	-0.070
-365.712	56.664	0.173	-0.167
-364.698	381.442	-0.117	0.238
-363.683	-143.620	-0.238	-0.022
-362.669	-200.000	0.008	0.196
-361.654	-176.874	0.297	-0.007
-360.639	-10.987	-0.133	0.087
-359.625	-160.291	-0.318	0.017
-358.610	-126.690	-0.319	-0.047
-357.596	270.871	0.052	-0.090
-356.581	-88.936	-0.318	0.093
-355.566	-40.495	-0.157	-0.081
-354.552	426.447	0.100	0.214
-353.537	638.849	-0.093	-0.235
-352.523	623.656	-0.088	0.221
-351.508	-139.778	-0.266	0.028
-350.493	7.295	0.230	-0.170
-349.479	-159.126	0.238	0.013
-348.464	26.130	-0.370	0.306
-347.450	217.378	-0.069	-0.110
-346.435	-67.246	0.227	0.089
-345.420	-200.000	0.043	-0.215
-344.406	-146.883	-0.393	-0.033
-343.391	556.209	0.062	-0.147
-342.377	300.970	0.112	-0.204
-341.362	-200.000	-0.003	0.250
-340.348	800.000	0.017	-0.073
-339.333	44.624	0.271	0.247
-338.318	-5.499	-0.278	0.189
-337.304	-84.963	0.059	0.018
-336.289	-79.201	-0.199	0.067
-335.275	240.748	0.079	0.130
-334.260	150.401	-0.081	0.109
-333.245	-125.833	0.244	-0.036
-332.231	-39.389	0.283	0.147
-331.216	-200.000	-0.015	0.160
-330.202	-125.502	-0.304	-0.046
-329.187	54.638	-0.194	-0.185
-328.172	-164.679	0.161	0.007
-327.158	18.512	-0.172	-0.136
-326.143	-134.145	-0.270	0.033
-325.129	-117.129	0.215	-0.039
-324.114	-116.915	0.140	-0.025
-323.099	-26.608	-0.198	0.115
-322.085	-200.000	0.012	0.070
-321.070	-170.813	-0.346	-0.012
-320.056	517.977	-0.068	0.158
-319.041	135.535	-0.243	0.313
-318.026	-177.707	0.257	0.006
-317.012	486.278	0.158	-0.356
-315.997	290.702	0.021	0.038
-314.983	241.149	0.093	-0.154
-313.968	-200.000	-0.025	-0.287
-312.953	199.897	0.090	0.137
-311.939	37.321	0.066	-0.058
-310.924	53.709	0.044	-0.042
-309.910	-200.000	0.014	-0.170
-308.895	800.000	-0.103	-0.331
-307.880	-115.253	0.325	-0.061
-306.866	800.000	-0.043	0.120
-305.851	-88.858	-0.159	-0.047
-304.837	-112.225	0.134	-0.027
-303.822	695.503	0.083	-0.216
-302.807	-146.464	0.247	-0.021
-301.793	-41.118	0.208	0.106
-300.778	-77.492	0.132	0.045
-299.764	-28.374	0.324	0.185
-298.749	-200.000	-0.025	0.354
-297.735	800.000	-0.099	-0.374
-296.720	367.664	-0.060	-0.119
-295.705	116.243	0.153	0.186
-294.691	-46.584	-0.317	-0.154
-293.676	84.553	0.229	-0.248
-292.662	159.382	-0.058	0.080
-291.647	-170.727	0.189	0.006
-290.632	-200.000	0.006	-0.107
-289.618	-200.000	-0.002	-0.264
-288.603	212.465	0.122	-0.190
-287.589	-40.438	-0.284	-0.146
-286.574	27.595	0.089	-0.074
-285.559	48.605	-0.224	0.208
-284.545	89.291	0.156	0.172
-283.530	-29.666	0.123	0.070
-282.516	-200.000	0.033	-0.360
-281.501	-200.000	0.037	0.596
-280.486	96.303	-0.081	0.092
-279.472	92.299	0.133	0.149
-278.457	-91.282	-0.205	0.058
-277.443	-170.795	0.086	-0.003
-276.428	-86.889	-0.354	0.107
-275.413	-65.577	-0.037	0.015
-274.399	172.235	-0.165	0.235
-273.384	-15.401	-0.291	0.184
-272.370	800.000	0.040	-0.114
-271.355	2.391	-0.365	-0.261
-270.340	-200.000	-0.013	0.130
-269.326	10.782	0.057	0.043
-268.311	-94.739	0.073	0.020
-267.297	-96.120	0.076	-0.020
-266.282	-86.507	0.187	-0.057
-265.267	-158.960	-0.184	-0.010
-264.253	8.152	0.221	0.164
-263.238	-130.507	0.196	-0.026
-262.224	-200.000	0.020	-0.254
-261.209	-200.000	0.002	-0.326
-260.195	-200.000	-0.054	-0.371
-259.180	-126.225	-0.409	0.060
-258.165	-98.905	-0.154	0.039
-257.151	800.000	-0.041	0.145
-256.136	566.892	-0.051	0.122
-255.122	-100.538	0.060	0.015
-254.107	-4.711	-0.129	-0.088
-253.092	-38.817	0.257	0.134
-252.078	349.157	-0.035	-0.068
-251.063	800.000	0.026	0.104
-250.049	-83.793	-0.340	0.107
-249.034	-5.756	0.324	-0.219
-248.019	-96.522	-0.115	-0.030
-247.005	43.919	0.182	-0.165
-245.990	-200.000	-0.031	0.158
-244.976	800.000	-0.046	-0.126
-243.961	137.911	0.205	0.266
-242.946	-19.457	0.279	-0.171
-241.932	-75.119	-0.249	-0.088
-240.917	202.923	0.040	0.060
-239.903	80.012	0.055	0.058
-238.888	-20.382	-0.165	-0.100
-237.873	242.210	0.158	0.260
-236.859	-54.539	0.372	-0.166
-235.844	-200.000	-0.002	0.070
-234.830	-106.410	0.055	-0.012
-233.815	18.816	0.151	-0.119
-232.800	87.008	-0.203	0.221
-231.786	14.737	0.127	0.098
-230.771	-12.565	0.170	0.109
-229.757	-200.000	-0.062	0.359
-228.742	-200.000	-0.031	-0.356
-227.727	48.743	-0.118	0.109
-226.713	221.849	0.237	-0.376
-225.698	-200.000	0.021	0.111
-224.684	-200.000	0.059	0.426
-223.669	182.104	0.244	0.355
-222.655	32.464	0.166	-0.141
-221.640	428.823	0.048	0.102
-220.625	-200.000	0.002	0.060
-219.611	140.849	-0.084	-0.110
-218.596	-200.000	0.007	0.067
-217.582	281.221	0.094	0.166
-216.567	-200.000	-0.036	0.214
-215.552	800.000	0.095	0.288
-214.538	-80.431	0.124	0.041
-213.523	-200.000	-0.009	0.149
-212.509	322.137	-0.122	-0.229
-211.494	-90.375	0.182	0.052
-210.479	-200.000	0.031	0.230
-209.465	46.204	-0.060	-0.055
-208.450	91.628	0.171	-0.190
-207.436	307.471	-0.146	-0.269
-206.421	-81.003	-0.394	-0.128
-205.406	772.084	0.034	0.091
-204.392	83.293	-0.105	0.113
-203.377	-133.237	0.393	0.049
-202.363	232.995	0.092	0.149
-201.348	82.835	-0.083	-0.089
-200.333	190.716	-0.070	-0.103
-199.319	-123.723	0.243	0.038
-198.304	-119.492	-0.397	0.068
-197.290	-31.289	0.106	-0.059
-196.275	-22.722	-0.165	-0.098
-195.260	-46.823	-0.334	-0.161
-194.246	-98.909	0.047	-0.012
-193.231	148.309	-0.037	-0.049
-192.217	-106.828	0.289	-0.063
-191.202	56.184	-0.110	-0.105
-190.187	800.000	0.033	-0.117
-189.173	167.709	0.231	-0.323
-188.158	-7.835	-0.057	0.038
-187.144	-200.000	-0.027	-0.195
-186.129	800.000	0.049	0.162
-185.114	34.436	-0.234	-0.201
-184.100	-43.873	-0.110	0.054
-183.085	-185.851	0.175	-0.003
-182.071	308.055	-0.106	-0.195
-181.056	-18.277	-0.118	-0.072
-180.042	-23.050	0.156	0.093
-179.027	-200.000	-0.029	0.384
-178.012	-200.000	-0.009	-0.093
-176.998	-119.542	0.106	-0.018
-175.983	84.542	-0.221	0.238
-174.969	-200.000	-0.027	0.138
-173.954	501.496	-0.025	-0.056
-172.939	297.744	-0.058	-0.105
-171.925	164.395	0.079	-0.110
-170.910	-78.102	0.196	0.066
-169.896	734.491	-0.052	0.137
-168.881	-135.845	0.194	0.023
-167.866	800.000	-0.059	-0.173
-166.852	308.739	-0.202	0.371
-165.837	-200.000	0.037	-0.252
-164.823	32.702	0.138	0.117
-163.808	-65.505	-0.158	0.062
-162.793	-200.000	0.002	0.206
-161.779	-200.000	0.008	0.407
-160.764	-200.000	-0.004	0.035
-159.750	420.469	0.139	-0.292
-158.735	-60.459	-0.144	0.060
-157.720	50.457	0.203	0.189
-156.706	-80.788	0.104	0.034
-155.691	-114.855	0.083	0.016
-154.677	13.042	-0.103	-0.078
-153.662	268.363	-0.096	-0.166
-152.647	58.635	-0.174	-0.168
-151.633	-200.000	0.007	0.111
-150.618	-105.288	0.044	0.010
-149.604	-80.968	0.404	0.132
-148.589	-165.496	0.274	-0.012
-147.574	-82.955	0.088	0.028
-146.560	208.665	-0.040	-0.062
-145.545	172.200	0.067	-0.095
-144.531	603.632	0.109	-0.265
-143.516	-116.634	-0.337	0.061
-142.502	800.000	-0.089	0.250
-141.487	-162.340	0.163	-0.008
-140.472	-122.700	-0.537	0.085
-139.458	23.748	0.157	-0.127
-138.443	800.000	0.061	0.254
-137.429	-200.000	-0.008	0.193
-136.414	-2.936	0.070	0.048
-135.399	212.553	0.152	0.236
-134.385	145.721	0.099	-0.130
-133.370	-86.937	-0.098	-0.029
-132.356	120.149	0.104	-0.127
-131.341	359.683	0.216	-0.424
-130.326	200.739	0.159	0.240
-129.312	60.493	-0.033	-0.032
-128.297	-30.058	-0.570	-0.319
-127.283	800.000	0.078	0.262
-126.268	800.000	0.092	0.306
-125.253	20.126	0.083	0.066
-124.239	-200.000	0.034	-0.206
-123.224	-200.000	0.063	-0.382
-122.210	-200.000	0.003	-0.152
-121.195	-200.000	-0.020	-0.161
-120.180	186.617	-0.170	0.248
-119.166	-104.169	0.214	0.049
-118.151	-200.000	-0.032	-0.259
-117.137	-70.041	0.132	0.049
-116.122	191.394	0.151	-0.223
-115.107	-91.248	0.302	-0.085
-114.093	210.724	-0.060	-0.093
-113.078	-53.502	0.164	0.074
-112.064	86.608	0.154	-0.167
-111.049	800.000	-0.056	0.197
-110.034	-200.000	-0.004	-0.277
-109.020	213.418	0.132	-0.204
-108.005	-31.234	-0.108	0.059
-106.991	120.368	0.228	0.277
-105.976	-19.898	0.061	-0.037
-104.962	27.045	-0.075	0.062
-103.947	-149.260	-0.329	0.026
-102.932	46.728	-0.071	-0.064
-101.918	-200.000	-0.032	-0.145
-100.903	-43.387	-0.183	0.091
-99.889	-200.000	-0.031	-0.372
-98.874	-200.000	-0.079	-0.545
-97.859	800.000	0.034	0.105
-96.845	-55.752	-0.264	0.116
-95.830	32.826	0.214	0.182
-94.816	-55.178	-0.334	0.147
-93.801	180.282	0.042	0.060
-92.786	24.937	0.036	-0.029
-91.772	-85.754	-0.157	0.048
-90.757	228.466	0.246	-0.394
-89.743	800.000	0.022	0.080
-88.728	-80.984	0.137	-0.045
-87.713	-2.247	-0.329	-0.226
-86.699	-26.203	-0.072	0.042
-85.684	367.267	0.120	-0.238
-84.670	31.728	-0.030	0.025
-83.655	-200.000	0.052	0.336
-82.640	5.311	0.200	0.144
-81.626	-73.770	-0.189	-0.068
-80.611	-76.783	-0.137	0.047
-79.597	-36.341	0.316	0.167
-78.582	3.958	0.174	0.125
-77.567	265.192	-0.124	0.212
-76.553	567.760	0.057	0.135
-75.538	201.076	-0.066	-0.099
-74.524	-9.147	0.033	0.021
-73.509	-93.577	-0.208	-0.056
-72.494	111.131	-0.102	-0.120
-71.480	-165.147	0.257	-0.011
-70.465	800.000	-0.018	0.057
-69.451	-35.486	-0.087	0.046
-68.436	161.647	-0.138	0.189
-67.422	6.774	0.178	-0.130
-66.407	-101.582	-0.125	0.030
-65.392	-1.785	0.151	-0.104
-64.378	-200.000	-0.047	0.248
-63.363	-200.000	-0.018	0.198
-62.349	319.160	0.090	-0.168
-61.334	57.012	-0.934	-0.892
-60.319	439.532	0.285	0.610
-59.305	-200.000	-0.106	-0.699
-58.290	203.458	0.756	1.146
-57.276	577.062	0.613	1.467
-56.261	-200.000	106.619	620.406
-55.246	515.601	1511.190	3457.084
-54.232	176.099	2703.708	3844.636
-53.217	111.281	2165.225	2555.640
-52.203	41.305	1600.550	1417.429
-51.188	32.689	1336.712	1132.263
-50.173	29.662	1295.366	1079.541
-49.159	54.130	1349.989	1271.649
-48.144	54.343	1365.193	1287.186
-47.130	32.825	1319.425	1118.244
-46.115	29.390	1301.981	1083.285
-45.100	29.228	1297.327	1078.427
-44.086	29.112	1294.843	1075.637
-43.071	29.073	1292.530	1073.445
-42.057	29.003	1290.460	1071.281
-41.042	29.210	1288.001	1070.395
-40.027	29.065	1287.069	1068.739
-39.013	29.023	1285.079	1066.800
-37.998	29.110	1283.218	1065.716
-36.984	29.137	1281.262	1064.203
-35.969	29.272	1279.242	1063.263
-34.954	29.330	1277.613	1062.205
-33.940	29.292	1276.434	1060.961
-32.925	29.324	1275.315	1060.171
-31.911	29.338	1273.983	1059.104
-30.896	29.387	1272.278	1057.925
-29.881	29.301	1271.067	1056.382
-28.867	29.326	1269.731	1055.375
-27.852	29.371	1267.911	1054.078
-26.838	29.409	1266.547	1053.117
-25.823	29.272	1265.904	1051.762
-24.809	29.330	1264.142	1050.588
-23.794	29.223	1263.089	1049.058
-22.779	29.326	1261.504	1048.288
-21.765	29.359	1260.331	1047.456
-20.750	29.278	1258.699	1045.603
-19.736	29.361	1257.264	1044.840
-18.721	29.210	1256.740	1043.503
-17.706	29.207	1255.057	1042.050
-16.692	29.256	1254.060	1041.458
-15.677	29.250	1253.355	1040.797
-14.663	29.221	1252.128	1039.571
-13.648	29.226	1250.514	1038.221
-12.633	29.256	1249.727	1037.694
-11.619	29.136	1249.773	1037.013
-10.604	29.197	1247.984	1035.831
-9.590	29.218	1247.348	1035.383
-8.575	29.169	1246.437	1034.307
-7.560	29.057	1246.171	1033.420
-6.546	29.248	1244.576	1033.126
-5.531	29.323	1243.703	1032.780
-4.517	29.258	1242.889	1031.700
-3.502	29.189	1242.609	1031.042
-2.487	29.270	1241.048	1030.154
-1.473	29.238	1236.770	1026.384
-0.458	27.747	1222.918	1006.632
0.556	22.330	1205.379	970.919
1.571	18.801	1211.174	955.898
2.586	18.123	1225.719	963.469
3.600	17.843	1214.958	953.365
4.615	12.908	1143.877	871.490
5.629	4.105	1069.366	770.995
6.644	0.044	1049.728	736.902
7.659	-0.359	1047.453	733.270
8.673	-0.410	1045.980	731.923
9.688	-0.425	1044.552	730.787
10.702	-0.008	1042.916	731.606
11.717	5.667	1051.100	765.055
12.731	14.838	1064.154	819.649
13.746	19.373	1069.971	846.367
14.761	20.269	1070.852	851.385
15.775	20.444	1070.139	851.604
16.790	20.093	1069.748	849.494
17.804	20.171	1068.488	848.802
18.819	20.189	1068.744	849.020
19.834	20.343	1067.734	848.895
20.848	20.264	1067.786	848.475
21.863	20.366	1066.908	848.200
22.877	20.244	1066.317	847.060
23.892	20.073	1066.002	845.900
24.907	20.224	1065.309	846.013
25.921	20.294	1063.322	844.701
26.936	20.220	1062.401	843.535
27.950	20.115	1060.702	841.600
28.965	20.147	1058.974	840.310
29.980	20.167	1057.315	839.017
30.994	20.308	1056.646	839.094
32.009	20.257	1055.506	837.864
33.023	20.135	1054.072	836.063
34.038	20.190	1053.351	835.683
35.053	20.369	1052.588	835.869
36.067	20.347	1051.956	835.187
37.082	20.446	1051.287	835.056
38.096	20.475	1050.627	834.600
39.111	20.600	1049.465	834.200
40.126	20.412	1048.371	832.358
41.140	20.154	1045.872	829.064
42.155	19.963	1044.642	827.105
43.169	20.024	1043.662	826.545
44.184	19.932	1042.909	825.438
45.199	20.034	1041.472	824.713
46.213	19.947	1040.719	823.629
47.228	20.095	1039.761	823.500
48.242	20.166	1038.986	823.151
49.257	20.407	1037.567	823.099
50.271	20.352	1037.260	822.523
51.286	20.257	1037.122	821.890
52.301	20.304	1035.735	820.941
53.315	20.317	1034.461	819.919
54.330	20.239	1034.535	819.537
55.344	20.353	1033.080	818.848
56.359	20.278	1031.770	817.385
57.374	20.080	1031.107	815.853
58.388	20.125	1030.453	815.477
59.403	20.056	1029.418	814.263
60.417	20.008	1028.059	812.887
61.432	19.997	1028.236	812.905
62.447	20.156	1027.542	813.033
63.461	20.232	1026.583	812.557
64.476	20.219	1025.403	811.487
65.490	20.090	1024.566	810.153
66.505	19.956	1024.231	809.190
67.520	20.017	1023.412	808.757
68.534	19.926	1022.462	807.509
69.549	19.627	1021.443	805.238
70.563	19.812	1020.067	804.946
71.578	19.724	1019.667	804.150
72.593	19.556	1018.437	802.327
73.607	19.629	1018.133	802.356
74.622	19.966	1017.687	803.496
75.636	20.053	1016.734	803.075
76.651	19.843	1015.914	801.383
77.666	19.740	1015.083	800.181
78.680	19.923	1014.269	800.315
79.695	20.031	1014.018	800.545
80.709	20.054	1013.179	799.917
81.724	19.954	1012.271	798.671
82.739	20.025	1011.658	798.443
83.753	20.317	1011.008	799.204
84.768	20.548	1010.345	799.670
85.782	20.614	1009.106	798.922
86.797	20.438	1008.539	797.598
87.812	20.470	1007.225	796.635
88.826	20.273	1006.850	795.365
89.841	20.511	1005.565	795.367
90.855	20.641	1004.039	794.686
91.870	20.438	1003.744	793.452
92.884	20.395	1002.062	791.855
93.899	20.430	1001.460	791.468
94.914	20.346	1001.083	790.721
95.928	20.404	999.409	789.589
96.943	20.068	998.506	787.283
97.957	19.986	997.107	785.737
98.972	19.780	995.908	783.789
99.987	20.155	994.947	784.663
101.001	20.364	994.246	784.981
102.016	20.184	993.786	783.738
103.030	20.258	992.641	783.101
104.045	20.036	991.513	781.139
105.060	19.807	990.837	779.507
106.074	20.173	990.316	780.675
107.089	20.400	989.452	780.948
108.103	20.325	988.167	779.527
109.118	20.107	987.288	777.784
110.133	19.996	986.464	776.569
111.147	20.008	984.637	775.118
112.162	19.813	983.784	773.505
113.176	20.043	983.224	774.021
114.191	19.863	982.385	772.493
115.206	19.601	981.298	770.397
116.220	19.722	980.236	770.037
117.235	19.873	979.134	769.773
118.249	19.870	978.459	769.162
119.264	19.682	978.056	767.941
120.279	19.768	977.179	767.567
121.293	19.971	976.403	767.790
122.308	19.827	975.699	766.529
123.322	19.948	973.702	765.429
124.337	19.725	972.485	763.420
125.352	19.144	971.466	759.989
126.366	19.176	970.369	759.203
127.381	19.964	970.591	762.785
128.395	20.149	969.792	762.902
129.410	20.381	968.634	762.945
130.424	20.239	968.002	761.752
131.439	20.178	967.259	760.834
132.454	20.208	966.539	760.333
133.468	20.179	964.937	758.879
134.483	20.342	964.446	759.136
135.497	20.552	963.433	759.189
136.512	20.548	962.647	758.485
137.527	20.613	961.631	757.902
138.541	20.549	961.202	757.217
139.556	20.578	960.357	756.611
140.570	20.611	959.549	756.052
141.585	20.563	958.167	754.690
142.600	20.439	957.557	753.603
143.614	20.716	956.755	754.104
144.629	20.714	955.995	753.431
145.643	20.648	954.479	751.882
146.658	20.437	953.401	750.059
147.673	20.553	952.183	749.533
148.687	20.345	951.319	747.891
149.702	20.243	950.553	746.783
150.716	20.339	949.423	746.244
151.731	20.453	949.151	746.451
152.746	20.679	948.372	746.743
153.760	20.681	947.611	746.088
154.775	20.818	946.929	746.070
155.789	20.665	945.890	744.531
156.804	20.732	944.936	744.001
157.819	20.696	944.651	743.556
158.833	20.850	943.996	743.633
159.848	20.833	942.848	742.591
160.862	20.625	941.698	740.733
161.877	20.682	940.909	740.288
162.892	20.727	940.193	739.853
163.906	20.758	938.810	738.832
164.921	20.659	937.947	737.665
165.935	20.692	937.449	737.348
166.950	20.643	936.593	736.401
167.964	20.605	935.477	735.298
168.979	20.462	934.177	733.610
169.994	20.563	933.392	733.353
171.008	20.780	932.975	733.876
172.023	20.788	931.931	733.023
173.037	20.530	930.811	730.994
174.052	20.351	929.991	729.534
175.067	20.368	929.538	729.182
176.081	20.573	928.723	729.340
177.096	20.537	928.027	728.577
178.110	20.319	927.134	726.898
179.125	20.013	926.556	725.102
180.140	20.114	926.306	725.266
181.154	20.316	925.887	725.715
182.169	20.449	925.734	726.087
183.183	20.748	925.035	726.722
184.198	20.630	923.975	725.337
185.213	20.522	923.119	724.148
186.227	20.773	922.526	724.665
187.242	20.716	921.489	723.548
188.256	20.699	921.636	723.532
189.271	20.811	920.627	723.138
190.286	20.567	919.175	720.921
191.300	19.875	917.958	717.038
192.315	19.346	916.385	713.558
193.329	19.408	916.323	713.701
194.344	20.140	916.851	717.078
195.359	20.501	916.354	718.121
196.373	20.593	915.711	717.930
197.388	20.659	915.072	717.638
198.402	20.560	914.184	716.473
199.417	20.585	913.659	716.099
200.432	20.208	913.010	713.974
201.446	20.186	912.048	713.071
202.461	20.175	911.560	712.580
203.475	19.387	909.364	707.569
204.490	18.721	907.959	703.685
205.504	19.627	908.853	708.031
206.519	20.147	908.634	709.928
207.534	20.268	908.309	710.104
208.548	20.626	907.992	711.258
209.563	20.370	906.971	709.351
210.577	20.443	906.017	708.837
211.592	20.766	906.341	710.347
212.607	20.726	904.858	708.961
213.621	20.862	904.320	709.029
214.636	20.815	903.464	708.104
215.650	20.721	903.062	707.345
216.665	20.907	902.456	707.565
217.680	20.741	901.419	706.014
218.694	20.284	900.094	703.064
219.709	20.213	899.709	702.413
220.723	20.450	899.078	702.818
221.738	20.567	898.454	702.738
222.753	20.511	897.962	702.066
223.767	20.656	897.449	702.190
224.782	20.870	897.179	702.779
225.796	20.784	896.710	702.003
226.811	20.169	895.023	698.144
227.826	19.675	893.381	694.815
228.840	19.932	893.202	695.648
229.855	19.895	892.156	694.624
230.869	19.484	891.240	692.199
231.884	20.069	891.205	694.458
232.899	20.672	891.648	697.157
233.913	20.488	891.164	695.982
234.928	20.598	890.328	695.708
235.942	20.466	889.780	694.687
236.957	20.441	888.495	693.524
237.972	20.262	887.945	692.320
238.986	20.457	887.639	692.796
240.001	20.359	887.136	691.953
241.015	20.313	886.663	691.338
242.030	20.509	886.172	691.676
243.045	20.629	885.441	691.521
244.059	20.784	885.062	691.779
245.074	20.588	883.864	690.005
246.088	20.241	883.103	687.972
247.103	20.612	882.687	689.059
248.117	20.987	882.872	690.626
249.132	21.153	882.317	690.790
250.147	21.255	881.722	690.665
251.161	21.306	881.035	690.267
252.176	21.356	880.335	689.858
253.190	21.502	879.688	689.864
254.205	21.566	879.354	689.794
255.220	21.676	878.571	689.549
256.234	21.391	877.669	687.663
257.249	21.229	877.122	686.534
258.263	21.361	876.350	686.387
259.278	21.547	875.574	686.448
260.293	21.493	875.066	685.778
261.307	21.338	874.380	684.573
262.322	21.117	873.620	683.052
263.336	20.303	871.546	678.192
264.351	19.302	869.423	672.575
265.366	19.487	869.554	673.340
266.380	20.634	869.786	677.934
267.395	21.067	869.826	679.592
268.409	20.863	869.037	678.121
269.424	21.106	868.789	678.812
270.439	21.267	867.636	678.477
271.453	21.356	867.331	678.522
272.468	21.494	867.169	678.871
273.482	21.513	866.716	678.531
274.497	21.214	865.056	676.015
275.512	20.858	864.087	673.819
276.526	21.122	864.108	674.797
277.541	21.455	863.702	675.708
278.555	21.008	863.439	673.716
279.570	20.905	862.435	672.475
280.585	21.196	861.464	672.779
281.599	21.034	860.459	671.312
282.614	20.637	859.095	668.663
283.628	20.548	859.128	668.287
284.643	20.988	858.133	669.141
285.657	20.572	857.177	666.744
286.672	20.193	856.553	664.748
287.687	20.867	856.759	667.431
288.701	20.764	856.390	666.691
289.716	20.562	854.895	664.694
290.730	20.431	854.827	664.082
291.745	20.184	853.770	662.260
292.760	20.613	853.244	663.430
293.774	21.592	853.514	667.313
294.789	21.803	853.393	667.963
295.803	21.851	852.748	667.582
296.818	21.917	851.786	667.024
297.833	21.410	850.813	664.275
298.847	21.142	850.674	663.091
299.862	21.717	849.991	664.681
300.876	21.866	849.952	665.158
301.891	21.671	848.989	663.605
302.906	21.265	848.282	661.459
303.920	21.335	847.627	661.152
304.935	21.772	847.433	662.597
305.949	21.704	846.806	661.790
306.964	21.475	846.031	660.261
307.979	21.392	845.861	659.757
308.993	21.814	845.603	661.090
310.008	21.856	844.998	660.716
311.022	21.677	844.007	659.207
312.037	21.523	843.382	658.084
313.052	21.241	842.759	656.478
314.066	20.399	841.028	651.913
315.081	20.288	840.422	650.970
316.095	21.022	840.674	653.860
317.110	21.424	840.747	655.365
318.125	20.693	838.829	651.077
319.139	19.725	837.268	646.194
320.154	19.716	837.302	646.128
321.168	20.584	837.750	649.660
322.183	21.188	837.824	651.916
323.197	21.414	836.877	651.966
324.212	21.546	836.641	652.214
325.227	21.578	836.468	652.142
326.241	21.489	835.581	651.062
327.256	21.461	834.735	650.242
328.270	21.254	834.348	649.113
329.285	21.201	833.344	648.079
330.300	20.852	832.756	646.268
331.314	21.325	831.898	647.297
332.329	21.483	832.304	648.142
333.343	21.661	831.502	648.120
334.358	21.771	831.112	648.162
335.373	21.750	830.710	647.716
336.387	22.068	830.799	648.903
337.402	22.230	830.162	648.945
338.416	22.030	829.890	647.939
339.431	22.087	829.431	647.731
340.446	22.384	829.252	648.630
341.460	22.117	828.889	647.306
342.475	21.942	828.356	646.185
343.489	21.926	828.100	645.869
344.504	22.288	827.459	646.647
345.519	22.462	827.030	646.892
346.533	22.563	826.838	647.054
347.548	22.504	826.258	646.327
348.562	22.446	825.849	645.739
349.577	22.458	825.034	645.088
350.592	22.426	824.604	644.577
351.606	22.494	823.765	644.112
352.621	22.145	823.071	642.239
353.635	22.064	822.476	641.421
354.650	21.536	820.620	637.992
355.665	20.627	819.647	633.869
356.679	21.126	819.138	635.234
357.694	21.484	818.716	636.154
358.708	21.594	817.922	635.879
359.723	21.944	817.988	637.148
360.738	22.109	817.411	637.240
361.752	22.105	817.561	637.286
362.767	22.551	816.688	638.163
363.781	22.647	816.634	638.413
364.796	22.712	816.468	638.463
365.810	22.698	815.999	637.990
366.825	22.810	815.079	637.617
367.840	22.490	814.204	635.723
368.854	22.090	813.592	633.746
369.869	22.195	813.258	633.805
370.883	22.142	812.892	633.274
371.898	22.175	811.984	632.631
372.913	22.124	811.725	632.186
373.927	22.129	811.973	632.344
374.942	22.311	810.999	632.185
375.956	22.452	810.962	632.604
376.971	22.736	809.699	632.582
377.986	22.656	810.366	632.761
379.000	22.650	809.473	631.986
380.015	22.490	808.819	630.846
381.029	22.525	808.257	630.478
382.044	22.642	807.822	630.500
383.059	22.705	807.157	630.149
384.073	22.832	806.679	630.175
385.088	22.686	805.900	628.991
386.102	22.496	805.399	627.864
387.117	22.457	804.643	627.082
388.132	22.258	803.541	625.460
389.146	21.766	802.358	622.735
390.161	21.936	802.780	623.613
391.175	22.466	802.559	625.269
392.190	22.187	801.309	623.251
393.205	21.033	799.216	617.486
394.219	19.538	798.095	611.274
395.234	19.513	797.851	610.944
396.248	20.944	799.465	617.196
397.263	22.366	799.714	622.369
398.278	22.493	799.140	622.315
399.292	22.092	798.840	620.610
400.307	22.089	798.263	620.096
401.321	22.240	798.161	620.495
402.336	22.819	797.386	621.876
403.350	23.019	797.651	622.734
404.365	23.222	797.365	623.171
405.380	23.555	796.976	623.984
406.394	23.415	796.824	623.315
407.409	23.356	795.987	622.400
408.423	23.414	795.736	622.351
409.438	23.490	795.071	622.043
410.453	23.446	794.864	621.671
411.467	23.317	794.400	620.801
412.482	23.432	793.892	620.751
413.496	23.417	793.427	620.283
414.511	23.477	793.064	620.154
415.526	23.304	792.892	619.357
416.540	23.307	792.057	618.663
417.555	22.950	791.461	616.896
418.569	23.070	790.980	616.882
419.584	23.201	790.190	616.669
420.599	22.961	789.778	615.457
421.613	158.228	1364.645	1798.400
422.628	137.046	1448.391	1798.523
