DTS Sentinel unit serial number:	SN413079Multiplexer serial number:	ORYXHardware model number:	OX4-SRSoftware version number:	ORYX F/W v4.00 Oryx Data Collector v3.7.2.0data status	okinstallation	princeton_trtdifferential loss correction	single-endedforward channel	channel 1reverse channel	N/Adate	2019/09/11time	09:20:11forward acquisition time	60.00reverse acquisition time	0.00gamma	496.2192k internal	0.2307k external	0.2307temperature offset calibration	0.9952default loss term (dB/km)	0.3790temperature slope calibration	1.0000multiplexer offset coefficient	1.0000multiplexer slope coefficient	1.0000fibre end	0.00T internal ref (°C)	34.48T ext. ref 1 (°C)	0.10T ext. ref 2 (°C)	31.30length (m)	temperature (°C)	Stokes	anti-Stokes-747.200	-114.744	0.281	-0.055
-746.185	16.762	0.208	0.167
-745.171	-200.000	-0.040	0.371
-744.156	-98.799	0.320	0.083
-743.142	621.350	0.048	0.122
-742.127	236.659	0.131	0.221
-741.112	35.334	0.287	-0.256
-740.098	-200.000	-0.042	0.234
-739.083	-156.841	-0.248	-0.016
-738.069	43.658	0.123	0.115
-737.054	800.000	0.115	0.342
-736.039	-152.519	-0.159	-0.012
-735.025	341.683	0.176	0.349
-734.010	278.256	-0.078	-0.142
-732.996	80.485	0.154	0.169
-731.981	8.757	-0.041	0.031
-730.966	800.000	-0.019	0.061
-729.952	209.654	0.286	0.455
-728.937	187.791	-0.123	-0.187
-727.923	-200.000	0.014	-0.071
-726.908	357.583	0.108	-0.219
-725.894	61.367	0.041	-0.042
-724.879	532.266	-0.088	0.212
-723.864	-200.000	-0.004	-0.347
-722.850	-33.789	-0.106	-0.060
-721.835	745.570	0.080	-0.220
-720.821	682.798	0.070	-0.185
-719.806	370.961	-0.114	-0.235
-718.791	-179.457	-0.463	-0.010
-717.777	58.130	-0.338	-0.336
-716.762	-92.770	0.012	0.003
-715.748	390.071	-0.018	-0.039
-714.733	-147.494	0.132	-0.011
-713.718	-21.041	-0.029	-0.018
-712.704	-200.000	-0.016	0.087
-711.689	335.611	-0.082	-0.161
-710.675	22.831	-0.045	-0.037
-709.660	-95.873	-0.074	-0.020
-708.645	-150.656	-0.206	0.016
-707.631	-200.000	0.007	-0.215
-706.616	-200.000	0.018	-0.109
-705.602	-17.730	-0.209	-0.133
-704.587	165.757	0.135	-0.194
-703.572	-80.986	-0.424	0.143
-702.558	159.642	0.163	0.231
-701.543	19.774	-0.124	-0.102
-700.529	-200.000	0.027	-0.387
-699.514	114.932	0.095	0.118
-698.499	-175.401	-0.281	-0.008
-697.485	-28.221	0.013	-0.007
-696.470	602.326	0.090	-0.227
-695.456	138.679	0.194	0.259
-694.441	3.087	0.179	-0.132
-693.426	-186.153	0.149	-0.002
-692.412	38.911	-0.219	0.198
-691.397	-122.379	0.454	-0.075
-690.383	800.000	-0.057	-0.189
-689.368	210.400	-0.112	-0.178
-688.354	2.743	0.229	-0.169
-687.339	16.579	0.291	-0.233
-686.324	-200.000	-0.009	-0.149
-685.310	120.987	-0.079	0.100
-684.295	33.262	0.281	-0.248
-683.281	-153.116	-0.029	0.002
-682.266	-15.460	0.214	-0.138
-681.251	45.602	0.355	0.333
-680.237	800.000	0.009	0.030
-679.222	-65.259	0.285	-0.117
-678.208	-22.909	-0.120	-0.074
-677.193	-116.825	0.444	0.082
-676.178	-200.000	0.024	-0.164
-675.164	50.606	-0.136	-0.130
-674.149	427.001	0.009	-0.019
-673.135	-121.884	0.076	-0.013
-672.120	-11.570	-0.412	-0.274
-671.105	-200.000	0.018	0.210
-670.091	493.548	-0.145	0.336
-669.076	-124.852	0.161	0.025
-668.062	-200.000	0.003	-0.027
-667.047	-136.141	-0.408	-0.048
-666.032	-200.000	-0.012	-0.317
-665.018	-99.059	0.231	-0.059
-664.003	182.765	-0.055	-0.082
-662.989	-78.527	-0.182	-0.063
-661.974	115.691	-0.067	0.083
-660.959	506.650	-0.165	0.387
-659.945	21.673	0.119	-0.098
-658.930	-176.108	0.250	0.007
-657.916	-42.296	-0.255	-0.132
-656.901	-29.581	0.108	0.063
-655.886	-200.000	0.026	-0.125
-654.872	-200.000	0.026	0.141
-653.857	49.291	-0.218	-0.208
-652.843	76.749	0.172	-0.185
-651.828	800.000	-0.089	-0.356
-650.814	-64.971	0.207	-0.085
-649.799	100.498	-0.156	0.183
-648.784	36.956	-0.130	-0.116
-647.770	232.819	0.063	-0.105
-646.755	-30.679	0.372	-0.213
-645.741	800.000	0.070	-0.294
-644.726	-130.166	-0.191	-0.026
-643.711	153.780	0.225	-0.313
-642.697	274.741	0.047	0.084
-641.682	689.417	0.091	0.242
-640.668	-184.411	-0.189	0.003
-639.653	-158.142	0.242	-0.014
-638.638	-102.061	0.258	-0.063
-637.624	-101.451	0.060	-0.015
-636.609	-68.622	-0.275	0.108
-635.595	102.514	0.450	-0.533
-634.580	-200.000	-0.041	-0.256
-633.565	548.105	-0.099	-0.241
-632.551	54.895	-0.306	0.299
-631.536	-133.079	0.378	0.049
-630.522	-200.000	0.068	0.311
-629.507	-88.029	0.076	-0.023
-628.492	-59.327	0.125	-0.054
-627.478	800.000	0.024	-0.088
-626.463	-173.914	0.094	-0.003
-625.449	-52.809	-0.255	0.119
-624.434	90.396	0.077	-0.087
-623.419	94.658	0.102	-0.118
-622.405	-22.250	-0.129	-0.079
-621.390	84.583	0.135	0.149
-620.376	224.058	-0.053	-0.087
-619.361	800.000	-0.066	-0.271
-618.346	-200.000	0.041	-0.313
-617.332	-20.294	0.158	-0.099
-616.317	-91.121	-0.324	-0.094
-615.303	126.574	-0.252	-0.323
-614.288	17.603	0.183	-0.147
-613.273	367.304	0.143	-0.291
-612.259	49.816	-0.189	-0.180
-611.244	-76.562	-0.271	-0.096
-610.230	32.323	0.032	0.028
-609.215	203.298	-0.012	-0.020
-608.201	-177.479	-0.155	-0.004
-607.186	-5.886	-0.282	-0.195
-606.171	800.000	0.074	0.312
-605.157	-200.000	-0.002	-0.087
-604.142	57.636	0.337	0.333
-603.128	-200.000	0.009	0.361
-602.113	-148.050	-0.306	0.026
-601.098	-200.000	-0.036	-0.194
-600.084	-74.803	0.290	0.105
-599.069	-200.000	0.079	-0.409
-598.055	-200.000	-0.035	0.196
-597.040	-200.000	-0.028	0.379
-596.025	-81.895	-0.139	-0.046
-595.011	463.856	-0.127	-0.288
-593.996	-200.000	0.020	-0.133
-592.982	-50.463	0.217	0.103
-591.967	-164.546	-0.191	0.009
-590.952	170.097	-0.141	-0.204
-589.938	141.600	-0.072	0.097
-588.923	-7.248	0.297	-0.204
-587.909	144.274	0.164	-0.221
-586.894	-200.000	0.026	0.134
-585.879	-30.136	-0.087	0.050
-584.865	0.621	0.064	0.046
-583.850	800.000	0.020	-0.075
-582.836	165.592	-0.128	-0.183
-581.821	800.000	0.024	-0.092
-580.806	-108.505	0.193	0.042
-579.792	-95.519	0.168	-0.045
-578.777	-10.304	0.192	0.129
-577.763	-120.525	-0.185	-0.032
-576.748	800.000	-0.058	-0.197
-575.733	-10.260	0.083	0.055
-574.719	-107.382	-0.366	0.081
-573.704	-165.125	-0.394	-0.018
-572.690	-128.506	-0.156	0.022
-571.675	667.256	0.115	-0.301
-570.661	800.000	-0.044	-0.135
-569.646	-95.782	-0.146	0.039
-568.631	133.183	-0.091	-0.119
-567.617	9.336	-0.448	-0.343
-566.602	206.841	-0.157	-0.247
-565.588	-200.000	0.052	0.374
-564.573	35.905	-0.240	-0.213
-563.558	-200.000	-0.058	0.398
-562.544	276.642	0.161	0.288
-561.529	-200.000	-0.049	0.353
-560.515	-200.000	0.006	0.066
-559.500	55.911	-0.050	-0.048
-558.485	374.873	-0.066	-0.136
-557.471	-136.944	-0.010	0.001
-556.456	-200.000	-0.016	0.071
-555.442	800.000	-0.047	0.142
-554.427	220.848	-0.212	-0.343
-553.412	66.140	0.042	0.043
-552.398	82.807	-0.149	-0.164
-551.383	-101.219	-0.163	0.040
-550.369	318.552	0.119	-0.228
-549.354	-50.596	0.285	0.136
-548.339	544.035	-0.124	0.300
-547.325	274.917	-0.140	-0.250
-546.310	-143.580	0.115	-0.011
-545.296	-69.451	0.058	-0.022
-544.281	37.647	-0.096	0.086
-543.266	800.000	0.024	-0.086
-542.252	-115.456	-0.182	-0.035
-541.237	113.710	0.169	-0.207
-540.223	-200.000	0.018	0.125
-539.208	-88.378	0.208	-0.063
-538.193	48.292	-0.091	-0.086
-537.179	367.020	0.182	0.371
-536.164	256.119	-0.068	-0.117
-535.150	-23.872	-0.168	0.101
-534.135	-118.363	0.266	0.048
-533.121	-146.475	0.126	-0.011
-532.106	112.469	0.070	0.086
-531.091	-200.000	0.033	-0.221
-530.077	-101.724	0.328	-0.080
-529.062	199.999	-0.087	-0.135
-528.048	32.808	-0.199	-0.173
-527.033	16.365	-0.192	-0.153
-526.018	-72.389	-0.056	0.021
-525.004	800.000	0.029	-0.087
-523.989	-116.043	0.238	-0.045
-522.975	800.000	-0.085	-0.342
-521.960	-200.000	-0.013	-0.184
-520.945	-90.865	0.034	0.010
-519.931	44.986	-0.049	-0.045
-518.916	-126.583	0.193	0.029
-517.902	206.951	0.023	-0.035
-516.887	346.191	-0.097	-0.191
-515.872	-103.753	-0.342	-0.081
-514.858	800.000	-0.057	0.172
-513.843	17.883	-0.181	0.145
-512.829	-156.590	-0.230	-0.014
-511.814	800.000	-0.042	0.146
-510.799	748.017	-0.039	-0.106
-509.785	-124.249	-0.149	0.024
-508.770	800.000	-0.021	-0.063
-507.756	664.427	-0.046	-0.118
-506.741	-61.044	-0.136	-0.058
-505.726	147.714	-0.108	0.146
-504.712	388.025	0.033	0.070
-503.697	56.042	-0.063	-0.062
-502.683	-97.830	-0.288	0.075
-501.668	-8.912	0.200	-0.135
-500.653	-23.776	0.145	-0.087
-499.639	-23.478	0.216	0.131
-498.624	340.265	0.090	0.176
-497.610	472.179	0.031	0.071
-496.595	80.028	0.131	-0.142
-495.581	248.590	-0.068	-0.116
-494.566	-200.000	0.033	-0.346
-493.551	-200.000	-0.039	-0.335
-492.537	-107.536	0.380	0.084
-491.522	345.154	-0.116	0.229
-490.508	-200.000	0.042	0.423
-489.493	89.966	-0.036	-0.041
-488.478	32.686	0.248	0.216
-487.464	-32.739	-0.128	-0.071
-486.449	-151.759	-0.148	-0.011
-485.435	800.000	0.058	0.190
-484.420	86.313	0.062	-0.069
-483.405	-92.116	0.249	-0.071
-482.391	60.154	0.246	-0.245
-481.376	169.597	-0.179	-0.257
-480.362	-17.078	-0.085	-0.054
-479.347	-39.447	0.429	-0.226
-478.332	62.827	0.197	0.198
-477.318	244.622	-0.118	0.199
-476.303	-53.551	0.137	-0.063
-475.289	97.245	0.291	-0.336
-474.274	246.551	-0.055	-0.093
-473.259	-200.000	-0.049	-0.329
-472.245	119.209	0.209	-0.260
-471.230	-200.000	0.047	-0.247
-470.216	-78.305	-0.227	-0.078
-469.201	-200.000	0.002	0.212
-468.186	800.000	0.023	-0.067
-467.172	-200.000	-0.026	-0.227
-466.157	800.000	0.035	0.129
-465.143	63.918	0.077	-0.077
-464.128	-200.000	-0.001	0.134
-463.113	-200.000	-0.020	0.295
-462.099	-41.785	-0.093	-0.048
-461.084	223.918	-0.163	0.264
-460.070	333.656	0.135	-0.263
-459.055	-40.617	-0.158	0.082
-458.040	676.672	0.035	0.090
-457.026	275.210	-0.064	0.114
-456.011	352.678	0.164	0.326
-454.997	78.615	0.132	0.142
-453.982	800.000	0.051	0.183
-452.968	-28.325	-0.082	-0.048
-451.953	-138.012	0.143	0.016
-450.938	-58.309	-0.215	0.094
-449.924	326.548	-0.047	-0.091
-448.909	-55.822	0.055	0.025
-447.895	-110.723	0.270	-0.056
-446.880	-7.237	-0.161	0.110
-445.865	172.253	-0.062	0.089
-444.851	96.780	0.270	0.311
-443.836	-94.416	0.248	-0.068
-442.822	-127.211	0.079	-0.012
-441.807	-164.001	0.200	-0.009
-440.792	-33.353	0.150	0.083
-439.778	800.000	-0.030	0.084
-438.763	314.396	-0.138	-0.261
-437.749	-65.659	-0.407	-0.164
-436.734	-51.605	0.093	0.043
-435.719	664.062	0.142	-0.369
-434.705	195.119	-0.150	0.229
-433.690	-108.247	-0.188	0.041
-432.676	-115.252	-0.113	0.021
-431.661	-200.000	-0.046	0.000
-430.646	-200.000	-0.010	0.316
-429.632	-112.167	-0.179	-0.036
-428.617	-146.000	0.303	-0.027
-427.603	-17.734	-0.225	-0.142
-426.588	-57.204	0.269	-0.119
-425.573	33.296	-0.085	0.074
-424.559	-200.000	0.002	0.311
-423.544	-200.000	-0.021	-0.272
-422.530	97.613	0.171	-0.198
-421.515	-106.896	-0.214	-0.048
-420.500	410.599	0.040	-0.085
-419.486	187.482	-0.092	0.138
-418.471	249.224	0.115	0.196
-417.457	800.000	-0.083	0.294
-416.442	129.087	0.231	-0.296
-415.428	-130.260	0.141	0.019
-414.413	-200.000	-0.020	0.391
-413.398	-16.604	-0.158	-0.100
-412.384	143.356	-0.196	0.261
-411.369	-177.555	0.284	-0.007
-410.355	-113.462	-0.196	-0.039
-409.340	-111.652	0.251	-0.051
-408.325	169.280	-0.070	0.100
-407.311	-98.934	0.199	-0.051
-406.296	49.308	0.262	0.247
-405.282	33.822	-0.203	0.177
-404.267	800.000	-0.026	-0.092
-403.252	-200.000	0.031	0.162
-402.238	466.466	-0.214	-0.481
-401.223	-200.000	-0.038	0.251
-400.209	-200.000	-0.055	0.497
-399.194	-200.000	-0.026	0.196
-398.179	800.000	0.040	-0.155
-397.165	-81.360	-0.175	0.058
-396.150	225.085	0.134	-0.218
-395.136	-200.000	0.004	-0.059
-394.121	-129.271	0.251	-0.035
-393.106	-78.624	-0.054	0.019
-392.092	-200.000	-0.003	0.149
-391.077	-55.064	-0.097	-0.044
-390.063	373.327	0.119	0.243
-389.048	11.395	-0.155	-0.119
-388.033	-96.980	-0.201	-0.053
-387.019	112.958	-0.143	-0.173
-386.004	-118.431	-0.321	-0.057
-384.990	800.000	-0.083	-0.276
-383.975	-157.459	-0.090	-0.005
-382.960	-115.396	-0.169	-0.032
-381.946	-97.822	-0.228	-0.059
-380.931	-135.696	-0.290	-0.034
-379.917	77.298	0.296	-0.316
-378.902	-173.969	-0.201	-0.006
-377.888	-200.000	-0.034	-0.186
-376.873	800.000	0.177	0.575
-375.858	-51.123	0.334	-0.157
-374.844	-140.040	0.231	0.024
-373.829	-30.316	0.206	0.117
-372.815	128.524	-0.135	0.173
-371.800	152.861	-0.101	0.139
-370.785	211.891	-0.096	-0.151
-369.771	66.670	-0.041	0.041
-368.756	-200.000	0.003	0.128
-367.742	160.567	0.052	0.073
-366.727	-27.233	-0.252	-0.147
-365.712	-200.000	0.023	0.353
-364.698	-70.285	0.221	-0.084
-363.683	691.706	-0.051	0.135
-362.669	-200.000	0.022	0.145
-361.654	-158.884	-0.329	-0.019
-360.639	55.479	-0.136	0.131
-359.625	249.755	-0.125	0.212
-358.610	-132.263	-0.196	0.025
-357.596	-50.792	-0.119	0.056
-356.581	-43.729	-0.295	0.149
-355.566	-158.735	0.211	-0.012
-354.552	-200.000	-0.003	0.158
-353.537	-78.528	0.113	0.039
-352.523	451.812	-0.043	-0.096
-351.508	-27.810	-0.279	0.162
-350.493	300.339	-0.075	0.139
-349.479	-133.705	0.075	-0.009
-348.464	-16.163	0.181	0.115
-347.450	-106.515	-0.288	0.064
-346.435	-143.295	-0.113	0.011
-345.420	-200.000	-0.054	0.403
-344.406	215.485	-0.175	0.278
-343.391	-57.870	-0.359	-0.157
-342.377	93.099	0.174	-0.196
-341.362	-36.768	0.190	0.102
-340.348	558.801	-0.098	0.238
-339.333	800.000	-0.103	0.323
-338.318	-122.758	0.161	-0.026
-337.304	332.875	0.065	-0.126
-336.289	50.400	-0.225	0.212
-335.275	-40.498	0.064	0.033
-334.260	39.309	-0.031	-0.028
-333.245	239.072	0.247	0.410
-332.231	800.000	0.104	-0.347
-331.216	-200.000	0.011	0.384
-330.202	66.205	0.075	0.076
-329.187	44.879	-0.087	-0.080
-328.172	-67.945	-0.403	-0.157
-327.158	-27.055	0.050	0.029
-326.143	-31.861	0.123	0.069
-325.129	-78.641	-0.161	-0.055
-324.114	642.619	0.093	0.237
-323.099	-111.767	-0.168	0.034
-322.085	195.131	0.209	0.317
-321.070	-62.789	0.209	-0.087
-320.056	-61.227	0.092	0.039
-319.041	-123.973	-0.261	-0.041
-318.026	800.000	-0.067	-0.262
-317.012	136.026	0.184	0.240
-315.997	-136.583	-0.340	0.039
-314.983	-200.000	0.038	0.221
-313.968	8.004	-0.205	-0.154
-312.953	-200.000	0.030	-0.261
-311.939	431.920	0.066	0.142
-310.924	-200.000	-0.012	0.111
-309.910	-200.000	-0.008	0.193
-308.895	-102.705	0.485	0.116
-307.880	36.903	-0.188	-0.166
-306.866	-31.434	-0.100	0.056
-305.851	19.062	-0.017	0.014
-304.837	-200.000	0.010	0.116
-303.822	-7.071	0.313	0.212
-302.807	507.544	-0.131	0.304
-301.793	800.000	0.033	0.134
-300.778	800.000	-0.011	-0.044
-299.764	-23.899	0.177	0.106
-298.749	-22.280	-0.189	-0.115
-297.735	235.592	0.055	-0.091
-296.720	159.379	0.033	-0.046
-295.705	98.023	0.196	0.225
-294.691	-160.318	0.109	0.006
-293.676	-34.618	-0.256	-0.140
-292.662	-200.000	0.051	-0.246
-291.647	45.471	0.107	-0.099
-290.632	-128.601	-0.296	-0.042
-289.618	185.861	-0.140	-0.208
-288.603	63.965	0.260	0.261
-287.589	-93.630	0.302	0.083
-286.574	-200.000	-0.007	0.034
-285.559	166.300	0.347	0.491
-284.545	427.660	-0.102	-0.221
-283.530	-73.470	-0.306	0.112
-282.516	800.000	-0.041	0.169
-281.501	-113.890	0.281	-0.054
-280.486	-10.916	-0.117	0.077
-279.472	-166.460	-0.114	0.005
-278.457	637.817	-0.062	0.157
-277.443	93.362	0.360	0.407
-276.428	281.931	0.121	0.217
-275.413	-200.000	0.015	-0.175
-274.399	-134.592	-0.255	-0.031
-273.384	-83.562	0.297	-0.095
-272.370	408.682	0.045	-0.094
-271.355	327.173	0.136	-0.261
-270.340	800.000	-0.108	-0.395
-269.326	800.000	-0.058	-0.217
-268.311	223.870	-0.096	-0.155
-267.297	-55.662	-0.168	-0.075
-266.282	800.000	0.032	-0.106
-265.267	-200.000	-0.024	0.145
-264.253	-54.648	-0.107	0.048
-263.238	-60.842	0.338	0.143
-262.224	299.138	0.019	-0.035
-261.209	800.000	0.074	0.271
-260.195	319.329	0.187	0.354
-259.180	50.639	0.110	-0.103
-258.165	-76.002	0.164	0.058
-257.151	0.000	-0.341	-0.242
-256.136	-115.973	-0.166	-0.031
-255.122	-11.291	0.023	-0.015
-254.107	-58.996	0.159	-0.069
-253.092	-57.876	-0.185	-0.081
-252.078	-200.000	-0.052	-0.340
-251.063	-200.000	0.002	-0.144
-250.049	-75.690	0.216	0.076
-249.034	67.493	0.131	0.133
-248.019	-200.000	-0.010	0.245
-247.005	-58.391	0.166	0.072
-245.990	-81.922	0.149	0.049
-244.976	-159.295	-0.016	0.001
-243.961	-102.769	-0.072	0.017
-242.946	800.000	-0.028	-0.111
-241.932	800.000	-0.070	0.201
-240.917	15.179	0.187	-0.146
-239.903	800.000	0.049	0.179
-238.888	-200.000	0.064	0.396
-237.873	-25.035	0.123	-0.073
-236.859	399.581	0.108	-0.226
-235.844	800.000	-0.068	0.221
-234.830	128.899	0.245	0.312
-233.815	-134.612	-0.231	-0.028
-232.800	21.738	-0.089	-0.072
-231.786	800.000	0.110	-0.416
-230.771	212.491	0.070	-0.110
-229.757	-123.366	-0.327	-0.052
-228.742	-0.708	-0.348	-0.246
-227.727	-9.449	-0.123	0.082
-226.713	800.000	-0.060	-0.224
-225.698	556.454	-0.105	0.252
-224.684	-169.965	-0.116	-0.004
-223.669	-200.000	-0.034	0.287
-222.655	447.555	-0.116	-0.253
-221.640	22.222	-0.115	0.094
-220.625	240.449	0.160	0.266
-219.611	6.534	0.203	0.150
-218.596	800.000	0.029	0.090
-217.582	-59.662	-0.282	-0.120
-216.567	800.000	0.071	-0.225
-215.552	-56.904	0.170	-0.075
-214.538	-103.952	0.424	-0.098
-213.523	227.265	0.080	-0.130
-212.509	26.660	0.120	0.100
-211.494	-105.723	-0.076	-0.017
-210.479	-200.000	0.037	0.166
-209.465	324.863	0.141	0.268
-208.450	-200.000	0.035	-0.193
-207.436	348.589	0.030	-0.058
-206.421	800.000	-0.030	0.126
-205.406	-9.640	0.232	0.154
-204.392	-200.000	0.002	-0.136
-203.377	-200.000	0.089	-0.428
-202.363	-93.670	0.238	-0.065
-201.348	462.789	-0.027	0.061
-200.333	458.210	0.118	0.260
-199.319	258.965	-0.036	-0.062
-198.304	678.390	0.088	-0.227
-197.290	236.347	0.284	0.468
-196.275	-141.927	-0.185	-0.018
-195.260	-144.756	0.222	-0.020
-194.246	-10.516	0.226	-0.149
-193.231	-180.386	-0.434	-0.009
-192.217	-64.162	-0.229	-0.093
-191.202	67.581	0.087	0.089
-190.187	82.510	0.295	-0.319
-189.173	104.560	0.438	-0.514
-188.158	-155.519	0.289	0.019
-187.144	-16.183	-0.270	0.171
-186.129	57.833	-0.056	-0.054
-185.114	94.799	-0.116	0.132
-184.100	-200.000	-0.036	0.207
-183.085	-200.000	-0.056	-0.451
-182.071	-194.103	0.328	0.003
-181.056	84.536	0.190	0.207
-180.042	-1.678	-0.263	-0.184
-179.027	-89.086	0.229	0.067
-178.012	465.051	0.134	-0.297
-176.998	-200.000	0.020	-0.165
-175.983	-200.000	0.062	0.403
-174.969	21.593	-0.231	-0.187
-173.954	242.337	0.174	-0.289
-172.939	105.710	0.101	-0.119
-171.925	-200.000	0.039	0.244
-170.910	-87.669	-0.068	-0.020
-169.896	-200.000	-0.037	-0.243
-168.881	140.461	-0.076	0.100
-167.866	-21.373	-0.166	-0.101
-166.852	800.000	0.023	0.090
-165.837	-0.936	-0.233	0.164
-164.823	-86.280	-0.098	0.030
-163.808	-68.057	-0.173	-0.067
-162.793	-101.926	-0.110	0.026
-161.779	32.878	-0.083	0.071
-160.764	-112.078	-0.106	0.021
-159.750	-123.948	-0.189	-0.030
-158.735	800.000	0.121	0.350
-157.720	-14.372	0.039	0.025
-156.706	-101.328	0.306	0.074
-155.691	-200.000	-0.012	0.125
-154.677	-5.689	-0.362	-0.247
-153.662	86.540	0.114	-0.125
-152.647	39.914	0.142	-0.127
-151.633	-41.591	-0.287	0.147
-150.618	68.038	0.060	-0.061
-149.604	313.425	-0.086	0.161
-148.589	-200.000	0.031	0.163
-147.574	74.428	-0.230	0.240
-146.560	-90.187	0.183	0.053
-145.545	-200.000	-0.036	-0.276
-144.531	-14.189	0.137	0.088
-143.516	-200.000	-0.036	0.181
-142.502	-181.165	0.123	0.002
-141.487	-200.000	0.042	0.406
-140.472	95.887	0.104	-0.118
-139.458	-200.000	0.010	-0.077
-138.443	800.000	-0.022	0.094
-137.429	-200.000	0.024	0.160
-136.414	-147.658	0.022	0.002
-135.399	-200.000	0.030	-0.181
-134.385	94.874	-0.061	0.069
-133.370	-200.000	-0.003	-0.028
-132.356	-68.544	0.077	0.030
-131.341	800.000	-0.116	0.421
-130.326	-18.909	0.212	0.131
-129.312	202.872	-0.167	0.256
-128.297	111.694	0.102	0.122
-127.283	-9.857	0.084	-0.056
-126.268	-85.287	-0.128	0.040
-125.253	112.292	-0.200	0.239
-124.239	142.064	0.207	-0.272
-123.224	800.000	-0.058	-0.190
-122.210	-26.830	0.279	0.162
-121.195	-49.793	0.561	0.265
-120.180	68.531	0.099	-0.101
-119.166	346.614	0.016	-0.032
-118.151	98.997	-0.104	0.119
-117.137	800.000	0.075	0.220
-116.122	800.000	-0.043	-0.154
-115.107	800.000	-0.032	0.133
-114.093	342.505	0.079	0.154
-113.078	-130.991	-0.170	0.023
-112.064	-151.133	-0.443	-0.033
-111.049	22.446	-0.247	-0.200
-110.034	277.240	0.089	-0.158
-109.020	-12.148	0.348	0.226
-108.005	39.185	0.107	0.095
-106.991	-69.485	-0.267	-0.102
-105.976	231.629	0.102	0.166
-104.962	96.141	0.079	-0.089
-103.947	-42.098	-0.423	0.215
-102.932	-200.000	0.007	-0.083
-101.918	774.203	0.041	-0.110
-100.903	-48.375	0.146	0.070
-99.889	-200.000	-0.024	0.113
-98.874	-53.208	0.294	0.134
-97.859	71.208	0.067	-0.069
-96.845	-161.850	-0.095	0.005
-95.830	-137.271	-0.490	0.055
-94.816	-114.931	-0.138	0.026
-93.801	-131.689	0.258	0.034
-92.786	69.288	-0.182	0.186
-91.772	800.000	0.085	-0.266
-90.757	57.834	-0.279	-0.271
-89.743	-114.490	0.030	0.006
-88.728	24.018	0.182	0.149
-87.713	162.313	0.140	0.195
-86.699	-77.508	0.161	-0.055
-85.684	12.477	-0.233	-0.178
-84.670	-26.658	0.155	0.090
-83.655	359.624	0.214	-0.424
-82.640	-200.000	-0.070	0.484
-81.626	418.006	0.013	0.029
-80.611	267.274	-0.077	0.133
-79.597	800.000	-0.084	0.362
-78.582	-113.043	0.293	-0.057
-77.567	-10.385	-0.259	0.170
-76.553	-99.607	-0.212	-0.053
-75.538	-111.650	0.130	0.026
-74.524	-200.000	0.003	0.319
-73.509	-89.474	-0.208	0.060
-72.494	334.676	0.097	-0.186
-71.480	800.000	-0.115	0.376
-70.465	161.515	-0.119	-0.164
-69.451	-200.000	-0.006	0.076
-68.436	-200.000	0.006	0.107
-67.422	101.713	0.030	0.035
-66.407	-200.000	-0.047	0.335
-65.392	800.000	0.026	0.083
-64.378	-200.000	-0.052	-0.263
-63.363	-106.909	-0.234	-0.051
-62.349	-200.000	-0.012	0.225
-61.334	19.899	-0.845	-0.674
-60.319	-171.518	0.592	0.019
-59.305	639.383	-0.367	-0.925
-58.290	179.150	0.767	1.110
-57.276	-200.000	0.388	1.811
-56.261	-200.000	95.283	527.203
-55.246	567.908	1380.232	3318.058
-54.232	184.160	2619.627	3838.311
-53.217	116.662	2203.668	2675.660
-52.203	45.917	1650.921	1511.521
-51.188	37.940	1383.653	1217.245
-50.173	34.700	1340.794	1159.860
-49.159	54.372	1390.330	1324.922
-48.144	58.430	1407.807	1366.633
-47.130	38.212	1362.015	1199.692
-46.115	34.543	1344.622	1162.030
-45.100	34.447	1339.141	1156.665
-44.086	34.406	1337.309	1154.790
-43.071	34.368	1334.414	1152.011
-42.057	34.192	1332.907	1149.602
-41.042	34.315	1330.794	1148.478
-40.027	34.411	1329.171	1147.612
-39.013	34.316	1327.386	1145.452
-37.998	34.422	1325.479	1144.397
-36.984	34.571	1322.966	1143.074
-35.969	34.574	1321.154	1141.483
-34.954	34.563	1319.709	1140.124
-33.940	34.511	1318.503	1138.722
-32.925	34.551	1317.490	1138.045
-31.911	34.557	1315.667	1136.458
-30.896	34.615	1313.945	1135.274
-29.881	34.607	1313.175	1134.517
-28.867	34.613	1311.554	1133.106
-27.852	34.578	1309.859	1131.390
-26.838	34.658	1308.133	1130.325
-25.823	34.575	1306.509	1128.387
-24.809	34.579	1305.342	1127.355
-23.794	34.590	1304.042	1126.254
-22.779	34.545	1302.980	1125.029
-21.765	34.580	1301.489	1123.898
-20.750	34.619	1300.221	1122.991
-19.736	34.400	1299.203	1120.778
-18.721	34.467	1297.774	1119.893
-17.706	34.501	1296.494	1118.945
-16.692	34.489	1294.672	1117.263
-15.677	34.361	1294.326	1116.164
-14.663	34.431	1292.890	1115.293
-13.648	34.359	1291.423	1113.562
-12.633	34.295	1290.537	1112.383
-11.619	34.402	1289.742	1112.279
-10.604	34.409	1288.896	1111.543
-9.590	34.409	1287.889	1110.634
-8.575	34.323	1287.190	1109.482
-7.560	34.422	1285.602	1108.644
-6.546	34.405	1285.162	1108.125
-5.531	34.406	1284.161	1107.221
-4.517	34.395	1283.393	1106.451
-3.502	34.434	1282.308	1105.697
-2.487	34.374	1281.601	1104.699
-1.473	34.468	1277.377	1101.555
-0.458	33.356	1263.178	1082.912
0.556	28.314	1245.192	1045.580
1.571	25.090	1251.174	1031.982
2.586	24.292	1266.892	1040.200
3.600	23.268	1254.860	1024.307
4.615	16.140	1178.160	922.756
5.629	5.145	1097.415	803.128
6.644	0.352	1075.708	762.953
7.659	0.118	1072.301	759.288
8.673	-0.003	1071.512	758.054
9.688	-0.045	1070.235	756.870
10.702	0.369	1068.994	758.009
11.717	7.253	1079.584	800.312
12.731	17.412	1093.720	862.470
13.746	21.487	1098.309	886.708
14.761	21.878	1099.166	889.303
15.775	21.893	1098.410	888.690
16.790	21.818	1097.199	887.253
17.804	21.702	1097.287	886.657
18.819	21.712	1096.925	886.339
19.834	21.894	1095.868	886.326
20.848	21.912	1095.646	886.158
21.863	21.756	1095.485	885.162
22.877	21.844	1094.458	884.695
23.892	21.774	1093.842	883.767
24.907	21.780	1093.032	883.067
25.921	21.800	1091.760	882.061
26.936	21.746	1090.853	880.980
27.950	21.690	1088.942	879.074
28.965	21.712	1086.885	877.447
29.980	21.759	1085.455	876.451
30.994	21.833	1085.027	876.396
32.009	21.823	1083.609	875.124
33.023	21.617	1082.342	872.995
34.038	21.853	1081.329	873.276
35.053	21.876	1080.546	872.684
36.067	21.830	1079.808	871.783
37.082	21.922	1079.506	871.918
38.096	21.970	1078.579	871.327
39.111	22.057	1077.867	871.108
40.126	22.013	1076.224	869.487
41.140	21.621	1074.206	865.844
42.155	21.379	1073.174	863.739
43.169	21.376	1072.255	862.909
44.184	21.509	1071.157	862.603
45.199	21.422	1069.820	861.020
46.213	21.533	1068.976	860.814
47.228	21.629	1068.047	860.461
48.242	21.622	1067.107	859.591
49.257	21.751	1066.266	859.472
50.271	21.742	1065.580	858.794
51.286	21.875	1064.716	858.676
52.301	21.830	1063.790	857.632
53.315	21.725	1062.771	856.221
54.330	21.797	1062.104	855.961
55.344	21.749	1061.249	854.963
56.359	21.636	1060.265	853.542
57.374	21.677	1058.644	852.364
58.388	21.649	1058.302	851.876
59.403	21.460	1057.633	850.345
60.417	21.307	1056.387	848.522
61.432	21.488	1056.013	849.027
62.447	21.586	1055.394	848.926
63.461	21.622	1054.215	848.078
64.476	21.596	1053.033	846.929
65.490	21.380	1052.605	845.463
66.505	21.485	1051.968	845.383
67.520	21.594	1050.880	844.961
68.534	21.487	1049.465	843.234
69.549	21.051	1048.588	840.356
70.563	21.183	1047.505	840.048
71.578	21.129	1046.806	839.152
72.593	20.987	1046.046	837.787
73.607	21.208	1045.473	838.313
74.622	21.412	1044.958	838.805
75.636	21.397	1044.373	838.189
76.651	21.306	1043.349	836.858
77.666	21.107	1042.763	835.363
78.680	21.390	1041.682	835.776
79.695	21.350	1041.252	835.166
80.709	21.432	1040.700	835.042
81.724	21.451	1040.162	834.625
82.739	21.515	1039.099	834.002
83.753	21.720	1038.749	834.624
84.768	22.203	1037.690	835.998
85.782	22.199	1036.782	835.175
86.797	22.157	1035.551	833.911
87.812	21.979	1034.762	832.358
88.826	22.013	1034.205	831.996
89.841	22.131	1032.799	831.350
90.855	22.105	1032.022	830.528
91.870	22.044	1031.082	829.410
92.884	21.959	1029.882	827.970
93.899	21.826	1028.730	826.344
94.914	22.010	1027.958	826.515
95.928	22.015	1026.689	825.447
96.943	21.611	1025.974	822.902
97.957	21.482	1024.288	820.870
98.972	21.378	1022.979	819.260
99.987	21.487	1022.906	819.640
101.001	21.786	1022.003	820.242
102.016	21.763	1021.312	819.510
103.030	21.536	1020.419	817.659
104.045	21.601	1019.205	816.917
105.060	21.358	1018.343	815.023
106.074	21.681	1017.577	815.843
107.089	22.008	1016.806	816.672
108.103	21.771	1016.266	815.064
109.118	21.570	1014.670	812.780
110.133	21.521	1013.595	811.619
111.147	21.476	1012.068	810.118
112.162	21.329	1011.342	808.783
113.176	21.489	1010.633	808.886
114.191	21.356	1010.261	807.902
115.206	21.171	1008.327	805.430
116.220	21.110	1007.797	804.653
117.235	21.184	1007.001	804.289
118.249	21.210	1006.102	803.617
119.264	21.222	1004.786	802.550
120.279	21.372	1003.923	802.478
121.293	21.350	1003.571	802.025
122.308	21.152	1002.629	800.293
123.322	21.383	1000.956	799.946
124.337	21.126	1000.070	797.990
125.352	20.739	998.147	794.620
126.366	20.692	997.380	793.725
127.381	21.297	997.548	796.548
128.395	21.716	997.143	798.063
129.410	21.896	995.515	797.505
130.424	21.806	994.821	796.470
131.439	21.853	993.604	795.642
132.454	21.719	993.019	794.496
133.468	21.538	992.676	793.330
134.483	21.892	991.200	793.679
135.497	22.060	990.616	793.904
136.512	22.060	989.491	792.932
137.527	22.068	988.700	792.264
138.541	22.076	988.261	791.875
139.556	22.058	987.346	790.993
140.570	22.117	986.352	790.392
141.585	22.043	985.552	789.348
142.600	22.043	984.535	788.464
143.614	22.328	983.692	788.996
144.629	22.387	982.599	788.312
145.643	22.096	981.638	786.172
146.658	21.962	979.945	784.147
147.673	21.987	979.299	783.671
148.687	21.965	977.900	782.386
149.702	21.703	977.212	780.599
150.716	21.724	976.500	780.056
151.731	21.899	975.826	780.224
152.746	22.148	974.816	780.458
153.760	22.136	974.973	780.458
154.775	22.187	973.956	779.803
155.789	22.193	972.847	778.871
156.804	22.219	971.901	778.159
157.819	22.213	971.529	777.765
158.833	22.208	970.788	777.083
159.848	22.300	969.432	776.336
160.862	22.046	968.408	774.327
161.877	22.294	967.135	774.333
162.892	22.230	966.017	773.088
163.906	22.145	965.240	772.024
164.921	22.071	964.765	771.252
165.935	22.270	963.424	770.980
166.950	22.233	962.233	769.799
167.964	22.281	961.808	769.600
168.979	22.060	960.869	767.813
169.994	22.022	959.636	766.597
171.008	22.196	959.674	767.320
172.023	22.243	958.484	766.506
173.037	22.069	957.042	764.525
174.052	21.941	955.595	762.744
175.067	21.990	955.585	762.886
176.081	21.979	955.167	762.433
177.096	21.839	954.692	761.380
178.110	21.792	953.298	759.996
179.125	21.500	952.816	758.281
180.140	21.599	952.278	758.212
181.154	21.660	952.151	758.309
182.169	22.006	951.971	759.596
183.183	22.034	951.691	759.425
184.198	22.034	950.363	758.299
185.213	22.132	949.641	758.080
186.227	22.187	948.791	757.572
187.242	22.185	948.380	757.168
188.256	22.201	947.712	756.634
189.271	22.383	946.761	756.594
190.286	21.937	946.021	754.019
191.300	21.329	944.780	750.353
192.315	20.616	942.944	745.774
193.329	20.696	942.350	745.578
194.344	21.507	942.438	749.058
195.359	22.091	942.469	751.512
196.373	22.131	942.111	751.333
197.388	22.001	941.384	750.131
198.402	21.939	940.753	749.299
199.417	21.999	940.157	749.010
200.432	21.845	938.920	747.302
201.446	21.571	938.419	745.673
202.461	21.623	937.795	745.331
203.475	20.842	935.930	740.464
204.490	20.194	934.729	736.697
205.504	20.949	935.152	740.175
206.519	21.735	934.986	743.312
207.534	21.751	934.385	742.836
208.548	22.054	934.142	743.858
209.563	21.908	933.102	742.348
210.577	21.869	932.413	741.571
211.592	22.122	932.580	742.708
212.607	22.103	931.388	741.611
213.621	22.366	930.693	742.099
214.636	22.230	930.144	741.025
215.650	22.147	929.129	739.800
216.665	22.317	928.634	740.058
217.680	22.207	927.606	738.711
218.694	21.828	926.327	736.037
219.709	21.604	926.007	734.775
220.723	22.040	925.673	736.273
221.738	22.046	925.113	735.791
222.753	21.953	924.389	734.759
223.767	22.133	923.888	735.050
224.782	22.366	923.456	735.612
225.796	22.166	923.128	734.451
226.811	21.636	921.788	731.108
227.826	21.047	919.948	727.129
228.840	21.465	919.322	728.310
229.855	21.410	918.553	727.410
230.869	21.025	917.445	724.867
231.884	21.268	918.213	726.422
232.899	22.037	918.420	729.716
233.913	21.980	917.107	728.374
234.928	22.159	915.982	728.158
235.942	22.038	915.655	727.332
236.957	21.671	914.677	724.973
237.972	21.788	913.875	724.757
238.986	21.875	913.647	724.869
240.001	21.739	913.439	724.077
241.015	22.004	912.419	724.300
242.030	22.165	912.117	724.660
243.045	22.204	911.190	724.019
244.059	22.225	911.251	724.091
245.074	21.961	909.848	721.825
246.088	21.655	909.279	720.054
247.103	21.997	908.838	721.046
248.117	22.509	909.059	723.259
249.132	22.748	908.206	723.496
250.147	22.704	908.052	723.129
251.161	22.813	907.628	723.173
252.176	22.863	906.758	722.624
253.190	22.968	906.193	722.537
254.205	23.029	905.681	722.315
255.220	23.132	904.554	721.772
256.234	22.885	904.262	720.465
257.249	22.906	903.140	719.596
258.263	22.824	902.502	718.688
259.278	23.009	901.987	718.969
260.293	22.962	901.379	718.230
261.307	22.858	900.832	717.308
262.322	22.698	899.834	715.802
263.336	21.904	897.806	710.909
264.351	20.832	896.053	705.119
265.366	21.056	895.398	705.445
266.380	22.007	896.300	709.945
267.395	22.477	895.975	711.521
268.409	22.641	894.783	711.172
269.424	22.778	894.531	711.465
270.439	22.899	893.867	711.359
271.453	22.747	893.819	710.648
272.468	22.824	893.393	710.555
273.482	22.897	893.217	710.645
274.497	22.563	891.400	707.797
275.512	22.308	890.547	706.033
276.526	22.609	890.317	706.994
277.541	22.839	890.107	707.686
278.555	22.713	888.954	706.202
279.570	22.492	888.248	704.699
280.585	22.611	887.942	704.866
281.599	22.588	886.822	703.823
282.614	22.022	885.454	700.418
283.628	22.078	885.298	700.458
284.643	22.401	884.843	701.323
285.657	22.019	883.627	698.777
286.672	21.678	883.091	696.934
287.687	22.280	882.833	699.064
288.701	22.397	881.960	698.773
289.716	22.040	881.435	696.881
290.730	22.016	880.813	696.230
291.745	21.656	879.803	693.944
292.760	21.980	879.671	695.061
293.774	22.979	879.844	699.093
294.789	23.432	879.561	700.597
295.803	23.386	879.095	699.982
296.818	23.312	878.256	698.961
297.833	22.946	877.289	696.685
298.847	22.828	876.719	695.704
299.862	23.118	876.278	696.436
300.876	23.205	876.357	696.781
301.891	23.234	875.204	695.917
302.906	22.601	874.529	692.828
303.920	22.953	873.824	693.592
304.935	23.205	873.672	694.399
305.949	23.141	873.183	693.698
306.964	22.872	872.530	692.063
307.979	23.088	871.621	692.128
308.993	23.454	871.472	693.377
310.008	23.325	871.039	692.470
311.022	23.158	870.182	691.075
312.037	23.125	869.485	690.331
313.052	22.881	868.562	688.586
314.066	22.043	866.996	684.019
315.081	21.645	866.234	681.810
316.095	22.738	866.230	685.999
317.110	23.024	866.097	686.942
318.125	22.144	865.071	682.651
319.139	21.084	863.374	677.142
320.154	21.085	862.936	676.740
321.168	21.970	863.908	680.878
322.183	22.738	863.250	683.276
323.197	22.828	862.963	683.335
324.212	23.067	862.902	684.151
325.227	22.919	862.398	683.121
326.241	22.948	861.374	682.358
327.256	22.767	861.160	681.432
328.270	22.782	860.357	680.795
329.285	22.512	859.442	678.968
330.300	22.415	858.288	677.624
331.314	22.554	858.241	678.061
332.329	23.048	858.015	679.724
333.343	23.132	857.884	679.882
334.358	23.034	857.021	678.762
335.373	23.142	857.231	679.281
336.387	23.503	856.846	680.302
337.402	23.585	856.810	680.529
338.416	23.480	856.318	679.676
339.431	23.636	856.013	679.972
340.446	23.657	855.603	679.665
341.460	23.490	854.949	678.446
342.475	23.505	854.094	677.766
343.489	23.509	853.820	677.504
344.504	23.747	853.519	678.112
345.519	23.846	853.431	678.361
346.533	23.962	853.373	678.696
347.548	23.985	852.488	678.020
348.562	23.907	851.969	677.249
349.577	23.834	851.267	676.356
350.592	23.936	850.633	676.178
351.606	23.961	849.872	675.609
352.621	23.826	848.725	674.123
353.635	23.782	848.012	673.335
354.650	23.056	846.232	669.113
355.665	22.232	844.879	664.869
356.679	22.464	844.927	665.725
357.694	22.982	844.742	667.478
358.708	22.977	843.692	666.570
359.723	23.259	843.879	667.722
360.738	23.626	843.296	668.585
361.752	23.715	842.904	668.549
362.767	23.955	842.778	669.294
363.781	24.168	842.550	669.854
364.796	24.297	842.054	669.885
365.810	24.265	841.567	669.320
366.825	24.305	840.844	668.836
367.840	23.970	840.134	666.956
368.854	23.499	839.517	664.643
369.869	23.632	839.174	664.810
370.883	23.637	838.793	664.467
371.898	23.563	837.945	663.460
372.913	23.650	837.736	663.560
373.927	23.824	837.065	663.620
374.942	23.941	836.742	663.743
375.956	23.919	836.639	663.520
376.971	24.110	836.105	663.749
377.986	24.252	835.608	663.824
379.000	24.147	835.078	662.955
380.015	24.065	834.261	661.943
381.029	24.138	833.832	661.817
382.044	24.197	833.888	662.021
383.059	24.238	832.930	661.354
384.073	24.295	832.294	661.004
385.088	24.287	831.476	660.265
386.102	23.999	830.756	658.568
387.117	24.048	830.102	658.172
388.132	23.682	828.943	655.843
389.146	23.114	828.374	653.237
390.161	23.631	827.999	654.793
391.175	23.971	828.103	656.071
392.190	23.729	826.540	653.886
393.205	22.344	824.735	647.308
394.219	20.870	823.350	640.747
395.234	20.838	823.055	640.341
396.248	22.427	824.524	647.275
397.263	23.958	825.028	653.240
398.278	23.735	824.842	652.216
399.292	23.649	823.726	650.960
400.307	23.633	823.338	650.538
401.321	23.787	822.831	650.643
402.336	23.852	823.176	651.097
403.350	24.444	822.800	652.910
404.365	24.743	822.614	653.795
405.380	24.997	822.251	654.379
406.394	24.964	821.829	653.865
407.409	24.838	821.121	652.783
408.423	24.847	820.732	652.449
409.438	24.802	820.415	651.975
410.453	24.791	820.248	651.744
411.467	24.782	819.350	650.939
412.482	24.954	818.825	651.091
413.496	24.956	818.560	650.829
414.511	24.904	818.547	650.573
415.526	24.907	818.012	650.103
416.540	24.797	817.157	648.964
417.555	24.594	816.138	647.364
418.569	24.714	816.092	647.703
419.584	24.735	815.469	647.230
420.599	24.432	814.667	645.441
421.613	153.460	1365.653	1791.460
422.628	133.534	1445.959	1791.567
