DTS Sentinel unit serial number:	SN413079Multiplexer serial number:	ORYXHardware model number:	OX4-SRSoftware version number:	ORYX F/W v4.00 Oryx Data Collector v3.7.2.0data status	okinstallation	princeton_trtdifferential loss correction	single-endedforward channel	channel 1reverse channel	N/Adate	2019/09/11time	10:24:11forward acquisition time	60.00reverse acquisition time	0.00gamma	496.2192k internal	0.2298k external	0.2298temperature offset calibration	0.9954default loss term (dB/km)	0.3790temperature slope calibration	1.0000multiplexer offset coefficient	1.0000multiplexer slope coefficient	1.0000fibre end	0.00T internal ref (°C)	36.19T ext. ref 1 (°C)	0.14T ext. ref 2 (°C)	32.59length (m)	temperature (°C)	Stokes	anti-Stokes-747.200	189.703	-0.008	0.012
-746.185	404.788	-0.121	0.259
-745.171	800.000	-0.042	0.154
-744.156	-200.000	-0.008	0.174
-743.142	73.606	-0.170	-0.182
-742.127	-200.000	0.052	0.337
-741.112	58.409	0.194	-0.194
-740.098	-30.105	-0.262	0.152
-739.083	216.621	-0.125	-0.203
-738.069	314.954	-0.168	0.323
-737.054	-200.000	0.016	-0.156
-736.039	-62.763	-0.116	-0.049
-735.025	800.000	0.086	-0.318
-734.010	-173.923	-0.285	0.009
-732.996	-200.000	-0.008	0.037
-731.981	-79.283	0.180	-0.062
-730.966	-98.256	-0.236	-0.062
-729.952	-132.742	-0.089	-0.012
-728.937	85.926	-0.260	-0.292
-727.923	-70.447	-0.291	0.113
-726.908	-200.000	-0.025	0.178
-725.894	-200.000	-0.002	-0.204
-724.879	190.527	0.131	-0.201
-723.864	109.409	0.297	-0.363
-722.850	-130.988	-0.223	-0.030
-721.835	-200.000	-0.039	0.253
-720.821	-200.000	-0.017	0.413
-719.806	-200.000	0.001	0.317
-718.791	-59.498	-0.173	-0.076
-717.777	-26.302	0.191	0.114
-716.762	800.000	-0.062	0.274
-715.748	-169.611	0.204	0.008
-714.733	-133.833	-0.261	0.033
-713.718	-41.534	0.199	0.104
-712.704	504.648	0.110	-0.259
-711.689	800.000	0.053	0.188
-710.675	100.676	-0.239	-0.283
-709.660	-98.296	-0.315	0.082
-708.645	-200.000	0.006	0.112
-707.631	-134.546	-0.102	-0.013
-706.616	800.000	0.059	0.172
-705.602	127.011	0.054	-0.069
-704.587	-37.037	-0.113	-0.062
-703.572	-112.450	-0.300	0.061
-702.558	-159.784	-0.365	-0.020
-701.543	94.889	0.126	-0.146
-700.529	-122.868	-0.146	-0.024
-699.514	-76.937	0.177	-0.063
-698.499	800.000	-0.016	0.060
-697.485	-102.996	-0.197	0.048
-696.470	-97.305	0.276	-0.073
-695.456	44.598	0.115	-0.108
-694.441	142.701	-0.034	-0.046
-693.426	800.000	0.044	-0.173
-692.412	96.058	0.179	-0.208
-691.397	-125.844	-0.194	0.030
-690.383	138.602	-0.268	-0.359
-689.368	103.746	-0.235	-0.281
-688.354	566.132	-0.021	0.051
-687.339	42.979	-0.187	0.173
-686.324	-45.077	-0.034	-0.017
-685.310	800.000	-0.005	0.017
-684.295	293.747	-0.112	0.209
-683.281	705.087	-0.103	0.278
-682.266	-200.000	0.009	0.068
-681.251	192.062	0.148	-0.228
-680.237	209.796	0.047	-0.074
-679.222	-79.526	-0.202	-0.069
-678.208	248.335	-0.056	0.096
-677.193	-17.521	0.183	0.117
-676.178	-200.000	0.057	-0.262
-675.164	104.456	-0.137	-0.165
-674.149	-200.000	0.222	-0.000
-673.135	-1.581	-0.197	-0.141
-672.120	800.000	0.019	-0.062
-671.105	695.265	0.112	0.298
-670.091	-118.693	-0.377	-0.068
-669.076	-136.192	-0.134	0.016
-668.062	-10.261	0.217	0.147
-667.047	22.841	-0.074	-0.062
-666.032	-177.722	0.278	0.007
-665.018	178.081	-0.110	-0.164
-664.003	95.364	0.174	0.201
-662.989	111.342	-0.157	-0.193
-661.974	111.841	-0.162	-0.200
-660.959	618.281	0.186	0.476
-659.945	-81.401	-0.241	0.081
-658.930	-123.441	0.111	0.018
-657.916	800.000	-0.071	-0.203
-656.901	-190.404	-0.204	-0.002
-655.886	-180.894	-0.095	0.002
-654.872	-200.000	0.001	0.098
-653.857	-126.115	0.238	-0.036
-652.843	-68.301	-0.089	0.035
-651.828	800.000	0.084	0.326
-650.814	-181.368	-0.365	-0.007
-649.799	-200.000	-0.026	-0.159
-648.784	-200.000	-0.028	-0.364
-647.770	-200.000	0.000	0.291
-646.755	13.660	-0.026	-0.020
-645.741	170.947	-0.136	0.198
-644.726	45.637	-0.104	0.098
-643.711	-102.877	-0.125	0.030
-642.697	287.849	0.077	0.142
-641.682	-135.382	0.502	0.061
-640.668	37.831	-0.147	0.132
-639.653	-200.000	-0.012	-0.251
-638.638	-61.816	-0.234	0.100
-637.624	-74.407	0.156	-0.057
-636.609	-61.679	-0.296	0.126
-635.595	326.666	-0.043	0.083
-634.580	-200.000	0.055	0.264
-633.565	111.652	-0.143	-0.175
-632.551	-178.157	0.174	-0.004
-631.536	110.146	-0.132	0.162
-630.522	-59.207	0.151	-0.066
-629.507	12.659	0.171	0.134
-628.492	800.000	0.082	0.247
-627.478	148.475	0.047	0.065
-626.463	225.704	-0.141	-0.232
-625.449	134.572	-0.174	0.229
-624.434	-159.285	-0.503	-0.029
-623.419	-97.371	0.167	0.044
-622.405	64.159	-0.189	0.193
-621.390	-45.820	-0.283	0.142
-620.376	-200.000	0.050	-0.369
-619.361	-200.000	0.030	-0.160
-618.346	-198.009	-0.079	-0.000
-617.332	-52.525	0.075	0.035
-616.317	-84.831	0.185	0.059
-615.303	111.107	0.165	-0.202
-614.288	41.201	-0.037	0.034
-613.273	-171.996	0.089	-0.003
-612.259	-41.744	-0.231	0.121
-611.244	213.994	-0.116	-0.186
-610.230	-142.955	0.107	-0.011
-609.215	-200.000	0.069	-0.461
-608.201	305.385	0.155	-0.292
-607.186	-74.202	0.314	0.115
-606.171	729.182	-0.112	-0.303
-605.157	-200.000	-0.043	0.244
-604.142	-189.383	-0.322	0.004
-603.128	241.205	0.079	-0.133
-602.113	-200.000	-0.031	-0.177
-601.098	-78.970	-0.090	-0.031
-600.084	-81.023	0.197	0.066
-599.069	41.049	0.293	-0.268
-598.055	24.170	0.072	-0.060
-597.040	-1.650	0.076	-0.054
-596.025	800.000	0.024	0.071
-595.011	-147.850	-0.221	0.019
-593.996	271.713	-0.167	-0.298
-592.982	-97.786	0.185	-0.049
-591.967	61.764	-0.219	0.221
-590.952	-112.577	-0.148	0.030
-589.938	-91.945	0.220	0.063
-588.923	-151.282	0.173	0.013
-587.909	-74.020	0.021	0.008
-586.894	-35.081	-0.285	-0.157
-585.879	800.000	0.041	-0.151
-584.865	231.633	-0.095	-0.159
-583.850	-102.098	0.024	-0.006
-582.836	144.828	0.170	-0.230
-581.821	147.224	-0.212	-0.290
-580.806	563.129	0.077	-0.190
-579.792	-89.470	0.291	-0.087
-578.777	-64.100	-0.248	-0.103
-577.763	233.609	-0.067	0.112
-576.748	507.991	-0.052	-0.122
-575.733	13.112	0.245	-0.192
-574.719	688.905	-0.035	-0.093
-573.704	162.263	0.109	-0.155
-572.690	-93.305	0.121	0.034
-571.675	-200.000	0.046	0.417
-570.661	-21.415	-0.171	-0.106
-569.646	-49.119	-0.363	-0.176
-568.631	75.662	0.217	-0.232
-567.617	149.732	-0.229	0.315
-566.602	-41.828	-0.276	-0.144
-565.588	-200.000	0.002	-0.060
-564.573	-134.717	0.206	-0.025
-563.558	800.000	-0.083	-0.260
-562.544	-73.846	-0.095	-0.035
-561.529	582.043	-0.046	-0.114
-560.515	-148.723	-0.143	0.012
-559.500	-161.883	-0.387	0.020
-558.485	-1.438	0.220	-0.158
-557.471	-82.291	-0.224	0.074
-556.456	-200.000	-0.005	0.105
-555.442	-17.909	0.288	-0.183
-554.427	-134.750	0.243	0.030
-553.412	123.769	-0.111	-0.141
-552.398	374.190	-0.144	-0.296
-551.383	-55.389	0.137	-0.063
-550.369	-55.789	0.143	0.065
-549.354	650.821	-0.156	0.406
-548.339	800.000	0.028	0.108
-547.325	57.444	-0.101	-0.099
-546.310	-29.521	-0.142	-0.082
-545.296	-146.428	-0.329	0.029
-544.281	-145.921	0.301	0.027
-543.266	-200.000	0.040	0.199
-542.252	-113.403	-0.129	0.026
-541.237	-42.271	0.120	-0.062
-540.223	433.537	0.069	0.152
-539.208	-80.817	-0.207	0.070
-538.193	-40.302	0.143	-0.075
-537.179	-20.528	-0.165	-0.103
-536.164	-92.972	-0.243	-0.069
-535.150	-200.000	-0.273	-0.000
-534.135	-65.704	-0.208	0.084
-533.121	-96.758	-0.060	-0.016
-532.106	800.000	0.097	0.287
-531.091	-13.952	-0.292	0.191
-530.077	800.000	-0.035	0.142
-529.062	800.000	0.084	-0.345
-528.048	-112.740	-0.137	0.028
-527.033	800.000	0.049	0.173
-526.018	149.532	0.098	0.134
-525.004	156.503	-0.074	-0.104
-523.989	157.927	-0.139	-0.196
-522.975	-69.350	-0.247	0.096
-521.960	-200.000	-0.003	0.094
-520.945	138.234	-0.215	-0.285
-519.931	41.205	-0.185	-0.170
-518.916	-200.000	0.034	0.182
-517.902	433.141	-0.034	0.075
-516.887	-131.105	-0.295	0.040
-515.872	-100.723	-0.120	0.030
-514.858	425.325	-0.038	0.083
-513.843	-200.000	0.019	-0.185
-512.829	-147.790	-0.162	-0.014
-511.814	-40.503	0.444	-0.233
-510.799	424.519	0.092	-0.200
-509.785	233.486	-0.158	0.263
-508.770	-200.000	-0.006	-0.155
-507.756	-56.608	0.263	0.118
-506.741	8.256	0.146	0.111
-505.726	-200.000	0.003	-0.164
-504.712	-190.525	-0.438	-0.005
-503.697	-4.616	-0.271	0.189
-502.683	-34.992	0.093	-0.052
-501.668	-200.000	-0.003	0.016
-500.653	-200.000	0.032	-0.205
-499.639	-79.301	0.254	0.087
-498.624	800.000	0.143	0.402
-497.610	-200.000	0.021	0.412
-496.595	45.428	-0.209	-0.195
-495.581	50.635	-0.232	-0.222
-494.566	-200.000	-0.025	0.133
-493.551	-107.762	0.091	-0.020
-492.537	-200.000	-0.019	-0.251
-491.522	-121.185	0.119	0.020
-490.508	456.603	0.080	-0.179
-489.493	-200.000	-0.014	0.245
-488.478	-200.000	-0.015	-0.070
-487.464	57.325	0.060	-0.059
-486.449	-129.498	0.167	0.023
-485.435	-18.398	0.372	-0.235
-484.420	92.194	0.059	0.067
-483.405	800.000	-0.069	0.289
-482.391	-200.000	0.022	-0.181
-481.376	307.313	-0.074	-0.140
-480.362	44.789	0.260	0.242
-479.347	18.698	-0.198	0.160
-478.332	-200.000	0.012	0.063
-477.318	-32.190	0.220	0.124
-476.303	-200.000	0.058	-0.341
-475.289	-1.148	0.171	-0.122
-474.274	-200.000	0.007	0.044
-473.259	-81.950	0.283	-0.093
-472.245	-200.000	0.109	-0.501
-471.230	-52.770	-0.173	0.081
-470.216	-7.003	-0.302	0.207
-469.201	-82.736	0.228	-0.074
-468.186	537.414	0.059	-0.141
-467.172	-59.614	-0.321	-0.139
-466.157	-70.695	-0.059	-0.022
-465.143	83.486	0.270	-0.297
-464.128	-130.533	-0.108	-0.015
-463.113	133.048	0.107	-0.139
-462.099	800.000	0.033	0.094
-461.084	621.500	0.057	0.145
-460.070	-37.727	-0.185	0.099
-459.055	80.639	0.126	0.138
-458.040	-52.385	-0.070	-0.033
-457.026	46.635	0.237	-0.222
-456.011	-200.000	-0.031	-0.169
-454.997	-109.031	0.308	-0.066
-453.982	-9.298	0.107	-0.072
-452.968	-200.000	-0.020	-0.244
-451.953	652.595	0.057	-0.147
-450.938	265.877	0.079	-0.139
-449.924	800.000	0.008	0.030
-448.909	342.361	-0.203	0.401
-447.895	-105.044	-0.364	-0.084
-446.880	-200.000	-0.008	0.218
-445.865	111.769	-0.107	-0.130
-444.851	-21.550	0.153	0.094
-443.836	-142.078	0.177	0.018
-442.822	-176.425	0.096	-0.002
-441.807	268.052	-0.145	0.257
-440.792	-39.262	0.256	-0.136
-439.778	-200.000	-0.070	-0.317
-438.763	245.921	-0.061	-0.104
-437.749	-200.000	0.035	-0.333
-436.734	111.571	0.185	-0.225
-435.719	377.511	0.056	-0.116
-434.705	219.077	0.217	0.350
-433.690	227.983	0.093	0.152
-432.676	464.248	0.129	-0.291
-431.661	-200.000	-0.016	0.089
-430.646	215.553	0.162	0.259
-429.632	94.953	-0.252	0.289
-428.617	-8.117	0.274	-0.186
-427.603	16.245	0.175	-0.139
-426.588	-200.000	0.089	0.468
-425.573	81.486	0.303	-0.330
-424.559	800.000	-0.103	-0.319
-423.544	-175.053	-0.274	0.008
-422.530	-120.072	0.057	-0.010
-421.515	142.793	-0.117	0.157
-420.500	-44.446	-0.129	0.065
-419.486	119.625	0.081	0.101
-418.471	-200.000	-0.016	0.145
-417.457	54.687	-0.141	0.137
-416.442	-200.000	-0.012	0.195
-415.428	-200.000	-0.009	0.366
-414.413	154.756	-0.278	-0.385
-413.398	134.491	0.055	-0.072
-412.384	-86.723	0.276	0.085
-411.369	800.000	-0.044	0.152
-410.355	24.419	-0.345	0.288
-409.340	-95.786	-0.143	-0.038
-408.325	-113.866	-0.184	0.036
-407.311	59.338	0.401	0.398
-406.296	800.000	0.048	-0.203
-405.282	800.000	-0.035	0.144
-404.267	170.120	-0.021	0.030
-403.252	-200.000	-0.051	0.245
-402.238	59.812	0.081	0.081
-401.223	648.026	0.118	-0.305
-400.209	99.526	-0.106	0.124
-399.194	-148.094	-0.103	-0.009
-398.179	-23.227	-0.436	-0.264
-397.165	-200.000	0.008	-0.186
-396.150	353.059	0.045	-0.089
-395.136	-24.599	0.314	0.188
-394.121	388.582	-0.116	0.242
-393.106	800.000	-0.060	0.191
-392.092	94.358	-0.160	-0.182
-391.077	59.940	-0.271	-0.269
-390.063	-136.878	-0.247	-0.029
-389.048	12.665	0.251	0.195
-388.033	-200.000	0.004	0.104
-387.019	-200.000	0.007	0.260
-386.004	8.001	-0.292	-0.220
-384.990	-123.738	-0.299	0.048
-383.975	350.629	0.197	-0.391
-382.960	17.819	0.117	0.094
-381.946	-200.000	-0.022	0.104
-380.931	-128.956	0.267	0.038
-379.917	31.835	0.115	0.099
-378.902	-19.197	0.097	-0.061
-377.888	800.000	-0.068	0.203
-376.873	-147.078	0.373	-0.032
-375.858	800.000	-0.086	0.275
-374.844	61.801	-0.100	0.100
-373.829	230.424	0.182	0.300
-372.815	-114.262	0.102	0.020
-371.800	0.281	-0.103	0.074
-370.785	-141.369	-0.292	0.030
-369.771	310.651	0.167	-0.315
-368.756	205.119	0.089	0.139
-367.742	800.000	-0.053	0.210
-366.727	-200.000	0.058	-0.311
-365.712	41.849	-0.041	0.038
-364.698	212.025	-0.040	0.063
-363.683	-134.118	0.136	0.017
-362.669	-92.364	-0.275	0.078
-361.654	243.601	0.104	0.176
-360.639	-114.507	0.130	0.025
-359.625	118.329	0.080	0.099
-358.610	800.000	-0.120	-0.339
-357.596	800.000	0.089	-0.292
-356.581	-200.000	0.068	-0.477
-355.566	366.503	-0.061	-0.124
-354.552	140.348	-0.143	0.189
-353.537	32.984	0.037	-0.032
-352.523	-200.000	-0.002	0.071
-351.508	-2.561	0.178	0.126
-350.493	-39.034	-0.214	0.113
-349.479	-144.732	-0.385	-0.036
-348.464	1.841	0.116	0.084
-347.450	-13.157	-0.166	0.108
-346.435	-43.141	0.267	-0.136
-345.420	-96.181	-0.233	0.062
-344.406	-99.064	0.111	0.028
-343.391	23.497	-0.253	0.209
-342.377	291.759	-0.097	-0.177
-341.362	-200.000	-0.019	-0.089
-340.348	153.796	-0.235	-0.323
-339.333	-29.498	0.470	0.270
-338.318	-67.884	0.192	0.076
-337.304	19.352	0.234	-0.189
-336.289	-200.000	0.018	-0.081
-335.275	-6.150	0.071	0.048
-334.260	-129.156	-0.121	0.017
-333.245	96.735	0.221	0.254
-332.231	-136.841	0.285	0.033
-331.216	-200.000	0.043	0.429
-330.202	-131.039	-0.184	-0.025
-329.187	207.707	-0.184	0.288
-328.172	143.421	0.016	0.022
-327.158	-3.062	0.194	0.136
-326.143	-144.582	0.138	-0.013
-325.129	-200.000	0.025	0.133
-324.114	1.326	-0.159	0.115
-323.099	589.179	-0.066	-0.164
-322.085	361.375	0.115	0.232
-321.070	-38.646	-0.191	0.101
-320.056	-128.981	0.304	0.043
-319.041	19.851	-0.188	-0.152
-318.026	-86.083	0.342	-0.106
-317.012	-3.472	-0.249	0.174
-315.997	-71.693	0.181	0.068
-314.983	-115.410	-0.214	-0.040
-313.968	-77.874	0.415	-0.144
-312.953	-200.000	0.011	0.319
-311.939	-73.987	-0.081	-0.029
-310.924	-17.430	0.174	0.110
-309.910	-15.358	0.172	-0.110
-308.895	-98.586	0.097	0.025
-307.880	157.270	-0.236	0.328
-306.866	800.000	-0.102	-0.357
-305.851	50.207	0.230	-0.218
-304.837	174.203	-0.180	-0.261
-303.822	301.938	0.063	-0.117
-302.807	-27.098	-0.147	-0.086
-301.793	-163.907	0.215	0.010
-300.778	501.893	-0.019	-0.045
-299.764	68.109	-0.207	0.212
-298.749	800.000	0.034	-0.129
-297.735	-53.205	-0.063	0.029
-296.720	-200.000	0.004	0.060
-295.705	800.000	0.082	-0.233
-294.691	155.965	-0.194	0.269
-293.676	13.438	0.367	0.285
-292.662	386.090	-0.098	-0.204
-291.647	290.336	-0.075	0.136
-290.632	428.043	0.113	-0.244
-289.618	-96.058	-0.189	0.050
-288.603	-12.665	0.251	-0.164
-287.589	282.176	-0.103	-0.186
-286.574	800.000	-0.074	0.229
-285.559	-200.000	0.003	0.083
-284.545	265.735	0.188	0.329
-283.530	-200.000	0.010	-0.117
-282.516	-102.657	0.349	-0.083
-281.501	165.896	0.212	0.301
-280.486	-95.773	-0.453	-0.121
-279.472	-59.998	-0.192	0.082
-278.457	-37.700	-0.186	0.099
-277.443	-200.000	0.014	0.123
-276.428	-174.562	-0.416	0.012
-275.413	800.000	0.075	0.287
-274.399	241.126	0.023	-0.039
-273.384	125.287	0.120	0.152
-272.370	717.444	-0.073	-0.195
-271.355	-138.698	-0.167	-0.018
-270.340	-122.403	0.097	0.016
-269.326	-118.060	0.229	0.041
-268.311	-101.344	0.317	-0.078
-267.297	1.474	-0.075	0.054
-266.282	61.407	0.017	-0.017
-265.267	800.000	0.025	0.100
-264.253	241.472	-0.073	-0.122
-263.238	-60.692	-0.247	0.105
-262.224	182.017	-0.185	-0.272
-261.209	-120.177	0.528	0.090
-260.195	131.317	-0.116	0.149
-259.180	-154.544	0.205	-0.014
-258.165	405.140	-0.022	-0.046
-257.151	15.239	0.111	-0.087
-256.136	-200.000	-0.029	0.234
-255.122	-200.000	-0.012	-0.055
-254.107	-200.000	0.030	0.226
-253.092	800.000	0.017	-0.066
-252.078	-200.000	0.051	-0.272
-251.063	-200.000	-0.007	-0.196
-250.049	89.354	0.209	-0.234
-249.034	200.280	0.086	-0.132
-248.019	-133.618	-0.188	-0.024
-247.005	800.000	0.091	0.267
-245.990	382.042	0.083	0.170
-244.976	317.870	0.190	0.359
-243.961	-184.962	-0.290	-0.005
-242.946	-19.177	-0.123	0.077
-241.932	4.506	-0.168	0.124
-240.917	125.741	0.117	-0.148
-239.903	82.580	-0.233	0.253
-238.888	3.483	-0.089	-0.065
-237.873	-67.614	-0.236	0.093
-236.859	-10.807	-0.183	0.121
-235.844	-167.911	0.208	0.008
-234.830	-131.718	-0.334	0.044
-233.815	86.521	0.239	-0.264
-232.800	20.796	0.199	-0.161
-231.786	800.000	-0.071	0.298
-230.771	-8.145	0.193	0.130
-229.757	475.150	0.092	0.208
-228.742	-115.952	0.216	-0.040
-227.727	-137.723	-0.121	-0.014
-226.713	110.444	0.152	-0.182
-225.698	12.042	-0.293	-0.226
-224.684	-200.000	-0.025	0.165
-223.669	-200.000	-0.024	0.275
-222.655	52.126	0.137	-0.131
-221.640	-8.078	0.121	0.081
-220.625	40.159	-0.363	0.326
-219.611	-173.930	0.227	0.007
-218.596	8.703	-0.153	0.115
-217.582	800.000	-0.026	0.096
-216.567	-130.154	-0.080	0.011
-215.552	-200.000	-0.006	-0.030
-214.538	-200.000	-0.001	0.264
-213.523	-107.680	0.434	0.095
-212.509	800.000	0.022	-0.063
-211.494	144.620	-0.061	0.082
-210.479	-200.000	0.014	-0.165
-209.465	800.000	0.077	-0.259
-208.450	402.939	0.110	0.231
-207.436	-96.206	0.297	-0.079
-206.421	41.190	0.055	0.050
-205.406	-200.000	-0.004	0.172
-204.392	-114.097	0.308	-0.060
-203.377	-200.000	-0.066	-0.308
-202.363	-200.000	-0.020	-0.107
-201.348	-33.806	0.091	-0.050
-200.333	-114.384	-0.079	0.015
-199.319	106.952	-0.072	0.085
-198.304	-200.000	0.020	0.139
-197.290	800.000	-0.072	-0.299
-196.275	-123.844	-0.214	0.034
-195.260	161.354	0.081	-0.113
-194.246	203.333	-0.195	-0.301
-193.231	-143.165	-0.158	0.015
-192.217	-146.872	0.373	-0.032
-191.202	-200.000	0.056	0.000
-190.187	-92.574	0.227	0.064
-189.173	147.047	-0.324	0.436
-188.158	125.840	0.105	-0.132
-187.144	-200.000	0.104	-0.496
-186.129	-132.204	0.059	-0.008
-185.114	-133.790	-0.412	0.051
-184.100	-59.943	0.206	0.088
-183.085	-177.840	-0.321	-0.008
-182.071	110.477	-0.060	-0.072
-181.056	712.674	0.076	-0.201
-180.042	-200.000	0.032	0.317
-179.027	-106.256	0.076	0.017
-178.012	-150.115	0.271	0.021
-176.998	227.274	-0.189	0.307
-175.983	-31.778	-0.240	0.134
-174.969	-91.689	-0.138	-0.039
-173.954	164.737	0.193	0.272
-172.939	800.000	0.132	-0.420
-171.925	800.000	0.066	-0.270
-170.910	-132.599	-0.111	0.014
-169.896	114.758	-0.191	0.233
-168.881	-76.728	0.201	0.070
-167.866	185.495	0.054	0.080
-166.852	800.000	0.112	-0.319
-165.837	364.221	-0.059	0.119
-164.823	-188.292	-0.045	-0.001
-163.808	75.140	0.153	0.161
-162.793	-168.117	0.229	-0.009
-161.779	-75.979	0.195	-0.069
-160.764	-200.000	0.001	0.218
-159.750	200.578	0.072	-0.111
-158.735	-19.847	-0.102	-0.063
-157.720	59.013	0.153	-0.150
-156.706	-83.213	-0.067	-0.021
-155.691	40.956	0.074	-0.066
-154.677	123.866	-0.047	-0.058
-153.662	-200.000	-0.091	-0.485
-152.647	123.838	-0.304	0.381
-151.633	-200.000	-0.027	-0.230
-150.618	-44.069	0.261	0.131
-149.604	169.966	0.048	-0.069
-148.589	-72.504	-0.105	-0.039
-147.574	-75.463	0.030	-0.011
-146.560	90.827	0.174	-0.194
-145.545	127.673	-0.098	-0.125
-144.531	-32.812	0.160	0.089
-143.516	-100.812	-0.340	0.083
-142.502	-38.933	-0.296	-0.155
-141.487	69.167	-0.087	-0.090
-140.472	-102.430	0.551	-0.131
-139.458	-144.585	0.279	-0.026
-138.443	-45.992	-0.108	0.053
-137.429	152.524	-0.178	-0.242
-136.414	-189.308	0.015	0.000
-135.399	-200.000	-0.013	-0.157
-134.385	-137.817	0.259	0.029
-133.370	-43.458	0.240	0.121
-132.356	-31.823	0.037	0.021
-131.341	84.913	-0.129	0.141
-130.326	718.746	-0.171	0.452
-129.312	690.805	0.166	0.432
-128.297	448.760	-0.138	-0.302
-127.283	-200.000	-0.022	-0.136
-126.268	-123.757	-0.100	-0.016
-125.253	98.127	-0.197	-0.225
-124.239	-92.946	0.167	0.046
-123.224	-145.815	0.215	-0.019
-122.210	800.000	-0.086	0.246
-121.195	563.197	0.133	-0.322
-120.180	169.122	0.127	-0.181
-119.166	-80.448	-0.152	0.050
-118.151	-160.339	-0.409	-0.022
-117.137	42.492	-0.202	-0.183
-116.122	-27.737	-0.101	-0.058
-115.107	160.664	-0.076	-0.106
-114.093	48.989	-0.218	0.204
-113.078	-106.480	0.170	0.038
-112.064	599.067	0.075	0.185
-111.049	-200.000	0.028	0.199
-110.034	53.367	-0.213	0.204
-109.020	-200.000	0.056	-0.397
-108.005	-102.713	0.131	-0.031
-106.991	-200.000	-0.037	0.189
-105.976	-200.000	0.028	-0.155
-104.962	-65.782	-0.177	-0.071
-103.947	583.339	-0.038	-0.093
-102.932	127.583	-0.045	-0.057
-101.918	-28.775	-0.324	-0.186
-100.903	128.726	-0.191	-0.243
-99.889	42.658	0.159	-0.144
-98.874	6.034	0.315	0.232
-97.859	-200.000	0.008	-0.121
-96.845	-69.906	0.061	0.023
-95.830	276.107	0.067	-0.119
-94.816	-143.942	0.374	-0.035
-93.801	-11.633	-0.145	-0.095
-92.786	8.918	-0.245	-0.184
-91.772	-195.386	0.063	0.000
-90.757	135.139	-0.196	0.253
-89.743	-41.640	0.096	-0.049
-88.728	-200.000	0.019	-0.125
-87.713	342.526	0.055	-0.108
-86.699	-114.629	-0.342	0.065
-85.684	223.687	-0.050	0.080
-84.670	-200.000	0.012	0.067
-83.655	-172.140	-0.135	0.004
-82.640	-48.324	0.094	0.045
-81.626	-32.120	0.054	0.030
-80.611	-76.384	0.172	0.060
-79.597	800.000	-0.071	0.256
-78.582	4.331	0.123	0.090
-77.567	141.382	-0.131	0.173
-76.553	52.271	0.188	-0.178
-75.538	604.145	-0.046	-0.115
-74.524	-102.611	0.213	0.051
-73.509	-30.178	0.214	0.121
-72.494	-97.314	0.181	0.047
-71.480	-119.954	0.077	-0.013
-70.465	-30.329	-0.224	0.126
-69.451	443.030	0.113	0.245
-68.436	276.643	0.143	-0.252
-67.422	800.000	0.064	-0.192
-66.407	235.036	0.241	-0.396
-65.392	161.094	-0.057	0.080
-64.378	7.938	-0.247	-0.184
-63.363	-17.268	-0.062	-0.039
-62.349	358.458	0.121	0.241
-61.334	23.933	-0.949	-0.778
-60.319	19.739	0.372	0.297
-59.305	-200.000	-0.063	-0.983
-58.290	231.830	0.520	0.848
-57.276	334.968	0.775	1.492
-56.261	-200.000	87.654	500.883
-55.246	541.030	1371.580	3246.096
-54.232	183.475	2610.660	3833.633
-53.217	116.060	2228.059	2710.331
-52.203	47.117	1673.495	1547.069
-51.188	39.528	1402.318	1248.485
-50.173	36.342	1358.091	1189.471
-49.159	56.114	1402.506	1352.461
-48.144	60.529	1420.512	1397.357
-47.130	40.038	1378.627	1230.373
-46.115	36.411	1360.956	1192.215
-45.100	36.166	1355.681	1186.042
-44.086	36.023	1354.104	1183.735
-43.071	36.106	1350.948	1181.438
-42.057	36.078	1349.080	1179.584
-41.042	36.095	1347.130	1177.939
-40.027	36.139	1345.564	1176.792
-39.013	36.128	1343.563	1174.926
-37.998	36.155	1341.954	1173.638
-36.984	36.146	1340.296	1172.085
-35.969	36.231	1337.745	1170.324
-34.954	36.209	1336.231	1168.820
-33.940	36.246	1334.562	1167.541
-32.925	36.336	1333.306	1166.938
-31.911	36.299	1332.104	1165.613
-30.896	36.313	1330.670	1164.399
-29.881	36.267	1329.708	1163.230
-28.867	36.369	1327.511	1161.877
-27.852	36.428	1325.645	1160.555
-26.838	36.316	1324.487	1158.823
-25.823	36.193	1324.120	1157.720
-24.809	36.220	1321.844	1155.843
-23.794	36.237	1320.487	1154.715
-22.779	36.252	1319.054	1153.504
-21.765	36.315	1317.962	1152.880
-20.750	36.276	1316.344	1151.186
-19.736	36.103	1315.122	1149.040
-18.721	36.098	1314.235	1148.192
-17.706	36.136	1312.677	1147.009
-16.692	36.126	1311.569	1145.938
-15.677	36.140	1310.295	1144.860
-14.663	36.116	1309.184	1143.703
-13.648	36.085	1307.951	1142.396
-12.633	36.164	1306.707	1141.734
-11.619	36.146	1306.158	1141.098
-10.604	36.179	1305.254	1140.459
-9.590	36.070	1304.316	1138.948
-8.575	36.073	1303.365	1138.092
-7.560	36.119	1302.256	1137.348
-6.546	36.034	1301.317	1135.985
-5.531	36.074	1300.881	1135.797
-4.517	36.140	1299.533	1134.958
-3.502	36.092	1298.873	1134.060
-2.487	36.104	1297.989	1133.311
-1.473	36.066	1294.081	1129.633
-0.458	35.148	1278.843	1110.962
0.556	30.141	1260.522	1072.855
1.571	26.676	1265.585	1056.895
2.586	25.958	1280.584	1065.089
3.600	25.062	1269.076	1050.174
4.615	17.658	1191.197	944.758
5.629	5.738	1107.491	816.516
6.644	0.548	1084.077	772.669
7.659	0.063	1081.540	768.318
8.673	-0.041	1080.843	767.220
9.688	-0.008	1079.112	766.091
10.702	0.504	1077.734	767.650
11.717	7.829	1089.512	813.536
12.731	18.396	1104.489	879.156
13.746	22.058	1108.799	901.339
14.761	22.215	1108.023	901.437
15.775	21.990	1107.843	900.057
16.790	21.714	1107.029	897.902
17.804	21.595	1106.532	896.809
18.819	21.797	1105.845	897.204
19.834	21.908	1105.291	897.242
20.848	21.983	1104.673	897.047
21.863	21.947	1104.164	896.372
22.877	21.707	1104.118	895.028
23.892	21.783	1102.894	894.345
24.907	21.828	1102.197	893.932
25.921	21.917	1100.956	893.298
26.936	21.851	1099.716	891.875
27.950	21.875	1097.553	890.164
28.965	21.687	1095.982	887.861
29.980	21.785	1094.621	887.172
30.994	21.880	1093.748	886.866
32.009	21.990	1092.179	886.072
33.023	21.822	1091.055	884.236
34.038	21.784	1090.250	883.312
35.053	21.859	1090.043	883.444
36.067	21.884	1089.084	882.717
37.082	22.012	1088.061	882.450
38.096	22.262	1087.234	882.958
39.111	22.164	1086.714	881.964
40.126	21.969	1085.070	879.575
41.140	21.692	1083.226	876.616
42.155	21.498	1082.078	874.640
43.169	21.380	1081.583	873.573
44.184	21.543	1080.122	873.130
45.199	21.482	1079.105	871.929
46.213	21.541	1078.169	871.386
47.228	21.670	1077.270	871.225
48.242	21.731	1076.330	870.690
49.257	21.728	1075.770	870.145
50.271	21.837	1075.315	870.242
51.286	22.023	1073.779	869.843
52.301	21.931	1072.790	868.513
53.315	21.943	1071.930	867.797
54.330	21.783	1071.405	866.503
55.344	21.850	1070.450	865.988
56.359	21.737	1069.234	864.370
57.374	21.688	1068.422	863.394
58.388	21.644	1067.638	862.468
59.403	21.549	1066.630	861.111
60.417	21.487	1065.704	859.981
61.432	21.318	1065.443	858.864
62.447	21.603	1064.541	859.460
63.461	21.783	1063.617	859.521
64.476	21.613	1062.598	857.789
65.490	21.583	1061.349	856.560
66.505	21.632	1060.432	855.980
67.520	21.719	1059.889	855.891
68.534	21.452	1059.250	853.998
69.549	21.131	1057.995	851.343
70.563	21.187	1056.770	850.555
71.578	21.239	1056.195	850.269
72.593	21.052	1055.060	848.373
73.607	21.156	1054.465	848.325
74.622	21.465	1054.162	849.504
75.636	21.547	1053.748	849.494
76.651	21.343	1052.669	847.560
77.666	21.267	1051.750	846.379
78.680	21.344	1051.400	846.394
79.695	21.307	1050.862	845.709
80.709	21.587	1049.820	846.149
81.724	21.554	1048.671	844.986
82.739	21.605	1047.988	844.610
83.753	21.984	1047.694	846.122
84.768	22.126	1046.996	846.172
85.782	22.169	1046.065	845.548
86.797	22.036	1044.893	843.889
87.812	21.977	1043.706	842.571
88.826	22.004	1043.090	842.128
89.841	22.070	1042.233	841.679
90.855	22.139	1041.004	840.944
91.870	21.989	1040.490	839.736
92.884	22.061	1038.951	838.762
93.899	21.959	1037.864	837.325
94.914	22.080	1037.373	837.433
95.928	21.758	1036.741	835.310
96.943	21.623	1034.871	833.091
97.957	21.456	1033.564	831.170
98.972	21.445	1032.198	829.947
99.987	21.656	1031.681	830.458
101.001	21.747	1031.052	830.310
102.016	21.861	1029.731	829.711
103.030	21.717	1029.135	828.477
104.045	21.589	1028.218	827.058
105.060	21.512	1026.689	825.392
106.074	21.591	1026.515	825.554
107.089	21.952	1026.138	826.879
108.103	21.871	1024.740	825.298
109.118	21.724	1023.162	823.265
110.133	21.660	1022.863	822.648
111.147	21.446	1021.475	820.455
112.162	21.323	1020.092	818.698
113.176	21.459	1019.695	818.942
114.191	21.501	1018.626	818.209
115.206	21.124	1017.677	815.614
116.220	21.160	1017.087	815.236
117.235	21.326	1015.845	814.943
118.249	21.258	1015.209	814.041
119.264	21.193	1014.263	812.908
120.279	21.243	1013.564	812.509
121.293	21.285	1012.957	812.149
122.308	21.281	1012.173	811.426
123.322	21.225	1010.735	809.945
124.337	21.200	1009.383	808.675
125.352	20.600	1007.757	804.522
126.366	20.582	1006.594	803.442
127.381	21.389	1006.436	806.967
128.395	21.747	1006.377	808.503
129.410	21.962	1005.110	808.404
130.424	21.748	1004.566	806.911
131.439	21.819	1002.785	805.736
132.454	21.742	1002.408	805.005
133.468	21.724	1001.275	803.945
134.483	21.919	1000.762	804.355
135.497	22.154	999.862	804.634
136.512	22.067	999.125	803.574
137.527	22.106	997.569	802.428
138.541	22.175	996.862	802.104
139.556	22.002	996.498	800.952
140.570	22.170	995.747	801.041
141.585	22.098	994.765	799.855
142.600	22.024	993.594	798.502
143.614	22.252	992.964	798.964
144.629	22.356	992.246	798.788
145.643	22.142	991.059	796.790
146.658	22.030	989.353	794.842
147.673	21.990	988.516	793.916
148.687	21.879	987.588	792.599
149.702	21.791	986.357	791.144
150.716	21.682	985.673	790.035
151.731	21.939	984.897	790.503
152.746	22.169	984.384	791.053
153.760	22.133	983.952	790.477
154.775	22.313	982.829	790.312
155.789	22.234	982.116	789.316
156.804	22.061	981.352	787.854
157.819	22.199	980.271	787.536
158.833	22.457	979.284	787.826
159.848	22.380	978.342	786.657
160.862	22.023	977.570	784.372
161.877	22.161	976.731	784.244
162.892	22.237	975.450	783.486
163.906	22.133	974.274	782.006
164.921	22.154	973.545	781.448
165.935	22.197	972.602	780.814
166.950	22.299	971.470	780.288
167.964	22.049	971.037	778.763
168.979	22.145	969.420	777.822
169.994	21.941	968.763	776.324
171.008	22.161	968.425	776.954
172.023	22.300	967.410	776.688
173.037	21.982	966.407	774.410
174.052	22.104	964.639	773.463
175.067	21.943	964.637	772.683
176.081	22.114	964.040	772.890
177.096	22.062	963.171	771.895
178.110	21.683	962.547	769.659
179.125	21.540	961.748	768.325
180.140	21.672	960.993	768.236
181.154	21.838	960.723	768.677
182.169	22.074	960.773	769.683
183.183	22.296	959.896	769.885
184.198	22.185	959.086	768.682
185.213	22.206	958.447	768.192
186.227	22.095	957.978	767.267
187.242	22.157	957.280	766.910
188.256	22.188	956.680	766.494
189.271	22.362	955.620	766.335
190.286	21.906	954.946	763.746
191.300	21.353	953.159	759.844
192.315	20.765	951.301	755.743
193.329	20.557	951.512	754.939
194.344	21.611	951.343	759.316
195.359	22.027	951.554	761.219
196.373	22.223	950.799	761.397
197.388	21.969	950.176	759.732
198.402	21.983	949.766	759.398
199.417	22.189	948.396	759.124
200.432	21.868	947.558	757.000
201.446	21.633	947.279	755.695
202.461	21.682	946.645	755.335
203.475	20.803	944.981	750.155
204.490	20.163	943.226	745.943
205.504	21.121	943.527	750.238
206.519	21.643	943.352	752.274
207.534	21.661	942.927	751.947
208.548	22.169	942.811	753.966
209.563	21.910	941.682	751.888
210.577	21.905	941.297	751.491
211.592	22.203	941.181	752.610
212.607	22.291	939.769	751.791
213.621	22.248	939.525	751.345
214.636	22.273	938.768	750.777
215.650	22.081	938.197	749.435
216.665	22.168	937.216	748.956
217.680	22.274	936.137	748.478
218.694	21.824	934.997	745.588
219.709	21.654	934.537	744.433
220.723	21.995	933.890	745.300
221.738	22.137	933.138	745.235
222.753	22.018	932.684	744.303
223.767	22.108	932.364	744.362
224.782	22.281	932.330	745.005
225.796	22.292	931.126	744.022
226.811	21.726	929.728	740.449
227.826	21.010	928.513	736.394
228.840	21.135	928.041	736.480
229.855	21.291	927.365	736.539
230.869	21.019	926.049	734.280
231.884	21.470	926.186	736.223
232.899	22.122	926.290	738.986
233.913	22.062	925.424	737.974
234.928	21.952	925.068	737.165
235.942	22.006	924.227	736.656
236.957	21.688	923.636	734.787
237.972	21.612	922.914	733.826
238.986	21.670	922.588	733.747
240.001	21.810	921.590	733.474
241.015	21.937	920.866	733.364
242.030	22.209	920.243	733.937
243.045	22.107	920.009	733.262
244.059	22.190	919.590	733.208
245.074	22.129	918.355	731.906
246.088	21.781	917.531	729.736
247.103	22.005	916.959	730.147
248.117	22.458	917.056	732.045
249.132	22.615	916.927	732.529
250.147	22.857	916.295	732.962
251.161	22.962	915.742	732.891
252.176	22.765	915.054	731.462
253.190	23.016	914.423	731.930
254.205	23.203	913.936	732.250
255.220	23.034	912.888	730.647
256.234	22.961	912.325	729.830
257.249	22.819	911.615	728.612
258.263	22.791	911.075	728.000
259.278	22.932	910.402	727.978
260.293	22.953	909.749	727.478
261.307	22.793	909.038	726.187
262.322	22.759	907.846	725.033
263.336	21.864	906.441	720.172
264.351	20.854	904.297	714.264
265.366	21.129	903.592	714.773
266.380	22.163	904.548	719.703
267.395	22.519	904.330	720.920
268.409	22.445	903.467	719.865
269.424	22.622	903.491	720.547
270.439	22.756	902.216	720.013
271.453	22.844	901.762	719.946
272.468	23.059	901.736	720.738
273.482	23.019	900.747	719.720
274.497	22.661	899.539	717.237
275.512	22.251	898.488	714.667
276.526	22.594	899.124	716.504
277.541	22.881	898.260	716.917
278.555	22.590	897.524	715.088
279.570	22.437	896.560	713.636
280.585	22.616	895.968	713.824
281.599	22.547	894.755	712.516
282.614	21.938	893.802	709.235
283.628	22.025	893.272	709.105
284.643	22.330	893.128	710.156
285.657	22.004	891.981	707.870
286.672	21.716	891.194	706.022
287.687	22.198	890.985	707.735
288.701	22.391	890.460	708.033
289.716	22.047	889.310	705.672
290.730	21.953	888.895	704.903
291.745	21.720	887.893	703.111
292.760	21.983	887.849	704.069
293.774	23.024	887.973	708.277
294.789	23.324	888.025	709.457
295.803	23.287	887.649	708.947
296.818	23.465	886.665	708.809
297.833	22.907	885.683	705.732
298.847	22.854	884.526	704.538
299.862	23.105	884.564	705.508
300.876	23.296	884.142	705.869
301.891	23.112	883.313	704.411
302.906	22.876	882.204	702.527
303.920	22.984	881.870	702.630
304.935	23.098	882.268	703.335
305.949	23.162	881.059	702.566
306.964	22.997	880.329	701.267
307.979	22.966	880.437	701.166
308.993	23.345	880.209	702.428
310.008	23.432	879.092	701.819
311.022	23.068	878.302	699.684
312.037	23.085	877.378	698.952
313.052	22.744	876.664	696.978
314.066	21.896	875.277	692.468
315.081	21.605	874.626	690.742
316.095	22.538	874.399	694.177
317.110	22.937	874.605	695.853
318.125	22.185	872.692	691.313
319.139	21.215	871.222	686.278
320.154	21.073	871.442	685.833
321.168	21.924	871.816	689.412
322.183	22.621	871.710	692.001
323.197	22.939	870.917	692.560
324.212	22.948	871.092	692.674
325.227	23.127	870.381	692.746
326.241	23.034	869.430	691.563
327.256	22.757	869.190	690.230
328.270	22.868	868.261	689.865
329.285	22.526	867.602	687.942
330.300	22.365	866.673	686.520
331.314	22.619	866.408	687.240
332.329	23.083	866.331	688.926
333.343	23.119	865.793	688.577
334.358	23.117	865.414	688.205
335.373	23.078	865.276	687.883
336.387	23.426	865.115	689.047
337.402	23.697	864.399	689.470
338.416	23.471	864.470	688.588
339.431	23.611	864.029	688.717
340.446	23.790	863.505	688.933
341.460	23.608	863.152	687.884
342.475	23.461	862.484	686.723
343.489	23.438	862.350	686.467
344.504	23.737	861.764	687.094
345.519	23.882	861.638	687.495
346.533	23.990	860.733	687.131
347.548	23.917	860.404	686.523
348.562	24.038	859.636	686.318
349.577	23.860	859.284	685.289
350.592	23.907	858.563	684.833
351.606	23.795	857.675	683.634
352.621	23.829	856.621	682.863
353.635	23.623	856.047	681.555
354.650	23.031	854.244	677.793
355.665	22.109	852.862	673.103
356.679	22.532	852.902	674.697
357.694	23.025	852.190	675.959
358.708	22.762	851.597	674.425
359.723	23.249	851.849	676.425
360.738	23.655	851.033	677.267
361.752	23.661	850.718	676.976
362.767	24.090	850.437	678.329
363.781	24.149	850.019	678.163
364.796	24.185	849.750	678.023
365.810	24.155	849.535	677.678
366.825	24.235	849.081	677.559
367.840	23.863	848.029	675.247
368.854	23.645	846.971	673.519
369.869	23.728	846.542	673.431
370.883	23.675	846.377	673.039
371.898	23.627	845.676	672.240
372.913	23.594	845.495	671.914
373.927	23.827	845.163	672.473
374.942	23.959	844.740	672.573
375.956	24.054	844.336	672.553
376.971	24.044	843.986	672.175
377.986	24.197	843.315	672.158
379.000	24.321	842.768	672.131
380.015	24.026	842.224	670.529
381.029	24.268	841.630	670.905
382.044	24.382	840.807	670.620
383.059	24.265	840.624	669.975
384.073	24.218	840.091	669.313
385.088	24.127	839.814	668.691
386.102	24.024	838.454	667.163
387.117	23.969	837.922	666.476
388.132	23.661	836.759	664.337
389.146	23.150	835.827	661.628
390.161	23.467	836.090	662.964
391.175	23.802	835.679	663.832
392.190	23.580	834.491	662.001
393.205	22.232	832.809	655.585
394.219	20.765	830.869	648.539
395.234	20.836	830.451	648.422
396.248	22.343	832.075	655.248
397.263	23.729	832.968	661.056
398.278	23.833	832.208	660.780
399.292	23.616	831.516	659.368
400.307	23.575	831.234	658.933
401.321	23.543	831.036	658.598
402.336	24.063	830.736	660.230
403.350	24.555	830.644	661.924
404.365	24.650	830.576	662.164
405.380	24.918	830.007	662.644
406.394	25.072	829.172	662.486
407.409	24.848	828.958	661.428
408.423	24.800	828.680	660.970
409.438	24.856	828.373	660.875
410.453	25.022	827.593	660.805
411.467	24.954	827.004	660.026
412.482	24.818	826.718	659.240
413.496	24.920	826.444	659.337
414.511	25.156	825.810	659.644
415.526	24.914	825.465	658.420
416.540	24.785	824.314	656.969
417.555	24.583	824.094	655.993
418.569	24.614	823.787	655.804
419.584	24.486	823.091	654.723
420.599	24.387	822.413	653.763
421.613	151.045	1366.263	1786.861
422.628	131.588	1445.524	1786.982
