DTS Sentinel unit serial number:	SN413079Multiplexer serial number:	ORYXHardware model number:	OX4-SRSoftware version number:	ORYX F/W v4.00 Oryx Data Collector v3.7.2.0data status	okinstallation	princeton_trtdifferential loss correction	single-endedforward channel	channel 1reverse channel	N/Adate	2019/09/12time	01:24:11forward acquisition time	60.00reverse acquisition time	0.00gamma	496.2192k internal	0.2320k external	0.2320temperature offset calibration	1.0075default loss term (dB/km)	0.3790temperature slope calibration	1.0000multiplexer offset coefficient	1.0000multiplexer slope coefficient	1.0000fibre end	0.00T internal ref (°C)	32.98T ext. ref 1 (°C)	2.07T ext. ref 2 (°C)	27.83length (m)	temperature (°C)	Stokes	anti-Stokes-747.200	-131.115	-0.228	-0.031
-746.185	75.384	0.159	-0.169
-745.171	143.201	0.127	-0.170
-744.156	747.411	-0.139	0.378
-743.142	15.432	0.053	0.042
-742.127	-200.000	0.015	0.111
-741.112	-200.000	0.000	-0.047
-740.098	148.943	-0.246	-0.336
-739.083	-200.000	-0.057	-0.670
-738.069	52.333	-0.156	0.150
-737.054	-30.483	-0.186	-0.106
-736.039	-11.316	-0.331	-0.221
-735.025	-189.161	0.063	-0.001
-734.010	800.000	0.053	-0.186
-732.996	341.809	0.028	0.055
-731.981	5.501	0.060	0.045
-730.966	-200.000	-0.133	0.000
-729.952	-34.183	0.234	-0.130
-728.937	-29.962	-0.412	0.237
-727.923	220.546	0.158	-0.257
-726.908	800.000	-0.086	0.352
-725.894	-200.000	-0.053	0.256
-724.879	-200.000	0.075	0.333
-723.864	147.909	-0.112	0.152
-722.850	-60.208	0.108	0.046
-721.835	314.088	0.172	0.326
-720.821	82.175	0.153	0.168
-719.806	-101.509	-0.267	0.066
-718.791	-200.000	-0.018	0.219
-717.777	-115.409	0.236	-0.045
-716.762	596.402	0.137	-0.343
-715.748	800.000	-0.023	-0.064
-714.733	-200.000	-0.022	0.125
-713.718	231.726	-0.090	-0.149
-712.704	372.875	-0.054	0.111
-711.689	-41.269	-0.094	0.049
-710.675	-90.244	-0.191	-0.056
-709.660	122.467	-0.112	0.142
-708.645	800.000	-0.048	0.134
-707.631	-116.779	-0.237	0.044
-706.616	17.512	-0.348	-0.280
-705.602	599.862	0.033	-0.082
-704.587	-97.956	-0.193	-0.050
-703.572	505.399	-0.066	0.155
-702.558	108.618	0.224	-0.270
-701.543	-200.000	-0.007	0.231
-700.529	-102.837	-0.391	-0.094
-699.514	800.000	0.076	0.326
-698.499	4.250	0.284	0.210
-697.485	125.502	-0.083	-0.106
-696.470	111.752	-0.153	-0.186
-695.456	303.737	0.021	-0.039
-694.441	92.470	0.212	-0.242
-693.426	-200.000	-0.013	-0.183
-692.412	800.000	0.119	-0.371
-691.397	701.411	0.014	-0.037
-690.383	-50.803	-0.168	0.080
-689.368	800.000	0.075	-0.233
-688.354	-200.000	-0.007	0.378
-687.339	-34.120	0.041	-0.023
-686.324	-135.446	0.214	0.026
-685.310	351.515	-0.153	-0.306
-684.295	-104.641	-0.133	-0.031
-683.281	-75.361	-0.341	-0.123
-682.266	384.129	0.037	0.078
-681.251	4.660	-0.262	0.194
-680.237	-0.432	-0.169	0.121
-679.222	-136.613	-0.209	-0.024
-678.208	-46.300	-0.293	0.145
-677.193	-200.000	-0.022	-0.147
-676.178	-27.459	0.224	-0.131
-675.164	-129.374	-0.421	-0.059
-674.149	800.000	-0.019	0.078
-673.135	-10.472	0.075	0.050
-672.120	418.174	0.023	0.049
-671.105	-125.215	-0.434	-0.067
-670.091	-200.000	-0.013	0.076
-669.076	-3.328	-0.205	-0.144
-668.062	-13.567	0.069	-0.045
-667.047	800.000	0.056	-0.212
-666.032	800.000	0.095	-0.308
-665.018	800.000	-0.057	-0.184
-664.003	-200.000	-0.021	-0.223
-662.989	44.185	0.115	-0.106
-661.974	67.725	-0.133	-0.137
-660.959	-21.684	-0.262	-0.161
-659.945	182.072	0.030	0.045
-658.930	-47.125	-0.282	-0.139
-657.916	301.361	0.111	0.206
-656.901	65.060	-0.095	0.096
-655.886	498.582	0.045	-0.105
-654.872	138.266	-0.127	-0.168
-653.857	3.654	0.111	0.081
-652.843	48.051	-0.165	-0.155
-651.828	-200.000	-0.006	0.120
-650.814	245.895	-0.151	0.256
-649.799	32.729	0.094	0.082
-648.784	221.402	-0.104	0.168
-647.770	489.314	-0.055	0.127
-646.755	800.000	0.049	-0.142
-645.741	-20.562	-0.343	-0.213
-644.726	643.340	0.109	-0.279
-643.711	800.000	0.066	0.241
-642.697	-200.000	-0.012	0.058
-641.682	-48.073	0.105	0.051
-640.668	46.087	-0.188	0.175
-639.653	-89.732	0.119	-0.035
-638.638	169.367	-0.051	-0.073
-637.624	-25.496	0.033	0.020
-636.609	69.000	-0.285	-0.295
-635.595	-26.537	-0.254	-0.150
-634.580	-64.797	-0.187	-0.076
-633.565	-63.905	0.155	-0.064
-632.551	-200.000	0.010	0.253
-631.536	404.636	-0.097	0.206
-630.522	228.392	-0.171	-0.280
-629.507	267.193	-0.124	-0.219
-628.492	-151.312	0.368	-0.028
-627.478	13.309	0.271	-0.211
-626.463	-200.000	0.012	0.069
-625.449	-55.627	0.142	0.064
-624.434	-88.242	-0.163	-0.049
-623.419	36.377	0.163	0.145
-622.405	219.975	-0.155	-0.250
-621.390	35.003	0.121	0.106
-620.376	23.188	-0.170	0.141
-619.361	-200.000	-0.005	-0.300
-618.346	70.471	0.095	0.099
-617.332	-109.385	0.162	-0.035
-616.317	25.972	0.282	0.237
-615.303	-168.485	0.273	0.011
-614.288	-63.050	0.054	-0.023
-613.273	800.000	-0.143	0.434
-612.259	-105.706	-0.160	0.036
-611.244	-29.991	-0.150	-0.086
-610.230	-134.223	-0.096	-0.012
-609.215	800.000	0.062	-0.260
-608.201	38.212	0.050	0.045
-607.186	234.843	0.109	0.181
-606.171	36.312	-0.184	-0.163
-605.157	-200.000	-0.008	0.102
-604.142	54.733	0.100	0.097
-603.128	-200.000	0.058	-0.397
-602.113	-77.635	0.128	-0.045
-601.098	714.381	-0.079	0.212
-600.084	192.102	-0.089	-0.134
-599.069	800.000	0.074	-0.236
-598.055	-5.749	0.238	0.164
-597.040	10.240	0.320	0.245
-596.025	1.914	0.339	0.246
-595.011	-86.779	-0.336	-0.103
-593.996	-41.575	-0.266	0.138
-592.982	514.132	0.042	-0.098
-591.967	-187.702	0.164	0.002
-590.952	-58.243	0.359	0.157
-589.938	-8.724	-0.147	0.099
-588.923	689.725	0.047	0.124
-587.909	-159.069	-0.278	0.016
-586.894	141.775	-0.138	-0.183
-585.879	-200.000	-0.003	0.041
-584.865	255.773	-0.027	0.047
-583.850	-200.000	0.036	0.207
-582.836	-93.820	0.074	-0.020
-581.821	42.756	0.286	-0.262
-580.806	-4.384	-0.112	-0.078
-579.792	-40.013	-0.070	-0.037
-578.777	-164.206	-0.029	-0.001
-577.763	-41.510	0.137	-0.071
-576.748	-167.253	-0.099	-0.004
-575.733	-46.075	0.335	-0.166
-574.719	800.000	-0.014	-0.043
-573.704	53.857	0.226	-0.218
-572.690	-200.000	0.016	0.212
-571.675	800.000	0.017	0.053
-570.661	-4.932	0.307	0.212
-569.646	-179.683	-0.168	0.004
-568.631	65.519	0.191	0.194
-567.617	258.813	0.011	-0.018
-566.602	-138.891	-0.079	-0.009
-565.588	186.508	0.095	-0.141
-564.573	-81.979	0.117	-0.038
-563.558	800.000	0.053	0.162
-562.544	-107.978	0.092	-0.020
-561.529	800.000	0.101	0.310
-560.515	800.000	0.083	0.314
-559.500	-168.697	0.057	0.002
-558.485	648.384	-0.056	-0.144
-557.471	35.568	0.188	-0.166
-556.456	-200.000	-0.046	0.212
-555.442	242.186	0.155	0.261
-554.427	93.997	0.147	0.168
-553.412	-3.513	-0.142	0.099
-552.398	137.430	0.052	-0.068
-551.383	-40.128	-0.088	0.046
-550.369	323.185	0.112	0.214
-549.354	-27.685	-0.209	-0.122
-548.339	-200.000	0.017	-0.114
-547.325	745.236	0.215	-0.580
-546.310	800.000	-0.084	-0.338
-545.296	435.160	-0.140	0.305
-544.281	-200.000	0.014	-0.282
-543.266	-55.066	-0.255	-0.115
-542.252	-200.000	0.029	-0.181
-541.237	-200.000	0.006	0.434
-540.223	-185.288	-0.423	-0.007
-539.208	68.188	-0.189	0.194
-538.193	462.396	-0.171	0.382
-537.179	13.591	-0.109	-0.085
-536.164	268.868	0.118	-0.207
-535.150	800.000	0.055	-0.216
-534.135	-153.035	-0.115	0.008
-533.121	169.717	-0.149	-0.213
-532.106	-16.604	0.354	0.225
-531.091	-173.130	0.066	0.002
-530.077	-124.099	0.158	0.025
-529.062	445.152	0.045	-0.100
-528.048	83.289	0.068	0.074
-527.033	-170.747	-0.119	0.004
-526.018	48.639	0.145	0.136
-525.004	-200.000	-0.016	0.204
-523.989	800.000	0.106	-0.309
-522.975	-57.809	0.345	0.151
-521.960	319.353	0.078	0.149
-520.945	68.628	0.145	-0.149
-519.931	101.380	0.160	0.187
-518.916	-123.167	-0.194	0.031
-517.902	243.736	0.139	0.234
-516.887	800.000	0.010	-0.034
-515.872	6.638	-0.098	0.073
-514.858	-145.426	0.276	0.025
-513.843	-69.193	0.141	-0.054
-512.829	-200.000	0.015	0.110
-511.814	-200.000	0.026	0.134
-510.799	-200.000	0.038	0.237
-509.785	800.000	0.089	-0.354
-508.770	-131.819	0.406	-0.053
-507.756	658.716	-0.137	-0.354
-506.741	-62.796	-0.169	-0.070
-505.726	-200.000	-0.026	0.311
-504.712	-157.788	0.258	-0.015
-503.697	68.860	-0.185	0.190
-502.683	50.074	-0.037	-0.035
-501.668	-200.000	-0.044	-0.248
-500.653	-200.000	-0.068	0.357
-499.639	113.991	-0.049	0.059
-498.624	-95.935	0.271	-0.072
-497.610	236.664	0.181	0.301
-496.595	-103.572	0.256	-0.060
-495.581	-154.747	-0.154	0.010
-494.566	63.368	0.128	-0.128
-493.551	-200.000	-0.014	-0.203
-492.537	77.167	-0.031	0.033
-491.522	-49.250	0.172	-0.082
-490.508	-200.000	-0.009	-0.095
-489.493	-107.874	-0.308	-0.067
-488.478	-13.286	0.043	-0.028
-487.464	15.956	-0.126	0.099
-486.449	-200.000	-0.010	0.381
-485.435	95.035	-0.160	0.183
-484.420	-39.223	0.096	0.051
-483.405	-140.980	-0.438	-0.045
-482.391	-200.000	0.073	0.493
-481.376	190.786	0.123	0.185
-480.362	800.000	-0.089	0.255
-479.347	-200.000	0.016	0.073
-478.332	-167.837	-0.322	0.013
-477.318	-4.441	-0.236	0.163
-476.303	-115.011	-0.088	0.017
-475.289	25.893	-0.141	-0.117
-474.274	359.022	0.113	-0.226
-473.259	800.000	-0.022	-0.090
-472.245	-7.366	-0.319	0.216
-471.230	-200.000	-0.038	-0.304
-470.216	-200.000	0.025	0.139
-469.201	-92.345	-0.376	-0.106
-468.186	-200.000	0.000	0.258
-467.172	-132.395	0.173	-0.022
-466.157	-200.000	-0.035	0.296
-465.143	-37.629	-0.039	0.021
-464.128	315.717	-0.058	0.110
-463.113	-168.450	-0.220	0.008
-462.099	35.193	0.323	0.283
-461.084	-185.966	-0.270	0.004
-460.070	-82.697	0.177	-0.057
-459.055	-200.000	-0.018	-0.255
-458.040	184.477	-0.116	0.171
-457.026	-52.723	-0.339	0.157
-456.011	103.885	-0.079	0.092
-454.997	122.404	-0.126	0.157
-453.982	82.638	0.262	-0.284
-452.968	163.030	-0.126	-0.177
-451.953	-58.794	0.029	0.013
-450.938	62.669	-0.101	0.101
-449.924	-141.054	-0.324	0.033
-448.909	800.000	-0.035	0.098
-447.895	-200.000	-0.033	0.158
-446.880	-116.015	-0.105	0.020
-445.865	556.706	-0.064	-0.155
-444.851	374.138	-0.044	0.090
-443.836	490.739	-0.083	-0.191
-442.822	-200.000	-0.032	-0.212
-441.807	800.000	0.151	-0.497
-440.792	75.234	0.145	-0.153
-439.778	-186.046	-0.269	0.004
-438.763	-93.957	0.131	0.036
-437.749	-30.512	-0.184	-0.104
-436.734	-110.891	0.099	0.020
-435.719	800.000	-0.066	0.193
-434.705	-200.000	-0.008	0.334
-433.690	-200.000	-0.020	0.399
-432.676	-168.054	-0.221	-0.009
-431.661	46.333	0.115	0.106
-430.646	800.000	0.058	-0.222
-429.632	21.399	-0.029	-0.024
-428.617	297.692	-0.104	-0.190
-427.603	-69.086	-0.218	0.084
-426.588	-200.000	-0.001	-0.122
-425.573	191.144	-0.250	0.375
-424.559	185.405	0.029	-0.043
-423.544	-108.354	0.177	0.038
-422.530	-50.682	0.250	-0.117
-421.515	-200.000	-0.037	-0.323
-420.500	676.497	0.027	0.070
-419.486	-89.282	0.391	-0.115
-418.471	-144.878	0.169	-0.015
-417.457	20.748	0.201	-0.162
-416.442	-147.225	-0.098	-0.008
-415.428	-75.856	-0.117	-0.041
-414.413	244.924	-0.038	-0.063
-413.398	-25.833	0.335	0.197
-412.384	-114.993	-0.170	-0.032
-411.369	60.679	-0.064	-0.063
-410.355	617.046	-0.083	-0.207
-409.340	165.835	-0.145	-0.204
-408.325	145.319	0.035	-0.047
-407.311	-165.306	-0.437	-0.019
-406.296	-200.000	-0.003	-0.061
-405.282	102.237	0.138	-0.161
-404.267	24.382	0.077	-0.063
-403.252	-200.000	0.015	-0.078
-402.238	-200.000	0.054	0.248
-401.223	-57.045	-0.168	0.074
-400.209	-200.000	-0.089	-0.426
-399.194	-76.704	0.210	0.073
-398.179	800.000	-0.050	-0.186
-397.165	-129.673	0.279	0.038
-396.150	58.126	0.200	0.196
-395.136	516.139	-0.118	-0.274
-394.121	-200.000	0.052	-0.281
-393.106	563.577	-0.063	-0.151
-392.092	-150.201	-0.242	0.019
-391.077	97.103	0.112	0.128
-390.063	800.000	0.041	-0.161
-389.048	95.646	0.120	-0.137
-388.033	397.207	0.037	-0.077
-387.019	96.794	-0.359	0.410
-386.004	11.053	-0.334	-0.255
-384.990	-94.624	-0.125	0.034
-383.975	69.099	0.139	0.142
-382.960	-53.748	-0.053	0.024
-381.946	-125.978	0.261	0.039
-380.931	-156.020	0.267	0.017
-379.917	385.448	0.081	0.166
-378.902	221.313	-0.124	0.199
-377.888	-200.000	-0.011	0.184
-376.873	-82.359	-0.135	0.044
-375.858	43.485	-0.234	0.214
-374.844	324.361	-0.078	0.148
-373.829	-200.000	-0.044	0.340
-372.815	104.284	-0.078	-0.091
-371.800	527.671	-0.162	-0.381
-370.785	38.559	-0.082	-0.073
-369.771	-13.358	0.239	-0.155
-368.756	23.155	0.140	-0.114
-367.742	800.000	-0.047	0.192
-366.727	123.116	0.085	0.107
-365.712	800.000	-0.024	-0.096
-364.698	-153.913	-0.263	0.018
-363.683	97.597	-0.052	0.059
-362.669	68.169	-0.115	0.118
-361.654	800.000	0.068	0.234
-360.639	535.133	-0.098	0.232
-359.625	800.000	-0.064	-0.187
-358.610	-123.589	0.076	-0.012
-357.596	-200.000	0.035	0.393
-356.581	-82.946	-0.179	-0.058
-355.566	571.128	-0.099	-0.240
-354.552	-134.335	0.283	-0.035
-353.537	107.696	0.342	0.406
-352.523	-12.282	-0.290	-0.189
-351.508	350.089	0.204	0.402
-350.493	496.068	-0.116	-0.265
-349.479	402.156	0.012	0.025
-348.464	-187.513	-0.183	-0.002
-347.450	800.000	0.070	0.248
-346.435	-200.000	-0.029	0.259
-345.420	-2.209	-0.260	-0.181
-344.406	-200.000	0.019	-0.086
-343.391	-123.276	0.247	0.039
-342.377	-187.639	-0.424	0.006
-341.362	-128.385	-0.297	0.042
-340.348	-126.286	0.113	-0.017
-339.333	800.000	0.086	-0.260
-338.318	647.152	0.043	0.109
-337.304	-200.000	-0.002	0.126
-336.289	-200.000	-0.036	-0.192
-335.275	-200.000	-0.042	-0.203
-334.260	124.202	-0.064	-0.080
-333.245	-126.509	0.150	-0.022
-332.231	-200.000	0.010	0.090
-331.216	217.505	-0.136	-0.215
-330.202	163.290	0.246	-0.345
-329.187	514.785	0.106	-0.246
-328.172	-123.994	0.125	0.020
-327.158	-200.000	-0.008	0.097
-326.143	-200.000	-0.009	-0.143
-325.129	607.150	0.079	-0.196
-324.114	43.364	0.105	-0.095
-323.099	-200.000	-0.028	0.202
-322.085	800.000	-0.077	0.219
-321.070	338.714	0.074	0.142
-320.056	436.328	0.084	0.183
-319.041	187.611	0.034	0.051
-318.026	-16.926	-0.224	-0.141
-317.012	800.000	-0.126	-0.467
-315.997	-143.424	0.149	0.014
-314.983	-92.790	-0.363	0.101
-313.968	196.401	-0.104	0.158
-312.953	-200.000	0.021	0.417
-311.939	13.865	0.100	-0.077
-310.924	9.421	0.313	0.235
-309.910	-163.448	-0.014	-0.001
-308.895	-200.000	-0.018	0.119
-307.880	-89.460	-0.370	-0.108
-306.866	800.000	0.030	-0.094
-305.851	-161.361	-0.290	0.015
-304.837	91.743	-0.170	0.189
-303.822	-37.469	-0.296	0.157
-302.807	800.000	-0.060	0.255
-301.793	800.000	-0.085	0.305
-300.778	201.400	0.183	0.281
-299.764	800.000	0.007	0.026
-298.749	371.414	0.088	0.177
-297.735	-200.000	-0.000	0.210
-296.720	272.913	0.064	-0.113
-295.705	210.296	-0.071	-0.111
-294.691	555.257	0.043	0.104
-293.676	800.000	-0.051	-0.159
-292.662	226.859	0.080	0.128
-291.647	29.240	-0.112	0.095
-290.632	687.204	0.078	0.201
-289.618	96.689	-0.219	-0.249
-288.603	800.000	0.038	0.116
-287.589	-152.890	0.516	-0.036
-286.574	-58.756	-0.375	0.161
-285.559	-200.000	0.014	0.124
-284.545	-105.569	0.057	0.013
-283.530	-135.468	-0.068	0.008
-282.516	-200.000	0.000	0.356
-281.501	35.746	0.126	0.110
-280.486	-58.149	0.077	-0.033
-279.472	-32.039	-0.073	-0.041
-278.457	142.595	0.034	0.045
-277.443	-15.192	-0.293	-0.186
-276.428	-72.060	-0.173	-0.064
-275.413	358.450	0.054	-0.107
-274.399	-122.828	-0.141	-0.023
-273.384	27.144	0.245	-0.204
-272.370	89.964	0.239	-0.265
-271.355	121.952	-0.278	-0.344
-270.340	-200.000	0.025	0.180
-269.326	-121.650	0.133	0.022
-268.311	-200.000	-0.015	-0.274
-267.297	-72.687	0.062	0.023
-266.282	253.436	-0.114	0.192
-265.267	-200.000	0.015	-0.242
-264.253	125.259	0.153	-0.191
-263.238	19.603	-0.124	-0.099
-262.224	-107.504	0.236	-0.051
-261.209	-0.296	-0.217	-0.153
-260.195	-200.000	-0.001	-0.486
-259.180	-112.916	0.349	0.069
-258.165	444.522	0.070	0.152
-257.151	505.191	0.139	0.318
-256.136	-138.144	-0.035	-0.004
-255.122	-23.592	0.292	-0.174
-254.107	65.554	0.148	0.148
-253.092	129.979	-0.153	0.194
-252.078	43.468	-0.080	-0.072
-251.063	-141.126	-0.055	-0.006
-250.049	-21.952	0.128	-0.077
-249.034	67.517	0.210	0.213
-248.019	800.000	-0.096	-0.350
-247.005	-33.760	0.275	-0.150
-245.990	162.983	0.008	-0.011
-244.976	800.000	0.053	-0.149
-243.961	549.418	-0.165	-0.393
-242.946	-26.457	0.295	0.171
-241.932	-185.661	-0.148	0.002
-240.917	27.954	-0.143	-0.119
-239.903	-42.927	-0.411	-0.207
-238.888	-200.000	-0.067	-0.486
-237.873	-107.840	0.149	0.032
-236.859	-200.000	-0.007	0.115
-235.844	-131.015	-0.228	-0.030
-234.830	16.391	0.255	0.199
-233.815	77.335	-0.087	0.091
-232.800	224.914	0.009	-0.015
-231.786	-13.757	-0.302	0.193
-230.771	410.425	-0.104	-0.220
-229.757	-18.994	0.045	-0.028
-228.742	-81.359	0.130	-0.042
-227.727	-157.028	-0.267	0.016
-226.713	-200.000	0.112	-0.573
-225.698	-151.307	-0.012	0.001
-224.684	703.734	-0.077	-0.201
-223.669	-200.000	-0.025	-0.254
-222.655	-129.213	-0.123	-0.017
-221.640	-200.000	0.007	-0.149
-220.625	800.000	0.075	0.270
-219.611	800.000	-0.024	0.071
-218.596	-43.814	0.201	0.100
-217.582	-11.623	0.065	-0.042
-216.567	-115.565	-0.423	0.079
-215.552	800.000	0.069	0.203
-214.538	9.918	-0.062	0.047
-213.523	-185.566	0.140	-0.002
-212.509	307.032	0.139	0.256
-211.494	97.416	0.223	-0.254
-210.479	-30.048	-0.079	-0.045
-209.465	124.841	0.277	-0.346
-208.450	356.958	0.029	0.057
-207.436	-15.116	0.395	0.251
-206.421	316.622	0.045	-0.084
-205.406	341.325	0.107	-0.207
-204.392	-1.487	0.399	0.278
-203.377	-66.148	0.412	0.162
-202.363	24.484	-0.365	-0.299
-201.348	-38.023	-0.169	0.089
-200.333	-200.000	-0.012	0.088
-199.319	-17.278	-0.075	-0.047
-198.304	196.111	0.209	0.315
-197.290	148.588	-0.044	0.059
-196.275	-138.711	0.104	0.011
-195.260	-44.857	0.044	0.021
-194.246	-15.963	-0.183	-0.116
-193.231	72.254	-0.094	0.097
-192.217	-200.000	0.031	0.287
-191.202	-200.000	0.007	-0.099
-190.187	31.984	0.314	-0.267
-189.173	160.887	-0.130	-0.180
-188.158	60.859	-0.195	-0.192
-187.144	-200.000	-0.029	-0.267
-186.129	-19.072	0.205	0.126
-185.114	181.525	-0.118	0.172
-184.100	249.997	0.072	0.121
-183.085	-98.846	0.047	-0.012
-182.071	-200.000	-0.140	-0.616
-181.056	800.000	0.096	-0.296
-180.042	-200.000	0.033	0.256
-179.027	-200.000	-0.028	-0.138
-178.012	1.156	-0.260	0.184
-176.998	496.957	0.077	0.175
-175.983	-46.919	-0.150	0.073
-174.969	-114.985	0.246	0.046
-173.954	-170.795	0.299	-0.010
-172.939	800.000	0.051	-0.187
-171.925	653.326	-0.134	-0.339
-170.910	41.566	0.140	0.125
-169.896	-99.014	0.042	-0.010
-168.881	-70.103	0.067	0.025
-167.866	800.000	0.141	-0.410
-166.852	800.000	-0.020	-0.062
-165.837	14.967	0.183	-0.141
-164.823	134.352	-0.132	-0.169
-163.808	640.037	0.053	0.134
-162.793	-200.000	-0.021	0.119
-161.779	544.649	-0.012	0.029
-160.764	-118.977	-0.238	-0.041
-159.750	-200.000	-0.091	-0.464
-158.735	567.142	-0.120	0.287
-157.720	-200.000	0.011	-0.430
-156.706	13.378	0.107	-0.082
-155.691	363.611	0.014	-0.028
-154.677	-109.008	-0.300	-0.063
-153.662	171.353	0.175	0.248
-152.647	-105.523	0.113	-0.025
-151.633	145.201	-0.208	0.274
-150.618	82.152	-0.168	0.180
-149.604	216.224	-0.172	0.270
-148.589	-100.429	0.308	0.075
-147.574	98.647	-0.047	0.054
-146.560	13.850	0.254	-0.195
-145.545	18.406	0.115	0.091
-144.531	800.000	-0.095	-0.387
-143.516	800.000	-0.014	-0.049
-142.502	659.441	-0.108	-0.275
-141.487	-79.490	0.304	-0.102
-140.472	-98.709	-0.370	-0.093
-139.458	-119.674	-0.311	0.053
-138.443	-200.000	-0.011	-0.290
-137.429	627.097	-0.037	0.092
-136.414	369.279	0.039	0.078
-135.399	43.324	0.141	-0.127
-134.385	800.000	-0.106	-0.311
-133.370	-94.853	-0.075	0.020
-132.356	-23.861	0.087	0.052
-131.341	-85.908	-0.165	-0.051
-130.326	800.000	0.007	0.026
-129.312	-103.814	0.175	0.040
-128.297	-200.000	-0.012	0.221
-127.283	-200.000	0.023	0.188
-126.268	144.123	-0.118	-0.155
-125.253	59.343	0.193	0.188
-124.239	153.042	-0.028	-0.037
-123.224	-61.699	-0.316	0.131
-122.210	-21.722	0.238	0.143
-121.195	389.359	-0.098	0.201
-120.180	-10.810	0.220	0.144
-119.166	-11.368	-0.141	-0.092
-118.151	-200.000	-0.083	-0.506
-117.137	-86.855	0.145	-0.044
-116.122	-89.048	0.299	0.087
-115.107	-89.912	-0.329	0.095
-114.093	-24.133	-0.206	0.121
-113.078	-10.004	-0.358	-0.235
-112.064	-200.000	-0.027	0.218
-111.049	100.919	0.299	-0.343
-110.034	-2.142	-0.313	0.217
-109.020	-78.043	-0.106	0.036
-108.005	-88.357	0.260	-0.077
-106.991	800.000	-0.038	-0.151
-105.976	-55.292	0.233	0.103
-104.962	-181.061	-0.313	0.006
-103.947	13.553	0.040	0.030
-102.932	153.636	0.329	-0.444
-101.918	347.344	0.143	-0.278
-100.903	-101.063	-0.091	-0.022
-99.889	141.582	-0.039	-0.051
-98.874	127.601	0.217	-0.272
-97.859	-50.934	0.303	0.140
-96.845	118.218	-0.037	-0.045
-95.830	225.675	-0.101	0.161
-94.816	8.680	0.061	0.045
-93.801	95.935	0.109	0.122
-92.786	260.099	-0.123	0.209
-91.772	445.034	0.111	-0.240
-90.757	127.596	-0.199	-0.250
-89.743	18.869	0.081	-0.064
-88.728	-36.903	-0.173	-0.092
-87.713	16.488	0.159	0.123
-86.699	-92.417	0.374	0.104
-85.684	800.000	-0.049	0.151
-84.670	-25.154	0.154	0.090
-83.655	166.480	0.033	-0.046
-82.640	800.000	-0.061	-0.251
-81.626	180.750	0.055	-0.080
-80.611	-200.000	-0.012	0.179
-79.597	-200.000	0.013	-0.068
-78.582	60.222	0.101	-0.098
-77.567	-120.273	-0.242	-0.041
-76.553	-200.000	0.066	-0.374
-75.538	2.870	0.383	-0.274
-74.524	-68.380	-0.371	-0.142
-73.509	800.000	-0.094	0.318
-72.494	-138.790	0.246	-0.026
-71.480	800.000	-0.062	0.216
-70.465	-200.000	-0.017	-0.309
-69.451	-48.542	-0.274	-0.130
-68.436	27.718	0.089	-0.074
-67.422	-115.222	0.212	0.039
-66.407	800.000	-0.090	0.353
-65.392	183.467	0.100	0.145
-64.378	-58.761	-0.196	-0.084
-63.363	50.166	-0.121	0.113
-62.349	800.000	0.051	-0.215
-61.334	136.465	-0.623	-0.801
-60.319	238.190	0.321	0.524
-59.305	800.000	-0.267	-0.941
-58.290	128.845	0.650	0.816
-57.276	800.000	0.523	1.538
-56.261	-200.000	96.432	578.213
-55.246	554.504	1378.912	3264.863
-54.232	160.225	2553.345	3503.722
-53.217	112.579	2141.611	2551.049
-52.203	44.587	1604.837	1451.566
-51.188	36.610	1342.806	1166.642
-50.173	33.282	1301.537	1111.235
-49.159	55.372	1348.294	1283.532
-48.144	57.437	1365.378	1312.062
-47.130	36.603	1323.691	1149.809
-46.115	33.253	1305.774	1114.506
-45.100	32.969	1301.539	1109.178
-44.086	32.956	1299.006	1106.903
-43.071	32.721	1297.249	1103.985
-42.057	32.831	1294.686	1102.399
-41.042	32.846	1293.056	1101.060
-40.027	32.925	1291.633	1100.261
-39.013	32.902	1290.092	1098.771
-37.998	32.954	1287.758	1097.044
-36.984	32.998	1286.155	1095.889
-35.969	33.044	1284.824	1094.979
-34.954	33.101	1282.468	1093.257
-33.940	33.127	1281.491	1092.533
-32.925	33.084	1280.184	1091.126
-31.911	33.102	1278.425	1089.688
-30.896	33.065	1277.232	1088.416
-29.881	33.122	1275.803	1087.480
-28.867	33.050	1274.393	1085.821
-27.852	33.071	1273.213	1084.896
-26.838	33.124	1271.176	1083.417
-25.823	33.016	1270.565	1082.238
-24.809	33.175	1268.348	1081.214
-23.794	33.022	1267.636	1079.690
-22.779	32.917	1266.598	1078.162
-21.765	33.115	1264.582	1077.532
-20.750	33.027	1263.765	1076.290
-19.736	33.049	1262.526	1075.323
-18.721	32.963	1261.975	1074.317
-17.706	32.960	1259.878	1072.476
-16.692	32.989	1259.228	1072.045
-15.677	32.905	1258.423	1070.837
-14.663	32.939	1257.283	1070.021
-13.648	32.951	1255.741	1068.735
-12.633	32.806	1255.190	1067.399
-11.619	33.008	1254.006	1067.491
-10.604	32.861	1253.241	1065.971
-9.590	32.883	1252.434	1065.362
-8.575	32.899	1251.611	1064.714
-7.560	32.874	1250.500	1063.586
-6.546	32.846	1250.155	1063.089
-5.531	32.748	1249.481	1061.925
-4.517	32.895	1248.130	1061.559
-3.502	32.943	1247.130	1060.938
-2.487	32.934	1246.030	1059.906
-1.473	32.790	1242.236	1055.835
-0.458	31.541	1227.907	1036.696
0.556	28.628	1210.501	1000.082
1.571	25.037	1216.932	985.593
2.586	24.524	1231.919	994.788
3.600	24.020	1221.911	983.835
4.615	17.730	1148.535	891.876
5.629	7.089	1071.103	779.512
6.644	2.459	1049.714	741.490
7.659	2.059	1047.530	737.948
8.673	1.976	1046.064	736.452
9.688	1.797	1045.238	734.938
10.702	2.442	1043.494	736.754
11.717	9.133	1052.883	775.728
12.731	19.212	1067.474	835.541
13.746	24.233	1073.618	864.701
14.761	25.225	1074.250	869.946
15.775	25.152	1074.611	869.809
16.790	24.920	1073.460	867.675
17.804	24.847	1072.805	866.717
18.819	25.038	1072.621	867.415
19.834	25.148	1071.895	867.284
20.848	25.224	1071.626	867.357
21.863	25.123	1070.996	866.279
22.877	25.101	1070.401	865.619
23.892	25.015	1069.613	864.487
24.907	25.180	1068.937	864.660
25.921	25.120	1067.753	863.338
26.936	25.175	1066.248	862.309
27.950	25.130	1064.865	860.896
28.965	24.997	1062.884	858.583
29.980	25.014	1061.985	857.861
30.994	25.194	1060.815	857.700
32.009	25.260	1059.625	856.981
33.023	24.956	1058.759	854.752
34.038	25.111	1057.889	854.711
35.053	25.187	1057.133	854.391
36.067	25.138	1056.027	853.187
37.082	25.181	1055.688	853.042
38.096	25.449	1055.626	854.188
39.111	25.450	1054.566	853.261
40.126	25.362	1052.968	851.476
41.140	24.978	1051.310	848.244
42.155	24.649	1050.317	845.808
43.169	24.751	1049.543	845.594
44.184	24.875	1048.032	844.888
45.199	24.731	1047.222	843.479
46.213	24.768	1046.738	843.190
47.228	24.957	1046.041	843.446
48.242	25.040	1044.826	842.780
49.257	25.215	1044.123	842.959
50.271	25.202	1043.403	842.244
51.286	25.119	1042.866	841.344
52.301	25.284	1041.869	841.241
53.315	25.115	1040.941	839.625
54.330	25.110	1040.146	838.888
55.344	25.191	1039.251	838.468
56.359	25.126	1038.518	837.501
57.374	24.951	1037.478	835.769
58.388	25.080	1036.147	835.226
59.403	24.890	1035.883	834.054
60.417	24.882	1034.468	832.801
61.432	25.035	1034.043	833.100
62.447	24.900	1034.175	832.505
63.461	24.925	1032.973	831.581
64.476	24.807	1032.066	830.230
65.490	24.737	1031.023	828.992
66.505	24.873	1030.073	828.784
67.520	24.839	1029.718	828.265
68.534	24.672	1028.526	826.461
69.549	24.470	1026.982	824.215
70.563	24.355	1026.755	823.432
71.578	24.327	1026.257	822.828
72.593	24.261	1024.693	821.198
73.607	24.362	1024.395	821.350
74.622	24.706	1024.053	822.589
75.636	24.701	1023.149	821.764
76.651	24.471	1022.723	820.294
77.666	24.464	1021.502	819.209
78.680	24.545	1021.048	819.147
79.695	24.696	1020.240	819.115
80.709	24.719	1019.619	818.651
81.724	24.780	1018.933	818.309
82.739	24.906	1017.738	817.851
83.753	25.259	1017.453	819.162
84.768	25.397	1017.191	819.506
85.782	25.560	1015.890	819.129
86.797	25.392	1014.756	817.378
87.812	25.132	1014.550	815.957
88.826	25.289	1013.054	815.393
89.841	25.521	1012.217	815.700
90.855	25.534	1011.281	814.932
91.870	25.413	1010.593	813.760
92.884	25.215	1009.337	811.781
93.899	25.313	1008.240	811.267
94.914	25.339	1008.015	811.135
95.928	25.076	1007.053	809.102
96.943	25.121	1005.010	807.592
97.957	24.921	1003.954	805.771
98.972	24.589	1003.256	803.644
99.987	24.899	1002.452	804.325
101.001	25.195	1001.553	804.861
102.016	25.078	1001.022	803.837
103.030	25.011	999.844	802.520
104.045	24.938	998.603	801.127
105.060	24.837	997.723	799.899
106.074	24.912	997.824	800.243
107.089	25.268	996.844	800.973
108.103	25.179	995.810	799.677
109.118	24.868	994.593	797.243
110.133	24.766	993.768	796.056
111.147	24.589	992.308	794.034
112.162	24.529	991.286	792.878
113.176	24.802	991.064	793.839
114.191	24.775	989.982	792.783
115.206	24.497	988.785	790.527
116.220	24.533	988.200	790.146
117.235	24.551	987.354	789.478
118.249	24.645	986.932	789.487
119.264	24.467	985.702	787.650
120.279	24.481	985.518	787.493
121.293	24.610	984.563	787.230
122.308	24.666	983.454	786.517
123.322	24.566	982.378	785.149
124.337	24.431	981.180	783.529
125.352	23.998	979.447	780.177
126.366	23.920	978.394	778.930
127.381	24.651	978.429	782.088
128.395	24.991	978.154	783.287
129.410	25.218	977.115	783.376
130.424	25.168	976.120	782.292
131.439	24.927	975.567	780.728
132.454	25.099	974.470	780.529
133.468	25.049	973.500	779.467
134.483	25.372	973.065	780.452
135.497	25.329	972.469	779.720
136.512	25.437	971.460	779.311
137.527	25.417	970.848	778.664
138.541	25.361	969.960	777.641
139.556	25.346	969.197	776.896
140.570	25.362	968.631	776.441
141.585	25.468	967.106	775.609
142.600	25.392	966.706	774.891
143.614	25.559	966.045	775.013
144.629	25.654	965.191	774.667
145.643	25.482	964.180	773.049
146.658	25.330	962.936	771.329
147.673	25.367	961.458	770.235
148.687	25.082	960.862	768.470
149.702	25.078	959.660	767.423
150.716	25.180	958.662	766.993
151.731	25.245	958.260	766.881
152.746	25.434	957.600	767.092
153.760	25.371	957.604	766.759
154.775	25.436	957.092	766.556
155.789	25.462	955.852	765.607
156.804	25.359	955.101	764.500
157.819	25.632	954.069	764.765
158.833	25.652	953.630	764.433
159.848	25.646	952.387	763.344
160.862	25.493	951.437	761.865
161.877	25.569	949.912	760.898
162.892	25.602	949.430	760.583
163.906	25.496	948.233	759.112
164.921	25.471	947.153	758.073
165.935	25.333	947.042	757.334
166.950	25.521	945.797	757.064
167.964	25.523	945.217	756.543
168.979	25.309	943.986	754.589
169.994	25.237	942.999	753.433
171.008	25.547	942.312	754.117
172.023	25.571	941.654	753.625
173.037	25.450	940.671	752.264
174.052	25.195	939.562	750.246
175.067	25.394	938.814	750.413
176.081	25.454	938.181	750.088
177.096	25.320	937.519	748.935
178.110	24.960	936.673	746.692
179.125	24.864	935.941	745.642
180.140	24.991	935.643	745.868
181.154	25.002	935.281	745.560
182.169	25.331	935.546	747.074
183.183	25.476	934.837	747.047
184.198	25.413	933.813	745.898
185.213	25.388	932.948	745.040
186.227	25.422	932.788	744.986
187.242	25.562	932.038	744.899
188.256	25.551	931.143	744.075
189.271	25.618	930.466	743.746
190.286	25.252	929.473	741.372
191.300	24.723	927.620	737.647
192.315	23.806	926.254	732.720
193.329	23.833	925.888	732.472
194.344	24.881	926.313	737.063
195.359	25.316	926.378	738.839
196.373	25.356	925.771	738.457
197.388	25.343	924.959	737.688
198.402	25.475	924.106	737.484
199.417	25.439	923.531	736.812
200.432	25.166	922.722	734.985
201.446	24.989	922.211	733.787
202.461	25.086	921.651	733.675
203.475	24.243	919.613	728.541
204.490	23.483	918.226	724.278
205.504	24.430	918.575	728.355
206.519	25.018	918.796	730.867
207.534	25.065	918.525	730.774
208.548	25.501	918.408	732.398
209.563	25.127	917.489	730.074
210.577	25.243	916.617	729.789
211.592	25.725	916.117	731.285
212.607	25.549	915.500	730.015
213.621	25.607	914.485	729.376
214.636	25.552	914.132	728.805
215.650	25.570	913.230	728.094
216.665	25.739	912.619	728.226
217.680	25.611	911.994	727.145
218.694	25.190	910.717	724.364
219.709	25.005	910.570	723.435
220.723	25.326	910.152	724.336
221.738	25.400	909.363	723.939
222.753	25.401	908.770	723.410
223.767	25.433	908.735	723.448
224.782	25.675	908.166	723.904
225.796	25.700	907.656	723.534
226.811	24.956	905.874	719.062
227.826	24.377	904.695	715.742
228.840	24.486	904.437	715.911
229.855	24.593	903.759	715.739
230.869	24.353	902.556	713.763
231.884	24.844	902.344	715.494
232.899	25.485	902.372	718.015
233.913	25.350	901.838	716.987
234.928	25.276	901.785	716.588
235.942	25.275	900.377	715.402
236.957	24.903	899.957	713.521
237.972	24.913	899.490	713.127
238.986	25.178	898.342	713.209
240.001	25.130	897.991	712.675
241.015	25.162	897.603	712.434
242.030	25.291	897.341	712.674
243.045	25.335	896.941	712.468
244.059	25.406	896.568	712.392
245.074	25.279	895.111	710.667
246.088	25.047	894.114	708.894
247.103	25.362	893.820	709.842
248.117	25.866	893.908	711.841
249.132	26.077	893.969	712.663
250.147	26.426	892.965	713.173
251.161	26.355	892.575	712.520
252.176	26.280	892.144	711.819
253.190	26.342	891.715	711.654
254.205	26.468	891.394	711.834
255.220	26.361	890.874	710.933
256.234	26.343	889.512	709.715
257.249	26.240	888.701	708.599
258.263	26.296	888.330	708.461
259.278	26.320	887.807	708.075
260.293	26.468	887.238	708.139
261.307	26.130	886.515	706.177
262.322	26.006	885.627	704.921
263.336	25.496	883.700	701.336
264.351	24.347	881.771	695.268
265.366	24.464	881.420	695.384
266.380	25.489	882.174	699.912
267.395	25.869	881.942	701.145
268.409	25.918	881.226	700.704
269.424	25.996	881.251	700.965
270.439	26.121	880.066	700.446
271.453	26.238	879.545	700.424
272.468	26.436	879.501	701.093
273.482	26.385	878.851	700.314
274.497	26.034	877.892	698.132
275.512	25.762	876.960	696.279
276.526	26.105	876.506	697.181
277.541	26.337	876.090	697.681
278.555	26.167	875.552	696.538
279.570	25.728	875.008	694.349
280.585	26.033	874.133	694.770
281.599	26.017	873.068	693.801
282.614	25.367	872.240	690.581
283.628	25.341	871.977	690.211
284.643	25.645	871.564	690.991
285.657	25.307	870.453	688.755
286.672	25.102	869.569	687.207
287.687	25.669	869.673	689.404
288.701	25.739	868.969	689.051
289.716	25.276	868.094	686.526
290.730	25.154	867.541	685.561
291.745	25.063	866.430	684.274
292.760	25.280	866.475	685.078
293.774	26.423	866.553	689.441
294.789	26.621	866.739	690.282
295.803	26.650	865.889	689.654
296.818	26.771	865.055	689.389
297.833	26.223	864.072	686.462
298.847	26.068	863.501	685.357
299.862	26.458	863.410	686.705
300.876	26.673	863.101	687.215
301.891	26.660	862.187	686.378
302.906	26.095	861.643	683.746
303.920	26.356	861.122	684.258
304.935	26.656	860.899	685.157
305.949	26.681	859.691	684.226
306.964	26.474	858.978	682.820
307.979	26.366	859.425	682.706
308.993	26.772	859.012	683.848
310.008	26.874	858.174	683.505
311.022	26.508	857.259	681.339
312.037	26.362	856.848	680.404
313.052	26.079	855.668	678.340
314.066	25.170	854.563	673.991
315.081	24.774	853.735	671.792
316.095	25.755	854.128	675.726
317.110	26.316	853.737	677.460
318.125	25.427	852.239	672.884
319.139	24.310	850.759	667.475
320.154	24.421	850.464	667.600
321.168	25.285	850.723	670.976
322.183	26.084	850.896	674.041
323.197	26.179	850.806	674.264
324.212	26.352	850.009	674.217
325.227	26.453	849.740	674.323
326.241	26.468	848.691	673.483
327.256	26.250	848.074	672.125
328.270	26.161	847.574	671.340
329.285	25.928	846.846	669.838
330.300	25.841	845.618	668.482
331.314	25.987	845.449	668.831
332.329	26.349	845.867	670.447
333.343	26.535	845.297	670.622
334.358	26.632	844.532	670.318
335.373	26.597	844.370	670.001
336.387	26.911	844.330	671.070
337.402	26.900	844.204	670.871
338.416	26.915	843.707	670.472
339.431	27.029	843.426	670.610
340.446	27.288	842.947	671.125
341.460	26.853	842.709	669.272
342.475	26.804	842.101	668.548
343.489	27.002	841.473	668.722
344.504	27.276	841.232	669.478
345.519	27.251	841.044	669.176
346.533	27.266	840.666	668.871
347.548	27.415	839.945	668.786
348.562	27.249	839.748	667.963
349.577	27.147	838.938	666.885
350.592	27.143	838.456	666.427
351.606	27.199	837.399	665.732
352.621	27.058	836.558	664.490
353.635	26.971	836.197	663.825
354.650	26.393	834.349	660.190
355.665	25.257	833.094	654.994
356.679	25.798	832.865	656.732
357.694	26.296	832.923	658.535
358.708	26.194	832.154	657.496
359.723	26.651	831.946	658.937
360.738	26.805	831.613	659.175
361.752	26.976	831.041	659.282
362.767	27.277	831.077	660.347
363.781	27.639	830.402	661.066
364.796	27.711	829.737	660.739
365.810	27.772	829.192	660.467
366.825	27.634	829.320	660.012
367.840	27.341	828.367	658.135
368.854	26.983	827.377	655.995
369.869	27.016	826.772	655.578
370.883	27.087	826.638	655.668
371.898	26.968	825.748	654.477
372.913	27.131	825.560	654.856
373.927	27.418	824.658	655.116
374.942	27.394	824.781	655.070
375.956	27.319	824.612	654.608
376.971	27.646	824.216	655.412
377.986	27.673	823.665	655.012
379.000	27.588	823.185	654.267
380.015	27.439	822.292	652.965
381.029	27.594	822.221	653.406
382.044	27.648	821.750	653.166
383.059	27.660	821.073	652.615
384.073	27.839	820.465	652.715
385.088	27.483	819.849	650.895
386.102	27.433	818.986	649.975
387.117	27.378	818.350	649.215
388.132	27.013	817.199	646.943
389.146	26.528	816.149	644.329
390.161	26.966	816.115	645.805
391.175	27.268	816.453	647.090
392.190	26.909	815.281	644.827
393.205	25.581	813.206	638.419
394.219	24.220	811.030	631.831
395.234	24.172	810.953	631.547
396.248	25.699	812.602	638.194
397.263	27.264	813.210	644.163
398.278	27.033	812.818	642.976
399.292	26.892	812.529	642.192
400.307	26.889	811.911	641.636
401.321	27.153	811.624	642.284
402.336	27.301	811.689	642.802
403.350	27.860	811.468	644.546
404.365	28.091	811.411	645.260
405.380	28.304	810.774	645.444
406.394	28.478	810.154	645.506
407.409	28.275	810.102	644.694
408.423	28.224	809.286	643.807
409.438	28.358	809.331	644.259
410.453	28.453	808.766	644.086
411.467	28.234	808.151	642.768
412.482	28.170	807.882	642.275
413.496	28.411	807.311	642.609
414.511	28.287	807.195	642.027
415.526	28.270	806.572	641.413
416.540	28.229	805.647	640.478
417.555	28.064	804.988	639.320
418.569	28.177	804.547	639.307
419.584	27.986	804.072	638.206
420.599	27.920	803.612	637.553
421.613	110.914	1285.280	1455.827
422.628	95.778	1355.441	1455.906
