DTS Sentinel unit serial number:	SN413079Multiplexer serial number:	ORYXHardware model number:	OX4-SRSoftware version number:	ORYX F/W v4.00 Oryx Data Collector v3.7.2.0data status	okinstallation	princeton_trtdifferential loss correction	single-endedforward channel	channel 1reverse channel	N/Adate	2019/09/11time	22:28:11forward acquisition time	60.00reverse acquisition time	0.00gamma	496.2192k internal	0.2315k external	0.2315temperature offset calibration	1.0057default loss term (dB/km)	0.3790temperature slope calibration	1.0000multiplexer offset coefficient	1.0000multiplexer slope coefficient	1.0000fibre end	0.00T internal ref (°C)	35.12T ext. ref 1 (°C)	1.79T ext. ref 2 (°C)	29.57length (m)	temperature (°C)	Stokes	anti-Stokes-747.200	-152.131	0.462	0.034
-746.185	69.882	-0.145	-0.151
-745.171	800.000	0.107	-0.353
-744.156	148.834	-0.043	-0.060
-743.142	-86.148	-0.297	-0.093
-742.127	-56.529	0.366	0.164
-741.112	618.090	-0.031	-0.078
-740.098	21.228	0.074	0.061
-739.083	21.615	-0.176	0.145
-738.069	-169.670	0.215	-0.008
-737.054	-20.978	0.282	0.175
-736.039	147.529	0.082	-0.112
-735.025	-108.799	0.135	-0.029
-734.010	646.951	0.112	-0.289
-732.996	-153.708	0.029	-0.002
-731.981	157.494	-0.117	-0.164
-730.966	-172.153	-0.486	-0.016
-729.952	182.013	0.160	0.239
-728.937	2.123	-0.222	0.162
-727.923	-43.332	0.196	0.100
-726.908	-71.494	-0.164	0.062
-725.894	73.136	0.133	-0.141
-724.879	-200.000	-0.021	-0.161
-723.864	-49.354	-0.255	-0.123
-722.850	2.692	-0.119	0.087
-721.835	-125.469	-0.258	-0.040
-720.821	800.000	0.073	-0.290
-719.806	100.628	-0.141	0.165
-718.791	-47.137	0.117	-0.058
-717.777	-200.000	-0.042	-0.244
-716.762	-71.133	0.200	-0.076
-715.748	141.320	-0.178	0.239
-714.733	75.455	-0.176	-0.188
-713.718	-200.000	0.001	-0.032
-712.704	-169.725	-0.276	0.010
-711.689	10.467	0.101	0.078
-710.675	-42.298	0.180	0.093
-709.660	10.912	-0.229	0.177
-708.645	-110.444	-0.157	-0.033
-707.631	527.613	0.055	0.130
-706.616	-142.843	-0.312	-0.031
-705.602	20.321	0.042	-0.034
-704.587	172.875	-0.025	0.037
-703.572	-46.159	-0.208	0.104
-702.558	-200.000	0.012	0.325
-701.543	-110.833	-0.117	0.024
-700.529	-200.000	-0.007	-0.101
-699.514	5.240	0.332	0.247
-698.499	-28.021	0.167	-0.098
-697.485	62.579	0.105	-0.106
-696.470	-105.745	0.260	0.059
-695.456	-200.000	0.011	-0.411
-694.441	304.442	-0.070	0.132
-693.426	-13.146	-0.287	-0.189
-692.412	800.000	-0.027	-0.105
-691.397	242.063	-0.163	-0.276
-690.383	800.000	-0.066	-0.216
-689.368	23.076	0.082	0.068
-688.354	-200.000	-0.020	-0.388
-687.339	-93.885	0.343	0.096
-686.324	1.901	0.122	0.089
-685.310	-200.000	0.026	-0.154
-684.295	-78.775	0.328	-0.113
-683.281	-118.900	0.438	0.078
-682.266	85.643	0.094	0.105
-681.251	-154.447	0.116	0.008
-680.237	800.000	-0.102	-0.365
-679.222	515.219	-0.105	0.249
-678.208	798.581	-0.072	0.200
-677.193	-140.709	0.283	-0.030
-676.178	148.346	0.192	-0.262
-675.164	800.000	-0.121	-0.348
-674.149	125.505	0.292	-0.373
-673.135	138.576	0.123	-0.163
-672.120	358.843	0.113	-0.229
-671.105	-167.164	0.336	0.014
-670.091	-36.515	0.241	0.131
-669.076	-58.031	0.183	0.081
-668.062	800.000	-0.056	0.198
-667.047	-4.366	0.057	0.040
-666.032	80.635	-0.054	-0.058
-665.018	-46.976	0.144	0.071
-664.003	800.000	-0.065	0.242
-662.989	350.161	-0.080	0.161
-661.974	-83.056	0.317	0.103
-660.959	-200.000	-0.032	0.334
-659.945	800.000	-0.064	0.190
-658.930	759.500	-0.086	0.234
-657.916	189.480	-0.077	-0.116
-656.901	-63.272	0.061	-0.025
-655.886	-81.050	0.253	-0.085
-654.872	24.449	-0.027	-0.022
-653.857	42.681	-0.280	-0.258
-652.843	577.714	0.093	0.229
-651.828	35.518	-0.086	-0.076
-650.814	-32.460	0.271	0.153
-649.799	1.132	0.016	-0.012
-648.784	0.778	0.130	-0.094
-647.770	-4.778	-0.042	-0.029
-646.755	65.354	-0.278	0.284
-645.741	28.728	0.161	-0.138
-644.726	-102.783	0.045	-0.011
-643.711	-66.734	-0.346	-0.138
-642.697	318.113	0.116	-0.222
-641.682	-200.000	-0.037	-0.259
-640.668	383.158	-0.047	0.098
-639.653	800.000	0.093	-0.266
-638.638	33.059	-0.261	0.228
-637.624	-161.647	-0.104	0.005
-636.609	-57.869	-0.240	0.106
-635.595	800.000	0.062	0.241
-634.580	-149.331	0.033	0.003
-633.565	-108.061	-0.261	0.057
-632.551	-114.405	0.149	-0.029
-631.536	-61.433	0.357	-0.151
-630.522	-141.177	0.284	0.029
-629.507	-57.595	0.216	-0.096
-628.492	-121.546	-0.365	0.061
-627.478	800.000	-0.061	0.216
-626.463	-200.000	0.018	-0.138
-625.449	-135.459	0.154	-0.019
-624.434	-107.314	-0.223	0.049
-623.419	131.472	-0.145	-0.188
-622.405	435.293	0.081	-0.177
-621.390	114.259	0.115	-0.141
-620.376	-151.393	-0.138	0.010
-619.361	752.128	-0.112	-0.305
-618.346	-97.300	0.138	-0.036
-617.332	0.632	0.480	0.346
-616.317	-200.000	0.019	-0.218
-615.303	111.257	0.131	-0.159
-614.288	-200.000	0.051	-0.385
-613.273	-200.000	0.024	0.220
-612.259	76.968	-0.235	0.251
-611.244	194.680	0.171	-0.262
-610.230	65.066	0.245	-0.249
-609.215	9.495	0.053	-0.040
-608.201	-200.000	0.021	-0.207
-607.186	-200.000	-0.006	0.203
-606.171	-200.000	0.038	0.293
-605.157	74.720	-0.064	-0.068
-604.142	-124.921	-0.091	0.014
-603.128	-200.000	0.011	0.102
-602.113	48.543	-0.037	0.035
-601.098	-168.602	0.359	-0.014
-600.084	193.545	-0.188	0.287
-599.069	-200.000	-0.035	0.165
-598.055	39.960	-0.034	0.031
-597.040	-200.000	-0.028	-0.363
-596.025	281.218	-0.154	-0.278
-595.011	800.000	-0.036	-0.154
-593.996	-10.011	-0.247	-0.166
-592.982	793.044	-0.070	0.194
-591.967	-134.856	-0.086	-0.011
-590.952	-142.887	-0.088	0.009
-589.938	82.872	0.250	-0.274
-588.923	-71.311	-0.079	0.030
-587.909	-75.470	-0.085	-0.031
-586.894	-83.657	-0.275	-0.088
-585.879	-200.000	-0.038	-0.334
-584.865	-49.678	-0.075	-0.036
-583.850	126.251	0.056	-0.071
-582.836	-67.034	0.212	-0.084
-581.821	-33.236	0.223	0.124
-580.806	-70.098	-0.210	-0.081
-579.792	64.842	0.062	-0.063
-578.777	459.448	-0.030	0.067
-577.763	745.153	0.129	-0.350
-576.748	30.942	-0.163	0.141
-575.733	800.000	-0.048	-0.171
-574.719	-200.000	-0.005	-0.158
-573.704	-200.000	-0.079	-0.392
-572.690	-93.331	0.263	-0.073
-571.675	-72.668	-0.291	-0.108
-570.661	-24.318	0.188	-0.113
-569.646	800.000	-0.022	-0.074
-568.631	800.000	-0.108	0.335
-567.617	71.958	-0.019	0.020
-566.602	-200.000	0.055	-0.313
-565.588	-200.000	0.010	-0.092
-564.573	109.937	-0.134	0.162
-563.558	238.778	0.097	0.163
-562.544	-19.785	0.174	0.108
-561.529	197.528	0.225	0.346
-560.515	-16.065	-0.109	0.069
-559.500	436.964	-0.044	-0.096
-558.485	154.991	0.044	-0.061
-557.471	-170.596	-0.217	-0.008
-556.456	481.218	0.082	0.187
-555.442	800.000	0.035	0.149
-554.427	-200.000	0.004	-0.136
-553.412	-200.000	0.002	0.361
-552.398	800.000	0.104	0.340
-551.383	-200.000	-0.095	0.462
-550.369	75.407	-0.160	-0.169
-549.354	-28.556	-0.247	-0.143
-548.339	63.771	0.152	0.154
-547.325	48.996	-0.384	-0.362
-546.310	-163.981	-0.535	-0.025
-545.296	578.276	-0.056	0.138
-544.281	439.529	-0.082	-0.180
-543.266	-127.491	-0.094	-0.014
-542.252	214.858	0.295	0.470
-541.237	-161.628	0.271	0.014
-540.223	-200.000	-0.020	-0.116
-539.208	-103.211	-0.162	-0.039
-538.193	88.172	0.102	0.114
-537.179	-200.000	0.088	0.447
-536.164	69.495	0.103	-0.107
-535.150	725.453	0.064	0.173
-534.135	-7.246	0.079	-0.054
-533.121	-200.000	0.072	-0.566
-532.106	-116.494	0.127	-0.024
-531.091	103.066	-0.131	-0.154
-530.077	-118.845	0.031	-0.005
-529.062	-90.227	0.151	0.044
-528.048	-200.000	0.011	0.104
-527.033	-14.296	0.319	-0.206
-526.018	491.781	0.177	-0.409
-525.004	-66.816	0.425	-0.169
-523.989	130.594	-0.022	0.028
-522.975	-197.467	0.193	-0.001
-521.960	-48.415	-0.071	0.034
-520.945	-52.409	-0.147	-0.068
-519.931	168.059	0.073	-0.105
-518.916	465.665	0.105	-0.237
-517.902	-126.513	-0.292	0.044
-516.887	800.000	-0.039	0.160
-515.872	4.647	0.126	-0.093
-514.858	-155.344	0.185	-0.012
-513.843	-49.318	0.181	0.087
-512.829	75.997	0.103	0.110
-511.814	-112.442	-0.392	-0.079
-510.799	-21.549	0.069	-0.042
-509.785	-200.000	0.025	-0.427
-508.770	800.000	0.041	0.175
-507.756	145.236	-0.236	-0.317
-506.741	-120.461	0.203	-0.035
-505.726	23.155	0.293	0.242
-504.712	800.000	-0.067	0.218
-503.697	-200.000	-0.003	-0.224
-502.683	-3.187	0.157	-0.110
-501.668	-73.505	0.296	-0.109
-500.653	-200.000	0.003	0.057
-499.639	-174.797	0.368	0.010
-498.624	-135.079	0.274	-0.033
-497.610	-111.295	-0.184	0.038
-496.595	-100.626	-0.175	-0.043
-495.581	-86.306	0.211	-0.065
-494.566	164.068	-0.168	-0.237
-493.551	143.224	-0.109	-0.145
-492.537	-59.946	-0.356	0.153
-491.522	-200.000	0.028	-0.150
-490.508	-93.239	-0.076	-0.021
-489.493	35.442	0.019	0.017
-488.478	242.158	-0.102	-0.172
-487.464	72.393	-0.209	0.218
-486.449	248.507	0.071	-0.120
-485.435	-200.000	-0.000	0.170
-484.420	169.867	0.038	0.055
-483.405	-88.921	0.172	0.051
-482.391	-107.237	-0.151	-0.033
-481.376	167.416	-0.162	-0.231
-480.362	-200.000	-0.026	0.375
-479.347	-96.986	-0.283	0.075
-478.332	-21.248	-0.320	-0.196
-477.318	-119.219	0.314	-0.055
-476.303	-200.000	-0.038	0.174
-475.289	385.155	-0.088	-0.183
-474.274	800.000	-0.116	0.343
-473.259	73.722	-0.060	0.063
-472.245	-200.000	-0.005	0.330
-471.230	46.761	-0.257	0.239
-470.216	-200.000	0.006	0.083
-469.201	252.270	-0.152	-0.260
-468.186	-200.000	-0.000	-0.207
-467.172	-73.510	-0.051	-0.019
-466.157	-63.613	0.241	0.099
-465.143	-146.403	-0.251	0.022
-464.128	-200.000	0.068	0.341
-463.113	800.000	0.040	0.113
-462.099	686.059	0.115	-0.300
-461.084	-137.576	-0.174	0.020
-460.070	50.529	0.156	0.148
-459.055	-133.771	0.272	-0.034
-458.040	-59.915	-0.126	0.054
-457.026	-200.000	-0.033	-0.171
-456.011	800.000	0.050	-0.161
-454.997	218.348	0.142	-0.227
-453.982	800.000	0.011	-0.039
-452.968	-200.000	0.021	-0.218
-451.953	-200.000	-0.056	-0.290
-450.938	-155.786	-0.095	-0.006
-449.924	-16.715	-0.294	-0.187
-448.909	-112.561	0.316	0.063
-447.895	569.636	0.039	-0.094
-446.880	-200.000	-0.023	0.112
-445.865	-3.428	0.090	0.063
-444.851	-149.681	-0.457	0.036
-443.836	-133.484	-0.060	-0.008
-442.822	-37.863	0.130	-0.069
-441.807	-200.000	-0.004	-0.126
-440.792	-200.000	-0.014	-0.218
-439.778	577.985	-0.078	0.192
-438.763	-103.982	0.043	-0.010
-437.749	-123.452	-0.060	0.010
-436.734	-173.882	-0.235	-0.007
-435.719	800.000	-0.047	-0.168
-434.705	-7.494	0.102	0.069
-433.690	-147.527	0.077	0.007
-432.676	-88.691	-0.152	-0.045
-431.661	62.670	0.258	-0.258
-430.646	10.311	-0.067	-0.051
-429.632	132.656	-0.172	-0.222
-428.617	45.461	0.102	0.094
-427.603	62.488	-0.167	0.167
-426.588	-158.968	0.311	0.018
-425.573	16.647	0.233	0.184
-424.559	800.000	-0.101	0.279
-423.544	215.690	0.119	0.189
-422.530	-44.914	0.281	0.140
-421.515	-120.290	-0.056	-0.010
-420.500	-187.694	-0.126	0.002
-419.486	-131.525	0.200	-0.026
-418.471	13.504	0.258	0.200
-417.457	337.219	-0.057	-0.112
-416.442	-200.000	-0.009	-0.048
-415.428	418.062	-0.081	0.173
-414.413	-46.920	-0.276	-0.135
-413.398	-200.000	-0.012	-0.104
-412.384	-136.015	0.115	0.014
-411.369	4.478	-0.204	-0.150
-410.355	-142.118	0.400	0.040
-409.340	800.000	-0.019	0.080
-408.325	-200.000	-0.003	-0.128
-407.311	733.496	0.131	-0.352
-406.296	-200.000	0.037	0.290
-405.282	-17.256	0.093	-0.058
-404.267	12.182	-0.170	-0.131
-403.252	-90.872	-0.382	0.110
-402.238	-62.989	-0.299	-0.123
-401.223	-200.000	-0.001	0.288
-400.209	-76.777	-0.403	0.141
-399.194	60.705	-0.262	-0.259
-398.179	161.647	0.046	0.064
-397.165	272.856	0.051	0.090
-396.150	800.000	0.047	-0.156
-395.136	181.199	0.032	0.047
-394.121	202.253	-0.191	0.294
-393.106	-82.487	0.016	-0.005
-392.092	-174.210	-0.198	-0.006
-391.077	381.994	-0.104	-0.213
-390.063	-136.766	-0.068	-0.008
-389.048	130.045	0.088	-0.112
-388.033	-56.322	0.192	-0.085
-387.019	44.620	0.099	-0.091
-386.004	-106.066	0.057	-0.013
-384.990	5.140	-0.201	0.148
-383.975	-132.783	-0.179	0.023
-382.960	56.920	0.172	0.167
-381.946	119.313	0.203	0.251
-380.931	17.775	-0.344	0.274
-379.917	-123.157	-0.188	0.030
-378.902	499.308	0.094	0.216
-377.888	63.551	0.199	0.199
-376.873	-75.564	0.196	-0.070
-375.858	165.650	0.171	-0.241
-374.844	136.633	0.101	0.131
-373.829	-20.358	0.068	0.042
-372.815	-36.621	-0.128	0.069
-371.800	-120.871	-0.346	-0.058
-370.785	391.943	-0.107	0.222
-369.771	-127.206	-0.031	0.004
-368.756	60.079	0.155	0.153
-367.742	-91.553	0.178	0.051
-366.727	-200.000	0.013	-0.539
-365.712	800.000	-0.042	-0.183
-364.698	29.058	0.200	0.170
-363.683	86.210	-0.148	0.163
-362.669	154.606	-0.201	0.276
-361.654	-200.000	-0.022	-0.469
-360.639	255.180	-0.043	-0.073
-359.625	99.139	-0.074	-0.085
-358.610	3.620	-0.218	0.159
-357.596	-126.914	0.218	-0.032
-356.581	151.903	0.161	0.219
-355.566	-41.697	0.252	0.129
-354.552	-200.000	-0.005	0.197
-353.537	-36.103	-0.208	-0.112
-352.523	-42.637	-0.179	-0.091
-351.508	-200.000	-0.072	0.334
-350.493	-75.299	0.241	-0.086
-349.479	-145.016	-0.069	0.006
-348.464	147.306	0.172	-0.231
-347.450	207.746	0.124	-0.194
-346.435	-35.898	0.201	0.109
-345.420	132.556	0.105	0.136
-344.406	-16.837	-0.153	0.097
-343.391	800.000	0.081	0.296
-342.377	800.000	-0.151	0.654
-341.362	-20.532	0.157	0.096
-340.348	156.998	0.053	-0.073
-339.333	-42.925	0.243	-0.123
-338.318	-19.083	0.294	-0.182
-337.304	193.317	-0.143	-0.216
-336.289	800.000	-0.063	0.218
-335.275	800.000	0.045	-0.146
-334.260	28.402	0.311	0.262
-333.245	-101.164	-0.058	-0.014
-332.231	-90.211	0.320	0.093
-331.216	-125.394	0.070	-0.011
-330.202	800.000	-0.097	-0.319
-329.187	-8.743	-0.263	-0.176
-328.172	800.000	-0.060	0.203
-327.158	-94.832	-0.358	0.097
-326.143	-183.221	0.356	-0.006
-325.129	-177.992	0.174	-0.004
-324.114	32.502	-0.293	-0.253
-323.099	-50.252	0.258	0.122
-322.085	-111.463	-0.055	0.011
-321.070	-170.701	-0.219	-0.008
-320.056	235.374	-0.163	0.268
-319.041	-132.138	0.210	0.027
-318.026	-50.226	-0.093	-0.044
-317.012	-200.000	0.014	0.422
-315.997	-112.253	-0.132	0.026
-314.983	2.563	-0.078	-0.056
-313.968	20.163	0.308	-0.248
-312.953	-39.510	-0.213	0.111
-311.939	-200.000	0.014	-0.161
-310.924	97.415	-0.085	0.097
-309.910	-20.290	0.140	-0.086
-308.895	-42.340	0.105	-0.054
-307.880	69.592	-0.046	0.047
-306.866	675.885	-0.101	0.262
-305.851	-200.000	0.050	-0.322
-304.837	539.815	-0.073	-0.174
-303.822	-9.668	0.394	0.262
-302.807	689.830	-0.040	-0.104
-301.793	-12.014	0.117	0.076
-300.778	83.808	0.141	0.153
-299.764	133.577	0.236	-0.304
-298.749	800.000	-0.043	-0.152
-297.735	29.167	0.292	0.247
-296.720	210.952	-0.138	0.216
-295.705	-123.616	-0.079	0.012
-294.691	-200.000	-0.001	0.060
-293.676	-21.258	-0.115	0.070
-292.662	5.780	-0.368	0.271
-291.647	-200.000	0.039	-0.269
-290.632	800.000	-0.047	-0.134
-289.618	255.987	0.280	0.478
-288.603	124.595	-0.020	0.025
-287.589	-84.638	-0.049	-0.015
-286.574	800.000	-0.053	0.150
-285.559	-58.877	0.180	0.077
-284.545	800.000	0.069	-0.256
-283.530	-139.963	-0.291	0.031
-282.516	-200.000	0.022	0.252
-281.501	592.786	-0.085	0.209
-280.486	94.412	0.152	0.172
-279.472	-200.000	-0.003	-0.026
-278.457	-25.135	0.122	-0.072
-277.443	-200.000	-0.053	-0.304
-276.428	-70.209	-0.068	0.026
-275.413	-200.000	-0.014	-0.092
-274.399	133.856	-0.093	0.120
-273.384	233.652	0.123	0.202
-272.370	-152.720	0.132	0.009
-271.355	-48.925	0.058	-0.027
-270.340	-79.161	-0.067	0.023
-269.326	104.528	-0.062	-0.072
-268.311	-90.059	0.141	0.041
-267.297	-96.861	0.319	-0.083
-266.282	-138.240	-0.141	-0.016
-265.267	-119.554	0.250	0.043
-264.253	373.465	0.092	0.186
-263.238	-84.380	0.313	0.098
-262.224	54.696	0.198	0.190
-261.209	800.000	0.060	0.168
-260.195	-38.743	-0.207	-0.109
-259.180	-109.426	0.135	0.028
-258.165	-47.468	0.045	0.022
-257.151	800.000	0.073	-0.311
-256.136	-154.313	-0.211	0.014
-255.122	47.039	0.102	0.094
-254.107	-39.228	-0.172	0.090
-253.092	-87.657	-0.309	0.093
-252.078	480.183	-0.041	0.092
-251.063	11.230	0.197	-0.150
-250.049	-34.966	-0.118	0.064
-249.034	3.268	-0.257	-0.186
-248.019	42.621	-0.168	-0.152
-247.005	456.225	0.057	0.126
-245.990	800.000	-0.047	0.172
-244.976	-70.506	-0.263	0.099
-243.961	475.111	-0.202	-0.453
-242.946	207.666	-0.180	-0.279
-241.932	-85.111	0.066	0.021
-240.917	504.240	0.170	0.390
-239.903	96.004	-0.176	0.200
-238.888	79.485	0.292	-0.311
-237.873	276.387	-0.097	0.172
-236.859	-200.000	0.008	0.091
-235.844	-200.000	0.021	0.121
-234.830	140.658	-0.053	0.069
-233.815	-147.631	0.263	-0.022
-232.800	-73.798	0.082	-0.030
-231.786	18.996	-0.236	0.188
-230.771	-117.456	-0.142	-0.026
-229.757	-84.293	-0.318	0.100
-228.742	800.000	0.070	0.231
-227.727	94.361	0.218	0.245
-226.713	449.632	0.180	-0.393
-225.698	800.000	0.064	0.278
-224.684	800.000	0.031	0.093
-223.669	263.521	0.132	-0.227
-222.655	800.000	-0.063	-0.256
-221.640	236.264	0.305	0.501
-220.625	-200.000	0.049	0.393
-219.611	-99.092	0.263	0.066
-218.596	-88.440	0.227	-0.067
-217.582	-131.613	-0.201	0.026
-216.567	-200.000	-0.022	0.123
-215.552	302.293	0.224	-0.412
-214.538	-200.000	0.043	0.213
-213.523	-106.857	-0.097	0.021
-212.509	16.845	-0.145	-0.114
-211.494	595.024	-0.057	0.140
-210.479	-84.688	-0.634	-0.198
-209.465	-94.845	-0.349	0.094
-208.450	-62.490	-0.136	-0.056
-207.436	33.053	0.241	-0.208
-206.421	-200.000	0.021	-0.207
-205.406	-71.736	0.417	0.154
-204.392	-79.782	-0.111	-0.037
-203.377	-7.821	-0.179	-0.120
-202.363	-200.000	-0.012	-0.081
-201.348	-60.788	-0.316	0.133
-200.333	-200.000	0.006	0.070
-199.319	579.962	-0.088	0.214
-198.304	-149.025	0.188	-0.015
-197.290	-53.087	0.155	-0.070
-196.275	-200.000	-0.011	0.545
-195.260	-152.298	-0.052	0.004
-194.246	-108.370	0.215	0.046
-193.231	286.339	0.184	-0.329
-192.217	800.000	-0.094	0.389
-191.202	800.000	0.082	0.252
-190.187	-45.692	-0.300	-0.147
-189.173	-59.516	0.301	0.128
-188.158	2.613	0.227	-0.163
-187.144	-53.808	0.290	0.131
-186.129	-42.082	-0.355	-0.180
-185.114	-63.123	-0.167	-0.069
-184.100	800.000	0.047	-0.174
-183.085	25.563	0.189	0.156
-182.071	-200.000	-0.059	0.296
-181.056	-19.864	0.192	0.118
-180.042	280.134	0.178	0.315
-179.027	-80.261	0.114	-0.038
-178.012	88.378	-0.196	-0.216
-176.998	-200.000	0.122	-0.000
-175.983	120.932	-0.150	0.185
-174.969	-21.703	-0.247	-0.149
-173.954	800.000	0.122	-0.437
-172.939	-2.022	0.230	-0.160
-171.925	-200.000	-0.026	0.338
-170.910	-200.000	0.065	-0.401
-169.896	-79.712	-0.054	-0.018
-168.881	76.282	0.101	0.106
-167.866	-52.468	-0.139	0.064
-166.852	-121.964	-0.208	0.034
-165.837	-95.982	-0.059	-0.015
-164.823	-200.000	-0.002	-0.346
-163.808	101.535	0.043	0.049
-162.793	-200.000	0.011	-0.131
-161.779	-129.983	-0.002	-0.000
-160.764	-56.018	-0.160	-0.071
-159.750	185.078	-0.143	-0.210
-158.735	-45.708	-0.089	0.044
-157.720	30.741	-0.295	0.250
-156.706	-60.553	-0.202	-0.085
-155.691	192.766	0.067	-0.101
-154.677	1.818	-0.330	-0.236
-153.662	265.662	-0.105	-0.181
-152.647	-200.000	0.256	-0.000
-151.633	-200.000	-0.045	-0.267
-150.618	259.351	0.082	-0.139
-149.604	-200.000	-0.010	0.288
-148.589	1.978	-0.240	0.172
-147.574	-58.925	-0.242	0.104
-146.560	-47.339	-0.153	0.074
-145.545	85.348	0.094	-0.102
-144.531	139.718	-0.158	0.206
-143.516	800.000	-0.066	-0.282
-142.502	347.386	-0.071	0.139
-141.487	57.686	-0.221	-0.214
-140.472	-89.173	0.146	0.043
-139.458	84.849	-0.128	0.139
-138.443	423.669	0.033	0.070
-137.429	345.026	0.169	-0.328
-136.414	-130.368	0.183	-0.025
-135.399	-108.810	-0.380	0.081
-134.385	92.270	0.172	0.192
-133.370	800.000	0.003	0.012
-132.356	250.471	-0.081	-0.136
-131.341	107.695	0.124	-0.146
-130.326	-74.204	0.163	0.058
-129.312	-200.000	-0.015	-0.098
-128.297	-76.752	-0.075	0.026
-127.283	171.360	0.134	-0.190
-126.268	-200.000	0.014	0.096
-125.253	-200.000	0.003	0.143
-124.239	36.752	0.128	-0.112
-123.224	-183.073	-0.322	-0.006
-122.210	-3.235	0.273	-0.188
-121.195	-88.669	-0.058	0.017
-120.180	800.000	-0.063	0.271
-119.166	784.356	0.067	0.181
-118.151	-20.414	-0.096	0.058
-117.137	-107.018	-0.279	-0.061
-116.122	800.000	0.045	-0.155
-115.107	-200.000	0.069	0.367
-114.093	-18.962	0.255	-0.157
-113.078	-73.139	0.245	0.089
-112.064	-85.358	-0.167	-0.052
-111.049	43.969	0.338	-0.307
-110.034	-200.000	0.019	-0.174
-109.020	-3.073	0.106	-0.073
-108.005	61.619	0.112	0.111
-106.991	55.545	-0.083	0.079
-105.976	-16.994	0.232	0.145
-104.962	359.464	-0.028	-0.055
-103.947	717.254	-0.018	-0.048
-102.932	134.889	-0.164	-0.210
-101.918	263.345	0.087	-0.150
-100.903	48.501	0.142	-0.132
-99.889	0.557	-0.063	0.045
-98.874	-33.614	-0.117	0.064
-97.859	8.190	-0.267	0.198
-96.845	-55.278	-0.041	0.018
-95.830	-173.301	0.420	0.013
-94.816	-200.000	0.007	-0.301
-93.801	79.286	-0.064	0.068
-92.786	209.845	0.048	0.074
-91.772	-200.000	-0.043	-0.322
-90.757	-200.000	-0.015	0.196
-89.743	-124.679	0.221	-0.034
-88.728	124.963	0.158	-0.197
-87.713	800.000	0.061	0.246
-86.699	800.000	-0.070	-0.227
-85.684	-200.000	0.040	-0.456
-84.670	-200.000	0.033	-0.407
-83.655	-31.974	-0.376	0.208
-82.640	-90.087	0.128	-0.037
-81.626	-116.576	-0.253	-0.046
-80.611	-200.000	-0.027	0.200
-79.597	-23.568	-0.343	-0.203
-78.582	589.073	-0.023	-0.056
-77.567	-100.168	-0.320	-0.079
-76.553	-58.543	-0.118	-0.050
-75.538	149.265	-0.188	0.251
-74.524	2.251	0.168	-0.120
-73.509	-6.211	-0.179	0.121
-72.494	45.343	0.129	0.117
-71.480	120.194	-0.210	-0.258
-70.465	89.592	0.077	-0.085
-69.451	-200.000	0.019	-0.211
-68.436	-8.898	-0.056	0.037
-67.422	800.000	-0.094	-0.297
-66.407	555.736	-0.104	-0.247
-65.392	-78.615	0.316	-0.106
-64.378	-106.385	0.081	0.018
-63.363	651.171	-0.159	0.403
-62.349	46.755	0.077	-0.070
-61.334	63.746	-1.007	-0.999
-60.319	302.598	0.264	0.482
-59.305	-200.000	0.014	-0.848
-58.290	800.000	0.168	0.631
-57.276	729.008	0.578	1.523
-56.261	-200.000	96.744	584.481
-55.246	569.515	1374.347	3297.244
-54.232	154.413	2578.271	3492.019
-53.217	116.852	2159.078	2614.907
-52.203	46.910	1618.351	1484.196
-51.188	38.583	1355.369	1192.538
-50.173	35.311	1312.582	1135.507
-49.159	58.249	1362.201	1317.184
-48.144	62.877	1380.326	1362.462
-47.130	39.023	1333.861	1176.062
-46.115	35.313	1316.450	1138.687
-45.100	35.236	1310.868	1133.360
-44.086	34.986	1308.949	1130.180
-43.071	34.914	1306.681	1127.749
-42.057	34.973	1304.868	1126.485
-41.042	35.015	1303.032	1125.108
-40.027	35.099	1301.045	1123.836
-39.013	35.121	1299.221	1122.346
-37.998	34.998	1297.698	1120.270
-36.984	35.079	1295.668	1118.943
-35.969	35.155	1294.115	1118.001
-34.954	35.023	1292.988	1116.215
-33.940	35.131	1291.278	1115.320
-32.925	35.244	1290.308	1115.097
-31.911	35.217	1288.693	1113.503
-30.896	35.240	1287.307	1112.394
-29.881	35.240	1285.817	1111.059
-28.867	35.262	1284.270	1109.805
-27.852	35.285	1282.903	1108.716
-26.838	35.269	1281.707	1107.546
-25.823	35.218	1280.540	1106.195
-24.809	35.268	1278.863	1104.993
-23.794	35.253	1277.146	1103.381
-22.779	35.170	1276.329	1102.156
-21.765	35.244	1274.726	1101.149
-20.750	35.248	1273.722	1100.259
-19.736	35.140	1272.104	1098.202
-18.721	35.100	1271.346	1097.276
-17.706	35.053	1270.135	1095.917
-16.692	35.181	1268.246	1094.973
-15.677	35.113	1267.339	1093.762
-14.663	35.029	1266.651	1092.646
-13.648	35.041	1265.761	1091.903
-12.633	35.030	1264.453	1090.665
-11.619	35.010	1263.800	1089.947
-10.604	35.068	1262.885	1089.445
-9.590	34.997	1261.792	1088.051
-8.575	34.990	1261.007	1087.292
-7.560	34.997	1260.511	1086.864
-6.546	35.002	1259.606	1086.070
-5.531	35.075	1258.313	1085.321
-4.517	35.079	1257.458	1084.565
-3.502	35.058	1256.493	1083.573
-2.487	35.023	1255.818	1082.747
-1.473	34.986	1251.770	1079.005
-0.458	33.625	1236.408	1058.135
0.556	30.189	1218.874	1019.947
1.571	26.396	1224.494	1003.552
2.586	25.735	1239.064	1011.694
3.600	24.961	1228.327	998.522
4.615	18.114	1154.030	902.045
5.629	7.045	1074.834	785.389
6.644	2.156	1052.481	745.183
7.659	1.744	1050.206	741.498
8.673	1.678	1048.857	740.159
9.688	1.573	1047.772	738.818
10.702	2.194	1046.430	740.818
11.717	8.987	1056.319	780.913
12.731	19.218	1071.220	842.125
13.746	24.036	1076.349	869.686
14.761	24.756	1076.859	873.538
15.775	24.731	1076.747	873.249
16.790	24.502	1075.610	871.133
17.804	24.478	1075.150	870.564
18.819	24.527	1074.479	870.185
19.834	24.590	1074.568	870.485
20.848	24.685	1074.256	870.618
21.863	24.729	1073.398	870.059
22.877	24.570	1072.843	868.762
23.892	24.530	1072.160	867.935
24.907	24.623	1071.441	867.730
25.921	24.643	1070.341	866.861
26.936	24.462	1069.510	865.230
27.950	24.513	1067.384	863.683
28.965	24.372	1065.477	861.380
29.980	24.471	1064.531	861.017
30.994	24.673	1063.715	861.253
32.009	24.652	1062.341	859.966
33.023	24.554	1060.788	858.162
34.038	24.582	1060.301	857.825
35.053	24.591	1060.053	857.593
36.067	24.666	1058.789	856.856
37.082	24.693	1058.458	856.641
38.096	24.855	1057.432	856.510
39.111	24.941	1057.041	856.526
40.126	24.723	1055.383	854.068
41.140	24.501	1053.872	851.712
42.155	24.194	1052.403	848.987
43.169	24.261	1051.370	848.396
44.184	24.292	1050.622	847.864
45.199	24.266	1049.205	846.522
46.213	24.378	1048.218	846.185
47.228	24.449	1048.052	846.310
48.242	24.570	1046.808	845.806
49.257	24.665	1046.330	845.790
50.271	24.796	1045.433	845.611
51.286	24.834	1044.372	844.859
52.301	24.763	1043.650	843.864
53.315	24.689	1042.693	842.669
54.330	24.547	1041.640	841.074
55.344	24.749	1041.269	841.651
56.359	24.626	1040.264	840.184
57.374	24.443	1039.407	838.558
58.388	24.461	1038.647	837.957
59.403	24.448	1037.663	837.025
60.417	24.352	1036.466	835.540
61.432	24.249	1036.238	834.799
62.447	24.451	1035.600	835.153
63.461	24.599	1034.707	835.052
64.476	24.393	1033.651	833.163
65.490	24.265	1032.743	831.761
66.505	24.521	1032.066	832.335
67.520	24.517	1031.161	831.516
68.534	24.292	1030.238	829.652
69.549	23.955	1029.219	827.188
70.563	23.939	1028.276	826.284
71.578	24.051	1027.285	825.934
72.593	23.808	1026.192	823.855
73.607	23.848	1026.190	823.968
74.622	24.094	1025.892	824.795
75.636	24.218	1025.087	824.650
76.651	24.135	1024.036	823.346
77.666	24.033	1023.319	822.225
78.680	24.052	1022.706	821.749
79.695	24.155	1021.725	821.361
80.709	24.201	1021.504	821.324
81.724	24.158	1020.576	820.308
82.739	24.343	1019.612	820.309
83.753	24.676	1019.143	821.390
84.768	24.839	1018.725	821.731
85.782	24.927	1017.959	821.440
86.797	24.932	1016.546	820.251
87.812	24.794	1015.678	818.849
88.826	24.891	1014.889	818.581
89.841	25.011	1014.082	818.408
90.855	24.946	1012.656	816.889
91.870	24.804	1012.208	815.807
92.884	24.706	1011.008	814.321
93.899	24.714	1010.155	813.599
94.914	25.015	1008.831	813.827
95.928	24.771	1008.109	812.067
96.943	24.458	1007.206	809.845
97.957	24.270	1005.690	807.707
98.972	24.253	1004.653	806.721
99.987	24.551	1004.092	807.548
101.001	24.566	1003.337	806.937
102.016	24.609	1002.671	806.524
103.030	24.362	1002.206	804.964
104.045	24.230	1000.993	803.323
105.060	24.292	999.589	802.406
106.074	24.431	999.238	802.681
107.089	24.798	998.582	803.732
108.103	24.628	997.697	802.182
109.118	24.448	996.325	800.202
110.133	24.433	995.272	799.220
111.147	24.211	994.042	797.170
112.162	23.991	993.335	795.548
113.176	24.201	992.932	796.092
114.191	24.196	991.677	794.992
115.206	23.830	990.913	792.677
116.220	23.985	989.630	792.273
117.235	24.132	988.868	792.243
118.249	24.080	988.001	791.252
119.264	23.921	987.428	790.015
120.279	24.145	986.617	790.289
121.293	24.194	985.625	789.643
122.308	24.117	984.985	788.720
123.322	24.031	983.745	787.274
124.337	23.918	982.590	785.781
125.352	23.445	981.106	782.439
126.366	23.409	980.307	781.573
127.381	24.071	980.193	784.332
128.395	24.509	979.834	785.904
129.410	24.587	978.917	785.439
130.424	24.597	978.045	784.717
131.439	24.608	976.823	783.713
132.454	24.581	976.071	782.925
133.468	24.639	975.178	782.393
134.483	24.649	974.291	781.655
135.497	24.873	973.840	782.202
136.512	24.820	973.152	781.348
137.527	24.938	971.987	780.858
138.541	24.810	971.759	780.048
139.556	25.062	970.498	780.064
140.570	24.947	970.064	779.146
141.585	24.969	968.827	778.182
142.600	24.975	967.682	777.216
143.614	25.097	967.600	777.611
144.629	25.231	966.342	777.114
145.643	25.051	964.913	775.115
146.658	25.033	963.154	773.557
147.673	24.782	962.643	771.997
148.687	24.730	961.749	770.985
149.702	24.659	960.744	769.806
150.716	24.677	959.910	769.146
151.731	24.741	959.276	768.846
152.746	24.877	958.979	769.125
153.760	25.033	958.193	769.095
154.775	25.006	957.663	768.485
155.789	25.015	956.668	767.660
156.804	25.009	955.694	766.784
157.819	25.077	955.019	766.464
158.833	25.180	954.507	766.425
159.848	25.234	953.138	765.490
160.862	24.898	951.908	763.001
161.877	25.174	950.872	763.280
162.892	25.128	950.404	762.641
163.906	24.891	949.292	760.674
164.921	24.903	948.611	760.114
165.935	25.049	947.696	759.930
166.950	24.962	946.861	758.824
167.964	24.919	945.993	757.880
168.979	24.951	944.573	756.813
169.994	24.764	944.186	755.646
171.008	24.974	943.634	756.024
172.023	25.131	942.315	755.561
173.037	24.762	941.438	753.235
174.052	24.761	940.212	752.184
175.067	24.764	939.847	751.837
176.081	24.831	939.327	751.640
177.096	24.697	938.776	750.568
178.110	24.562	937.821	749.173
179.125	24.401	936.978	747.759
180.140	24.463	936.351	747.449
181.154	24.492	936.333	747.489
182.169	24.954	936.279	749.315
183.183	25.023	935.737	749.106
184.198	25.046	934.235	747.931
185.213	24.889	934.279	747.245
186.227	25.003	933.733	747.220
187.242	25.034	932.686	746.443
188.256	25.061	932.184	746.089
189.271	25.029	931.784	745.567
190.286	24.818	930.407	743.525
191.300	24.228	928.834	739.753
192.315	23.437	926.955	734.912
193.329	23.323	927.058	734.455
194.344	24.451	927.235	739.205
195.359	24.866	927.147	740.789
196.373	24.899	926.784	740.571
197.388	24.839	926.017	739.644
198.402	24.891	925.331	739.246
199.417	24.980	924.990	739.275
200.432	24.772	923.524	737.179
201.446	24.425	923.142	735.382
202.461	24.428	922.698	734.975
203.475	23.621	920.940	730.190
204.490	23.006	919.173	726.199
205.504	23.912	919.549	730.152
206.519	24.611	919.483	732.903
207.534	24.647	919.281	732.826
208.548	25.001	918.764	733.799
209.563	24.695	918.117	731.967
210.577	24.697	917.770	731.633
211.592	25.150	917.271	733.023
212.607	25.072	915.931	731.570
213.621	24.997	915.667	730.986
214.636	25.125	914.807	730.757
215.650	25.146	913.877	730.034
216.665	25.014	913.929	729.474
217.680	25.063	912.956	728.834
218.694	24.623	911.808	726.062
219.709	24.464	911.346	724.988
220.723	24.776	910.684	725.663
221.738	24.853	909.828	725.226
222.753	24.909	909.355	725.011
223.767	24.964	909.233	725.075
224.782	25.184	908.702	725.475
225.796	25.181	907.940	724.791
226.811	24.478	906.878	721.043
227.826	23.938	905.789	717.933
228.840	24.211	904.556	717.994
229.855	24.134	904.170	717.314
230.869	23.953	902.780	715.417
231.884	24.236	903.424	717.004
232.899	24.856	903.923	719.832
233.913	24.763	902.886	718.570
234.928	24.837	902.272	718.312
235.942	24.868	901.021	717.379
236.957	24.525	900.490	715.516
237.972	24.632	899.743	715.286
238.986	24.579	899.171	714.558
240.001	24.639	898.659	714.327
241.015	24.758	898.141	714.329
242.030	24.899	897.733	714.503
243.045	25.085	897.157	714.723
244.059	25.060	897.160	714.563
245.074	24.826	895.806	712.490
246.088	24.613	894.601	710.620
247.103	24.730	894.768	711.155
248.117	25.419	894.621	713.716
249.132	25.511	894.569	713.976
250.147	25.690	893.600	713.851
251.161	25.884	893.306	714.322
252.176	25.760	893.134	713.629
253.190	25.865	892.031	713.100
254.205	26.075	891.528	713.466
255.220	26.140	890.755	713.040
256.234	25.832	890.473	711.536
257.249	25.782	889.468	710.473
258.263	25.772	888.634	709.704
259.278	25.790	888.430	709.547
260.293	25.766	887.904	708.971
261.307	25.628	887.109	707.731
262.322	25.511	886.088	706.395
263.336	24.795	884.272	702.074
264.351	23.829	882.366	696.716
265.366	23.899	882.039	696.669
266.380	25.019	882.737	701.548
267.395	25.373	882.525	702.701
268.409	25.234	881.982	701.665
269.424	25.510	881.293	702.133
270.439	25.650	880.543	702.016
271.453	25.662	880.011	701.577
272.468	25.725	880.188	701.903
273.482	25.868	879.169	701.586
274.497	25.488	878.293	699.347
275.512	25.066	877.216	696.787
276.526	25.469	877.100	698.198
277.541	25.560	876.847	698.290
278.555	25.489	876.079	697.340
279.570	25.365	874.961	695.908
280.585	25.502	874.594	696.085
281.599	25.382	873.833	694.956
282.614	24.958	872.169	691.930
283.628	24.770	871.930	690.956
284.643	25.221	872.112	692.778
285.657	24.893	870.430	690.117
286.672	24.547	870.123	688.480
287.687	25.089	869.865	690.302
288.701	25.078	869.375	689.812
289.716	24.863	868.753	688.430
290.730	24.753	868.124	687.448
291.745	24.514	866.503	685.186
292.760	24.920	866.942	687.029
293.774	25.795	867.404	690.694
294.789	26.220	866.952	691.902
295.803	26.124	866.371	691.008
296.818	26.307	865.779	691.173
297.833	25.763	864.633	688.118
298.847	25.614	863.840	686.859
299.862	25.896	863.998	688.000
300.876	26.173	863.757	688.802
301.891	25.945	862.599	686.952
302.906	25.676	861.508	685.000
303.920	25.751	861.426	685.158
304.935	26.207	860.882	686.397
305.949	26.199	860.338	685.874
306.964	25.934	859.822	684.394
307.979	25.988	859.148	684.004
308.993	26.460	858.854	685.497
310.008	26.360	858.490	684.768
311.022	25.896	857.808	682.407
312.037	25.710	857.170	681.134
313.052	25.658	855.868	679.844
314.066	24.564	854.699	674.726
315.081	24.398	853.681	673.235
316.095	25.340	854.179	677.122
317.110	25.860	853.908	678.808
318.125	24.962	852.504	674.252
319.139	23.810	851.443	669.020
320.154	23.816	850.833	668.504
321.168	24.792	850.788	672.077
322.183	25.608	850.965	675.223
323.197	25.788	850.886	675.775
324.212	25.863	850.667	675.824
325.227	25.955	849.586	675.248
326.241	25.744	849.094	674.010
327.256	25.731	848.225	673.211
328.270	25.725	847.638	672.663
329.285	25.360	847.116	670.825
330.300	25.208	846.257	669.517
331.314	25.611	845.768	670.577
332.329	25.969	845.658	671.762
333.343	25.991	845.837	671.926
334.358	26.015	845.110	671.382
335.373	26.152	844.449	671.306
336.387	26.144	845.150	671.772
337.402	26.376	844.945	672.414
338.416	26.446	844.164	671.993
339.431	26.514	844.265	672.267
340.446	26.595	843.627	672.001
341.460	26.408	843.106	670.832
342.475	26.280	842.029	669.440
343.489	26.460	842.001	670.026
344.504	26.707	841.999	670.881
345.519	26.865	841.687	671.155
346.533	26.889	840.622	670.336
347.548	26.814	840.488	669.895
348.562	26.719	840.190	669.246
349.577	26.447	839.742	667.825
350.592	26.773	838.541	668.015
351.606	26.854	837.798	667.660
352.621	26.626	836.930	666.070
353.635	26.539	836.285	665.178
354.650	25.851	834.880	661.478
355.665	25.062	833.235	657.226
356.679	25.424	833.071	658.364
357.694	25.981	832.582	659.957
358.708	25.690	832.364	658.660
359.723	26.236	832.175	660.451
360.738	26.480	831.504	660.752
361.752	26.587	831.336	660.948
362.767	26.941	831.113	662.005
363.781	27.028	830.948	662.134
364.796	27.314	829.879	662.263
365.810	27.184	830.234	662.016
366.825	27.209	829.415	661.395
367.840	26.898	828.790	659.708
368.854	26.364	828.253	657.281
369.869	26.525	827.290	657.041
370.883	26.504	826.712	656.449
371.898	26.425	826.387	655.844
372.913	26.499	826.372	656.046
373.927	26.639	825.977	656.179
374.942	26.858	825.346	656.415
375.956	26.782	825.341	656.077
376.971	26.926	824.523	655.887
377.986	27.169	824.329	656.553
379.000	27.178	823.855	656.150
380.015	26.843	823.383	654.508
381.029	27.100	822.600	654.753
382.044	27.186	822.003	654.530
383.059	27.281	821.319	654.269
384.073	27.280	820.883	653.861
385.088	27.153	820.532	653.067
386.102	26.843	819.777	651.296
387.117	26.882	818.485	650.351
388.132	26.601	817.438	648.455
389.146	25.994	816.821	645.736
390.161	26.416	816.477	646.916
391.175	26.930	816.818	648.968
392.190	26.593	815.343	646.537
393.205	25.211	813.510	640.100
394.219	23.642	811.770	633.082
395.234	23.501	811.940	632.656
396.248	25.178	813.159	639.533
397.263	26.765	813.638	645.513
398.278	26.576	813.555	644.714
399.292	26.296	812.868	643.117
400.307	26.333	812.506	642.905
401.321	26.558	811.853	643.132
402.336	26.881	812.107	644.424
403.350	27.422	811.606	645.888
404.365	27.650	811.577	646.617
405.380	27.799	811.387	646.939
406.394	27.891	810.793	646.732
407.409	27.986	809.720	646.153
408.423	27.722	809.636	645.097
409.438	27.771	809.797	645.341
410.453	27.837	809.098	644.959
411.467	27.817	808.345	644.233
412.482	27.836	807.948	643.925
413.496	27.772	807.786	643.514
414.511	27.893	807.316	643.509
415.526	28.091	806.631	643.604
416.540	27.753	806.135	641.960
417.555	27.475	805.434	640.370
418.569	27.488	805.285	640.241
419.584	27.643	804.792	640.337
420.599	27.382	804.038	638.764
421.613	108.227	1280.923	1443.960
422.628	93.393	1350.409	1444.079
