DTS Sentinel unit serial number:	SN413079Multiplexer serial number:	ORYXHardware model number:	OX4-SRSoftware version number:	ORYX F/W v4.00 Oryx Data Collector v3.7.2.0data status	okinstallation	princeton_trtdifferential loss correction	single-endedforward channel	channel 1reverse channel	N/Adate	2019/09/12time	01:56:11forward acquisition time	60.00reverse acquisition time	0.00gamma	496.2192k internal	0.2321k external	0.2321temperature offset calibration	1.0079default loss term (dB/km)	0.3790temperature slope calibration	1.0000multiplexer offset coefficient	1.0000multiplexer slope coefficient	1.0000fibre end	0.00T internal ref (°C)	32.78T ext. ref 1 (°C)	2.06T ext. ref 2 (°C)	27.44length (m)	temperature (°C)	Stokes	anti-Stokes-747.200	53.413	0.128	0.124
-746.185	170.766	-0.129	-0.187
-745.171	-129.757	0.462	-0.064
-744.156	-22.032	-0.348	0.214
-743.142	137.361	0.097	-0.128
-742.127	-98.444	-0.088	-0.023
-741.112	168.269	0.128	-0.184
-740.098	331.184	0.127	0.248
-739.083	-78.263	0.294	0.102
-738.069	-5.643	-0.371	0.257
-737.054	-200.000	-0.018	0.339
-736.039	69.305	-0.133	0.138
-735.025	320.862	0.114	-0.218
-734.010	131.619	0.058	0.076
-732.996	-200.000	0.012	-0.055
-731.981	-161.726	-0.299	-0.015
-730.966	-22.743	0.309	0.189
-729.952	800.000	0.095	-0.370
-728.937	-200.000	0.008	0.065
-727.923	12.503	-0.181	0.141
-726.908	-94.632	-0.259	-0.071
-725.894	-200.000	-0.001	-0.258
-724.879	-200.000	0.017	-0.207
-723.864	298.122	0.121	-0.225
-722.850	53.395	-0.158	-0.153
-721.835	-29.047	0.260	-0.151
-720.821	800.000	-0.036	-0.115
-719.806	118.801	-0.141	-0.176
-718.791	-200.000	-0.015	-0.180
-717.777	-49.762	0.161	0.077
-716.762	51.698	-0.035	0.034
-715.748	20.202	0.091	-0.074
-714.733	-200.000	-0.006	0.237
-713.718	62.869	0.163	-0.164
-712.704	82.251	-0.105	-0.115
-711.689	21.105	0.156	-0.128
-710.675	-70.916	0.107	0.041
-709.660	-75.082	-0.111	0.040
-708.645	-31.793	-0.219	-0.124
-707.631	18.038	0.183	-0.147
-706.616	-63.607	-0.201	0.083
-705.602	-92.230	-0.115	0.033
-704.587	31.232	-0.161	0.140
-703.572	-42.213	-0.455	0.235
-702.558	504.349	0.025	0.057
-701.543	328.279	0.117	0.227
-700.529	-200.000	0.020	-0.169
-699.514	-200.000	0.004	-0.213
-698.499	143.497	0.078	0.105
-697.485	270.866	0.090	-0.160
-696.470	-200.000	0.019	0.142
-695.456	800.000	-0.086	-0.315
-694.441	676.758	0.030	0.078
-693.426	-129.888	-0.295	-0.041
-692.412	229.705	-0.065	0.107
-691.397	212.891	0.018	-0.029
-690.383	800.000	-0.143	-0.432
-689.368	-118.504	-0.246	0.044
-688.354	-200.000	-0.003	0.113
-687.339	163.803	-0.311	-0.442
-686.324	11.399	-0.158	-0.122
-685.310	-30.494	-0.116	-0.066
-684.295	93.809	-0.104	-0.119
-683.281	-102.693	0.244	-0.059
-682.266	-127.661	-0.241	-0.035
-681.251	479.035	-0.132	-0.301
-680.237	-200.000	0.019	-0.322
-679.222	351.707	0.250	0.499
-678.208	51.531	0.119	0.114
-677.193	70.447	0.043	0.044
-676.178	94.464	-0.219	0.251
-675.164	-51.489	-0.028	0.013
-674.149	17.173	0.325	0.260
-673.135	136.327	-0.241	0.317
-672.120	-200.000	0.011	0.069
-671.105	800.000	-0.101	-0.359
-670.091	800.000	0.059	-0.212
-669.076	-90.393	-0.057	-0.017
-668.062	685.613	-0.078	0.205
-667.047	-200.000	0.020	0.105
-666.032	40.263	-0.139	-0.126
-665.018	-72.045	0.090	0.034
-664.003	337.740	-0.139	-0.272
-662.989	17.167	0.115	0.092
-661.974	-139.308	-0.617	0.067
-660.959	1.239	-0.250	0.181
-659.945	-110.763	0.345	-0.072
-658.930	-139.742	0.198	0.021
-657.916	-133.061	-0.429	-0.055
-656.901	800.000	-0.068	-0.213
-655.886	800.000	-0.053	0.227
-654.872	800.000	0.004	-0.018
-653.857	227.957	-0.041	-0.068
-652.843	-119.492	0.254	-0.044
-651.828	-35.593	0.240	-0.131
-650.814	118.746	-0.270	0.337
-649.799	48.867	0.075	-0.071
-648.784	498.896	-0.119	0.276
-647.770	20.816	0.241	0.196
-646.755	-90.334	0.205	0.060
-645.741	-116.845	-0.483	-0.089
-644.726	566.230	-0.216	-0.528
-643.711	800.000	-0.069	0.258
-642.697	-200.000	-0.029	0.216
-641.682	-146.209	-0.303	-0.027
-640.668	-200.000	0.004	0.145
-639.653	504.095	0.106	-0.248
-638.638	-200.000	0.071	0.374
-637.624	214.582	-0.029	0.047
-636.609	-103.695	0.379	-0.090
-635.595	-57.961	-0.121	-0.053
-634.580	-59.021	-0.225	-0.098
-633.565	-134.028	0.098	-0.012
-632.551	-200.000	-0.011	0.066
-631.536	-76.301	-0.339	-0.120
-630.522	22.176	0.180	-0.148
-629.507	-3.524	-0.208	-0.145
-628.492	-200.000	-0.001	-0.099
-627.478	-200.000	-0.066	-0.327
-626.463	-200.000	-0.009	-0.128
-625.449	508.928	-0.130	-0.305
-624.434	-62.678	-0.355	-0.148
-623.419	-93.078	-0.180	0.050
-622.405	3.973	-0.346	-0.254
-621.390	212.941	0.156	0.248
-620.376	-128.824	0.196	0.028
-619.361	-25.999	-0.148	-0.087
-618.346	800.000	0.006	0.019
-617.332	25.367	-0.223	-0.186
-616.317	308.535	-0.073	0.138
-615.303	-83.476	-0.101	-0.032
-614.288	131.813	-0.106	0.138
-613.273	-137.638	0.191	-0.022
-612.259	-3.142	-0.173	-0.121
-611.244	-80.155	-0.421	-0.142
-610.230	136.307	-0.100	0.131
-609.215	284.918	0.065	-0.118
-608.201	-70.663	0.173	0.066
-607.186	11.010	-0.156	0.120
-606.171	23.336	0.231	-0.191
-605.157	169.895	-0.063	-0.091
-604.142	-89.874	-0.184	-0.054
-603.128	2.376	-0.249	-0.181
-602.113	425.317	-0.074	-0.160
-601.098	-145.829	0.205	0.018
-600.084	545.665	0.079	-0.189
-599.069	86.560	-0.195	-0.216
-598.055	42.477	0.158	0.144
-597.040	510.448	0.088	0.206
-596.025	65.267	-0.198	-0.201
-595.011	571.233	0.034	0.083
-593.996	-200.000	0.014	0.152
-592.982	53.300	0.070	0.068
-591.967	353.131	-0.119	-0.237
-590.952	-68.614	-0.178	-0.069
-589.938	-40.398	-0.309	-0.161
-588.923	-129.130	0.438	0.061
-587.909	800.000	-0.013	0.052
-586.894	-200.000	-0.023	-0.283
-585.879	-193.008	-0.274	-0.002
-584.865	-82.749	0.095	0.031
-583.850	511.553	0.039	-0.091
-582.836	-34.324	0.245	-0.135
-581.821	448.229	0.064	0.141
-580.806	-29.667	-0.270	0.155
-579.792	328.397	0.073	0.141
-578.777	283.678	0.114	-0.205
-577.763	238.719	-0.175	0.292
-576.748	21.305	-0.354	0.289
-575.733	676.214	-0.041	0.106
-574.719	-183.463	-0.140	-0.002
-573.704	413.921	0.045	0.097
-572.690	-200.000	0.026	0.243
-571.675	160.298	-0.264	-0.370
-570.661	-16.224	-0.094	-0.060
-569.646	-44.323	0.111	0.056
-568.631	-200.000	0.024	0.208
-567.617	-34.689	-0.292	0.160
-566.602	-200.000	-0.007	0.172
-565.588	-25.374	-0.304	-0.180
-564.573	-200.000	-0.023	0.465
-563.558	-28.585	0.120	-0.069
-562.544	800.000	0.044	0.135
-561.529	-200.000	-0.001	-0.196
-560.515	-74.548	-0.069	-0.025
-559.500	-115.653	-0.142	0.027
-558.485	-200.000	-0.041	0.458
-557.471	-200.000	0.019	0.144
-556.456	249.644	0.170	0.290
-555.442	385.524	0.096	-0.198
-554.427	-200.000	-0.008	0.058
-553.412	24.215	0.125	-0.104
-552.398	-200.000	-0.015	0.102
-551.383	-86.710	-0.214	0.066
-550.369	12.339	0.152	-0.117
-549.354	214.506	-0.118	0.187
-548.339	-200.000	0.070	-0.454
-547.325	-121.014	-0.358	-0.060
-546.310	-200.000	0.019	-0.200
-545.296	53.532	-0.174	-0.168
-544.281	-200.000	0.029	-0.131
-543.266	-200.000	-0.010	-0.185
-542.252	336.025	0.145	0.282
-541.237	-126.000	0.380	-0.057
-540.223	315.547	-0.088	-0.167
-539.208	-161.060	-0.270	-0.014
-538.193	106.484	-0.037	-0.044
-537.179	178.044	-0.199	-0.291
-536.164	-138.565	0.122	-0.013
-535.150	66.421	-0.038	-0.038
-534.135	-200.000	0.017	-0.228
-533.121	29.314	-0.161	-0.138
-532.106	-148.439	0.254	-0.021
-531.091	-58.770	-0.031	-0.013
-530.077	-131.710	-0.140	0.018
-529.062	-83.871	0.317	0.101
-528.048	-142.414	0.121	0.012
-527.033	417.393	0.048	0.104
-526.018	133.507	-0.058	-0.076
-525.004	-109.480	0.329	-0.070
-523.989	178.346	0.128	-0.188
-522.975	134.561	0.078	-0.101
-521.960	-175.781	-0.186	0.005
-520.945	-95.331	0.297	-0.080
-519.931	-200.000	0.014	0.106
-518.916	-160.297	-0.092	-0.005
-517.902	13.798	-0.233	0.182
-516.887	47.793	-0.082	0.076
-515.872	86.367	0.072	0.080
-514.858	30.854	0.346	-0.297
-513.843	236.084	0.172	-0.285
-512.829	-175.287	-0.078	0.002
-511.814	-166.424	-0.331	0.014
-510.799	435.942	0.083	-0.180
-509.785	20.816	0.068	-0.055
-508.770	94.329	0.039	0.044
-507.756	94.618	-0.094	0.107
-506.741	-200.000	0.001	-0.016
-505.726	-200.000	0.040	-0.357
-504.712	-200.000	0.044	-0.264
-503.697	94.466	0.210	0.239
-502.683	-163.172	-0.223	0.011
-501.668	263.989	0.240	0.419
-500.653	-132.821	0.065	-0.008
-499.639	800.000	0.091	-0.333
-498.624	800.000	0.091	0.307
-497.610	-74.885	0.305	-0.110
-496.595	-200.000	-0.011	0.181
-495.581	621.818	0.103	-0.259
-494.566	-200.000	-0.028	-0.435
-493.551	-200.000	-0.001	0.416
-492.537	-114.998	0.359	0.068
-491.522	-85.212	-0.358	-0.112
-490.508	-133.054	0.073	0.009
-489.493	-97.000	-0.340	-0.089
-488.478	-166.281	0.315	0.013
-487.464	-30.092	0.130	0.074
-486.449	46.369	-0.186	0.173
-485.435	-180.624	-0.330	0.007
-484.420	-74.759	0.250	0.090
-483.405	-53.400	0.295	-0.135
-482.391	-0.697	0.262	0.186
-481.376	-19.360	0.218	-0.135
-480.362	-52.948	0.296	0.136
-479.347	800.000	0.126	-0.365
-478.332	-200.000	-0.011	0.097
-477.318	-134.673	0.059	-0.007
-476.303	800.000	-0.032	0.089
-475.289	108.535	0.187	-0.224
-474.274	-84.836	0.360	0.113
-473.259	13.648	-0.095	-0.074
-472.245	392.354	-0.107	-0.222
-471.230	542.420	0.079	0.188
-470.216	23.611	0.159	0.131
-469.201	180.405	0.011	0.017
-468.186	800.000	0.065	0.206
-467.172	-0.126	-0.245	0.174
-466.157	-17.418	-0.277	0.174
-465.143	800.000	0.086	0.326
-464.128	-47.158	-0.185	0.090
-463.113	-1.464	0.123	0.087
-462.099	-45.609	0.086	-0.043
-461.084	510.679	-0.078	0.182
-460.070	-200.000	-0.041	-0.289
-459.055	-200.000	0.001	-0.133
-458.040	-135.491	0.225	0.027
-457.026	-200.000	-0.038	0.400
-456.011	-126.944	-0.333	0.049
-454.997	-65.606	-0.278	-0.112
-453.982	100.860	-0.250	0.290
-452.968	-14.035	0.086	-0.055
-451.953	800.000	-0.046	-0.133
-450.938	71.044	0.044	0.045
-449.924	494.418	0.099	-0.227
-448.909	-200.000	0.001	-0.244
-447.895	800.000	-0.073	0.295
-446.880	800.000	0.004	0.016
-445.865	-144.926	0.276	-0.025
-444.851	-168.111	0.143	-0.006
-443.836	-1.525	-0.163	0.115
-442.822	110.021	0.098	0.118
-441.807	-200.000	-0.048	-0.217
-440.792	50.199	0.302	-0.285
-439.778	-23.721	-0.192	0.115
-438.763	35.055	0.117	-0.103
-437.749	-45.547	0.173	0.086
-436.734	584.447	0.086	0.210
-435.719	632.947	0.087	-0.220
-434.705	800.000	0.055	0.226
-433.690	-114.646	0.318	0.061
-432.676	-156.260	-0.285	-0.018
-431.661	-104.382	-0.128	-0.030
-430.646	362.241	-0.069	0.138
-429.632	-100.041	-0.259	-0.064
-428.617	73.572	-0.333	0.348
-427.603	489.292	0.035	-0.081
-426.588	800.000	-0.113	0.313
-425.573	53.170	0.210	0.200
-424.559	0.975	-0.140	-0.100
-423.544	800.000	0.096	-0.273
-422.530	-103.515	-0.273	0.064
-421.515	63.491	0.037	-0.037
-420.500	-200.000	-0.007	-0.120
-419.486	-200.000	0.054	-0.252
-418.471	3.256	-0.110	0.080
-417.457	-61.551	0.398	0.167
-416.442	-71.749	0.175	-0.065
-415.428	214.240	-0.080	0.127
-414.413	-99.729	-0.272	0.068
-413.398	30.739	0.159	0.136
-412.384	29.756	0.091	0.078
-411.369	-124.068	0.050	0.008
-410.355	-200.000	0.078	0.362
-409.340	-166.882	-0.070	0.003
-408.325	43.053	0.355	0.323
-407.311	-90.820	0.080	-0.023
-406.296	-70.847	-0.307	-0.115
-405.282	23.946	-0.090	0.074
-404.267	10.051	0.085	-0.065
-403.252	113.136	-0.044	-0.053
-402.238	-191.265	0.049	-0.000
-401.223	248.106	0.082	-0.139
-400.209	-200.000	-0.008	-0.138
-399.194	664.137	-0.091	0.235
-398.179	-35.009	0.297	-0.162
-397.165	-34.144	0.150	-0.082
-396.150	301.443	0.109	-0.201
-395.136	7.831	0.366	-0.273
-394.121	-126.729	-0.119	0.017
-393.106	-200.000	0.005	0.136
-392.092	-200.000	0.011	-0.154
-391.077	-20.510	-0.200	0.123
-390.063	-23.670	-0.133	-0.079
-389.048	-200.000	-0.004	0.021
-388.033	-109.801	-0.124	0.026
-387.019	579.699	-0.077	-0.187
-386.004	-138.096	0.402	0.045
-384.990	-151.371	-0.025	0.002
-383.975	-200.000	-0.039	-0.295
-382.960	-61.395	0.069	0.029
-381.946	590.883	0.132	-0.326
-380.931	-33.919	-0.251	-0.138
-379.917	-62.604	0.291	-0.120
-378.902	-200.000	0.004	-0.034
-377.888	50.210	0.179	-0.168
-376.873	240.065	-0.133	0.221
-375.858	221.434	-0.120	0.191
-374.844	-200.000	0.033	-0.192
-373.829	-77.163	-0.112	-0.039
-372.815	-200.000	-0.002	-0.022
-371.800	-82.323	0.474	0.154
-370.785	225.673	-0.150	0.243
-369.771	800.000	0.030	-0.087
-368.756	115.575	0.068	0.082
-367.742	-200.000	-0.035	0.159
-366.727	437.287	0.022	0.047
-365.712	560.201	-0.066	-0.158
-364.698	85.154	0.058	-0.064
-363.683	-57.085	-0.068	-0.030
-362.669	-30.480	-0.154	-0.087
-361.654	-95.312	0.077	-0.021
-360.639	-148.935	-0.389	0.031
-359.625	8.432	0.178	0.134
-358.610	159.913	0.135	-0.187
-357.596	171.903	-0.032	0.045
-356.581	-47.751	-0.273	-0.132
-355.566	-50.414	0.441	-0.207
-354.552	586.723	-0.037	0.091
-353.537	-19.226	0.205	-0.127
-352.523	-200.000	0.049	0.275
-351.508	-30.825	-0.200	0.113
-350.493	79.191	-0.207	-0.221
-349.479	-200.000	0.057	0.285
-348.464	-52.433	-0.144	-0.066
-347.450	-200.000	-0.037	-0.222
-346.435	-42.428	0.326	0.165
-345.420	407.048	0.061	-0.128
-344.406	8.526	0.044	-0.033
-343.391	-4.156	-0.197	0.136
-342.377	574.751	0.021	0.051
-341.362	-93.751	0.176	0.048
-340.348	-200.000	-0.069	0.307
-339.333	101.666	-0.079	0.091
-338.318	-200.000	0.005	-0.109
-337.304	26.303	0.280	-0.233
-336.289	-200.000	-0.065	-0.362
-335.275	-200.000	0.046	0.211
-334.260	-16.810	-0.187	-0.117
-333.245	-87.818	0.306	-0.092
-332.231	800.000	0.058	0.188
-331.216	8.774	0.146	-0.109
-330.202	-101.084	0.205	-0.050
-329.187	207.798	-0.089	-0.139
-328.172	64.326	-0.142	0.142
-327.158	800.000	-0.114	-0.419
-326.143	53.454	0.056	-0.054
-325.129	-62.492	0.181	0.075
-324.114	528.783	-0.079	0.185
-323.099	6.529	0.043	0.032
-322.085	403.151	0.060	0.125
-321.070	220.578	0.062	-0.098
-320.056	-200.000	0.015	0.111
-319.041	800.000	-0.049	0.204
-318.026	268.578	-0.102	-0.178
-317.012	93.857	-0.159	0.179
-315.997	-140.883	-0.238	-0.024
-314.983	86.302	-0.233	-0.255
-313.968	753.185	-0.154	-0.412
-312.953	-166.826	-0.064	0.003
-311.939	-59.263	0.417	0.179
-310.924	800.000	-0.079	0.266
-309.910	77.317	-0.119	-0.126
-308.895	153.188	-0.053	-0.072
-307.880	-119.741	-0.098	-0.017
-306.866	-130.698	0.446	-0.060
-305.851	0.736	0.168	0.120
-304.837	-72.315	-0.069	-0.025
-303.822	680.519	0.026	-0.066
-302.807	-200.000	-0.052	-0.386
-301.793	13.757	0.038	0.030
-300.778	64.839	-0.128	-0.129
-299.764	272.195	0.167	-0.293
-298.749	-125.212	-0.268	0.041
-297.735	800.000	0.071	-0.205
-296.720	-32.785	-0.198	0.109
-295.705	-93.756	0.189	-0.052
-294.691	22.442	0.043	-0.035
-293.676	660.661	0.042	0.107
-292.662	-29.413	-0.233	0.133
-291.647	69.615	0.073	-0.075
-290.632	-200.000	0.026	-0.171
-289.618	86.565	-0.140	0.153
-288.603	-70.412	0.181	-0.068
-287.589	-200.000	-0.028	-0.235
-286.574	795.811	0.086	0.236
-285.559	800.000	-0.027	0.077
-284.545	-13.044	0.128	0.083
-283.530	-157.174	0.356	0.021
-282.516	73.977	0.037	-0.038
-281.501	-106.445	-0.096	-0.021
-280.486	-34.556	0.190	0.103
-279.472	34.125	0.062	0.053
-278.457	-200.000	-0.016	-0.123
-277.443	-200.000	-0.001	-0.062
-276.428	112.324	0.143	-0.172
-275.413	-200.000	0.017	-0.246
-274.399	551.038	0.012	-0.028
-273.384	-48.630	-0.228	-0.109
-272.370	-200.000	-0.033	-0.206
-271.355	800.000	0.104	-0.347
-270.340	-111.990	-0.254	0.051
-269.326	-69.957	0.229	-0.087
-268.311	-119.585	0.227	0.039
-267.297	219.827	0.083	0.132
-266.282	-90.659	-0.153	0.044
-265.267	-104.644	0.361	-0.083
-264.253	800.000	0.097	-0.356
-263.238	151.682	0.089	0.121
-262.224	-56.645	-0.360	-0.158
-261.209	-128.627	0.370	-0.052
-260.195	396.814	-0.186	0.386
-259.180	401.904	-0.097	0.202
-258.165	73.835	0.039	0.041
-257.151	-200.000	-0.022	0.335
-256.136	-49.180	-0.368	-0.174
-255.122	26.824	0.041	0.034
-254.107	-56.154	0.081	0.036
-253.092	683.231	-0.048	-0.125
-252.078	-77.724	-0.272	0.093
-251.063	-200.000	-0.000	-0.085
-250.049	151.991	0.106	0.143
-249.034	100.064	0.120	-0.138
-248.019	-200.000	0.016	-0.294
-247.005	-71.934	-0.299	-0.110
-245.990	-150.571	0.212	-0.016
-244.976	-200.000	0.038	0.328
-243.961	36.946	0.147	-0.129
-242.946	48.236	-0.144	0.134
-241.932	-41.254	-0.072	-0.037
-240.917	800.000	-0.093	0.340
-239.903	-83.466	0.334	0.106
-238.888	-89.912	0.174	0.050
-237.873	23.019	0.144	-0.117
-236.859	-30.789	0.058	0.033
-235.844	800.000	-0.098	0.359
-234.830	-183.921	-0.406	-0.007
-233.815	-66.605	-0.284	0.112
-232.800	0.862	0.120	-0.085
-231.786	89.006	0.348	-0.384
-230.771	-70.086	-0.116	0.044
-229.757	-130.105	-0.260	0.035
-228.742	-163.927	-0.098	0.005
-227.727	-200.000	-0.044	-0.201
-226.713	-200.000	0.047	0.257
-225.698	-200.000	-0.045	0.416
-224.684	-20.765	-0.231	-0.141
-223.669	-200.000	-0.008	0.037
-222.655	322.168	-0.043	-0.081
-221.640	83.300	0.106	-0.115
-220.625	-21.491	-0.148	0.089
-219.611	133.875	0.319	0.409
-218.596	195.460	-0.079	0.119
-217.582	120.589	-0.200	0.246
-216.567	186.048	-0.118	0.174
-215.552	-71.468	0.293	0.108
-214.538	-44.559	-0.008	-0.004
-213.523	357.581	0.100	0.198
-212.509	95.174	-0.251	0.283
-211.494	-200.000	0.010	0.167
-210.479	-112.063	-0.120	0.024
-209.465	270.607	-0.195	-0.340
-208.450	350.168	0.086	0.168
-207.436	76.714	-0.088	0.092
-206.421	-161.446	-0.089	-0.005
-205.406	-74.060	-0.043	0.015
-204.392	-147.035	-0.074	0.006
-203.377	-91.052	-0.298	0.085
-202.363	-200.000	0.037	0.308
-201.348	135.324	-0.143	0.184
-200.333	390.374	0.073	0.150
-199.319	17.195	0.177	-0.139
-198.304	607.426	0.039	-0.097
-197.290	90.491	-0.169	0.187
-196.275	61.096	0.168	0.165
-195.260	-46.997	-0.219	0.106
-194.246	-94.962	0.266	0.071
-193.231	-16.427	0.267	0.167
-192.217	83.610	-0.105	0.113
-191.202	-200.000	-0.004	0.086
-190.187	800.000	0.039	-0.136
-189.173	36.146	0.205	-0.179
-188.158	734.128	0.139	0.368
-187.144	-200.000	-0.025	0.113
-186.129	-79.589	0.370	-0.124
-185.114	309.260	0.106	-0.196
-184.100	-200.000	-0.006	-0.294
-183.085	800.000	-0.026	-0.113
-182.071	800.000	-0.052	0.222
-181.056	20.829	-0.038	0.031
-180.042	-81.306	-0.138	-0.045
-179.027	63.185	-0.253	-0.251
-178.012	268.091	-0.035	-0.061
-176.998	657.602	0.065	0.165
-175.983	330.047	-0.124	-0.236
-174.969	800.000	-0.004	0.011
-173.954	-200.000	0.040	-0.190
-172.939	742.569	-0.019	0.050
-171.925	95.841	0.080	0.090
-170.910	-121.348	-0.134	0.022
-169.896	-52.330	0.200	0.091
-168.881	-74.712	-0.106	-0.038
-167.866	504.471	-0.087	0.198
-166.852	-97.333	0.263	-0.068
-165.837	800.000	-0.032	-0.108
-164.823	101.723	0.134	-0.154
-163.808	298.031	-0.091	-0.165
-162.793	-39.876	-0.472	-0.244
-161.779	-200.000	-0.025	0.123
-160.764	-200.000	0.026	0.262
-159.750	-50.321	-0.116	-0.054
-158.735	104.645	0.123	0.143
-157.720	120.852	0.144	0.177
-156.706	800.000	-0.080	0.251
-155.691	800.000	-0.031	0.128
-154.677	84.507	0.188	0.203
-153.662	61.849	-0.004	0.004
-152.647	-29.817	0.124	0.070
-151.633	-29.843	0.098	-0.055
-150.618	-27.561	-0.078	-0.045
-149.604	223.420	-0.063	0.101
-148.589	6.448	-0.042	-0.031
-147.574	472.898	-0.014	0.032
-146.560	-200.000	0.032	-0.155
-145.545	499.950	0.163	-0.372
-144.531	800.000	0.078	-0.225
-143.516	-184.428	-0.218	-0.004
-142.502	34.594	-0.171	0.148
-141.487	-200.000	0.027	-0.349
-140.472	800.000	0.007	-0.021
-139.458	-25.694	-0.237	-0.138
-138.443	52.657	0.184	0.174
-137.429	-12.209	0.282	0.182
-136.414	286.440	-0.079	-0.140
-135.399	248.031	0.230	0.383
-134.385	-149.595	0.085	-0.007
-133.370	2.086	0.377	0.269
-132.356	-15.914	0.365	0.229
-131.341	5.040	0.154	-0.112
-130.326	-62.541	0.102	0.042
-129.312	71.157	-0.214	0.219
-128.297	93.890	-0.123	0.138
-127.283	102.011	-0.098	0.113
-126.268	-58.426	-0.181	0.078
-125.253	353.336	-0.124	-0.243
-124.239	43.751	0.124	-0.112
-123.224	53.549	0.253	0.239
-122.210	118.180	0.140	-0.170
-121.195	295.817	0.034	-0.061
-120.180	41.282	0.247	0.220
-119.166	800.000	0.070	0.226
-118.151	-66.311	-0.103	-0.040
-117.137	-200.000	0.000	0.452
-116.122	-116.132	-0.118	-0.022
-115.107	372.376	-0.122	-0.244
-114.093	-36.735	0.050	0.027
-113.078	265.487	-0.176	0.303
-112.064	-20.839	-0.150	0.091
-111.049	-31.224	-0.354	0.196
-110.034	383.531	0.083	0.168
-109.020	142.413	0.200	0.262
-108.005	35.100	-0.358	0.309
-106.991	-182.200	-0.172	0.003
-105.976	-191.242	-0.358	-0.004
-104.962	-200.000	-0.018	0.192
-103.947	-53.761	-0.037	-0.017
-102.932	-46.923	0.116	0.056
-101.918	-9.698	-0.075	0.049
-100.903	7.069	-0.085	-0.062
-99.889	-200.000	0.011	0.126
-98.874	-11.786	0.129	0.083
-97.859	-200.000	-0.010	-0.375
-96.845	169.662	-0.094	0.133
-95.830	13.477	0.069	0.053
-94.816	57.845	0.144	-0.139
-93.801	800.000	-0.033	-0.114
-92.786	37.776	0.081	0.071
-91.772	-107.292	0.271	-0.059
-90.757	27.327	-0.045	0.037
-89.743	-120.916	0.182	0.030
-88.728	69.734	0.394	-0.401
-87.713	165.890	-0.074	0.103
-86.699	-112.666	0.129	-0.025
-85.684	800.000	-0.040	-0.156
-84.670	797.748	0.145	-0.393
-83.655	800.000	0.006	-0.024
-82.640	-200.000	-0.002	-0.057
-81.626	800.000	-0.056	-0.196
-80.611	-200.000	-0.038	0.267
-79.597	800.000	0.110	0.340
-78.582	-57.245	-0.188	-0.082
-77.567	-162.642	0.435	0.021
-76.553	-101.056	-0.175	-0.042
-75.538	-81.647	0.333	0.108
-74.524	-200.000	-0.046	0.240
-73.509	32.210	0.104	-0.089
-72.494	440.615	-0.088	0.190
-71.480	-59.208	0.200	-0.085
-70.465	800.000	0.071	0.258
-69.451	528.930	0.171	-0.397
-68.436	-200.000	0.029	-0.217
-67.422	15.612	-0.158	-0.122
-66.407	367.117	0.033	-0.065
-65.392	-200.000	-0.003	-0.167
-64.378	7.767	0.244	0.180
-63.363	800.000	-0.062	-0.260
-62.349	-130.189	-0.170	-0.023
-61.334	103.420	-0.844	-0.975
-60.319	-55.308	0.741	0.328
-59.305	-200.000	-0.090	-1.290
-58.290	264.514	0.563	0.965
-57.276	565.885	0.720	1.718
-56.261	-200.000	96.361	576.133
-55.246	554.902	1376.022	3258.589
-54.232	160.860	2550.095	3504.732
-53.217	112.293	2140.443	2546.940
-52.203	44.321	1604.125	1448.864
-51.188	36.317	1342.254	1164.263
-50.173	33.040	1299.981	1108.363
-49.159	54.701	1347.038	1278.233
-48.144	56.958	1364.044	1307.779
-47.130	36.453	1322.552	1147.796
-46.115	33.046	1305.048	1112.539
-45.100	32.738	1300.728	1107.007
-44.086	32.787	1297.997	1104.926
-43.071	32.625	1296.045	1102.271
-42.057	32.591	1293.872	1100.182
-41.042	32.598	1292.208	1098.765
-40.027	32.710	1290.330	1097.776
-39.013	32.699	1288.750	1096.328
-37.998	32.733	1286.854	1094.869
-36.984	32.744	1285.383	1093.638
-35.969	32.763	1283.690	1092.260
-34.954	32.751	1282.177	1090.861
-33.940	32.841	1280.169	1089.629
-32.925	32.841	1279.206	1088.768
-31.911	32.846	1277.740	1087.505
-30.896	32.905	1276.340	1086.609
-29.881	32.911	1274.357	1084.915
-28.867	32.863	1273.434	1083.806
-27.852	32.897	1271.601	1082.402
-26.838	32.874	1270.501	1081.292
-25.823	32.829	1269.274	1079.945
-24.809	32.928	1267.701	1079.130
-23.794	32.766	1266.031	1076.740
-22.779	32.871	1265.241	1076.623
-21.765	32.873	1263.801	1075.367
-20.750	32.807	1262.625	1073.947
-19.736	32.880	1260.868	1072.825
-18.721	32.728	1260.862	1071.914
-17.706	32.752	1259.181	1070.578
-16.692	32.820	1257.829	1069.775
-15.677	32.757	1256.950	1068.626
-14.663	32.726	1255.911	1067.526
-13.648	32.733	1255.133	1066.862
-12.633	32.785	1253.824	1065.997
-11.619	32.684	1253.301	1064.941
-10.604	32.628	1252.435	1063.847
-9.590	32.688	1251.191	1063.085
-8.575	32.718	1250.178	1062.354
-7.560	32.732	1248.993	1061.385
-6.546	32.740	1248.360	1060.849
-5.531	32.681	1247.276	1059.551
-4.517	32.668	1246.317	1058.626
-3.502	32.716	1245.798	1058.408
-2.487	32.683	1244.910	1057.429
-1.473	32.659	1241.115	1054.031
-0.458	31.335	1226.037	1033.864
0.556	28.191	1208.851	995.859
1.571	24.701	1214.065	980.953
2.586	23.885	1229.160	988.529
3.600	23.257	1219.075	976.866
4.615	17.176	1145.993	886.582
5.629	6.948	1068.821	776.781
6.644	2.357	1048.348	739.674
7.659	2.131	1045.700	736.651
8.673	1.940	1044.583	734.878
9.688	1.823	1042.893	733.063
10.702	2.341	1041.828	734.735
11.717	8.919	1051.394	773.224
12.731	19.156	1065.381	833.227
13.746	24.215	1071.638	862.602
14.761	25.092	1073.627	868.377
15.775	25.170	1072.162	867.495
16.790	25.080	1071.614	866.541
17.804	24.897	1071.350	865.364
18.819	25.151	1071.095	866.307
19.834	25.220	1070.178	865.825
20.848	25.332	1069.581	865.806
21.863	25.188	1069.637	865.079
22.877	25.238	1068.119	864.013
23.892	25.147	1067.756	863.209
24.907	25.181	1067.399	863.005
25.921	25.225	1066.197	862.170
26.936	25.146	1064.903	860.665
27.950	25.002	1063.382	858.673
28.965	24.984	1061.461	856.959
29.980	25.142	1059.595	856.130
30.994	25.241	1059.095	856.125
32.009	25.257	1058.305	855.486
33.023	25.044	1057.232	853.526
34.038	25.124	1056.010	852.848
35.053	25.143	1056.073	852.911
36.067	25.185	1055.070	852.224
37.082	25.240	1054.498	851.949
38.096	25.439	1053.458	851.979
39.111	25.494	1053.111	851.883
40.126	25.437	1051.356	850.119
41.140	25.014	1049.653	846.665
42.155	24.842	1048.564	844.899
43.169	24.950	1047.432	844.424
44.184	24.810	1047.022	843.360
45.199	24.718	1045.788	841.859
46.213	24.815	1044.795	841.438
47.228	25.082	1043.953	841.944
48.242	25.177	1043.454	841.911
49.257	25.257	1042.288	841.269
50.271	25.187	1042.034	840.665
51.286	25.211	1041.327	840.128
52.301	25.252	1040.500	839.581
53.315	25.265	1039.009	838.364
54.330	25.171	1038.451	837.401
55.344	25.163	1037.789	836.756
56.359	25.238	1036.956	836.358
57.374	24.995	1036.039	834.412
58.388	24.953	1035.324	833.567
59.403	24.906	1034.541	832.647
60.417	24.732	1033.708	831.093
61.432	24.951	1032.774	831.284
62.447	25.037	1032.608	831.475
63.461	24.963	1031.714	830.339
64.476	25.022	1030.191	829.315
65.490	24.873	1029.747	828.196
66.505	24.904	1029.176	827.804
67.520	24.890	1028.336	826.991
68.534	24.899	1026.662	825.614
69.549	24.458	1026.186	823.127
70.563	24.530	1024.987	822.421
71.578	24.443	1024.593	821.632
72.593	24.362	1023.425	820.249
73.607	24.510	1022.996	820.515
74.622	24.697	1022.660	821.030
75.636	24.739	1022.143	820.734
76.651	24.668	1020.948	819.377
77.666	24.552	1020.215	818.189
78.680	24.759	1019.307	818.334
79.695	24.839	1018.670	818.114
80.709	24.795	1018.256	817.511
81.724	24.753	1017.508	816.644
82.739	24.803	1016.872	816.290
83.753	25.182	1016.225	817.426
84.768	25.570	1015.619	818.632
85.782	25.662	1014.355	817.962
86.797	25.524	1013.297	816.408
87.812	25.313	1012.684	814.886
88.826	25.372	1011.443	814.082
89.841	25.570	1010.832	814.412
90.855	25.471	1009.735	813.012
91.870	25.280	1009.255	811.688
92.884	25.385	1008.197	811.241
93.899	25.292	1006.981	809.770
94.914	25.514	1006.062	809.961
95.928	25.271	1005.144	808.054
96.943	25.053	1003.828	805.947
97.957	24.790	1002.979	804.011
98.972	24.780	1001.712	802.880
99.987	25.088	1001.204	803.781
101.001	25.117	1000.779	803.500
102.016	25.105	1000.037	802.778
103.030	25.191	998.620	801.955
104.045	24.978	997.965	800.405
105.060	24.843	997.033	798.987
106.074	24.937	996.339	798.777
107.089	25.318	995.925	800.076
108.103	25.308	994.091	798.484
109.118	25.036	993.429	796.674
110.133	24.913	992.702	795.474
111.147	24.771	991.654	793.936
112.162	24.624	990.610	792.375
113.176	24.826	990.194	792.867
114.191	24.796	989.167	791.841
115.206	24.452	987.901	789.241
116.220	24.554	986.939	788.850
117.235	24.674	986.243	788.755
118.249	24.569	985.585	787.694
119.264	24.534	984.895	786.919
120.279	24.673	983.826	786.608
121.293	24.793	982.407	785.930
122.308	24.682	982.401	785.368
123.322	24.591	981.373	784.080
124.337	24.522	979.807	782.455
125.352	24.041	978.069	778.892
126.366	23.955	977.228	777.781
127.381	24.525	977.983	780.804
128.395	25.075	977.423	782.691
129.410	25.182	976.323	782.207
130.424	25.190	975.314	781.363
131.439	25.136	974.378	780.311
132.454	25.045	973.555	779.187
133.468	25.202	972.445	778.912
134.483	25.177	971.948	778.338
135.497	25.400	971.562	778.923
136.512	25.365	970.548	777.892
137.527	25.417	969.485	777.196
138.541	25.272	969.390	776.423
139.556	25.376	967.915	775.624
140.570	25.580	967.020	775.716
141.585	25.530	966.046	774.652
142.600	25.494	964.951	773.549
143.614	25.598	964.824	773.827
144.629	25.758	963.753	773.589
145.643	25.379	963.005	771.291
146.658	25.341	961.503	769.855
147.673	25.300	960.529	768.833
148.687	25.228	959.387	767.543
149.702	25.166	958.193	766.254
150.716	25.308	957.221	766.017
151.731	25.260	957.224	765.746
152.746	25.564	956.201	766.157
153.760	25.671	955.619	766.077
154.775	25.536	955.580	765.402
155.789	25.449	954.363	763.990
156.804	25.619	953.316	763.809
157.819	25.566	952.635	762.970
158.833	25.595	952.181	762.659
159.848	25.687	951.016	762.050
160.862	25.457	949.870	760.091
161.877	25.635	948.714	759.849
162.892	25.687	947.678	759.173
163.906	25.559	946.519	757.637
164.921	25.480	946.050	756.865
165.935	25.453	945.282	756.069
166.950	25.581	944.233	755.702
167.964	25.642	943.316	755.154
168.979	25.396	942.186	753.153
169.994	25.373	941.292	752.275
171.008	25.722	940.608	753.124
172.023	25.646	940.027	752.271
173.037	25.233	939.170	749.795
174.052	25.285	937.756	748.815
175.067	25.219	937.764	748.480
176.081	25.376	937.063	748.511
177.096	25.344	936.459	747.827
178.110	24.972	935.309	745.295
179.125	24.867	934.357	744.037
180.140	24.927	934.142	744.046
181.154	25.243	933.777	745.002
182.169	25.390	933.841	745.597
183.183	25.443	933.643	745.595
184.198	25.416	932.511	744.514
185.213	25.352	932.018	743.786
186.227	25.567	930.871	743.695
187.242	25.507	930.382	742.993
188.256	25.716	929.844	743.358
189.271	25.760	928.646	742.519
190.286	25.262	927.892	739.797
191.300	24.743	926.268	736.298
192.315	23.885	924.860	731.587
193.329	23.873	924.597	731.267
194.344	24.837	925.115	735.574
195.359	25.326	925.273	737.643
196.373	25.522	924.294	737.603
197.388	25.323	923.800	736.329
198.402	25.393	923.084	735.980
199.417	25.562	922.248	735.941
200.432	25.160	921.515	733.646
201.446	24.869	921.124	732.077
202.461	25.071	920.124	732.045
203.475	24.175	918.396	726.951
204.490	23.360	916.924	722.400
205.504	24.307	917.764	726.858
206.519	24.914	917.592	729.133
207.534	25.029	916.972	729.043
208.548	25.455	916.765	730.544
209.563	25.172	915.927	728.664
210.577	25.251	914.878	728.087
211.592	25.583	914.909	729.393
212.607	25.673	913.791	728.801
213.621	25.699	913.531	728.633
214.636	25.612	912.770	727.610
215.650	25.608	911.936	726.865
216.665	25.708	911.042	726.491
217.680	25.550	910.424	725.299
218.694	25.234	909.545	723.262
219.709	25.195	908.347	722.086
220.723	25.330	908.551	722.729
221.738	25.572	907.520	722.818
222.753	25.515	907.166	722.240
223.767	25.603	906.532	722.026
224.782	25.803	906.494	722.736
225.796	25.702	905.639	721.584
226.811	25.047	904.390	717.903
227.826	24.341	903.037	713.938
228.840	24.630	902.786	714.835
229.855	24.690	901.691	714.143
230.869	24.288	900.964	711.901
231.884	24.786	900.930	713.799
232.899	25.529	900.810	716.602
233.913	25.339	900.343	715.410
234.928	25.182	900.005	714.452
235.942	25.196	899.155	713.771
236.957	24.999	898.290	712.239
237.972	24.972	898.047	711.877
238.986	25.091	897.123	711.554
240.001	25.037	896.532	710.805
241.015	25.261	896.045	711.248
242.030	25.494	895.137	711.383
243.045	25.373	895.401	711.052
244.059	25.591	895.024	711.551
245.074	25.332	893.796	709.491
246.088	25.108	892.886	707.820
247.103	25.432	892.684	708.875
248.117	25.927	892.601	710.701
249.132	26.237	891.957	711.344
250.147	26.277	891.629	711.179
251.161	26.262	891.724	711.133
252.176	26.206	890.883	710.176
253.190	26.586	889.710	710.673
254.205	26.627	889.611	710.692
255.220	26.429	888.869	709.261
256.234	26.311	888.394	708.357
257.249	26.252	887.264	707.161
258.263	26.352	886.636	706.986
259.278	26.314	886.243	706.462
260.293	26.411	885.767	706.402
261.307	26.356	884.862	705.401
262.322	26.075	884.006	703.563
263.336	25.436	881.738	699.207
264.351	24.370	880.032	693.652
265.366	24.483	880.428	694.342
266.380	25.644	880.322	698.707
267.395	25.973	880.682	700.210
268.409	25.985	879.719	699.428
269.424	26.201	879.247	699.827
270.439	26.039	878.689	698.696
271.453	26.214	877.938	698.713
272.468	26.427	877.946	699.482
273.482	26.469	877.160	698.956
274.497	25.967	875.981	696.016
275.512	25.631	875.355	694.160
276.526	26.029	875.241	695.546
277.541	26.318	874.950	696.366
278.555	26.050	874.196	694.671
279.570	25.820	873.557	693.220
280.585	26.150	872.664	693.718
281.599	26.013	871.545	692.239
282.614	25.467	870.506	689.261
283.628	25.417	870.247	688.801
284.643	25.797	869.979	689.985
285.657	25.388	868.864	687.475
286.672	25.155	867.943	685.794
287.687	25.713	868.030	687.935
288.701	25.717	867.665	687.600
289.716	25.506	866.406	685.739
290.730	25.360	866.018	684.812
291.745	25.107	865.124	683.082
292.760	25.354	865.080	683.927
293.774	26.415	865.210	688.009
294.789	26.695	865.178	688.987
295.803	26.671	864.828	688.554
296.818	26.817	863.628	688.092
297.833	26.225	862.718	685.065
298.847	26.104	862.019	683.988
299.862	26.511	861.988	685.444
300.876	26.793	861.768	686.278
301.891	26.685	860.432	684.745
302.906	26.224	859.605	682.285
303.920	26.254	859.643	682.370
304.935	26.689	859.201	683.600
305.949	26.624	858.798	682.974
306.964	26.363	857.619	680.990
307.979	26.566	857.394	681.517
308.993	26.732	857.425	682.108
310.008	26.963	856.335	682.046
311.022	26.438	855.721	679.525
312.037	26.395	855.282	678.956
313.052	26.156	853.960	676.949
314.066	25.326	852.557	672.670
315.081	24.930	851.949	670.647
316.095	25.912	852.373	674.598
317.110	26.377	851.968	675.957
318.125	25.316	850.851	671.051
319.139	24.535	849.080	666.679
320.154	24.466	848.843	666.174
321.168	25.395	849.048	669.741
322.183	26.003	849.214	672.081
323.197	26.289	848.584	672.589
324.212	26.364	848.877	673.039
325.227	26.365	848.330	672.549
326.241	26.305	847.607	671.697
327.256	26.335	846.457	670.836
328.270	26.263	845.485	669.740
329.285	26.102	844.681	668.447
330.300	25.822	844.123	666.910
331.314	26.023	844.336	667.763
332.329	26.454	843.949	668.993
333.343	26.643	843.222	669.055
334.358	26.602	842.922	668.608
335.373	26.620	842.836	668.543
336.387	26.969	842.924	669.846
337.402	27.116	842.404	669.914
338.416	27.002	842.272	669.330
339.431	27.040	842.140	669.303
340.446	27.155	842.027	669.579
341.460	27.067	841.277	668.601
342.475	26.764	840.780	667.032
343.489	26.921	840.053	666.972
344.504	27.380	839.914	668.490
345.519	27.443	839.679	668.475
346.533	27.459	839.246	668.129
347.548	27.675	838.321	668.125
348.562	27.356	837.874	666.540
349.577	27.315	837.444	665.992
350.592	27.220	837.085	665.299
351.606	27.364	835.908	664.830
352.621	27.204	835.094	663.541
353.635	27.102	834.440	662.590
354.650	26.478	832.770	658.933
355.665	25.508	831.535	654.368
356.679	25.935	831.435	655.785
357.694	26.315	830.921	656.703
358.708	26.235	830.498	656.021
359.723	26.736	830.582	657.848
360.738	27.079	829.527	658.198
361.752	27.149	829.532	658.396
362.767	27.370	829.294	658.950
363.781	27.738	828.874	659.890
364.796	27.785	828.348	659.580
365.810	27.671	828.209	658.999
366.825	27.644	827.985	658.667
367.840	27.284	827.107	656.612
368.854	27.053	825.975	654.822
369.869	26.992	825.441	654.121
370.883	26.982	825.300	653.915
371.898	26.974	824.700	653.351
372.913	27.279	823.741	653.630
373.927	27.184	824.167	653.570
374.942	27.259	823.433	653.198
375.956	27.547	822.951	653.793
376.971	27.515	823.054	653.701
377.986	27.732	822.438	653.931
379.000	27.555	822.133	652.997
380.015	27.589	821.225	652.341
381.029	27.545	820.686	651.698
382.044	27.759	819.988	651.850
383.059	27.762	819.526	651.437
384.073	27.737	819.126	650.970
385.088	27.725	818.395	650.291
386.102	27.491	817.731	648.871
387.117	27.449	817.133	648.189
388.132	27.055	816.010	645.840
389.146	26.593	814.785	643.172
390.161	27.095	814.885	644.976
391.175	27.401	815.190	646.249
392.190	27.032	813.821	643.799
393.205	25.839	811.561	637.732
394.219	24.084	810.223	630.417
395.234	24.214	809.750	630.453
396.248	25.699	811.111	636.715
397.263	27.172	812.526	642.983
398.278	27.269	811.746	642.652
399.292	26.884	811.219	640.819
400.307	26.899	810.781	640.471
401.321	27.130	810.526	641.027
402.336	27.346	810.534	641.736
403.350	27.777	810.022	642.793
404.365	28.178	809.881	644.036
405.380	28.401	809.475	644.440
406.394	28.519	808.453	643.985
407.409	28.369	808.763	643.650
408.423	28.330	808.229	643.030
409.438	28.469	807.665	643.013
410.453	28.553	807.353	643.000
411.467	28.261	806.900	641.558
412.482	28.318	806.085	641.056
413.496	28.424	806.256	641.505
414.511	28.423	805.818	641.098
415.526	28.325	805.225	640.226
416.540	28.250	804.841	639.601
417.555	28.010	803.737	637.830
418.569	28.003	803.603	637.642
419.584	28.072	802.600	637.031
420.599	27.815	802.407	635.926
421.613	111.299	1285.106	1456.815
422.628	96.105	1355.405	1456.901
