DTS Sentinel unit serial number:	SN413079Multiplexer serial number:	ORYXHardware model number:	OX4-SRSoftware version number:	ORYX F/W v4.00 Oryx Data Collector v3.7.2.0data status	okinstallation	princeton_trtdifferential loss correction	single-endedforward channel	channel 1reverse channel	N/Adate	2019/09/12time	02:40:11forward acquisition time	60.00reverse acquisition time	0.00gamma	496.2192k internal	0.2322k external	0.2322temperature offset calibration	1.0077default loss term (dB/km)	0.3790temperature slope calibration	1.0000multiplexer offset coefficient	1.0000multiplexer slope coefficient	1.0000fibre end	0.00T internal ref (°C)	32.42T ext. ref 1 (°C)	2.08T ext. ref 2 (°C)	27.17length (m)	temperature (°C)	Stokes	anti-Stokes-747.200	599.941	0.107	0.269
-746.185	-62.120	-0.201	0.085
-745.171	-83.028	0.438	-0.143
-744.156	182.826	-0.120	0.178
-743.142	-38.571	0.182	0.097
-742.127	126.549	-0.210	0.268
-741.112	27.695	0.117	-0.100
-740.098	-158.321	0.231	0.014
-739.083	252.531	0.213	0.367
-738.069	-87.662	-0.417	0.127
-737.054	-156.778	-0.395	-0.025
-736.039	123.968	-0.199	-0.253
-735.025	-161.606	0.125	-0.006
-734.010	-200.000	0.067	0.339
-732.996	800.000	-0.039	0.121
-731.981	15.579	-0.149	-0.118
-730.966	-44.536	-0.181	-0.091
-729.952	147.505	0.090	-0.122
-728.937	793.655	0.058	0.160
-727.923	39.420	-0.235	-0.212
-726.908	712.082	-0.106	-0.283
-725.894	26.895	0.229	-0.194
-724.879	142.931	-0.104	0.140
-723.864	247.843	0.132	0.225
-722.850	190.408	-0.123	-0.187
-721.835	43.259	-0.331	-0.305
-720.821	141.690	-0.086	0.115
-719.806	-59.215	-0.334	0.145
-718.791	-120.180	0.376	-0.065
-717.777	-80.663	-0.361	-0.121
-716.762	-37.430	-0.299	-0.161
-715.748	57.822	-0.179	-0.176
-714.733	-67.215	-0.345	0.137
-713.718	76.531	0.113	0.121
-712.704	245.280	0.170	0.288
-711.689	122.484	-0.278	-0.351
-710.675	800.000	-0.033	-0.133
-709.660	291.381	-0.135	-0.248
-708.645	450.434	0.153	-0.341
-707.631	-113.579	0.164	-0.032
-706.616	-42.102	0.416	-0.215
-705.602	-200.000	0.023	-0.115
-704.587	307.164	-0.073	-0.136
-703.572	5.678	-0.177	-0.132
-702.558	-74.793	-0.080	0.029
-701.543	-200.000	-0.034	-0.245
-700.529	241.391	0.074	-0.124
-699.514	-36.446	-0.049	-0.027
-698.499	213.711	0.131	-0.210
-697.485	82.335	0.068	-0.075
-696.470	-92.941	0.127	0.036
-695.456	-118.102	0.194	0.035
-694.441	-200.000	-0.005	-0.051
-693.426	-33.142	-0.175	0.098
-692.412	-161.779	0.039	0.002
-691.397	-117.881	0.233	-0.042
-690.383	575.100	0.034	-0.082
-689.368	-43.781	-0.245	-0.124
-688.354	800.000	0.112	-0.326
-687.339	317.873	-0.027	-0.051
-686.324	215.825	0.066	0.106
-685.310	337.502	-0.152	0.297
-684.295	56.750	0.089	-0.087
-683.281	-112.624	0.146	0.029
-682.266	-114.969	0.439	-0.084
-681.251	496.752	0.095	0.221
-680.237	-7.336	-0.133	-0.091
-679.222	-102.973	-0.264	0.063
-678.208	527.642	0.044	0.106
-677.193	584.425	-0.054	0.134
-676.178	68.545	0.102	-0.105
-675.164	-41.325	-0.230	-0.119
-674.149	142.800	0.269	-0.360
-673.135	50.706	0.232	0.221
-672.120	256.131	-0.163	-0.282
-671.105	-156.943	0.100	-0.006
-670.091	800.000	-0.109	0.340
-669.076	179.585	0.022	0.032
-668.062	-200.000	0.014	0.178
-667.047	263.528	0.085	-0.149
-666.032	800.000	-0.050	0.160
-665.018	-200.000	-0.003	-0.147
-664.003	158.486	0.118	-0.165
-662.989	-142.563	0.237	-0.023
-661.974	754.623	0.072	0.196
-660.959	-66.401	0.248	-0.099
-659.945	-66.495	-0.155	0.062
-658.930	-61.746	0.195	-0.082
-657.916	86.805	-0.105	0.117
-656.901	17.324	0.151	-0.121
-655.886	-200.000	-0.002	0.023
-654.872	-31.166	0.316	-0.179
-653.857	-200.000	0.005	0.155
-652.843	39.744	-0.161	-0.146
-651.828	269.101	-0.120	0.211
-650.814	-200.000	-0.035	0.364
-649.799	-200.000	-0.037	-0.173
-648.784	-133.267	-0.232	0.029
-647.770	-200.000	-0.012	-0.282
-646.755	-57.607	-0.073	-0.032
-645.741	-38.824	0.241	-0.128
-644.726	800.000	-0.079	0.294
-643.711	84.989	0.107	0.118
-642.697	800.000	0.055	0.165
-641.682	-120.158	-0.063	-0.011
-640.668	92.497	-0.118	0.134
-639.653	63.221	0.190	-0.191
-638.638	-83.251	0.094	0.030
-637.624	-200.000	-0.059	-0.480
-636.609	-62.522	-0.104	-0.043
-635.595	472.463	-0.160	0.363
-634.580	-99.266	-0.063	0.016
-633.565	-102.507	0.137	0.033
-632.551	-134.329	-0.240	-0.030
-631.536	44.542	0.309	0.286
-630.522	100.247	-0.155	-0.180
-629.507	-200.000	-0.329	0.001
-628.492	9.934	-0.162	0.123
-627.478	-57.074	-0.317	0.140
-626.463	-200.000	-0.019	0.438
-625.449	673.202	-0.095	0.249
-624.434	800.000	0.019	-0.074
-623.419	-200.000	0.011	-0.132
-622.405	-160.624	-0.401	-0.021
-621.390	69.776	-0.203	0.210
-620.376	800.000	-0.025	0.078
-619.361	-200.000	0.054	0.347
-618.346	60.471	-0.233	-0.232
-617.332	-66.191	0.195	-0.078
-616.317	-200.000	0.002	-0.022
-615.303	195.074	0.126	-0.193
-614.288	24.130	0.235	-0.195
-613.273	800.000	0.097	-0.291
-612.259	-144.819	0.218	-0.020
-611.244	-146.991	0.124	0.011
-610.230	-1.911	0.207	-0.146
-609.215	-200.000	0.048	0.212
-608.201	127.782	-0.057	0.073
-607.186	255.249	0.080	0.138
-606.171	-101.193	-0.345	-0.085
-605.157	800.000	0.073	0.291
-604.142	-87.258	0.165	0.050
-603.128	431.341	0.044	-0.095
-602.113	-200.000	0.000	-0.071
-601.098	128.114	-0.287	0.367
-600.084	324.346	-0.239	-0.458
-599.069	-24.770	-0.044	-0.027
-598.055	-159.133	0.258	0.015
-597.040	-20.546	-0.082	-0.050
-596.025	-170.466	-0.151	-0.005
-595.011	800.000	0.038	0.117
-593.996	-114.249	-0.132	-0.026
-592.982	97.362	0.093	-0.107
-591.967	60.862	0.145	-0.145
-590.952	42.826	0.086	-0.079
-589.938	88.177	-0.099	0.111
-588.923	-94.610	0.302	0.082
-587.909	-117.811	0.306	-0.055
-586.894	195.582	-0.063	-0.097
-585.879	248.251	-0.057	0.096
-584.865	648.540	-0.058	0.150
-583.850	-200.000	-0.314	0.001
-582.836	208.964	-0.037	0.058
-581.821	91.615	0.192	0.216
-580.806	800.000	-0.051	-0.154
-579.792	489.315	-0.092	-0.211
-578.777	-129.862	-0.221	-0.031
-577.763	-138.251	0.519	-0.058
-576.748	-200.000	-0.003	0.457
-575.733	800.000	0.079	-0.292
-574.719	-170.721	-0.349	0.012
-573.704	-148.841	0.191	0.015
-572.690	13.143	-0.117	0.091
-571.675	156.254	0.061	0.084
-570.661	54.755	0.159	-0.154
-569.646	41.317	0.273	0.248
-568.631	55.321	-0.145	-0.140
-567.617	-200.000	0.061	-0.272
-566.602	166.582	-0.143	0.203
-565.588	-54.599	-0.207	-0.094
-564.573	105.870	0.151	-0.179
-563.558	-200.000	-0.033	0.243
-562.544	-34.626	0.336	-0.184
-561.529	-200.000	0.062	-0.316
-560.515	-200.000	-0.016	-0.106
-559.500	-32.093	-0.288	0.162
-558.485	672.635	0.015	-0.039
-557.471	-23.954	0.179	-0.108
-556.456	-119.576	-0.113	-0.020
-555.442	423.979	0.082	0.177
-554.427	-89.972	-0.227	0.066
-553.412	51.118	-0.178	0.169
-552.398	135.185	0.360	0.470
-551.383	-97.736	0.228	-0.059
-550.369	383.623	0.067	0.138
-549.354	240.354	-0.113	-0.189
-548.339	-200.000	-0.072	-0.375
-547.325	-28.257	-0.155	-0.090
-546.310	-46.333	0.176	0.087
-545.296	513.525	0.075	0.176
-544.281	191.217	-0.172	-0.259
-543.266	800.000	0.056	-0.224
-542.252	-110.977	-0.101	0.021
-541.237	-26.703	-0.164	-0.096
-540.223	-53.030	-0.260	-0.120
-539.208	-69.915	0.168	-0.064
-538.193	-136.062	0.061	0.007
-537.179	178.391	-0.174	-0.254
-536.164	800.000	-0.063	-0.256
-535.150	381.533	0.061	0.125
-534.135	0.378	-0.157	0.112
-533.121	-200.000	-0.022	-0.340
-532.106	800.000	-0.081	-0.275
-531.091	-47.821	-0.028	-0.013
-530.077	800.000	0.016	-0.065
-529.062	344.971	-0.143	-0.282
-528.048	800.000	0.082	0.226
-527.033	-97.100	0.380	0.100
-526.018	-161.611	-0.152	-0.008
-525.004	263.170	-0.239	-0.416
-523.989	370.509	-0.181	-0.368
-522.975	-200.000	0.023	-0.394
-521.960	381.913	-0.109	-0.223
-520.945	-153.647	0.304	0.021
-519.931	66.607	0.251	0.255
-518.916	213.699	0.172	0.272
-517.902	-8.641	0.189	-0.127
-516.887	779.351	-0.110	-0.302
-515.872	34.328	0.202	0.176
-514.858	7.230	0.142	0.106
-513.843	631.297	-0.058	-0.146
-512.829	-200.000	-0.017	0.121
-511.814	800.000	-0.125	-0.415
-510.799	52.331	0.125	-0.119
-509.785	36.489	0.236	-0.208
-508.770	80.323	-0.074	0.080
-507.756	-200.000	-0.234	0.001
-506.741	743.141	0.059	-0.160
-505.726	-107.045	-0.131	0.029
-504.712	800.000	0.079	0.270
-503.697	162.562	0.070	-0.098
-502.683	-71.630	-0.092	0.034
-501.668	121.446	-0.124	0.154
-500.653	-147.907	0.296	0.025
-499.639	-41.033	0.056	0.029
-498.624	-142.951	0.110	-0.011
-497.610	99.997	-0.258	0.299
-496.595	-95.879	-0.172	0.046
-495.581	-176.637	-0.673	0.017
-494.566	-200.000	0.020	-0.192
-493.551	-200.000	0.005	0.116
-492.537	350.642	0.016	0.031
-491.522	-78.292	-0.267	0.092
-490.508	800.000	0.076	0.240
-489.493	169.293	-0.180	-0.257
-488.478	253.653	-0.121	-0.207
-487.464	-66.104	0.345	-0.138
-486.449	800.000	0.086	-0.244
-485.435	-61.367	-0.269	0.113
-484.420	-122.560	0.243	-0.039
-483.405	241.420	0.027	-0.045
-482.391	-105.272	0.267	-0.061
-481.376	793.940	-0.061	-0.168
-480.362	-152.613	-0.221	0.016
-479.347	-97.057	-0.191	-0.050
-478.332	427.323	-0.177	-0.383
-477.318	-65.546	-0.041	-0.016
-476.303	484.491	-0.242	0.550
-475.289	-143.927	-0.043	0.004
-474.274	-200.000	-0.005	0.139
-473.259	5.126	0.154	-0.114
-472.245	79.506	-0.161	-0.173
-471.230	-200.000	-0.018	-0.132
-470.216	-173.717	0.201	0.006
-469.201	-108.522	0.200	0.043
-468.186	95.948	0.155	0.177
-467.172	21.320	0.186	0.151
-466.157	-14.177	0.241	-0.155
-465.143	172.010	-0.114	-0.163
-464.128	-200.000	0.031	-0.206
-463.113	213.564	-0.126	0.200
-462.099	-53.144	0.363	0.167
-461.084	-200.000	0.003	0.210
-460.070	-53.108	0.184	0.085
-459.055	800.000	-0.062	0.266
-458.040	-200.000	-0.003	0.125
-457.026	-131.338	0.131	-0.017
-456.011	-200.000	0.058	0.260
-454.997	581.602	0.115	0.282
-453.982	-52.564	0.359	-0.166
-452.968	-182.983	0.205	-0.004
-451.953	800.000	-0.040	0.124
-450.938	715.808	0.140	-0.370
-449.924	-51.957	0.105	0.049
-448.909	-133.940	-0.212	0.026
-447.895	110.388	-0.242	0.290
-446.880	-0.300	0.156	0.111
-445.865	-200.000	0.002	-0.120
-444.851	800.000	-0.065	0.261
-443.836	-200.000	-0.042	0.393
-442.822	-105.104	-0.295	0.067
-441.807	800.000	-0.129	0.444
-440.792	-200.000	0.019	-0.138
-439.778	-200.000	-0.063	-0.425
-438.763	-90.013	0.373	0.109
-437.749	2.991	0.155	-0.113
-436.734	800.000	-0.075	-0.295
-435.719	-42.967	-0.125	0.063
-434.705	-155.833	-0.143	0.009
-433.690	168.769	0.078	0.111
-432.676	-83.138	-0.204	-0.065
-431.661	-153.589	0.068	0.005
-430.646	-1.165	0.159	-0.112
-429.632	-200.000	0.025	-0.247
-428.617	-7.116	-0.303	-0.205
-427.603	-87.499	-0.250	-0.076
-426.588	-200.000	-0.079	0.422
-425.573	46.420	0.157	0.146
-424.559	-66.543	-0.096	-0.038
-423.544	-31.209	0.120	0.067
-422.530	-34.472	-0.226	0.124
-421.515	-99.213	-0.289	-0.073
-420.500	615.209	-0.130	-0.326
-419.486	800.000	-0.053	0.170
-418.471	34.810	0.107	0.093
-417.457	-200.000	-0.019	-0.144
-416.442	592.763	-0.134	0.331
-415.428	299.463	0.178	-0.327
-414.413	-170.664	-0.135	0.005
-413.398	-32.045	-0.105	0.059
-412.384	-87.800	-0.062	-0.019
-411.369	55.920	-0.210	-0.203
-410.355	-71.410	0.215	-0.080
-409.340	-6.544	-0.080	-0.054
-408.325	192.074	0.046	0.069
-407.311	-200.000	-0.013	0.120
-406.296	149.273	0.076	-0.102
-405.282	-171.361	-0.167	-0.006
-404.267	-53.398	-0.038	-0.017
-403.252	-14.820	-0.313	0.200
-402.238	800.000	0.108	0.461
-401.223	-0.678	-0.249	-0.176
-400.209	407.190	-0.075	0.158
-399.194	114.734	0.272	-0.330
-398.179	-19.128	0.150	0.093
-397.165	-200.000	0.025	0.404
-396.150	-115.955	-0.090	0.017
-395.136	230.800	-0.158	-0.258
-394.121	-200.000	-0.056	-0.336
-393.106	-49.817	-0.174	-0.082
-392.092	116.122	0.227	-0.277
-391.077	244.375	0.017	0.029
-390.063	-200.000	0.071	-0.358
-389.048	195.925	-0.124	0.189
-388.033	44.644	-0.133	0.121
-387.019	226.195	-0.149	0.241
-386.004	703.928	0.107	0.280
-384.990	800.000	0.028	0.092
-383.975	260.121	-0.026	-0.045
-382.960	-140.155	-0.201	-0.021
-381.946	800.000	0.145	0.518
-380.931	800.000	-0.082	-0.230
-379.917	486.300	0.183	-0.416
-378.902	78.074	0.259	-0.276
-377.888	42.663	0.338	-0.306
-376.873	-50.247	-0.146	0.069
-375.858	-164.486	-0.282	0.013
-374.844	128.034	-0.098	0.124
-373.829	117.272	-0.052	0.063
-372.815	72.083	-0.161	0.167
-371.800	-10.209	0.224	0.148
-370.785	119.185	0.095	0.118
-369.771	-99.945	0.148	0.037
-368.756	62.571	-0.219	0.218
-367.742	-19.863	0.267	0.164
-366.727	-63.696	0.259	0.106
-365.712	-200.000	0.052	0.282
-364.698	-157.405	-0.177	0.011
-363.683	254.722	-0.053	-0.090
-362.669	-200.000	0.078	-0.388
-361.654	504.528	0.041	0.095
-360.639	-117.812	0.207	-0.037
-359.625	52.942	-0.281	-0.268
-358.610	71.452	0.113	-0.117
-357.596	-76.477	0.106	-0.037
-356.581	-64.401	0.133	0.054
-355.566	-74.227	-0.136	-0.049
-354.552	273.641	0.118	-0.207
-353.537	-200.000	-0.044	0.367
-352.523	574.992	0.075	-0.183
-351.508	-10.762	-0.110	0.072
-350.493	-83.535	-0.299	0.095
-349.479	-170.044	-0.110	0.004
-348.464	609.537	0.128	-0.317
-347.450	-96.379	0.291	0.077
-346.435	-200.000	0.001	0.260
-345.420	-127.605	0.203	-0.029
-344.406	-61.075	0.193	-0.081
-343.391	-28.906	0.138	0.079
-342.377	-0.499	-0.105	-0.074
-341.362	-110.707	0.333	0.068
-340.348	-200.000	0.064	0.569
-339.333	69.415	0.204	0.209
-338.318	-155.113	0.289	-0.019
-337.304	-130.129	-0.160	-0.022
-336.289	98.884	0.148	0.170
-335.275	-200.000	0.000	0.079
-334.260	-200.000	0.036	-0.303
-333.245	254.902	-0.068	-0.115
-332.231	-4.613	0.149	0.102
-331.216	323.366	-0.161	-0.305
-330.202	-200.000	0.027	0.134
-329.187	-200.000	-0.031	0.233
-328.172	-139.238	-0.193	-0.021
-327.158	-116.679	0.255	-0.047
-326.143	393.487	-0.129	0.267
-325.129	34.536	-0.208	-0.180
-324.114	44.056	0.140	0.128
-323.099	180.835	0.138	0.201
-322.085	-15.255	-0.238	0.151
-321.070	636.038	0.048	0.121
-320.056	224.745	0.164	0.263
-319.041	42.643	-0.262	-0.237
-318.026	778.078	0.074	-0.200
-317.012	-24.097	0.302	-0.179
-315.997	304.594	0.089	0.164
-314.983	240.733	0.059	0.098
-313.968	800.000	-0.141	0.398
-312.953	-200.000	0.032	0.308
-311.939	265.367	-0.040	-0.070
-310.924	194.283	-0.112	-0.169
-309.910	-200.000	-0.033	0.276
-308.895	81.671	0.082	0.089
-307.880	800.000	-0.107	0.453
-306.866	-25.689	0.118	-0.069
-305.851	-36.324	0.403	0.216
-304.837	-200.000	0.013	-0.227
-303.822	733.593	-0.143	0.379
-302.807	-36.680	0.325	-0.173
-301.793	101.475	-0.147	-0.170
-300.778	322.403	-0.097	0.184
-299.764	-95.907	-0.169	0.045
-298.749	366.012	-0.160	0.320
-297.735	7.903	0.193	0.144
-296.720	-76.412	0.268	-0.094
-295.705	-56.274	-0.241	0.106
-294.691	419.616	-0.033	0.070
-293.676	-106.801	0.128	-0.028
-292.662	800.000	0.081	-0.224
-291.647	800.000	-0.032	0.108
-290.632	51.711	-0.194	0.183
-289.618	-76.490	0.054	0.019
-288.603	-137.649	0.183	-0.020
-287.589	-160.741	0.204	0.011
-286.574	132.271	-0.253	-0.324
-285.559	-153.399	0.081	-0.006
-284.545	-200.000	0.006	0.057
-283.530	193.579	0.124	0.186
-282.516	-26.684	0.116	-0.068
-281.501	37.815	0.115	-0.101
-280.486	615.097	0.091	0.226
-279.472	-200.000	-0.037	-0.292
-278.457	800.000	0.059	-0.226
-277.443	36.046	0.037	0.033
-276.428	-68.045	0.230	-0.089
-275.413	254.537	0.128	0.217
-274.399	-42.207	0.165	-0.084
-273.384	353.717	-0.091	-0.180
-272.370	-169.239	0.042	0.002
-271.355	68.710	0.249	0.253
-270.340	133.549	-0.052	0.067
-269.326	374.992	0.033	0.068
-268.311	273.419	0.131	-0.229
-267.297	253.050	-0.039	-0.067
-266.282	-101.902	0.301	-0.072
-265.267	800.000	-0.041	-0.150
-264.253	-110.558	-0.128	-0.026
-263.238	800.000	0.093	-0.378
-262.224	-59.305	-0.235	-0.100
-261.209	9.292	0.069	0.052
-260.195	12.388	0.178	0.136
-259.180	-95.634	-0.498	0.132
-258.165	-121.956	0.215	0.035
-257.151	-200.000	-0.008	0.136
-256.136	800.000	0.084	0.260
-255.122	-73.611	-0.201	0.073
-254.107	238.553	-0.060	-0.100
-253.092	92.361	0.172	-0.193
-252.078	800.000	-0.094	-0.287
-251.063	-83.365	0.097	-0.031
-250.049	-200.000	-0.029	-0.246
-249.034	510.457	0.145	-0.334
-248.019	-200.000	0.025	-0.241
-247.005	9.994	-0.190	-0.143
-245.990	-15.330	0.231	0.146
-244.976	800.000	0.104	0.373
-243.961	216.360	-0.137	0.215
-242.946	530.937	-0.012	-0.028
-241.932	-14.706	0.012	-0.008
-240.917	100.117	-0.161	-0.184
-239.903	366.099	-0.156	-0.311
-238.888	-111.807	0.137	-0.028
-237.873	211.671	0.114	0.177
-236.859	5.661	-0.099	-0.072
-235.844	-200.000	0.031	-0.354
-234.830	596.215	-0.150	-0.368
-233.815	0.025	-0.222	-0.156
-232.800	76.541	0.093	-0.098
-231.786	189.470	-0.132	-0.195
-230.771	78.215	-0.239	-0.253
-229.757	-200.000	-0.009	0.190
-228.742	51.558	0.075	-0.071
-227.727	-200.000	-0.050	0.341
-226.713	-24.628	0.122	-0.072
-225.698	334.351	-0.035	-0.068
-224.684	31.387	0.215	-0.183
-223.669	-156.288	0.145	-0.009
-222.655	295.007	0.045	0.082
-221.640	724.388	-0.027	0.072
-220.625	430.334	-0.120	0.257
-219.611	-200.000	0.007	-0.273
-218.596	98.015	0.117	-0.133
-217.582	-105.156	0.352	-0.080
-216.567	800.000	0.027	0.114
-215.552	88.201	0.085	0.094
-214.538	-200.000	-0.001	0.112
-213.523	-200.000	0.019	0.392
-212.509	-76.761	-0.200	0.069
-211.494	260.666	0.095	-0.163
-210.479	-112.334	-0.125	0.025
-209.465	258.672	-0.140	0.239
-208.450	800.000	0.021	-0.063
-207.436	-77.500	-0.174	0.060
-206.421	-200.000	-0.034	0.215
-205.406	-200.000	-0.002	0.064
-204.392	4.103	-0.139	-0.100
-203.377	-75.056	0.254	0.090
-202.363	97.711	0.067	0.076
-201.348	144.916	0.143	0.190
-200.333	-200.000	0.009	0.235
-199.319	85.984	-0.135	-0.147
-198.304	-85.529	0.222	-0.068
-197.290	57.532	-0.219	-0.211
-196.275	15.889	-0.213	-0.166
-195.260	-99.898	-0.357	-0.088
-194.246	-66.051	-0.240	-0.095
-193.231	260.063	-0.125	-0.214
-192.217	-200.000	0.040	0.274
-191.202	-82.913	-0.175	0.056
-190.187	-24.843	0.247	-0.145
-189.173	162.974	0.189	0.262
-188.158	153.750	-0.201	-0.272
-187.144	181.584	-0.195	-0.284
-186.129	-167.818	0.177	0.007
-185.114	0.785	-0.065	0.046
-184.100	800.000	0.092	0.265
-183.085	-3.357	-0.209	0.144
-182.071	626.085	0.062	0.155
-181.056	355.453	-0.103	0.203
-180.042	30.537	0.273	-0.231
-179.027	145.147	0.198	-0.262
-178.012	-200.000	0.045	-0.287
-176.998	43.973	-0.332	0.300
-175.983	197.718	-0.065	-0.098
-174.969	6.228	0.235	0.173
-173.954	-9.326	-0.131	-0.087
-172.939	-113.265	-0.108	0.021
-171.925	-200.000	-0.040	0.249
-170.910	534.945	0.046	0.107
-169.896	-200.000	0.231	-0.001
-168.881	800.000	-0.038	0.151
-167.866	61.302	0.103	-0.101
-166.852	-65.947	0.257	0.101
-165.837	-130.491	-0.059	0.008
-164.823	-200.000	0.036	0.358
-163.808	-149.778	-0.344	-0.027
-162.793	800.000	-0.073	-0.249
-161.779	-92.597	0.304	-0.084
-160.764	-43.825	-0.206	-0.102
-159.750	-73.230	-0.331	0.120
-158.735	299.421	0.210	-0.381
-157.720	9.697	-0.337	-0.252
-156.706	-38.030	0.054	-0.028
-155.691	-200.000	-0.015	0.287
-154.677	31.950	-0.193	-0.165
-153.662	54.188	-0.205	-0.195
-152.647	-78.770	0.116	0.039
-151.633	-200.000	-0.017	0.315
-150.618	163.138	-0.127	-0.176
-149.604	30.877	-0.340	-0.287
-148.589	-56.941	0.512	-0.223
-147.574	175.378	-0.091	0.131
-146.560	90.410	0.121	0.134
-145.545	50.162	0.098	-0.091
-144.531	173.604	0.058	-0.082
-143.516	-32.798	-0.062	-0.034
-142.502	-20.808	0.225	0.136
-141.487	31.998	-0.186	0.158
-140.472	800.000	-0.061	-0.252
-139.458	-200.000	-0.001	0.060
-138.443	-115.590	-0.235	0.044
-137.429	-200.000	-0.035	-0.364
-136.414	-51.509	0.103	-0.047
-135.399	-200.000	-0.001	0.166
-134.385	344.496	-0.064	-0.124
-133.370	-127.754	-0.259	-0.037
-132.356	800.000	0.071	0.249
-131.341	-75.032	-0.059	0.021
-130.326	146.758	0.053	0.070
-129.312	800.000	0.028	0.081
-128.297	-80.422	-0.292	0.096
-127.283	-200.000	-0.008	-0.172
-126.268	-42.452	0.125	0.063
-125.253	-113.237	0.147	-0.028
-124.239	380.107	-0.022	-0.044
-123.224	-22.885	0.206	0.123
-122.210	-200.000	-0.017	0.143
-121.195	29.327	0.279	-0.233
-120.180	-49.838	0.047	0.022
-119.166	82.715	-0.085	-0.091
-118.151	-51.483	0.306	-0.141
-117.137	95.179	-0.171	0.192
-116.122	-96.244	-0.327	-0.086
-115.107	6.377	-0.106	0.078
-114.093	197.208	0.148	-0.223
-113.078	-169.941	0.226	-0.008
-112.064	52.220	-0.113	0.106
-111.049	12.765	-0.170	-0.129
-110.034	90.389	-0.175	-0.193
-109.020	-105.262	-0.429	0.097
-108.005	122.992	0.240	0.296
-106.991	800.000	0.066	0.179
-105.976	800.000	0.058	-0.168
-104.962	205.621	0.103	0.157
-103.947	-200.000	-0.000	0.116
-102.932	800.000	-0.080	-0.222
-101.918	-64.618	0.138	-0.055
-100.903	663.004	-0.061	-0.156
-99.889	-74.784	-0.011	0.004
-98.874	-93.096	-0.149	-0.041
-97.859	150.131	0.177	-0.237
-96.845	-200.000	-0.044	-0.405
-95.830	-107.107	0.510	-0.111
-94.816	355.463	-0.078	0.153
-93.801	389.697	-0.118	-0.242
-92.786	62.460	0.110	0.108
-91.772	-111.476	0.462	-0.093
-90.757	11.134	0.253	0.191
-89.743	-32.089	-0.166	0.091
-88.728	16.087	-0.130	-0.101
-87.713	108.203	-0.089	-0.104
-86.699	-200.000	0.072	0.341
-85.684	-103.340	0.332	-0.077
-84.670	181.008	0.210	0.303
-83.655	-90.630	0.060	0.017
-82.640	-200.000	-0.007	-0.508
-81.626	58.972	-0.040	-0.039
-80.611	195.415	-0.145	-0.218
-79.597	-200.000	-0.002	0.033
-78.582	-88.998	-0.193	0.056
-77.567	-165.984	-0.076	-0.003
-76.553	68.429	0.133	0.134
-75.538	800.000	0.123	0.496
-74.524	-54.857	-0.406	0.181
-73.509	800.000	-0.076	-0.295
-72.494	508.640	0.016	-0.037
-71.480	-198.331	-0.096	-0.001
-70.465	351.502	-0.253	0.494
-69.451	-113.387	0.340	0.066
-68.436	-128.614	0.220	-0.031
-67.422	571.548	-0.094	0.225
-66.407	-200.000	0.016	-0.118
-65.392	-149.892	0.238	0.018
-64.378	-39.459	-0.161	0.083
-63.363	-42.374	0.360	0.181
-62.349	-200.000	0.000	0.150
-61.334	131.860	-0.956	-1.210
-60.319	54.233	0.449	0.425
-59.305	800.000	-0.320	-0.923
-58.290	171.645	0.642	0.907
-57.276	245.678	0.821	1.360
-56.261	-200.000	95.723	584.649
-55.246	561.241	1367.131	3250.599
-54.232	162.860	2539.385	3506.518
-53.217	113.508	2135.281	2549.755
-52.203	44.095	1600.984	1443.657
-51.188	35.972	1339.350	1159.055
-50.173	32.786	1297.699	1104.347
-49.159	54.395	1345.120	1273.940
-48.144	56.854	1360.964	1303.524
-47.130	36.112	1320.244	1143.172
-46.115	32.652	1302.859	1107.775
-45.100	32.404	1298.104	1102.239
-44.086	32.290	1295.975	1099.718
-43.071	32.301	1293.422	1097.575
-42.057	32.253	1291.402	1095.536
-41.042	32.339	1289.559	1094.431
-40.027	32.363	1288.043	1093.237
-39.013	32.406	1285.809	1091.552
-37.998	32.279	1284.774	1089.888
-36.984	32.316	1283.231	1088.751
-35.969	32.358	1281.403	1087.400
-34.954	32.572	1278.833	1086.412
-33.940	32.546	1277.478	1085.066
-32.925	32.602	1276.640	1084.634
-31.911	32.460	1275.436	1082.754
-30.896	32.507	1273.406	1081.256
-29.881	32.631	1272.070	1080.793
-28.867	32.500	1271.387	1079.419
-27.852	32.684	1268.906	1078.321
-26.838	32.514	1267.735	1076.308
-25.823	32.571	1266.372	1075.435
-24.809	32.514	1265.144	1074.023
-23.794	32.507	1264.014	1072.981
-22.779	32.483	1263.106	1072.036
-21.765	32.459	1261.886	1070.817
-20.750	32.521	1260.303	1069.785
-19.736	32.506	1258.937	1068.495
-18.721	32.366	1257.764	1066.668
-17.706	32.278	1256.762	1065.276
-16.692	32.406	1255.453	1064.850
-15.677	32.435	1254.155	1063.867
-14.663	32.348	1253.384	1062.680
-13.648	32.267	1252.089	1061.085
-12.633	32.288	1251.641	1060.781
-11.619	32.353	1250.634	1060.252
-10.604	32.290	1250.021	1059.333
-9.590	32.257	1248.677	1057.967
-8.575	32.363	1247.473	1057.500
-7.560	32.274	1246.945	1056.512
-6.546	32.373	1245.634	1055.914
-5.531	32.336	1244.842	1054.994
-4.517	32.366	1244.043	1054.442
-3.502	32.339	1243.214	1053.547
-2.487	32.342	1242.468	1052.890
-1.473	32.284	1238.179	1048.890
-0.458	30.949	1223.214	1028.811
0.556	28.051	1205.751	992.191
1.571	24.343	1211.238	976.367
2.586	23.564	1225.902	983.778
3.600	23.136	1215.110	972.681
4.615	16.871	1142.855	882.258
5.629	6.893	1066.126	774.282
6.644	2.424	1045.292	737.577
7.659	2.018	1042.916	733.886
8.673	1.916	1042.059	732.728
9.688	1.963	1040.346	731.686
10.702	2.389	1039.054	732.753
11.717	8.919	1048.325	770.696
12.731	18.957	1062.509	829.728
13.746	24.197	1068.494	859.683
14.761	25.223	1070.031	865.793
15.775	25.308	1069.458	865.664
16.790	25.073	1068.827	863.943
17.804	24.951	1068.650	863.137
18.819	25.136	1067.774	863.245
19.834	25.276	1067.295	863.453
20.848	25.329	1066.712	863.162
21.863	25.411	1065.779	862.724
22.877	25.326	1065.611	862.101
23.892	25.093	1065.456	860.782
24.907	25.275	1064.426	860.749
25.921	25.199	1063.140	859.267
26.936	25.220	1061.720	858.145
27.950	25.113	1060.256	856.376
28.965	24.975	1058.580	854.284
29.980	24.994	1057.415	853.363
30.994	25.264	1056.272	853.649
32.009	25.250	1055.229	852.662
33.023	25.134	1053.527	850.660
34.038	25.194	1053.403	850.771
35.053	25.214	1052.901	850.384
36.067	25.190	1051.903	849.390
37.082	25.397	1050.831	849.426
38.096	25.452	1050.816	849.602
39.111	25.470	1049.895	848.865
40.126	25.378	1048.498	847.229
41.140	25.097	1046.491	844.208
42.155	24.777	1045.792	842.065
43.169	24.749	1044.877	841.119
44.184	25.017	1043.627	841.296
45.199	24.800	1042.561	839.345
46.213	24.827	1042.368	839.243
47.228	25.131	1040.849	839.371
48.242	25.154	1040.349	839.001
49.257	25.206	1039.822	838.743
50.271	25.186	1039.586	838.383
51.286	25.272	1038.550	837.879
52.301	25.258	1037.296	836.728
53.315	25.151	1036.442	835.467
54.330	25.137	1035.499	834.564
55.344	25.283	1034.372	834.261
56.359	25.217	1034.016	833.593
57.374	24.942	1032.932	831.371
58.388	25.093	1031.818	831.101
59.403	24.968	1031.504	830.193
60.417	24.878	1030.279	828.720
61.432	24.902	1029.842	828.405
62.447	25.010	1029.392	828.471
63.461	25.054	1028.446	827.840
64.476	24.858	1028.021	826.518
65.490	24.851	1026.757	825.395
66.505	24.899	1026.132	825.040
67.520	25.039	1025.309	824.951
68.534	24.768	1024.163	822.710
69.549	24.355	1023.348	820.086
70.563	24.625	1022.262	820.382
71.578	24.441	1021.379	818.757
72.593	24.345	1020.831	817.804
73.607	24.479	1019.945	817.637
74.622	24.828	1020.023	819.222
75.636	24.785	1019.239	818.325
76.651	24.586	1018.256	816.552
77.666	24.513	1017.259	815.348
78.680	24.506	1017.018	815.052
79.695	24.860	1016.093	815.852
80.709	24.834	1015.497	815.182
81.724	24.760	1014.721	814.150
82.739	24.938	1013.550	813.947
83.753	25.117	1013.620	814.747
84.768	25.492	1012.815	815.731
85.782	25.551	1011.870	815.165
86.797	25.456	1011.103	814.042
87.812	25.403	1009.952	812.805
88.826	25.445	1009.411	812.486
89.841	25.456	1008.392	811.644
90.855	25.529	1007.735	811.373
91.870	25.496	1007.327	810.826
92.884	25.351	1005.501	808.629
93.899	25.323	1004.770	807.846
94.914	25.408	1004.169	807.672
95.928	25.283	1003.179	806.246
96.943	24.999	1002.035	803.979
97.957	24.913	1000.269	802.103
98.972	24.803	999.636	801.034
99.987	25.010	999.002	801.383
101.001	25.182	998.494	801.671
102.016	25.255	997.394	801.044
103.030	25.088	996.825	799.769
104.045	24.901	995.755	798.008
105.060	24.819	995.038	796.998
106.074	24.955	994.420	797.036
107.089	25.343	993.924	798.294
108.103	25.201	992.462	796.421
109.118	24.950	991.453	794.424
110.133	25.030	990.370	793.843
111.147	24.791	989.148	791.734
112.162	24.700	988.552	790.783
113.176	24.860	988.156	791.104
114.191	24.946	987.196	790.649
115.206	24.597	986.029	788.105
116.220	24.599	985.065	787.272
117.235	24.668	984.330	786.917
118.249	24.630	983.997	786.416
119.264	24.523	982.989	785.069
120.279	24.666	982.413	785.170
121.293	24.678	981.849	784.700
122.308	24.676	980.864	783.835
123.322	24.622	979.569	782.496
124.337	24.454	978.358	780.722
125.352	23.979	976.960	777.466
126.366	23.922	975.894	776.296
127.381	24.806	975.785	779.999
128.395	25.068	975.596	780.921
129.410	25.259	974.312	780.654
130.424	25.176	973.735	779.761
131.439	25.281	972.589	779.231
132.454	25.199	971.748	778.132
133.468	25.196	970.945	777.406
134.483	25.235	970.299	776.990
135.497	25.423	969.324	776.956
136.512	25.462	968.801	776.634
137.527	25.496	967.809	775.916
138.541	25.431	967.329	775.184
139.556	25.421	966.670	774.544
140.570	25.524	965.695	774.139
141.585	25.421	964.813	772.920
142.600	25.455	963.415	771.876
143.614	25.621	962.809	772.037
144.629	25.818	962.403	772.488
145.643	25.688	960.644	770.451
146.658	25.359	959.751	768.259
147.673	25.255	958.521	766.761
148.687	25.191	957.786	765.834
149.702	25.244	956.342	764.837
150.716	25.120	956.109	764.056
151.731	25.264	955.666	764.245
152.746	25.473	954.871	764.430
153.760	25.557	953.929	763.965
154.775	25.682	953.513	764.098
155.789	25.558	952.775	762.912
156.804	25.681	951.358	762.230
157.819	25.657	951.128	761.876
158.833	25.786	950.388	761.762
159.848	25.674	949.511	760.520
160.862	25.563	948.175	758.913
161.877	25.488	947.360	757.879
162.892	25.568	946.500	757.460
163.906	25.504	945.002	755.926
164.921	25.583	944.165	755.522
165.935	25.632	943.370	755.024
166.950	25.663	942.282	754.216
167.964	25.607	941.943	753.645
168.979	25.501	940.588	752.047
169.994	25.475	939.825	751.264
171.008	25.660	939.350	751.591
172.023	25.698	938.489	750.992
173.037	25.409	937.514	748.941
174.052	25.304	936.249	747.426
175.067	25.322	936.162	747.367
176.081	25.452	935.636	747.423
177.096	25.329	934.891	746.250
178.110	25.047	933.980	744.286
179.125	24.898	933.255	743.021
180.140	24.971	932.537	742.687
181.154	25.145	932.375	743.215
182.169	25.353	932.571	744.169
183.183	25.513	931.955	744.271
184.198	25.462	930.741	743.026
185.213	25.518	930.027	742.623
186.227	25.465	929.809	742.164
187.242	25.663	928.712	742.039
188.256	25.789	927.774	741.742
189.271	25.732	927.857	741.509
190.286	25.385	926.371	738.828
191.300	24.796	924.854	735.133
192.315	23.964	923.435	730.524
193.329	23.917	922.967	729.898
194.344	24.801	923.770	734.099
195.359	25.495	923.711	736.832
196.373	25.442	923.175	736.123
197.388	25.414	922.313	735.254
198.402	25.394	921.854	734.743
199.417	25.533	921.171	734.699
200.432	25.206	920.221	732.540
201.446	25.226	918.955	731.552
202.461	25.204	918.391	730.948
203.475	24.142	917.282	725.677
204.490	23.337	915.803	721.165
205.504	24.372	916.130	725.573
206.519	25.143	915.897	728.456
207.534	25.264	915.275	728.388
208.548	25.622	915.344	729.833
209.563	25.207	914.521	727.427
210.577	25.084	913.846	726.329
211.592	25.724	913.283	728.408
212.607	25.591	912.812	727.429
213.621	25.665	912.089	727.089
214.636	25.532	911.674	726.158
215.650	25.748	910.152	725.749
216.665	25.779	909.756	725.495
217.680	25.638	909.343	724.533
218.694	25.179	907.917	721.488
219.709	25.210	907.423	721.156
220.723	25.360	907.085	721.427
221.738	25.341	906.646	720.936
222.753	25.439	905.965	720.725
223.767	25.681	905.234	721.052
224.782	25.919	905.207	721.917
225.796	25.762	904.716	720.834
226.811	25.146	903.119	717.035
227.826	24.541	901.499	713.272
228.840	24.576	901.489	713.339
229.855	24.789	900.482	713.328
230.869	24.414	899.568	711.049
231.884	24.807	899.664	712.627
232.899	25.540	899.684	715.497
233.913	25.286	899.242	714.073
234.928	25.278	898.588	713.459
235.942	25.373	897.907	713.231
236.957	25.082	896.889	711.205
237.972	25.077	896.353	710.696
238.986	25.234	895.655	710.703
240.001	25.108	895.306	709.864
241.015	25.319	894.639	710.106
242.030	25.331	894.578	710.045
243.045	25.618	893.648	710.377
244.059	25.616	893.531	710.211
245.074	25.288	892.819	708.289
246.088	25.118	891.566	706.562
247.103	25.418	890.996	707.231
248.117	25.922	891.493	709.547
249.132	26.127	891.169	710.031
250.147	26.348	890.503	710.307
251.161	26.384	890.021	710.000
252.176	26.295	889.300	709.013
253.190	26.465	888.700	709.141
254.205	26.560	888.581	709.355
255.220	26.459	887.993	708.427
256.234	26.326	886.893	706.964
257.249	26.245	886.455	706.236
258.263	26.381	885.717	706.116
259.278	26.345	885.160	705.472
260.293	26.436	884.362	705.128
261.307	26.263	883.968	704.076
262.322	26.157	882.953	702.794
263.336	25.377	880.857	698.032
264.351	24.387	879.311	692.904
265.366	24.536	879.073	693.232
266.380	25.652	880.040	698.266
267.395	26.010	879.340	699.036
268.409	25.932	878.780	698.229
269.424	26.163	878.333	698.705
270.439	26.227	877.645	698.345
271.453	26.191	877.291	697.860
272.468	26.514	876.688	698.570
273.482	26.478	876.907	698.541
274.497	25.956	875.473	695.324
275.512	25.649	874.525	693.328
276.526	26.226	874.427	695.411
277.541	26.373	874.022	695.593
278.555	26.194	872.691	693.785
279.570	25.771	872.491	691.940
280.585	26.191	871.817	692.954
281.599	26.071	870.886	691.693
282.614	25.522	869.466	688.403
283.628	25.451	869.528	688.119
284.643	25.919	868.686	689.180
285.657	25.497	867.433	686.516
286.672	25.201	867.058	685.027
287.687	25.699	867.023	686.843
288.701	25.751	866.521	686.582
289.716	25.498	865.372	684.646
290.730	25.463	864.634	683.868
291.745	25.206	863.725	682.113
292.760	25.541	863.729	683.326
293.774	26.430	864.457	687.221
294.789	26.943	863.892	688.660
295.803	26.777	863.365	687.548
296.818	26.799	862.697	687.038
297.833	26.416	861.435	684.524
298.847	26.245	860.795	683.310
299.862	26.582	860.717	684.459
300.876	26.754	860.841	685.148
301.891	26.533	859.740	683.378
302.906	26.225	858.894	681.483
303.920	26.303	858.699	681.561
304.935	26.847	858.591	683.469
305.949	26.630	857.742	681.912
306.964	26.339	857.006	680.174
307.979	26.453	856.777	680.358
308.993	27.077	856.294	682.262
310.008	26.908	855.653	681.056
311.022	26.600	855.050	679.361
312.037	26.434	854.273	678.060
313.052	26.212	853.065	676.209
314.066	25.311	852.126	672.036
315.081	24.951	851.234	669.928
316.095	25.888	851.594	673.654
317.110	26.230	851.327	674.659
318.125	25.367	850.034	670.357
319.139	24.503	848.359	665.756
320.154	24.582	847.826	665.574
321.168	25.368	848.555	669.017
322.183	26.186	848.332	671.826
323.197	26.256	847.944	671.720
324.212	26.388	848.023	672.215
325.227	26.451	847.316	671.829
326.241	26.346	846.397	670.649
327.256	26.213	845.915	669.717
328.270	26.147	845.197	668.845
329.285	26.051	844.006	667.488
330.300	25.934	843.293	666.430
331.314	26.138	843.064	666.943
332.329	26.411	843.460	668.207
333.343	26.759	842.484	668.659
334.358	26.582	842.460	667.930
335.373	26.553	842.291	667.630
336.387	26.720	842.763	668.561
337.402	27.060	842.356	669.431
338.416	26.983	841.775	668.627
339.431	27.218	841.222	668.993
340.446	27.218	840.748	668.557
341.460	27.059	840.211	667.485
342.475	26.823	840.126	666.494
343.489	27.024	839.469	666.651
344.504	27.198	839.551	667.294
345.519	27.326	838.973	667.245
346.533	27.361	838.437	666.889
347.548	27.459	838.006	666.845
348.562	27.354	837.264	665.813
349.577	27.509	836.470	665.690
350.592	27.266	836.033	664.396
351.606	27.452	834.889	664.106
352.621	27.294	834.504	663.164
353.635	27.059	833.919	661.786
354.650	26.445	831.862	657.861
355.665	25.637	830.762	653.997
356.679	26.023	830.661	655.262
357.694	26.335	830.647	656.328
358.708	26.173	829.652	654.895
359.723	26.766	829.846	657.141
360.738	27.093	829.234	657.782
361.752	27.257	828.650	657.855
362.767	27.466	828.794	658.666
363.781	27.594	828.219	658.613
364.796	27.829	827.458	658.799
365.810	27.898	827.184	658.770
366.825	27.841	826.793	658.195
367.840	27.494	826.030	656.280
368.854	27.077	825.029	653.926
369.869	27.063	824.557	653.442
370.883	27.177	824.513	653.760
371.898	27.058	824.002	652.869
372.913	27.188	823.630	652.982
373.927	27.334	823.208	653.114
374.942	27.295	822.972	652.731
375.956	27.285	822.719	652.437
376.971	27.726	822.004	653.390
377.986	27.774	821.828	653.366
379.000	27.753	821.203	652.735
380.015	27.461	820.769	651.291
381.029	27.548	820.481	651.315
382.044	27.751	819.412	651.131
383.059	27.649	818.994	650.378
384.073	27.705	818.883	650.434
385.088	27.620	817.844	649.246
386.102	27.521	817.046	648.202
387.117	27.402	816.593	647.365
388.132	26.994	815.387	644.903
389.146	26.678	814.470	642.998
390.161	26.958	814.600	644.036
391.175	27.522	814.354	645.786
392.190	27.170	812.934	643.358
393.205	25.655	811.342	636.685
394.219	24.285	809.387	630.252
395.234	24.177	809.435	629.854
396.248	25.809	810.856	636.677
397.263	27.307	811.525	642.442
398.278	27.236	810.963	641.689
399.292	27.045	810.238	640.383
400.307	26.879	810.296	639.790
401.321	26.852	809.812	639.255
402.336	27.458	809.648	641.203
403.350	28.067	809.149	642.894
404.365	28.300	808.877	643.440
405.380	28.370	808.924	643.665
406.394	28.330	808.337	643.002
407.409	28.335	807.634	642.405
408.423	28.329	807.699	642.377
409.438	28.516	806.890	642.333
410.453	28.302	806.949	641.573
411.467	28.266	806.482	641.018
412.482	28.427	806.047	641.177
413.496	28.559	805.258	640.955
414.511	28.568	804.892	640.638
415.526	28.491	804.352	639.883
416.540	28.426	803.588	638.994
417.555	28.078	803.121	637.353
418.569	28.117	802.821	637.195
419.584	28.040	802.518	636.629
420.599	27.873	801.546	635.221
421.613	111.646	1285.588	1458.538
422.628	96.396	1356.086	1458.657
