DTS Sentinel unit serial number:	SN413079Multiplexer serial number:	ORYXHardware model number:	OX4-SRSoftware version number:	ORYX F/W v4.00 Oryx Data Collector v3.7.2.0data status	okinstallation	princeton_trtdifferential loss correction	single-endedforward channel	channel 1reverse channel	N/Adate	2019/09/11time	22:40:11forward acquisition time	60.00reverse acquisition time	0.00gamma	496.2192k internal	0.2315k external	0.2315temperature offset calibration	1.0056default loss term (dB/km)	0.3790temperature slope calibration	1.0000multiplexer offset coefficient	1.0000multiplexer slope coefficient	1.0000fibre end	0.00T internal ref (°C)	34.87T ext. ref 1 (°C)	1.73T ext. ref 2 (°C)	28.80length (m)	temperature (°C)	Stokes	anti-Stokes-747.200	29.747	0.123	-0.107
-746.185	-200.000	-0.023	0.425
-745.171	-147.253	0.206	0.018
-744.156	364.698	0.129	0.262
-743.142	-114.158	0.161	-0.032
-742.127	-106.491	-0.358	-0.081
-741.112	800.000	-0.019	0.065
-740.098	564.005	0.127	0.311
-739.083	-0.703	-0.283	-0.203
-738.069	611.616	0.179	0.454
-737.054	-63.122	-0.211	-0.088
-736.039	-44.726	0.050	0.025
-735.025	-200.000	0.037	0.169
-734.010	111.288	0.133	0.162
-732.996	-7.351	-0.069	0.047
-731.981	573.804	-0.093	-0.231
-730.966	-200.000	-0.018	-0.422
-729.952	-103.022	-0.151	-0.036
-728.937	112.835	-0.085	-0.105
-727.923	137.611	-0.163	-0.216
-726.908	-114.795	0.185	0.036
-725.894	-200.000	0.010	-0.143
-724.879	27.755	0.072	-0.061
-723.864	-200.000	-0.027	-0.141
-722.850	-31.636	-0.129	-0.074
-721.835	-122.927	-0.392	-0.064
-720.821	-38.086	-0.176	-0.095
-719.806	-29.325	-0.028	-0.016
-718.791	800.000	-0.162	0.465
-717.777	10.334	-0.193	-0.149
-716.762	168.096	-0.052	-0.075
-715.748	304.432	-0.054	0.102
-714.733	87.582	-0.313	-0.351
-713.718	170.006	-0.095	-0.137
-712.704	137.546	-0.163	-0.216
-711.689	800.000	0.004	0.012
-710.675	-40.910	-0.293	-0.153
-709.660	1.980	-0.078	0.057
-708.645	-25.071	-0.169	-0.101
-707.631	-196.152	-0.490	-0.003
-706.616	71.816	-0.184	-0.193
-705.602	800.000	-0.108	-0.319
-704.587	-200.000	-0.008	0.257
-703.572	-30.759	0.316	-0.181
-702.558	-86.187	-0.317	-0.099
-701.543	-191.013	0.208	0.002
-700.529	359.949	-0.078	-0.157
-699.514	-200.000	-0.015	-0.188
-698.499	-21.098	-0.042	-0.026
-697.485	-52.512	0.296	0.138
-696.470	-15.541	-0.040	0.026
-695.456	800.000	-0.031	-0.091
-694.441	-158.715	0.241	-0.014
-693.426	-156.379	-0.225	0.014
-692.412	-62.913	-0.389	-0.163
-691.397	-103.595	0.220	-0.052
-690.383	-151.839	0.314	0.023
-689.368	-200.000	0.021	0.145
-688.354	-155.490	-0.370	0.024
-687.339	41.285	0.108	-0.099
-686.324	-109.345	-0.236	-0.051
-685.310	-200.000	-0.067	0.440
-684.295	8.299	-0.203	0.154
-683.281	-59.386	-0.214	-0.093
-682.266	-200.000	-0.003	0.362
-681.251	-63.953	-0.200	-0.083
-680.237	-77.198	-0.209	-0.073
-679.222	800.000	0.089	0.254
-678.208	249.877	0.163	0.279
-677.193	-73.348	-0.388	0.143
-676.178	800.000	0.079	-0.331
-675.164	71.107	0.107	-0.113
-674.149	-200.000	-0.081	0.562
-673.135	-46.495	0.077	-0.038
-672.120	255.106	-0.074	-0.128
-671.105	800.000	-0.050	0.166
-670.091	776.567	0.023	-0.062
-669.076	100.441	0.160	0.187
-668.062	27.761	-0.194	-0.165
-667.047	-200.000	0.000	0.043
-666.032	800.000	0.090	-0.314
-665.018	800.000	-0.083	-0.246
-664.003	-107.875	0.313	-0.069
-662.989	-157.269	-0.354	0.022
-661.974	353.396	0.150	-0.301
-660.959	800.000	-0.155	0.561
-659.945	-6.091	0.332	0.229
-658.930	58.952	0.044	0.044
-657.916	-70.560	-0.065	0.025
-656.901	10.166	0.139	-0.107
-655.886	-24.610	-0.047	-0.028
-654.872	147.903	-0.268	-0.365
-653.857	-59.719	-0.067	0.029
-652.843	29.175	-0.292	-0.250
-651.828	-200.000	-0.014	-0.100
-650.814	60.562	-0.308	-0.308
-649.799	63.836	-0.249	-0.253
-648.784	-154.432	0.106	-0.007
-647.770	723.044	-0.048	-0.128
-646.755	12.104	-0.301	-0.234
-645.741	-110.665	-0.147	-0.031
-644.726	-59.639	0.099	0.043
-643.711	800.000	0.033	-0.097
-642.697	199.941	0.164	-0.255
-641.682	-94.896	0.160	0.044
-640.668	800.000	-0.068	-0.227
-639.653	-61.214	-0.273	-0.116
-638.638	-71.717	-0.029	-0.011
-637.624	6.129	0.098	-0.074
-636.609	-35.752	-0.139	0.076
-635.595	-120.896	0.252	-0.043
-634.580	-90.961	0.261	0.076
-633.565	743.669	-0.103	0.279
-632.551	454.851	-0.152	0.341
-631.536	-53.112	0.163	-0.075
-630.522	213.417	0.058	0.093
-629.507	-162.803	-0.112	-0.006
-628.492	-200.000	0.062	0.279
-627.478	-200.000	0.044	0.237
-626.463	201.040	0.188	0.292
-625.449	-49.541	-0.259	-0.125
-624.434	92.143	0.104	-0.118
-623.419	18.258	-0.176	-0.142
-622.405	7.806	-0.156	0.118
-621.390	207.751	-0.194	-0.306
-620.376	-10.375	0.095	0.064
-619.361	-200.000	-0.025	0.144
-618.346	-82.380	-0.271	-0.089
-617.332	-54.012	0.202	0.093
-616.317	633.103	-0.107	0.273
-615.303	-6.021	-0.285	-0.197
-614.288	-7.933	-0.096	-0.066
-613.273	55.631	0.047	0.046
-612.259	164.466	-0.097	-0.138
-611.244	-112.407	0.233	-0.047
-610.230	800.000	0.030	-0.086
-609.215	-200.000	-0.005	0.047
-608.201	63.468	0.145	0.146
-607.186	-44.286	-0.252	-0.127
-606.171	219.907	0.194	0.313
-605.157	52.621	-0.102	-0.098
-604.142	69.569	-0.098	-0.102
-603.128	-90.957	0.251	0.073
-602.113	-87.811	0.274	-0.083
-601.098	70.925	-0.252	-0.263
-600.084	71.977	0.006	0.006
-599.069	-142.693	-0.152	-0.015
-598.055	-187.902	-0.161	-0.002
-597.040	-200.000	0.015	0.068
-596.025	-72.250	0.165	-0.062
-595.011	163.396	-0.051	-0.073
-593.996	-137.238	-0.234	0.027
-592.982	-33.841	-0.414	-0.230
-591.967	-90.225	-0.084	-0.025
-590.952	-64.382	0.304	0.125
-589.938	-112.062	-0.244	0.050
-588.923	156.357	-0.240	-0.333
-587.909	-200.000	-0.026	-0.263
-586.894	800.000	-0.022	0.083
-585.879	-200.000	-0.024	0.146
-584.865	70.468	-0.211	-0.219
-583.850	-12.433	0.246	0.162
-582.836	-138.069	0.163	-0.018
-581.821	11.852	0.134	0.103
-580.806	513.207	-0.072	-0.169
-579.792	-151.731	-0.221	-0.016
-578.777	28.144	0.087	0.074
-577.763	105.693	-0.144	0.171
-576.748	134.974	-0.083	0.109
-575.733	-20.213	0.451	0.280
-574.719	587.347	-0.138	-0.342
-573.704	54.657	-0.232	-0.226
-572.690	45.656	0.170	0.158
-571.675	800.000	0.019	0.077
-570.661	800.000	0.029	-0.110
-569.646	-200.000	0.062	-0.316
-568.631	-49.778	-0.134	-0.064
-567.617	-117.499	-0.314	0.057
-566.602	-200.000	0.016	-0.182
-565.588	713.340	-0.042	0.112
-564.573	436.579	0.069	0.150
-563.558	147.022	0.040	0.054
-562.544	6.834	0.191	0.143
-561.529	-168.719	0.184	-0.007
-560.515	800.000	0.026	-0.089
-559.500	9.895	-0.433	0.330
-558.485	235.013	0.200	0.332
-557.471	800.000	0.131	-0.373
-556.456	-85.121	0.143	0.045
-555.442	-12.163	-0.161	0.106
-554.427	-123.956	0.209	0.033
-553.412	-200.000	-0.053	0.277
-552.398	93.346	0.110	0.126
-551.383	-65.393	-0.147	-0.060
-550.369	96.348	-0.141	0.162
-549.354	-3.835	-0.030	-0.021
-548.339	195.998	0.094	0.144
-547.325	298.827	-0.206	-0.382
-546.310	-200.000	0.023	0.119
-545.296	241.586	0.112	0.188
-544.281	-35.386	-0.182	0.099
-543.266	-50.908	-0.168	0.079
-542.252	800.000	-0.055	0.217
-541.237	-82.358	-0.311	-0.102
-540.223	410.872	0.291	0.620
-539.208	-79.072	0.099	0.034
-538.193	-60.558	0.161	-0.069
-537.179	800.000	0.075	-0.215
-536.164	44.090	0.216	0.199
-535.150	-79.526	0.201	-0.068
-534.135	-200.000	0.002	-0.147
-533.121	800.000	-0.033	0.105
-532.106	403.637	0.042	-0.089
-531.091	-8.042	0.049	0.033
-530.077	-200.000	0.002	-0.169
-529.062	-200.000	-0.007	0.271
-528.048	-200.000	-0.048	0.280
-527.033	-6.151	-0.237	-0.163
-526.018	486.094	0.100	-0.228
-525.004	182.065	-0.130	0.192
-523.989	-200.000	-0.007	-0.055
-522.975	165.252	0.096	0.137
-521.960	-148.450	0.236	-0.019
-520.945	21.739	0.177	0.145
-519.931	-200.000	-0.225	0.001
-518.916	296.805	0.063	-0.117
-517.902	33.240	-0.196	0.171
-516.887	89.503	-0.095	0.106
-515.872	72.419	-0.298	0.312
-514.858	-177.662	-0.126	0.003
-513.843	-30.962	0.156	-0.088
-512.829	800.000	-0.040	-0.117
-511.814	227.830	0.162	-0.265
-510.799	51.561	-0.164	0.157
-509.785	698.673	0.046	-0.122
-508.770	48.693	0.100	-0.094
-507.756	294.239	-0.140	0.256
-506.741	800.000	0.021	-0.060
-505.726	71.415	0.080	0.083
-504.712	-7.002	-0.093	-0.064
-503.697	-177.753	0.293	0.007
-502.683	-128.204	-0.330	0.047
-501.668	800.000	0.045	0.135
-500.653	78.178	-0.087	0.093
-499.639	647.724	-0.167	-0.428
-498.624	671.679	-0.123	-0.320
-497.610	-106.023	-0.057	0.013
-496.595	-165.653	0.386	-0.017
-495.581	752.736	-0.119	0.322
-494.566	-115.856	0.237	-0.044
-493.551	110.398	-0.072	0.087
-492.537	156.053	0.127	-0.175
-491.522	501.461	0.039	0.090
-490.508	44.346	-0.027	0.025
-489.493	800.000	-0.119	-0.441
-488.478	-74.227	0.362	-0.131
-487.464	-58.627	-0.106	0.046
-486.449	-125.914	-0.149	0.023
-485.435	-55.545	0.167	-0.075
-484.420	154.848	0.125	-0.173
-483.405	-32.179	-0.209	-0.117
-482.391	-200.000	-0.027	0.345
-481.376	-145.950	0.032	-0.003
-480.362	123.484	-0.233	-0.293
-479.347	380.555	-0.067	-0.138
-478.332	-200.000	0.015	-0.123
-477.318	-78.927	0.136	-0.046
-476.303	-200.000	0.011	-0.203
-475.289	-178.700	0.283	0.007
-474.274	-92.957	0.312	0.087
-473.259	-150.700	-0.441	-0.034
-472.245	-200.000	0.003	-0.129
-471.230	800.000	0.040	-0.129
-470.216	-91.977	0.034	-0.010
-469.201	550.733	0.033	-0.079
-468.186	-200.000	0.032	0.177
-467.172	132.241	0.144	0.186
-466.157	114.530	-0.139	-0.170
-465.143	-44.742	-0.218	-0.109
-464.128	800.000	-0.018	-0.056
-463.113	-91.675	-0.249	-0.071
-462.099	-26.051	-0.092	0.054
-461.084	800.000	0.022	-0.075
-460.070	-83.483	-0.388	0.125
-459.055	-36.068	0.107	-0.058
-458.040	653.664	-0.042	-0.107
-457.026	-200.000	0.039	-0.264
-456.011	800.000	-0.055	0.228
-454.997	-200.000	0.002	-0.060
-453.982	-130.406	0.299	0.041
-452.968	-200.000	0.034	0.240
-451.953	800.000	0.074	-0.213
-450.938	800.000	-0.145	-0.562
-449.924	-173.053	-0.393	0.012
-448.909	-200.000	0.024	0.230
-447.895	-17.771	0.178	-0.112
-446.880	-200.000	-0.009	0.084
-445.865	-157.178	0.220	-0.013
-444.851	-82.244	0.316	-0.103
-443.836	-22.088	-0.160	0.097
-442.822	-200.000	-0.019	0.119
-441.807	278.473	0.186	-0.331
-440.792	255.951	-0.316	-0.543
-439.778	-67.853	-0.062	-0.024
-438.763	-57.366	0.365	-0.161
-437.749	448.526	-0.046	-0.102
-436.734	184.654	-0.164	0.243
-435.719	-89.160	-0.183	-0.054
-434.705	-8.161	0.083	-0.056
-433.690	-97.799	0.289	-0.075
-432.676	-121.991	-0.202	-0.033
-431.661	-200.000	0.006	0.266
-430.646	-200.000	-0.027	0.131
-429.632	-200.000	-0.003	-0.160
-428.617	-200.000	0.008	-0.227
-427.603	-0.996	0.047	0.033
-426.588	-10.371	-0.268	0.178
-425.573	-64.071	0.220	0.090
-424.559	-101.830	0.366	-0.089
-423.544	24.228	-0.100	0.082
-422.530	600.614	0.082	-0.204
-421.515	-86.339	-0.182	0.056
-420.500	303.380	-0.025	-0.046
-419.486	-86.859	0.044	0.013
-418.471	32.861	0.144	-0.125
-417.457	-29.572	0.085	-0.048
-416.442	-69.452	0.390	0.150
-415.428	800.000	0.136	0.418
-414.413	-113.435	-0.411	-0.081
-413.398	-50.679	0.126	0.059
-412.384	275.087	0.154	0.274
-411.369	386.670	-0.104	0.216
-410.355	520.881	-0.065	0.152
-409.340	389.868	0.023	0.047
-408.325	-112.143	0.183	0.037
-407.311	79.689	0.197	0.212
-406.296	222.202	0.130	-0.208
-405.282	290.198	0.034	-0.062
-404.267	-200.000	-0.056	0.334
-403.252	-200.000	-0.007	-0.105
-402.238	494.538	-0.190	-0.435
-401.223	-200.000	0.028	0.233
-400.209	-4.995	0.288	-0.198
-399.194	-63.158	-0.238	-0.098
-398.179	188.062	0.174	0.260
-397.165	-47.354	0.188	0.091
-396.150	-31.448	0.315	0.177
-395.136	293.098	-0.167	-0.305
-394.121	-200.000	0.037	0.244
-393.106	105.973	-0.080	-0.095
-392.092	14.289	-0.205	0.160
-391.077	0.791	0.281	-0.201
-390.063	-83.669	-0.234	0.075
-389.048	124.064	-0.129	0.162
-388.033	-153.298	0.217	-0.015
-387.019	458.691	0.008	0.018
-386.004	214.432	-0.083	-0.131
-384.990	-94.151	0.125	-0.034
-383.975	0.842	-0.312	0.223
-382.960	256.653	0.101	-0.174
-381.946	-20.276	-0.084	0.052
-380.931	30.746	-0.222	-0.190
-379.917	146.570	0.015	0.020
-378.902	163.461	-0.135	0.189
-377.888	366.484	-0.144	0.291
-376.873	-200.000	-0.066	0.359
-375.858	-16.833	-0.093	-0.059
-374.844	101.088	0.119	-0.139
-373.829	50.294	0.229	-0.216
-372.815	800.000	0.032	-0.108
-371.800	800.000	-0.129	-0.539
-370.785	107.378	0.178	0.211
-369.771	-200.000	0.008	-0.091
-368.756	-200.000	0.009	0.120
-367.742	800.000	0.077	-0.256
-366.727	266.761	-0.101	0.176
-365.712	98.315	0.143	-0.165
-364.698	-140.744	-0.087	0.009
-363.683	337.541	0.019	0.037
-362.669	74.885	-0.103	0.108
-361.654	10.255	0.197	-0.149
-360.639	37.103	-0.135	-0.119
-359.625	-32.976	-0.316	0.175
-358.610	-29.065	0.044	-0.025
-357.596	119.717	0.161	0.199
-356.581	650.064	0.213	-0.545
-355.566	44.648	0.144	-0.132
-354.552	-88.830	-0.292	-0.087
-353.537	129.408	-0.078	0.099
-352.523	-200.000	-0.009	0.217
-351.508	179.702	-0.123	0.179
-350.493	-12.279	-0.042	0.028
-349.479	-112.405	0.164	-0.033
-348.464	-103.754	-0.132	-0.031
-347.450	-96.409	-0.032	-0.008
-346.435	-200.000	-0.067	0.336
-345.420	104.321	0.076	0.089
-344.406	-117.216	0.334	0.061
-343.391	-4.071	0.291	0.201
-342.377	-200.000	-0.012	-0.372
-341.362	-82.803	0.305	0.098
-340.348	-59.833	-0.369	0.157
-339.333	-135.775	-0.292	-0.034
-338.318	116.785	0.243	0.297
-337.304	-200.000	0.012	0.217
-336.289	-18.777	0.381	0.237
-335.275	-36.804	-0.372	0.199
-334.260	-27.798	0.080	-0.046
-333.245	-98.582	0.179	0.046
-332.231	-180.012	0.299	0.006
-331.216	120.245	-0.262	0.324
-330.202	-200.000	-0.009	-0.383
-329.187	37.836	-0.246	-0.218
-328.172	-51.628	-0.156	0.073
-327.158	-200.000	0.056	0.396
-326.143	45.189	-0.057	-0.052
-325.129	-200.000	-0.014	-0.095
-324.114	-109.906	0.215	0.045
-323.099	650.075	-0.073	-0.186
-322.085	768.247	0.100	0.270
-321.070	330.975	0.177	0.340
-320.056	-42.361	-0.071	-0.036
-319.041	252.389	-0.155	0.263
-318.026	-109.692	0.201	0.042
-317.012	9.161	-0.054	0.041
-315.997	-30.744	0.008	0.004
-314.983	800.000	-0.101	0.406
-313.968	-40.130	-0.114	0.059
-312.953	487.683	0.178	-0.405
-311.939	-18.629	-0.066	-0.041
-310.924	219.709	-0.139	0.222
-309.910	450.782	0.120	-0.263
-308.895	-17.124	-0.154	0.097
-307.880	-182.919	0.713	0.013
-306.866	-200.000	-0.004	0.057
-305.851	150.285	-0.063	-0.085
-304.837	-26.696	-0.227	0.132
-303.822	308.794	0.110	0.205
-302.807	-55.048	-0.161	0.072
-301.793	203.575	0.109	0.168
-300.778	49.358	0.083	0.078
-299.764	-200.000	0.049	0.296
-298.749	-22.382	0.131	-0.079
-297.735	39.178	0.205	-0.182
-296.720	-115.714	-0.033	-0.006
-295.705	-200.000	-0.047	-0.219
-294.691	-200.000	-0.002	-0.127
-293.676	-9.667	0.174	0.115
-292.662	54.883	0.214	-0.205
-291.647	483.588	-0.074	0.167
-290.632	-84.726	0.374	0.117
-289.618	21.991	0.197	0.160
-288.603	752.482	0.067	-0.179
-287.589	38.072	-0.050	-0.045
-286.574	-161.310	-0.170	-0.009
-285.559	800.000	0.102	-0.358
-284.545	57.727	-0.116	0.113
-283.530	8.139	-0.165	-0.123
-282.516	364.545	0.153	-0.306
-281.501	-86.980	0.160	-0.049
-280.486	-97.915	0.277	-0.071
-279.472	298.322	0.189	0.346
-278.457	254.728	0.085	-0.144
-277.443	195.263	0.092	-0.140
-276.428	-200.000	-0.020	-0.152
-275.413	-125.162	0.114	0.017
-274.399	-169.033	-0.059	0.002
-273.384	270.862	0.217	0.379
-272.370	-200.000	-0.042	-0.375
-271.355	-200.000	-0.002	0.148
-270.340	-36.880	0.160	0.085
-269.326	-137.664	0.118	-0.013
-268.311	317.441	-0.018	-0.034
-267.297	-200.000	-0.047	0.221
-266.282	-114.239	0.380	-0.073
-265.267	86.359	0.337	0.369
-264.253	115.158	0.044	0.054
-263.238	-200.000	0.025	0.236
-262.224	-200.000	0.039	0.203
-261.209	457.208	-0.055	-0.122
-260.195	138.265	-0.185	0.242
-259.180	58.707	-0.089	-0.087
-258.165	33.555	0.112	0.096
-257.151	-145.351	-0.320	-0.029
-256.136	-43.264	0.121	-0.061
-255.122	-183.754	0.204	-0.003
-254.107	136.776	0.109	0.141
-253.092	464.748	-0.061	0.135
-252.078	800.000	0.089	0.273
-251.063	800.000	-0.104	-0.383
-250.049	-56.687	-0.120	-0.053
-249.034	-85.628	-0.173	-0.053
-248.019	-131.087	-0.203	-0.027
-247.005	425.607	-0.080	0.170
-245.990	31.376	-0.104	-0.089
-244.976	6.143	-0.066	-0.049
-243.961	110.573	-0.056	0.067
-242.946	-123.248	0.324	0.051
-241.932	6.239	0.112	-0.083
-240.917	-200.000	-0.024	0.289
-239.903	-200.000	-0.039	0.193
-238.888	-77.500	-0.198	0.068
-237.873	64.475	0.222	0.223
-236.859	-200.000	-0.005	-0.024
-235.844	-48.607	-0.096	0.046
-234.830	378.442	0.047	0.095
-233.815	330.813	-0.142	-0.271
-232.800	-71.676	0.235	-0.087
-231.786	-74.323	-0.206	-0.074
-230.771	156.700	-0.154	-0.211
-229.757	487.247	-0.037	0.084
-228.742	712.539	-0.132	0.347
-227.727	-132.516	-0.111	0.014
-226.713	-21.724	0.165	0.100
-225.698	354.309	0.151	0.298
-224.684	-1.651	-0.148	-0.104
-223.669	-200.000	0.006	0.197
-222.655	-60.043	-0.321	-0.136
-221.640	800.000	-0.009	0.025
-220.625	-200.000	-0.029	-0.213
-219.611	93.627	-0.267	-0.300
-218.596	-153.492	-0.171	-0.012
-217.582	177.356	0.205	-0.297
-216.567	563.007	-0.159	-0.381
-215.552	62.922	0.099	0.098
-214.538	200.375	0.152	-0.232
-213.523	-200.000	-0.026	-0.399
-212.509	35.275	0.210	-0.183
-211.494	-119.512	0.359	0.062
-210.479	-94.873	-0.199	0.053
-209.465	-89.112	-0.242	0.071
-208.450	-43.699	-0.258	0.129
-207.436	39.011	-0.135	0.120
-206.421	-200.000	0.033	0.311
-205.406	-127.021	-0.353	0.051
-204.392	800.000	0.019	-0.071
-203.377	800.000	0.027	-0.076
-202.363	800.000	-0.186	-0.539
-201.348	101.697	0.093	0.108
-200.333	541.367	-0.225	-0.532
-199.319	-200.000	0.019	0.188
-198.304	-102.796	0.447	-0.106
-197.290	-152.235	-0.370	-0.027
-196.275	-33.538	0.234	0.128
-195.260	-42.591	-0.375	-0.189
-194.246	-200.000	-0.004	-0.033
-193.231	465.044	-0.181	0.401
-192.217	-200.000	-0.029	-0.133
-191.202	-46.894	-0.107	0.052
-190.187	108.110	-0.274	-0.324
-189.173	-200.000	0.033	-0.253
-188.158	22.459	-0.274	-0.222
-187.144	-200.000	-0.018	-0.080
-186.129	-106.942	-0.325	-0.071
-185.114	-72.211	0.185	-0.068
-184.100	-54.872	0.057	0.025
-183.085	429.778	-0.044	-0.094
-182.071	800.000	0.047	-0.131
-181.056	-200.000	-0.015	0.399
-180.042	166.833	-0.068	-0.096
-179.027	185.462	0.041	-0.060
-178.012	-85.944	-0.249	-0.076
-176.998	-89.930	0.203	-0.059
-175.983	-200.000	0.049	-0.284
-174.969	-95.751	-0.220	0.058
-173.954	-200.000	-0.041	0.185
-172.939	759.306	0.126	-0.337
-171.925	45.745	0.192	0.176
-170.910	590.460	0.150	0.367
-169.896	-59.440	-0.049	0.021
-168.881	-78.951	0.053	-0.018
-167.866	512.210	-0.165	-0.381
-166.852	-200.000	0.030	-0.243
-165.837	-15.127	-0.153	-0.097
-164.823	-135.500	0.327	-0.039
-163.808	736.238	-0.025	-0.065
-162.793	268.848	0.121	0.210
-161.779	-200.000	-0.038	0.320
-160.764	-70.062	0.209	-0.079
-159.750	-24.760	-0.275	-0.162
-158.735	800.000	0.129	0.419
-157.720	22.543	0.271	-0.219
-156.706	588.086	0.194	-0.472
-155.691	17.210	-0.296	0.232
-154.677	-27.908	0.087	-0.050
-153.662	-78.894	0.297	0.100
-152.647	-154.075	-0.346	0.023
-151.633	132.415	0.136	0.173
-150.618	-135.470	-0.194	-0.023
-149.604	-160.709	0.452	-0.024
-148.589	5.939	0.229	-0.168
-147.574	-58.554	-0.266	-0.114
-146.560	-200.000	-0.006	0.080
-145.545	543.199	-0.060	-0.141
-144.531	35.296	0.213	0.185
-143.516	389.468	0.053	0.109
-142.502	124.777	0.065	0.082
-141.487	-142.371	0.294	-0.029
-140.472	-200.000	-0.001	0.067
-139.458	-177.681	-0.054	0.001
-138.443	-34.832	0.044	-0.024
-137.429	70.763	0.360	0.369
-136.414	42.470	0.233	-0.210
-135.399	-91.978	0.092	-0.026
-134.385	-66.154	-0.106	0.042
-133.370	-200.000	-0.206	0.000
-132.356	-14.153	-0.094	-0.060
-131.341	-45.298	0.310	0.152
-130.326	29.836	0.021	0.018
-129.312	-56.586	0.106	0.047
-128.297	16.698	0.204	-0.160
-127.283	-16.205	-0.208	0.131
-126.268	40.368	-0.214	-0.191
-125.253	-124.430	-0.265	-0.041
-124.239	-122.275	-0.095	0.015
-123.224	23.828	0.040	-0.032
-122.210	195.880	0.112	-0.169
-121.195	-43.028	-0.158	-0.079
-120.180	-132.492	0.179	0.023
-119.166	-200.000	0.043	-0.555
-118.151	-29.665	-0.311	-0.176
-117.137	162.898	-0.114	0.158
-116.122	-101.621	0.160	-0.038
-115.107	55.992	0.189	0.182
-114.093	14.640	0.339	0.262
-113.078	411.284	-0.132	0.278
-112.064	661.475	0.094	0.239
-111.049	-159.850	-0.426	0.023
-110.034	85.255	-0.190	-0.206
-109.020	422.955	0.189	-0.401
-108.005	393.218	-0.112	-0.230
-106.991	-104.224	-0.107	0.025
-105.976	-200.000	-0.015	-0.095
-104.962	245.142	-0.213	0.354
-103.947	-141.597	0.174	0.017
-102.932	76.402	-0.148	-0.155
-101.918	300.920	0.134	-0.245
-100.903	-200.000	0.016	-0.323
-99.889	-16.960	-0.371	0.232
-98.874	-200.000	-0.085	0.000
-97.859	-132.994	0.267	0.034
-96.845	224.144	-0.109	0.174
-95.830	-147.712	-0.265	-0.022
-94.816	343.259	-0.086	0.167
-93.801	-91.205	-0.353	0.100
-92.786	-44.019	0.127	-0.063
-91.772	-77.648	-0.101	-0.035
-90.757	-140.129	0.409	-0.042
-89.743	446.183	0.006	0.012
-88.728	-38.511	0.033	0.017
-87.713	-9.327	0.392	-0.259
-86.699	163.636	0.091	0.127
-85.684	46.684	-0.434	-0.398
-84.670	-200.000	-0.006	-0.084
-83.655	-200.000	0.031	-0.251
-82.640	33.006	-0.292	-0.249
-81.626	158.612	-0.179	-0.245
-80.611	-200.000	0.018	0.083
-79.597	-130.407	-0.130	0.017
-78.582	160.732	0.140	0.192
-77.567	-57.683	-0.355	0.154
-76.553	171.724	0.109	0.155
-75.538	-47.688	-0.196	0.094
-74.524	-147.590	-0.397	-0.033
-73.509	-107.979	-0.226	-0.049
-72.494	-77.724	0.237	0.081
-71.480	-123.263	0.115	0.018
-70.465	453.848	0.090	0.196
-69.451	-144.355	0.160	-0.015
-68.436	-149.194	0.262	-0.021
-67.422	325.777	-0.094	0.177
-66.407	-89.585	-0.191	-0.055
-65.392	-36.452	0.401	0.213
-64.378	232.775	-0.034	0.054
-63.363	-64.129	-0.223	0.090
-62.349	218.380	0.154	0.243
-61.334	-84.576	-1.168	-0.364
-60.319	514.410	0.229	0.528
-59.305	800.000	-0.169	-0.618
-58.290	173.215	0.544	0.774
-57.276	472.237	0.774	1.719
-56.261	-200.000	97.684	596.831
-55.246	577.025	1377.436	3320.859
-54.232	154.417	2579.383	3492.482
-53.217	117.451	2157.967	2617.853
-52.203	46.878	1615.329	1480.730
-51.188	38.487	1352.642	1189.185
-50.173	35.075	1310.402	1131.878
-49.159	58.684	1360.379	1317.596
-48.144	63.142	1378.460	1361.783
-47.130	38.709	1332.247	1172.400
-46.115	34.982	1314.459	1134.650
-45.100	34.829	1309.528	1129.445
-44.086	34.790	1306.903	1126.906
-43.071	34.707	1304.792	1124.553
-42.057	34.652	1302.851	1122.510
-41.042	34.812	1301.068	1121.871
-40.027	34.878	1299.035	1120.459
-39.013	34.756	1297.738	1118.579
-37.998	34.826	1295.608	1117.112
-36.984	34.774	1294.184	1115.535
-35.969	34.998	1292.234	1115.115
-34.954	34.919	1290.501	1113.115
-33.940	34.920	1289.556	1112.264
-32.925	34.978	1288.110	1111.306
-31.911	34.966	1286.663	1109.948
-30.896	35.125	1284.851	1109.257
-29.881	34.949	1284.088	1107.540
-28.867	35.019	1282.551	1106.574
-27.852	35.067	1280.853	1105.342
-26.838	34.996	1279.632	1103.836
-25.823	34.970	1278.383	1102.561
-24.809	34.874	1277.279	1101.014
-23.794	34.868	1275.838	1099.694
-22.779	34.995	1274.216	1098.983
-21.765	34.899	1273.368	1097.655
-20.750	34.883	1272.100	1096.430
-19.736	34.823	1271.099	1095.176
-18.721	34.877	1269.436	1094.012
-17.706	34.863	1268.238	1092.857
-16.692	34.853	1266.306	1091.088
-15.677	34.818	1266.005	1090.589
-14.663	34.810	1264.769	1089.433
-13.648	34.856	1263.623	1088.662
-12.633	34.809	1262.687	1087.549
-11.619	34.761	1261.654	1086.344
-10.604	34.720	1261.335	1085.788
-9.590	34.733	1260.395	1085.015
-8.575	34.877	1258.929	1084.524
-7.560	34.770	1258.443	1083.454
-6.546	34.820	1257.456	1082.849
-5.531	34.818	1256.652	1082.102
-4.517	34.844	1255.692	1081.375
-3.502	34.693	1254.898	1079.798
-2.487	34.811	1254.184	1079.805
-1.473	34.673	1250.621	1075.916
-0.458	33.276	1234.973	1054.638
0.556	29.696	1216.231	1014.822
1.571	26.001	1220.823	998.157
2.586	25.019	1236.394	1005.293
3.600	24.240	1225.175	991.746
4.615	17.627	1151.798	897.553
5.629	6.921	1072.808	783.137
6.644	2.121	1051.047	743.842
7.659	1.677	1048.843	740.058
8.673	1.655	1047.390	738.861
9.688	1.479	1046.170	737.081
10.702	2.006	1045.159	738.855
11.717	8.918	1054.243	778.882
12.731	19.018	1069.794	839.856
13.746	23.889	1074.640	867.411
14.761	24.583	1075.864	871.712
15.775	24.602	1075.392	871.344
16.790	24.490	1074.682	870.143
17.804	24.374	1074.116	869.047
18.819	24.494	1073.631	869.161
19.834	24.652	1073.215	869.512
20.848	24.765	1072.530	869.430
21.863	24.749	1071.755	868.649
22.877	24.521	1071.630	867.363
23.892	24.530	1070.792	866.654
24.907	24.592	1069.822	866.093
25.921	24.613	1069.053	865.496
26.936	24.540	1067.412	863.734
27.950	24.566	1065.845	862.516
28.965	24.487	1063.730	860.349
29.980	24.538	1062.814	859.776
30.994	24.693	1062.122	859.887
32.009	24.751	1060.691	858.931
33.023	24.466	1059.839	856.797
34.038	24.411	1058.812	855.629
35.053	24.644	1058.337	856.284
36.067	24.721	1057.188	855.648
37.082	24.618	1056.987	854.915
38.096	24.735	1056.257	854.808
39.111	24.971	1055.468	855.221
40.126	24.797	1053.960	853.093
41.140	24.529	1052.104	850.240
42.155	24.247	1050.703	847.691
43.169	24.326	1049.791	847.257
44.184	24.425	1048.503	846.612
45.199	24.138	1047.864	844.663
46.213	24.300	1046.867	844.551
47.228	24.393	1046.253	844.422
48.242	24.470	1045.318	843.957
49.257	24.641	1044.452	843.988
50.271	24.758	1043.668	843.834
51.286	24.742	1043.063	843.191
52.301	24.695	1042.345	842.317
53.315	24.596	1041.246	840.889
54.330	24.593	1040.269	840.011
55.344	24.561	1039.877	839.469
56.359	24.622	1038.895	838.890
57.374	24.443	1037.511	836.858
58.388	24.429	1036.938	836.255
59.403	24.411	1035.731	835.125
60.417	24.217	1035.216	833.727
61.432	24.212	1034.530	833.078
62.447	24.421	1033.906	833.481
63.461	24.441	1033.465	833.140
64.476	24.393	1032.172	831.800
65.490	24.200	1031.095	829.963
66.505	24.328	1030.341	829.876
67.520	24.449	1030.123	830.190
68.534	24.120	1028.805	827.527
69.549	23.949	1027.440	825.564
70.563	23.989	1026.895	825.235
71.578	23.880	1025.788	823.769
72.593	23.699	1025.348	822.506
73.607	23.987	1024.868	823.379
74.622	24.236	1024.271	823.981
75.636	24.292	1023.693	823.702
76.651	24.140	1022.160	821.692
77.666	24.041	1021.658	820.760
78.680	24.075	1021.024	820.337
79.695	24.121	1020.416	819.986
80.709	24.318	1019.607	820.169
81.724	24.239	1019.035	819.271
82.739	24.263	1018.547	818.917
83.753	24.551	1017.932	819.673
84.768	24.795	1017.428	820.312
85.782	24.987	1016.351	820.254
86.797	24.857	1015.088	818.568
87.812	24.862	1013.699	817.395
88.826	24.860	1013.224	816.932
89.841	24.855	1012.351	816.131
90.855	24.907	1011.438	815.561
91.870	24.869	1010.547	814.599
92.884	24.672	1009.739	812.978
93.899	24.594	1008.488	811.547
94.914	24.780	1007.983	811.909
95.928	24.805	1006.569	810.813
96.943	24.427	1005.447	808.125
97.957	24.283	1003.843	806.113
98.972	24.118	1002.914	804.552
99.987	24.505	1002.696	806.054
101.001	24.515	1002.221	805.645
102.016	24.504	1001.369	804.842
103.030	24.542	999.835	803.706
104.045	24.293	999.136	801.955
105.060	24.200	997.872	800.451
106.074	24.456	997.092	800.906
107.089	24.711	997.003	801.906
108.103	24.570	996.254	800.600
109.118	24.312	994.539	797.998
110.133	24.322	993.690	797.291
111.147	24.083	992.682	795.341
112.162	24.033	991.297	793.940
113.176	24.281	990.902	794.660
114.191	24.205	990.055	793.570
115.206	23.851	989.160	791.209
116.220	23.729	988.394	789.980
117.235	24.085	987.323	790.637
118.249	24.010	986.458	789.540
119.264	23.977	985.666	788.693
120.279	24.029	985.130	788.426
121.293	23.979	984.441	787.581
122.308	23.983	983.363	786.666
123.322	23.992	982.064	785.596
124.337	23.957	980.677	784.264
125.352	23.377	978.847	780.180
126.366	23.352	978.056	779.368
127.381	24.032	978.299	782.484
128.395	24.448	977.848	783.883
129.410	24.614	977.057	783.905
130.424	24.633	975.974	783.053
131.439	24.555	974.934	781.808
132.454	24.544	974.137	781.052
133.468	24.579	973.299	780.464
134.483	24.581	972.697	779.922
135.497	24.921	971.875	780.676
136.512	24.790	971.218	779.508
137.527	24.946	970.081	779.204
138.541	24.884	969.250	778.198
139.556	24.920	968.660	777.812
140.570	25.057	967.875	777.707
141.585	24.886	966.946	776.149
142.600	24.816	966.160	775.146
143.614	24.960	965.307	775.020
144.629	25.071	964.736	774.973
145.643	24.924	963.068	772.930
146.658	24.752	961.500	770.859
147.673	24.708	960.531	769.825
148.687	24.566	959.623	768.418
149.702	24.482	959.094	767.568
150.716	24.533	958.095	766.916
151.731	24.574	957.438	766.501
152.746	25.001	956.910	767.840
153.760	25.005	956.144	767.176
154.775	25.011	955.544	766.650
155.789	25.014	954.803	766.001
156.804	24.916	953.864	764.761
157.819	25.053	952.949	764.545
158.833	25.157	952.290	764.392
159.848	25.033	951.410	763.089
160.862	25.028	950.114	761.960
161.877	24.920	949.378	760.846
162.892	24.920	948.175	759.815
163.906	24.928	947.030	758.863
164.921	25.052	946.437	758.847
165.935	24.975	945.297	757.540
166.950	25.043	944.538	757.151
167.964	25.016	943.636	756.247
168.979	24.802	942.690	754.521
169.994	24.792	941.372	753.356
171.008	25.094	941.210	754.432
172.023	24.915	940.245	752.838
173.037	24.886	939.156	751.777
174.052	24.752	938.254	750.425
175.067	24.684	937.863	749.762
176.081	24.740	937.385	749.549
177.096	24.757	936.574	748.905
178.110	24.420	935.518	746.585
179.125	24.273	934.709	745.257
180.140	24.278	934.434	744.995
181.154	24.580	934.490	746.236
182.169	24.918	933.636	746.897
183.183	25.006	933.517	747.105
184.198	24.872	932.596	745.742
185.213	24.778	932.127	744.911
186.227	24.871	931.794	744.964
187.242	24.996	930.541	744.417
188.256	25.067	929.743	744.005
189.271	25.170	929.051	743.815
190.286	24.701	927.974	740.943
191.300	24.094	926.716	737.359
192.315	23.434	925.115	733.292
193.329	23.279	924.858	732.381
194.344	24.247	925.477	736.810
195.359	24.869	924.928	738.879
196.373	24.958	924.423	738.777
197.388	24.894	924.047	738.145
198.402	24.988	923.041	737.665
199.417	24.883	922.306	736.581
200.432	24.545	921.658	734.607
201.446	24.507	920.758	733.670
202.461	24.481	920.573	733.349
203.475	23.565	918.624	727.975
204.490	22.754	917.143	723.413
205.504	23.761	917.628	727.862
206.519	24.484	917.286	730.484
207.534	24.529	917.266	730.590
208.548	24.997	916.414	731.759
209.563	24.791	915.611	730.209
210.577	24.770	914.695	729.330
211.592	25.114	914.838	730.781
212.607	25.075	914.143	730.003
213.621	25.102	913.455	729.500
214.636	24.996	912.890	728.551
215.650	25.015	912.154	727.976
216.665	25.097	911.303	727.567
217.680	25.039	910.604	726.711
218.694	24.596	909.467	723.941
219.709	24.454	908.947	722.891
220.723	24.799	908.218	723.640
221.738	24.830	907.606	723.215
222.753	24.755	907.328	722.625
223.767	24.941	906.995	723.047
224.782	25.059	907.144	723.578
225.796	25.092	906.026	722.757
226.811	24.541	904.570	719.311
227.826	23.743	903.536	715.217
228.840	23.922	902.815	715.300
229.855	24.090	901.957	715.235
230.869	23.839	900.924	713.343
231.884	24.205	900.817	714.663
232.899	24.869	901.060	717.458
233.913	24.770	900.427	716.491
234.928	24.772	899.761	715.908
235.942	24.675	899.439	715.200
236.957	24.417	897.937	712.912
237.972	24.479	897.750	712.948
238.986	24.410	897.484	712.399
240.001	24.496	896.652	712.019
241.015	24.689	896.004	712.208
242.030	24.918	895.479	712.638
243.045	24.780	895.155	711.769
244.059	25.022	894.556	712.193
245.074	24.793	893.665	710.512
246.088	24.581	892.540	708.714
247.103	24.846	892.446	709.625
248.117	25.333	892.646	711.655
249.132	25.662	892.026	712.399
250.147	25.677	891.404	711.897
251.161	25.751	891.070	711.861
252.176	25.676	890.769	711.262
253.190	25.821	890.321	711.415
254.205	26.003	889.709	711.579
255.220	25.753	889.191	710.114
256.234	25.706	888.110	709.005
257.249	25.607	887.476	708.047
258.263	25.621	886.977	707.640
259.278	25.913	885.950	707.905
260.293	25.831	885.488	707.151
261.307	25.647	885.158	706.105
262.322	25.476	883.868	704.344
263.336	24.789	881.956	700.069
264.351	23.664	880.559	694.501
265.366	23.827	880.168	694.766
266.380	24.848	880.999	699.355
267.395	25.423	880.154	700.866
268.409	25.209	879.709	699.616
269.424	25.483	879.337	700.326
270.439	25.463	878.688	699.669
271.453	25.549	878.095	699.468
272.468	25.817	878.052	700.417
273.482	25.900	877.287	700.066
274.497	25.452	876.273	697.456
275.512	25.053	875.174	694.973
276.526	25.453	875.444	696.675
277.541	25.622	874.906	696.841
278.555	25.509	873.894	695.538
279.570	25.339	873.337	694.375
280.585	25.323	872.823	693.842
281.599	25.234	872.163	692.911
282.614	24.800	870.816	690.108
283.628	24.749	870.251	689.401
284.643	25.167	870.064	690.802
285.657	24.865	868.944	688.690
286.672	24.569	868.032	686.769
287.687	25.097	868.295	688.945
288.701	25.192	867.420	688.556
289.716	24.908	866.474	686.654
290.730	24.832	866.360	686.211
291.745	24.539	865.084	684.020
292.760	24.755	864.926	684.661
293.774	25.934	865.131	689.272
294.789	26.049	865.075	689.608
295.803	26.142	864.563	689.494
296.818	26.209	864.181	689.382
297.833	25.771	862.792	686.544
298.847	25.603	861.786	685.044
299.862	25.774	862.069	685.858
300.876	26.142	861.638	686.857
301.891	26.131	860.637	685.955
302.906	25.554	860.008	683.204
303.920	25.722	859.388	683.286
304.935	26.169	859.315	684.864
305.949	26.078	858.737	683.999
306.964	25.776	858.055	682.251
307.979	25.928	857.485	682.311
308.993	26.218	857.491	683.354
310.008	26.185	856.697	682.538
311.022	25.958	856.097	681.139
312.037	25.760	855.768	680.070
313.052	25.485	854.914	678.293
314.066	24.738	852.669	673.642
315.081	24.349	852.127	671.686
316.095	25.298	852.263	675.309
317.110	25.685	852.488	676.881
318.125	24.943	850.617	672.553
319.139	23.802	849.327	667.188
320.154	23.877	848.858	667.044
321.168	24.631	849.604	670.403
322.183	25.356	849.823	673.236
323.197	25.492	849.214	673.203
324.212	25.852	848.818	674.175
325.227	26.076	847.770	674.119
326.241	25.691	847.602	672.489
327.256	25.712	846.525	671.653
328.270	25.480	846.337	670.580
329.285	25.472	845.244	669.625
330.300	25.248	844.512	668.152
331.314	25.427	844.547	668.785
332.329	25.872	844.385	670.254
333.343	25.977	843.761	670.088
334.358	26.013	843.405	669.882
335.373	26.091	842.981	669.775
336.387	26.410	843.095	670.991
337.402	26.426	843.062	670.963
338.416	26.249	842.620	669.896
339.431	26.386	842.150	669.969
340.446	26.586	841.892	670.446
341.460	26.437	841.586	669.592
342.475	26.224	841.036	668.308
343.489	26.334	840.570	668.286
344.504	26.770	840.229	669.564
345.519	26.877	839.919	669.653
346.533	26.845	839.386	669.052
347.548	26.703	839.033	668.187
348.562	26.797	838.092	667.727
349.577	26.778	837.699	667.282
350.592	26.636	836.873	666.043
351.606	26.615	836.295	665.449
352.621	26.572	835.120	664.295
353.635	26.545	834.739	663.837
354.650	25.938	833.152	660.293
355.665	24.863	831.622	655.089
356.679	25.305	831.717	656.725
357.694	25.750	831.189	657.874
358.708	25.789	830.470	657.390
359.723	26.048	830.490	658.294
360.738	26.444	830.051	659.329
361.752	26.408	829.923	659.041
362.767	26.927	829.140	660.248
363.781	27.078	829.057	660.673
364.796	27.069	828.994	660.532
365.810	27.093	828.641	660.279
366.825	27.051	827.663	659.289
367.840	26.894	827.024	658.153
368.854	26.306	826.336	655.413
369.869	26.357	826.342	655.548
370.883	26.499	825.369	655.231
371.898	26.370	825.002	654.413
372.913	26.472	824.897	654.640
373.927	26.577	824.250	654.450
374.942	26.742	823.658	654.519
375.956	26.881	823.617	654.929
376.971	27.016	823.176	655.008
377.986	27.021	823.175	654.968
379.000	27.142	822.254	654.611
380.015	26.825	821.654	652.937
381.029	26.911	821.065	652.721
382.044	27.028	820.672	652.768
383.059	27.155	820.063	652.685
384.073	27.261	819.404	652.483
385.088	27.208	818.391	651.429
386.102	26.893	818.163	650.060
387.117	26.698	817.491	648.768
388.132	26.586	816.295	647.363
389.146	25.971	814.945	644.039
390.161	26.320	815.130	645.377
391.175	26.884	814.834	647.095
392.190	26.655	813.941	645.513
393.205	25.331	811.947	639.166
394.219	23.641	810.084	631.635
395.234	23.567	809.932	631.196
396.248	25.143	811.540	638.006
397.263	26.692	812.258	644.025
398.278	26.632	811.727	643.334
399.292	26.373	811.287	642.008
400.307	26.490	810.700	641.902
401.321	26.543	810.097	641.555
402.336	26.923	810.357	643.051
403.350	27.332	810.153	644.281
404.365	27.571	809.772	644.769
405.380	27.882	809.504	645.596
406.394	27.882	809.053	645.182
407.409	27.733	808.753	644.360
408.423	27.689	808.499	643.945
409.438	27.786	808.044	643.864
410.453	27.894	807.278	643.578
411.467	27.731	807.053	642.767
412.482	27.859	806.346	642.601
413.496	28.044	806.081	642.982
414.511	27.759	806.043	641.893
415.526	27.978	805.386	642.082
416.540	27.557	804.529	639.865
417.555	27.435	803.981	638.944
418.569	27.568	803.333	638.836
419.584	27.514	802.790	638.162
420.599	27.281	802.422	636.995
421.613	108.313	1281.216	1444.420
422.628	93.418	1350.992	1444.543
