DTS Sentinel unit serial number:	SN413079Multiplexer serial number:	ORYXHardware model number:	OX4-SRSoftware version number:	ORYX F/W v4.00 Oryx Data Collector v3.7.2.0data status	okinstallation	princeton_trtdifferential loss correction	single-endedforward channel	channel 1reverse channel	N/Adate	2019/09/12time	05:08:11forward acquisition time	60.00reverse acquisition time	0.00gamma	496.2192k internal	0.2322k external	0.2322temperature offset calibration	1.0053default loss term (dB/km)	0.3790temperature slope calibration	1.0000multiplexer offset coefficient	1.0000multiplexer slope coefficient	1.0000fibre end	0.00T internal ref (°C)	31.77T ext. ref 1 (°C)	1.66T ext. ref 2 (°C)	27.11length (m)	temperature (°C)	Stokes	anti-Stokes-747.200	800.000	0.017	0.072
-746.185	-200.000	-0.006	0.415
-745.171	-73.648	-0.203	0.075
-744.156	-66.217	-0.221	0.089
-743.142	-200.000	-0.002	-0.024
-742.127	-21.340	0.013	0.008
-741.112	-95.770	0.159	0.043
-740.098	-200.000	-0.059	0.347
-739.083	-65.097	0.247	0.101
-738.069	-81.421	-0.264	0.088
-737.054	238.738	-0.137	-0.229
-736.039	115.445	0.068	0.084
-735.025	-15.000	-0.284	-0.184
-734.010	-79.589	-0.333	-0.113
-732.996	-200.000	0.055	0.287
-731.981	-53.649	-0.224	-0.103
-730.966	-123.585	0.204	-0.033
-729.952	-200.000	0.060	0.449
-728.937	-129.237	0.365	0.051
-727.923	-200.000	0.007	-0.168
-726.908	-142.766	0.123	-0.012
-725.894	12.688	-0.189	0.147
-724.879	-200.000	0.004	0.275
-723.864	-116.008	-0.411	-0.077
-722.850	-78.070	0.279	-0.097
-721.835	-36.326	-0.207	-0.113
-720.821	800.000	0.031	0.115
-719.806	800.000	0.130	-0.448
-718.791	-200.000	-0.010	-0.225
-717.777	-149.387	-0.374	-0.030
-716.762	216.422	0.058	0.094
-715.748	195.513	-0.098	0.151
-714.733	32.066	0.371	-0.323
-713.718	40.308	-0.260	0.236
-712.704	-22.804	-0.037	-0.023
-711.689	800.000	0.064	-0.192
-710.675	578.504	0.049	0.121
-709.660	-37.560	0.346	-0.186
-708.645	-27.058	-0.111	-0.065
-707.631	-182.662	-0.265	0.005
-706.616	-133.418	-0.111	-0.014
-705.602	800.000	0.132	0.384
-704.587	-51.600	-0.154	0.073
-703.572	-7.676	-0.068	-0.047
-702.558	164.638	-0.150	-0.213
-701.543	-130.398	0.378	-0.052
-700.529	2.119	-0.175	-0.128
-699.514	137.847	0.042	-0.056
-698.499	-200.000	-0.008	0.108
-697.485	177.236	-0.203	-0.297
-696.470	12.477	-0.087	-0.068
-695.456	-122.637	-0.055	0.009
-694.441	659.682	0.090	-0.234
-693.426	-12.463	0.049	0.032
-692.412	85.211	-0.023	0.026
-691.397	50.659	-0.195	0.186
-690.383	492.885	-0.036	-0.084
-689.368	800.000	0.109	-0.312
-688.354	143.149	0.057	-0.076
-687.339	92.701	0.109	-0.124
-686.324	-150.250	-0.294	0.023
-685.310	800.000	0.036	-0.149
-684.295	-146.620	-0.101	-0.009
-683.281	152.102	-0.090	-0.124
-682.266	-25.450	0.125	-0.074
-681.251	573.167	0.143	-0.352
-680.237	-166.365	0.201	-0.009
-679.222	186.727	0.117	-0.176
-678.208	-200.000	-0.025	0.274
-677.193	-200.000	0.033	0.161
-676.178	-38.051	-0.161	-0.086
-675.164	-177.210	-0.203	-0.005
-674.149	259.611	0.052	0.090
-673.135	800.000	-0.029	0.085
-672.120	-200.000	-0.005	0.103
-671.105	800.000	0.080	-0.298
-670.091	-134.895	0.159	-0.019
-669.076	-179.013	0.156	0.004
-668.062	800.000	-0.084	-0.264
-667.047	-200.000	-0.002	-0.232
-666.032	-7.632	0.128	-0.087
-665.018	38.238	-0.078	0.070
-664.003	-29.601	0.239	0.138
-662.989	294.505	0.114	0.209
-661.974	79.219	0.156	-0.168
-660.959	-200.000	0.029	-0.245
-659.945	-200.000	-0.030	0.185
-658.930	-200.000	0.003	0.226
-657.916	-200.000	-0.003	0.039
-656.901	-61.645	-0.138	-0.058
-655.886	-200.000	0.006	0.154
-654.872	303.269	-0.090	-0.167
-653.857	-133.144	0.089	-0.011
-652.843	-200.000	-0.024	-0.123
-651.828	-200.000	0.018	0.152
-650.814	-200.000	0.004	0.089
-649.799	-200.000	0.022	0.141
-648.784	-39.909	-0.183	0.096
-647.770	-144.568	-0.337	-0.031
-646.755	-162.381	0.312	-0.016
-645.741	404.276	0.065	0.137
-644.726	-200.000	0.039	0.243
-643.711	107.757	-0.148	0.178
-642.697	-88.897	-0.182	0.054
-641.682	590.339	-0.061	0.151
-640.668	800.000	-0.135	-0.387
-639.653	-17.633	-0.246	0.155
-638.638	-131.474	-0.353	-0.047
-637.624	20.341	0.301	0.245
-636.609	152.179	-0.074	-0.102
-635.595	-126.378	-0.526	-0.079
-634.580	-200.000	-0.028	0.262
-633.565	-87.735	-0.163	-0.049
-632.551	209.998	0.090	-0.142
-631.536	324.353	-0.080	0.153
-630.522	-1.519	-0.144	-0.102
-629.507	655.257	-0.183	-0.473
-628.492	191.148	0.125	0.189
-627.478	-60.129	-0.205	-0.088
-626.463	-123.557	0.109	0.017
-625.449	-110.430	0.275	0.057
-624.434	-200.000	0.033	-0.176
-623.419	-200.000	0.002	0.133
-622.405	-107.322	0.320	-0.071
-621.390	-6.962	0.143	-0.097
-620.376	122.102	0.272	0.342
-619.361	-200.000	-0.036	0.194
-618.346	-11.055	-0.106	-0.070
-617.332	167.489	-0.115	0.164
-616.317	800.000	-0.069	0.297
-615.303	430.169	-0.129	-0.281
-614.288	648.138	0.069	-0.177
-613.273	-117.765	-0.192	-0.035
-612.259	-200.000	-0.043	-0.309
-611.244	255.254	0.214	0.369
-610.230	-124.633	-0.048	0.008
-609.215	-114.137	-0.407	0.079
-608.201	-200.000	0.008	-0.177
-607.186	300.684	-0.055	0.103
-606.171	-200.000	-0.026	0.338
-605.157	800.000	-0.045	-0.127
-604.142	24.710	-0.204	-0.170
-603.128	-120.924	-0.247	-0.042
-602.113	797.624	0.124	-0.344
-601.098	1.666	0.289	-0.209
-600.084	-185.173	0.302	0.005
-599.069	479.057	0.096	0.218
-598.055	29.446	-0.065	-0.055
-597.040	21.441	0.145	0.119
-596.025	800.000	-0.032	-0.106
-595.011	800.000	0.041	-0.179
-593.996	-200.000	-0.000	-0.182
-592.982	-28.168	0.222	0.129
-591.967	-200.000	-0.003	0.095
-590.952	-127.019	0.294	0.043
-589.938	-200.000	0.029	0.157
-588.923	-91.780	-0.178	-0.051
-587.909	-200.000	-0.037	0.203
-586.894	-78.066	0.248	0.086
-585.879	-36.886	-0.032	0.017
-584.865	231.353	0.198	-0.325
-583.850	-200.000	-0.010	0.085
-582.836	-129.456	-0.182	0.025
-581.821	-200.000	-0.056	0.263
-580.806	77.836	0.094	0.101
-579.792	194.347	0.309	0.470
-578.777	-75.339	0.189	-0.068
-577.763	274.330	0.197	-0.350
-576.748	412.873	0.108	-0.230
-575.733	20.510	0.147	0.119
-574.719	7.136	0.069	0.052
-573.704	-162.618	-0.223	-0.011
-572.690	648.837	-0.086	-0.221
-571.675	-200.000	-0.019	-0.125
-570.661	-114.149	-0.087	-0.017
-569.646	-36.273	-0.041	-0.022
-568.631	-99.309	0.091	-0.023
-567.617	-41.217	0.064	-0.033
-566.602	112.628	0.252	-0.307
-565.588	107.879	-0.130	0.155
-564.573	-97.151	0.119	0.031
-563.558	-150.192	-0.146	-0.011
-562.544	154.552	-0.045	0.063
-561.529	168.520	0.261	-0.374
-560.515	-39.093	0.081	0.043
-559.500	800.000	0.123	-0.342
-558.485	27.857	0.250	0.211
-557.471	30.692	0.155	0.133
-556.456	-18.050	0.139	0.087
-555.442	-45.345	0.083	0.041
-554.427	2.023	-0.078	0.057
-553.412	782.695	0.109	0.299
-552.398	1.459	-0.401	-0.289
-551.383	800.000	0.033	-0.131
-550.369	-167.271	0.474	-0.019
-549.354	536.212	-0.216	-0.515
-548.339	-111.257	0.278	0.057
-547.325	-21.605	-0.251	0.153
-546.310	800.000	-0.108	-0.401
-545.296	35.842	0.044	0.039
-544.281	-140.455	0.544	0.057
-543.266	-200.000	-0.001	0.050
-542.252	-200.000	0.023	0.279
-541.237	-100.522	-0.083	0.021
-540.223	-120.007	0.168	0.029
-539.208	-15.957	0.070	-0.045
-538.193	229.353	-0.039	0.064
-537.179	502.902	-0.146	-0.339
-536.164	-143.893	-0.156	-0.015
-535.150	-186.866	-0.232	0.003
-534.135	800.000	0.075	-0.285
-533.121	104.248	-0.166	0.195
-532.106	6.273	-0.273	0.203
-531.091	-187.556	0.258	-0.003
-530.077	102.125	-0.130	-0.152
-529.062	238.951	-0.051	0.085
-528.048	-52.449	0.301	-0.139
-527.033	159.274	0.237	0.331
-526.018	-39.413	0.217	0.114
-525.004	-140.124	0.148	-0.016
-523.989	-105.369	-0.073	-0.017
-522.975	-200.000	-0.037	-0.209
-521.960	133.186	0.087	0.113
-520.945	180.164	-0.033	-0.049
-519.931	-56.257	0.094	0.042
-518.916	-96.632	-0.156	0.041
-517.902	800.000	-0.077	-0.225
-516.887	-200.000	-0.001	-0.090
-515.872	-44.748	-0.248	0.124
-514.858	315.946	0.068	0.129
-513.843	-158.561	-0.148	0.009
-512.829	1.453	-0.128	-0.092
-511.814	-2.352	0.109	-0.077
-510.799	17.339	0.156	0.124
-509.785	5.137	-0.231	0.170
-508.770	800.000	0.049	0.213
-507.756	-145.584	-0.170	0.015
-506.741	112.780	0.113	-0.137
-505.726	45.994	-0.068	-0.063
-504.712	-27.877	-0.117	0.068
-503.697	-57.433	-0.317	-0.139
-502.683	485.490	-0.041	-0.094
-501.668	-200.000	0.028	0.131
-500.653	348.047	-0.062	-0.123
-499.639	-70.480	-0.056	-0.021
-498.624	-200.000	-0.046	0.269
-497.610	228.808	-0.098	0.159
-496.595	-100.429	-0.414	0.103
-495.581	376.040	0.151	0.309
-494.566	-13.484	-0.246	-0.160
-493.551	78.094	0.142	-0.151
-492.537	-200.000	0.002	0.121
-491.522	-169.956	0.143	-0.005
-490.508	-147.566	-0.433	0.036
-489.493	17.213	-0.174	0.138
-488.478	-200.000	-0.033	-0.176
-487.464	-1.672	0.162	0.114
-486.449	800.000	-0.076	-0.316
-485.435	520.948	-0.080	-0.189
-484.420	-37.103	0.139	0.074
-483.405	87.913	0.144	0.159
-482.391	-122.736	0.073	0.012
-481.376	-200.000	-0.015	0.080
-480.362	-200.000	-0.176	-0.001
-479.347	-14.300	0.196	-0.127
-478.332	165.766	0.221	0.312
-477.318	438.498	-0.148	0.324
-476.303	164.828	0.179	0.252
-475.289	-114.381	0.170	0.033
-474.274	800.000	0.117	-0.456
-473.259	-186.600	0.508	0.007
-472.245	78.774	0.086	-0.091
-471.230	-119.633	-0.351	-0.061
-470.216	-27.688	0.228	0.132
-469.201	-200.000	0.043	0.229
-468.186	-67.276	-0.069	0.027
-467.172	5.076	-0.127	-0.093
-466.157	-150.795	-0.136	0.010
-465.143	102.248	0.080	-0.093
-464.128	267.634	-0.094	0.165
-463.113	280.015	-0.043	-0.077
-462.099	-200.000	0.008	0.164
-461.084	-28.756	0.168	-0.097
-460.070	800.000	0.106	0.367
-459.055	-38.720	-0.253	-0.133
-458.040	-135.339	-0.262	-0.031
-457.026	533.197	-0.180	-0.427
-456.011	-41.423	-0.144	0.074
-454.997	164.996	-0.206	0.291
-453.982	5.282	-0.073	0.054
-452.968	180.681	0.032	0.046
-451.953	-44.057	0.270	0.136
-450.938	27.562	-0.109	0.092
-449.924	-63.954	0.320	-0.131
-448.909	-25.756	0.154	-0.091
-447.895	-96.117	0.244	0.065
-446.880	381.616	-0.124	-0.254
-445.865	-98.772	0.181	-0.046
-444.851	-200.000	0.059	-0.410
-443.836	25.321	-0.081	0.067
-442.822	507.891	0.045	0.104
-441.807	-200.000	-0.020	-0.161
-440.792	67.803	-0.154	-0.157
-439.778	-119.125	0.076	-0.013
-438.763	-14.406	-0.185	0.119
-437.749	-146.721	0.168	0.015
-436.734	698.965	0.045	0.117
-435.719	-165.395	-0.238	-0.010
-434.705	269.984	0.039	0.068
-433.690	46.183	-0.142	0.131
-432.676	337.912	0.154	0.300
-431.661	-37.899	-0.074	-0.039
-430.646	800.000	-0.090	0.354
-429.632	-49.604	0.175	0.083
-428.617	462.406	0.073	0.163
-427.603	-15.371	0.244	-0.156
-426.588	546.071	-0.111	-0.264
-425.573	67.564	-0.065	-0.066
-424.559	-120.391	0.431	-0.073
-423.544	-200.000	-0.021	0.266
-422.530	129.985	-0.106	0.135
-421.515	-61.897	-0.161	-0.067
-420.500	800.000	-0.100	-0.420
-419.486	-145.827	0.129	-0.011
-418.471	122.293	-0.170	-0.212
-417.457	45.492	-0.081	0.074
-416.442	61.276	-0.075	-0.075
-415.428	-112.298	-0.228	0.046
-414.413	147.462	-0.127	-0.171
-413.398	-200.000	0.023	-0.220
-412.384	39.017	0.134	-0.119
-411.369	61.712	-0.245	-0.243
-410.355	-200.000	0.035	0.251
-409.340	-163.217	-0.125	-0.006
-408.325	195.656	0.127	-0.193
-407.311	-60.302	-0.137	0.058
-406.296	80.447	0.150	0.161
-405.282	403.398	0.074	-0.155
-404.267	-28.761	-0.250	0.144
-403.252	196.705	0.121	-0.184
-402.238	124.073	-0.135	0.169
-401.223	-200.000	0.038	0.327
-400.209	-162.672	-0.123	0.006
-399.194	-34.533	0.117	-0.064
-398.179	-82.078	0.246	-0.080
-397.165	-72.739	0.107	-0.039
-396.150	800.000	-0.018	0.062
-395.136	-200.000	0.073	-0.427
-394.121	-115.907	-0.189	-0.035
-393.106	14.294	0.233	0.181
-392.092	56.095	-0.107	-0.103
-391.077	-118.685	-0.038	0.007
-390.063	138.463	0.145	0.190
-389.048	-134.341	-0.178	0.022
-388.033	7.814	-0.150	-0.112
-387.019	800.000	-0.033	0.093
-386.004	396.755	0.013	-0.028
-384.990	-200.000	0.045	0.517
-383.975	265.319	-0.087	0.151
-382.960	95.716	-0.080	0.091
-381.946	80.067	0.347	-0.372
-380.931	-87.068	0.196	0.059
-379.917	-105.507	0.363	-0.082
-378.902	-200.000	0.007	0.122
-377.888	-16.228	0.168	0.106
-376.873	-61.592	-0.250	-0.105
-375.858	39.518	-0.295	-0.263
-374.844	-101.250	-0.349	0.085
-373.829	-86.367	-0.425	-0.130
-372.815	-92.225	-0.225	0.063
-371.800	27.720	-0.158	0.132
-370.785	-200.000	0.029	-0.304
-369.771	43.456	0.278	0.253
-368.756	-15.608	0.305	0.193
-367.742	-4.929	-0.266	-0.182
-366.727	-60.961	0.153	0.065
-365.712	-128.597	-0.275	-0.039
-364.698	-81.084	-0.142	0.047
-363.683	222.252	-0.058	-0.093
-362.669	-63.202	-0.052	0.021
-361.654	-200.000	-0.004	0.227
-360.639	-95.600	-0.054	0.015
-359.625	288.795	0.093	0.167
-358.610	-200.000	-0.005	0.286
-357.596	393.006	0.072	-0.150
-356.581	800.000	-0.031	-0.110
-355.566	-57.034	-0.170	0.075
-354.552	-176.997	-0.183	0.005
-353.537	299.363	0.145	0.266
-352.523	190.951	-0.133	0.199
-351.508	-114.808	0.260	-0.049
-350.493	800.000	-0.055	-0.215
-349.479	-121.879	0.342	0.056
-348.464	-94.150	0.250	0.068
-347.450	84.194	0.135	-0.147
-346.435	-52.244	-0.134	0.062
-345.420	800.000	-0.025	0.076
-344.406	-200.000	0.009	-0.114
-343.391	120.075	-0.239	-0.296
-342.377	800.000	0.058	-0.246
-341.362	-151.416	0.053	-0.004
-340.348	2.961	-0.134	-0.097
-339.333	18.662	-0.091	0.072
-338.318	-138.312	0.168	-0.018
-337.304	800.000	0.016	0.047
-336.289	-107.200	-0.291	0.064
-335.275	-200.000	0.031	-0.289
-334.260	133.205	0.098	0.126
-333.245	216.998	0.238	-0.377
-332.231	-67.747	0.414	-0.161
-331.216	-40.387	0.155	0.080
-330.202	585.674	0.082	0.200
-329.187	-25.545	-0.067	0.040
-328.172	-136.172	-0.130	0.015
-327.158	-84.115	-0.279	-0.088
-326.143	1.292	-0.091	0.065
-325.129	-90.832	-0.197	-0.056
-324.114	-67.625	-0.303	0.118
-323.099	148.223	0.068	-0.092
-322.085	-200.000	0.028	-0.470
-321.070	-41.534	0.059	-0.030
-320.056	55.737	0.060	-0.058
-319.041	-125.460	0.354	-0.053
-318.026	255.332	0.094	0.160
-317.012	-28.982	0.045	-0.026
-315.997	198.405	-0.067	0.102
-314.983	-200.000	-0.036	0.212
-313.968	63.753	-0.002	0.002
-312.953	-142.293	0.330	0.032
-311.939	800.000	0.045	-0.174
-310.924	-88.818	0.077	-0.023
-309.910	-200.000	0.005	0.191
-308.895	-124.657	-0.287	-0.044
-307.880	-200.000	0.020	0.110
-306.866	-200.000	0.003	0.113
-305.851	-200.000	-0.050	0.354
-304.837	193.180	-0.012	0.018
-303.822	-69.486	0.119	-0.045
-302.807	666.606	-0.038	0.099
-301.793	236.619	-0.121	-0.198
-300.778	-60.799	0.076	-0.032
-299.764	102.365	0.251	-0.292
-298.749	76.655	0.177	-0.186
-297.735	-200.000	0.086	0.378
-296.720	-107.900	0.044	0.009
-295.705	52.880	0.257	0.244
-294.691	371.535	0.074	0.149
-293.676	-58.898	-0.142	0.061
-292.662	-33.989	-0.138	0.075
-291.647	-73.957	-0.185	-0.067
-290.632	1.551	0.212	-0.151
-289.618	112.691	-0.122	0.147
-288.603	800.000	0.006	0.025
-287.589	166.846	-0.246	0.346
-286.574	800.000	-0.120	0.390
-285.559	484.587	-0.143	-0.324
-284.545	-127.618	-0.330	-0.047
-283.530	282.586	-0.128	0.228
-282.516	223.078	-0.144	0.230
-281.501	154.559	-0.095	-0.129
-280.486	-131.348	-0.119	-0.016
-279.472	-19.388	0.163	-0.100
-278.457	-97.301	-0.150	-0.039
-277.443	800.000	-0.042	0.145
-276.428	-54.251	-0.078	-0.035
-275.413	723.105	-0.018	0.048
-274.399	94.685	-0.162	0.183
-273.384	-83.441	0.123	-0.039
-272.370	-91.073	-0.103	-0.029
-271.355	-200.000	-0.038	0.190
-270.340	636.341	-0.097	-0.246
-269.326	103.810	-0.041	-0.048
-268.311	-154.015	-0.126	-0.009
-267.297	-200.000	0.003	-0.334
-266.282	-200.000	0.005	-0.336
-265.267	-54.334	-0.243	0.109
-264.253	29.484	-0.281	0.237
-263.238	-98.709	0.355	-0.090
-262.224	-81.812	0.137	0.044
-261.209	366.851	-0.100	-0.199
-260.195	-88.004	-0.208	0.062
-259.180	72.061	0.189	0.195
-258.165	-78.180	-0.155	-0.053
-257.151	-101.596	-0.178	-0.043
-256.136	64.271	-0.112	-0.112
-255.122	654.489	0.065	-0.165
-254.107	-98.523	0.276	0.070
-253.092	800.000	0.065	0.224
-252.078	-200.000	0.035	0.223
-251.063	-124.505	-0.112	-0.017
-250.049	155.980	0.225	-0.307
-249.034	-35.558	-0.289	0.156
-248.019	-200.000	0.005	-0.203
-247.005	-200.000	-0.036	-0.285
-245.990	-17.803	-0.206	0.128
-244.976	-200.000	-0.010	-0.297
-243.961	-75.463	-0.276	0.097
-242.946	20.608	0.162	-0.130
-241.932	-85.952	-0.038	0.012
-240.917	800.000	0.053	0.158
-239.903	112.272	0.056	0.067
-238.888	-6.626	0.069	0.047
-237.873	203.550	0.190	-0.291
-236.859	-200.000	-0.006	-0.109
-235.844	592.484	0.063	0.154
-234.830	-200.000	0.012	-0.113
-233.815	74.233	0.131	0.136
-232.800	158.824	-0.180	0.248
-231.786	221.764	-0.217	0.345
-230.771	-71.707	-0.320	-0.118
-229.757	-84.927	0.212	0.066
-228.742	354.667	0.036	0.070
-227.727	400.383	0.062	0.130
-226.713	711.063	0.034	-0.090
-225.698	122.819	-0.256	0.317
-224.684	105.778	-0.089	0.105
-223.669	-32.248	-0.097	0.053
-222.655	-200.000	0.013	0.063
-221.640	-200.000	-0.016	0.112
-220.625	20.373	-0.125	0.100
-219.611	177.227	-0.153	-0.220
-218.596	-200.000	-0.010	-0.164
-217.582	-48.680	0.230	0.109
-216.567	-159.219	0.179	-0.010
-215.552	132.380	-0.139	0.178
-214.538	-70.204	0.211	-0.079
-213.523	150.758	0.173	-0.233
-212.509	50.973	-0.102	-0.096
-211.494	-200.000	0.016	-0.294
-210.479	-200.000	0.012	-0.270
-209.465	-94.568	0.150	0.040
-208.450	180.832	0.129	0.187
-207.436	-200.000	-0.021	-0.153
-206.421	63.684	0.218	0.216
-205.406	-48.243	-0.196	-0.094
-204.392	6.574	-0.099	-0.072
-203.377	682.879	0.008	-0.021
-202.363	800.000	0.074	-0.205
-201.348	-105.274	-0.218	0.049
-200.333	-25.965	0.313	0.182
-199.319	524.735	-0.031	0.071
-198.304	800.000	-0.042	-0.120
-197.290	-84.046	0.193	0.061
-196.275	-147.336	0.375	-0.031
-195.260	-143.371	-0.203	0.019
-194.246	800.000	-0.024	-0.104
-193.231	800.000	-0.146	0.406
-192.217	-20.595	0.130	0.079
-191.202	-129.631	0.336	-0.046
-190.187	33.684	-0.150	0.129
-189.173	23.048	0.122	0.099
-188.158	130.112	-0.117	0.148
-187.144	-200.000	0.016	0.102
-186.129	136.404	0.021	-0.026
-185.114	800.000	0.085	-0.308
-184.100	205.819	0.148	-0.227
-183.085	-200.000	-0.022	0.194
-182.071	45.274	-0.263	-0.240
-181.056	800.000	-0.012	-0.040
-180.042	-200.000	-0.001	-0.085
-179.027	308.964	0.185	-0.342
-178.012	-200.000	0.001	-0.048
-176.998	-200.000	-0.020	0.333
-175.983	-200.000	-0.065	-0.329
-174.969	800.000	-0.026	-0.095
-173.954	292.664	-0.084	0.150
-172.939	-200.000	0.069	-0.335
-171.925	-200.000	0.016	-0.100
-170.910	800.000	-0.072	0.303
-169.896	-18.541	-0.153	0.094
-168.881	-200.000	0.003	-0.341
-167.866	-146.044	-0.310	-0.027
-166.852	39.740	0.135	-0.120
-165.837	-83.674	0.527	-0.166
-164.823	800.000	0.096	0.340
-163.808	-93.866	0.158	0.043
-162.793	-6.415	0.046	-0.031
-161.779	-29.916	0.148	-0.083
-160.764	-148.834	0.268	0.021
-159.750	-54.815	0.202	-0.090
-158.735	-46.620	0.028	0.014
-157.720	-69.627	0.188	0.071
-156.706	800.000	0.058	0.167
-155.691	108.693	0.184	-0.217
-154.677	-200.000	0.024	-0.152
-153.662	481.920	0.022	0.049
-152.647	-200.000	0.022	-0.476
-151.633	-163.399	-0.211	0.010
-150.618	-96.299	0.316	0.083
-149.604	-200.000	0.013	-0.127
-148.589	-60.953	0.227	-0.095
-147.574	800.000	0.076	0.237
-146.560	-98.114	0.224	0.057
-145.545	68.285	-0.293	0.297
-144.531	-31.262	-0.259	0.144
-143.516	268.327	-0.051	-0.088
-142.502	-125.154	-0.145	-0.022
-141.487	749.670	-0.073	-0.195
-140.472	-200.000	0.009	0.101
-139.458	-123.412	-0.057	-0.009
-138.443	-115.816	0.168	-0.031
-137.429	26.455	0.096	-0.079
-136.414	-19.382	0.207	-0.127
-135.399	-200.000	0.028	-0.156
-134.385	338.525	-0.134	0.257
-133.370	98.503	0.058	0.066
-132.356	18.385	0.270	-0.213
-131.341	159.689	0.175	0.241
-130.326	-16.706	0.178	0.111
-129.312	198.670	-0.113	0.171
-128.297	-50.695	0.127	0.059
-127.283	185.634	0.141	0.207
-126.268	-84.998	0.108	0.033
-125.253	222.957	-0.158	-0.252
-124.239	-104.559	-0.195	-0.044
-123.224	7.847	0.158	-0.117
-122.210	-20.089	0.154	-0.094
-121.195	-19.181	-0.162	-0.099
-120.180	312.941	-0.246	-0.457
-119.166	-91.045	0.236	0.067
-118.151	319.704	0.186	0.347
-117.137	145.160	0.285	0.376
-116.122	120.400	-0.108	0.132
-115.107	-79.938	0.221	-0.073
-114.093	-112.167	0.207	-0.041
-113.078	107.560	-0.116	-0.136
-112.064	-83.782	-0.077	-0.024
-111.049	184.190	0.038	0.056
-110.034	1.651	-0.020	-0.014
-109.020	-200.000	0.022	-0.332
-108.005	769.096	-0.124	0.333
-106.991	-91.028	0.090	-0.026
-105.976	255.677	-0.054	0.091
-104.962	301.888	-0.025	-0.046
-103.947	5.508	0.269	-0.196
-102.932	226.750	0.133	-0.213
-101.918	347.063	0.076	0.147
-100.903	-200.000	0.002	-0.011
-99.889	87.565	0.105	-0.115
-98.874	-42.017	-0.113	0.057
-97.859	354.464	-0.058	-0.113
-96.845	77.426	0.073	0.076
-95.830	233.584	0.163	-0.265
-94.816	-85.389	-0.221	-0.068
-93.801	34.229	-0.218	0.187
-92.786	538.563	-0.118	0.277
-91.772	157.725	-0.246	0.335
-90.757	-146.877	-0.056	-0.005
-89.743	-71.637	-0.143	0.053
-88.728	-200.000	0.031	0.254
-87.713	9.539	0.296	0.221
-86.699	-0.145	0.142	0.100
-85.684	-200.000	0.017	-0.159
-84.670	-21.068	0.301	-0.181
-83.655	687.262	-0.106	-0.273
-82.640	-200.000	-0.007	-0.299
-81.626	-200.000	-0.021	0.281
-80.611	-26.757	-0.154	0.088
-79.597	-200.000	-0.009	-0.264
-78.582	-62.969	-0.251	-0.102
-77.567	-163.006	0.107	0.005
-76.553	758.976	0.035	-0.093
-75.538	122.532	-0.186	-0.228
-74.524	-112.538	-0.371	0.073
-73.509	4.687	0.108	0.078
-72.494	42.869	-0.200	-0.179
-71.480	38.027	0.192	-0.168
-70.465	-200.000	0.024	-0.147
-69.451	-200.000	0.017	0.075
-68.436	800.000	0.065	-0.231
-67.422	122.732	-0.189	0.233
-66.407	800.000	0.046	-0.163
-65.392	-200.000	0.061	0.486
-64.378	-37.417	-0.284	0.149
-63.363	321.158	-0.041	0.076
-62.349	456.724	-0.079	0.173
-61.334	25.637	-0.805	-0.659
-60.319	151.067	0.444	0.594
-59.305	188.754	-0.633	-0.933
-58.290	48.865	0.786	0.726
-57.276	502.557	0.607	1.380
-56.261	-200.000	96.028	593.345
-55.246	556.389	1368.054	3241.564
-54.232	162.003	2546.389	3508.390
-53.217	113.666	2136.308	2552.370
-52.203	43.757	1598.971	1439.472
-51.188	35.339	1336.505	1152.814
-50.173	32.099	1295.166	1098.199
-49.159	54.643	1342.328	1272.775
-48.144	56.694	1358.223	1299.976
-47.130	35.466	1317.530	1137.016
-46.115	31.992	1300.048	1101.536
-45.100	31.894	1294.887	1096.547
-44.086	31.848	1292.162	1093.927
-43.071	31.580	1290.468	1090.888
-42.057	31.689	1287.920	1089.324
-41.042	31.674	1286.729	1088.188
-40.027	31.749	1285.084	1087.189
-39.013	31.634	1283.687	1085.298
-37.998	31.765	1281.291	1083.986
-36.984	31.723	1279.730	1082.379
-35.969	31.782	1277.874	1081.109
-34.954	31.832	1275.970	1079.740
-33.940	31.817	1274.939	1078.740
-32.925	31.768	1273.961	1077.588
-31.911	31.802	1271.933	1076.023
-30.896	31.955	1270.348	1075.519
-29.881	31.878	1269.170	1074.036
-28.867	31.915	1267.841	1073.080
-27.852	31.836	1266.705	1071.627
-26.838	32.005	1264.497	1070.680
-25.823	31.943	1263.563	1069.492
-24.809	31.824	1262.473	1067.853
-23.794	31.806	1261.461	1066.850
-22.779	31.813	1259.894	1065.523
-21.765	31.831	1258.631	1064.515
-20.750	31.792	1257.438	1063.243
-19.736	31.759	1256.174	1061.940
-18.721	31.787	1254.615	1060.743
-17.706	31.715	1254.073	1059.834
-16.692	31.800	1252.543	1058.976
-15.677	31.800	1251.602	1058.144
-14.663	31.652	1250.547	1056.374
-13.648	31.713	1249.139	1055.484
-12.633	31.708	1248.019	1054.466
-11.619	31.697	1247.339	1053.792
-10.604	31.634	1246.509	1052.691
-9.590	31.705	1245.555	1052.243
-8.575	31.663	1244.726	1051.269
-7.560	31.645	1244.033	1050.540
-6.546	31.625	1242.924	1049.449
-5.531	31.637	1241.682	1048.425
-4.517	31.620	1241.348	1048.008
-3.502	31.656	1240.180	1047.180
-2.487	31.697	1238.952	1046.330
-1.473	31.658	1235.070	1042.796
-0.458	30.349	1220.910	1023.587
0.556	27.289	1203.628	988.688
1.571	23.904	1209.762	975.115
2.586	23.084	1225.144	982.872
3.600	22.641	1214.013	971.413
4.615	16.145	1140.277	878.604
5.629	5.948	1064.778	770.528
6.644	2.010	1044.417	736.735
7.659	1.660	1041.646	733.030
8.673	1.568	1041.021	732.086
9.688	1.424	1039.622	730.341
10.702	1.870	1038.122	731.368
11.717	7.910	1046.699	766.495
12.731	18.154	1061.163	826.788
13.746	23.662	1067.825	858.625
14.761	24.921	1069.095	865.657
15.775	24.942	1068.765	865.418
16.790	24.884	1068.047	864.480
17.804	24.659	1067.517	862.888
18.819	24.760	1067.276	863.101
19.834	24.961	1066.654	863.492
20.848	25.054	1066.075	863.399
21.863	25.032	1065.858	863.038
22.877	24.896	1065.177	861.755
23.892	24.902	1064.427	861.104
24.907	24.977	1063.511	860.644
25.921	24.787	1062.675	858.981
26.936	24.820	1061.385	858.021
27.950	24.835	1059.778	856.718
28.965	24.652	1058.267	854.546
29.980	24.816	1056.596	853.904
30.994	24.879	1055.802	853.484
32.009	24.879	1054.774	852.578
33.023	24.778	1053.413	850.923
34.038	24.862	1052.688	850.662
35.053	25.049	1051.739	850.708
36.067	24.887	1051.627	849.774
37.082	25.095	1050.471	849.751
38.096	25.219	1049.749	849.678
39.111	25.367	1048.962	849.667
40.126	25.053	1047.431	846.865
41.140	24.742	1045.897	844.082
42.155	24.567	1044.967	842.435
43.169	24.489	1044.264	841.425
44.184	24.538	1042.890	840.472
45.199	24.408	1042.287	839.304
46.213	24.436	1041.330	838.587
47.228	24.749	1040.516	839.329
48.242	24.808	1039.637	838.821
49.257	24.950	1039.050	838.941
50.271	24.940	1038.283	838.197
51.286	25.039	1037.228	837.737
52.301	25.033	1036.455	837.009
53.315	24.992	1035.733	836.161
54.330	24.770	1035.316	834.714
55.344	24.912	1034.311	834.494
56.359	24.754	1033.181	832.772
57.374	24.617	1032.063	831.157
58.388	24.678	1031.396	830.833
59.403	24.583	1030.605	829.679
60.417	24.389	1029.883	828.123
61.432	24.619	1029.026	828.429
62.447	24.529	1029.111	828.009
63.461	24.605	1028.325	827.653
64.476	24.681	1026.614	826.554
65.490	24.530	1025.833	825.155
66.505	24.636	1024.801	824.743
67.520	24.655	1024.482	824.498
68.534	24.373	1023.580	822.400
69.549	24.197	1022.256	820.455
70.563	24.144	1021.699	819.690
71.578	24.201	1020.702	819.079
72.593	23.947	1019.877	817.178
73.607	24.193	1019.472	817.910
74.622	24.421	1019.412	818.837
75.636	24.538	1018.585	818.637
76.651	24.392	1017.223	816.803
77.666	24.185	1016.872	815.497
78.680	24.238	1016.335	815.238
79.695	24.526	1015.243	815.604
80.709	24.495	1014.724	814.973
81.724	24.475	1013.838	814.101
82.739	24.594	1013.281	814.124
83.753	24.873	1012.956	815.060
84.768	25.233	1011.993	815.851
85.782	25.294	1011.257	815.463
86.797	25.162	1010.054	813.820
87.812	24.896	1009.162	811.824
88.826	25.150	1008.190	812.121
89.841	25.293	1007.406	812.067
90.855	25.107	1007.255	811.030
91.870	25.286	1005.215	810.126
92.884	24.968	1004.398	807.960
93.899	25.038	1003.544	807.516
94.914	25.255	1003.155	808.108
95.928	25.063	1001.600	805.924
96.943	24.921	1000.178	804.069
97.957	24.553	999.465	801.774
98.972	24.391	998.234	799.989
99.987	24.640	998.016	800.858
101.001	24.926	996.751	801.053
102.016	24.906	996.163	800.418
103.030	24.738	995.392	798.979
104.045	24.545	994.727	797.515
105.060	24.455	993.545	796.095
106.074	24.707	992.675	796.448
107.089	24.917	992.182	796.918
108.103	24.892	991.249	795.985
109.118	24.757	989.548	793.950
110.133	24.776	988.663	793.255
111.147	24.364	988.080	790.890
112.162	24.344	986.649	789.588
113.176	24.568	986.555	790.433
114.191	24.463	985.760	789.261
115.206	24.215	984.444	787.044
116.220	24.102	983.986	786.106
117.235	24.350	982.711	786.113
118.249	24.278	982.145	785.275
119.264	24.186	981.069	783.940
120.279	24.369	980.647	784.336
121.293	24.324	979.754	783.357
122.308	24.367	978.684	782.620
123.322	24.319	977.843	781.667
124.337	24.278	976.101	780.027
125.352	23.589	974.646	775.782
126.366	23.787	973.587	775.737
127.381	24.509	973.666	778.881
128.395	24.828	974.087	780.540
129.410	24.921	972.791	779.840
130.424	24.665	971.911	777.952
131.439	24.818	970.858	777.705
132.454	24.856	969.689	776.863
133.468	24.741	969.065	775.795
134.483	24.920	968.427	775.993
135.497	25.069	967.959	776.197
136.512	25.065	967.030	775.365
137.527	25.138	965.934	774.731
138.541	25.108	965.200	773.946
139.556	25.100	964.570	773.336
140.570	25.201	964.211	773.417
141.585	25.264	962.819	772.501
142.600	25.151	961.755	771.094
143.614	25.303	961.252	771.278
144.629	25.470	960.437	771.271
145.643	25.348	959.212	769.695
146.658	25.148	957.674	767.536
147.673	25.091	956.671	766.424
148.687	24.885	955.928	764.881
149.702	24.768	954.949	763.527
150.716	24.855	954.382	763.379
151.731	25.033	953.300	763.203
152.746	25.034	953.439	763.251
153.760	25.242	952.408	763.246
154.775	25.313	952.082	763.219
155.789	25.268	951.071	762.148
156.804	25.189	950.046	760.925
157.819	25.292	949.196	760.614
158.833	25.339	948.693	760.340
159.848	25.283	947.889	759.395
160.862	25.128	946.284	757.386
161.877	25.095	945.327	756.413
162.892	25.222	944.583	756.286
163.906	25.274	943.483	755.558
164.921	25.211	942.311	754.287
165.935	25.267	941.581	753.871
166.950	25.498	940.430	753.852
167.964	25.236	940.138	752.455
168.979	25.020	939.030	750.594
169.994	25.050	938.417	750.163
171.008	25.351	937.494	750.618
172.023	25.219	937.055	749.649
173.037	25.109	935.251	747.680
174.052	24.862	934.516	745.998
175.067	24.947	934.285	746.102
176.081	25.153	933.551	746.305
177.096	25.126	932.709	745.455
178.110	24.769	931.722	743.116
179.125	24.586	931.272	741.930
180.140	24.712	930.729	741.958
181.154	24.890	930.342	742.323
182.169	24.980	930.996	743.152
183.183	25.315	930.430	744.023
184.198	25.207	929.323	742.625
185.213	25.115	928.400	741.440
186.227	25.309	927.670	741.594
187.242	25.165	927.251	740.599
188.256	25.351	926.518	740.715
189.271	25.335	925.780	739.994
190.286	24.807	924.999	737.126
191.300	24.415	923.212	734.026
192.315	23.550	921.918	729.377
193.329	23.613	921.530	729.267
194.344	24.417	922.067	732.929
195.359	25.078	921.570	735.183
196.373	25.312	921.063	735.673
197.388	25.045	920.838	734.332
198.402	25.125	920.110	734.013
199.417	25.238	919.233	733.712
200.432	24.895	918.367	731.556
201.446	24.761	918.034	730.679
202.461	24.778	917.628	730.362
203.475	23.833	915.553	724.791
204.490	23.201	913.925	720.864
205.504	24.073	914.383	724.715
206.519	24.764	914.584	727.621
207.534	24.837	913.661	727.120
208.548	25.271	913.610	728.779
209.563	25.034	912.314	726.717
210.577	24.892	912.290	726.058
211.592	25.394	912.160	727.926
212.607	25.302	911.274	726.782
213.621	25.306	910.486	726.108
214.636	25.314	909.719	725.465
215.650	25.267	909.032	724.659
216.665	25.448	908.210	724.669
217.680	25.317	907.962	723.883
218.694	24.836	906.515	720.726
219.709	24.862	905.692	720.115
220.723	25.062	905.581	720.767
221.738	25.104	905.049	720.446
222.753	25.143	904.176	719.846
223.767	25.176	904.221	719.950
224.782	25.460	903.882	720.757
225.796	25.367	903.235	719.805
226.811	24.791	901.395	715.967
227.826	24.020	900.325	711.971
228.840	24.303	899.995	712.780
229.855	24.447	899.080	712.568
230.869	24.053	897.872	709.976
231.884	24.550	898.030	712.020
232.899	25.194	898.145	714.616
233.913	25.140	897.431	713.770
234.928	25.016	896.790	712.701
235.942	24.966	896.491	712.201
236.957	24.769	895.069	710.227
237.972	24.680	894.970	709.732
238.986	24.875	894.246	709.868
240.001	24.915	893.745	709.567
241.015	24.896	893.466	709.206
242.030	25.134	892.672	709.454
243.045	25.122	892.649	709.329
244.059	25.291	891.868	709.314
245.074	25.023	890.860	707.391
246.088	24.697	890.098	705.436
247.103	25.087	889.446	706.395
248.117	25.706	889.650	708.935
249.132	25.811	889.534	709.190
250.147	25.986	888.813	709.240
251.161	26.141	888.269	709.353
252.176	26.105	887.365	708.427
253.190	26.135	887.446	708.547
254.205	26.257	886.781	708.431
255.220	26.142	886.452	707.656
256.234	26.133	885.043	706.433
257.249	25.895	884.560	705.053
258.263	26.102	883.472	704.935
259.278	26.128	883.199	704.754
260.293	26.183	882.920	704.683
261.307	25.859	882.576	703.083
262.322	25.668	881.794	701.655
263.336	25.045	879.656	697.467
264.351	24.034	877.278	691.592
265.366	24.062	877.814	692.063
266.380	25.253	878.075	696.838
267.395	25.699	877.725	698.227
268.409	25.625	877.135	697.409
269.424	25.912	876.699	698.111
270.439	25.781	875.718	696.764
271.453	25.934	875.445	697.075
272.468	26.079	874.941	697.172
273.482	26.129	874.953	697.312
274.497	25.744	873.001	694.212
275.512	25.366	872.446	692.253
276.526	25.630	872.875	693.550
277.541	25.762	872.530	693.723
278.555	25.716	871.333	692.533
279.570	25.599	870.618	691.453
280.585	25.709	870.522	691.738
281.599	25.636	869.154	690.310
282.614	25.125	867.887	687.286
283.628	25.106	867.635	686.952
284.643	25.562	867.020	688.150
285.657	25.135	865.967	685.621
286.672	24.752	865.150	683.450
287.687	25.337	865.430	685.846
288.701	25.518	864.593	685.811
289.716	25.130	863.849	683.685
290.730	25.116	863.001	682.897
291.745	24.757	862.257	680.883
292.760	25.078	862.502	682.236
293.774	26.112	862.721	686.286
294.789	26.402	862.437	687.098
295.803	26.341	862.098	686.538
296.818	26.507	860.904	686.156
297.833	26.021	859.899	683.454
298.847	25.902	859.222	682.404
299.862	26.029	859.472	683.022
300.876	26.290	859.204	683.737
301.891	26.371	858.052	683.065
302.906	25.866	857.316	680.514
303.920	26.129	856.810	681.044
304.935	26.412	856.658	681.930
305.949	26.387	856.304	681.493
306.964	26.110	855.134	679.460
307.979	26.168	855.100	679.591
308.993	26.595	854.715	680.829
310.008	26.539	854.096	680.067
311.022	26.241	853.046	678.051
312.037	26.076	852.882	677.241
313.052	25.892	851.607	675.482
314.066	25.014	850.331	671.122
315.081	24.556	849.659	668.818
316.095	25.476	850.319	672.724
317.110	26.064	849.610	674.299
318.125	25.165	848.008	669.614
319.139	24.147	846.754	664.769
320.154	24.185	846.104	664.341
321.168	25.131	846.774	668.336
322.183	25.812	847.005	670.997
323.197	25.966	846.668	671.244
324.212	26.106	846.303	671.414
325.227	26.284	845.269	671.199
326.241	25.965	845.040	669.771
327.256	25.834	844.598	668.876
328.270	25.860	843.360	667.931
329.285	25.538	842.997	666.394
330.300	25.445	842.130	665.304
331.314	25.675	841.866	665.887
332.329	26.069	841.813	667.245
333.343	26.265	841.339	667.532
334.358	26.300	840.866	667.229
335.373	26.335	840.689	667.157
336.387	26.533	840.795	667.914
337.402	26.688	840.761	668.400
338.416	26.633	840.090	667.606
339.431	26.769	839.476	667.557
340.446	26.968	839.110	667.940
341.460	26.816	838.817	667.089
342.475	26.697	837.923	665.884
343.489	26.703	837.930	665.851
344.504	27.036	837.591	666.744
345.519	27.100	837.338	666.721
346.533	27.058	836.802	666.080
347.548	27.047	836.428	665.683
348.562	27.161	835.365	665.195
349.577	27.007	834.731	664.066
350.592	26.932	834.352	663.432
351.606	26.920	833.636	662.762
352.621	26.792	832.784	661.560
353.635	26.670	832.119	660.527
354.650	26.087	830.369	656.958
355.665	25.262	829.096	652.894
356.679	25.541	829.074	653.833
357.694	26.112	828.478	655.379
358.708	26.001	827.915	654.473
359.723	26.391	828.041	655.928
360.738	26.711	827.393	656.516
361.752	26.770	826.991	656.355
362.767	27.032	826.810	657.101
363.781	27.314	826.557	657.860
364.796	27.349	825.902	657.409
365.810	27.410	825.985	657.638
366.825	27.378	825.222	656.854
367.840	27.116	824.432	655.223
368.854	26.742	823.645	653.192
369.869	26.707	823.106	652.581
370.883	26.822	822.563	652.505
371.898	26.848	822.034	652.121
372.913	26.942	821.881	652.281
373.927	26.916	821.507	651.833
374.942	27.123	821.005	652.121
375.956	27.097	820.817	651.818
376.971	27.262	820.497	652.098
377.986	27.438	820.387	652.587
379.000	27.377	819.558	651.652
380.015	27.146	818.803	650.166
381.029	27.189	818.535	650.050
382.044	27.438	817.740	650.248
383.059	27.408	817.101	649.576
384.073	27.430	816.533	649.147
385.088	27.273	816.441	648.456
386.102	27.076	815.340	646.824
387.117	27.113	814.547	646.268
388.132	26.631	813.732	643.851
389.146	26.239	812.992	641.815
390.161	26.611	812.785	642.915
391.175	27.140	812.463	644.482
392.190	26.870	810.982	642.294
393.205	25.384	809.293	635.645
394.219	24.092	807.565	629.666
395.234	23.868	807.517	628.781
396.248	25.473	809.014	635.573
397.263	27.036	809.462	641.393
398.278	26.876	809.458	640.769
399.292	26.571	808.811	639.121
400.307	26.646	807.997	638.687
401.321	26.721	808.046	638.936
402.336	27.127	808.055	640.315
403.350	27.559	807.471	641.319
404.365	27.867	807.542	642.401
405.380	28.086	807.165	642.814
406.394	28.190	806.556	642.636
407.409	28.208	806.054	642.243
408.423	27.988	805.944	641.327
409.438	27.951	805.737	640.976
410.453	28.167	804.869	640.986
411.467	28.054	804.410	640.169
412.482	28.219	804.152	640.482
413.496	27.979	804.157	639.589
414.511	28.207	803.176	639.550
415.526	27.997	803.080	638.685
416.540	27.968	802.088	637.738
417.555	27.821	801.420	636.637
418.569	27.691	801.247	635.990
419.584	27.826	800.543	635.843
420.599	27.391	800.424	634.180
421.613	110.970	1287.030	1460.370
422.628	95.717	1357.889	1460.496
