DTS Sentinel unit serial number:	SN413079Multiplexer serial number:	ORYXHardware model number:	OX4-SRSoftware version number:	ORYX F/W v4.00 Oryx Data Collector v3.7.2.0data status	okinstallation	princeton_trtdifferential loss correction	single-endedforward channel	channel 1reverse channel	N/Adate	2019/09/11time	14:52:11forward acquisition time	60.00reverse acquisition time	0.00gamma	496.2192k internal	0.2292k external	0.2292temperature offset calibration	0.9983default loss term (dB/km)	0.3790temperature slope calibration	1.0000multiplexer offset coefficient	1.0000multiplexer slope coefficient	1.0000fibre end	0.00T internal ref (°C)	42.62T ext. ref 1 (°C)	0.94T ext. ref 2 (°C)	38.94length (m)	temperature (°C)	Stokes	anti-Stokes-747.200	-8.433	-0.149	-0.102
-746.185	10.023	-0.100	-0.077
-745.171	47.044	-0.049	-0.046
-744.156	-200.000	0.003	0.101
-743.142	394.036	0.077	-0.165
-742.127	4.752	-0.221	0.166
-741.112	391.849	-0.068	0.145
-740.098	-200.000	-0.042	0.605
-739.083	163.814	0.069	-0.099
-738.069	127.509	-0.183	0.238
-737.054	-200.000	0.010	0.196
-736.039	47.572	-0.211	0.201
-735.025	352.700	0.091	-0.185
-734.010	1.154	0.118	-0.087
-732.996	-75.617	0.182	-0.066
-731.981	523.821	-0.059	-0.142
-730.966	-79.173	-0.049	0.017
-729.952	800.000	-0.104	-0.312
-728.937	-155.963	-0.368	-0.024
-727.923	-128.041	-0.582	0.085
-726.908	23.027	0.170	-0.142
-725.894	-43.164	-0.163	-0.085
-724.879	-74.729	-0.225	0.083
-723.864	-200.000	-0.012	0.134
-722.850	336.208	0.081	-0.160
-721.835	-39.434	-0.422	-0.226
-720.821	84.717	-0.219	0.245
-719.806	-104.394	-0.162	-0.038
-718.791	98.568	-0.144	0.170
-717.777	504.667	-0.011	-0.027
-716.762	-164.804	-0.222	0.010
-715.748	-137.888	0.246	-0.028
-714.733	-145.774	-0.097	0.009
-713.718	-82.358	0.382	-0.127
-712.704	-28.471	-0.137	0.081
-711.689	-200.000	-0.077	0.444
-710.675	301.261	-0.056	-0.106
-709.660	-12.106	-0.159	-0.106
-708.645	-200.000	0.077	0.366
-707.631	-57.992	-0.324	0.145
-706.616	36.668	0.429	0.387
-705.602	16.377	0.048	0.039
-704.587	280.079	0.270	0.492
-703.572	-100.654	-0.258	-0.065
-702.558	-23.444	0.276	-0.169
-701.543	71.374	-0.187	0.198
-700.529	43.755	-0.190	-0.178
-699.514	-104.244	-0.121	-0.029
-698.499	-99.960	0.045	0.011
-697.485	-118.197	0.369	-0.067
-696.470	83.068	0.441	0.490
-695.456	247.798	-0.109	0.188
-694.441	-31.007	0.246	0.142
-693.426	83.163	0.237	-0.263
-692.412	99.267	0.050	-0.059
-691.397	800.000	0.016	0.058
-690.383	-83.065	-0.319	-0.105
-689.368	16.465	0.159	0.128
-688.354	800.000	-0.062	-0.211
-687.339	272.727	0.160	0.288
-686.324	421.597	0.077	0.168
-685.310	-85.469	-0.061	-0.019
-684.295	55.680	0.098	-0.097
-683.281	800.000	0.110	-0.408
-682.266	-163.198	-0.073	-0.004
-681.251	-113.338	-0.301	-0.060
-680.237	-98.450	-0.032	-0.008
-679.222	42.277	0.136	-0.126
-678.208	-166.139	0.143	0.006
-677.193	-200.000	-0.002	-0.032
-676.178	-60.673	-0.178	0.077
-675.164	800.000	0.018	-0.070
-674.149	-200.000	-0.007	0.036
-673.135	5.554	-0.155	0.117
-672.120	-111.462	0.174	0.036
-671.105	-200.000	-0.026	0.233
-670.091	102.058	-0.182	-0.217
-669.076	462.083	0.111	0.252
-668.062	-85.085	-0.257	0.082
-667.047	-3.485	-0.107	0.076
-666.032	129.572	-0.132	-0.172
-665.018	-180.714	0.461	0.010
-664.003	213.131	0.128	0.206
-662.989	204.000	0.075	0.119
-661.974	0.514	-0.156	0.114
-660.959	712.056	0.018	-0.050
-659.945	-138.355	0.354	0.040
-658.930	-94.562	-0.264	0.073
-657.916	326.586	-0.112	-0.219
-656.901	48.079	-0.136	-0.129
-655.886	78.483	0.142	-0.155
-654.872	-84.810	0.026	-0.008
-653.857	-144.637	0.051	-0.005
-652.843	-114.910	0.183	0.036
-651.828	800.000	0.026	0.117
-650.814	-200.000	-0.020	-0.272
-649.799	98.659	-0.119	0.141
-648.784	-4.290	-0.099	0.070
-647.770	-200.000	-0.040	-0.225
-646.755	35.218	0.184	0.165
-645.741	-89.030	-0.201	0.061
-644.726	-200.000	0.035	-0.251
-643.711	32.346	0.213	-0.188
-642.697	216.827	0.084	0.137
-641.682	426.386	0.074	0.162
-640.668	250.808	0.112	-0.194
-639.653	174.520	0.064	-0.095
-638.638	-54.095	-0.086	0.040
-637.624	-60.261	0.095	0.041
-636.609	-35.770	0.193	-0.107
-635.595	-140.419	0.056	-0.006
-634.580	-125.875	-0.211	0.032
-633.565	-80.542	0.371	0.126
-632.551	-200.000	0.016	-0.156
-631.536	800.000	0.071	0.229
-630.522	76.701	0.178	0.193
-629.507	800.000	-0.038	-0.136
-628.492	-145.979	-0.113	0.010
-627.478	161.755	-0.155	-0.221
-626.463	463.576	-0.122	0.278
-625.449	316.295	-0.046	0.089
-624.434	14.208	-0.059	-0.047
-623.419	768.484	0.121	-0.337
-622.405	800.000	-0.066	-0.237
-621.390	313.914	-0.199	-0.382
-620.376	86.628	0.171	-0.192
-619.361	116.262	0.399	0.498
-618.346	-200.000	-0.035	0.298
-617.332	-6.161	0.218	-0.152
-616.317	15.298	-0.142	0.113
-615.303	100.427	-0.151	-0.178
-614.288	494.053	-0.086	0.200
-613.273	314.129	0.162	0.310
-612.259	800.000	0.048	0.147
-611.244	800.000	-0.077	0.234
-610.230	113.531	-0.177	0.219
-609.215	270.062	0.196	-0.351
-608.201	420.298	0.074	-0.161
-607.186	-200.000	-0.093	0.432
-606.171	186.505	0.195	-0.296
-605.157	-200.000	0.052	-0.239
-604.142	378.846	-0.134	0.279
-603.128	-116.290	0.500	0.094
-602.113	-90.065	-0.181	-0.054
-601.098	800.000	-0.057	0.161
-600.084	290.300	0.138	0.256
-599.069	129.039	0.010	0.013
-598.055	278.838	0.083	0.150
-597.040	-200.000	0.034	-0.218
-596.025	-21.644	0.188	-0.117
-595.011	800.000	0.087	-0.289
-593.996	800.000	-0.014	0.061
-592.982	521.334	0.081	-0.195
-591.967	800.000	0.032	-0.134
-590.952	-178.428	-0.246	-0.006
-589.938	-154.691	-0.104	-0.007
-588.923	-200.000	0.014	-0.290
-587.909	-27.631	0.263	-0.155
-586.894	116.372	-0.103	-0.128
-585.879	-170.468	-0.120	0.004
-584.865	-10.134	0.227	-0.154
-583.850	-200.000	0.241	-0.001
-582.836	-200.000	-0.030	-0.175
-581.821	-31.121	0.173	0.099
-580.806	-38.684	-0.080	0.043
-579.792	-24.902	-0.237	0.143
-578.777	609.997	0.115	0.291
-577.763	24.652	0.141	0.119
-576.748	77.565	0.099	-0.107
-575.733	-200.000	-0.010	-0.210
-574.719	-132.438	-0.362	0.047
-573.704	-125.560	0.117	-0.018
-572.690	152.207	-0.075	0.104
-571.675	-200.000	-0.057	0.342
-570.661	-193.765	-0.141	-0.001
-569.646	24.381	-0.222	-0.186
-568.631	-200.000	-0.004	0.181
-567.617	35.117	0.290	0.258
-566.602	375.645	0.248	-0.513
-565.588	559.300	-0.005	0.013
-564.573	-26.332	-0.199	-0.119
-563.558	-5.951	-0.146	0.101
-562.544	800.000	-0.064	-0.187
-561.529	98.010	-0.037	-0.044
-560.515	538.148	-0.015	0.037
-559.500	-19.926	-0.218	-0.137
-558.485	511.193	0.128	-0.303
-557.471	-44.865	-0.319	0.162
-556.456	120.451	-0.223	0.281
-555.442	-200.000	-0.020	-0.127
-554.427	70.659	-0.235	-0.247
-553.412	11.682	0.067	-0.052
-552.398	40.671	-0.188	-0.172
-551.383	481.167	-0.085	-0.195
-550.369	800.000	-0.117	-0.394
-549.354	-40.775	0.202	0.106
-548.339	800.000	-0.079	0.270
-547.325	-39.821	-0.281	0.149
-546.310	-200.000	-0.021	0.164
-545.296	52.386	0.225	0.218
-544.281	-100.415	0.229	0.058
-543.266	-111.960	-0.114	-0.023
-542.252	60.515	-0.217	-0.218
-541.237	205.656	-0.317	0.500
-540.223	-148.831	0.122	0.010
-539.208	-28.677	0.259	-0.151
-538.193	-42.571	-0.248	-0.128
-537.179	-24.434	0.321	0.194
-536.164	30.314	-0.072	0.062
-535.150	635.427	0.126	-0.325
-534.135	54.308	0.092	-0.090
-533.121	18.552	-0.126	-0.103
-532.106	-115.915	-0.197	-0.037
-531.091	-120.501	-0.457	-0.079
-530.077	800.000	0.069	-0.224
-529.062	-37.755	0.277	0.149
-528.048	-117.771	-0.115	0.021
-527.033	295.201	0.050	-0.092
-526.018	-142.242	0.247	0.025
-525.004	28.311	-0.178	0.152
-523.989	-109.235	-0.269	-0.058
-522.975	169.113	-0.232	-0.337
-521.960	-146.635	0.281	0.025
-520.945	63.454	-0.060	0.061
-519.931	800.000	0.023	-0.073
-518.916	800.000	-0.039	-0.111
-517.902	-200.000	0.011	0.298
-516.887	-200.000	0.010	0.053
-515.872	473.495	-0.064	-0.147
-514.858	204.585	0.114	0.179
-513.843	347.672	-0.053	-0.107
-512.829	54.126	0.198	-0.193
-511.814	-22.087	0.308	-0.190
-510.799	-46.036	-0.156	-0.078
-509.785	72.326	0.052	-0.055
-508.770	-45.702	0.146	-0.073
-507.756	-162.095	-0.267	0.014
-506.741	800.000	0.043	-0.160
-505.726	-62.964	-0.042	0.018
-504.712	94.603	0.151	0.174
-503.697	-105.523	-0.016	0.004
-502.683	752.391	-0.062	0.169
-501.668	241.664	-0.130	0.220
-500.653	-93.186	-0.082	-0.023
-499.639	-84.333	0.343	-0.110
-498.624	101.883	0.160	0.189
-497.610	-92.939	0.117	-0.033
-496.595	-149.421	-0.358	-0.029
-495.581	-49.594	0.266	0.128
-494.566	-80.253	-0.170	0.058
-493.551	-196.603	0.062	0.000
-492.537	-55.374	0.340	0.155
-491.522	238.171	0.036	0.060
-490.508	275.132	0.143	0.257
-489.493	361.051	-0.070	-0.142
-488.478	-114.610	-0.160	0.031
-487.464	800.000	0.069	0.200
-486.449	-200.000	-0.035	0.249
-485.435	-16.020	-0.367	0.237
-484.420	-9.859	-0.327	-0.221
-483.405	92.587	-0.040	-0.045
-482.391	800.000	0.091	0.355
-481.376	-37.471	0.168	-0.091
-480.362	345.853	0.063	-0.126
-479.347	-122.557	-0.171	-0.028
-478.332	4.492	-0.134	-0.099
-477.318	780.372	0.073	-0.202
-476.303	-200.000	-0.005	-0.107
-475.289	-200.000	-0.045	-0.246
-474.274	-200.000	-0.001	0.438
-473.259	17.862	0.196	-0.158
-472.245	-200.000	-0.065	0.318
-471.230	-67.036	0.148	0.059
-470.216	-111.584	0.175	-0.036
-469.201	-186.884	-0.135	0.002
-468.186	572.947	0.049	-0.120
-467.172	139.385	-0.111	-0.148
-466.157	674.676	0.139	-0.366
-465.143	557.366	0.015	0.037
-464.128	6.877	-0.047	-0.036
-463.113	-200.000	0.051	-0.270
-462.099	407.089	-0.167	-0.357
-461.084	-200.000	0.011	0.123
-460.070	-200.000	-0.027	-0.297
-459.055	-200.000	0.001	-0.041
-458.040	-200.000	0.053	-0.314
-457.026	-80.813	0.079	-0.026
-456.011	110.377	0.181	-0.220
-454.997	-17.999	-0.441	0.280
-453.982	-33.174	0.009	-0.005
-452.968	313.129	-0.061	-0.117
-451.953	32.862	-0.129	-0.113
-450.938	-93.658	0.199	0.055
-449.924	-152.223	-0.279	0.020
-448.909	-117.323	-0.211	-0.039
-447.895	-105.135	0.090	0.021
-446.880	-200.000	0.053	0.284
-445.865	96.200	0.116	0.134
-444.851	578.429	-0.099	-0.244
-443.836	302.383	0.198	0.370
-442.822	86.190	-0.056	-0.063
-441.807	2.056	0.274	-0.200
-440.792	800.000	0.073	0.278
-439.778	121.370	0.036	-0.045
-438.763	-36.382	-0.379	0.207
-437.749	-4.784	-0.172	0.120
-436.734	61.204	0.245	0.246
-435.719	-200.000	-0.068	0.444
-434.705	-87.804	-0.176	-0.054
-433.690	21.929	0.097	-0.080
-432.676	-69.926	0.361	0.139
-431.661	-200.000	0.032	0.501
-430.646	800.000	-0.028	-0.080
-429.632	-93.964	-0.374	-0.104
-428.617	-90.109	-0.093	-0.027
-427.603	124.694	0.168	0.214
-426.588	668.828	0.173	0.452
-425.573	-79.123	0.061	-0.021
-424.559	-200.000	-0.005	-0.127
-423.544	-94.456	0.116	-0.032
-422.530	-200.000	-0.050	-0.379
-421.515	-200.000	0.022	-0.312
-420.500	43.123	0.241	-0.222
-419.486	-163.887	0.431	-0.020
-418.471	-76.687	0.126	0.045
-417.457	121.606	0.196	0.247
-416.442	800.000	0.044	0.172
-415.428	-200.000	0.014	-0.186
-414.413	65.702	-0.062	0.064
-413.398	32.511	-0.062	-0.054
-412.384	-34.065	-0.080	0.044
-411.369	800.000	-0.087	-0.248
-410.355	-41.676	-0.176	0.091
-409.340	-173.956	0.104	0.003
-408.325	-106.518	0.044	-0.010
-407.311	13.888	0.120	0.094
-406.296	-55.190	0.040	-0.018
-405.282	800.000	0.039	-0.119
-404.267	739.109	0.067	-0.183
-403.252	53.860	0.269	0.261
-402.238	800.000	0.105	-0.307
-401.223	67.822	0.131	-0.135
-400.209	-22.454	0.030	0.019
-399.194	-28.652	0.016	-0.010
-398.179	124.353	-0.036	0.045
-397.165	-28.738	-0.227	0.132
-396.150	62.000	-0.143	-0.144
-395.136	-63.327	-0.219	0.091
-394.121	17.385	-0.140	-0.112
-393.106	-36.285	0.143	-0.078
-392.092	-56.172	0.433	0.195
-391.077	387.039	-0.091	-0.191
-390.063	-18.743	-0.241	-0.151
-389.048	800.000	-0.063	-0.256
-388.033	800.000	0.113	0.374
-387.019	-75.766	0.047	-0.017
-386.004	800.000	0.017	-0.068
-384.990	262.900	0.101	-0.177
-383.975	-80.823	0.548	0.184
-382.960	102.518	0.082	-0.097
-381.946	218.312	0.069	0.111
-380.931	-90.633	-0.048	0.014
-379.917	114.894	-0.112	0.138
-378.902	504.075	-0.197	-0.460
-377.888	-68.765	0.070	-0.027
-376.873	72.833	0.295	0.310
-375.858	-26.269	0.255	0.151
-374.844	297.817	0.255	-0.474
-373.829	-200.000	0.022	0.204
-372.815	800.000	0.060	0.203
-371.800	-45.895	-0.159	-0.079
-370.785	-83.069	-0.164	0.053
-369.771	-111.345	0.121	-0.025
-368.756	-200.000	-0.001	0.053
-367.742	-78.302	-0.141	0.049
-366.727	39.037	0.350	0.315
-365.712	-107.889	0.058	-0.013
-364.698	-200.000	0.017	-0.111
-363.683	200.136	0.149	0.231
-362.669	800.000	-0.025	0.103
-361.654	-62.259	0.075	0.031
-360.639	-114.842	-0.137	0.026
-359.625	-199.710	0.207	-0.001
-358.610	7.080	-0.255	0.192
-357.596	-200.000	-0.019	0.405
-356.581	-25.075	0.160	0.096
-355.566	800.000	-0.054	0.164
-354.552	-86.291	0.426	0.132
-353.537	-200.000	-0.048	0.487
-352.523	3.166	0.128	0.094
-351.508	800.000	-0.058	-0.243
-350.493	-83.702	-0.457	-0.147
-349.479	-118.616	-0.292	0.052
-348.464	210.138	0.046	-0.073
-347.450	-66.208	-0.226	-0.091
-346.435	-87.898	-0.593	0.180
-345.420	798.565	0.041	-0.113
-344.406	412.079	0.111	-0.238
-343.391	-20.922	0.196	0.121
-342.377	243.363	-0.169	0.286
-341.362	-64.165	-0.189	-0.077
-340.348	367.731	0.117	0.238
-339.333	-176.387	0.194	-0.005
-338.318	800.000	0.125	-0.376
-337.304	800.000	-0.005	0.017
-336.289	116.134	0.111	-0.137
-335.275	800.000	0.132	-0.495
-334.260	800.000	0.052	-0.220
-333.245	-27.290	-0.241	-0.141
-332.231	156.844	-0.076	-0.105
-331.216	247.724	0.112	-0.191
-330.202	-200.000	-0.004	0.028
-329.187	800.000	-0.131	0.490
-328.172	800.000	0.060	-0.230
-327.158	95.608	-0.127	0.145
-326.143	79.216	-0.224	0.241
-325.129	-76.677	-0.250	0.088
-324.114	700.459	0.145	-0.384
-323.099	-103.330	-0.308	-0.073
-322.085	-48.106	0.131	-0.064
-321.070	-0.242	-0.105	0.075
-320.056	59.493	-0.232	0.230
-319.041	38.239	0.178	-0.159
-318.026	-80.209	-0.206	-0.069
-317.012	69.536	-0.179	-0.186
-315.997	634.535	-0.114	0.292
-314.983	86.162	0.179	-0.199
-313.968	-200.000	-0.023	0.117
-312.953	800.000	-0.075	0.211
-311.939	-54.074	-0.354	0.162
-310.924	48.257	-0.165	-0.155
-309.910	354.938	-0.142	-0.285
-308.895	-24.860	-0.117	0.070
-307.880	404.729	-0.099	-0.209
-306.866	59.611	0.138	-0.137
-305.851	41.535	0.100	-0.091
-304.837	-109.250	0.182	-0.039
-303.822	139.922	0.070	-0.092
-302.807	-126.737	-0.123	0.018
-301.793	-19.908	-0.337	-0.209
-300.778	108.999	-0.132	-0.159
-299.764	27.134	-0.178	-0.150
-298.749	-87.051	0.025	0.008
-297.735	-79.999	-0.112	0.038
-296.720	-49.711	-0.277	0.133
-295.705	198.704	0.146	-0.225
-294.691	232.775	0.124	-0.206
-293.676	800.000	0.073	-0.206
-292.662	47.551	-0.209	-0.196
-291.647	800.000	-0.166	-0.539
-290.632	57.378	-0.128	-0.126
-289.618	112.523	0.279	0.339
-288.603	505.856	0.073	-0.171
-287.589	-200.000	-0.014	0.091
-286.574	248.000	-0.234	0.398
-285.559	-97.400	0.366	-0.096
-284.545	-131.081	0.263	-0.035
-283.530	37.601	0.042	0.038
-282.516	3.821	-0.097	0.071
-281.501	-32.836	0.083	-0.047
-280.486	-200.000	-0.022	0.134
-279.472	-74.532	0.234	0.085
-278.457	323.047	-0.062	0.118
-277.443	-114.225	-0.161	-0.031
-276.428	-200.000	-0.032	0.182
-275.413	-49.663	0.084	0.040
-274.399	-26.231	0.327	-0.193
-273.384	125.028	0.244	-0.310
-272.370	81.273	0.094	-0.102
-271.355	800.000	0.042	-0.134
-270.340	-200.000	-0.025	-0.287
-269.326	-146.799	0.106	0.009
-268.311	-60.389	0.118	0.050
-267.297	495.446	0.073	0.168
-266.282	-83.471	-0.129	-0.042
-265.267	-54.720	-0.145	0.066
-264.253	10.573	0.069	-0.053
-263.238	-200.000	-0.017	0.157
-262.224	-59.508	0.055	0.024
-261.209	-8.195	0.114	0.077
-260.195	-100.736	-0.212	-0.052
-259.180	800.000	-0.046	-0.141
-258.165	-109.211	0.138	0.030
-257.151	39.019	0.243	-0.218
-256.136	104.387	0.078	-0.092
-255.122	94.760	-0.169	0.193
-254.107	800.000	0.045	-0.125
-253.092	525.295	-0.075	0.177
-252.078	303.631	0.165	-0.307
-251.063	-112.853	-0.204	-0.041
-250.049	-200.000	-0.031	-0.167
-249.034	-200.000	0.021	0.122
-248.019	127.290	0.070	0.089
-247.005	253.825	-0.124	0.213
-245.990	66.458	0.078	0.079
-244.976	-104.939	0.087	0.020
-243.961	-200.000	-0.003	0.363
-242.946	-83.685	-0.219	-0.070
-241.932	800.000	0.067	0.196
-240.917	-88.357	-0.099	-0.030
-239.903	-117.544	-0.156	0.028
-238.888	-115.965	-0.209	0.039
-237.873	186.045	0.088	-0.132
-236.859	-118.609	0.272	-0.048
-235.844	125.322	-0.184	-0.233
-234.830	58.814	0.120	-0.119
-233.815	627.368	-0.103	-0.262
-232.800	-59.510	0.222	-0.096
-231.786	-200.000	-0.004	0.112
-230.771	179.575	-0.098	0.145
-229.757	800.000	0.086	0.286
-228.742	800.000	0.071	0.225
-227.727	120.392	-0.072	-0.090
-226.713	-200.000	0.067	-0.340
-225.698	310.239	0.176	0.331
-224.684	800.000	0.029	0.081
-223.669	-200.000	-0.006	-0.175
-222.655	54.761	0.219	0.211
-221.640	800.000	-0.062	0.188
-220.625	800.000	-0.068	-0.268
-219.611	-8.252	0.214	-0.145
-218.596	351.657	0.137	0.272
-217.582	-49.357	0.279	-0.133
-216.567	-76.412	-0.416	0.147
-215.552	800.000	0.082	0.285
-214.538	-132.806	0.264	0.034
-213.523	800.000	0.028	-0.089
-212.509	-200.000	0.043	-0.207
-211.494	-155.243	-0.307	-0.020
-210.479	-200.000	0.020	-0.181
-209.465	247.822	0.142	-0.240
-208.450	-77.844	-0.093	-0.032
-207.436	135.810	-0.065	-0.085
-206.421	86.796	-0.199	-0.220
-205.406	257.482	0.008	0.014
-204.392	-89.194	-0.222	0.066
-203.377	24.933	-0.110	0.091
-202.363	-101.997	0.345	0.083
-201.348	18.206	0.205	0.164
-200.333	-170.195	-0.234	0.008
-199.319	-200.000	-0.008	0.074
-198.304	-34.666	-0.165	0.090
-197.290	-200.000	0.015	-0.193
-196.275	-35.306	-0.170	-0.092
-195.260	-10.153	-0.261	-0.173
-194.246	7.202	-0.203	0.152
-193.231	309.983	-0.139	0.261
-192.217	-190.821	0.095	0.001
-191.202	800.000	-0.112	-0.380
-190.187	297.509	-0.096	-0.177
-189.173	800.000	-0.050	0.178
-188.158	-120.707	-0.199	0.034
-187.144	800.000	-0.038	0.142
-186.129	-200.000	-0.020	0.265
-185.114	-200.000	0.031	0.503
-184.100	313.102	0.058	0.109
-183.085	-92.561	0.372	0.105
-182.071	158.582	0.097	0.135
-181.056	800.000	0.030	0.105
-180.042	241.913	-0.011	0.018
-179.027	-75.676	-0.207	-0.073
-178.012	-38.128	-0.088	0.047
-176.998	-42.542	-0.396	0.202
-175.983	-8.367	0.429	-0.289
-174.969	383.512	0.105	0.216
-173.954	280.362	0.145	0.260
-172.939	703.888	-0.134	0.355
-171.925	418.904	-0.160	-0.342
-170.910	-135.335	-0.196	-0.023
-169.896	-200.000	-0.008	0.094
-168.881	177.609	0.093	-0.136
-167.866	21.716	0.265	-0.216
-166.852	-34.910	0.102	0.056
-165.837	-200.000	-0.027	-0.294
-164.823	264.200	-0.035	-0.060
-163.808	124.119	-0.178	-0.224
-162.793	415.317	-0.058	0.125
-161.779	20.477	0.004	0.003
-160.764	-200.000	0.016	0.144
-159.750	-7.179	-0.192	0.131
-158.735	197.131	0.180	0.274
-157.720	800.000	-0.052	0.201
-156.706	54.559	0.142	0.137
-155.691	-197.911	-0.217	0.001
-154.677	-103.429	-0.238	-0.056
-153.662	-120.324	0.197	0.034
-152.647	-200.000	-0.050	0.389
-151.633	168.185	-0.159	0.227
-150.618	164.545	-0.092	-0.130
-149.604	112.995	0.110	-0.134
-148.589	102.768	0.191	0.224
-147.574	-150.252	-0.362	0.028
-146.560	97.824	-0.151	0.174
-145.545	154.334	0.126	0.173
-144.531	800.000	-0.047	0.169
-143.516	-116.346	-0.635	-0.117
-142.502	-176.808	0.367	0.009
-141.487	2.784	0.139	0.101
-140.472	-200.000	0.010	-0.172
-139.458	-120.860	-0.227	0.038
-138.443	-58.002	0.114	-0.050
-137.429	-64.555	-0.121	0.049
-136.414	800.000	0.076	0.243
-135.399	199.132	0.066	-0.101
-134.385	800.000	0.104	-0.326
-133.370	-71.811	-0.330	-0.123
-132.356	-66.773	0.385	-0.152
-131.341	-200.000	0.030	0.205
-130.326	99.290	-0.037	-0.042
-129.312	329.480	0.125	-0.240
-128.297	-18.491	0.193	0.120
-127.283	-126.550	-0.305	0.045
-126.268	171.822	0.103	0.148
-125.253	800.000	-0.115	0.328
-124.239	95.550	-0.051	0.058
-123.224	-75.618	0.121	0.043
-122.210	-200.000	0.005	-0.095
-121.195	98.565	0.107	-0.124
-120.180	800.000	-0.086	0.302
-119.166	-77.639	0.241	0.083
-118.151	236.882	0.089	-0.147
-117.137	144.193	0.122	0.162
-116.122	-49.298	0.054	-0.026
-115.107	325.427	0.186	-0.355
-114.093	-200.000	0.024	0.118
-113.078	213.018	0.010	0.016
-112.064	52.414	-0.215	0.205
-111.049	-200.000	0.015	0.144
-110.034	800.000	-0.050	-0.140
-109.020	233.545	-0.103	-0.169
-108.005	749.598	0.069	0.187
-106.991	315.564	-0.214	0.403
-105.976	-200.000	0.020	0.221
-104.962	-55.890	-0.285	-0.127
-103.947	-125.801	0.238	-0.036
-102.932	-89.843	0.204	0.060
-101.918	-200.000	-0.020	0.171
-100.903	-111.144	0.030	0.006
-99.889	-9.571	0.270	-0.180
-98.874	-70.168	0.378	0.143
-97.859	14.473	-0.130	0.101
-96.845	61.772	0.127	-0.126
-95.830	-95.978	-0.360	0.096
-94.816	-123.514	-0.212	-0.034
-93.801	-118.620	-0.225	0.040
-92.786	18.346	-0.146	0.116
-91.772	-31.445	0.217	0.122
-90.757	-138.806	0.109	-0.012
-89.743	800.000	-0.057	0.199
-88.728	14.542	-0.173	-0.135
-87.713	662.505	0.082	0.211
-86.699	-200.000	0.025	-0.231
-85.684	27.281	0.064	0.053
-84.670	692.740	-0.057	0.150
-83.655	-67.500	-0.088	0.035
-82.640	-181.875	-0.185	0.004
-81.626	69.379	0.166	0.170
-80.611	118.869	-0.110	-0.135
-79.597	-29.746	0.138	0.079
-78.582	-39.896	-0.111	-0.058
-77.567	-153.149	0.019	0.001
-76.553	-200.000	0.053	-0.289
-75.538	-36.363	0.264	-0.142
-74.524	-200.000	-0.011	-0.119
-73.509	-200.000	-0.070	0.413
-72.494	-101.191	0.255	0.062
-71.480	-14.719	0.103	-0.066
-70.465	754.984	-0.056	0.150
-69.451	48.260	0.306	0.285
-68.436	209.854	-0.077	-0.120
-67.422	94.640	-0.108	0.122
-66.407	-100.006	0.341	0.085
-65.392	-31.682	0.299	0.167
-64.378	-24.568	-0.047	-0.028
-63.363	107.409	-0.047	-0.056
-62.349	99.602	0.025	0.029
-61.334	-46.502	-0.869	-0.425
-60.319	-21.545	0.512	0.311
-59.305	-200.000	0.120	-0.644
-58.290	787.917	0.238	0.651
-57.276	800.000	0.606	1.762
-56.261	-200.000	74.375	522.818
-55.246	564.077	1301.122	3140.383
-54.232	146.847	2526.872	3384.723
-53.217	121.724	2227.298	2767.291
-52.203	55.481	1665.886	1606.549
-51.188	46.793	1383.777	1280.830
-50.173	43.001	1336.063	1213.826
-49.159	60.701	1369.816	1352.424
-48.144	68.789	1387.950	1419.307
-47.130	46.986	1350.793	1251.270
-46.115	42.785	1334.365	1210.790
-45.100	42.600	1329.502	1205.221
-44.086	42.430	1327.309	1202.164
-43.071	42.434	1325.044	1200.089
-42.057	42.384	1322.651	1197.578
-41.042	42.470	1320.963	1196.512
-40.027	42.508	1319.201	1195.093
-39.013	42.586	1317.293	1193.781
-37.998	42.461	1315.907	1191.736
-36.984	42.541	1313.991	1190.428
-35.969	42.691	1311.988	1189.453
-34.954	42.638	1310.195	1187.470
-33.940	42.620	1309.221	1186.432
-32.925	42.684	1308.241	1185.878
-31.911	42.633	1306.410	1183.869
-30.896	42.717	1304.439	1182.529
-29.881	42.778	1303.071	1181.601
-28.867	42.829	1301.684	1180.597
-27.852	42.776	1300.214	1178.902
-26.838	42.759	1298.887	1177.557
-25.823	42.792	1296.895	1175.895
-24.809	42.707	1296.003	1174.547
-23.794	42.694	1294.747	1173.283
-22.779	42.718	1293.240	1172.012
-21.765	42.708	1291.692	1170.503
-20.750	42.764	1290.192	1169.424
-19.736	42.705	1288.638	1167.626
-18.721	42.667	1287.671	1166.480
-17.706	42.512	1286.739	1164.696
-16.692	42.594	1285.650	1164.135
-15.677	42.463	1284.749	1162.514
-14.663	42.540	1283.346	1161.645
-13.648	42.464	1282.789	1160.654
-12.633	42.523	1280.863	1159.205
-11.619	42.539	1280.346	1158.787
-10.604	42.590	1279.468	1158.237
-9.590	42.564	1278.282	1156.971
-8.575	42.549	1277.276	1155.927
-7.560	42.558	1276.301	1155.050
-6.546	42.628	1275.263	1154.468
-5.531	42.515	1274.644	1153.215
-4.517	42.572	1273.444	1152.408
-3.502	42.582	1272.645	1151.697
-2.487	42.524	1272.149	1150.868
-1.473	42.673	1268.240	1148.136
-0.458	41.942	1253.551	1130.669
0.556	37.555	1234.343	1092.315
1.571	33.569	1237.718	1072.702
2.586	32.236	1252.652	1077.915
3.600	30.507	1240.709	1057.711
4.615	21.340	1162.016	941.410
5.629	7.590	1077.147	803.453
6.644	1.371	1051.826	753.706
7.659	0.919	1048.481	749.005
8.673	0.711	1047.555	747.248
9.688	0.762	1045.613	746.050
10.702	1.211	1044.840	747.648
11.717	8.797	1056.849	793.883
12.731	19.826	1072.482	860.733
13.746	23.446	1076.132	881.623
14.761	23.322	1075.177	880.146
15.775	23.222	1074.754	879.223
16.790	23.077	1073.754	877.607
17.804	22.861	1073.477	876.232
18.819	22.954	1072.806	876.069
19.834	22.946	1072.422	875.637
20.848	23.118	1071.682	875.809
21.863	23.061	1071.229	875.079
22.877	22.901	1070.511	873.622
23.892	22.874	1069.943	872.947
24.907	23.034	1069.075	872.954
25.921	23.027	1067.807	871.804
26.936	23.002	1066.739	870.734
27.950	22.950	1065.272	869.203
28.965	22.692	1063.717	866.591
29.980	22.926	1061.759	866.065
30.994	23.092	1060.496	865.772
32.009	23.069	1059.963	865.147
33.023	22.879	1058.445	862.905
34.038	22.965	1057.518	862.493
35.053	23.077	1057.203	862.704
36.067	23.044	1056.563	861.946
37.082	23.250	1055.471	861.980
38.096	23.290	1055.024	861.735
39.111	23.232	1054.533	860.976
40.126	23.052	1053.711	859.353
41.140	22.880	1051.186	856.383
42.155	22.656	1049.643	853.968
43.169	22.740	1048.767	853.587
44.184	22.670	1048.051	852.588
45.199	22.734	1046.720	851.738
46.213	22.704	1045.929	850.873
47.228	22.813	1045.331	850.841
48.242	22.926	1044.297	850.464
49.257	22.953	1044.119	850.378
50.271	23.022	1043.152	849.847
51.286	23.137	1041.915	849.313
52.301	23.088	1041.252	848.462
53.315	22.948	1040.296	846.936
54.330	22.889	1039.370	845.827
55.344	23.015	1038.888	845.963
56.359	22.972	1037.946	844.914
57.374	22.948	1036.420	843.485
58.388	22.853	1035.634	842.317
59.403	22.667	1035.067	840.893
60.417	22.644	1034.614	840.340
61.432	22.685	1033.832	839.829
62.447	22.820	1033.166	839.854
63.461	22.970	1032.072	839.605
64.476	22.715	1031.399	837.772
65.490	22.762	1029.930	836.729
66.505	22.761	1029.465	836.271
67.520	22.780	1029.012	835.918
68.534	22.587	1028.040	834.143
69.549	22.202	1026.989	831.395
70.563	22.233	1026.138	830.776
71.578	22.321	1025.176	830.341
72.593	22.105	1024.670	828.840
73.607	22.307	1023.297	828.608
74.622	22.518	1023.153	829.413
75.636	22.687	1022.688	829.757
76.651	22.593	1021.703	828.443
77.666	22.334	1021.241	826.776
78.680	22.438	1020.355	826.474
79.695	22.540	1019.731	826.372
80.709	22.616	1019.011	826.075
81.724	22.610	1017.830	825.016
82.739	22.635	1017.319	824.644
83.753	22.898	1017.195	825.700
84.768	23.282	1016.260	826.660
85.782	23.475	1015.203	826.627
86.797	23.196	1014.351	824.563
87.812	23.180	1012.810	823.164
88.826	23.146	1012.196	822.433
89.841	23.417	1011.193	822.805
90.855	23.359	1010.375	821.794
91.870	23.135	1009.838	820.249
92.884	23.149	1008.543	819.187
93.899	22.998	1007.665	817.704
94.914	23.265	1006.760	818.129
95.928	23.045	1005.427	815.960
96.943	22.869	1004.306	814.165
97.957	22.572	1003.129	811.774
98.972	22.561	1001.546	810.369
99.987	22.675	1001.569	810.839
101.001	22.915	1000.573	811.064
102.016	22.895	1000.079	810.502
103.030	22.889	998.656	809.248
104.045	22.860	997.359	807.995
105.060	22.604	996.861	806.345
106.074	22.923	995.879	806.939
107.089	23.126	995.776	807.711
108.103	23.076	994.609	806.463
109.118	22.845	993.154	804.163
110.133	22.739	992.460	803.045
111.147	22.603	991.165	801.309
112.162	22.481	989.885	799.651
113.176	22.781	989.221	800.403
114.191	22.596	988.555	798.954
115.206	22.349	987.375	796.811
116.220	22.315	986.361	795.769
117.235	22.522	985.880	796.245
118.249	22.591	984.548	795.413
119.264	22.483	983.845	794.287
120.279	22.561	983.231	794.071
121.293	22.542	982.571	793.383
122.308	22.596	981.730	792.877
123.322	22.573	980.469	791.687
124.337	22.260	979.684	789.576
125.352	21.854	977.783	786.155
126.366	21.913	976.504	785.323
127.381	22.511	976.865	788.221
128.395	22.932	976.443	789.690
129.410	23.051	975.771	789.609
130.424	23.008	974.788	788.550
131.439	23.078	973.621	787.849
132.454	23.144	972.780	787.393
133.468	22.967	972.118	786.001
134.483	23.100	971.540	786.054
135.497	23.279	970.786	786.170
136.512	23.315	969.978	785.607
137.527	23.334	968.783	784.652
138.541	23.311	968.299	784.091
139.556	23.404	967.216	783.555
140.570	23.491	966.558	783.338
141.585	23.371	965.577	781.943
142.600	23.339	964.552	780.901
143.614	23.586	963.994	781.467
144.629	23.616	963.615	781.224
145.643	23.563	961.888	779.523
146.658	23.311	960.595	777.299
147.673	23.323	959.087	776.064
148.687	23.203	958.408	774.922
149.702	22.973	957.690	773.266
150.716	23.034	956.445	772.459
151.731	23.221	955.757	772.652
152.746	23.347	955.740	773.119
153.760	23.421	954.852	772.655
154.775	23.495	954.340	772.495
155.789	23.454	953.439	771.518
156.804	23.377	952.295	770.189
157.819	23.402	951.363	769.477
158.833	23.663	950.570	769.898
159.848	23.592	949.605	768.740
160.862	23.459	948.438	767.153
161.877	23.464	947.597	766.428
162.892	23.621	946.490	766.140
163.906	23.461	945.240	764.372
164.921	23.437	944.414	763.531
165.935	23.385	943.896	762.823
166.950	23.298	943.268	761.874
167.964	23.480	941.994	761.559
168.979	23.246	941.128	759.786
169.994	23.184	940.298	758.785
171.008	23.509	939.602	759.548
172.023	23.499	938.969	758.923
173.037	23.258	937.626	756.741
174.052	23.270	936.443	755.774
175.067	23.167	936.316	755.163
176.081	23.330	935.510	755.140
177.096	23.203	935.161	754.251
178.110	22.994	933.895	752.276
179.125	22.757	933.338	750.750
180.140	23.029	932.513	751.179
181.154	23.025	932.544	751.117
182.169	23.237	932.253	751.718
183.183	23.408	931.778	751.994
184.198	23.424	930.900	751.285
185.213	23.405	930.406	750.739
186.227	23.515	929.667	750.542
187.242	23.446	928.992	749.640
188.256	23.375	928.482	748.861
189.271	23.562	927.328	748.655
190.286	23.275	926.507	746.717
191.300	22.654	925.115	742.912
192.315	21.923	923.477	738.457
193.329	21.882	922.702	737.600
194.344	22.681	923.815	741.786
195.359	23.285	923.387	743.913
196.373	23.479	923.138	744.461
197.388	23.264	922.281	742.803
198.402	23.271	921.651	742.259
199.417	23.378	921.043	742.153
200.432	23.148	919.974	740.263
201.446	22.783	919.472	738.268
202.461	22.785	918.803	737.673
203.475	22.166	916.802	733.418
204.490	21.315	915.397	728.682
205.504	22.283	915.665	732.867
206.519	22.790	915.767	734.995
207.534	22.976	915.500	735.492
208.548	23.423	915.186	737.033
209.563	23.207	914.236	735.306
210.577	23.189	913.488	734.562
211.592	23.466	913.343	735.532
212.607	23.466	912.428	734.728
213.621	23.464	911.834	734.178
214.636	23.558	911.024	733.848
215.650	23.553	909.711	732.708
216.665	23.651	909.401	732.794
217.680	23.509	908.770	731.637
218.694	23.009	908.058	728.940
219.709	22.941	906.920	727.679
220.723	23.340	906.507	728.926
221.738	23.286	906.375	728.534
222.753	23.281	905.583	727.811
223.767	23.426	905.045	727.912
224.782	23.603	904.904	728.459
225.796	23.642	904.124	727.929
226.811	23.028	902.785	724.270
227.826	22.366	901.072	720.123
228.840	22.539	900.960	720.677
229.855	22.698	900.265	720.708
230.869	22.264	898.705	717.626
231.884	22.536	899.059	718.955
232.899	23.272	899.028	721.867
233.913	23.312	898.517	721.557
234.928	23.294	897.520	720.618
235.942	23.264	897.278	720.239
236.957	22.925	896.589	718.245
237.972	22.776	895.974	717.084
238.986	22.993	895.316	717.371
240.001	23.061	894.655	717.055
241.015	22.999	894.209	716.385
242.030	23.346	893.675	717.298
243.045	23.330	893.187	716.777
244.059	23.475	892.773	716.968
245.074	23.273	891.839	715.337
246.088	23.050	890.492	713.294
247.103	23.258	890.443	714.034
248.117	23.782	890.741	716.322
249.132	23.970	890.237	716.611
250.147	24.013	889.720	716.303
251.161	24.276	889.082	716.782
252.176	24.090	888.627	715.607
253.190	24.377	887.514	715.800
254.205	24.423	887.486	715.898
255.220	24.368	886.793	715.055
256.234	24.230	885.853	713.680
257.249	24.032	885.242	712.331
258.263	24.086	884.347	711.765
259.278	24.311	883.454	711.882
260.293	24.278	883.426	711.663
261.307	24.115	882.663	710.339
262.322	24.021	881.784	709.190
263.336	23.274	880.283	704.948
264.351	22.207	878.095	698.897
265.366	22.287	878.046	699.113
266.380	23.393	878.550	703.849
267.395	23.820	878.347	705.319
268.409	23.686	877.038	703.671
269.424	23.980	876.866	704.635
270.439	23.918	876.389	703.946
271.453	24.087	875.631	703.945
272.468	24.258	875.426	704.392
273.482	24.286	874.876	703.999
274.497	23.842	873.827	701.340
275.512	23.510	872.678	699.048
276.526	24.005	872.575	700.852
277.541	24.147	872.151	701.009
278.555	23.947	871.266	699.451
279.570	23.769	870.492	698.068
280.585	23.877	870.014	698.047
281.599	23.994	869.117	697.723
282.614	23.424	867.841	694.406
283.628	23.285	867.327	693.388
284.643	23.717	867.157	694.883
285.657	23.290	866.039	692.256
286.672	23.041	865.112	690.481
287.687	23.570	865.331	692.659
288.701	23.669	864.805	692.563
289.716	23.377	863.725	690.500
290.730	23.255	863.055	689.429
291.745	23.077	862.272	688.050
292.760	23.266	862.332	688.773
293.774	24.231	862.629	692.700
294.789	24.535	862.541	693.749
295.803	24.598	861.762	693.308
296.818	24.699	861.255	693.229
297.833	24.190	859.964	690.157
298.847	24.043	859.124	688.851
299.862	24.213	859.527	689.775
300.876	24.598	858.909	690.707
301.891	24.398	858.451	689.504
302.906	24.054	857.348	687.229
303.920	24.252	856.644	687.366
304.935	24.490	856.826	688.369
305.949	24.570	855.949	687.911
306.964	24.241	855.086	685.892
307.979	24.209	854.904	685.561
308.993	24.847	854.084	687.296
310.008	24.742	854.072	686.820
311.022	24.441	853.547	685.184
312.037	24.237	852.766	683.714
313.052	24.023	851.814	682.070
314.066	23.225	850.408	677.830
315.081	22.927	849.199	675.664
316.095	23.744	849.530	678.995
317.110	24.207	849.647	680.795
318.125	23.521	847.874	676.701
319.139	22.311	846.997	671.327
320.154	22.283	846.537	670.795
321.168	23.089	846.767	673.991
322.183	23.914	847.072	677.317
323.197	23.959	846.623	677.070
324.212	24.234	846.342	677.833
325.227	24.310	845.697	677.541
326.241	24.240	844.870	676.553
327.256	24.143	844.485	675.817
328.270	24.023	843.491	674.509
329.285	24.062	842.555	673.847
330.300	23.668	842.061	671.902
331.314	23.952	841.464	672.441
332.329	24.312	840.967	673.344
333.343	24.468	840.986	673.889
334.358	24.535	840.501	673.693
335.373	24.552	840.394	673.611
336.387	24.641	840.666	674.104
337.402	24.979	839.910	674.711
338.416	24.885	839.310	673.819
339.431	24.904	839.253	673.785
340.446	25.049	839.189	674.219
341.460	24.935	838.382	673.081
342.475	24.777	837.632	671.828
343.489	24.808	837.309	671.625
344.504	25.007	837.334	672.333
345.519	25.176	837.002	672.641
346.533	25.379	836.171	672.671
347.548	25.302	835.801	672.026
348.562	25.244	835.439	671.458
349.577	25.107	835.066	670.590
350.592	25.222	834.250	670.302
351.606	25.193	833.018	669.145
352.621	25.088	832.238	668.069
353.635	24.921	831.398	666.712
354.650	24.435	830.025	663.748
355.665	23.482	828.720	659.104
356.679	23.780	828.305	659.824
357.694	24.212	828.217	661.297
358.708	24.152	827.549	660.484
359.723	24.434	827.792	661.662
360.738	24.751	827.189	662.300
361.752	25.009	826.693	662.799
362.767	25.144	826.676	663.225
363.781	25.497	826.261	664.137
364.796	25.518	826.056	663.990
365.810	25.584	825.545	663.765
366.825	25.651	824.799	663.355
367.840	25.176	824.214	661.075
368.854	24.798	823.195	658.808
369.869	24.786	822.845	658.423
370.883	25.021	822.369	658.850
371.898	24.842	822.022	657.854
372.913	25.017	821.537	658.051
373.927	25.032	821.279	657.840
374.942	25.009	821.131	657.579
375.956	25.376	820.187	658.111
376.971	25.461	819.748	658.012
377.986	25.582	819.675	658.339
379.000	25.728	818.971	658.249
380.015	25.404	818.538	656.660
381.029	25.283	818.086	655.795
382.044	25.570	817.155	656.040
383.059	25.495	816.879	655.486
384.073	25.537	816.410	655.203
385.088	25.469	815.476	654.148
386.102	25.379	814.720	653.156
387.117	25.280	814.226	652.342
388.132	24.970	813.060	650.225
389.146	24.478	812.467	647.909
390.161	24.905	812.057	649.073
391.175	25.359	812.274	650.836
392.190	24.995	811.416	648.771
393.205	23.730	808.884	642.122
394.219	22.175	807.083	635.020
395.234	22.066	807.148	634.620
396.248	23.681	808.234	641.255
397.263	25.076	809.434	647.194
398.278	25.125	809.118	647.060
399.292	24.891	808.534	645.693
400.307	24.753	808.011	644.721
401.321	25.107	807.395	645.447
402.336	25.355	807.318	646.219
403.350	25.648	807.498	647.363
404.365	25.898	807.165	647.938
405.380	26.240	806.707	648.738
406.394	26.402	805.978	648.675
407.409	26.267	805.597	647.830
408.423	25.920	805.944	646.807
409.438	26.403	804.830	647.586
410.453	26.295	804.518	646.892
411.467	26.193	803.990	646.042
412.482	26.233	803.623	645.834
413.496	26.361	803.369	646.032
414.511	26.334	802.792	645.411
415.526	26.424	801.925	644.978
416.540	26.020	801.858	643.427
417.555	25.863	800.898	642.042
418.569	25.894	800.764	641.987
419.584	25.835	800.153	641.230
420.599	25.612	799.734	640.043
421.613	88.912	1249.351	1336.664
422.628	75.934	1314.888	1336.779
