DTS Sentinel unit serial number:	SN413079Multiplexer serial number:	ORYXHardware model number:	OX4-SRSoftware version number:	ORYX F/W v4.00 Oryx Data Collector v3.7.2.0data status	okinstallation	princeton_trtdifferential loss correction	single-endedforward channel	channel 1reverse channel	N/Adate	2019/09/11time	01:44:11forward acquisition time	60.00reverse acquisition time	0.00gamma	496.2192k internal	0.2331k external	0.2331temperature offset calibration	0.9927default loss term (dB/km)	0.3790temperature slope calibration	1.0000multiplexer offset coefficient	1.0000multiplexer slope coefficient	1.0000fibre end	0.00T internal ref (°C)	29.17T ext. ref 1 (°C)	-0.31T ext. ref 2 (°C)	23.23length (m)	temperature (°C)	Stokes	anti-Stokes-747.200	141.148	0.153	-0.204
-746.185	5.914	-0.237	0.177
-745.171	69.846	-0.142	-0.148
-744.156	-62.096	0.385	0.162
-743.142	451.889	0.107	-0.237
-742.127	800.000	0.034	-0.148
-741.112	-200.000	-0.041	0.274
-740.098	606.895	0.082	0.205
-739.083	-61.578	-0.237	0.100
-738.069	288.140	0.041	0.074
-737.054	-146.667	-0.435	-0.038
-736.039	55.782	-0.366	-0.357
-735.025	-42.742	0.378	0.194
-734.010	-61.414	-0.420	0.178
-732.996	-40.635	0.014	-0.007
-731.981	800.000	-0.066	-0.237
-730.966	-200.000	-0.008	0.202
-729.952	-121.930	0.204	-0.034
-728.937	800.000	-0.086	-0.261
-727.923	-130.478	0.178	-0.024
-726.908	-42.548	-0.144	-0.074
-725.894	-94.008	0.090	0.025
-724.879	119.548	-0.126	-0.157
-723.864	-200.000	-0.037	0.237
-722.850	442.134	-0.062	-0.135
-721.835	50.907	-0.149	-0.142
-720.821	-29.387	0.484	0.278
-719.806	-15.845	-0.074	-0.047
-718.791	36.969	0.065	-0.058
-717.777	215.414	-0.154	0.246
-716.762	61.980	-0.087	-0.087
-715.748	170.343	-0.180	0.259
-714.733	87.334	-0.187	-0.208
-713.718	-82.321	0.130	0.042
-712.704	-200.000	0.046	0.250
-711.689	-145.729	-0.398	0.036
-710.675	-200.000	-0.019	-0.242
-709.660	-200.000	-0.000	-0.135
-708.645	-200.000	0.035	-0.236
-707.631	-200.000	0.016	0.109
-706.616	-200.000	0.047	-0.443
-705.602	191.615	0.123	-0.187
-704.587	-0.096	0.092	-0.066
-703.572	320.681	-0.054	-0.102
-702.558	-72.289	0.334	0.124
-701.543	-200.000	0.029	-0.150
-700.529	-104.007	0.247	-0.058
-699.514	-35.700	-0.221	0.120
-698.499	-109.239	-0.246	0.052
-697.485	224.378	0.043	0.070
-696.470	-91.426	0.106	0.030
-695.456	-50.448	-0.106	-0.050
-694.441	7.723	-0.182	-0.137
-693.426	20.092	-0.108	-0.088
-692.412	-181.437	0.285	-0.006
-691.397	-77.280	-0.257	0.090
-690.383	-125.901	-0.350	0.053
-689.368	800.000	0.119	0.379
-688.354	-108.968	-0.145	-0.031
-687.339	708.122	0.028	-0.073
-686.324	245.510	-0.035	0.060
-685.310	487.952	-0.160	0.366
-684.295	23.849	-0.154	-0.127
-683.281	466.373	0.040	-0.090
-682.266	-158.991	-0.448	-0.025
-681.251	229.984	-0.344	0.565
-680.237	-130.966	-0.171	-0.023
-679.222	71.662	-0.093	0.097
-678.208	-200.000	0.008	0.352
-677.193	-153.832	-0.137	-0.009
-676.178	-200.000	0.032	-0.283
-675.164	800.000	0.143	-0.463
-674.149	-200.000	-0.025	-0.121
-673.135	16.360	-0.157	-0.125
-672.120	158.747	0.142	0.197
-671.105	-155.889	-0.310	-0.020
-670.091	-200.000	0.007	0.122
-669.076	162.478	-0.126	-0.177
-668.062	-200.000	-0.050	0.325
-667.047	-35.780	-0.100	0.054
-666.032	-91.545	0.267	0.076
-665.018	89.111	-0.040	-0.045
-664.003	307.996	-0.047	-0.087
-662.989	-200.000	0.033	0.276
-661.974	-200.000	-0.097	-0.566
-660.959	-38.650	0.079	-0.042
-659.945	124.483	0.179	-0.226
-658.930	357.501	-0.041	0.083
-657.916	-25.845	0.118	0.070
-656.901	160.011	-0.059	0.083
-655.886	-200.000	0.056	0.388
-654.872	40.452	0.254	0.229
-653.857	-80.400	-0.271	0.091
-652.843	800.000	0.046	0.180
-651.828	-99.777	0.057	-0.014
-650.814	800.000	-0.057	-0.162
-649.799	800.000	0.090	-0.264
-648.784	94.159	0.157	0.178
-647.770	20.426	0.127	-0.103
-646.755	200.655	-0.091	-0.141
-645.741	-200.000	0.048	-0.254
-644.726	800.000	0.061	0.201
-643.711	120.347	0.069	0.086
-642.697	-53.510	0.268	-0.123
-641.682	800.000	-0.087	0.247
-640.668	-39.531	0.177	-0.093
-639.653	144.428	0.172	0.231
-638.638	-55.304	-0.260	0.117
-637.624	-99.398	-0.407	-0.103
-636.609	116.788	0.028	-0.034
-635.595	8.793	0.081	-0.061
-634.580	674.838	-0.071	0.184
-633.565	800.000	-0.052	-0.209
-632.551	643.872	0.123	-0.315
-631.536	-61.305	0.180	-0.076
-630.522	320.526	0.023	-0.044
-629.507	-67.872	-0.487	0.190
-628.492	156.496	-0.098	0.135
-627.478	58.481	-0.169	0.167
-626.463	-100.635	-0.478	-0.118
-625.449	-200.000	0.047	-0.325
-624.434	-125.214	0.131	0.020
-623.419	-108.847	-0.039	0.008
-622.405	-110.923	-0.204	-0.042
-621.390	-152.966	0.092	-0.006
-620.376	-200.000	0.038	-0.279
-619.361	55.355	0.208	-0.201
-618.346	581.407	0.089	-0.218
-617.332	13.911	0.100	-0.078
-616.317	800.000	0.023	0.075
-615.303	78.408	-0.220	-0.236
-614.288	-81.952	0.117	-0.038
-613.273	153.169	0.195	-0.267
-612.259	-63.004	-0.236	0.098
-611.244	800.000	0.180	0.587
-610.230	101.450	0.202	0.236
-609.215	-200.000	0.023	0.393
-608.201	-58.678	-0.277	-0.120
-607.186	-200.000	0.069	0.457
-606.171	-42.069	-0.165	-0.085
-605.157	-122.790	-0.110	-0.018
-604.142	-78.882	-0.257	-0.088
-603.128	582.511	0.151	-0.370
-602.113	800.000	0.056	-0.165
-601.098	421.231	-0.102	-0.220
-600.084	-70.982	-0.279	-0.105
-599.069	-139.691	-0.463	-0.049
-598.055	-166.061	-0.054	-0.002
-597.040	-126.281	0.106	0.016
-596.025	143.524	0.065	-0.086
-595.011	701.818	0.064	-0.170
-593.996	148.622	-0.267	0.360
-592.982	-200.000	0.024	0.395
-591.967	41.173	0.162	-0.147
-590.952	446.288	-0.021	-0.045
-589.938	303.455	-0.076	0.141
-588.923	174.293	0.115	-0.166
-587.909	15.454	0.152	0.119
-586.894	800.000	0.052	0.177
-585.879	327.148	-0.027	-0.051
-584.865	285.710	0.091	-0.165
-583.850	50.523	-0.179	-0.169
-582.836	175.433	-0.162	-0.235
-581.821	-200.000	-0.023	0.107
-580.806	302.062	-0.100	0.185
-579.792	-80.568	0.324	0.108
-578.777	-72.628	-0.062	-0.023
-577.763	182.701	0.142	0.210
-576.748	-119.056	0.060	-0.011
-575.733	232.720	-0.093	-0.152
-574.719	-88.338	0.459	0.137
-573.704	142.853	0.099	-0.131
-572.690	-136.820	0.409	-0.047
-571.675	18.406	0.046	-0.037
-570.661	144.461	-0.222	0.296
-569.646	-200.000	-0.011	0.287
-568.631	-105.692	0.258	-0.058
-567.617	-170.319	-0.128	-0.005
-566.602	59.189	-0.090	-0.089
-565.588	181.107	-0.168	0.247
-564.573	-200.000	0.010	-0.052
-563.558	-33.480	0.302	0.167
-562.544	-96.217	0.389	0.103
-561.529	-64.532	-0.276	0.112
-560.515	33.700	-0.143	0.124
-559.500	800.000	0.046	-0.164
-558.485	119.815	0.016	-0.020
-557.471	800.000	-0.075	-0.237
-556.456	-0.590	0.164	0.116
-555.442	170.489	0.170	-0.244
-554.427	-12.742	0.190	0.124
-553.412	86.537	0.128	0.141
-552.398	-47.198	-0.107	-0.052
-551.383	639.094	-0.003	0.009
-550.369	32.949	0.099	0.086
-549.354	335.449	-0.025	-0.049
-548.339	538.625	0.029	-0.070
-547.325	166.346	0.098	-0.138
-546.310	-50.272	0.245	0.116
-545.296	10.446	-0.266	0.202
-544.281	-154.390	-0.260	0.017
-543.266	566.744	-0.065	-0.158
-542.252	-200.000	-0.048	0.269
-541.237	205.672	0.142	0.220
-540.223	567.776	0.068	-0.166
-539.208	131.126	-0.133	-0.171
-538.193	800.000	-0.049	-0.151
-537.179	-21.011	-0.289	0.177
-536.164	-123.776	0.344	0.054
-535.150	-113.454	0.305	-0.060
-534.135	-32.844	-0.309	0.172
-533.121	-200.000	0.002	-0.055
-532.106	-52.256	-0.313	-0.145
-531.091	403.221	-0.086	-0.182
-530.077	-200.000	0.068	-0.357
-529.062	-171.622	-0.168	-0.006
-528.048	31.669	-0.238	-0.204
-527.033	-145.198	0.203	-0.018
-526.018	416.208	-0.076	-0.161
-525.004	800.000	0.081	-0.334
-523.989	98.902	-0.216	0.248
-522.975	-16.657	0.313	0.198
-521.960	427.324	0.049	0.106
-520.945	19.479	-0.292	0.234
-519.931	-22.710	-0.183	0.110
-518.916	-200.000	0.006	-0.431
-517.902	54.158	-0.193	0.185
-516.887	-177.176	-0.164	-0.004
-515.872	425.647	-0.056	-0.119
-514.858	87.347	-0.214	0.236
-513.843	-200.000	0.027	-0.134
-512.829	-25.324	0.071	-0.042
-511.814	-153.455	0.225	-0.016
-510.799	-16.034	-0.186	-0.118
-509.785	390.770	-0.128	-0.264
-508.770	800.000	-0.095	0.348
-507.756	-200.000	-0.037	0.311
-506.741	160.467	-0.099	-0.138
-505.726	84.192	-0.118	-0.129
-504.712	800.000	0.053	0.187
-503.697	-14.698	-0.343	-0.220
-502.683	-15.396	-0.221	-0.141
-501.668	303.049	-0.039	-0.072
-500.653	-22.984	0.465	-0.279
-499.639	66.244	0.253	0.257
-498.624	0.845	-0.102	-0.073
-497.610	74.130	-0.143	0.150
-496.595	58.091	-0.107	0.104
-495.581	-33.030	-0.139	-0.077
-494.566	232.185	-0.030	0.048
-493.551	-47.635	-0.155	0.075
-492.537	147.938	-0.036	-0.048
-491.522	-43.354	0.117	0.059
-490.508	-200.000	0.030	0.180
-489.493	-200.000	0.016	0.391
-488.478	800.000	-0.127	0.369
-487.464	11.037	0.076	0.058
-486.449	-143.134	-0.134	-0.013
-485.435	-12.054	0.270	0.176
-484.420	206.563	-0.113	0.175
-483.405	19.659	-0.193	-0.155
-482.391	-49.179	0.144	0.068
-481.376	-44.220	0.139	-0.069
-480.362	800.000	-0.079	-0.241
-479.347	-98.492	-0.344	-0.088
-478.332	-105.738	0.077	-0.017
-477.318	13.068	0.127	-0.098
-476.303	-2.917	-0.138	0.096
-475.289	-200.000	-0.017	-0.156
-474.274	-200.000	-0.002	-0.157
-473.259	-200.000	0.000	-0.063
-472.245	161.510	0.185	0.258
-471.230	220.567	-0.176	-0.281
-470.216	-200.000	0.033	-0.179
-469.201	369.562	0.104	-0.210
-468.186	-26.435	-0.206	0.120
-467.172	-177.508	-0.422	0.010
-466.157	17.773	-0.042	0.033
-465.143	-133.071	-0.263	-0.033
-464.128	45.074	-0.214	-0.196
-463.113	70.037	-0.047	0.048
-462.099	-86.157	0.221	0.068
-461.084	-200.000	0.001	-0.120
-460.070	-200.000	-0.009	-0.066
-459.055	-116.247	0.218	-0.040
-458.040	-142.302	0.152	0.015
-457.026	-17.926	-0.192	0.120
-456.011	333.590	0.067	-0.130
-454.997	-135.007	0.152	-0.018
-453.982	13.093	-0.204	-0.157
-452.968	800.000	-0.085	0.349
-451.953	54.581	-0.138	0.132
-450.938	67.713	0.337	0.343
-449.924	-120.725	-0.137	0.023
-448.909	4.612	0.072	0.053
-447.895	-126.183	-0.029	0.004
-446.880	5.411	0.221	-0.162
-445.865	393.992	0.118	-0.244
-444.851	800.000	0.077	-0.230
-443.836	-130.002	0.146	-0.020
-442.822	49.242	-0.197	0.184
-441.807	-10.182	-0.195	-0.129
-440.792	-124.339	0.317	0.049
-439.778	260.894	-0.053	-0.091
-438.763	-146.635	0.171	0.015
-437.749	800.000	-0.084	-0.307
-436.734	800.000	-0.035	-0.107
-435.719	-200.000	-0.024	-0.123
-434.705	-93.638	-0.279	-0.077
-433.690	-138.137	-0.283	0.031
-432.676	-200.000	0.079	-0.357
-431.661	-78.562	-0.297	-0.101
-430.646	412.172	-0.101	-0.212
-429.632	77.416	0.362	0.382
-428.617	-85.042	-0.181	-0.057
-427.603	-75.172	-0.208	0.074
-426.588	-180.584	-0.064	-0.001
-425.573	-200.000	-0.015	0.334
-424.559	-100.497	-0.104	-0.026
-423.544	-49.489	0.065	0.031
-422.530	-200.000	0.006	0.364
-421.515	800.000	-0.101	0.357
-420.500	116.132	0.219	0.267
-419.486	69.048	-0.131	-0.134
-418.471	192.904	0.078	-0.117
-417.457	102.220	0.119	0.139
-416.442	-102.649	0.219	-0.052
-415.428	95.299	0.112	-0.127
-414.413	-46.166	0.128	0.063
-413.398	584.646	-0.020	0.050
-412.384	11.835	-0.140	-0.107
-411.369	800.000	0.087	-0.280
-410.355	800.000	0.059	0.214
-409.340	22.139	0.005	0.004
-408.325	-175.457	0.344	-0.009
-407.311	-10.186	0.210	0.138
-406.296	-200.000	-0.028	-0.188
-405.282	554.004	0.198	-0.473
-404.267	14.087	-0.037	0.029
-403.252	67.351	0.183	0.185
-402.238	262.374	0.123	-0.211
-401.223	-200.000	0.068	-0.298
-400.209	155.122	-0.110	-0.150
-399.194	-200.000	-0.011	-0.360
-398.179	-200.000	0.034	-0.252
-397.165	-154.509	-0.122	-0.008
-396.150	-119.137	0.306	0.053
-395.136	800.000	-0.038	-0.110
-394.121	445.140	0.076	-0.165
-393.106	118.354	0.091	0.111
-392.092	-200.000	0.018	0.276
-391.077	-168.651	0.227	0.009
-390.063	351.276	-0.088	0.172
-389.048	116.078	0.033	-0.040
-388.033	-31.700	-0.426	0.237
-387.019	-200.000	-0.019	-0.135
-386.004	-30.796	-0.380	-0.213
-384.990	-86.629	0.377	0.115
-383.975	119.708	-0.125	0.153
-382.960	-90.574	0.332	-0.095
-381.946	554.837	0.124	-0.297
-380.931	107.402	-0.143	-0.169
-379.917	-101.471	0.229	-0.055
-378.902	8.084	-0.366	0.272
-377.888	9.609	-0.162	0.121
-376.873	-44.081	0.020	-0.010
-375.858	-200.000	-0.001	0.059
-374.844	34.198	0.212	-0.183
-373.829	236.202	-0.041	-0.067
-372.815	-134.698	-0.202	-0.024
-371.800	800.000	-0.055	0.162
-370.785	238.725	-0.130	-0.214
-369.771	135.483	0.261	-0.336
-368.756	-51.746	0.162	0.075
-367.742	-1.980	-0.211	0.147
-366.727	-200.000	0.056	-0.280
-365.712	-46.077	-0.259	-0.127
-364.698	800.000	0.054	-0.185
-363.683	60.782	0.124	0.122
-362.669	800.000	0.053	-0.167
-361.654	-117.204	0.338	0.061
-360.639	-200.000	-0.013	-0.078
-359.625	-200.000	0.029	-0.220
-358.610	24.622	0.531	0.436
-357.596	-70.399	0.047	-0.017
-356.581	11.409	-0.278	0.211
-355.566	-200.000	0.017	-0.582
-354.552	48.786	-0.199	-0.185
-353.537	360.739	-0.074	-0.146
-352.523	-200.000	-0.026	0.214
-351.508	-200.000	0.008	0.055
-350.493	-61.760	0.222	-0.092
-349.479	17.015	0.276	0.217
-348.464	98.904	-0.325	0.371
-347.450	-101.769	-0.299	0.072
-346.435	-15.693	-0.172	-0.109
-345.420	-33.438	0.093	-0.051
-344.406	-200.000	-0.013	0.219
-343.391	-124.981	-0.108	-0.016
-342.377	800.000	-0.055	0.234
-341.362	-77.462	-0.207	-0.071
-340.348	-200.000	0.052	-0.428
-339.333	31.595	0.096	-0.082
-338.318	-109.571	-0.236	0.049
-337.304	-200.000	0.001	-0.268
-336.289	-150.513	0.277	-0.021
-335.275	-200.000	0.013	0.215
-334.260	800.000	0.025	-0.080
-333.245	88.284	-0.168	-0.184
-332.231	-146.009	0.437	0.038
-331.216	224.532	0.192	-0.308
-330.202	93.836	-0.075	-0.084
-329.187	48.373	-0.210	0.195
-328.172	800.000	-0.071	0.224
-327.158	243.177	0.173	-0.286
-326.143	-47.609	-0.166	0.080
-325.129	-200.000	-0.017	-0.143
-324.114	-200.000	0.009	-0.087
-323.099	57.905	0.063	0.061
-322.085	800.000	0.046	0.184
-321.070	38.033	0.036	-0.031
-320.056	-200.000	0.022	-0.107
-319.041	-62.438	0.229	-0.094
-318.026	-82.324	-0.161	0.052
-317.012	-200.000	-0.018	0.120
-315.997	-15.758	-0.082	0.052
-314.983	-200.000	0.016	0.193
-313.968	-200.000	0.019	0.440
-312.953	-200.000	0.001	-0.117
-311.939	-10.882	0.260	-0.170
-310.924	-124.936	-0.144	0.022
-309.910	-62.342	0.199	-0.082
-308.895	-19.767	0.043	0.026
-307.880	128.631	-0.028	0.035
-306.866	-130.396	0.291	0.039
-305.851	5.865	0.022	0.016
-304.837	100.411	-0.067	0.077
-303.822	155.544	0.204	0.278
-302.807	800.000	-0.026	-0.099
-301.793	-122.448	0.328	-0.053
-300.778	-70.283	-0.138	-0.052
-299.764	800.000	-0.034	0.095
-298.749	-175.008	0.278	-0.008
-297.735	-200.000	-0.002	-0.201
-296.720	-71.783	-0.060	-0.022
-295.705	400.044	0.016	0.033
-294.691	78.678	-0.147	0.155
-293.676	113.884	0.030	-0.036
-292.662	-200.000	-0.057	-0.479
-291.647	800.000	0.124	0.469
-290.632	5.254	0.046	-0.033
-289.618	-16.837	-0.127	-0.079
-288.603	193.203	0.233	0.348
-287.589	421.963	-0.028	0.060
-286.574	-137.368	0.116	0.013
-285.559	-90.985	-0.185	-0.052
-284.545	482.297	-0.051	-0.115
-283.530	462.219	-0.058	-0.128
-282.516	-78.141	0.148	-0.050
-281.501	116.613	0.106	-0.129
-280.486	-23.266	-0.122	-0.072
-279.472	-49.485	0.203	-0.096
-278.457	192.774	0.057	-0.085
-277.443	51.473	-0.100	-0.094
-276.428	-200.000	-0.005	-0.250
-275.413	160.833	-0.081	0.112
-274.399	-200.000	0.060	0.431
-273.384	-183.784	-0.251	-0.004
-272.370	-40.666	-0.359	0.184
-271.355	165.472	-0.073	-0.101
-270.340	-41.328	0.116	0.059
-269.326	-109.743	0.172	-0.036
-268.311	800.000	0.073	0.214
-267.297	800.000	0.037	0.117
-266.282	-77.314	0.129	0.044
-265.267	800.000	-0.101	0.297
-264.253	-138.303	0.284	-0.031
-263.238	-94.788	0.256	-0.068
-262.224	-52.451	-0.045	-0.020
-261.209	-200.000	0.002	0.155
-260.195	-200.000	0.001	0.423
-259.180	-112.907	0.317	0.062
-258.165	-104.863	-0.335	0.076
-257.151	-200.000	0.006	-0.232
-256.136	797.055	-0.127	-0.346
-255.122	248.305	0.083	0.138
-254.107	-125.570	-0.160	0.024
-253.092	254.630	-0.032	-0.055
-252.078	-200.000	0.026	0.261
-251.063	196.372	0.212	0.319
-250.049	-91.755	-0.268	-0.075
-249.034	-4.081	-0.156	0.106
-248.019	80.155	-0.026	0.027
-247.005	-105.773	0.121	-0.027
-245.990	475.236	-0.168	-0.373
-244.976	518.542	-0.096	-0.222
-243.961	-59.408	0.300	-0.127
-242.946	296.803	-0.095	0.171
-241.932	-14.429	-0.188	-0.120
-240.917	-138.986	0.185	-0.020
-239.903	271.029	0.143	0.248
-238.888	800.000	0.054	-0.195
-237.873	-200.000	0.000	0.086
-236.859	70.375	0.107	-0.109
-235.844	-29.645	-0.075	0.042
-234.830	800.000	-0.075	-0.293
-233.815	-200.000	-0.011	-0.071
-232.800	-125.696	-0.342	0.051
-231.786	-138.891	0.122	0.013
-230.771	213.475	0.065	-0.102
-229.757	2.382	0.261	0.186
-228.742	800.000	0.060	0.178
-227.727	-5.799	-0.219	0.148
-226.713	800.000	0.114	0.393
-225.698	99.977	0.134	0.153
-224.684	77.658	-0.058	-0.061
-223.669	-200.000	-0.054	0.276
-222.655	333.849	0.077	0.147
-221.640	636.748	0.025	0.063
-220.625	199.271	0.045	-0.068
-219.611	328.800	0.151	0.286
-218.596	-200.000	0.018	0.133
-217.582	273.568	0.061	-0.107
-216.567	-114.876	0.094	-0.018
-215.552	392.696	0.136	-0.280
-214.538	-90.797	0.218	-0.062
-213.523	0.209	-0.294	0.207
-212.509	200.223	-0.058	-0.087
-211.494	-200.000	0.011	0.257
-210.479	45.660	-0.128	-0.117
-209.465	1.410	0.136	-0.097
-208.450	528.480	0.076	0.176
-207.436	-200.000	0.003	0.125
-206.421	26.033	-0.245	-0.201
-205.406	-64.504	0.144	0.058
-204.392	-200.000	-0.023	0.112
-203.377	800.000	0.026	0.083
-202.363	-93.313	-0.316	0.086
-201.348	-78.358	0.386	-0.131
-200.333	-157.063	-0.239	0.014
-199.319	103.001	-0.308	0.356
-198.304	-41.145	-0.295	0.150
-197.290	-28.882	-0.291	-0.165
-196.275	496.322	0.085	-0.193
-195.260	-138.652	-0.234	0.025
-194.246	96.924	0.066	-0.074
-193.231	590.689	-0.007	-0.016
-192.217	-200.000	-0.005	-0.067
-191.202	-200.000	0.029	-0.160
-190.187	137.616	-0.169	0.218
-189.173	-74.310	-0.291	-0.103
-188.158	23.988	0.060	0.049
-187.144	274.826	0.052	-0.090
-186.129	392.667	0.078	0.159
-185.114	73.999	-0.259	0.268
-184.100	380.093	-0.124	0.251
-183.085	800.000	-0.078	-0.285
-182.071	-120.251	0.131	0.022
-181.056	223.273	-0.191	0.303
-180.042	773.070	-0.055	0.147
-179.027	553.610	-0.051	0.122
-178.012	-80.058	0.132	0.044
-176.998	-200.000	-0.044	-0.208
-175.983	186.771	-0.097	-0.142
-174.969	171.287	-0.085	0.119
-173.954	27.939	-0.033	0.028
-172.939	-200.000	-0.015	-0.123
-171.925	14.967	-0.143	0.110
-170.910	139.167	-0.106	-0.137
-169.896	58.507	0.073	-0.071
-168.881	-200.000	-0.005	0.042
-167.866	-70.411	0.199	0.074
-166.852	24.628	0.344	0.280
-165.837	-118.112	0.374	-0.066
-164.823	-200.000	0.023	0.262
-163.808	800.000	0.017	0.064
-162.793	-32.931	0.273	-0.149
-161.779	-104.805	0.233	-0.053
-160.764	-66.308	-0.314	-0.123
-159.750	-200.000	-0.014	0.106
-158.735	-200.000	-0.027	0.268
-157.720	-200.000	-0.016	0.157
-156.706	-155.596	0.270	0.017
-155.691	-200.000	-0.066	-0.344
-154.677	-80.659	0.178	-0.058
-153.662	-53.117	0.226	-0.102
-152.647	-91.253	0.175	0.049
-151.633	-200.000	0.011	-0.272
-150.618	-110.445	-0.194	0.040
-149.604	375.858	-0.168	0.336
-148.589	203.774	-0.171	0.261
-147.574	-135.999	0.250	0.029
-146.560	641.254	-0.032	0.080
-145.545	-121.692	-0.194	-0.032
-144.531	800.000	-0.023	0.064
-143.516	-200.000	-0.017	-0.372
-142.502	-166.290	0.162	0.007
-141.487	-41.166	0.174	0.088
-140.472	800.000	0.057	0.191
-139.458	-85.940	0.179	-0.055
-138.443	411.761	-0.073	-0.152
-137.429	-28.718	0.104	0.059
-136.414	-133.826	0.112	0.014
-135.399	-183.690	-0.173	0.003
-134.385	140.491	0.161	-0.209
-133.370	-124.767	-0.260	0.040
-132.356	351.873	-0.044	0.086
-131.341	16.837	-0.098	0.076
-130.326	-200.000	-0.050	0.360
-129.312	-85.439	0.185	0.056
-128.297	800.000	-0.082	-0.300
-127.283	56.802	-0.073	-0.070
-126.268	247.312	0.094	-0.156
-125.253	800.000	-0.078	-0.262
-124.239	-64.519	0.111	-0.044
-123.224	-166.834	-0.332	-0.013
-122.210	800.000	0.037	0.137
-121.195	122.359	-0.350	0.430
-120.180	800.000	0.039	-0.139
-119.166	-35.824	-0.145	-0.077
-118.151	55.973	0.120	0.114
-117.137	-200.000	0.015	-0.417
-116.122	800.000	0.047	0.197
-115.107	85.169	-0.194	0.209
-114.093	-200.000	-0.019	-0.190
-113.078	-51.000	-0.278	0.128
-112.064	800.000	0.047	-0.150
-111.049	-41.672	-0.114	0.058
-110.034	-200.000	0.024	0.239
-109.020	-165.778	0.072	-0.003
-108.005	226.360	0.120	-0.192
-106.991	-200.000	-0.022	0.112
-105.976	110.032	0.192	-0.226
-104.962	-142.924	0.519	0.049
-103.947	-99.813	0.333	0.082
-102.932	-88.712	-0.251	0.073
-101.918	-116.407	-0.111	0.020
-100.903	1.735	-0.160	0.113
-99.889	-16.125	-0.269	-0.168
-98.874	-200.000	0.033	-0.303
-97.859	130.984	0.194	-0.245
-96.845	-168.488	-0.161	0.006
-95.830	155.466	0.101	-0.137
-94.816	800.000	-0.043	-0.171
-93.801	-85.311	0.146	0.045
-92.786	-30.852	-0.249	0.138
-91.772	59.457	-0.183	-0.177
-90.757	-96.842	-0.122	-0.031
-89.743	-152.890	-0.324	0.022
-88.728	-103.408	0.154	-0.036
-87.713	-200.000	0.026	-0.186
-86.699	800.000	-0.087	0.321
-85.684	-110.509	0.147	-0.030
-84.670	-200.000	0.016	0.133
-83.655	-83.371	0.054	0.017
-82.640	-200.000	-0.019	0.153
-81.626	568.241	-0.160	-0.381
-80.611	-200.000	-0.039	-0.170
-79.597	-30.599	0.098	0.054
-78.582	365.933	0.051	0.100
-77.567	-10.074	0.148	-0.096
-76.553	26.621	-0.229	-0.188
-75.538	-81.008	-0.125	0.041
-74.524	800.000	-0.048	0.155
-73.509	-65.861	-0.166	-0.065
-72.494	800.000	0.070	-0.214
-71.480	244.044	-0.209	-0.343
-70.465	-70.853	0.236	-0.087
-69.451	-111.019	-0.157	0.032
-68.436	42.207	0.148	0.132
-67.422	-200.000	0.005	0.070
-66.407	87.752	-0.062	-0.067
-65.392	0.463	0.106	0.074
-64.378	29.230	-0.224	0.186
-63.363	-90.051	0.141	-0.040
-62.349	243.992	-0.105	0.172
-61.334	161.513	-0.941	-1.290
-60.319	469.186	0.377	0.829
-59.305	800.000	-0.334	-0.968
-58.290	126.706	0.769	0.954
-57.276	800.000	0.451	1.675
-56.261	-200.000	106.518	625.867
-55.246	522.467	1513.895	3482.648
-54.232	175.985	2704.641	3845.466
-53.217	111.990	2163.109	2559.608
-52.203	41.248	1600.632	1417.310
-51.188	32.606	1337.487	1132.588
-50.173	29.572	1296.123	1079.808
-49.159	53.883	1350.822	1271.169
-48.144	54.069	1365.843	1286.364
-47.130	32.744	1320.726	1119.035
-46.115	29.253	1302.943	1083.444
-45.100	29.049	1297.932	1078.039
-44.086	29.112	1294.903	1075.848
-43.071	28.989	1293.128	1073.613
-42.057	29.025	1290.718	1071.781
-41.042	28.958	1289.675	1070.481
-40.027	29.104	1287.963	1069.867
-39.013	29.080	1285.753	1067.851
-37.998	29.200	1283.583	1066.704
-36.984	29.073	1282.266	1064.830
-35.969	29.258	1279.977	1063.955
-34.954	29.133	1278.487	1061.950
-33.940	29.269	1277.082	1061.526
-32.925	29.205	1276.359	1060.516
-31.911	29.176	1274.821	1059.027
-30.896	29.235	1273.185	1057.966
-29.881	29.370	1271.710	1057.473
-28.867	29.284	1270.017	1055.528
-27.852	29.283	1268.790	1054.460
-26.838	29.255	1267.398	1053.105
-25.823	29.337	1265.973	1052.346
-24.809	29.208	1264.899	1050.677
-23.794	29.187	1263.582	1049.421
-22.779	29.248	1262.462	1048.794
-21.765	29.218	1260.973	1047.348
-20.750	29.191	1259.802	1046.180
-19.736	29.239	1257.986	1044.900
-18.721	29.230	1257.083	1044.058
-17.706	29.342	1255.619	1043.434
-16.692	29.056	1255.544	1041.712
-15.677	29.155	1253.801	1040.787
-14.663	29.024	1252.863	1039.227
-13.648	29.144	1251.811	1038.988
-12.633	29.035	1250.755	1037.461
-11.619	29.141	1249.853	1037.264
-10.604	29.044	1249.608	1036.476
-9.590	29.045	1248.526	1035.543
-8.575	29.079	1247.215	1034.604
-7.560	29.134	1246.160	1033.997
-6.546	29.064	1246.024	1033.451
-5.531	29.127	1245.100	1032.994
-4.517	29.225	1243.423	1032.111
-3.502	29.209	1243.023	1031.649
-2.487	29.073	1242.236	1030.192
-1.473	29.124	1238.328	1027.199
-0.458	27.692	1223.421	1006.895
0.556	22.170	1205.982	970.927
1.571	18.550	1212.084	955.617
2.586	17.748	1226.727	962.555
3.600	17.813	1215.641	954.134
4.615	12.888	1144.697	872.375
5.629	4.029	1070.736	771.928
6.644	-0.030	1050.952	737.704
7.659	-0.352	1047.965	733.971
8.673	-0.396	1046.723	732.817
9.688	-0.461	1045.296	731.438
10.702	-0.110	1043.912	732.116
11.717	5.557	1051.700	765.274
12.731	14.619	1064.770	819.393
13.746	19.231	1070.643	846.557
14.761	20.188	1071.885	852.168
15.775	20.244	1071.232	851.850
16.790	19.923	1070.492	849.611
17.804	19.842	1069.864	848.637
18.819	20.078	1069.523	849.451
19.834	20.068	1069.265	849.119
20.848	20.257	1068.381	849.268
21.863	20.086	1068.515	848.464
22.877	19.892	1067.553	846.678
23.892	20.043	1066.412	846.435
24.907	20.152	1065.828	846.429
25.921	20.157	1064.289	845.154
26.936	20.209	1063.190	844.462
27.950	19.949	1061.960	842.145
28.965	19.899	1059.723	840.054
29.980	19.938	1058.380	839.106
30.994	20.114	1057.037	838.814
32.009	20.171	1055.573	837.857
33.023	20.003	1054.240	835.914
34.038	20.007	1054.181	835.814
35.053	20.161	1053.472	835.918
36.067	20.136	1052.681	835.095
37.082	20.154	1052.126	834.667
38.096	20.243	1051.106	834.212
39.111	20.392	1049.967	833.952
40.126	20.313	1048.558	832.379
41.140	19.929	1047.172	829.368
42.155	19.801	1045.410	827.287
43.169	19.903	1044.386	826.891
44.184	19.981	1043.182	826.233
45.199	19.774	1042.326	824.496
46.213	19.847	1041.329	823.982
47.228	19.945	1040.773	823.937
48.242	19.883	1039.917	822.889
49.257	20.188	1038.287	822.977
50.271	20.268	1037.840	822.926
51.286	20.142	1037.412	821.917
52.301	20.146	1036.332	821.009
53.315	20.070	1035.260	819.729
54.330	20.012	1034.748	818.975
55.344	20.138	1033.723	818.686
56.359	20.145	1032.636	817.788
57.374	19.813	1031.496	815.246
58.388	20.111	1030.962	816.158
59.403	19.919	1030.163	814.547
60.417	19.738	1029.107	812.791
61.432	19.992	1028.239	813.224
62.447	19.911	1028.016	812.599
63.461	19.993	1027.166	812.238
64.476	20.010	1025.852	811.207
65.490	19.838	1025.444	810.009
66.505	19.811	1024.480	809.047
67.520	19.941	1023.302	808.652
68.534	19.806	1022.858	807.599
69.549	19.474	1022.000	805.303
70.563	19.406	1021.007	804.133
71.578	19.553	1020.138	804.060
72.593	19.413	1019.026	802.464
73.607	19.476	1019.006	802.670
74.622	19.763	1018.431	803.479
75.636	19.716	1018.153	802.970
76.651	19.718	1016.153	801.332
77.666	19.568	1015.681	800.191
78.680	19.655	1015.292	800.219
79.695	19.665	1014.627	799.670
80.709	19.830	1013.946	799.824
81.724	19.846	1012.522	798.706
82.739	19.881	1012.291	798.615
83.753	20.209	1011.642	799.543
84.768	20.351	1010.673	799.360
85.782	20.545	1009.459	799.221
86.797	20.425	1008.515	797.850
87.812	20.127	1007.711	795.776
88.826	20.240	1006.786	795.497
89.841	20.397	1005.740	795.315
90.855	20.396	1004.852	794.539
91.870	20.315	1004.146	793.541
92.884	20.304	1002.616	792.213
93.899	20.094	1002.075	790.754
94.914	20.389	1000.634	790.891
95.928	20.151	999.828	789.101
96.943	20.049	998.187	787.274
97.957	19.661	997.745	785.092
98.972	19.664	995.961	783.632
99.987	19.929	995.649	784.521
101.001	20.066	994.966	784.534
102.016	20.080	993.896	783.682
103.030	20.036	993.109	782.795
104.045	19.808	992.219	780.995
105.060	19.628	991.204	779.314
106.074	20.011	990.098	780.100
107.089	20.168	990.276	780.881
108.103	20.069	988.980	779.345
109.118	19.991	987.429	777.700
110.133	19.879	986.529	776.423
111.147	19.784	985.224	774.902
112.162	19.597	984.400	773.348
113.176	19.926	983.527	774.064
114.191	19.867	982.770	773.137
115.206	19.512	981.732	770.666
116.220	19.477	980.962	769.840
117.235	19.664	979.574	769.514
118.249	19.619	978.867	768.690
119.264	19.499	978.041	767.437
120.279	19.673	977.225	767.502
121.293	19.725	976.356	766.983
122.308	19.703	975.671	766.280
123.322	19.687	974.256	765.029
124.337	19.374	973.371	762.882
125.352	18.981	971.523	759.633
126.366	19.042	970.790	759.260
127.381	19.796	970.265	762.108
128.395	20.060	970.156	763.118
129.410	20.176	969.089	762.721
130.424	20.289	967.702	762.057
131.439	20.150	967.009	760.836
132.454	20.075	966.212	759.811
133.468	20.017	965.112	758.625
134.483	20.060	964.598	758.342
135.497	20.315	963.720	758.702
136.512	20.439	962.431	758.161
137.527	20.448	961.560	757.447
138.541	20.386	960.862	756.559
139.556	20.205	960.629	755.522
140.570	20.210	959.728	754.766
141.585	20.244	958.637	753.989
142.600	20.238	957.261	752.812
143.614	20.576	956.424	753.555
144.629	20.457	955.998	752.637
145.643	20.272	954.722	750.766
146.658	20.382	953.224	749.995
147.673	20.224	952.237	748.472
148.687	20.048	951.817	747.317
149.702	20.127	950.220	746.337
150.716	20.184	949.164	745.684
151.731	20.381	948.711	746.109
152.746	20.356	948.481	745.756
153.760	20.559	947.355	745.674
154.775	20.554	946.961	745.279
155.789	20.435	945.918	743.880
156.804	20.369	945.082	742.874
157.819	20.424	944.270	742.405
158.833	20.691	943.183	742.625
159.848	20.567	942.038	741.130
160.862	20.459	941.065	739.839
161.877	20.563	940.002	739.382
162.892	20.548	939.511	738.867
163.906	20.372	938.332	737.127
164.921	20.482	937.472	736.852
165.935	20.490	936.908	736.378
166.950	20.538	935.770	735.619
167.964	20.510	934.538	734.470
168.979	20.302	933.819	732.962
169.994	20.282	933.024	732.186
171.008	20.537	932.442	732.738
172.023	20.513	931.541	731.868
173.037	20.264	930.154	729.664
174.052	20.140	929.352	728.449
175.067	20.120	929.087	728.093
176.081	20.439	928.298	728.748
177.096	20.258	927.515	727.314
178.110	19.930	926.514	725.089
179.125	19.811	925.674	723.869
180.140	19.799	925.612	723.709
181.154	20.108	924.821	724.316
182.169	20.377	924.941	725.470
183.183	20.507	924.484	725.590
184.198	20.467	923.529	724.611
185.213	20.421	922.737	723.735
186.227	20.446	922.038	723.224
187.242	20.276	921.601	722.108
188.256	20.544	920.791	722.527
189.271	20.577	919.855	721.865
190.286	20.316	918.899	719.969
191.300	19.744	917.162	716.172
192.315	19.124	916.145	712.750
193.329	19.008	916.102	712.174
194.344	19.907	916.044	715.788
195.359	20.388	915.710	717.451
196.373	20.307	915.720	717.060
197.388	20.408	914.255	716.265
198.402	20.286	914.089	715.570
199.417	20.361	913.023	714.979
200.432	20.042	911.820	712.662
201.446	19.865	911.490	711.614
202.461	20.020	910.878	711.707
203.475	19.075	909.060	706.350
204.490	18.432	907.957	702.792
205.504	19.305	908.338	706.607
206.519	19.919	907.956	708.762
207.534	20.114	907.658	709.264
208.548	20.519	907.167	710.473
209.563	20.170	906.505	708.465
210.577	20.251	905.573	708.005
211.592	20.547	905.392	709.010
212.607	20.421	904.800	707.969
213.621	20.620	903.661	707.824
214.636	20.532	903.482	707.265
215.650	20.437	902.505	706.050
216.665	20.557	901.904	706.004
217.680	20.517	901.169	705.206
218.694	20.093	899.568	702.174
219.709	19.998	898.832	701.151
220.723	20.276	898.693	702.107
221.738	20.374	897.876	701.800
222.753	20.379	897.343	701.343
223.767	20.337	897.246	701.038
224.782	20.592	896.388	701.334
225.796	20.628	895.869	701.010
226.811	19.990	894.376	697.213
227.826	19.425	893.344	694.073
228.840	19.598	892.889	694.352
229.855	19.578	892.233	693.701
230.869	19.230	891.109	691.371
231.884	19.786	891.144	693.567
232.899	20.385	891.666	696.313
233.913	20.404	890.468	695.394
234.928	20.194	890.260	694.327
235.942	20.404	889.062	694.172
236.957	19.963	888.243	691.711
237.972	20.057	887.870	691.736
238.986	20.070	887.155	691.168
240.001	20.069	886.863	690.876
241.015	20.328	885.997	691.170
242.030	20.483	885.255	691.148
243.045	20.427	885.204	690.824
244.059	20.427	884.925	690.545
245.074	20.296	883.484	688.839
246.088	20.115	882.426	687.236
247.103	20.315	882.052	687.676
248.117	20.819	882.206	689.733
249.132	20.905	881.717	689.628
250.147	20.957	881.241	689.402
251.161	21.101	880.713	689.494
252.176	21.116	879.724	688.719
253.190	21.288	879.334	689.034
254.205	21.337	878.880	688.809
255.220	21.127	878.458	687.588
256.234	21.190	877.593	687.098
257.249	21.092	876.682	685.938
258.263	21.157	875.825	685.465
259.278	21.225	875.340	685.291
260.293	21.247	874.667	684.790
261.307	21.024	874.451	683.686
262.322	21.067	872.728	682.448
263.336	20.115	871.026	677.337
264.351	19.091	869.051	671.745
265.366	19.410	868.982	672.877
266.380	20.509	869.570	677.560
267.395	20.730	869.202	678.077
268.409	20.685	868.580	677.354
269.424	20.992	867.740	677.832
270.439	20.917	867.352	677.180
271.453	21.060	866.657	677.133
272.468	21.392	866.083	677.912
273.482	21.377	865.828	677.591
274.497	20.922	864.591	674.806
275.512	20.467	864.037	672.550
276.526	20.990	863.673	674.232
277.541	21.196	863.233	674.625
278.555	20.882	862.345	672.658
279.570	20.663	861.733	671.276
280.585	20.830	861.340	671.553
281.599	20.797	860.253	670.521
282.614	20.362	858.913	667.743
283.628	20.420	858.390	667.504
284.643	20.690	858.409	668.494
285.657	20.423	856.706	666.087
286.672	20.000	856.190	664.004
287.687	20.624	856.474	666.559
288.701	20.666	855.297	665.744
289.716	20.317	854.776	663.944
290.730	20.228	854.335	663.203
291.745	20.011	853.115	661.368
292.760	20.354	853.339	662.793
293.774	21.319	853.633	666.646
294.789	21.555	852.892	666.906
295.803	21.596	852.267	666.515
296.818	21.735	851.777	666.603
297.833	21.202	850.972	663.887
298.847	21.091	850.156	662.771
299.862	21.469	849.671	663.769
300.876	21.642	849.390	664.149
301.891	21.496	848.919	663.165
302.906	21.071	847.714	660.558
303.920	21.210	847.027	660.489
304.935	21.587	846.798	661.676
305.949	21.411	846.344	660.599
306.964	21.344	845.439	659.582
307.979	21.435	845.120	659.619
308.993	21.674	845.360	660.647
310.008	21.751	844.304	660.054
311.022	21.485	843.379	658.273
312.037	21.265	843.584	657.546
313.052	21.018	842.292	655.553
314.066	20.295	840.664	651.514
315.081	20.050	839.932	649.971
316.095	20.888	840.386	653.409
317.110	21.264	840.011	654.467
318.125	20.505	838.208	650.168
319.139	19.454	837.287	645.464
320.154	19.592	836.241	645.116
321.168	20.369	837.074	648.607
322.183	21.026	837.403	651.258
323.197	21.111	837.188	651.351
324.212	21.391	836.399	651.724
325.227	21.315	835.642	650.794
326.241	21.248	835.113	650.075
327.256	21.302	834.055	649.395
328.270	21.098	833.756	648.344
329.285	20.872	832.815	646.716
330.300	20.758	832.311	645.846
331.314	21.159	831.990	647.026
332.329	21.351	831.852	647.572
333.343	21.597	831.334	648.023
334.358	21.553	830.983	647.529
335.373	21.637	830.677	647.545
336.387	21.879	830.612	648.330
337.402	21.929	830.304	648.219
338.416	21.800	829.907	647.373
339.431	21.983	829.518	647.687
340.446	22.079	828.951	647.545
341.460	22.017	828.374	646.805
342.475	21.685	827.945	645.190
343.489	21.792	827.824	645.434
344.504	22.000	827.029	645.522
345.519	22.180	827.025	646.121
346.533	22.166	826.712	645.769
347.548	22.284	826.065	645.642
348.562	22.205	825.626	644.950
349.577	22.181	825.108	644.400
350.592	22.176	824.216	643.628
351.606	22.233	823.316	643.080
352.621	22.111	822.529	641.961
353.635	21.857	822.220	640.733
354.650	21.419	820.211	637.517
355.665	20.398	819.009	632.806
356.679	20.862	818.832	634.304
357.694	21.236	818.365	635.248
358.708	21.135	817.932	634.487
359.723	21.512	817.782	635.685
360.738	21.905	817.356	636.724
361.752	21.917	816.781	636.264
362.767	22.276	816.602	637.370
363.781	22.273	816.385	637.133
364.796	22.466	815.868	637.372
365.810	22.536	815.609	637.367
366.825	22.531	814.807	636.663
367.840	22.325	813.918	635.171
368.854	21.779	813.443	632.773
369.869	21.991	812.753	632.944
370.883	21.949	812.520	632.555
371.898	21.953	811.743	631.909
372.913	21.928	811.505	631.577
373.927	21.904	811.407	631.360
374.942	22.078	811.275	631.825
375.956	22.267	810.452	631.810
376.971	22.333	810.380	631.935
377.986	22.611	809.650	632.306
379.000	22.381	809.238	631.103
380.015	22.297	808.744	630.362
381.029	22.444	807.973	630.231
382.044	22.347	807.951	629.810
383.059	22.350	807.352	629.299
384.073	22.496	806.734	629.283
385.088	22.534	805.631	628.502
386.102	22.310	805.266	627.365
387.117	22.301	804.278	626.506
388.132	21.969	803.522	624.681
389.146	21.580	802.435	622.397
390.161	21.959	802.609	623.823
391.175	22.252	802.575	624.783
392.190	21.841	801.232	622.223
393.205	20.588	799.134	616.105
394.219	19.304	797.279	610.077
395.234	19.228	797.581	609.987
396.248	20.920	798.843	616.893
397.263	22.301	799.444	622.191
398.278	22.283	798.887	621.636
399.292	21.933	798.595	620.117
400.307	22.029	797.827	619.805
401.321	22.074	797.563	619.706
402.336	22.566	797.496	621.334
403.350	22.856	797.391	622.218
404.365	23.136	797.518	623.249
405.380	23.166	796.619	622.597
406.394	23.175	796.234	622.272
407.409	23.129	795.826	621.736
408.423	23.113	795.231	621.162
409.438	23.350	794.776	621.582
410.453	23.150	794.622	620.706
411.467	23.099	794.059	620.032
412.482	23.288	793.517	620.214
413.496	23.246	793.243	619.797
414.511	23.255	793.041	619.620
415.526	23.144	792.689	618.900
416.540	22.971	792.118	617.795
417.555	22.851	790.917	616.385
418.569	22.820	790.835	616.159
419.584	22.811	790.400	615.731
420.599	22.592	789.633	614.318
421.613	158.227	1364.488	1798.944
422.628	137.051	1448.210	1799.081
