DTS Sentinel unit serial number:	SN413079Multiplexer serial number:	ORYXHardware model number:	OX4-SRSoftware version number:	ORYX F/W v4.00 Oryx Data Collector v3.7.2.0data status	okinstallation	princeton_trtdifferential loss correction	single-endedforward channel	channel 1reverse channel	N/Adate	2019/09/11time	22:04:11forward acquisition time	60.00reverse acquisition time	0.00gamma	496.2192k internal	0.2312k external	0.2312temperature offset calibration	1.0059default loss term (dB/km)	0.3790temperature slope calibration	1.0000multiplexer offset coefficient	1.0000multiplexer slope coefficient	1.0000fibre end	0.00T internal ref (°C)	35.45T ext. ref 1 (°C)	1.80T ext. ref 2 (°C)	29.56length (m)	temperature (°C)	Stokes	anti-Stokes-747.200	800.000	0.053	0.233
-746.185	-46.209	-0.107	-0.053
-745.171	-72.219	-0.257	-0.097
-744.156	-200.000	-0.020	0.496
-743.142	-115.219	0.443	0.085
-742.127	-45.614	-0.173	-0.087
-741.112	-200.000	0.020	-0.162
-740.098	-68.309	0.285	-0.112
-739.083	-6.997	0.159	0.110
-738.069	357.404	-0.208	0.422
-737.054	38.600	0.109	0.098
-736.039	64.733	-0.168	0.172
-735.025	-200.000	0.021	0.125
-734.010	429.194	0.045	-0.099
-732.996	-14.266	0.065	-0.043
-731.981	-158.747	-0.513	0.030
-730.966	-83.214	-0.209	0.068
-729.952	22.351	-0.280	0.232
-728.937	-86.803	-0.328	0.102
-727.923	109.639	0.199	-0.242
-726.908	-200.000	-0.036	0.189
-725.894	61.420	-0.089	-0.090
-724.879	498.843	-0.150	-0.350
-723.864	-84.712	-0.205	0.066
-722.850	800.000	0.091	-0.286
-721.835	-198.751	0.241	-0.001
-720.821	-54.563	-0.052	-0.024
-719.806	-134.912	-0.252	-0.031
-718.791	168.155	0.191	-0.276
-717.777	-45.293	0.169	-0.085
-716.762	-83.829	-0.058	0.019
-715.748	132.164	-0.034	0.045
-714.733	10.957	0.383	-0.296
-713.718	-80.186	-0.035	0.012
-712.704	41.930	0.195	0.179
-711.689	-170.487	-0.490	0.017
-710.675	5.552	-0.040	-0.030
-709.660	-12.176	-0.187	0.124
-708.645	-177.708	-0.179	-0.004
-707.631	-92.610	-0.112	0.032
-706.616	99.916	0.147	-0.173
-705.602	-89.775	0.045	0.013
-704.587	800.000	-0.097	0.280
-703.572	-80.148	0.183	0.062
-702.558	442.739	-0.150	-0.332
-701.543	482.566	0.084	-0.193
-700.529	16.150	0.155	-0.124
-699.514	800.000	-0.021	0.065
-698.499	800.000	0.103	-0.443
-697.485	-194.467	0.290	0.002
-696.470	800.000	0.048	0.173
-695.456	-25.823	0.290	0.173
-694.441	662.471	0.129	-0.336
-693.426	213.110	-0.072	0.115
-692.412	-103.801	0.160	-0.038
-691.397	-100.927	-0.272	0.068
-690.383	86.545	-0.040	0.044
-689.368	-200.000	0.016	0.241
-688.354	-200.000	0.007	-0.098
-687.339	187.742	0.113	0.171
-686.324	-121.612	0.122	-0.020
-685.310	34.835	-0.084	0.074
-684.295	-80.061	0.174	-0.059
-683.281	-200.000	0.004	-0.065
-682.266	159.184	0.202	0.284
-681.251	-79.636	-0.166	0.057
-680.237	211.164	0.030	0.048
-679.222	-1.428	-0.237	-0.169
-678.208	49.950	0.157	0.149
-677.193	522.728	0.115	-0.272
-676.178	294.985	-0.106	-0.195
-675.164	800.000	0.122	-0.471
-674.149	-63.416	0.269	-0.112
-673.135	800.000	-0.016	0.056
-672.120	9.162	-0.067	0.051
-671.105	47.497	-0.037	-0.035
-670.091	-73.130	-0.218	-0.081
-669.076	-42.666	-0.135	-0.069
-668.062	-98.788	-0.279	-0.072
-667.047	-99.546	-0.116	-0.030
-666.032	49.939	0.121	-0.116
-665.018	-86.539	0.285	-0.088
-664.003	58.595	0.102	0.102
-662.989	16.331	-0.051	-0.041
-661.974	-200.000	-0.004	0.210
-660.959	227.832	0.069	-0.114
-659.945	-65.047	-0.057	-0.023
-658.930	-200.000	-0.007	0.141
-657.916	-94.677	0.305	0.084
-656.901	-200.000	0.041	0.244
-655.886	210.506	-0.194	0.309
-654.872	800.000	-0.088	0.305
-653.857	78.596	0.201	-0.217
-652.843	-141.451	-0.177	0.018
-651.828	800.000	-0.043	-0.147
-650.814	-200.000	0.022	0.160
-649.799	-23.168	0.121	-0.074
-648.784	-27.149	-0.043	0.025
-647.770	-98.491	-0.210	-0.054
-646.755	-200.000	0.018	-0.160
-645.741	-200.000	-0.003	-0.413
-644.726	536.494	0.029	0.070
-643.711	131.636	-0.077	0.101
-642.697	800.000	-0.036	-0.121
-641.682	-108.312	0.231	0.050
-640.668	-28.002	0.057	-0.033
-639.653	-139.722	0.185	-0.020
-638.638	-143.783	0.078	-0.007
-637.624	14.416	0.105	-0.083
-636.609	800.000	0.071	0.211
-635.595	-48.906	-0.035	0.017
-634.580	-6.652	-0.268	-0.184
-633.565	-200.000	-0.007	-0.034
-632.551	-200.000	-0.018	-0.226
-631.536	-200.000	-0.010	0.123
-630.522	15.816	0.125	0.100
-629.507	136.741	0.052	0.069
-628.492	761.987	-0.102	-0.280
-627.478	141.720	0.136	0.182
-626.463	165.304	0.067	0.096
-625.449	-86.698	0.080	-0.025
-624.434	267.474	0.108	0.191
-623.419	-103.783	0.042	0.010
-622.405	6.489	0.060	0.045
-621.390	-165.999	-0.353	-0.015
-620.376	207.890	0.072	0.113
-619.361	-95.453	-0.220	0.060
-618.346	126.629	-0.074	0.094
-617.332	-14.940	-0.098	0.064
-616.317	-22.199	0.252	0.155
-615.303	-200.000	0.028	0.273
-614.288	-42.316	0.284	-0.146
-613.273	-30.004	0.193	-0.111
-612.259	315.986	0.152	-0.289
-611.244	800.000	0.025	-0.092
-610.230	-179.443	-0.122	-0.003
-609.215	114.619	0.123	-0.151
-608.201	-145.151	-0.253	-0.023
-607.186	-62.977	-0.104	-0.043
-606.171	-77.343	0.129	0.045
-605.157	67.302	-0.072	0.074
-604.142	44.689	0.130	0.121
-603.128	-33.233	0.340	-0.190
-602.113	-42.609	-0.204	-0.105
-601.098	-175.123	-0.093	-0.003
-600.084	-116.573	0.157	0.029
-599.069	361.018	-0.200	-0.405
-598.055	-11.417	0.080	0.053
-597.040	498.943	-0.050	-0.115
-596.025	658.289	0.076	-0.196
-595.011	141.025	0.127	-0.170
-593.996	-34.605	0.180	0.100
-592.982	27.769	0.183	0.156
-591.967	-83.199	-0.009	0.003
-590.952	-38.707	0.130	0.069
-589.938	-81.640	-0.463	-0.153
-588.923	-75.146	-0.134	0.048
-587.909	457.903	0.096	-0.215
-586.894	-33.756	0.143	-0.080
-585.879	178.423	-0.198	0.292
-584.865	92.585	-0.093	-0.106
-583.850	-80.466	0.442	-0.149
-582.836	-64.393	-0.261	0.107
-581.821	478.630	0.040	0.092
-580.806	257.722	-0.014	0.025
-579.792	54.958	0.266	0.259
-578.777	482.000	-0.229	-0.525
-577.763	-200.000	-0.026	0.370
-576.748	27.087	0.085	-0.072
-575.733	-163.643	0.032	-0.002
-574.719	470.005	0.006	0.014
-573.704	32.522	0.135	0.117
-572.690	-143.403	-0.289	-0.028
-571.675	107.198	-0.279	-0.334
-570.661	-72.272	-0.275	0.103
-569.646	52.532	-0.091	-0.087
-568.631	-200.000	-0.044	-0.362
-567.617	17.596	-0.333	0.267
-566.602	262.617	-0.024	-0.043
-565.588	235.035	-0.089	-0.149
-564.573	372.995	0.154	-0.316
-563.558	154.115	-0.152	0.211
-562.544	3.239	-0.232	0.170
-561.529	-78.328	0.241	-0.083
-560.515	-200.000	0.081	-0.439
-559.500	-195.856	0.045	-0.000
-558.485	-8.270	0.169	0.115
-557.471	74.801	-0.053	0.056
-556.456	-127.130	-0.119	0.018
-555.442	479.098	0.064	-0.147
-554.427	-132.606	-0.414	-0.054
-553.412	201.702	0.119	-0.184
-552.398	530.071	0.091	0.217
-551.383	-39.920	-0.160	0.084
-550.369	794.637	-0.073	0.202
-549.354	526.255	-0.076	0.179
-548.339	-200.000	-0.089	-0.476
-547.325	-41.481	-0.141	0.073
-546.310	-76.769	0.346	0.122
-545.296	83.931	-0.132	0.146
-544.281	354.879	-0.020	0.040
-543.266	211.084	0.234	0.370
-542.252	-137.516	-0.141	0.016
-541.237	-86.002	0.157	-0.049
-540.223	192.586	-0.126	-0.192
-539.208	346.076	-0.218	-0.431
-538.193	338.340	-0.098	0.191
-537.179	-45.024	0.035	-0.018
-536.164	800.000	0.042	0.138
-535.150	-27.832	-0.328	-0.191
-534.135	-71.396	-0.240	0.091
-533.121	-29.403	-0.174	-0.100
-532.106	800.000	-0.032	0.122
-531.091	800.000	0.076	0.217
-530.077	118.148	-0.026	-0.033
-529.062	-140.561	-0.280	-0.029
-528.048	-155.449	-0.197	0.013
-527.033	-174.310	-0.149	-0.004
-526.018	800.000	0.117	-0.412
-525.004	159.146	-0.213	-0.298
-523.989	-55.877	0.081	0.036
-522.975	350.416	-0.154	-0.306
-521.960	-69.482	0.346	-0.133
-520.945	69.061	0.153	0.158
-519.931	800.000	0.055	-0.215
-518.916	-150.238	-0.313	0.024
-517.902	54.826	-0.154	-0.150
-516.887	-52.686	-0.105	-0.049
-515.872	268.109	-0.112	-0.197
-514.858	-111.122	0.268	0.055
-513.843	-151.560	-0.237	-0.018
-512.829	-0.976	0.294	-0.209
-511.814	492.689	0.021	0.048
-510.799	-74.543	0.170	-0.062
-509.785	-200.000	0.054	-0.312
-508.770	-96.266	-0.196	0.052
-507.756	800.000	-0.066	0.291
-506.741	201.397	-0.029	-0.045
-505.726	-200.000	0.007	0.042
-504.712	-200.000	-0.003	-0.021
-503.697	-56.797	-0.152	-0.068
-502.683	-80.804	-0.132	-0.044
-501.668	37.374	-0.223	0.199
-500.653	-200.000	-0.029	-0.218
-499.639	-17.211	-0.179	0.113
-498.624	-17.613	0.262	0.166
-497.610	36.035	0.055	0.049
-496.595	295.007	0.079	0.145
-495.581	-72.776	-0.175	0.065
-494.566	95.907	0.155	-0.178
-493.551	-111.461	0.467	0.096
-492.537	-90.513	0.336	0.098
-491.522	-200.000	-0.011	0.293
-490.508	339.770	0.097	-0.190
-489.493	132.254	-0.022	-0.028
-488.478	-136.823	-0.167	-0.019
-487.464	-70.924	-0.084	0.032
-486.449	-200.000	0.031	0.366
-485.435	656.254	-0.055	0.143
-484.420	115.657	-0.060	-0.074
-483.405	-200.000	0.008	-0.051
-482.391	330.095	-0.170	-0.329
-481.376	165.901	0.088	-0.124
-480.362	317.612	0.136	0.259
-479.347	-200.000	0.046	0.485
-478.332	203.534	0.224	-0.348
-477.318	800.000	0.097	-0.289
-476.303	-21.663	0.186	0.114
-475.289	-200.000	0.013	-0.553
-474.274	57.504	-0.055	-0.054
-473.259	-51.544	0.207	0.097
-472.245	88.658	0.182	0.204
-471.230	-200.000	0.024	-0.187
-470.216	-12.110	-0.138	0.091
-469.201	531.639	0.034	0.080
-468.186	536.720	-0.093	0.221
-467.172	-175.672	-0.064	-0.002
-466.157	-50.909	-0.169	0.080
-465.143	65.835	-0.140	-0.143
-464.128	800.000	-0.015	0.047
-463.113	-25.182	0.219	0.130
-462.099	1.520	0.132	0.096
-461.084	-200.000	0.039	0.240
-460.070	800.000	-0.024	-0.092
-459.055	-175.663	-0.058	-0.002
-458.040	50.096	0.132	0.126
-457.026	-200.000	0.009	-0.332
-456.011	-200.000	0.072	0.365
-454.997	695.762	-0.085	0.224
-453.982	-200.000	0.017	0.682
-452.968	29.307	-0.025	0.021
-451.953	-95.807	0.243	-0.065
-450.938	-151.961	-0.325	-0.024
-449.924	-128.006	-0.088	0.013
-448.909	-69.857	-0.147	0.056
-447.895	-50.893	-0.180	0.085
-446.880	43.040	0.173	-0.159
-445.865	183.522	-0.087	-0.129
-444.851	800.000	0.122	-0.407
-443.836	247.724	-0.062	0.105
-442.822	-41.697	0.051	-0.026
-441.807	-79.941	-0.475	-0.160
-440.792	-71.464	-0.065	-0.024
-439.778	-9.523	0.102	0.068
-438.763	37.556	0.335	0.298
-437.749	-33.209	0.232	-0.129
-436.734	-55.246	-0.087	-0.039
-435.719	-196.540	-0.114	-0.001
-434.705	-200.000	-0.032	0.326
-433.690	99.233	-0.109	0.126
-432.676	-146.755	-0.047	-0.004
-431.661	-18.300	0.248	-0.156
-430.646	55.067	0.338	0.328
-429.632	140.267	0.050	-0.066
-428.617	313.257	-0.046	0.086
-427.603	800.000	-0.104	-0.317
-426.588	-69.030	-0.203	-0.078
-425.573	144.718	0.090	0.121
-424.559	185.718	0.091	0.136
-423.544	800.000	0.165	-0.493
-422.530	102.860	0.227	-0.267
-421.515	-200.000	0.028	-0.141
-420.500	-200.000	0.008	-0.217
-419.486	20.872	-0.126	-0.103
-418.471	504.552	0.050	-0.116
-417.457	-200.000	0.021	0.395
-416.442	16.709	0.119	0.094
-415.428	-200.000	0.017	-0.219
-414.413	-200.000	-0.007	-0.067
-413.398	44.134	-0.194	0.178
-412.384	800.000	0.084	0.303
-411.369	198.108	0.158	-0.241
-410.355	-46.809	-0.144	0.071
-409.340	35.587	0.168	0.148
-408.325	-116.320	0.312	0.058
-407.311	-125.282	-0.135	-0.021
-406.296	800.000	0.128	0.373
-405.282	73.194	-0.185	-0.194
-404.267	-145.127	-0.394	-0.036
-403.252	197.248	0.108	-0.165
-402.238	-200.000	-0.011	-0.186
-401.223	-9.381	0.292	0.196
-400.209	-133.909	-0.238	-0.030
-399.194	800.000	-0.046	-0.197
-398.179	330.626	-0.053	-0.102
-397.165	138.379	0.148	-0.195
-396.150	-114.925	0.264	-0.050
-395.136	14.925	0.071	0.055
-394.121	78.500	0.077	0.083
-393.106	-91.168	-0.511	-0.147
-392.092	187.740	-0.145	-0.216
-391.077	59.971	0.089	-0.088
-390.063	-24.596	0.039	-0.023
-389.048	630.346	-0.122	0.309
-388.033	-40.284	-0.231	-0.120
-387.019	-91.712	0.388	-0.110
-386.004	537.680	-0.048	0.113
-384.990	-200.000	-0.008	-0.196
-383.975	-58.492	0.213	0.093
-382.960	800.000	-0.041	0.142
-381.946	-200.000	0.045	0.257
-380.931	472.193	-0.051	0.114
-379.917	715.808	-0.125	0.331
-378.902	72.840	0.229	0.239
-377.888	-160.895	0.424	-0.022
-376.873	-200.000	0.005	-0.178
-375.858	-29.092	-0.329	0.189
-374.844	-154.854	-0.112	0.007
-373.829	-9.206	0.050	0.033
-372.815	115.305	-0.131	-0.160
-371.800	0.566	0.114	0.082
-370.785	334.382	-0.108	0.210
-369.771	394.793	0.150	0.312
-368.756	-135.314	0.039	0.005
-367.742	53.072	0.352	-0.337
-366.727	-200.000	-0.006	-0.169
-365.712	800.000	0.090	-0.381
-364.698	-56.409	0.125	0.055
-363.683	13.316	0.249	-0.193
-362.669	163.659	-0.098	0.137
-361.654	121.935	-0.260	-0.325
-360.639	-83.838	0.051	-0.016
-359.625	-200.000	0.001	0.107
-358.610	800.000	0.123	0.354
-357.596	-200.000	0.001	-0.058
-356.581	-119.882	-0.042	-0.007
-355.566	102.824	-0.075	-0.087
-354.552	-91.388	0.115	-0.033
-353.537	212.372	0.111	-0.174
-352.523	-46.518	0.309	0.151
-351.508	133.889	0.022	0.029
-350.493	555.657	-0.034	-0.081
-349.479	182.082	0.032	0.048
-348.464	62.114	0.162	-0.162
-347.450	-115.298	0.079	-0.015
-346.435	-146.080	-0.115	-0.010
-345.420	270.840	0.122	-0.215
-344.406	-52.513	0.211	-0.098
-343.391	800.000	-0.051	0.148
-342.377	-200.000	-0.018	0.219
-341.362	-69.145	0.303	-0.116
-340.348	130.396	0.025	0.032
-339.333	-200.000	0.044	-0.442
-338.318	1.027	-0.202	0.145
-337.304	42.538	0.197	-0.179
-336.289	-147.310	-0.254	-0.022
-335.275	282.049	0.160	0.287
-334.260	-200.000	-0.004	0.218
-333.245	162.322	-0.083	0.116
-332.231	165.400	-0.062	-0.088
-331.216	-101.830	-0.095	-0.023
-330.202	-200.000	0.014	0.353
-329.187	-104.491	0.239	0.055
-328.172	-200.000	-0.051	0.295
-327.158	-6.431	0.165	-0.112
-326.143	102.496	0.120	-0.140
-325.129	220.536	-0.027	-0.044
-324.114	-64.682	-0.029	-0.012
-323.099	-48.466	0.109	-0.053
-322.085	3.955	-0.103	0.075
-321.070	-127.867	-0.085	-0.012
-320.056	-200.000	-0.013	-0.105
-319.041	379.829	-0.148	0.302
-318.026	-103.040	0.188	-0.045
-317.012	-200.000	0.016	0.082
-315.997	121.492	-0.301	0.374
-314.983	800.000	0.056	-0.167
-313.968	72.215	0.096	-0.099
-312.953	28.248	0.145	0.122
-311.939	800.000	0.040	-0.170
-310.924	-80.597	-0.423	-0.140
-309.910	-61.113	-0.400	-0.168
-308.895	-101.329	0.251	-0.061
-307.880	800.000	0.061	-0.212
-306.866	-171.241	-0.047	-0.002
-305.851	-69.109	-0.211	0.081
-304.837	323.671	-0.145	-0.276
-303.822	-200.000	-0.001	-0.102
-302.807	198.466	-0.110	0.167
-301.793	-54.500	0.297	0.134
-300.778	-76.468	0.287	0.101
-299.764	70.394	-0.101	-0.104
-298.749	290.609	0.188	-0.340
-297.735	-200.000	-0.229	0.001
-296.720	437.482	-0.056	0.121
-295.705	-11.359	-0.208	-0.137
-294.691	30.251	0.031	0.026
-293.676	800.000	0.046	0.199
-292.662	121.593	-0.187	0.233
-291.647	-200.000	0.015	-0.201
-290.632	-9.191	-0.136	0.091
-289.618	-65.787	-0.144	-0.057
-288.603	46.610	0.080	-0.074
-287.589	-200.000	0.029	-0.184
-286.574	-45.309	0.280	-0.139
-285.559	800.000	0.052	0.155
-284.545	800.000	-0.042	0.128
-283.530	-200.000	0.005	-0.209
-282.516	427.332	0.052	-0.112
-281.501	-74.512	0.164	-0.059
-280.486	128.734	0.188	0.239
-279.472	-77.546	-0.132	0.046
-278.457	-97.436	-0.348	-0.090
-277.443	-27.644	0.373	-0.216
-276.428	177.114	-0.076	-0.110
-275.413	-200.000	-0.079	0.387
-274.399	-121.591	0.124	-0.021
-273.384	526.179	0.028	-0.066
-272.370	-52.674	-0.076	0.035
-271.355	257.242	-0.071	0.121
-270.340	800.000	-0.118	0.359
-269.326	-141.845	0.261	-0.026
-268.311	167.502	0.030	-0.042
-267.297	503.429	-0.207	0.477
-266.282	64.061	-0.101	0.101
-265.267	-200.000	0.021	-0.257
-264.253	-200.000	-0.031	0.194
-263.238	800.000	-0.044	-0.161
-262.224	-200.000	0.011	0.090
-261.209	508.340	0.094	-0.217
-260.195	-74.863	0.262	-0.094
-259.180	12.345	-0.391	-0.300
-258.165	-30.920	0.122	0.069
-257.151	-200.000	0.070	-0.504
-256.136	-107.444	-0.418	-0.091
-255.122	114.087	0.024	0.029
-254.107	430.586	0.108	-0.232
-253.092	-190.568	0.081	0.001
-252.078	405.666	-0.143	0.300
-251.063	800.000	-0.043	0.132
-250.049	800.000	0.053	0.191
-249.034	-175.859	-0.196	-0.005
-248.019	27.774	0.369	0.309
-247.005	140.813	0.128	0.169
-245.990	-113.684	-0.225	0.044
-244.976	-92.064	0.331	-0.093
-243.961	-10.123	0.368	0.243
-242.946	-200.000	0.015	0.389
-241.932	-98.203	0.108	0.028
-240.917	507.824	0.026	-0.060
-239.903	231.057	-0.047	0.076
-238.888	-200.000	-0.004	0.165
-237.873	-92.102	-0.241	0.068
-236.859	-200.000	0.036	0.412
-235.844	-80.575	-0.203	0.067
-234.830	-86.032	-0.394	-0.121
-233.815	800.000	0.035	-0.131
-232.800	-193.700	0.091	-0.001
-231.786	87.297	-0.093	-0.102
-230.771	-4.364	0.267	0.184
-229.757	800.000	-0.092	-0.255
-228.742	626.639	-0.097	0.243
-227.727	-67.681	-0.186	0.072
-226.713	-200.000	0.026	0.252
-225.698	-200.000	-0.024	-0.315
-224.684	-33.543	0.374	-0.205
-223.669	-125.681	-0.168	-0.025
-222.655	-200.000	-0.013	-0.333
-221.640	-33.273	-0.268	0.148
-220.625	232.940	-0.097	-0.158
-219.611	649.550	0.101	-0.257
-218.596	-4.157	-0.305	-0.210
-217.582	530.053	-0.084	-0.197
-216.567	64.626	-0.301	-0.302
-215.552	351.599	0.086	-0.169
-214.538	-126.992	0.371	-0.054
-213.523	-200.000	0.003	0.156
-212.509	81.222	0.077	-0.083
-211.494	-120.468	0.115	0.019
-210.479	-119.143	-0.084	0.015
-209.465	800.000	0.071	0.299
-208.450	-108.037	-0.281	0.061
-207.436	195.523	0.041	0.062
-206.421	106.670	-0.068	-0.080
-205.406	338.964	-0.218	0.423
-204.392	-12.543	0.285	0.185
-203.377	-77.938	-0.359	-0.123
-202.363	145.993	0.124	0.166
-201.348	159.231	0.117	0.161
-200.333	347.171	-0.099	-0.193
-199.319	13.792	0.064	0.050
-198.304	658.861	-0.050	-0.127
-197.290	383.486	-0.155	0.316
-196.275	-92.464	-0.392	-0.110
-195.260	363.067	-0.169	-0.337
-194.246	26.151	0.128	-0.106
-193.231	6.467	-0.136	-0.100
-192.217	-128.013	-0.178	-0.025
-191.202	-128.660	0.071	0.010
-190.187	-34.289	0.158	0.086
-189.173	133.976	-0.161	0.208
-188.158	275.967	0.104	0.184
-187.144	324.961	0.063	0.120
-186.129	604.008	0.092	-0.228
-185.114	800.000	0.081	-0.300
-184.100	168.069	0.123	0.173
-183.085	-29.853	0.351	0.199
-182.071	5.581	-0.167	-0.122
-181.056	-20.962	0.078	-0.048
-180.042	-65.687	0.158	0.063
-179.027	125.804	0.260	0.326
-178.012	-144.399	-0.082	-0.008
-176.998	800.000	-0.053	0.167
-175.983	-200.000	-0.002	-0.196
-174.969	-200.000	0.003	-0.262
-173.954	649.433	-0.052	-0.131
-172.939	-200.000	0.040	0.494
-171.925	65.451	-0.023	0.024
-170.910	-54.932	-0.352	0.157
-169.896	-200.000	-0.004	0.154
-168.881	16.971	0.213	0.168
-167.866	800.000	-0.137	0.470
-166.852	-200.000	0.002	0.340
-165.837	6.492	0.154	0.114
-164.823	-200.000	0.005	-0.088
-163.808	3.434	-0.197	0.142
-162.793	-200.000	0.008	-0.304
-161.779	50.787	-0.059	-0.055
-160.764	7.261	-0.205	0.152
-159.750	-200.000	-0.005	0.085
-158.735	800.000	0.020	0.067
-157.720	-200.000	0.003	-0.034
-156.706	111.741	0.053	0.063
-155.691	-44.517	0.139	-0.069
-154.677	88.826	0.012	-0.014
-153.662	53.286	0.125	0.119
-152.647	-200.000	0.021	-0.122
-151.633	-85.540	-0.063	-0.019
-150.618	24.962	-0.092	0.076
-149.604	800.000	0.075	-0.245
-148.589	112.194	-0.191	-0.229
-147.574	-200.000	-0.021	0.396
-146.560	-120.242	-0.155	0.026
-145.545	-41.821	-0.205	0.104
-144.531	52.311	0.214	-0.202
-143.516	255.772	0.067	-0.115
-142.502	-66.109	0.356	0.141
-141.487	9.941	-0.248	-0.186
-140.472	-109.847	-0.276	0.057
-139.458	-44.608	0.148	-0.073
-138.443	-200.000	0.026	-0.162
-137.429	160.091	-0.086	-0.119
-136.414	800.000	0.040	0.150
-135.399	93.502	0.144	-0.162
-134.385	-200.000	-0.002	-0.144
-133.370	436.685	0.116	-0.250
-132.356	798.236	0.090	0.246
-131.341	468.003	-0.061	0.136
-130.326	-89.305	-0.200	0.058
-129.312	-49.781	-0.093	0.044
-128.297	87.811	-0.160	-0.176
-127.283	800.000	-0.042	0.121
-126.268	45.258	-0.123	0.112
-125.253	-200.000	-0.010	-0.127
-124.239	-200.000	0.059	-0.306
-123.224	-161.309	0.298	-0.015
-122.210	134.579	-0.026	-0.033
-121.195	4.986	0.113	0.082
-120.180	53.452	0.222	-0.211
-119.166	800.000	-0.068	-0.228
-118.151	-155.036	-0.081	0.005
-117.137	-200.000	0.031	0.172
-116.122	-90.918	0.154	0.044
-115.107	800.000	-0.040	-0.149
-114.093	333.019	-0.008	-0.014
-113.078	800.000	-0.094	-0.349
-112.064	532.630	-0.062	-0.145
-111.049	-27.183	0.314	-0.181
-110.034	-6.235	-0.027	0.018
-109.020	-135.966	-0.163	-0.019
-108.005	-200.000	0.044	0.272
-106.991	-83.699	-0.156	-0.049
-105.976	-200.000	0.000	0.033
-104.962	8.705	0.124	0.093
-103.947	229.023	0.183	0.295
-102.932	-4.055	0.194	0.133
-101.918	-133.004	0.279	0.035
-100.903	-200.000	-0.003	0.045
-99.889	-26.354	0.101	-0.058
-98.874	-200.000	-0.061	-0.267
-97.859	-200.000	-0.007	-0.054
-96.845	-127.482	0.220	-0.032
-95.830	237.093	-0.096	0.158
-94.816	-200.000	-0.049	0.288
-93.801	800.000	0.152	0.492
-92.786	117.457	0.165	0.201
-91.772	-114.796	-0.208	0.039
-90.757	174.590	0.188	0.269
-89.743	-69.875	0.125	0.047
-88.728	-20.325	-0.326	-0.198
-87.713	100.019	-0.099	-0.113
-86.699	352.082	0.025	0.050
-85.684	207.362	-0.130	0.201
-84.670	-97.546	-0.262	0.067
-83.655	-12.326	0.093	-0.060
-82.640	479.228	-0.062	-0.139
-81.626	800.000	0.070	-0.283
-80.611	-81.496	0.299	-0.097
-79.597	-181.612	0.359	0.007
-78.582	-200.000	0.053	-0.368
-77.567	-156.761	0.281	0.017
-76.553	162.360	-0.122	-0.169
-75.538	-200.000	-0.012	-0.351
-74.524	221.061	0.065	-0.102
-73.509	28.390	-0.212	0.177
-72.494	800.000	0.053	0.184
-71.480	-10.705	0.309	-0.202
-70.465	-200.000	-0.031	0.316
-69.451	-59.616	-0.169	0.072
-68.436	28.886	0.337	-0.282
-67.422	-157.508	-0.147	-0.009
-66.407	-76.804	0.117	0.040
-65.392	9.031	-0.064	0.047
-64.378	-23.980	-0.048	-0.029
-63.363	-142.668	-0.198	-0.019
-62.349	-200.000	0.028	0.215
-61.334	134.191	-0.688	-0.881
-60.319	9.235	0.484	0.361
-59.305	800.000	-0.329	-1.061
-58.290	181.567	0.437	0.635
-57.276	341.538	0.696	1.344
-56.261	-200.000	95.091	579.264
-55.246	565.116	1371.087	3283.414
-54.232	153.298	2579.474	3487.460
-53.217	117.032	2162.194	2623.526
-52.203	47.246	1621.935	1491.782
-51.188	39.008	1358.471	1199.373
-50.173	35.713	1315.706	1142.036
-49.159	57.622	1365.028	1317.835
-48.144	62.343	1383.435	1364.047
-47.130	39.308	1336.589	1181.666
-46.115	35.512	1319.594	1144.036
-45.100	35.374	1314.284	1138.563
-44.086	35.278	1312.248	1136.185
-43.071	35.233	1310.197	1134.103
-42.057	35.146	1307.707	1131.386
-41.042	35.307	1306.252	1131.035
-40.027	35.292	1304.885	1129.714
-39.013	35.379	1302.773	1128.356
-37.998	35.420	1300.892	1126.922
-36.984	35.496	1299.245	1125.893
-35.969	35.422	1297.391	1123.809
-34.954	35.488	1295.272	1122.317
-33.940	35.558	1294.286	1121.825
-32.925	35.532	1293.268	1120.746
-31.911	35.428	1291.629	1118.677
-30.896	35.524	1289.867	1117.667
-29.881	35.476	1288.740	1116.367
-28.867	35.561	1287.450	1115.697
-27.852	35.662	1285.684	1114.706
-26.838	35.626	1284.320	1113.272
-25.823	35.636	1282.770	1111.943
-24.809	35.535	1281.629	1110.323
-23.794	35.582	1280.574	1109.641
-22.779	35.534	1278.763	1107.746
-21.765	35.521	1277.693	1106.705
-20.750	35.519	1276.308	1105.450
-19.736	35.541	1274.621	1104.070
-18.721	35.465	1273.915	1102.978
-17.706	35.424	1272.560	1101.523
-16.692	35.348	1271.745	1100.341
-15.677	35.343	1270.726	1099.383
-14.663	35.408	1269.431	1098.595
-13.648	35.394	1268.286	1097.480
-12.633	35.345	1267.654	1096.609
-11.619	35.326	1266.735	1095.660
-10.604	35.282	1265.891	1094.639
-9.590	35.434	1264.250	1094.041
-8.575	35.352	1263.829	1093.168
-7.560	35.347	1262.496	1091.940
-6.546	35.369	1262.130	1091.709
-5.531	35.357	1260.865	1090.503
-4.517	35.398	1260.104	1090.031
-3.502	35.193	1259.832	1088.591
-2.487	35.338	1258.348	1088.088
-1.473	35.287	1253.765	1083.792
-0.458	33.940	1239.368	1063.769
0.556	30.618	1221.908	1025.918
1.571	27.001	1227.353	1010.313
2.586	26.234	1242.526	1018.393
3.600	25.555	1231.868	1005.770
4.615	18.656	1158.245	909.159
5.629	7.367	1077.619	789.848
6.644	2.110	1055.278	747.713
7.659	1.895	1051.722	744.078
8.673	1.616	1051.348	742.385
9.688	1.591	1049.640	740.995
10.702	2.229	1048.284	743.073
11.717	9.024	1058.356	783.413
12.731	19.310	1073.480	845.235
13.746	23.956	1078.721	872.119
14.761	24.646	1079.214	875.824
15.775	24.674	1078.904	875.630
16.790	24.430	1078.394	873.944
17.804	24.443	1077.290	873.036
18.819	24.549	1077.135	873.354
19.834	24.602	1076.680	873.167
20.848	24.746	1076.117	873.335
21.863	24.614	1075.673	872.255
22.877	24.521	1075.224	871.359
23.892	24.486	1074.524	870.540
24.907	24.665	1073.502	870.510
25.921	24.602	1072.327	869.174
26.936	24.607	1071.030	868.070
27.950	24.463	1069.372	865.952
28.965	24.357	1067.919	864.181
29.980	24.499	1066.093	863.318
30.994	24.690	1065.412	863.611
32.009	24.570	1064.816	862.471
33.023	24.530	1063.325	860.994
34.038	24.488	1062.733	860.235
35.053	24.548	1062.078	859.922
36.067	24.608	1060.896	859.174
37.082	24.641	1060.222	858.714
38.096	24.830	1059.972	859.342
39.111	24.911	1059.327	859.130
40.126	24.812	1057.645	857.215
41.140	24.357	1056.049	853.670
42.155	24.179	1054.372	851.388
43.169	24.261	1053.767	851.216
44.184	24.315	1052.535	850.401
45.199	24.036	1051.971	848.542
46.213	24.219	1050.840	848.428
47.228	24.428	1050.130	848.770
48.242	24.441	1049.147	847.966
49.257	24.668	1048.248	848.239
50.271	24.661	1047.652	847.649
51.286	24.699	1046.833	847.091
52.301	24.674	1046.252	846.431
53.315	24.640	1044.972	845.158
54.330	24.666	1044.134	844.530
55.344	24.723	1043.272	844.026
56.359	24.536	1042.631	842.549
57.374	24.400	1041.407	840.844
58.388	24.367	1040.988	840.278
59.403	24.254	1039.840	838.746
60.417	24.186	1038.836	837.541
61.432	24.349	1038.159	837.688
62.447	24.445	1037.791	837.765
63.461	24.506	1037.178	837.481
64.476	24.372	1036.145	835.948
65.490	24.224	1035.293	834.495
66.505	24.342	1034.497	834.327
67.520	24.328	1033.988	833.781
68.534	24.294	1032.429	832.291
69.549	23.867	1031.726	829.660
70.563	23.784	1031.005	828.615
71.578	23.889	1029.552	827.863
72.593	23.841	1029.120	827.222
73.607	24.024	1028.458	827.467
74.622	24.233	1028.272	828.217
75.636	24.250	1027.424	827.539
76.651	23.979	1026.320	825.319
77.666	23.962	1025.847	824.786
78.680	24.041	1025.258	824.607
79.695	24.244	1024.809	825.113
80.709	24.243	1023.862	824.269
81.724	24.257	1023.116	823.661
82.739	24.313	1022.300	823.193
83.753	24.622	1021.961	824.273
84.768	24.894	1021.425	825.020
85.782	24.933	1020.471	824.356
86.797	24.840	1019.204	822.832
87.812	24.529	1019.075	821.224
88.826	24.745	1017.754	821.081
89.841	24.960	1016.620	821.078
90.855	24.962	1015.749	820.312
91.870	25.026	1014.820	819.780
92.884	24.715	1013.826	817.484
93.899	24.704	1013.226	816.876
94.914	24.917	1012.099	816.866
95.928	24.819	1010.639	815.172
96.943	24.445	1009.603	812.561
97.957	24.225	1008.396	810.516
98.972	24.085	1007.673	809.226
99.987	24.372	1006.892	809.832
101.001	24.582	1006.468	810.371
102.016	24.621	1005.079	809.358
103.030	24.459	1004.582	808.152
104.045	24.385	1003.342	806.750
105.060	24.200	1002.165	804.899
106.074	24.416	1001.887	805.576
107.089	24.614	1001.347	805.968
108.103	24.576	999.918	804.573
109.118	24.370	998.529	802.460
110.133	24.275	997.996	801.532
111.147	24.109	996.563	799.566
112.162	23.920	995.684	797.942
113.176	24.242	995.243	798.958
114.191	24.218	994.237	797.973
115.206	23.783	993.225	795.144
116.220	23.985	992.316	795.249
117.235	24.115	991.404	795.030
118.249	24.094	990.503	794.140
119.264	23.930	989.978	792.922
120.279	24.054	989.092	792.692
121.293	24.091	988.306	792.159
122.308	24.149	987.186	791.448
123.322	24.015	986.199	789.992
124.337	23.871	984.696	788.081
125.352	23.559	983.103	785.354
126.366	23.305	982.610	783.767
127.381	24.047	982.532	786.917
128.395	24.434	981.980	788.113
129.410	24.665	981.302	788.519
130.424	24.653	980.165	787.485
131.439	24.363	979.146	785.317
132.454	24.595	978.199	785.512
133.468	24.491	977.233	784.208
134.483	24.569	976.738	784.082
135.497	24.872	975.933	784.696
136.512	24.826	975.188	783.827
137.527	24.763	974.203	782.691
138.541	24.938	973.484	782.808
139.556	24.904	972.634	781.909
140.570	24.884	971.876	781.142
141.585	25.017	970.901	780.867
142.600	25.048	969.473	779.785
143.614	25.082	969.318	779.741
144.629	25.240	968.019	779.310
145.643	24.948	966.673	776.892
146.658	24.760	965.868	775.361
147.673	24.732	965.165	774.607
148.687	24.574	963.949	772.878
149.702	24.609	962.682	771.947
150.716	24.553	961.815	770.942
151.731	24.682	961.340	771.050
152.746	24.972	960.762	771.766
153.760	25.004	960.119	771.319
154.775	24.945	959.513	770.512
155.789	25.026	958.807	770.226
156.804	24.973	957.318	768.734
157.819	24.975	956.910	768.345
158.833	25.092	956.386	768.359
159.848	25.156	954.976	767.433
160.862	24.877	954.383	765.693
161.877	24.917	952.828	764.549
162.892	24.982	952.100	764.175
163.906	24.797	951.154	762.561
164.921	24.974	950.441	762.673
165.935	24.973	948.985	761.434
166.950	24.976	948.568	761.043
167.964	24.917	947.565	759.922
168.979	24.833	946.597	758.723
169.994	24.722	945.690	757.460
171.008	24.998	945.897	758.727
172.023	25.050	944.607	757.842
173.037	24.881	942.837	755.646
174.052	24.726	942.394	754.567
175.067	24.782	941.647	754.140
176.081	24.807	941.353	753.944
177.096	24.748	940.477	752.928
178.110	24.484	939.588	751.037
179.125	24.175	939.060	749.250
180.140	24.342	938.615	749.530
181.154	24.578	938.052	750.004
182.169	24.725	938.655	751.039
183.183	24.972	937.909	751.410
184.198	24.899	936.707	750.077
185.213	24.871	936.109	749.414
186.227	24.938	935.256	748.946
187.242	24.892	934.643	748.196
188.256	24.972	933.855	747.831
189.271	25.037	933.491	747.746
190.286	24.652	932.176	745.020
191.300	24.116	930.677	741.525
192.315	23.367	928.966	736.985
193.329	23.263	929.214	736.684
194.344	24.331	929.066	740.940
195.359	24.705	929.316	742.629
196.373	24.798	928.909	742.622
197.388	24.866	927.706	741.876
198.402	24.796	927.432	741.301
199.417	24.847	926.749	740.900
200.432	24.669	925.704	739.265
201.446	24.525	924.409	737.571
202.461	24.471	924.089	737.025
203.475	23.644	922.356	732.172
204.490	22.884	921.084	727.962
205.504	23.784	921.688	732.087
206.519	24.342	921.783	734.398
207.534	24.594	920.889	734.655
208.548	24.863	920.967	735.760
209.563	24.701	919.707	734.021
210.577	24.633	919.132	733.218
211.592	25.071	919.024	734.862
212.607	25.026	918.083	733.864
213.621	25.057	917.756	733.664
214.636	25.008	916.927	732.736
215.650	24.995	915.949	731.835
216.665	25.126	915.701	732.109
217.680	25.153	914.641	731.304
218.694	24.548	913.833	728.128
219.709	24.466	912.886	726.978
220.723	24.826	912.478	728.051
221.738	24.927	911.711	727.787
222.753	24.919	911.059	727.170
223.767	24.969	910.837	727.130
224.782	25.148	910.673	727.660
225.796	25.112	910.366	727.204
226.811	24.508	908.635	723.314
227.826	23.905	907.344	719.781
228.840	23.979	907.154	719.867
229.855	24.106	905.687	719.153
230.869	23.839	904.840	717.337
231.884	24.123	905.122	718.646
232.899	24.869	905.379	721.794
233.913	24.818	904.254	720.627
234.928	24.864	903.729	720.330
235.942	24.706	903.473	719.426
236.957	24.381	902.485	717.270
237.972	24.427	902.052	717.049
238.986	24.542	901.356	716.893
240.001	24.497	900.982	716.350
241.015	24.518	900.542	716.023
242.030	24.891	899.604	716.708
243.045	25.031	899.422	717.058
244.059	24.996	898.968	716.495
245.074	24.792	897.793	714.677
246.088	24.388	897.270	712.586
247.103	24.819	896.788	713.859
248.117	25.260	896.706	715.490
249.132	25.502	896.189	715.979
250.147	25.592	895.828	715.985
251.161	25.725	895.540	716.220
252.176	25.595	894.753	715.010
253.190	25.749	894.198	715.115
254.205	25.800	893.929	715.041
255.220	25.885	893.024	714.588
256.234	25.723	892.064	713.117
257.249	25.674	891.109	712.097
258.263	25.743	890.544	711.855
259.278	25.759	890.224	711.599
260.293	25.739	889.863	711.167
261.307	25.683	888.623	709.894
262.322	25.595	887.759	708.793
263.336	24.819	885.959	704.242
264.351	23.670	884.414	698.432
265.366	23.850	883.852	698.635
266.380	24.788	884.724	702.952
267.395	25.470	884.117	705.083
268.409	25.313	883.558	703.962
269.424	25.427	883.025	703.920
270.439	25.502	882.645	703.846
271.453	25.606	881.905	703.604
272.468	25.781	881.997	704.298
273.482	25.966	880.947	704.119
274.497	25.499	879.594	701.154
275.512	24.999	879.287	698.897
276.526	25.493	879.030	700.558
277.541	25.589	878.832	700.710
278.555	25.330	877.911	698.907
279.570	25.377	876.370	697.802
280.585	25.451	876.326	697.994
281.599	25.375	875.354	696.861
282.614	24.700	874.322	693.362
283.628	24.678	874.239	693.148
284.643	25.189	873.533	694.507
285.657	24.799	872.408	692.043
286.672	24.578	871.573	690.466
287.687	25.039	871.654	692.250
288.701	25.175	871.024	692.214
289.716	24.934	870.293	690.641
290.730	24.894	869.541	689.831
291.745	24.449	868.846	687.502
292.760	24.857	868.641	688.853
293.774	25.716	869.153	692.501
294.789	26.158	868.700	693.781
295.803	26.099	868.096	693.008
296.818	26.182	867.277	692.612
297.833	25.666	866.506	689.956
298.847	25.677	865.394	689.051
299.862	25.913	865.581	690.044
300.876	26.012	865.295	690.133
301.891	26.001	864.568	689.452
302.906	25.597	863.601	687.076
303.920	25.818	863.062	687.428
304.935	25.998	863.222	688.185
305.949	25.986	862.215	687.273
306.964	25.791	861.746	686.096
307.979	25.800	861.376	685.775
308.993	26.103	861.144	686.683
310.008	26.177	860.391	686.303
311.022	25.956	859.635	684.799
312.037	25.744	859.296	683.664
313.052	25.491	858.038	681.644
314.066	24.663	856.268	677.042
315.081	24.227	856.028	675.143
316.095	25.273	855.910	678.950
317.110	25.665	855.714	680.215
318.125	24.890	854.428	676.207
319.139	23.785	852.830	670.715
320.154	23.681	852.914	670.328
321.168	24.639	853.072	674.009
322.183	25.420	853.196	676.990
323.197	25.595	852.805	677.279
324.212	25.713	852.476	677.402
325.227	25.891	851.575	677.295
326.241	25.697	851.129	676.151
327.256	25.620	850.513	675.314
328.270	25.590	849.489	674.329
329.285	25.437	848.828	673.169
330.300	24.962	848.307	670.920
331.314	25.278	848.308	672.044
332.329	25.705	848.087	673.407
333.343	25.872	847.419	673.443
334.358	25.855	847.394	673.297
335.373	25.936	846.751	673.031
336.387	26.325	846.508	674.229
337.402	26.316	846.643	674.244
338.416	26.400	845.723	673.763
339.431	26.489	845.491	673.852
340.446	26.669	845.336	674.339
341.460	26.430	844.809	672.970
342.475	26.220	844.407	671.808
343.489	26.293	843.980	671.679
344.504	26.657	843.668	672.725
345.519	26.770	843.151	672.671
346.533	26.702	842.961	672.210
347.548	26.678	842.547	671.728
348.562	26.707	841.509	670.949
349.577	26.531	841.120	669.930
350.592	26.673	840.450	669.862
351.606	26.713	839.446	669.151
352.621	26.649	838.330	667.965
353.635	26.557	837.771	667.121
354.650	25.880	836.150	663.280
355.665	24.847	834.980	658.494
356.679	25.274	835.097	660.099
357.694	25.736	834.558	661.313
358.708	25.593	833.886	660.198
359.723	26.136	833.795	662.060
360.738	26.333	833.574	662.549
361.752	26.416	833.128	662.438
362.767	26.869	832.829	663.800
363.781	27.073	832.276	664.047
364.796	27.013	832.128	663.650
365.810	27.110	831.867	663.736
366.825	27.150	831.059	663.181
367.840	26.887	829.812	661.168
368.854	26.597	829.024	659.427
369.869	26.431	829.136	658.851
370.883	26.520	828.685	658.758
371.898	26.385	828.110	657.751
372.913	26.416	828.083	657.785
373.927	26.652	827.294	657.958
374.942	26.745	827.004	658.009
375.956	26.857	826.370	657.851
376.971	26.991	826.064	658.036
377.986	27.107	825.899	658.266
379.000	26.988	825.422	657.396
380.015	26.869	824.584	656.241
381.029	26.871	823.897	655.642
382.044	27.049	823.593	655.984
383.059	27.007	823.084	655.369
384.073	27.029	822.838	655.195
385.088	27.052	821.678	654.298
386.102	26.814	820.805	652.688
387.117	26.748	820.195	651.908
388.132	26.375	819.423	649.894
389.146	26.039	818.566	647.950
390.161	26.352	818.428	648.909
391.175	26.875	818.054	650.430
392.190	26.454	817.449	648.384
393.205	24.958	815.288	641.259
394.219	23.687	813.397	635.174
395.234	23.551	813.255	634.520
396.248	25.090	814.602	641.023
397.263	26.646	815.283	647.066
398.278	26.563	814.851	646.369
399.292	26.237	814.399	644.790
400.307	26.355	813.809	644.688
401.321	26.451	813.337	644.598
402.336	27.025	813.159	646.445
403.350	27.290	813.051	647.245
404.365	27.615	813.206	648.464
405.380	27.815	812.773	648.774
406.394	27.984	811.848	648.578
407.409	27.737	811.682	647.510
408.423	27.728	811.331	647.142
409.438	27.818	810.955	647.106
410.453	27.829	810.309	646.569
411.467	27.561	809.933	645.265
412.482	27.690	809.709	645.484
413.496	27.767	809.496	645.532
414.511	27.724	809.141	645.041
415.526	27.869	808.373	644.882
416.540	27.514	807.582	642.939
417.555	27.537	806.937	642.452
418.569	27.420	806.717	641.807
419.584	27.453	806.004	641.301
420.599	27.228	805.553	640.093
421.613	107.106	1280.463	1439.415
422.628	92.412	1349.658	1439.539
