DTS Sentinel unit serial number:	SN413079Multiplexer serial number:	ORYXHardware model number:	OX4-SRSoftware version number:	ORYX F/W v4.00 Oryx Data Collector v3.7.2.0data status	okinstallation	princeton_trtdifferential loss correction	single-endedforward channel	channel 1reverse channel	N/Adate	2019/09/12time	03:24:11forward acquisition time	60.00reverse acquisition time	0.00gamma	496.2192k internal	0.2322k external	0.2322temperature offset calibration	1.0080default loss term (dB/km)	0.3790temperature slope calibration	1.0000multiplexer offset coefficient	1.0000multiplexer slope coefficient	1.0000fibre end	0.00T internal ref (°C)	32.19T ext. ref 1 (°C)	2.15T ext. ref 2 (°C)	26.86length (m)	temperature (°C)	Stokes	anti-Stokes-747.200	800.000	0.018	0.060
-746.185	-1.752	-0.132	0.094
-745.171	-83.226	0.263	0.086
-744.156	23.224	-0.130	-0.108
-743.142	22.722	-0.159	0.131
-742.127	293.213	-0.157	0.290
-741.112	-123.122	0.231	0.037
-740.098	285.519	-0.157	0.285
-739.083	-200.000	0.009	0.045
-738.069	104.196	-0.236	0.280
-737.054	800.000	0.078	0.319
-736.039	-200.000	-0.010	0.097
-735.025	-120.436	-0.265	0.046
-734.010	3.536	-0.181	0.133
-732.996	-200.000	0.066	-0.374
-731.981	-200.000	0.003	-0.353
-730.966	-200.000	0.006	-0.261
-729.952	204.052	0.095	0.149
-728.937	283.383	-0.102	-0.185
-727.923	800.000	-0.055	-0.241
-726.908	-176.751	0.148	0.004
-725.894	-171.445	-0.171	0.006
-724.879	309.538	-0.138	-0.261
-723.864	1.202	0.086	0.062
-722.850	48.731	0.128	-0.121
-721.835	17.937	-0.354	-0.285
-720.821	-38.724	-0.372	-0.198
-719.806	27.269	0.118	-0.100
-718.791	-105.463	0.293	-0.067
-717.777	102.570	-0.302	-0.357
-716.762	-115.245	-0.097	0.019
-715.748	357.822	0.008	-0.017
-714.733	-200.000	0.234	-0.001
-713.718	-200.000	0.029	-0.149
-712.704	82.675	-0.072	0.079
-711.689	307.564	-0.149	-0.281
-710.675	110.431	0.273	-0.331
-709.660	10.284	-0.019	-0.015
-708.645	393.535	-0.125	-0.263
-707.631	-183.387	-0.164	-0.003
-706.616	-103.872	-0.214	0.050
-705.602	52.454	0.236	-0.228
-704.587	-66.860	-0.310	-0.124
-703.572	144.116	0.055	-0.075
-702.558	86.881	0.115	-0.128
-701.543	-135.174	-0.073	-0.009
-700.529	-32.432	-0.454	0.256
-699.514	5.538	-0.042	-0.031
-698.499	-27.447	0.235	0.138
-697.485	-97.213	-0.186	-0.049
-696.470	-52.679	0.106	-0.049
-695.456	734.821	-0.092	-0.248
-694.441	-116.754	0.055	0.010
-693.426	-200.000	0.010	0.065
-692.412	-96.414	-0.350	0.093
-691.397	279.532	-0.072	-0.130
-690.383	-179.896	-0.197	0.004
-689.368	233.080	0.145	0.241
-688.354	-121.480	-0.027	-0.005
-687.339	177.721	-0.144	0.211
-686.324	313.475	0.097	-0.183
-685.310	-51.317	-0.233	-0.110
-684.295	-100.667	0.479	-0.119
-683.281	-144.492	-0.168	-0.016
-682.266	-200.000	0.010	0.106
-681.251	-16.150	-0.092	0.059
-680.237	-44.603	-0.193	0.097
-679.222	-128.099	0.441	0.064
-678.208	226.947	-0.187	-0.307
-677.193	-76.375	-0.152	-0.054
-676.178	-139.334	0.285	0.031
-675.164	-68.543	-0.274	0.107
-674.149	-132.989	-0.015	0.002
-673.135	-200.000	-0.014	-0.075
-672.120	713.237	0.064	0.171
-671.105	-87.329	0.193	-0.059
-670.091	100.240	0.153	0.179
-669.076	105.049	-0.171	-0.203
-668.062	-19.694	0.223	-0.139
-667.047	47.115	-0.264	-0.248
-666.032	-200.000	0.025	0.343
-665.018	800.000	-0.002	0.008
-664.003	509.958	-0.180	-0.423
-662.989	-200.000	0.043	-0.264
-661.974	-88.528	0.138	-0.041
-660.959	-162.316	0.126	0.006
-659.945	77.743	-0.146	-0.156
-658.930	-200.000	0.004	-0.191
-657.916	-50.957	-0.072	-0.034
-656.901	800.000	0.099	-0.429
-655.886	-36.738	-0.121	0.065
-654.872	6.570	-0.262	-0.196
-653.857	-200.000	-0.033	-0.218
-652.843	98.784	-0.109	0.127
-651.828	-102.326	0.192	-0.046
-650.814	-200.000	0.058	-0.335
-649.799	-200.000	-0.005	0.200
-648.784	-75.390	-0.110	0.039
-647.770	3.692	0.144	-0.106
-646.755	-63.814	-0.235	0.097
-645.741	213.914	0.042	0.067
-644.726	-143.889	-0.204	-0.019
-643.711	183.156	0.079	-0.118
-642.697	-71.703	-0.208	-0.078
-641.682	-53.371	-0.299	-0.138
-640.668	436.102	-0.027	0.058
-639.653	800.000	-0.053	0.184
-638.638	406.292	-0.099	-0.211
-637.624	68.721	-0.131	0.135
-636.609	800.000	-0.070	-0.267
-635.595	191.131	-0.051	0.076
-634.580	-184.297	-0.257	0.004
-633.565	800.000	0.065	-0.278
-632.551	-21.216	0.143	-0.088
-631.536	-200.000	-0.015	0.107
-630.522	-32.638	0.036	-0.020
-629.507	-3.753	-0.095	0.066
-628.492	-136.515	0.333	-0.039
-627.478	-200.000	0.017	0.276
-626.463	-100.635	-0.114	-0.028
-625.449	-101.280	-0.090	-0.022
-624.434	31.655	-0.088	-0.077
-623.419	160.131	0.118	-0.166
-622.405	407.320	0.067	-0.143
-621.390	-72.906	0.148	-0.055
-620.376	115.702	0.225	0.277
-619.361	-200.000	-0.014	-0.138
-618.346	800.000	0.033	-0.146
-617.332	31.969	0.157	-0.136
-616.317	-200.000	0.002	-0.095
-615.303	800.000	0.011	-0.037
-614.288	53.685	-0.261	-0.252
-613.273	-200.000	-0.028	0.140
-612.259	400.489	-0.062	0.131
-611.244	361.571	0.054	0.109
-610.230	439.466	0.139	-0.306
-609.215	120.671	-0.225	0.281
-608.201	256.264	0.092	-0.159
-607.186	-47.756	-0.048	-0.023
-606.171	8.009	-0.329	-0.248
-605.157	398.913	-0.114	0.239
-604.142	206.477	0.138	-0.215
-603.128	-64.490	-0.316	-0.129
-602.113	-73.961	-0.330	0.120
-601.098	632.052	-0.101	0.257
-600.084	-92.854	0.229	-0.064
-599.069	-200.000	-0.063	-0.544
-598.055	-200.000	-0.076	-0.363
-597.040	80.866	-0.187	-0.203
-596.025	572.069	0.105	0.258
-595.011	-137.930	0.188	0.021
-593.996	97.050	0.096	-0.110
-592.982	800.000	-0.070	0.280
-591.967	56.983	0.103	0.101
-590.952	587.749	-0.080	-0.197
-589.938	800.000	0.006	-0.020
-588.923	800.000	0.104	0.290
-587.909	690.848	-0.065	-0.172
-586.894	-129.978	0.291	-0.040
-585.879	17.716	0.457	0.365
-584.865	-59.867	-0.362	-0.155
-583.850	-10.669	0.410	-0.273
-582.836	-200.000	-0.163	0.000
-581.821	14.143	-0.072	0.057
-580.806	-83.629	0.253	0.081
-579.792	-77.899	-0.168	-0.058
-578.777	766.234	-0.130	-0.355
-577.763	-15.693	0.256	-0.164
-576.748	167.649	0.127	-0.182
-575.733	48.254	-0.252	-0.237
-574.719	800.000	-0.074	0.235
-573.704	-67.017	0.169	0.067
-572.690	-200.000	0.013	-0.279
-571.675	60.901	-0.069	0.069
-570.661	-9.095	0.153	-0.103
-569.646	235.502	0.046	0.077
-568.631	18.587	-0.137	0.110
-567.617	27.513	-0.163	-0.138
-566.602	19.306	0.207	-0.167
-565.588	245.782	0.047	-0.079
-564.573	59.730	-0.129	-0.128
-563.558	-119.446	-0.331	-0.058
-562.544	-111.031	0.148	-0.031
-561.529	-152.175	0.352	-0.026
-560.515	-2.923	-0.224	0.157
-559.500	673.794	-0.051	-0.132
-558.485	800.000	-0.052	0.171
-557.471	15.363	-0.089	0.070
-556.456	-91.053	-0.203	-0.059
-555.442	18.438	0.056	-0.045
-554.427	-138.587	0.253	-0.028
-553.412	-1.020	-0.085	-0.060
-552.398	-190.770	-0.116	-0.001
-551.383	215.304	-0.177	-0.281
-550.369	254.989	-0.063	0.108
-549.354	-200.000	-0.014	0.220
-548.339	38.378	-0.274	-0.245
-547.325	-200.000	0.005	0.055
-546.310	258.597	-0.230	-0.397
-545.296	727.162	0.101	-0.270
-544.281	-27.262	0.063	-0.037
-543.266	800.000	-0.065	-0.222
-542.252	-200.000	-0.038	-0.307
-541.237	-200.000	0.032	-0.147
-540.223	198.984	0.097	0.149
-539.208	93.501	0.145	0.164
-538.193	-200.000	-0.001	0.263
-537.179	-102.459	0.210	-0.050
-536.164	-200.000	0.027	-0.357
-535.150	31.074	-0.095	-0.082
-534.135	-67.324	-0.182	0.072
-533.121	-72.568	0.265	-0.098
-532.106	-123.655	-0.234	-0.037
-531.091	-200.000	-0.045	0.395
-530.077	261.018	0.101	0.176
-529.062	315.032	-0.029	-0.055
-528.048	-94.520	0.329	-0.090
-527.033	-75.719	0.176	-0.062
-526.018	-179.858	-0.064	-0.001
-525.004	-75.883	-0.061	0.021
-523.989	-200.000	-0.011	0.058
-522.975	49.504	-0.003	0.003
-521.960	60.903	-0.193	0.192
-520.945	62.145	-0.058	-0.058
-519.931	-72.781	-0.217	0.080
-518.916	-77.920	0.129	0.045
-517.902	800.000	-0.110	-0.309
-516.887	-173.169	0.210	-0.006
-515.872	-152.808	-0.333	-0.024
-514.858	-106.419	0.147	0.033
-513.843	282.026	-0.046	-0.083
-512.829	-200.000	-0.001	0.178
-511.814	16.650	-0.069	0.055
-510.799	665.647	-0.098	-0.253
-509.785	-33.234	0.205	-0.114
-508.770	-114.177	0.341	-0.066
-507.756	-200.000	0.048	-0.279
-506.741	676.897	0.097	0.252
-505.726	210.749	0.166	0.261
-504.712	-200.000	0.022	-0.102
-503.697	800.000	0.041	0.115
-502.683	2.764	-0.097	-0.071
-501.668	-8.993	0.182	-0.122
-500.653	-200.000	0.012	0.253
-499.639	800.000	-0.076	0.243
-498.624	30.787	-0.135	-0.116
-497.610	-5.167	-0.154	-0.106
-496.595	-200.000	-0.313	-0.001
-495.581	351.011	-0.071	-0.140
-494.566	92.470	-0.106	-0.120
-493.551	51.787	0.156	0.149
-492.537	-29.339	-0.125	-0.071
-491.522	208.272	-0.045	-0.071
-490.508	104.138	0.105	0.123
-489.493	-200.000	0.060	0.331
-488.478	-123.063	-0.164	0.026
-487.464	30.258	0.100	0.086
-486.449	46.351	0.180	-0.167
-485.435	17.690	-0.121	0.096
-484.420	-200.000	0.016	-0.228
-483.405	-200.000	0.010	-0.181
-482.391	237.871	0.064	-0.107
-481.376	140.167	-0.266	-0.351
-480.362	-57.586	-0.052	0.023
-479.347	-200.000	0.001	-0.064
-478.332	-200.000	0.034	-0.438
-477.318	18.863	0.133	0.107
-476.303	-200.000	-0.038	-0.296
-475.289	-200.000	0.064	0.432
-474.274	-200.000	0.002	0.229
-473.259	-33.141	-0.300	0.166
-472.245	6.468	0.134	-0.099
-471.230	274.323	-0.140	-0.248
-470.216	727.013	-0.053	0.141
-469.201	800.000	-0.012	0.039
-468.186	800.000	0.057	0.206
-467.172	9.480	0.097	0.074
-466.157	232.542	-0.129	0.212
-465.143	285.882	0.119	-0.214
-464.128	-46.456	0.131	-0.064
-463.113	-116.416	-0.249	0.046
-462.099	800.000	-0.045	0.173
-461.084	-107.537	-0.154	0.034
-460.070	-200.000	-0.037	-0.215
-459.055	29.610	-0.079	0.067
-458.040	-200.000	-0.367	0.002
-457.026	-29.034	0.298	0.171
-456.011	-167.037	-0.243	0.010
-454.997	79.798	-0.046	0.050
-453.982	22.561	0.011	-0.009
-452.968	43.858	0.358	0.328
-451.953	-24.499	-0.125	-0.074
-450.938	-61.015	0.278	-0.117
-449.924	-200.000	-0.001	-0.008
-448.909	211.092	0.323	-0.508
-447.895	-17.432	-0.127	-0.080
-446.880	181.971	0.050	-0.073
-445.865	347.920	0.135	0.266
-444.851	-132.800	-0.047	0.006
-443.836	-33.902	-0.174	0.095
-442.822	345.185	0.143	0.280
-441.807	120.388	0.032	0.040
-440.792	-100.709	0.227	0.056
-439.778	42.232	0.233	-0.212
-438.763	-200.000	0.019	0.172
-437.749	416.758	0.157	0.334
-436.734	197.368	-0.068	-0.104
-435.719	439.650	-0.130	0.284
-434.705	117.006	-0.144	0.177
-433.690	-200.000	0.014	-0.118
-432.676	800.000	-0.102	0.319
-431.661	-66.763	0.525	-0.208
-430.646	-105.277	0.127	-0.029
-429.632	800.000	-0.150	0.497
-428.617	800.000	0.061	-0.225
-427.603	254.134	-0.056	0.095
-426.588	-116.901	-0.235	0.043
-425.573	15.852	-0.267	-0.209
-424.559	-108.056	0.120	-0.026
-423.544	-114.730	-0.051	-0.010
-422.530	189.129	0.131	0.196
-421.515	137.099	-0.146	0.190
-420.500	96.813	0.268	0.307
-419.486	51.484	0.304	0.288
-418.471	-32.493	-0.213	-0.118
-417.457	211.077	-0.262	0.411
-416.442	-29.836	0.366	-0.208
-415.428	-81.167	0.125	0.041
-414.413	-200.000	0.001	-0.013
-413.398	205.322	0.134	-0.208
-412.384	497.802	0.120	-0.275
-411.369	-10.661	0.142	-0.094
-410.355	-103.918	0.176	0.041
-409.340	23.493	0.185	0.152
-408.325	42.985	-0.160	-0.145
-407.311	-200.000	-0.031	0.176
-406.296	46.035	0.178	0.165
-405.282	800.000	-0.023	-0.072
-404.267	-10.894	-0.128	-0.084
-403.252	201.625	0.103	-0.158
-402.238	146.660	0.156	-0.209
-401.223	148.885	-0.130	-0.175
-400.209	-95.107	0.571	-0.154
-399.194	-21.166	0.256	0.156
-398.179	-200.000	-0.022	-0.148
-397.165	-121.675	-0.342	0.056
-396.150	-200.000	-0.002	-0.088
-395.136	-200.000	0.085	-0.398
-394.121	214.160	-0.113	-0.178
-393.106	58.969	0.283	-0.278
-392.092	304.260	0.179	-0.330
-391.077	800.000	-0.110	-0.310
-390.063	-82.142	0.137	0.044
-389.048	-120.842	-0.299	-0.050
-388.033	-107.544	-0.219	-0.048
-387.019	463.328	0.114	0.254
-386.004	686.382	-0.094	0.246
-384.990	-200.000	0.022	0.160
-383.975	-200.000	-0.018	0.091
-382.960	-113.430	0.219	-0.043
-381.946	-122.626	0.116	-0.019
-380.931	-200.000	-0.008	0.194
-379.917	127.073	-0.246	-0.311
-378.902	-200.000	-0.056	-0.265
-377.888	319.884	-0.099	0.187
-376.873	-11.585	0.204	0.133
-375.858	63.807	0.131	0.131
-374.844	-11.075	-0.391	0.257
-373.829	203.508	-0.186	-0.286
-372.815	-106.658	-0.077	-0.017
-371.800	89.394	-0.177	-0.197
-370.785	800.000	0.043	-0.181
-369.771	-200.000	0.052	0.330
-368.756	800.000	-0.026	0.077
-367.742	-4.122	0.034	0.024
-366.727	-153.188	-0.220	-0.015
-365.712	134.014	-0.179	-0.231
-364.698	-200.000	0.007	0.160
-363.683	14.948	0.198	0.154
-362.669	89.596	-0.042	0.046
-361.654	-50.290	-0.148	0.070
-360.639	-107.507	0.253	0.055
-359.625	-200.000	0.013	0.316
-358.610	-200.000	0.034	0.336
-357.596	-72.604	-0.257	-0.094
-356.581	-26.136	-0.014	0.008
-355.566	-128.731	-0.250	0.035
-354.552	-200.000	-0.005	0.087
-353.537	-126.603	0.223	-0.033
-352.523	-10.235	0.265	0.175
-351.508	-200.000	-0.005	-0.123
-350.493	234.323	0.100	0.164
-349.479	800.000	-0.036	-0.140
-348.464	334.135	0.040	0.076
-347.450	800.000	-0.118	-0.363
-346.435	-200.000	-0.038	-0.204
-345.420	-87.177	-0.377	-0.114
-344.406	97.050	-0.124	0.142
-343.391	-200.000	0.019	0.126
-342.377	207.356	-0.163	0.252
-341.362	220.807	-0.029	-0.046
-340.348	-41.079	-0.194	0.100
-339.333	29.174	0.389	-0.328
-338.318	-22.426	-0.154	0.093
-337.304	-12.050	0.295	-0.192
-336.289	128.107	0.123	0.156
-335.275	-54.380	0.170	-0.077
-334.260	800.000	-0.038	0.112
-333.245	147.423	-0.235	-0.314
-332.231	-200.000	-0.016	-0.113
-331.216	-125.529	-0.200	0.030
-330.202	721.697	0.116	-0.307
-329.187	-158.105	-0.149	0.009
-328.172	21.883	-0.271	0.220
-327.158	-106.246	0.208	-0.046
-326.143	95.451	-0.068	-0.077
-325.129	-60.653	-0.254	0.107
-324.114	158.020	0.283	0.390
-323.099	426.561	0.129	-0.277
-322.085	-47.436	-0.099	0.048
-321.070	-58.049	0.132	-0.057
-320.056	-200.000	0.073	-0.331
-319.041	79.902	0.053	-0.057
-318.026	-143.571	0.076	-0.007
-317.012	-105.571	0.294	0.066
-315.997	800.000	-0.042	0.156
-314.983	-200.000	0.027	0.124
-313.968	800.000	-0.144	-0.404
-312.953	-19.242	-0.114	-0.070
-311.939	-106.875	0.046	0.010
-310.924	117.994	0.273	-0.335
-309.910	103.607	-0.236	0.275
-308.895	-88.833	0.195	0.058
-307.880	59.312	-0.332	-0.325
-306.866	-200.000	-0.015	0.127
-305.851	800.000	0.036	0.114
-304.837	160.749	0.138	-0.191
-303.822	-20.407	-0.425	0.260
-302.807	800.000	0.016	0.045
-301.793	69.158	-0.225	0.230
-300.778	68.338	0.351	-0.357
-299.764	-200.000	0.009	-0.165
-298.749	-200.000	0.057	0.249
-297.735	467.875	-0.079	-0.176
-296.720	-39.355	0.276	-0.144
-295.705	-29.804	-0.089	0.051
-294.691	-200.000	-0.015	0.259
-293.676	455.130	-0.081	-0.177
-292.662	-166.118	-0.036	-0.002
-291.647	-130.566	0.105	-0.014
-290.632	-7.895	0.201	0.135
-289.618	-34.880	0.275	-0.149
-288.603	27.580	0.037	-0.031
-287.589	68.962	-0.300	-0.306
-286.574	531.245	-0.068	0.161
-285.559	-91.904	0.103	0.029
-284.545	184.639	-0.138	-0.203
-283.530	-200.000	0.043	0.289
-282.516	25.277	0.106	0.087
-281.501	-200.000	0.004	-0.236
-280.486	444.779	-0.127	0.278
-279.472	800.000	0.058	0.182
-278.457	81.586	-0.246	-0.264
-277.443	-200.000	0.027	-0.199
-276.428	-200.000	-0.030	0.156
-275.413	-110.966	-0.245	-0.050
-274.399	-96.717	0.211	0.055
-273.384	766.730	-0.214	0.577
-272.370	87.931	-0.336	0.370
-271.355	-200.000	-0.030	0.164
-270.340	184.742	-0.088	-0.130
-269.326	203.695	0.118	0.180
-268.311	-3.883	0.154	0.106
-267.297	523.283	-0.035	0.082
-266.282	800.000	0.078	-0.216
-265.267	-125.980	-0.205	-0.031
-264.253	-74.160	-0.229	-0.082
-263.238	42.251	-0.083	0.074
-262.224	85.488	0.036	-0.039
-261.209	800.000	-0.012	0.038
-260.195	-200.000	-0.005	-0.045
-259.180	-134.646	0.189	0.023
-258.165	236.902	0.155	0.254
-257.151	800.000	-0.036	-0.154
-256.136	-159.564	-0.153	0.008
-255.122	191.655	0.029	0.043
-254.107	-65.865	0.194	-0.077
-253.092	-100.524	-0.054	0.013
-252.078	800.000	-0.042	0.180
-251.063	800.000	-0.115	0.337
-250.049	56.186	0.034	-0.033
-249.034	726.465	0.053	0.141
-248.019	-77.043	-0.351	0.121
-247.005	-173.537	0.287	0.009
-245.990	798.608	-0.100	0.274
-244.976	2.184	0.025	0.018
-243.961	100.178	-0.176	0.202
-242.946	244.328	-0.214	-0.357
-241.932	-38.092	0.310	0.163
-240.917	181.569	-0.082	0.120
-239.903	800.000	-0.090	0.267
-238.888	318.003	0.145	-0.272
-237.873	-4.011	-0.027	-0.019
-236.859	597.268	0.112	0.275
-235.844	800.000	-0.076	0.241
-234.830	-3.503	-0.289	0.199
-233.815	128.994	-0.139	-0.176
-232.800	-37.270	-0.191	0.101
-231.786	-87.763	0.193	0.058
-230.771	-43.868	-0.280	0.140
-229.757	170.407	-0.203	0.288
-228.742	307.090	-0.155	0.286
-227.727	-126.431	0.120	0.018
-226.713	708.372	-0.009	0.023
-225.698	-49.231	0.032	0.015
-224.684	-179.878	0.331	-0.007
-223.669	-200.000	0.076	0.433
-222.655	-200.000	-0.044	-0.308
-221.640	-200.000	-0.015	0.369
-220.625	-102.884	0.417	0.098
-219.611	-129.355	-0.230	0.032
-218.596	-29.058	-0.179	-0.102
-217.582	429.931	0.122	-0.262
-216.567	58.728	0.204	-0.198
-215.552	90.729	-0.109	0.121
-214.538	-127.827	-0.108	0.015
-213.523	-118.093	0.234	-0.041
-212.509	347.397	0.117	-0.228
-211.494	-84.172	0.160	-0.050
-210.479	-122.125	0.307	-0.050
-209.465	-153.277	0.231	-0.016
-208.450	800.000	0.068	0.278
-207.436	800.000	-0.055	0.215
-206.421	-10.670	-0.104	-0.068
-205.406	-56.902	0.275	-0.120
-204.392	103.396	0.024	0.028
-203.377	800.000	0.023	0.075
-202.363	-130.533	0.325	0.043
-201.348	-17.508	-0.317	0.197
-200.333	412.600	0.096	-0.201
-199.319	-107.645	-0.049	0.010
-198.304	113.571	0.081	-0.098
-197.290	-59.400	-0.077	0.033
-196.275	800.000	-0.024	0.091
-195.260	-123.614	0.129	0.020
-194.246	-200.000	0.012	-0.301
-193.231	212.924	0.047	0.073
-192.217	800.000	-0.095	0.328
-191.202	-200.000	-0.019	0.124
-190.187	-200.000	0.068	0.293
-189.173	-200.000	0.033	-0.338
-188.158	-200.000	0.028	-0.140
-187.144	-200.000	0.051	-0.262
-186.129	72.192	-0.297	0.306
-185.114	71.764	0.160	0.164
-184.100	134.200	0.123	-0.158
-183.085	154.864	0.055	0.074
-182.071	-200.000	0.020	0.142
-181.056	-200.000	-0.011	-0.059
-180.042	366.051	0.103	-0.205
-179.027	227.654	-0.139	-0.224
-178.012	-63.875	0.169	0.068
-176.998	-15.076	-0.191	-0.121
-175.983	-38.932	0.372	-0.194
-174.969	13.889	-0.482	-0.370
-173.954	25.788	0.063	0.052
-172.939	-56.160	-0.444	0.195
-171.925	-200.000	-0.013	0.315
-170.910	-73.078	0.109	-0.039
-169.896	-200.000	0.016	0.171
-168.881	-200.000	-0.081	0.464
-167.866	-190.060	0.130	0.001
-166.852	-200.000	-0.016	-0.188
-165.837	-76.187	0.382	0.133
-164.823	681.434	-0.192	0.493
-163.808	71.606	0.171	-0.176
-162.793	-200.000	0.061	-0.333
-161.779	759.239	-0.091	0.245
-160.764	-161.495	-0.328	-0.017
-159.750	-32.528	-0.084	0.046
-158.735	-96.212	0.225	-0.059
-157.720	-104.660	-0.128	0.029
-156.706	79.593	0.186	0.197
-155.691	800.000	-0.123	-0.340
-154.677	-65.339	0.171	0.068
-153.662	76.417	0.193	-0.202
-152.647	-128.325	0.562	0.079
-151.633	291.862	-0.053	-0.095
-150.618	-146.000	0.043	-0.004
-149.604	-200.000	0.022	0.352
-148.589	71.220	0.129	0.132
-147.574	-118.940	-0.157	-0.027
-146.560	37.266	-0.130	-0.113
-145.545	-200.000	-0.007	0.066
-144.531	422.078	-0.110	-0.233
-143.516	25.527	-0.100	-0.082
-142.502	87.376	-0.194	0.211
-141.487	56.831	0.183	-0.176
-140.472	-200.000	0.018	-0.159
-139.458	-87.514	0.192	0.057
-138.443	59.810	0.159	-0.155
-137.429	82.489	-0.141	-0.151
-136.414	-200.000	0.008	0.209
-135.399	571.126	0.031	0.075
-134.385	191.844	-0.094	0.140
-133.370	-41.176	0.185	-0.094
-132.356	258.481	-0.168	-0.286
-131.341	-92.502	-0.164	0.045
-130.326	360.107	0.148	-0.292
-129.312	694.531	0.025	-0.064
-128.297	484.573	-0.040	-0.090
-127.283	74.577	-0.259	0.269
-126.268	-95.122	-0.130	-0.035
-125.253	-200.000	0.034	0.223
-124.239	124.607	0.206	0.255
-123.224	800.000	0.137	-0.388
-122.210	37.320	-0.431	-0.376
-121.195	-200.000	-0.001	-0.244
-120.180	-200.000	0.047	-0.207
-119.166	-57.848	-0.087	-0.038
-118.151	30.457	-0.040	-0.034
-117.137	57.013	0.034	-0.033
-116.122	682.487	-0.068	0.176
-115.107	-131.147	-0.086	0.011
-114.093	78.176	0.107	-0.112
-113.078	800.000	0.070	0.248
-112.064	370.522	-0.041	-0.082
-111.049	348.668	0.216	0.421
-110.034	130.857	-0.242	-0.306
-109.020	293.490	0.145	0.262
-108.005	800.000	-0.060	-0.230
-106.991	800.000	-0.045	-0.167
-105.976	27.478	-0.156	-0.129
-104.962	-3.594	0.285	-0.196
-103.947	66.042	0.237	0.237
-102.932	-93.999	-0.266	-0.072
-101.918	-200.000	0.017	-0.354
-100.903	-200.000	0.015	0.257
-99.889	-42.657	-0.386	0.194
-98.874	-200.000	0.028	-0.340
-97.859	-7.449	-0.234	-0.156
-96.845	-200.000	0.019	-0.090
-95.830	173.762	-0.130	-0.184
-94.816	156.382	0.098	-0.134
-93.801	-1.786	0.439	-0.304
-92.786	-9.675	0.319	-0.209
-91.772	-14.140	0.180	-0.115
-90.757	-81.706	-0.183	0.059
-89.743	-149.681	0.413	0.032
-88.728	-82.736	-0.371	-0.118
-87.713	-123.749	0.125	-0.020
-86.699	-89.134	-0.344	0.100
-85.684	-200.000	-0.085	0.403
-84.670	-81.626	0.115	-0.037
-83.655	-57.191	-0.096	-0.042
-82.640	14.681	0.095	0.073
-81.626	-200.000	-0.019	-0.189
-80.611	-22.381	-0.176	0.105
-79.597	800.000	-0.063	0.266
-78.582	506.493	-0.045	0.102
-77.567	800.000	-0.099	0.314
-76.553	-33.164	0.068	-0.037
-75.538	431.783	-0.151	-0.322
-74.524	16.683	0.060	-0.046
-73.509	225.349	-0.077	0.123
-72.494	295.874	-0.119	0.214
-71.480	-13.097	0.197	0.126
-70.465	324.731	-0.063	-0.119
-69.451	800.000	-0.060	-0.252
-68.436	-88.116	0.274	0.081
-67.422	175.507	0.139	-0.198
-66.407	192.465	0.068	0.101
-65.392	-10.649	0.105	-0.068
-64.378	-63.027	-0.254	0.103
-63.363	-126.156	-0.158	0.023
-62.349	-159.717	0.264	0.014
-61.334	27.823	-1.050	-0.870
-60.319	112.199	0.621	0.738
-59.305	800.000	-0.194	-0.652
-58.290	355.183	0.632	1.237
-57.276	800.000	0.662	1.964
-56.261	-200.000	95.817	596.045
-55.246	571.814	1363.249	3265.470
-54.232	163.258	2536.492	3506.043
-53.217	113.551	2133.827	2548.295
-52.203	43.978	1599.885	1441.786
-51.188	35.691	1338.203	1156.333
-50.173	32.507	1296.735	1101.859
-49.159	54.182	1343.718	1271.313
-48.144	56.394	1360.251	1300.065
-47.130	35.803	1319.381	1140.555
-46.115	32.398	1302.327	1105.794
-45.100	32.208	1296.899	1100.033
-44.086	32.093	1294.354	1097.157
-43.071	32.026	1292.214	1094.908
-42.057	32.082	1289.958	1093.282
-41.042	32.044	1288.451	1091.739
-40.027	32.097	1287.106	1090.864
-39.013	32.133	1284.706	1088.993
-37.998	32.149	1283.246	1087.804
-36.984	32.192	1281.228	1086.298
-35.969	32.214	1279.806	1085.178
-34.954	32.197	1278.225	1083.700
-33.940	32.394	1276.313	1083.170
-32.925	32.316	1275.637	1082.101
-31.911	32.291	1273.858	1080.408
-30.896	32.327	1271.961	1078.961
-29.881	32.259	1271.258	1077.931
-28.867	32.340	1269.522	1076.879
-27.852	32.425	1267.743	1075.816
-26.838	32.273	1267.018	1074.290
-25.823	32.279	1265.388	1072.901
-24.809	32.234	1264.287	1071.668
-23.794	32.268	1262.946	1070.678
-22.779	32.251	1261.632	1069.425
-21.765	32.275	1260.503	1068.562
-20.750	32.215	1259.111	1066.997
-19.736	32.173	1257.981	1065.761
-18.721	32.088	1256.607	1064.077
-17.706	32.137	1255.548	1063.413
-16.692	32.114	1254.287	1062.175
-15.677	32.140	1253.087	1061.260
-14.663	32.121	1252.286	1060.434
-13.648	32.030	1251.439	1059.160
-12.633	32.115	1250.172	1058.525
-11.619	32.234	1249.043	1058.200
-10.604	32.069	1248.557	1056.815
-9.590	32.092	1247.492	1056.000
-8.575	32.126	1246.489	1055.301
-7.560	32.044	1245.883	1054.289
-6.546	32.069	1244.852	1053.511
-5.531	32.007	1243.949	1052.356
-4.517	32.040	1242.968	1051.669
-3.502	32.160	1242.018	1051.497
-2.487	32.048	1241.157	1050.101
-1.473	32.086	1236.844	1046.621
-0.458	30.643	1222.003	1026.069
0.556	27.848	1205.069	990.189
1.571	24.427	1211.412	976.622
2.586	23.773	1226.817	985.328
3.600	23.161	1216.393	973.506
4.615	17.027	1144.000	883.646
5.629	6.936	1067.002	774.858
6.644	2.453	1046.231	738.126
7.659	2.092	1043.954	734.715
8.673	2.106	1042.682	733.822
9.688	1.950	1041.258	732.009
10.702	2.382	1040.114	733.208
11.717	9.110	1049.619	772.297
12.731	19.149	1063.772	831.353
13.746	24.242	1069.898	860.730
14.761	25.360	1070.684	866.685
15.775	25.382	1070.376	866.462
16.790	24.913	1070.018	863.834
17.804	25.132	1068.937	863.943
18.819	25.203	1068.661	863.982
19.834	25.306	1068.205	864.036
20.848	25.392	1068.124	864.304
21.863	25.392	1067.460	863.692
22.877	25.314	1066.632	862.573
23.892	25.200	1066.026	861.455
24.907	25.198	1065.848	861.226
25.921	25.280	1064.346	860.330
26.936	25.271	1063.261	859.334
27.950	25.142	1061.380	857.120
28.965	25.060	1059.593	855.212
29.980	25.124	1058.216	854.329
30.994	25.415	1057.217	854.835
32.009	25.259	1056.384	853.341
33.023	25.114	1054.894	851.372
34.038	25.304	1054.315	851.732
35.053	25.369	1053.858	851.599
36.067	25.202	1053.456	850.406
37.082	25.377	1052.424	850.323
38.096	25.644	1051.391	850.676
39.111	25.637	1050.838	850.124
40.126	25.339	1049.382	847.463
41.140	25.000	1047.300	844.109
42.155	24.811	1046.212	842.270
43.169	24.893	1045.486	841.994
44.184	24.969	1044.383	841.390
45.199	24.818	1043.430	839.840
46.213	24.898	1042.399	839.308
47.228	25.144	1041.987	840.055
48.242	25.311	1041.035	839.996
49.257	25.200	1040.600	839.053
50.271	25.353	1039.507	838.810
51.286	25.498	1038.492	838.592
52.301	25.323	1037.972	837.285
53.315	25.332	1037.075	836.525
54.330	25.285	1036.205	835.534
55.344	25.403	1035.386	835.346
56.359	25.257	1034.605	833.963
57.374	25.001	1033.518	831.827
58.388	25.004	1032.899	831.271
59.403	24.979	1031.892	830.271
60.417	24.764	1031.253	828.684
61.432	25.001	1030.624	829.204
62.447	25.041	1030.032	828.840
63.461	25.197	1029.168	828.793
64.476	25.054	1028.217	827.294
65.490	25.044	1027.276	826.415
66.505	25.071	1026.677	825.984
67.520	25.041	1025.730	825.011
68.534	24.792	1025.017	823.220
69.549	24.492	1024.002	820.954
70.563	24.495	1023.380	820.397
71.578	24.598	1022.489	820.080
72.593	24.519	1021.062	818.503
73.607	24.527	1021.102	818.498
74.622	24.825	1020.784	819.537
75.636	24.771	1020.231	818.772
76.651	24.774	1018.626	817.425
77.666	24.638	1018.639	816.742
78.680	24.743	1017.688	816.387
79.695	24.747	1017.511	816.192
80.709	24.888	1016.458	815.918
81.724	24.891	1015.639	815.200
82.739	25.021	1014.883	815.112
83.753	25.253	1014.742	815.983
84.768	25.445	1014.203	816.351
85.782	25.617	1012.981	816.073
86.797	25.542	1012.317	815.126
87.812	25.512	1010.664	813.588
88.826	25.442	1009.980	812.651
89.841	25.653	1008.932	812.688
90.855	25.541	1008.175	811.502
91.870	25.562	1007.273	810.799
92.884	25.388	1006.271	809.134
93.899	25.334	1005.484	808.187
94.914	25.496	1004.430	807.998
95.928	25.376	1003.583	806.705
96.943	25.109	1002.267	804.377
97.957	24.882	1001.152	802.394
98.972	24.841	1000.010	801.226
99.987	25.076	999.384	801.706
101.001	25.115	999.001	801.500
102.016	25.235	997.750	800.960
103.030	25.166	996.921	799.916
104.045	25.078	995.760	798.521
105.060	24.839	995.281	797.005
106.074	25.080	994.417	797.316
107.089	25.503	993.864	798.680
108.103	25.278	992.926	796.855
109.118	25.014	991.628	794.573
110.133	25.035	990.605	793.777
111.147	24.730	989.216	791.246
112.162	24.818	988.280	790.814
113.176	24.834	988.225	790.773
114.191	24.843	987.696	790.318
115.206	24.623	986.059	787.969
116.220	24.551	985.529	787.158
117.235	24.762	984.452	787.156
118.249	24.819	983.697	786.733
119.264	24.673	983.076	785.523
120.279	24.581	982.429	784.535
121.293	24.629	981.597	784.012
122.308	24.668	980.744	783.433
123.322	24.655	979.344	782.189
124.337	24.518	978.460	780.816
125.352	24.077	976.709	777.420
126.366	24.029	975.894	776.496
127.381	24.700	975.987	779.429
128.395	25.225	975.510	781.263
129.410	25.275	974.475	780.583
130.424	25.141	973.873	779.449
131.439	25.322	972.160	778.796
132.454	25.175	972.079	778.024
133.468	25.059	971.033	776.614
134.483	25.269	969.972	776.607
135.497	25.515	969.484	777.210
136.512	25.489	968.486	776.231
137.527	25.501	967.375	775.324
138.541	25.532	967.017	775.100
139.556	25.521	966.098	774.248
140.570	25.593	965.368	773.904
141.585	25.575	964.228	772.844
142.600	25.630	963.239	772.219
143.614	25.795	962.687	772.416
144.629	25.863	961.982	772.073
145.643	25.559	960.656	769.638
146.658	25.522	959.101	768.170
147.673	25.252	958.334	766.333
148.687	25.294	957.352	765.661
149.702	25.179	956.407	764.344
150.716	25.311	955.831	764.379
151.731	25.448	954.972	764.209
152.746	25.506	954.269	763.825
153.760	25.769	953.558	764.304
154.775	25.823	953.181	764.164
155.789	25.600	952.177	762.344
156.804	25.558	951.634	761.663
157.819	25.713	950.952	761.710
158.833	25.783	949.918	761.109
159.848	25.821	948.861	760.357
160.862	25.552	947.701	758.221
161.877	25.645	946.992	757.981
162.892	25.709	945.932	757.334
163.906	25.639	944.698	755.985
164.921	25.521	944.526	755.285
165.935	25.667	943.063	754.663
166.950	25.675	942.160	753.906
167.964	25.546	941.335	752.638
168.979	25.443	940.424	751.415
169.994	25.440	939.322	750.452
171.008	25.689	939.164	751.302
172.023	25.775	938.041	750.694
173.037	25.490	937.093	748.683
174.052	25.213	936.116	746.682
175.067	25.418	935.529	746.999
176.081	25.462	934.901	746.615
177.096	25.386	934.788	746.143
178.110	25.186	933.207	743.987
179.125	24.998	932.824	742.836
180.140	25.043	932.368	742.593
181.154	25.084	932.480	742.788
182.169	25.372	932.410	743.861
183.183	25.706	931.340	744.321
184.198	25.572	930.571	743.088
185.213	25.628	929.734	742.582
186.227	25.696	929.277	742.434
187.242	25.645	928.588	741.606
188.256	25.712	927.789	741.178
189.271	25.746	927.435	740.973
190.286	25.393	926.279	738.532
191.300	24.779	924.526	734.548
192.315	24.007	922.932	730.050
193.329	23.950	923.007	729.810
194.344	25.027	922.865	734.048
195.359	25.321	923.416	735.627
196.373	25.587	922.337	735.791
197.388	25.337	922.357	734.718
198.402	25.490	921.342	734.470
199.417	25.432	920.620	733.592
200.432	25.304	919.553	732.154
201.446	25.215	918.763	731.101
202.461	25.176	918.272	730.485
203.475	24.387	916.235	725.592
204.490	23.400	915.449	720.896
205.504	24.479	916.005	725.656
206.519	25.123	915.362	727.697
207.534	25.122	915.235	727.529
208.548	25.592	914.833	729.050
209.563	25.304	914.101	727.237
210.577	25.247	913.492	726.455
211.592	25.812	912.767	728.099
212.607	25.673	911.895	726.780
213.621	25.675	911.859	726.692
214.636	25.875	910.587	726.420
215.650	25.669	910.073	725.115
216.665	25.762	909.744	725.167
217.680	25.812	908.979	724.692
218.694	25.171	907.589	720.944
219.709	25.127	907.277	720.455
220.723	25.450	907.038	721.500
221.738	25.505	905.850	720.711
222.753	25.462	905.765	720.409
223.767	25.581	905.078	720.272
224.782	25.911	904.585	721.138
225.796	25.960	903.942	720.758
226.811	25.161	902.487	716.345
227.826	24.548	901.412	712.980
228.840	24.711	900.902	713.164
229.855	24.788	900.173	712.830
230.869	24.543	898.882	710.773
231.884	24.817	899.269	712.105
232.899	25.498	899.418	714.871
233.913	25.388	898.483	713.625
234.928	25.530	897.948	713.702
235.942	25.404	897.015	712.396
236.957	25.101	896.072	710.386
237.972	24.972	896.391	710.064
238.986	25.191	895.508	710.170
240.001	25.243	894.645	709.628
241.015	25.356	894.475	709.875
242.030	25.538	893.842	710.032
243.045	25.554	893.508	709.765
244.059	25.635	893.089	709.688
245.074	25.518	891.801	708.144
246.088	25.073	891.211	705.859
247.103	25.390	890.646	706.597
248.117	25.955	891.220	709.213
249.132	26.381	890.241	710.042
250.147	26.213	890.107	709.216
251.161	26.445	889.539	709.608
252.176	26.384	888.830	708.743
253.190	26.571	888.396	709.064
254.205	26.726	887.610	708.982
255.220	26.500	887.523	707.964
256.234	26.380	886.777	706.839
257.249	26.329	885.704	705.723
258.263	26.367	885.241	705.439
259.278	26.413	884.813	705.216
260.293	26.637	884.176	705.517
261.307	26.405	883.386	703.922
262.322	26.147	882.611	702.236
263.336	25.323	880.858	697.582
264.351	24.462	878.809	692.556
265.366	24.594	878.661	692.893
266.380	25.672	879.116	697.371
267.395	26.133	878.735	698.789
268.409	25.979	878.426	697.887
269.424	26.176	877.809	698.098
270.439	26.205	877.064	697.556
271.453	26.443	876.496	697.961
272.468	26.619	876.413	698.511
273.482	26.591	876.091	698.086
274.497	26.123	874.730	695.137
275.512	25.746	873.651	692.767
276.526	26.209	873.553	694.408
277.541	26.313	873.375	694.604
278.555	26.098	872.389	692.933
279.570	26.036	871.808	692.173
280.585	26.161	871.117	692.041
281.599	26.115	870.329	691.181
282.614	25.471	869.069	687.654
283.628	25.502	868.811	687.507
284.643	25.925	868.220	688.597
285.657	25.459	867.343	686.062
286.672	25.111	866.677	684.144
287.687	25.699	866.565	686.240
288.701	25.742	866.003	685.897
289.716	25.480	865.012	684.055
290.730	25.451	864.340	683.351
291.745	25.054	863.706	681.283
292.760	25.331	863.803	682.351
293.774	26.449	863.969	686.666
294.789	26.807	863.550	687.633
295.803	26.796	863.014	687.104
296.818	26.880	862.000	686.553
297.833	26.306	861.324	683.782
298.847	26.266	860.672	683.052
299.862	26.600	860.170	683.856
300.876	26.837	860.108	684.641
301.891	26.736	859.201	683.478
302.906	26.260	858.171	680.805
303.920	26.447	858.079	681.375
304.935	26.786	857.838	682.400
305.949	26.693	857.502	681.724
306.964	26.414	856.409	679.746
307.979	26.705	855.738	680.244
308.993	26.953	855.641	681.037
310.008	27.026	854.949	680.701
311.022	26.702	853.941	678.625
312.037	26.513	853.727	677.686
313.052	26.297	852.627	675.947
314.066	25.311	851.161	671.040
315.081	25.047	850.572	669.531
316.095	26.011	850.681	673.157
317.110	26.295	850.961	674.380
318.125	25.527	849.020	669.922
319.139	24.512	847.750	665.082
320.154	24.599	847.241	664.946
321.168	25.512	847.877	668.787
322.183	26.039	848.229	670.965
323.197	26.146	847.943	671.077
324.212	26.451	847.308	671.648
325.227	26.396	846.859	671.027
326.241	26.309	845.965	669.938
327.256	26.325	845.081	669.238
328.270	26.115	844.756	668.143
329.285	26.003	843.785	666.901
330.300	25.853	842.969	665.645
331.314	25.971	842.905	665.972
332.329	26.371	842.875	667.364
333.343	26.608	842.344	667.759
334.358	26.651	841.813	667.437
335.373	26.578	841.604	666.943
336.387	26.952	841.860	668.464
337.402	27.034	841.473	668.400
338.416	26.930	840.955	667.549
339.431	27.106	840.962	668.141
340.446	27.225	840.482	668.139
341.460	27.016	840.301	667.167
342.475	26.903	839.559	666.103
343.489	26.884	839.035	665.559
344.504	27.356	838.861	667.094
345.519	27.379	838.500	666.832
346.533	27.433	837.886	666.481
347.548	27.471	837.396	666.174
348.562	27.418	836.812	665.457
349.577	27.307	836.320	664.601
350.592	27.454	835.297	664.266
351.606	27.505	834.399	663.680
352.621	27.177	833.949	662.066
353.635	27.273	833.003	661.605
354.650	26.521	831.402	657.544
355.665	25.492	830.489	653.028
356.679	26.055	830.111	654.717
357.694	26.441	830.008	655.976
358.708	26.446	828.797	654.981
359.723	26.653	829.137	655.940
360.738	26.988	828.886	656.896
361.752	27.357	828.196	657.624
362.767	27.581	827.915	658.154
363.781	27.668	827.555	658.125
364.796	27.735	827.232	658.050
365.810	27.833	826.907	658.087
366.825	27.945	826.332	657.974
367.840	27.586	825.482	655.948
368.854	27.097	824.744	653.544
369.869	27.157	824.607	653.594
370.883	27.341	823.689	653.468
371.898	26.899	823.665	651.804
372.913	27.215	823.144	652.469
373.927	27.320	822.630	652.379
374.942	27.380	822.359	652.322
375.956	27.512	821.708	652.222
376.971	27.773	821.530	652.957
377.986	27.858	821.145	652.895
379.000	27.872	820.936	652.723
380.015	27.557	819.909	650.723
381.029	27.669	819.418	650.677
382.044	27.713	819.023	650.463
383.059	27.720	818.307	649.860
384.073	28.006	817.622	650.276
385.088	27.721	817.019	648.725
386.102	27.447	816.460	647.251
387.117	27.531	815.952	647.088
388.132	27.033	814.734	644.299
389.146	26.634	813.858	642.134
390.161	27.195	813.781	644.005
391.175	27.418	813.640	644.626
392.190	27.136	812.727	642.849
393.205	25.935	810.349	636.673
394.219	24.329	808.588	629.567
395.234	24.217	808.230	628.840
396.248	25.799	809.990	635.741
397.263	27.188	810.878	641.286
398.278	27.284	810.128	640.973
399.292	26.983	809.374	639.261
400.307	27.082	808.923	639.198
401.321	27.176	808.824	639.395
402.336	27.707	808.856	641.229
403.350	28.038	808.582	642.119
404.365	28.250	808.394	642.656
405.380	28.590	808.124	643.578
406.394	28.567	807.732	643.126
407.409	28.417	807.358	642.248
408.423	28.504	806.751	642.013
409.438	28.338	806.549	641.214
410.453	28.587	805.993	641.587
411.467	28.613	805.378	641.131
412.482	28.458	805.305	640.473
413.496	28.607	804.878	640.596
414.511	28.580	804.432	640.091
415.526	28.589	803.663	639.453
416.540	28.498	802.818	638.409
417.555	28.093	802.620	636.784
418.569	28.200	802.253	636.811
419.584	28.177	801.695	636.232
420.599	28.069	801.115	635.338
421.613	111.550	1286.010	1458.044
422.628	96.284	1356.646	1458.158
