DTS Sentinel unit serial number:	SN413079Multiplexer serial number:	ORYXHardware model number:	OX4-SRSoftware version number:	ORYX F/W v4.00 Oryx Data Collector v3.7.2.0data status	okinstallation	princeton_trtdifferential loss correction	single-endedforward channel	channel 1reverse channel	N/Adate	2019/09/12time	00:00:11forward acquisition time	60.00reverse acquisition time	0.00gamma	496.2192k internal	0.2318k external	0.2318temperature offset calibration	1.0073default loss term (dB/km)	0.3790temperature slope calibration	1.0000multiplexer offset coefficient	1.0000multiplexer slope coefficient	1.0000fibre end	0.00T internal ref (°C)	33.75T ext. ref 1 (°C)	2.00T ext. ref 2 (°C)	28.33length (m)	temperature (°C)	Stokes	anti-Stokes-747.200	-69.343	0.188	-0.073
-746.185	-200.000	0.057	0.291
-745.171	119.419	-0.031	0.039
-744.156	-200.000	0.029	0.419
-743.142	121.679	0.083	-0.105
-742.127	800.000	0.084	0.269
-741.112	547.086	0.065	0.158
-740.098	-64.288	-0.254	0.105
-739.083	-15.738	-0.183	-0.118
-738.069	800.000	0.049	-0.169
-737.054	-66.225	-0.213	0.086
-736.039	-40.652	-0.185	0.097
-735.025	776.440	0.062	0.170
-734.010	-200.000	0.035	0.176
-732.996	-54.626	-0.296	0.135
-731.981	800.000	0.065	-0.258
-730.966	-200.000	-0.012	0.156
-729.952	800.000	-0.081	-0.234
-728.937	-200.000	-0.019	-0.239
-727.923	-164.062	-0.283	-0.013
-726.908	-30.517	-0.210	-0.121
-725.894	1.844	-0.207	0.151
-724.879	-120.882	-0.293	-0.050
-723.864	118.240	0.120	0.150
-722.850	385.394	-0.111	-0.231
-721.835	-29.382	-0.300	0.174
-720.821	-100.351	0.051	-0.013
-719.806	800.000	-0.075	0.213
-718.791	-61.303	0.195	0.083
-717.777	800.000	-0.095	0.397
-716.762	-6.010	0.146	0.101
-715.748	800.000	0.070	-0.209
-714.733	800.000	-0.044	-0.162
-713.718	800.000	0.014	0.058
-712.704	6.770	-0.197	-0.148
-711.689	35.549	0.251	-0.223
-710.675	701.316	-0.121	-0.323
-709.660	43.769	0.092	-0.085
-708.645	227.539	0.148	-0.243
-707.631	-200.000	0.226	0.000
-706.616	195.656	0.176	0.271
-705.602	-156.858	-0.125	-0.008
-704.587	800.000	0.069	0.294
-703.572	800.000	-0.044	-0.187
-702.558	-51.472	0.246	0.116
-701.543	-77.318	-0.226	0.079
-700.529	800.000	-0.049	-0.181
-699.514	48.556	0.129	-0.123
-698.499	-95.442	-0.244	-0.066
-697.485	-83.401	-0.305	-0.099
-696.470	800.000	-0.049	-0.152
-695.456	-147.376	-0.150	0.013
-694.441	16.081	0.171	0.136
-693.426	-152.200	-0.310	0.023
-692.412	94.456	0.235	-0.270
-691.397	15.575	-0.274	-0.217
-690.383	10.340	0.255	0.196
-689.368	93.552	-0.235	0.269
-688.354	186.092	0.183	0.275
-687.339	48.271	-0.112	0.106
-686.324	-26.508	-0.542	-0.321
-685.310	92.128	-0.117	-0.133
-684.295	158.509	0.161	-0.226
-683.281	66.093	0.103	0.105
-682.266	48.716	0.275	0.260
-681.251	800.000	0.064	-0.238
-680.237	230.987	-0.180	0.297
-679.222	-200.000	0.038	0.172
-678.208	38.241	0.225	0.202
-677.193	-191.085	0.273	-0.003
-676.178	-174.838	0.293	-0.008
-675.164	-148.481	-0.162	-0.013
-674.149	459.723	-0.114	-0.255
-673.135	70.157	0.101	-0.105
-672.120	300.129	-0.133	0.247
-671.105	-14.765	0.126	-0.082
-670.091	-200.000	0.021	-0.162
-669.076	-121.165	0.142	0.024
-668.062	60.269	0.183	-0.183
-667.047	-22.705	0.351	0.214
-666.032	-13.005	0.034	0.022
-665.018	800.000	-0.037	0.116
-664.003	44.847	-0.105	-0.097
-662.989	-121.163	-0.138	0.023
-661.974	-127.157	0.136	0.020
-660.959	4.187	-0.340	0.251
-659.945	-200.000	-0.028	-0.135
-658.930	-70.333	-0.199	0.076
-657.916	75.493	0.040	0.043
-656.901	-174.271	0.243	0.007
-655.886	-25.694	-0.248	-0.147
-654.872	800.000	0.067	0.189
-653.857	800.000	-0.049	-0.167
-652.843	34.540	0.305	-0.268
-651.828	469.057	0.073	-0.166
-650.814	-200.000	-0.037	-0.230
-649.799	-200.000	-0.059	-0.438
-648.784	-36.307	-0.392	0.213
-647.770	800.000	-0.048	-0.194
-646.755	231.918	-0.104	-0.171
-645.741	-56.986	0.059	0.026
-644.726	800.000	-0.011	-0.031
-643.711	17.844	-0.187	-0.150
-642.697	-110.944	-0.155	-0.032
-641.682	19.755	-0.141	-0.114
-640.668	-200.000	0.028	-0.291
-639.653	-188.571	-0.094	0.001
-638.638	-59.039	0.200	0.087
-637.624	-68.910	-0.276	0.107
-636.609	-71.934	0.045	0.017
-635.595	-76.686	-0.119	-0.042
-634.580	-200.000	0.017	0.465
-633.565	-55.599	0.113	0.051
-632.551	0.729	0.289	-0.209
-631.536	-9.928	-0.159	0.107
-630.522	800.000	-0.068	0.234
-629.507	-200.000	-0.091	-0.415
-628.492	39.719	-0.182	-0.165
-627.478	-174.755	0.171	0.005
-626.463	301.535	0.061	-0.114
-625.449	800.000	-0.030	-0.128
-624.434	191.256	-0.131	0.199
-623.419	148.517	-0.049	-0.066
-622.405	0.805	-0.204	0.147
-621.390	-200.000	0.183	0.000
-620.376	324.336	-0.114	0.219
-619.361	-200.000	-0.010	0.078
-618.346	-4.450	0.254	-0.177
-617.332	800.000	0.064	-0.256
-616.317	-200.000	0.034	-0.255
-615.303	-200.000	0.010	0.270
-614.288	-44.300	-0.084	-0.042
-613.273	43.350	-0.195	-0.180
-612.259	12.031	0.187	0.145
-611.244	-163.230	-0.451	0.022
-610.230	149.374	-0.144	-0.196
-609.215	-151.719	-0.151	-0.011
-608.201	290.219	0.040	-0.073
-607.186	-73.355	-0.071	0.026
-606.171	-71.234	-0.387	0.146
-605.157	12.045	-0.180	-0.140
-604.142	65.778	-0.118	-0.120
-603.128	11.182	-0.073	-0.056
-602.113	117.549	-0.151	-0.187
-601.098	-9.676	-0.139	-0.093
-600.084	800.000	0.036	-0.149
-599.069	628.303	0.047	-0.121
-598.055	170.154	0.103	0.148
-597.040	-125.053	0.210	-0.033
-596.025	-34.094	-0.359	-0.199
-595.011	101.285	-0.202	0.237
-593.996	-121.299	0.214	0.036
-592.982	375.127	0.081	-0.165
-591.967	-87.772	-0.304	0.092
-590.952	24.798	-0.157	-0.131
-589.938	-200.000	0.003	-0.075
-588.923	11.545	-0.083	0.064
-587.909	-47.079	-0.168	0.083
-586.894	13.572	0.197	-0.154
-585.879	93.665	0.075	0.085
-584.865	-200.000	0.005	-0.061
-583.850	800.000	-0.093	-0.291
-582.836	-200.000	-0.002	-0.039
-581.821	51.787	-0.036	0.035
-580.806	-200.000	0.005	-0.032
-579.792	-200.000	-0.023	-0.204
-578.777	119.602	-0.087	0.108
-577.763	23.912	0.350	0.290
-576.748	699.928	0.056	-0.147
-575.733	-3.578	-0.128	-0.090
-574.719	-45.473	-0.329	0.164
-573.704	123.364	0.154	0.194
-572.690	-200.000	0.003	-0.025
-571.675	-200.000	-0.010	0.251
-570.661	-184.849	-0.326	-0.005
-569.646	245.492	-0.037	0.063
-568.631	140.805	-0.127	-0.169
-567.617	-200.000	-0.004	0.409
-566.602	-33.495	-0.314	0.174
-565.588	800.000	-0.039	-0.121
-564.573	152.265	-0.087	-0.119
-563.558	143.398	0.281	-0.377
-562.544	100.770	-0.251	0.294
-561.529	-52.216	0.074	0.035
-560.515	108.956	-0.152	-0.183
-559.500	-200.000	-0.031	0.242
-558.485	-170.430	-0.135	0.005
-557.471	34.695	0.198	-0.174
-556.456	105.250	0.130	0.155
-555.442	-200.000	0.009	-0.166
-554.427	-156.833	-0.408	0.025
-553.412	329.313	-0.157	-0.303
-552.398	99.600	-0.151	-0.176
-551.383	191.916	-0.197	0.298
-550.369	189.703	0.111	0.168
-549.354	-100.726	-0.127	-0.031
-548.339	-200.000	-0.002	0.078
-547.325	683.937	-0.093	0.243
-546.310	162.781	0.318	0.448
-545.296	170.819	-0.032	-0.046
-544.281	126.553	0.308	-0.391
-543.266	57.062	-0.110	0.108
-542.252	-97.228	-0.117	0.031
-541.237	255.564	0.081	0.139
-540.223	-16.895	0.289	0.183
-539.208	-200.000	-0.014	-0.340
-538.193	800.000	-0.086	0.264
-537.179	-200.000	-0.037	0.351
-536.164	20.506	-0.078	0.063
-535.150	-7.672	0.261	-0.177
-534.135	-64.141	0.364	-0.149
-533.121	-200.000	-0.035	0.171
-532.106	220.889	0.115	-0.185
-531.091	800.000	-0.046	-0.134
-530.077	51.817	0.203	-0.193
-529.062	-51.534	0.218	-0.102
-528.048	355.399	0.074	-0.147
-527.033	-74.879	0.254	0.091
-526.018	41.471	-0.133	-0.121
-525.004	45.968	-0.078	0.072
-523.989	143.626	-0.121	0.161
-522.975	79.402	-0.114	0.123
-521.960	-173.075	0.187	0.006
-520.945	160.509	0.078	0.109
-519.931	-200.000	0.016	0.184
-518.916	240.206	0.147	0.246
-517.902	368.241	0.072	-0.145
-516.887	182.127	-0.283	0.418
-515.872	-200.000	0.007	-0.184
-514.858	-14.014	-0.307	0.199
-513.843	-118.931	0.496	-0.087
-512.829	-69.781	-0.349	-0.134
-511.814	521.503	-0.070	0.164
-510.799	272.784	-0.090	0.159
-509.785	800.000	0.098	-0.311
-508.770	-53.687	0.478	0.219
-507.756	-153.094	0.340	-0.024
-506.741	-50.843	-0.070	0.033
-505.726	-137.102	-0.368	0.042
-504.712	-162.588	0.325	-0.016
-503.697	674.307	0.039	0.100
-502.683	301.769	0.084	0.155
-501.668	-48.311	-0.086	-0.042
-500.653	800.000	-0.057	-0.209
-499.639	800.000	0.033	-0.120
-498.624	-190.435	0.378	0.004
-497.610	206.963	-0.140	0.219
-496.595	63.483	-0.156	-0.156
-495.581	-72.156	0.163	-0.061
-494.566	-127.517	0.094	0.014
-493.551	800.000	-0.082	-0.347
-492.537	-132.578	-0.347	0.045
-491.522	34.522	0.126	0.110
-490.508	-74.190	0.194	0.070
-489.493	85.247	-0.266	0.292
-488.478	184.110	0.083	-0.122
-487.464	-29.268	0.105	-0.060
-486.449	-69.499	-0.241	-0.093
-485.435	-156.529	-0.167	0.010
-484.420	-200.000	-0.036	-0.250
-483.405	-76.524	-0.080	0.028
-482.391	800.000	0.103	-0.321
-481.376	-84.577	-0.157	-0.050
-480.362	800.000	-0.135	0.498
-479.347	9.538	0.131	-0.099
-478.332	-86.116	-0.184	0.057
-477.318	-81.427	-0.239	0.079
-476.303	-86.852	-0.443	0.136
-475.289	-39.863	0.205	0.107
-474.274	32.540	-0.149	-0.129
-473.259	-200.000	0.019	0.412
-472.245	-44.640	0.294	-0.147
-471.230	200.192	0.198	-0.305
-470.216	542.705	-0.100	-0.239
-469.201	-200.000	-0.031	-0.214
-468.186	65.301	-0.212	-0.215
-467.172	800.000	0.013	0.039
-466.157	54.635	-0.218	-0.211
-465.143	83.702	0.180	-0.197
-464.128	-26.634	-0.112	-0.065
-463.113	-63.245	-0.355	0.147
-462.099	800.000	0.060	0.263
-461.084	138.980	-0.068	-0.089
-460.070	-200.000	-0.019	0.175
-459.055	-125.294	0.139	0.021
-458.040	-200.000	0.004	0.146
-457.026	-147.330	0.184	-0.016
-456.011	774.630	-0.050	0.137
-454.997	-47.393	-0.190	0.093
-453.982	-69.760	-0.200	-0.076
-452.968	-200.000	-0.006	-0.120
-451.953	-75.105	-0.160	-0.057
-450.938	-103.602	-0.309	0.073
-449.924	168.678	-0.025	-0.036
-448.909	-113.837	0.329	0.064
-447.895	800.000	0.069	0.270
-446.880	-200.000	0.013	0.111
-445.865	64.242	-0.337	-0.340
-444.851	-200.000	-0.014	-0.237
-443.836	-200.000	0.052	-0.472
-442.822	91.499	0.056	0.063
-441.807	-200.000	0.018	-0.225
-440.792	-37.085	-0.152	-0.081
-439.778	235.742	0.092	-0.151
-438.763	81.692	0.189	-0.205
-437.749	-164.905	0.228	0.010
-436.734	-200.000	0.034	-0.159
-435.719	114.205	0.071	0.087
-434.705	493.782	-0.024	0.054
-433.690	-200.000	-0.025	-0.157
-432.676	800.000	-0.171	0.488
-431.661	150.531	-0.197	0.268
-430.646	-192.562	-0.334	0.003
-429.632	-38.939	0.232	-0.122
-428.617	-185.021	0.065	0.001
-427.603	69.463	0.102	0.105
-426.588	-200.000	-0.019	0.201
-425.573	-150.433	0.225	-0.017
-424.559	119.586	-0.070	-0.086
-423.544	339.467	0.175	-0.341
-422.530	-200.000	-0.009	-0.064
-421.515	-18.323	-0.218	-0.136
-420.500	-185.972	0.222	-0.003
-419.486	68.814	0.240	0.247
-418.471	45.274	-0.075	0.069
-417.457	-200.000	-0.024	0.136
-416.442	-200.000	-0.005	0.225
-415.428	71.015	-0.136	0.141
-414.413	-51.637	-0.182	-0.085
-413.398	174.811	0.163	0.235
-412.384	-200.000	0.004	0.311
-411.369	-92.179	-0.186	-0.052
-410.355	-145.249	0.345	0.031
-409.340	-200.000	0.079	-0.363
-408.325	-119.152	-0.219	-0.038
-407.311	-200.000	0.003	0.028
-406.296	-200.000	-0.012	-0.495
-405.282	59.534	-0.141	0.139
-404.267	450.095	0.037	0.082
-403.252	178.428	0.333	0.486
-402.238	-26.085	0.122	0.072
-401.223	60.597	-0.194	-0.192
-400.209	303.608	0.105	0.195
-399.194	-143.883	-0.226	-0.021
-398.179	42.697	-0.322	0.292
-397.165	-15.147	0.184	0.118
-396.150	324.342	0.160	0.306
-395.136	199.728	0.167	0.256
-394.121	91.245	0.014	0.016
-393.106	-169.727	-0.164	0.006
-392.092	-15.604	0.132	-0.084
-391.077	544.688	-0.135	0.321
-390.063	-129.514	0.275	-0.038
-389.048	-15.633	0.237	0.151
-388.033	-5.614	-0.230	-0.157
-387.019	-47.958	0.152	0.073
-386.004	179.050	0.140	0.204
-384.990	-28.494	0.240	-0.138
-383.975	158.376	0.122	0.169
-382.960	-148.313	0.047	0.004
-381.946	-200.000	-0.041	-0.221
-380.931	800.000	-0.090	-0.264
-379.917	619.866	-0.071	0.177
-378.902	107.203	0.037	0.044
-377.888	800.000	-0.017	-0.063
-376.873	-200.000	-0.009	-0.261
-375.858	1.103	0.124	-0.089
-374.844	800.000	-0.100	-0.294
-373.829	-31.086	0.040	0.022
-372.815	-71.675	-0.164	0.061
-371.800	-3.537	-0.094	0.065
-370.785	68.386	-0.218	0.223
-369.771	-200.000	-0.039	-0.287
-368.756	48.420	0.046	-0.043
-367.742	-99.473	-0.267	0.067
-366.727	705.929	-0.038	-0.101
-365.712	-91.004	0.097	-0.028
-364.698	800.000	-0.060	-0.196
-363.683	-53.118	-0.080	-0.037
-362.669	-200.000	-0.024	-0.115
-361.654	-186.168	0.152	0.002
-360.639	274.588	-0.260	-0.459
-359.625	-81.493	-0.065	0.021
-358.610	-150.888	-0.104	0.008
-357.596	232.755	0.030	-0.049
-356.581	-63.798	0.354	-0.145
-355.566	-12.150	0.223	0.146
-354.552	-200.000	-0.014	0.116
-353.537	800.000	0.096	0.389
-352.523	800.000	-0.103	0.416
-351.508	-166.116	0.164	0.007
-350.493	-107.578	0.183	-0.040
-349.479	800.000	0.066	-0.223
-348.464	-200.000	0.035	-0.236
-347.450	48.932	0.093	-0.087
-346.435	-110.161	-0.208	0.043
-345.420	218.704	0.090	-0.143
-344.406	-123.927	-0.288	0.045
-343.391	150.030	0.173	0.234
-342.377	571.918	-0.170	0.412
-341.362	-72.811	0.070	-0.026
-340.348	-126.906	0.133	-0.019
-339.333	614.805	-0.084	0.209
-338.318	-96.267	-0.243	-0.064
-337.304	160.300	0.118	0.164
-336.289	-134.275	-0.098	0.012
-335.275	83.197	0.077	0.083
-334.260	-114.380	0.126	-0.024
-333.245	-184.658	-0.268	0.004
-332.231	53.679	0.103	-0.098
-331.216	468.182	0.101	-0.226
-330.202	351.857	-0.177	0.349
-329.187	384.546	0.147	-0.302
-328.172	-151.727	0.550	-0.040
-327.158	-7.301	0.360	-0.243
-326.143	-122.095	0.068	0.011
-325.129	136.333	-0.013	0.016
-324.114	800.000	-0.100	0.295
-323.099	93.086	0.173	-0.194
-322.085	800.000	-0.049	0.137
-321.070	233.414	-0.123	-0.201
-320.056	-200.000	0.017	0.392
-319.041	-92.421	-0.168	0.047
-318.026	-143.095	-0.063	0.006
-317.012	252.312	-0.148	-0.251
-315.997	-78.836	0.343	-0.116
-314.983	-123.636	0.229	-0.036
-313.968	-53.344	0.195	-0.089
-312.953	-148.961	-0.083	0.007
-311.939	126.208	0.106	0.134
-310.924	-200.000	-0.023	0.200
-309.910	263.100	0.071	0.123
-308.895	383.632	-0.151	0.308
-307.880	-108.391	-0.187	0.040
-306.866	-144.171	0.239	0.022
-305.851	114.887	-0.208	0.252
-304.837	42.714	-0.103	-0.094
-303.822	-49.596	0.228	0.108
-302.807	441.086	-0.029	-0.062
-301.793	-14.261	-0.124	0.080
-300.778	800.000	0.161	0.518
-299.764	-37.019	0.119	0.064
-298.749	-48.043	0.143	-0.069
-297.735	800.000	-0.037	0.110
-296.720	-118.871	0.157	-0.027
-295.705	25.821	-0.310	-0.257
-294.691	-200.000	0.085	0.371
-293.676	39.818	0.103	-0.092
-292.662	-116.736	-0.221	-0.040
-291.647	310.595	-0.107	0.200
-290.632	-200.000	0.006	-0.257
-289.618	-7.278	0.202	-0.136
-288.603	201.076	-0.080	-0.123
-287.589	800.000	-0.050	0.154
-286.574	695.409	0.051	0.134
-285.559	701.460	0.062	-0.162
-284.545	70.268	0.185	0.190
-283.530	-70.817	0.194	0.073
-282.516	-141.610	-0.049	-0.005
-281.501	-77.179	0.412	-0.143
-280.486	-128.662	-0.322	-0.045
-279.472	13.624	-0.133	-0.103
-278.457	133.872	0.176	0.226
-277.443	-61.487	0.272	0.114
-276.428	420.698	0.055	0.117
-275.413	59.437	0.100	0.098
-274.399	736.615	-0.071	-0.190
-273.384	9.677	-0.060	-0.045
-272.370	-200.000	0.009	-0.041
-271.355	628.023	-0.067	-0.169
-270.340	-60.366	-0.337	0.142
-269.326	800.000	-0.020	0.064
-268.311	62.329	-0.242	-0.240
-267.297	-134.054	0.066	0.008
-266.282	410.695	-0.154	0.325
-265.267	-150.156	-0.337	0.026
-264.253	-200.000	0.004	-0.199
-263.238	-200.000	-0.050	0.275
-262.224	-30.082	-0.016	-0.009
-261.209	73.761	0.167	0.174
-260.195	-4.975	0.237	0.162
-259.180	-34.319	-0.184	0.100
-258.165	-200.000	0.073	0.357
-257.151	-26.575	-0.104	-0.060
-256.136	-119.227	0.328	-0.057
-255.122	168.113	-0.174	-0.245
-254.107	-143.286	0.499	-0.048
-253.092	-135.818	0.255	-0.030
-252.078	87.819	-0.185	-0.203
-251.063	-184.770	-0.157	0.002
-250.049	4.853	-0.122	0.089
-249.034	-3.510	0.295	-0.204
-248.019	42.901	0.096	-0.086
-247.005	-2.855	0.221	-0.153
-245.990	-105.306	0.269	-0.061
-244.976	-200.000	-0.039	-0.488
-243.961	110.777	0.099	0.118
-242.946	-1.278	0.257	0.180
-241.932	-85.707	-0.168	0.052
-240.917	-133.845	0.310	-0.038
-239.903	-106.784	-0.094	-0.021
-238.888	152.173	0.167	0.227
-237.873	-13.977	0.211	-0.135
-236.859	30.469	-0.242	0.205
-235.844	-106.718	-0.342	0.075
-234.830	-92.854	0.117	-0.033
-233.815	-138.857	0.140	0.015
-232.800	-69.158	0.222	0.085
-231.786	-56.812	0.166	-0.073
-230.771	792.645	0.057	0.154
-229.757	-99.026	-0.407	0.102
-228.742	-74.423	0.333	0.119
-227.727	775.571	0.188	0.510
-226.713	-200.000	-0.004	-0.126
-225.698	-62.907	0.296	-0.121
-224.684	-97.521	0.333	-0.086
-223.669	-98.037	0.130	0.033
-222.655	-200.000	-0.063	-0.328
-221.640	-93.777	0.205	0.056
-220.625	196.707	-0.185	-0.280
-219.611	300.328	-0.121	0.221
-218.596	-58.636	-0.301	-0.130
-217.582	398.210	-0.093	-0.194
-216.567	-75.999	0.126	-0.044
-215.552	-200.000	0.054	0.298
-214.538	800.000	0.075	-0.251
-213.523	-0.305	0.096	0.068
-212.509	-84.814	0.183	0.057
-211.494	800.000	0.047	-0.183
-210.479	-15.844	-0.273	0.172
-209.465	-179.538	-0.198	0.004
-208.450	800.000	0.100	-0.324
-207.436	30.267	0.170	0.144
-206.421	-200.000	0.041	0.217
-205.406	-128.385	-0.104	0.015
-204.392	18.297	0.076	-0.060
-203.377	-188.100	0.434	-0.006
-202.363	-115.881	0.149	0.028
-201.348	-107.184	0.101	-0.022
-200.333	-164.801	-0.186	0.008
-199.319	-10.614	-0.031	-0.021
-198.304	-22.194	0.160	-0.096
-197.290	-112.268	-0.432	-0.086
-196.275	-123.262	0.066	0.011
-195.260	-45.883	-0.100	0.049
-194.246	-140.051	0.264	0.028
-193.231	-128.211	-0.037	0.005
-192.217	-115.072	0.037	0.007
-191.202	-200.000	0.030	0.208
-190.187	800.000	0.076	-0.218
-189.173	-74.520	0.211	-0.075
-188.158	-200.000	-0.026	-0.421
-187.144	153.916	0.163	-0.221
-186.129	-200.000	0.013	0.243
-185.114	113.334	-0.073	-0.088
-184.100	-46.029	-0.048	0.024
-183.085	-64.244	0.235	-0.095
-182.071	92.007	0.142	-0.158
-181.056	-200.000	0.020	0.108
-180.042	-87.459	-0.228	-0.068
-179.027	-96.894	-0.285	0.074
-178.012	-150.954	-0.260	0.019
-176.998	130.338	0.148	0.188
-175.983	12.392	-0.067	0.051
-174.969	211.348	-0.135	-0.211
-173.954	-133.590	0.323	0.040
-172.939	-102.582	-0.082	0.019
-171.925	101.151	-0.179	0.206
-170.910	800.000	-0.051	-0.157
-169.896	523.481	0.080	-0.186
-168.881	344.835	-0.065	0.127
-167.866	-200.000	-0.069	0.314
-166.852	248.602	-0.103	-0.173
-165.837	-200.000	0.015	0.069
-164.823	-124.552	0.214	-0.033
-163.808	69.601	0.035	-0.036
-162.793	-7.234	-0.201	0.135
-161.779	24.388	0.137	-0.112
-160.764	800.000	0.051	0.221
-159.750	161.313	0.127	-0.176
-158.735	-187.838	-0.321	0.004
-157.720	-93.130	-0.211	-0.058
-156.706	-91.305	0.439	0.124
-155.691	-102.297	-0.293	-0.070
-154.677	28.440	-0.326	-0.272
-153.662	-59.550	0.036	0.015
-152.647	17.477	0.277	-0.217
-151.633	-200.000	-0.013	-0.396
-150.618	-144.884	0.085	0.008
-149.604	-200.000	0.027	0.146
-148.589	800.000	0.044	-0.122
-147.574	-41.472	0.201	-0.102
-146.560	10.919	0.067	-0.051
-145.545	-134.800	0.237	0.028
-144.531	129.848	0.066	0.083
-143.516	-6.888	-0.045	0.030
-142.502	191.498	-0.017	-0.026
-141.487	-116.065	-0.302	0.056
-140.472	-2.552	0.238	-0.165
-139.458	243.677	0.185	0.306
-138.443	275.344	0.059	0.104
-137.429	-120.804	-0.090	-0.015
-136.414	542.886	0.057	-0.135
-135.399	-200.000	0.095	0.462
-134.385	-200.000	0.008	0.187
-133.370	800.000	0.044	-0.174
-132.356	-136.372	0.455	0.052
-131.341	-50.248	0.371	0.173
-130.326	-55.956	-0.074	0.033
-129.312	-200.000	-0.024	-0.112
-128.297	800.000	0.029	0.078
-127.283	-172.620	0.297	-0.009
-126.268	-200.000	-0.004	-0.235
-125.253	-200.000	0.025	0.147
-124.239	-149.922	0.187	-0.014
-123.224	-117.416	-0.456	0.081
-122.210	800.000	0.083	0.234
-121.195	800.000	-0.074	-0.287
-120.180	79.887	-0.072	-0.076
-119.166	49.102	0.243	0.225
-118.151	-123.135	-0.205	-0.033
-117.137	75.833	-0.230	-0.240
-116.122	16.422	-0.315	0.246
-115.107	800.000	-0.092	0.281
-114.093	-132.305	-0.234	0.030
-113.078	-82.982	-0.162	0.051
-112.064	179.521	-0.119	0.172
-111.049	-200.000	-0.002	-0.091
-110.034	-200.000	-0.031	0.190
-109.020	435.959	0.148	0.319
-108.005	-13.784	0.113	-0.072
-106.991	46.598	-0.198	0.181
-105.976	-200.000	0.000	-0.004
-104.962	714.886	-0.042	-0.109
-103.947	-37.279	-0.182	-0.096
-102.932	96.926	-0.106	0.119
-101.918	-102.820	0.151	0.035
-100.903	800.000	0.059	0.220
-99.889	-200.000	-0.017	-0.159
-98.874	32.459	-0.145	0.123
-97.859	-200.000	0.039	-0.471
-96.845	105.386	-0.057	-0.067
-95.830	-200.000	-0.015	0.089
-94.816	70.666	0.145	-0.149
-93.801	27.990	0.102	-0.085
-92.786	-41.314	-0.073	0.037
-91.772	-46.050	0.417	0.203
-90.757	24.577	0.089	-0.073
-89.743	163.997	0.159	0.221
-88.728	800.000	-0.029	0.102
-87.713	-96.875	-0.146	0.038
-86.699	800.000	0.065	0.208
-85.684	800.000	-0.054	-0.171
-84.670	422.325	-0.074	0.156
-83.655	-78.013	-0.321	0.109
-82.640	-84.370	-0.194	0.061
-81.626	-20.992	0.118	0.071
-80.611	-14.501	-0.281	0.178
-79.597	-165.498	-0.183	-0.008
-78.582	-192.424	0.084	-0.001
-77.567	-58.127	0.190	0.082
-76.553	-200.000	-0.004	0.394
-75.538	800.000	0.043	-0.164
-74.524	800.000	-0.039	-0.111
-73.509	-26.930	0.138	0.079
-72.494	-58.835	-0.126	0.054
-71.480	-200.000	-0.052	-0.236
-70.465	229.255	0.125	0.201
-69.451	219.856	0.120	0.189
-68.436	87.324	0.058	-0.064
-67.422	-200.000	0.010	0.149
-66.407	-200.000	-0.039	0.182
-65.392	87.642	-0.109	0.119
-64.378	59.031	-0.205	-0.198
-63.363	712.200	-0.023	-0.060
-62.349	151.005	0.125	0.168
-61.334	96.760	-0.822	-0.928
-60.319	-4.409	0.559	0.381
-59.305	800.000	-0.269	-0.821
-58.290	350.421	0.676	1.317
-57.276	485.907	0.768	1.724
-56.261	-200.000	96.402	584.569
-55.246	548.810	1386.208	3271.755
-54.232	156.106	2575.428	3498.848
-53.217	113.117	2149.554	2567.629
-52.203	45.149	1609.314	1461.080
-51.188	37.227	1347.217	1175.360
-50.173	33.948	1305.253	1119.433
-49.159	56.837	1353.174	1298.119
-48.144	59.230	1369.609	1328.135
-47.130	37.436	1326.842	1158.649
-46.115	33.766	1309.737	1122.024
-45.100	33.632	1304.773	1116.936
-44.086	33.744	1302.037	1115.210
-43.071	33.615	1300.357	1112.970
-42.057	33.449	1298.458	1110.329
-41.042	33.678	1296.512	1109.960
-40.027	33.601	1295.085	1108.242
-39.013	33.738	1292.870	1107.102
-37.998	33.613	1291.374	1105.051
-36.984	33.664	1289.570	1103.756
-35.969	33.660	1288.060	1102.401
-34.954	33.836	1286.095	1101.693
-33.940	33.841	1285.203	1100.918
-32.925	33.880	1283.589	1099.718
-31.911	33.906	1282.026	1098.480
-30.896	33.856	1280.708	1097.021
-29.881	33.949	1279.240	1096.259
-28.867	33.939	1277.960	1095.059
-27.852	33.842	1276.420	1093.138
-26.838	33.940	1275.319	1092.717
-25.823	33.815	1273.989	1090.816
-24.809	33.966	1271.963	1089.901
-23.794	33.785	1271.248	1088.210
-22.779	33.834	1270.063	1087.431
-21.765	33.816	1268.578	1086.013
-20.750	33.676	1267.964	1084.645
-19.736	33.725	1266.154	1083.335
-18.721	33.707	1264.946	1082.153
-17.706	33.641	1263.849	1080.798
-16.692	33.673	1262.816	1080.051
-15.677	33.774	1261.531	1079.488
-14.663	33.671	1260.489	1077.967
-13.648	33.737	1259.186	1077.184
-12.633	33.646	1258.499	1076.036
-11.619	33.542	1257.977	1074.957
-10.604	33.731	1256.719	1074.912
-9.590	33.642	1256.043	1073.785
-8.575	33.658	1255.469	1073.344
-7.560	33.696	1253.742	1072.037
-6.546	33.658	1252.972	1071.123
-5.531	33.681	1252.241	1070.585
-4.517	33.649	1251.284	1069.544
-3.502	33.612	1251.151	1069.181
-2.487	33.727	1249.927	1068.740
-1.473	33.564	1246.067	1064.481
-0.458	32.228	1230.648	1043.854
0.556	29.104	1213.225	1006.131
1.571	25.608	1218.312	991.037
2.586	24.887	1234.108	999.767
3.600	24.399	1224.261	989.000
4.615	18.005	1151.218	896.473
5.629	7.210	1072.917	782.361
6.644	2.358	1051.162	742.906
7.659	1.976	1048.851	739.356
8.673	1.858	1047.595	737.833
9.688	1.810	1046.125	736.502
10.702	2.316	1044.582	737.793
11.717	9.250	1054.539	778.441
12.731	19.420	1069.133	838.848
13.746	24.377	1074.443	867.099
14.761	25.094	1075.423	871.298
15.775	25.090	1075.122	870.959
16.790	24.875	1074.194	869.086
17.804	24.795	1074.121	868.559
18.819	24.963	1073.534	868.823
19.834	25.032	1073.047	868.685
20.848	25.143	1072.486	868.696
21.863	25.075	1072.224	868.077
22.877	24.932	1071.847	867.002
23.892	24.890	1070.857	865.919
24.907	25.004	1069.592	865.370
25.921	24.997	1068.909	864.711
26.936	24.968	1067.545	863.391
27.950	24.934	1065.882	861.804
28.965	24.763	1064.440	859.741
29.980	24.895	1062.814	858.982
30.994	25.105	1062.087	859.328
32.009	25.075	1061.032	858.252
33.023	24.724	1059.996	855.661
34.038	24.997	1058.739	855.874
35.053	25.053	1058.455	855.838
36.067	25.057	1057.613	855.098
37.082	25.031	1056.951	854.363
38.096	25.296	1056.027	854.804
39.111	25.280	1055.394	854.140
40.126	25.135	1054.034	852.274
41.140	24.811	1052.372	849.316
42.155	24.766	1050.633	847.629
43.169	24.626	1050.232	846.563
44.184	24.817	1048.999	846.397
45.199	24.689	1048.130	845.017
46.213	24.717	1047.603	844.650
47.228	24.949	1046.530	844.808
48.242	25.005	1045.772	844.382
49.257	24.910	1045.423	843.580
50.271	25.169	1044.494	843.973
51.286	25.137	1043.523	842.966
52.301	25.163	1042.693	842.343
53.315	25.002	1041.562	840.597
54.330	25.017	1040.664	839.870
55.344	25.156	1039.924	839.850
56.359	24.923	1039.414	838.270
57.374	24.844	1037.895	836.601
58.388	24.836	1037.207	835.939
59.403	24.715	1036.730	834.914
60.417	24.671	1035.532	833.672
61.432	24.669	1035.466	833.535
62.447	24.857	1034.356	833.442
63.461	24.874	1034.343	833.438
64.476	24.720	1032.965	831.536
65.490	24.752	1031.737	830.622
66.505	24.836	1031.003	830.349
67.520	24.908	1030.416	830.138
68.534	24.619	1029.662	828.114
69.549	24.297	1028.415	825.550
70.563	24.215	1027.609	824.450
71.578	24.382	1026.835	824.529
72.593	24.271	1025.645	822.989
73.607	24.259	1025.507	822.751
74.622	24.472	1024.966	823.222
75.636	24.490	1024.341	822.730
76.651	24.359	1023.386	821.289
77.666	24.551	1022.140	821.097
78.680	24.469	1021.790	820.368
79.695	24.553	1021.576	820.510
80.709	24.701	1020.892	820.565
81.724	24.712	1020.026	819.847
82.739	24.774	1019.145	819.351
83.753	25.023	1018.652	820.024
84.768	25.482	1017.672	821.262
85.782	25.596	1016.915	821.097
86.797	25.211	1016.180	818.675
87.812	25.151	1014.935	817.325
88.826	25.314	1014.009	817.251
89.841	25.280	1013.622	816.710
90.855	25.305	1012.405	815.772
91.870	25.274	1011.876	815.132
92.884	25.136	1010.502	813.327
93.899	25.125	1009.905	812.725
94.914	25.378	1008.808	812.913
95.928	25.146	1007.714	810.913
96.943	25.006	1006.324	809.090
97.957	24.640	1005.594	806.780
98.972	24.545	1004.244	805.195
99.987	24.705	1004.135	805.758
101.001	25.013	1002.883	806.069
102.016	25.056	1001.988	805.474
103.030	24.945	1000.858	803.992
104.045	24.697	1000.419	802.457
105.060	24.567	999.452	801.029
106.074	24.817	998.282	801.140
107.089	25.104	998.073	802.183
108.103	25.055	996.572	800.691
109.118	24.796	995.414	798.531
110.133	24.819	994.472	797.808
111.147	24.660	993.310	796.099
112.162	24.419	992.390	794.219
113.176	24.683	992.092	795.083
114.191	24.662	991.112	794.132
115.206	24.321	989.912	791.588
116.220	24.327	989.054	790.860
117.235	24.375	988.626	790.661
118.249	24.568	987.203	790.306
119.264	24.390	986.636	788.995
120.279	24.502	985.948	788.869
121.293	24.506	985.620	788.556
122.308	24.496	984.619	787.640
123.322	24.440	983.320	786.286
124.337	24.364	981.729	784.609
125.352	23.836	980.047	780.878
126.366	23.795	979.581	780.255
127.381	24.617	979.421	783.666
128.395	25.039	978.895	785.025
129.410	25.124	978.082	784.677
130.424	25.072	977.125	783.613
131.439	25.119	976.250	783.045
132.454	24.992	975.844	782.095
133.468	24.897	975.040	780.967
134.483	25.019	974.126	780.699
135.497	25.359	973.114	781.296
136.512	25.322	972.386	780.482
137.527	25.285	971.499	779.541
138.541	25.210	971.196	778.904
139.556	25.300	970.069	778.322
140.570	25.408	969.719	778.439
141.585	25.336	968.508	777.087
142.600	25.283	967.331	775.844
143.614	25.549	966.822	776.516
144.629	25.561	966.026	775.861
145.643	25.462	964.649	774.258
146.658	25.384	963.302	772.776
147.673	25.173	962.204	770.920
148.687	25.209	961.011	770.049
149.702	24.970	960.347	768.424
150.716	25.077	959.632	768.241
151.731	25.212	958.962	768.218
152.746	25.397	958.305	768.412
153.760	25.440	957.682	768.029
154.775	25.526	957.230	767.967
155.789	25.309	956.667	766.523
156.804	25.459	955.111	765.844
157.819	25.381	954.387	764.865
158.833	25.474	954.092	764.957
159.848	25.503	952.607	763.820
160.862	25.318	951.761	762.291
161.877	25.398	950.773	761.770
162.892	25.537	949.556	761.317
163.906	25.356	948.683	759.785
164.921	25.466	947.760	759.440
165.935	25.482	946.757	758.639
166.950	25.494	946.004	758.020
167.964	25.347	945.180	756.672
168.979	25.271	944.007	755.347
169.994	25.254	942.973	754.381
171.008	25.475	942.456	754.828
172.023	25.474	942.092	754.464
173.037	25.134	941.144	752.213
174.052	25.063	939.796	750.774
175.067	25.150	939.180	750.577
176.081	25.100	938.752	749.961
177.096	25.212	937.883	749.668
178.110	25.038	936.629	747.874
179.125	24.773	936.394	746.512
180.140	24.878	935.784	746.399
181.154	25.005	935.341	746.510
182.169	25.475	935.270	748.345
183.183	25.434	935.304	748.134
184.198	25.259	934.296	746.536
185.213	25.354	933.100	745.906
186.227	25.516	932.554	746.079
187.242	25.441	931.751	745.057
188.256	25.450	931.093	744.502
189.271	25.547	930.173	744.104
190.286	25.243	929.133	741.946
191.300	24.731	927.696	738.619
192.315	23.713	926.898	733.716
193.329	23.853	925.953	733.483
194.344	24.763	926.563	737.655
195.359	25.310	926.363	739.686
196.373	25.337	926.133	739.546
197.388	25.326	925.462	738.902
198.402	25.301	924.687	738.114
199.417	25.175	924.003	736.982
200.432	25.048	922.753	735.403
201.446	24.928	922.137	734.352
202.461	24.994	921.629	734.153
203.475	24.031	919.762	728.660
204.490	23.292	918.323	724.435
205.504	24.223	919.243	728.905
206.519	24.717	919.332	730.933
207.534	24.990	918.481	731.305
208.548	25.206	918.342	732.013
209.563	25.165	917.196	730.866
210.577	25.153	916.573	730.258
211.592	25.465	916.445	731.362
212.607	25.388	915.525	730.248
213.621	25.524	914.419	729.854
214.636	25.557	913.788	729.421
215.650	25.424	913.427	728.529
216.665	25.621	912.817	728.774
217.680	25.492	911.918	727.469
218.694	25.018	910.690	724.512
219.709	24.988	909.825	723.637
220.723	25.234	909.890	724.618
221.738	25.296	909.301	724.334
222.753	25.194	908.279	723.045
223.767	25.327	908.387	723.605
224.782	25.703	907.667	724.481
225.796	25.627	907.384	723.883
226.811	24.928	905.782	719.734
227.826	24.121	904.844	715.685
228.840	24.350	904.321	716.125
229.855	24.450	903.635	715.921
230.869	24.218	902.211	713.799
231.884	24.549	902.223	715.070
232.899	25.280	902.341	718.027
233.913	25.253	901.621	717.284
234.928	25.312	901.014	716.973
235.942	25.139	900.225	715.592
236.957	24.806	899.767	713.836
237.972	24.996	898.572	713.580
238.986	25.114	898.073	713.590
240.001	24.950	897.936	712.765
241.015	25.127	897.337	712.932
242.030	25.228	896.673	712.744
243.045	25.335	896.159	712.693
244.059	25.379	895.934	712.627
245.074	25.257	895.160	711.467
246.088	24.926	893.956	709.133
247.103	25.169	893.973	710.048
248.117	25.834	893.806	712.485
249.132	25.858	893.457	712.236
250.147	26.033	892.633	712.210
251.161	26.118	892.716	712.545
252.176	26.098	891.816	711.686
253.190	26.252	891.307	711.826
254.205	26.437	890.862	712.133
255.220	26.293	890.186	710.964
256.234	26.178	889.332	709.766
257.249	26.232	888.570	709.309
258.263	26.084	888.286	708.437
259.278	26.220	887.622	708.380
260.293	26.375	886.834	708.296
261.307	26.203	886.123	706.992
262.322	25.998	885.001	705.233
263.336	25.116	883.444	700.484
264.351	24.263	881.275	695.376
265.366	24.338	880.946	695.348
266.380	25.400	881.809	700.108
267.395	25.805	881.317	701.234
268.409	25.821	880.819	700.838
269.424	25.982	880.490	701.140
270.439	25.925	879.674	700.208
271.453	25.999	878.984	699.883
272.468	26.266	879.227	701.052
273.482	26.235	878.350	700.171
274.497	25.864	877.101	697.676
275.512	25.445	876.107	695.201
276.526	25.993	876.185	697.322
277.541	26.116	875.797	697.426
278.555	25.815	875.064	695.621
279.570	25.719	874.309	694.586
280.585	25.871	873.906	694.792
281.599	25.779	872.933	693.602
282.614	25.299	871.248	690.359
283.628	25.441	870.436	690.199
284.643	25.525	871.249	691.105
285.657	25.312	869.900	689.156
286.672	25.029	869.086	687.366
287.687	25.538	869.253	689.387
288.701	25.478	868.763	688.707
289.716	25.179	867.760	686.707
290.730	25.112	866.834	685.658
291.745	24.901	866.031	684.155
292.760	25.307	866.153	685.741
293.774	26.149	866.333	689.041
294.789	26.535	865.868	690.083
295.803	26.572	865.696	690.023
296.818	26.615	864.787	689.403
297.833	26.135	863.722	686.666
298.847	26.053	862.735	685.510
299.862	26.371	862.679	686.612
300.876	26.616	862.397	687.257
301.891	26.483	861.457	685.943
302.906	25.969	861.167	683.705
303.920	26.216	860.602	684.132
304.935	26.464	860.102	684.612
305.949	26.559	859.468	684.405
306.964	26.200	858.644	682.331
307.979	26.369	858.434	682.743
308.993	26.709	858.059	683.666
310.008	26.719	857.691	683.351
311.022	26.290	856.875	681.023
312.037	26.178	856.202	680.006
313.052	26.032	855.012	678.453
314.066	25.074	853.512	673.603
315.081	24.725	852.920	671.764
316.095	25.633	853.271	675.392
317.110	26.306	853.029	677.666
318.125	25.387	851.158	672.683
319.139	24.277	849.972	667.532
320.154	24.339	849.617	667.426
321.168	25.281	850.098	671.270
322.183	25.882	850.193	673.529
323.197	26.050	849.962	673.916
324.212	26.328	849.493	674.522
325.227	26.279	848.975	673.867
326.241	26.141	847.948	672.480
327.256	26.123	847.342	671.874
328.270	26.026	846.816	671.035
329.285	25.804	845.873	669.406
330.300	25.554	845.347	668.000
331.314	25.995	844.948	669.260
332.329	26.420	844.660	670.552
333.343	26.375	844.399	670.117
334.358	26.356	844.075	669.731
335.373	26.490	843.774	669.929
336.387	26.746	844.010	671.006
337.402	26.813	843.689	670.938
338.416	26.919	842.842	670.598
339.431	26.811	842.964	670.237
340.446	26.958	843.143	670.861
341.460	26.731	842.255	669.259
342.475	26.682	841.752	668.618
343.489	26.828	841.351	668.781
344.504	27.082	841.048	669.414
345.519	27.244	840.468	669.489
346.533	27.370	839.813	669.373
347.548	27.229	839.369	668.443
348.562	27.133	838.763	667.547
349.577	27.086	838.746	667.303
350.592	27.208	837.776	666.919
351.606	27.092	836.863	665.709
352.621	26.929	836.085	664.434
353.635	27.084	835.110	664.167
354.650	26.352	833.867	660.447
355.665	25.358	832.400	655.599
356.679	25.562	832.620	656.460
357.694	26.286	831.970	658.527
358.708	26.226	831.232	657.666
359.723	26.571	831.367	658.970
360.738	26.824	830.775	659.364
361.752	26.931	830.097	659.158
362.767	27.307	830.089	660.457
363.781	27.487	830.082	661.048
364.796	27.600	829.572	660.993
365.810	27.679	829.114	660.855
366.825	27.683	828.442	660.275
367.840	27.275	827.801	658.228
368.854	26.874	826.730	655.869
369.869	27.000	826.671	656.221
370.883	26.948	826.208	655.606
371.898	26.825	825.688	654.692
372.913	26.937	825.583	654.957
373.927	27.080	824.989	654.942
374.942	27.147	824.693	654.890
375.956	27.252	824.002	654.660
376.971	27.451	823.678	655.062
377.986	27.530	823.530	655.173
379.000	27.384	823.369	654.458
380.015	27.261	822.140	652.983
381.029	27.330	821.747	652.860
382.044	27.621	821.178	653.394
383.059	27.561	820.822	652.838
384.073	27.361	820.207	651.574
385.088	27.480	819.583	651.447
386.102	27.464	818.339	650.344
387.117	27.476	817.734	649.850
388.132	26.870	817.042	647.081
389.146	26.265	816.103	644.122
390.161	26.848	816.046	646.100
391.175	27.116	816.072	647.017
392.190	26.912	815.061	645.433
393.205	25.569	812.541	638.616
394.219	24.197	810.707	632.252
395.234	24.011	810.846	631.645
396.248	25.650	811.835	638.176
397.263	26.915	813.271	643.742
398.278	27.010	812.350	643.291
399.292	26.697	812.233	642.032
400.307	26.715	811.772	641.674
401.321	26.923	810.839	641.617
402.336	27.463	811.039	643.628
403.350	27.773	810.940	644.585
404.365	27.898	810.806	644.866
405.380	28.354	810.326	646.034
406.394	28.287	809.821	645.338
407.409	28.261	809.209	644.700
408.423	28.193	809.312	644.487
409.438	28.208	808.673	643.974
410.453	28.408	808.435	644.432
411.467	28.145	807.727	642.887
412.482	28.090	807.338	642.326
413.496	28.473	806.616	643.037
414.511	28.420	806.344	642.580
415.526	28.364	805.821	641.910
416.540	28.096	805.348	640.535
417.555	27.988	804.588	639.497
418.569	28.063	804.300	639.474
419.584	27.988	803.769	638.734
420.599	27.790	803.313	637.623
421.613	109.911	1283.697	1450.855
422.628	94.880	1353.691	1450.991
