DTS Sentinel unit serial number:	SN413079Multiplexer serial number:	ORYXHardware model number:	OX4-SRSoftware version number:	ORYX F/W v4.00 Oryx Data Collector v3.7.2.0data status	okinstallation	princeton_trtdifferential loss correction	single-endedforward channel	channel 1reverse channel	N/Adate	2019/09/11time	14:44:11forward acquisition time	60.00reverse acquisition time	0.00gamma	496.2192k internal	0.2292k external	0.2292temperature offset calibration	0.9983default loss term (dB/km)	0.3790temperature slope calibration	1.0000multiplexer offset coefficient	1.0000multiplexer slope coefficient	1.0000fibre end	0.00T internal ref (°C)	42.44T ext. ref 1 (°C)	0.91T ext. ref 2 (°C)	37.47length (m)	temperature (°C)	Stokes	anti-Stokes-747.200	164.071	-0.092	0.133
-746.185	314.003	-0.168	0.324
-745.171	289.887	0.133	0.248
-744.156	-200.000	0.057	0.345
-743.142	-115.364	-0.271	0.052
-742.127	345.498	0.049	-0.099
-741.112	800.000	-0.141	-0.500
-740.098	95.668	0.239	0.280
-739.083	53.944	0.205	-0.202
-738.069	-99.707	-0.258	0.066
-737.054	-35.449	0.296	-0.165
-736.039	800.000	-0.005	-0.020
-735.025	-182.991	0.072	-0.001
-734.010	-145.318	-0.321	-0.030
-732.996	451.125	-0.066	-0.150
-731.981	203.800	0.229	-0.363
-730.966	0.731	0.180	-0.132
-729.952	-162.325	-0.218	-0.011
-728.937	-33.921	-0.054	-0.030
-727.923	111.382	-0.243	0.300
-726.908	-57.651	-0.195	-0.088
-725.894	139.939	0.147	0.198
-724.879	-39.624	0.114	-0.061
-723.864	208.008	-0.072	-0.115
-722.850	306.061	0.126	0.239
-721.835	72.388	0.105	0.112
-720.821	-200.000	0.008	-0.037
-719.806	38.263	-0.078	-0.071
-718.791	230.305	0.108	0.181
-717.777	-135.344	0.041	-0.005
-716.762	-200.000	-0.000	0.148
-715.748	-68.281	0.105	0.042
-714.733	102.876	0.205	0.246
-713.718	2.633	-0.152	0.113
-712.704	629.298	-0.034	-0.087
-711.689	-10.122	0.195	-0.132
-710.675	-30.525	-0.093	-0.054
-709.660	-200.000	-0.001	-0.139
-708.645	147.467	-0.064	0.088
-707.631	-200.000	-0.007	-0.131
-706.616	-14.679	0.185	0.121
-705.602	478.800	-0.051	0.118
-704.587	800.000	-0.070	0.201
-703.572	-178.378	-0.133	0.003
-702.558	-200.000	0.005	-0.100
-701.543	-200.000	0.020	-0.144
-700.529	59.452	-0.061	-0.061
-699.514	118.027	0.218	-0.275
-698.499	800.000	0.066	0.224
-697.485	510.277	0.034	0.080
-696.470	139.674	0.134	0.180
-695.456	-200.000	-0.026	0.209
-694.441	108.133	0.118	0.143
-693.426	-200.000	-0.009	0.192
-692.412	95.715	0.131	0.152
-691.397	30.430	-0.149	0.130
-690.383	-200.000	0.006	-0.065
-689.368	-10.116	-0.215	0.146
-688.354	94.645	-0.087	-0.102
-687.339	114.135	-0.090	0.112
-686.324	608.954	-0.038	-0.097
-685.310	-200.000	0.025	-0.208
-684.295	351.039	-0.093	-0.188
-683.281	788.524	-0.044	0.124
-682.266	-107.130	0.179	0.040
-681.251	-90.482	-0.498	-0.147
-680.237	669.667	-0.163	-0.430
-679.222	352.262	-0.046	0.092
-678.208	-200.000	-0.011	-0.070
-677.193	162.084	0.158	-0.226
-676.178	244.239	-0.057	-0.098
-675.164	-93.404	0.193	-0.055
-674.149	-200.000	-0.000	0.061
-673.135	-37.253	-0.257	-0.140
-672.120	-86.565	-0.179	0.056
-671.105	-65.230	0.094	0.039
-670.091	800.000	0.126	-0.413
-669.076	-6.544	0.131	0.091
-668.062	38.258	0.124	0.113
-667.047	-35.693	0.178	-0.099
-666.032	800.000	0.117	0.493
-665.018	137.275	0.173	-0.230
-664.003	635.757	0.060	0.156
-662.989	-54.353	0.214	0.099
-661.974	323.251	-0.227	-0.442
-660.959	-6.023	0.139	-0.097
-659.945	-160.679	0.244	0.013
-658.930	-148.962	0.248	0.020
-657.916	-117.445	0.300	0.055
-656.901	-200.000	0.029	-0.261
-655.886	504.056	0.031	-0.073
-654.872	-120.368	0.152	0.026
-653.857	314.474	0.107	-0.205
-652.843	-183.962	-0.093	-0.002
-651.828	-156.555	0.703	0.045
-650.814	-107.886	-0.260	0.058
-649.799	-200.000	0.001	0.090
-648.784	-98.932	-0.177	0.046
-647.770	-200.000	-0.005	-0.179
-646.755	345.338	-0.121	-0.241
-645.741	-134.882	0.106	0.013
-644.726	220.596	-0.135	-0.220
-643.711	40.324	-0.248	0.228
-642.697	-200.000	0.001	-0.127
-641.682	800.000	0.132	-0.406
-640.668	-200.000	-0.045	-0.249
-639.653	184.830	-0.133	-0.200
-638.638	-200.000	0.044	-0.372
-637.624	-135.666	-0.166	0.020
-636.609	234.727	-0.142	-0.239
-635.595	191.121	-0.145	-0.222
-634.580	48.168	-0.243	0.232
-633.565	167.576	0.078	0.114
-632.551	7.364	-0.027	-0.020
-631.536	628.361	-0.007	0.018
-630.522	-87.648	-0.333	-0.103
-629.507	-32.587	0.309	0.175
-628.492	-156.301	-0.173	0.011
-627.478	-200.000	-0.020	0.263
-626.463	499.730	-0.111	-0.260
-625.449	-180.602	0.084	-0.002
-624.434	317.138	-0.232	-0.448
-623.419	417.132	0.060	-0.130
-622.405	693.085	-0.042	-0.113
-621.390	360.986	-0.135	0.275
-620.376	-200.000	-0.005	-0.197
-619.361	-71.698	0.201	0.077
-618.346	-9.600	0.307	0.209
-617.332	55.299	0.094	-0.093
-616.317	71.247	-0.028	0.030
-615.303	84.102	0.219	-0.244
-614.288	800.000	0.069	-0.206
-613.273	-200.000	-0.030	-0.173
-612.259	4.228	-0.165	0.123
-611.244	-65.006	0.174	0.072
-610.230	-200.000	0.021	-0.125
-609.215	-46.360	-0.348	-0.174
-608.201	-200.000	0.003	0.324
-607.186	-47.986	0.253	-0.125
-606.171	322.282	0.067	0.131
-605.157	-34.278	-0.291	-0.163
-604.142	704.335	-0.053	-0.143
-603.128	2.556	-0.197	-0.146
-602.113	-200.000	0.006	-0.230
-601.098	-200.000	0.041	0.254
-600.084	217.566	0.056	0.090
-599.069	-82.286	-0.282	-0.094
-598.055	14.092	0.197	-0.156
-597.040	48.082	-0.045	0.043
-596.025	73.238	0.082	0.088
-595.011	-15.499	-0.054	-0.035
-593.996	-66.923	0.381	-0.153
-592.982	88.796	0.113	-0.128
-591.967	-200.000	-0.018	0.105
-590.952	-66.186	0.106	0.043
-589.938	11.370	0.108	-0.084
-588.923	-177.758	0.479	0.012
-587.909	176.482	0.174	0.258
-586.894	-6.186	-0.107	-0.074
-585.879	318.901	0.189	-0.364
-584.865	-17.744	0.110	0.070
-583.850	279.529	-0.107	0.195
-582.836	320.504	-0.043	0.083
-581.821	-94.379	0.104	-0.029
-580.806	-84.908	0.281	0.090
-579.792	-200.000	-0.045	-0.643
-578.777	-76.598	-0.301	0.108
-577.763	225.665	0.079	0.130
-576.748	30.087	-0.264	-0.229
-575.733	140.575	0.057	-0.076
-574.719	254.660	-0.094	0.163
-573.704	-133.989	-0.316	0.040
-572.690	153.047	0.153	-0.213
-571.675	191.609	-0.035	0.054
-570.661	-37.800	0.268	0.145
-569.646	-45.987	-0.162	0.081
-568.631	-67.756	0.203	-0.081
-567.617	-82.910	0.156	-0.051
-566.602	776.624	-0.065	0.180
-565.588	242.662	-0.158	0.269
-564.573	-80.147	0.454	-0.155
-563.558	800.000	0.103	-0.317
-562.544	-36.311	0.186	0.102
-561.529	800.000	0.103	-0.454
-560.515	648.281	-0.172	-0.447
-559.500	294.159	-0.183	0.339
-558.485	-200.000	0.395	-0.002
-557.471	-51.744	0.201	0.095
-556.456	800.000	-0.057	-0.177
-555.442	-200.000	-0.060	-0.407
-554.427	-4.972	0.131	-0.092
-553.412	291.221	0.125	-0.230
-552.398	-56.682	-0.351	0.158
-551.383	296.297	-0.087	-0.162
-550.369	-126.578	0.308	-0.046
-549.354	-82.419	0.086	0.028
-548.339	-188.115	-0.185	0.002
-547.325	126.264	-0.018	0.023
-546.310	-104.402	-0.394	0.093
-545.296	800.000	-0.042	0.131
-544.281	67.838	0.122	-0.127
-543.266	75.589	-0.323	-0.347
-542.252	-124.466	-0.211	-0.033
-541.237	68.909	-0.291	0.304
-540.223	478.719	-0.103	0.237
-539.208	-200.000	0.037	-0.241
-538.193	-69.870	0.148	0.057
-537.179	-200.000	0.025	-0.133
-536.164	-62.982	-0.132	0.055
-535.150	218.427	0.223	0.361
-534.135	-167.010	-0.155	0.006
-533.121	800.000	0.099	-0.280
-532.106	-200.000	0.000	0.098
-531.091	800.000	0.130	0.392
-530.077	-133.779	-0.137	-0.017
-529.062	-200.000	-0.027	0.129
-528.048	15.133	0.189	0.150
-527.033	800.000	0.103	-0.366
-526.018	-200.000	0.025	-0.123
-525.004	129.990	0.119	0.155
-523.989	151.645	-0.102	0.141
-522.975	69.646	-0.074	0.077
-521.960	-2.990	-0.161	-0.114
-520.945	105.388	0.036	0.043
-519.931	-101.710	0.023	0.006
-518.916	-56.635	-0.047	-0.021
-517.902	210.554	0.051	0.082
-516.887	-19.177	0.007	0.004
-515.872	-116.068	-0.068	-0.013
-514.858	700.272	0.044	-0.116
-513.843	-200.000	-0.009	0.108
-512.829	139.974	0.123	-0.165
-511.814	-82.683	0.300	-0.098
-510.799	-200.000	-0.036	0.170
-509.785	134.952	0.098	0.129
-508.770	317.568	-0.081	-0.155
-507.756	-192.396	-0.075	-0.001
-506.741	-47.602	0.224	0.110
-505.726	-183.194	0.381	-0.007
-504.712	1.032	-0.119	0.086
-503.697	-141.532	-0.358	-0.037
-502.683	-200.000	-0.000	-0.219
-501.668	340.055	0.124	0.245
-500.653	-200.000	0.028	-0.137
-499.639	-153.058	-0.220	-0.016
-498.624	800.000	-0.048	0.187
-497.610	221.861	-0.095	0.155
-496.595	412.751	-0.067	0.145
-495.581	46.669	-0.139	0.130
-494.566	-200.000	0.048	-0.234
-493.551	-144.948	-0.114	-0.011
-492.537	-200.000	0.016	0.097
-491.522	-90.158	0.221	0.065
-490.508	-167.831	-0.183	0.007
-489.493	6.476	0.155	-0.117
-488.478	-200.000	-0.013	-0.375
-487.464	161.089	0.059	-0.084
-486.449	-200.000	-0.023	-0.395
-485.435	169.682	0.056	0.081
-484.420	143.426	-0.069	-0.092
-483.405	800.000	-0.122	-0.352
-482.391	-200.000	-0.012	0.164
-481.376	-171.497	-0.440	-0.015
-480.362	192.285	-0.083	0.127
-479.347	-200.000	0.025	-0.158
-478.332	114.102	-0.093	-0.115
-477.318	10.871	0.242	0.187
-476.303	609.287	0.053	0.134
-475.289	-200.000	0.086	-0.385
-474.274	-19.852	-0.359	-0.225
-473.259	-105.752	0.226	-0.052
-472.245	-33.800	0.184	0.103
-471.230	800.000	0.041	-0.163
-470.216	31.046	0.229	-0.199
-469.201	-200.000	-0.000	0.146
-468.186	90.813	-0.137	0.156
-467.172	-145.393	-0.084	-0.008
-466.157	-93.337	0.152	-0.043
-465.143	186.418	-0.102	0.154
-464.128	202.153	-0.098	-0.153
-463.113	800.000	-0.014	0.049
-462.099	-85.820	0.189	0.059
-461.084	141.745	0.233	-0.313
-460.070	79.777	-0.094	-0.102
-459.055	160.022	-0.028	-0.040
-458.040	-146.943	0.231	0.020
-457.026	-139.425	0.281	0.030
-456.011	-31.690	-0.237	0.134
-454.997	-89.198	-0.134	0.040
-453.982	136.043	0.058	-0.077
-452.968	-200.000	-0.051	0.335
-451.953	-14.767	-0.198	0.129
-450.938	96.314	0.041	0.048
-449.924	-161.749	-0.306	0.016
-448.909	-73.959	-0.210	0.077
-447.895	165.711	-0.097	-0.140
-446.880	233.120	0.148	-0.247
-445.865	33.212	-0.173	-0.152
-444.851	374.933	0.066	-0.136
-443.836	-11.847	-0.168	-0.112
-442.822	-135.870	-0.255	0.030
-441.807	-200.000	-0.017	0.311
-440.792	-200.000	0.003	0.188
-439.778	109.422	-0.150	-0.181
-438.763	231.259	-0.125	0.207
-437.749	90.125	-0.041	0.046
-436.734	-167.900	-0.179	-0.007
-435.719	800.000	-0.024	-0.095
-434.705	-48.261	0.273	-0.133
-433.690	250.171	-0.165	-0.283
-432.676	-10.172	-0.293	-0.197
-431.661	-22.979	0.144	0.088
-430.646	247.255	-0.162	0.277
-429.632	-117.192	0.148	0.027
-428.617	-200.000	0.034	0.244
-427.603	91.821	0.056	0.064
-426.588	800.000	0.044	-0.169
-425.573	-44.340	-0.047	0.024
-424.559	800.000	0.047	0.162
-423.544	180.298	-0.113	0.168
-422.530	38.584	-0.137	-0.124
-421.515	8.633	0.334	0.254
-420.500	-14.130	-0.089	-0.058
-419.486	-103.943	-0.206	0.049
-418.471	-93.099	0.281	-0.079
-417.457	-200.000	0.028	-0.183
-416.442	-114.270	-0.374	0.073
-415.428	-79.109	0.221	0.076
-414.413	-200.000	0.001	-0.098
-413.398	800.000	-0.078	-0.231
-412.384	427.621	-0.035	0.076
-411.369	-139.368	0.089	-0.010
-410.355	-2.538	0.274	-0.194
-409.340	108.373	-0.170	-0.205
-408.325	325.611	0.180	0.347
-407.311	-80.258	0.111	0.037
-406.296	-92.673	0.129	-0.037
-405.282	-67.653	0.080	0.032
-404.267	800.000	0.056	-0.199
-403.252	-200.000	0.023	0.141
-402.238	-200.000	0.051	0.268
-401.223	582.212	0.130	0.322
-400.209	800.000	-0.009	0.028
-399.194	-152.151	0.171	0.013
-398.179	-51.309	-0.045	0.021
-397.165	-95.163	0.157	0.043
-396.150	-121.826	0.126	0.021
-395.136	204.561	-0.146	0.229
-394.121	156.628	-0.164	-0.229
-393.106	-200.000	-0.021	-0.176
-392.092	-5.024	-0.163	-0.113
-391.077	800.000	-0.084	0.258
-390.063	-177.940	0.118	0.003
-389.048	800.000	0.086	0.267
-388.033	-200.000	-0.031	0.355
-387.019	294.067	-0.077	0.142
-386.004	-65.256	-0.205	-0.083
-384.990	61.548	-0.166	0.167
-383.975	-87.884	0.192	0.058
-382.960	-108.039	0.241	-0.053
-381.946	800.000	0.041	0.125
-380.931	218.085	-0.216	0.347
-379.917	800.000	-0.023	-0.083
-378.902	-200.000	0.027	0.289
-377.888	-87.826	0.380	0.115
-376.873	-31.842	-0.099	0.056
-375.858	-101.876	-0.112	0.027
-374.844	800.000	-0.023	-0.076
-373.829	-11.211	0.054	0.036
-372.815	547.966	0.108	-0.260
-371.800	-200.000	-0.041	0.305
-370.785	-173.872	0.158	-0.005
-369.771	-31.628	-0.187	-0.106
-368.756	-101.152	-0.111	0.028
-367.742	154.733	0.066	-0.092
-366.727	800.000	0.009	-0.031
-365.712	-58.286	0.208	0.091
-364.698	800.000	-0.028	0.122
-363.683	13.629	0.227	0.178
-362.669	-200.000	0.019	0.150
-361.654	-50.099	-0.510	-0.244
-360.639	137.822	0.154	0.204
-359.625	-26.523	-0.125	-0.074
-358.610	-6.044	-0.383	-0.264
-357.596	-110.552	-0.178	-0.037
-356.581	28.535	0.120	0.103
-355.566	142.894	-0.085	-0.113
-354.552	800.000	-0.027	-0.090
-353.537	-80.036	-0.268	0.091
-352.523	40.080	-0.400	0.363
-351.508	-41.280	0.265	0.138
-350.493	-79.907	-0.150	-0.051
-349.479	800.000	0.013	0.045
-348.464	-28.764	-0.162	0.094
-347.450	153.010	0.246	0.340
-346.435	31.526	0.043	-0.037
-345.420	160.494	0.205	-0.288
-344.406	122.504	-0.224	-0.282
-343.391	73.477	-0.116	-0.122
-342.377	-10.300	-0.160	-0.107
-341.362	466.580	0.114	-0.258
-340.348	-70.420	0.213	-0.081
-339.333	154.632	-0.240	0.332
-338.318	11.650	0.120	0.093
-337.304	-102.871	0.164	0.039
-336.289	-72.947	0.241	-0.089
-335.275	375.904	-0.112	0.229
-334.260	48.651	0.088	-0.083
-333.245	-31.215	-0.077	-0.043
-332.231	-43.050	-0.137	-0.070
-331.216	-200.000	-0.010	-0.100
-330.202	-18.284	-0.176	-0.111
-329.187	82.556	-0.136	-0.149
-328.172	25.279	0.225	-0.188
-327.158	2.516	-0.207	0.151
-326.143	174.758	-0.098	0.142
-325.129	-121.579	-0.259	0.043
-324.114	-112.251	-0.209	0.042
-323.099	446.056	-0.185	0.409
-322.085	666.952	-0.042	0.109
-321.070	-200.000	-0.033	-0.177
-320.056	-80.091	0.264	-0.089
-319.041	479.947	0.129	-0.294
-318.026	-200.000	-0.037	0.175
-317.012	-149.482	0.368	-0.029
-315.997	-111.826	-0.175	-0.036
-314.983	172.874	-0.153	0.222
-313.968	-34.471	-0.109	-0.060
-312.953	119.075	0.113	0.141
-311.939	-54.576	0.361	0.164
-310.924	-194.061	-0.343	0.003
-309.910	-71.900	-0.208	-0.078
-308.895	-151.066	-0.147	0.011
-307.880	368.295	0.102	-0.208
-306.866	-49.928	0.161	0.077
-305.851	85.197	-0.067	0.074
-304.837	63.324	-0.099	-0.100
-303.822	-29.268	0.107	-0.062
-302.807	94.036	0.239	-0.273
-301.793	57.519	0.253	-0.249
-300.778	-105.660	0.192	0.044
-299.764	-90.774	-0.081	-0.023
-298.749	257.443	-0.065	-0.112
-297.735	-75.954	-0.139	0.049
-296.720	-121.733	0.081	0.014
-295.705	323.641	0.050	-0.096
-294.691	201.211	-0.072	-0.112
-293.676	-109.621	0.257	0.055
-292.662	10.290	-0.383	0.293
-291.647	-200.000	-0.024	-0.123
-290.632	21.617	-0.140	0.115
-289.618	-13.013	-0.198	0.130
-288.603	238.270	-0.065	-0.108
-287.589	-87.537	-0.211	0.064
-286.574	-78.085	0.067	0.023
-285.559	50.288	0.188	0.179
-284.545	800.000	-0.049	-0.173
-283.530	45.972	0.272	0.253
-282.516	-200.000	0.045	0.216
-281.501	172.978	0.061	-0.088
-280.486	-0.457	0.073	-0.052
-279.472	161.154	0.103	0.145
-278.457	-59.047	-0.211	0.091
-277.443	-165.477	-0.273	-0.012
-276.428	800.000	0.079	0.283
-275.413	-200.000	0.012	-0.062
-274.399	-200.000	-0.043	0.208
-273.384	-99.199	-0.216	0.055
-272.370	-200.000	0.046	0.282
-271.355	-1.763	0.120	-0.085
-270.340	800.000	-0.054	0.229
-269.326	-82.204	-0.231	-0.076
-268.311	-80.185	-0.215	-0.072
-267.297	-200.000	-0.005	0.032
-266.282	-200.000	0.042	0.234
-265.267	-52.467	-0.206	0.096
-264.253	-127.683	0.442	-0.064
-263.238	-126.739	0.231	0.034
-262.224	-200.000	-0.009	-0.227
-261.209	-200.000	0.003	-0.050
-260.195	-46.989	-0.075	0.037
-259.180	147.838	0.012	0.016
-258.165	800.000	0.029	-0.097
-257.151	-128.302	-0.257	-0.037
-256.136	-200.000	0.003	-0.243
-255.122	-122.559	0.384	-0.063
-254.107	-200.000	0.061	-0.319
-253.092	-55.043	0.118	-0.054
-252.078	-200.000	-0.054	0.348
-251.063	482.236	0.090	-0.204
-250.049	-121.678	0.239	-0.040
-249.034	37.852	-0.070	-0.062
-248.019	-200.000	-0.008	-0.286
-247.005	800.000	0.059	-0.212
-245.990	-61.200	-0.075	-0.032
-244.976	-79.992	0.035	-0.012
-243.961	-200.000	0.022	0.188
-242.946	363.609	0.061	0.123
-241.932	-200.000	0.048	-0.217
-240.917	365.433	0.099	-0.200
-239.903	438.194	0.055	-0.121
-238.888	800.000	-0.133	0.442
-237.873	154.071	-0.204	0.281
-236.859	132.671	-0.137	0.178
-235.844	800.000	0.029	-0.107
-234.830	-109.806	0.050	0.010
-233.815	-115.258	0.108	-0.020
-232.800	-95.600	0.384	-0.103
-231.786	-0.654	0.211	-0.150
-230.771	-199.902	-0.186	0.001
-229.757	35.588	-0.110	-0.097
-228.742	-84.927	0.275	0.087
-227.727	-200.000	-0.002	-0.437
-226.713	-200.000	0.034	-0.207
-225.698	61.214	0.043	0.043
-224.684	50.546	0.260	0.246
-223.669	42.421	0.136	-0.124
-222.655	-49.969	-0.327	0.156
-221.640	46.312	-0.123	-0.114
-220.625	87.066	0.115	0.127
-219.611	-62.455	-0.073	-0.030
-218.596	-22.297	0.286	0.174
-217.582	-94.243	0.086	0.024
-216.567	77.686	-0.314	0.335
-215.552	302.345	0.179	-0.332
-214.538	-145.121	-0.313	0.029
-213.523	604.899	0.122	-0.304
-212.509	310.498	-0.006	0.011
-211.494	-127.694	0.250	-0.036
-210.479	164.645	0.288	0.408
-209.465	-200.000	-0.012	0.131
-208.450	-200.000	0.021	-0.173
-207.436	-37.836	0.139	0.074
-206.421	-200.000	0.041	0.287
-205.406	353.408	0.073	0.145
-204.392	-94.552	-0.205	0.056
-203.377	-200.000	-0.052	-0.317
-202.363	-90.411	0.126	0.037
-201.348	-200.000	-0.183	-0.000
-200.333	-186.633	0.338	0.005
-199.319	103.971	0.137	-0.162
-198.304	181.277	0.125	0.185
-197.290	800.000	0.071	-0.308
-196.275	18.580	-0.255	0.204
-195.260	-58.020	-0.085	0.037
-194.246	800.000	-0.024	-0.072
-193.231	-52.382	-0.282	0.131
-192.217	125.994	0.277	0.351
-191.202	105.606	0.151	-0.179
-190.187	-17.184	-0.100	-0.063
-189.173	-200.000	-0.022	0.205
-188.158	320.087	0.070	0.134
-187.144	245.930	-0.154	0.260
-186.129	-164.716	0.096	0.004
-185.114	-94.580	-0.047	0.013
-184.100	-110.917	-0.202	-0.042
-183.085	-151.954	0.213	-0.016
-182.071	-200.000	0.007	-0.060
-181.056	391.456	-0.079	-0.163
-180.042	15.531	0.167	-0.131
-179.027	60.995	-0.326	0.324
-178.012	800.000	0.035	0.129
-176.998	127.307	-0.173	0.220
-175.983	26.604	0.219	0.184
-174.969	-83.810	-0.364	-0.116
-173.954	416.376	0.094	0.201
-172.939	-200.000	-0.020	0.195
-171.925	31.332	0.059	0.051
-170.910	800.000	0.054	0.183
-169.896	115.180	0.262	-0.320
-168.881	442.197	-0.123	-0.270
-167.866	89.043	-0.398	0.444
-166.852	800.000	-0.004	-0.013
-165.837	-69.973	-0.213	0.081
-164.823	29.660	0.365	0.311
-163.808	-125.291	-0.385	0.059
-162.793	-115.474	0.140	0.026
-161.779	-141.393	0.511	0.052
-160.764	800.000	-0.054	0.179
-159.750	-24.494	0.125	0.075
-158.735	-200.000	0.063	-0.278
-157.720	-200.000	-0.011	0.076
-156.706	-69.468	0.250	0.096
-155.691	-13.710	0.087	-0.056
-154.677	-200.000	0.004	0.018
-153.662	800.000	0.043	0.145
-152.647	135.924	-0.106	0.138
-151.633	-73.868	0.331	-0.120
-150.618	112.454	0.075	0.091
-149.604	-45.623	-0.090	-0.045
-148.589	-200.000	0.002	0.132
-147.574	-17.485	-0.132	0.083
-146.560	42.918	0.167	-0.152
-145.545	800.000	-0.045	-0.197
-144.531	-84.996	0.117	0.037
-143.516	591.788	0.136	-0.335
-142.502	800.000	0.077	-0.233
-141.487	-73.313	0.393	-0.144
-140.472	-74.389	0.256	-0.092
-139.458	-75.969	0.093	0.033
-138.443	24.162	0.138	0.114
-137.429	-158.383	-0.308	0.018
-136.414	800.000	0.035	0.117
-135.399	144.739	0.134	-0.180
-134.385	159.500	-0.140	-0.194
-133.370	118.455	0.076	-0.094
-132.356	-73.508	0.248	0.090
-131.341	-200.000	0.014	0.082
-130.326	-200.000	0.035	0.255
-129.312	40.268	-0.058	0.052
-128.297	-200.000	0.010	-0.092
-127.283	565.323	-0.055	-0.133
-126.268	-36.113	0.307	0.166
-125.253	-90.583	0.322	-0.093
-124.239	-89.491	-0.211	0.062
-123.224	139.417	0.130	0.171
-122.210	-11.164	0.104	0.069
-121.195	39.317	-0.313	0.280
-120.180	123.781	0.137	0.172
-119.166	58.435	0.156	-0.152
-118.151	-121.889	-0.385	-0.063
-117.137	-193.860	0.314	-0.003
-116.122	0.705	-0.253	0.181
-115.107	218.157	-0.063	-0.100
-114.093	27.946	-0.196	-0.165
-113.078	109.895	0.086	-0.103
-112.064	-138.618	0.135	0.015
-111.049	-2.718	-0.026	0.018
-110.034	-200.000	-0.019	0.199
-109.020	-128.349	-0.073	0.010
-108.005	113.639	0.137	0.166
-106.991	800.000	-0.022	-0.080
-105.976	408.559	0.126	0.266
-104.962	-62.686	-0.168	0.070
-103.947	-200.000	0.010	-0.272
-102.932	79.291	0.143	0.153
-101.918	-200.000	0.105	0.565
-100.903	-200.000	-0.059	-0.356
-99.889	386.776	-0.073	0.150
-98.874	-60.690	0.112	0.047
-97.859	557.463	0.058	0.139
-96.845	425.093	-0.301	0.646
-95.830	-128.553	0.144	0.020
-94.816	-200.000	0.000	0.203
-93.801	740.632	-0.028	-0.076
-92.786	-45.065	-0.126	0.062
-91.772	-200.000	0.013	-0.081
-90.757	-83.652	0.338	-0.108
-89.743	685.376	0.009	0.023
-88.728	232.167	-0.126	0.206
-87.713	314.075	-0.081	0.152
-86.699	713.636	0.129	0.342
-85.684	-165.338	-0.223	-0.010
-84.670	-188.490	-0.044	-0.001
-83.655	47.214	0.100	0.093
-82.640	-181.207	0.115	0.002
-81.626	-87.809	-0.447	-0.134
-80.611	-82.481	0.174	-0.056
-79.597	-48.782	0.250	0.120
-78.582	-200.000	0.011	-0.058
-77.567	800.000	-0.040	0.159
-76.553	10.642	0.147	0.112
-75.538	500.703	-0.083	0.190
-74.524	-200.000	0.001	0.321
-73.509	-93.717	0.486	0.134
-72.494	175.437	0.052	0.075
-71.480	-179.711	0.130	-0.003
-70.465	16.713	0.130	0.103
-69.451	18.009	0.128	0.102
-68.436	268.144	0.041	-0.072
-67.422	-80.281	0.254	0.085
-66.407	800.000	0.057	0.220
-65.392	174.143	0.127	0.184
-64.378	-71.433	-0.204	-0.076
-63.363	-29.753	0.188	0.107
-62.349	-200.000	0.058	0.321
-61.334	229.576	-0.454	-0.739
-60.319	-73.656	0.381	0.138
-59.305	-200.000	-0.052	-0.472
-58.290	375.943	0.301	0.613
-57.276	380.479	0.791	1.617
-56.261	-200.000	75.005	528.545
-55.246	562.615	1300.930	3137.123
-54.232	146.610	2532.005	3389.829
-53.217	121.443	2227.398	2765.342
-52.203	55.309	1665.602	1605.241
-51.188	46.700	1383.431	1280.118
-50.173	42.688	1336.102	1212.153
-49.159	60.608	1370.114	1352.358
-48.144	68.418	1388.675	1418.021
-47.130	46.840	1350.916	1250.682
-46.115	42.530	1335.151	1210.145
-45.100	42.303	1330.248	1204.286
-44.086	42.223	1328.095	1201.815
-43.071	42.210	1325.346	1199.197
-42.057	42.262	1322.992	1197.332
-41.042	42.196	1321.426	1195.471
-40.027	42.234	1320.036	1194.392
-39.013	42.309	1317.817	1192.784
-37.998	42.265	1316.080	1190.906
-36.984	42.419	1314.091	1189.968
-35.969	42.515	1312.540	1189.089
-34.954	42.479	1311.181	1187.597
-33.940	42.454	1309.459	1185.843
-32.925	42.544	1308.029	1185.031
-31.911	42.552	1306.229	1183.399
-30.896	42.543	1304.708	1181.922
-29.881	42.475	1303.758	1180.614
-28.867	42.490	1302.384	1179.413
-27.852	42.529	1300.566	1177.947
-26.838	42.535	1298.958	1176.481
-25.823	42.601	1297.849	1175.814
-24.809	42.585	1296.121	1174.107
-23.794	42.548	1295.140	1172.956
-22.779	42.587	1293.496	1171.649
-21.765	42.621	1292.165	1170.598
-20.750	42.652	1290.514	1169.234
-19.736	42.387	1289.380	1166.623
-18.721	42.481	1288.060	1165.925
-17.706	42.452	1286.842	1164.606
-16.692	42.369	1285.883	1163.210
-15.677	42.460	1284.445	1162.395
-14.663	42.355	1283.866	1161.216
-13.648	42.306	1282.699	1159.827
-12.633	42.234	1281.831	1158.580
-11.619	42.477	1280.162	1158.429
-10.604	42.411	1279.508	1157.415
-9.590	42.323	1278.500	1155.949
-8.575	42.260	1277.873	1154.971
-7.560	42.313	1276.688	1154.160
-6.546	42.293	1275.884	1153.269
-5.531	42.289	1275.150	1152.542
-4.517	42.328	1274.111	1151.778
-3.502	42.468	1272.868	1151.414
-2.487	42.293	1272.585	1150.109
-1.473	42.434	1268.811	1147.456
-0.458	41.615	1253.915	1129.312
0.556	37.191	1234.056	1090.241
1.571	33.245	1236.843	1070.333
2.586	31.973	1252.049	1076.109
3.600	30.560	1241.511	1058.916
4.615	21.659	1163.395	944.443
5.629	7.726	1077.142	804.308
6.644	1.365	1051.877	753.870
7.659	0.909	1048.826	749.361
8.673	0.741	1047.633	747.608
9.688	0.617	1046.495	746.116
10.702	1.147	1045.682	748.088
11.717	9.354	1057.446	797.256
12.731	20.701	1073.998	866.486
13.746	23.996	1077.060	885.299
14.761	23.351	1075.679	880.881
15.775	23.199	1074.828	879.353
16.790	22.956	1073.683	877.130
17.804	22.908	1073.468	876.642
18.819	22.952	1072.940	876.351
19.834	23.138	1072.096	876.505
20.848	23.052	1071.849	875.800
21.863	22.997	1071.436	875.111
22.877	23.023	1070.718	874.577
23.892	22.989	1069.900	873.662
24.907	23.045	1069.368	873.430
25.921	23.091	1067.803	872.297
26.936	22.968	1066.680	870.698
27.950	23.023	1065.157	869.647
28.965	22.687	1063.678	866.715
29.980	22.780	1062.168	865.863
30.994	23.092	1060.947	866.318
32.009	23.163	1059.989	865.808
33.023	22.866	1058.422	863.002
34.038	22.927	1057.841	862.749
35.053	22.997	1057.611	862.823
36.067	22.927	1056.687	861.652
37.082	23.105	1055.293	861.308
38.096	23.163	1054.836	861.142
39.111	23.360	1054.498	861.749
40.126	22.998	1053.104	858.773
41.140	22.764	1051.400	856.172
42.155	22.623	1049.637	853.977
43.169	22.657	1049.010	853.555
44.184	22.690	1047.796	852.654
45.199	22.475	1047.093	850.969
46.213	22.690	1045.877	850.940
47.228	22.835	1045.322	851.114
48.242	22.922	1044.355	850.669
49.257	22.962	1043.506	850.094
50.271	23.151	1042.771	850.330
51.286	23.058	1042.442	849.541
52.301	23.140	1040.893	848.596
53.315	23.000	1039.939	847.070
54.330	22.955	1039.050	846.056
55.344	22.952	1038.220	845.292
56.359	22.906	1037.531	844.437
57.374	22.759	1036.302	842.660
58.388	22.879	1035.486	842.492
59.403	22.725	1034.987	841.280
60.417	22.667	1033.854	840.010
61.432	22.711	1033.431	839.801
62.447	22.842	1032.913	839.928
63.461	22.866	1031.993	839.220
64.476	22.802	1031.015	838.046
65.490	22.618	1030.136	836.385
66.505	22.682	1029.403	836.019
67.520	22.812	1028.622	835.925
68.534	22.634	1027.341	833.969
69.549	22.303	1026.157	831.370
70.563	22.328	1025.526	830.904
71.578	22.224	1025.087	829.983
72.593	22.107	1023.873	828.376
73.607	22.349	1023.332	829.004
74.622	22.527	1023.102	829.584
75.636	22.637	1022.195	829.290
76.651	22.435	1021.162	827.432
77.666	22.464	1020.574	827.017
78.680	22.490	1020.109	826.689
79.695	22.513	1019.754	826.437
80.709	22.694	1018.652	826.318
81.724	22.704	1017.657	825.483
82.739	22.612	1017.078	824.514
83.753	22.965	1016.807	825.868
84.768	23.198	1015.983	826.215
85.782	23.411	1014.856	826.219
86.797	23.203	1013.891	824.392
87.812	23.112	1013.150	823.291
88.826	23.239	1011.856	822.759
89.841	23.243	1011.645	822.534
90.855	23.306	1010.273	821.638
91.870	23.342	1009.188	820.849
92.884	23.184	1007.742	818.868
93.899	23.070	1007.252	817.872
94.914	23.277	1006.271	817.958
95.928	23.148	1005.327	816.523
96.943	22.818	1004.330	814.119
97.957	22.656	1002.794	812.057
98.972	22.465	1001.738	810.252
99.987	22.704	1000.953	810.643
101.001	23.005	1000.417	811.520
102.016	22.932	999.242	810.157
103.030	22.847	998.439	809.047
104.045	22.692	997.662	807.637
105.060	22.594	996.652	806.297
106.074	22.800	995.827	806.499
107.089	23.128	995.459	807.630
108.103	22.933	994.188	805.637
109.118	22.717	993.119	803.714
110.133	22.829	992.029	803.271
111.147	22.653	990.353	801.045
112.162	22.414	989.468	799.172
113.176	22.672	988.925	799.833
114.191	22.657	988.447	799.308
115.206	22.199	987.329	796.262
116.220	22.343	986.310	796.019
117.235	22.441	985.611	795.829
118.249	22.458	984.312	794.786
119.264	22.454	983.699	794.203
120.279	22.395	982.969	793.275
121.293	22.367	982.517	792.716
122.308	22.364	981.300	791.650
123.322	22.474	980.234	791.214
124.337	22.329	979.112	789.588
125.352	21.872	977.591	786.244
126.366	21.860	976.112	784.932
127.381	22.526	976.354	788.036
128.395	22.943	976.076	789.604
129.410	23.066	975.150	789.335
130.424	23.040	974.408	788.551
131.439	22.925	973.521	787.248
132.454	22.908	972.590	786.350
133.468	22.981	971.135	785.431
134.483	23.077	970.387	785.183
135.497	23.346	969.984	785.981
136.512	23.301	969.376	785.220
137.527	23.383	968.094	784.474
138.541	23.333	967.146	783.416
139.556	23.304	966.556	782.737
140.570	23.261	966.275	782.254
141.585	23.443	964.773	781.769
142.600	23.308	963.836	780.348
143.614	23.534	963.540	781.031
144.629	23.621	962.500	780.502
145.643	23.443	961.410	778.769
146.658	23.139	960.323	776.487
147.673	23.126	958.985	775.279
148.687	23.007	958.056	773.938
149.702	23.073	956.614	772.991
150.716	22.941	956.004	771.854
151.731	23.118	955.390	772.063
152.746	23.344	954.525	772.281
153.760	23.357	954.374	772.146
154.775	23.398	953.412	771.477
155.789	23.406	952.527	770.728
156.804	23.415	951.470	769.844
157.819	23.272	950.895	768.691
158.833	23.582	950.083	769.313
159.848	23.526	949.060	768.174
160.862	23.417	947.480	766.356
161.877	23.363	946.700	765.422
162.892	23.415	945.686	764.758
163.906	23.417	944.646	763.861
164.921	23.384	943.891	763.038
165.935	23.361	943.667	762.693
166.950	23.479	942.193	761.938
167.964	23.434	941.265	760.928
168.979	23.226	940.096	759.026
169.994	23.144	939.400	758.044
171.008	23.471	938.877	758.953
172.023	23.390	938.245	758.030
173.037	23.230	937.058	756.322
174.052	23.124	935.565	754.595
175.067	23.125	935.501	754.483
176.081	23.180	934.931	754.190
177.096	23.090	934.423	753.331
178.110	22.870	933.371	751.479
179.125	22.713	932.301	749.885
180.140	22.788	932.415	750.227
181.154	22.861	931.842	750.013
182.169	23.211	931.646	751.273
183.183	23.409	931.293	751.764
184.198	23.275	930.339	750.356
185.213	23.209	929.850	749.616
186.227	23.337	929.045	749.444
187.242	23.339	928.616	749.040
188.256	23.441	927.717	748.678
189.271	23.410	926.674	747.641
190.286	23.114	925.891	745.696
191.300	22.588	924.435	742.242
192.315	21.818	922.562	737.433
193.329	21.756	922.240	736.852
194.344	22.684	922.666	741.026
195.359	23.170	922.893	743.186
196.373	23.502	921.646	743.507
197.388	23.283	921.139	742.117
198.402	23.262	920.826	741.708
199.417	23.281	919.874	740.958
200.432	23.136	919.036	739.612
201.446	22.781	918.266	737.441
202.461	23.023	917.613	737.863
203.475	21.915	916.472	732.258
204.490	21.306	914.452	728.044
205.504	22.159	915.155	732.095
206.519	22.871	914.812	734.719
207.534	22.880	914.333	734.305
208.548	23.388	914.235	736.273
209.563	23.100	913.452	734.383
210.577	23.051	912.925	733.692
211.592	23.517	912.290	735.048
212.607	23.455	911.229	733.868
213.621	23.475	910.993	733.698
214.636	23.419	910.405	732.928
215.650	23.346	909.368	731.724
216.665	23.532	908.889	732.043
217.680	23.468	907.992	730.992
218.694	23.123	906.911	728.637
219.709	22.917	906.074	727.052
220.723	23.100	906.300	727.925
221.738	23.346	905.183	727.974
222.753	23.243	904.911	727.264
223.767	23.391	904.207	727.245
224.782	23.549	904.435	728.010
225.796	23.419	903.370	726.556
226.811	22.919	901.678	723.086
227.826	22.225	900.362	719.128
228.840	22.407	899.973	719.497
229.855	22.497	899.438	719.374
230.869	22.153	898.339	717.027
231.884	22.549	898.223	718.486
232.899	23.297	898.130	721.395
233.913	23.159	897.654	720.390
234.928	23.137	897.298	719.949
235.942	23.321	895.833	719.460
236.957	22.848	895.572	717.265
237.972	22.845	894.931	716.676
238.986	22.892	894.854	716.740
240.001	22.904	894.010	716.050
241.015	22.999	893.705	716.127
242.030	23.135	893.190	716.203
243.045	23.321	892.208	716.104
244.059	23.515	891.780	716.480
245.074	23.278	890.683	714.581
246.088	22.955	889.849	712.545
247.103	23.114	889.518	712.855
248.117	23.691	889.946	715.465
249.132	23.968	889.024	715.772
250.147	24.150	888.389	715.928
251.161	24.227	887.799	715.701
252.176	24.208	887.502	715.322
253.190	24.189	887.025	714.798
254.205	24.162	886.594	714.280
255.220	24.192	886.131	713.963
256.234	24.157	885.340	713.122
257.249	24.101	884.353	712.040
258.263	24.091	883.320	711.107
259.278	24.247	882.785	711.234
260.293	24.098	882.409	710.275
261.307	24.135	881.757	709.832
262.322	23.940	880.893	708.297
263.336	23.311	878.824	704.072
264.351	22.157	877.184	698.117
265.366	22.386	876.521	698.437
266.380	23.211	877.637	702.540
267.395	23.783	877.351	704.516
268.409	23.658	876.394	703.191
269.424	23.880	876.381	703.996
270.439	23.813	875.655	703.086
271.453	23.968	874.862	702.999
272.468	24.173	874.623	703.555
273.482	24.240	874.267	703.469
274.497	23.941	873.014	701.221
275.512	23.404	871.936	698.178
276.526	23.884	872.079	700.122
277.541	24.190	871.627	700.902
278.555	23.751	870.870	698.506
279.570	23.753	869.773	697.570
280.585	23.879	869.502	697.789
281.599	24.056	868.159	697.339
282.614	23.221	867.336	693.348
283.628	23.234	866.931	693.015
284.643	23.662	866.436	694.233
285.657	23.236	865.487	691.746
286.672	22.952	864.811	690.034
287.687	23.486	864.688	691.961
288.701	23.636	863.850	691.813
289.716	23.164	863.468	689.607
290.730	23.098	863.023	688.935
291.745	22.872	862.083	687.243
292.760	23.262	861.680	688.378
293.774	24.310	861.753	692.445
294.789	24.590	861.727	693.454
295.803	24.505	861.425	692.815
296.818	24.595	860.596	692.437
297.833	24.062	859.621	689.528
298.847	24.057	858.287	688.379
299.862	24.395	857.965	689.366
300.876	24.516	858.530	690.225
301.891	24.545	857.215	689.222
302.906	24.075	856.759	686.978
303.920	24.264	856.482	687.425
304.935	24.505	856.018	687.920
305.949	24.453	855.425	687.181
306.964	24.189	854.800	685.603
307.979	24.309	854.246	685.561
308.993	24.696	853.882	686.695
310.008	24.723	853.331	686.296
311.022	24.428	852.442	684.389
312.037	24.332	851.717	683.377
313.052	24.094	850.639	681.540
314.066	23.178	849.268	676.881
315.081	22.748	848.741	674.757
316.095	23.668	849.117	678.511
317.110	24.109	848.726	679.826
318.125	23.490	847.134	676.132
319.139	22.462	845.799	671.088
320.154	22.218	845.788	670.092
321.168	23.066	846.591	673.903
322.183	23.857	845.944	676.337
323.197	24.048	845.507	676.654
324.212	24.257	845.470	677.361
325.227	24.228	844.793	676.645
326.241	24.144	844.060	675.681
327.256	24.024	843.263	674.531
328.270	23.943	842.633	673.660
329.285	23.796	842.211	672.705
330.300	23.586	841.189	671.037
331.314	23.789	840.790	671.424
332.329	24.200	840.684	672.834
333.343	24.408	840.322	673.270
334.358	24.300	840.250	672.743
335.373	24.527	839.582	673.005
336.387	24.630	839.991	673.663
337.402	24.811	839.621	673.986
338.416	24.664	838.987	672.866
339.431	24.888	838.593	673.334
340.446	24.964	838.016	673.097
341.460	24.770	837.850	672.174
342.475	24.585	837.412	671.068
343.489	24.660	836.980	670.945
344.504	25.024	836.509	671.872
345.519	25.228	836.528	672.593
346.533	25.178	835.881	671.824
347.548	25.126	835.517	671.280
348.562	25.043	834.966	670.465
349.577	25.099	834.073	669.901
350.592	25.079	833.579	669.370
351.606	24.999	833.047	668.585
352.621	25.153	831.730	668.043
353.635	24.858	831.127	666.399
354.650	24.252	829.648	662.901
355.665	23.264	828.099	657.938
356.679	23.717	828.264	659.690
357.694	24.212	827.884	661.169
358.708	24.025	827.020	659.728
359.723	24.395	827.044	661.058
360.738	24.760	826.413	661.846
361.752	24.900	826.215	662.146
362.767	25.370	825.460	663.220
363.781	25.420	825.293	663.211
364.796	25.478	825.075	663.190
365.810	25.670	824.727	663.563
366.825	25.528	824.453	662.760
367.840	25.207	823.661	660.879
368.854	24.708	823.052	658.498
369.869	24.795	822.150	658.038
370.883	24.977	821.565	658.180
371.898	24.808	821.209	657.214
372.913	24.957	820.954	657.501
373.927	25.129	820.537	657.737
374.942	25.144	819.735	657.091
375.956	25.311	819.631	657.564
376.971	25.358	819.194	657.325
377.986	25.533	818.856	657.638
379.000	25.578	817.847	656.933
380.015	25.349	817.550	655.801
381.029	25.465	817.138	655.833
382.044	25.532	816.639	655.620
383.059	25.448	816.043	654.776
384.073	25.504	815.543	654.524
385.088	25.552	814.575	653.863
386.102	25.283	813.968	652.339
387.117	25.258	813.743	652.010
388.132	24.874	812.702	649.725
389.146	24.328	811.682	646.872
390.161	24.646	811.676	647.964
391.175	25.162	811.629	649.738
392.190	24.997	810.369	648.075
393.205	23.434	808.515	640.889
394.219	22.045	806.781	634.446
395.234	21.983	806.619	634.037
396.248	23.422	807.843	640.142
397.263	25.052	808.705	646.658
398.278	24.993	808.336	646.093
399.292	24.862	807.467	644.868
400.307	24.865	806.915	644.382
401.321	24.963	806.611	644.436
402.336	25.286	806.693	645.605
403.350	25.728	806.362	646.872
404.365	26.043	806.183	647.801
405.380	26.202	806.139	648.280
406.394	26.389	805.454	648.343
407.409	26.124	804.923	646.907
408.423	25.985	804.733	646.199
409.438	26.055	803.975	645.784
410.453	26.224	803.755	646.156
411.467	26.106	803.113	645.162
412.482	26.112	802.702	644.795
413.496	26.114	802.708	644.751
414.511	26.209	802.080	644.528
415.526	26.294	801.468	644.283
416.540	26.047	800.899	642.888
417.555	25.706	800.217	641.069
418.569	25.814	799.810	641.069
419.584	25.875	799.262	640.791
420.599	25.539	798.657	639.054
421.613	89.750	1249.878	1341.742
422.628	76.672	1315.659	1341.854
