DTS Sentinel unit serial number:	SN413079Multiplexer serial number:	ORYXHardware model number:	OX4-SRSoftware version number:	ORYX F/W v4.00 Oryx Data Collector v3.7.2.0data status	okinstallation	princeton_trtdifferential loss correction	single-endedforward channel	channel 1reverse channel	N/Adate	2019/09/10time	20:52:11forward acquisition time	60.00reverse acquisition time	0.00gamma	496.2192k internal	0.2328k external	0.2328temperature offset calibration	0.9930default loss term (dB/km)	0.3790temperature slope calibration	1.0000multiplexer offset coefficient	1.0000multiplexer slope coefficient	1.0000fibre end	0.00T internal ref (°C)	31.73T ext. ref 1 (°C)	-0.32T ext. ref 2 (°C)	25.30length (m)	temperature (°C)	Stokes	anti-Stokes-747.200	-115.255	0.026	-0.005
-746.185	-200.000	0.030	-0.151
-745.171	-58.419	0.104	-0.046
-744.156	336.390	-0.120	0.236
-743.142	-132.465	0.176	0.023
-742.127	176.900	-0.055	0.081
-741.112	52.840	-0.155	-0.149
-740.098	96.882	0.093	0.107
-739.083	588.098	0.221	0.549
-738.069	-74.302	-0.372	-0.135
-737.054	-200.000	-0.020	-0.314
-736.039	-200.000	-0.045	0.368
-735.025	-200.000	0.080	0.522
-734.010	108.413	0.140	0.168
-732.996	33.407	-0.326	0.285
-731.981	800.000	0.040	0.169
-730.966	-58.756	-0.255	-0.111
-729.952	-200.000	-0.026	0.168
-728.937	800.000	0.030	-0.095
-727.923	159.217	-0.050	0.070
-726.908	65.185	-0.083	-0.084
-725.894	246.809	0.017	-0.028
-724.879	-200.000	0.026	-0.155
-723.864	44.491	0.135	0.125
-722.850	299.033	0.131	0.242
-721.835	-80.997	-0.098	0.033
-720.821	-24.615	-0.341	0.204
-719.806	-44.706	-0.267	-0.134
-718.791	-52.222	-0.185	0.086
-717.777	56.827	-0.158	-0.155
-716.762	194.215	0.222	-0.338
-715.748	389.715	0.123	0.257
-714.733	-95.309	0.070	0.019
-713.718	-154.674	-0.182	0.012
-712.704	220.266	-0.156	-0.252
-711.689	32.439	0.095	-0.082
-710.675	-18.994	-0.347	-0.217
-709.660	-125.439	0.161	0.025
-708.645	201.416	-0.103	0.160
-707.631	-200.000	0.015	0.092
-706.616	96.791	0.257	-0.297
-705.602	291.922	-0.083	0.152
-704.587	-45.050	0.241	0.121
-703.572	-61.529	-0.072	0.030
-702.558	108.471	-0.176	-0.211
-701.543	-38.448	0.277	-0.147
-700.529	-166.143	-0.216	-0.009
-699.514	16.639	-0.260	0.207
-698.499	800.000	0.005	-0.016
-697.485	-43.080	0.073	-0.037
-696.470	-140.430	-0.315	-0.033
-695.456	47.001	-0.050	0.047
-694.441	10.468	-0.095	-0.073
-693.426	-117.995	-0.235	-0.042
-692.412	-94.478	0.114	-0.031
-691.397	800.000	0.043	-0.146
-690.383	-4.747	-0.235	0.163
-689.368	379.858	0.111	0.230
-688.354	-42.340	-0.202	-0.104
-687.339	-200.000	0.004	0.114
-686.324	800.000	-0.078	-0.304
-685.310	404.341	0.126	-0.266
-684.295	133.160	-0.070	0.091
-683.281	115.633	-0.285	0.351
-682.266	42.684	-0.254	0.233
-681.251	328.041	-0.136	-0.262
-680.237	-200.000	-0.000	0.008
-679.222	-8.187	-0.216	0.146
-678.208	-200.000	-0.040	0.215
-677.193	-5.477	-0.363	0.250
-676.178	195.629	-0.224	-0.342
-675.164	-145.521	-0.153	-0.014
-674.149	-45.459	0.195	-0.097
-673.135	-74.198	0.157	-0.057
-672.120	131.867	0.062	-0.080
-671.105	141.089	0.043	0.058
-670.091	800.000	-0.112	-0.485
-669.076	-200.000	0.075	-0.367
-668.062	-96.400	0.215	0.057
-667.047	-163.085	0.150	-0.007
-666.032	-8.959	-0.056	-0.038
-665.018	458.553	-0.056	0.124
-664.003	-200.000	0.020	0.102
-662.989	16.873	0.177	-0.140
-661.974	-104.805	-0.198	0.046
-660.959	800.000	-0.089	0.338
-659.945	150.979	0.193	-0.263
-658.930	-109.449	-0.155	0.033
-657.916	-135.800	0.104	-0.012
-656.901	98.935	0.072	-0.084
-655.886	76.696	0.155	-0.165
-654.872	-155.300	0.287	0.019
-653.857	-155.259	-0.182	0.012
-652.843	649.048	0.067	-0.171
-651.828	75.762	0.246	-0.261
-650.814	172.713	0.042	-0.061
-649.799	-177.971	0.217	-0.005
-648.784	-42.450	0.235	0.120
-647.770	247.176	-0.088	-0.149
-646.755	-122.247	0.090	0.015
-645.741	56.942	-0.225	0.220
-644.726	-137.931	-0.087	-0.010
-643.711	347.982	-0.034	-0.068
-642.697	-123.340	-0.356	0.057
-641.682	800.000	0.095	0.311
-640.668	-200.000	-0.005	-0.087
-639.653	-56.575	0.347	-0.154
-638.638	-84.335	-0.322	0.102
-637.624	-61.368	-0.141	-0.060
-636.609	154.556	0.075	0.104
-635.595	800.000	0.039	-0.117
-634.580	800.000	-0.105	-0.405
-633.565	-20.427	0.318	-0.196
-632.551	-129.998	0.386	-0.053
-631.536	-200.000	0.010	0.076
-630.522	-200.000	-0.021	0.169
-629.507	-37.658	0.119	0.063
-628.492	800.000	-0.015	-0.049
-627.478	71.518	0.150	0.156
-626.463	-88.763	0.196	0.059
-625.449	800.000	0.046	0.128
-624.434	-177.419	0.145	-0.004
-623.419	-200.000	-0.051	-0.480
-622.405	-200.000	0.014	-0.078
-621.390	510.142	0.049	-0.115
-620.376	-36.435	-0.278	-0.150
-619.361	-200.000	-0.018	-0.213
-618.346	42.365	-0.153	-0.139
-617.332	-200.000	0.022	0.335
-616.317	-61.929	-0.110	0.046
-615.303	5.276	0.018	-0.013
-614.288	-68.400	0.162	-0.063
-613.273	-64.224	-0.292	-0.119
-612.259	-91.304	0.107	0.031
-611.244	-200.000	-0.078	-0.357
-610.230	90.437	-0.170	-0.190
-609.215	397.265	0.056	0.118
-608.201	42.216	-0.264	0.240
-607.186	-200.000	-0.058	-0.282
-606.171	-78.305	0.235	0.081
-605.157	-200.000	-0.124	0.000
-604.142	800.000	0.035	-0.098
-603.128	247.733	0.117	-0.198
-602.113	-80.163	0.188	-0.063
-601.098	800.000	0.061	-0.206
-600.084	800.000	-0.034	0.135
-599.069	89.033	-0.041	-0.046
-598.055	-110.412	0.330	-0.069
-597.040	-118.509	-0.240	-0.043
-596.025	-200.000	0.026	0.256
-595.011	237.160	0.090	0.150
-593.996	-31.471	0.158	0.089
-592.982	-200.000	-0.027	0.184
-591.967	-108.401	-0.062	-0.013
-590.952	13.807	-0.073	-0.056
-589.938	-20.775	0.269	0.166
-588.923	-65.313	-0.781	-0.315
-587.909	-22.727	-0.422	0.255
-586.894	-166.508	0.096	-0.004
-585.879	-84.111	0.145	0.046
-584.865	15.467	0.284	0.223
-583.850	-135.380	-0.201	0.024
-582.836	152.729	0.131	0.180
-581.821	-104.075	-0.338	0.079
-580.806	800.000	-0.067	-0.294
-579.792	78.695	-0.167	0.178
-578.777	-120.997	-0.162	-0.027
-577.763	213.384	0.033	-0.052
-576.748	-21.937	0.454	-0.276
-575.733	11.485	-0.075	0.057
-574.719	33.407	-0.034	0.030
-573.704	-24.112	0.401	0.240
-572.690	-111.661	-0.207	0.042
-571.675	120.551	0.098	0.122
-570.661	788.258	0.138	-0.379
-569.646	-38.039	0.274	0.146
-568.631	-200.000	0.042	0.195
-567.617	800.000	-0.031	-0.129
-566.602	434.319	-0.049	0.108
-565.588	111.493	-0.015	-0.018
-564.573	295.196	0.151	0.277
-563.558	-76.398	0.185	0.065
-562.544	800.000	-0.034	0.108
-561.529	55.008	-0.149	-0.144
-560.515	-200.000	0.027	0.127
-559.500	-200.000	-0.000	0.156
-558.485	800.000	0.051	0.189
-557.471	-200.000	-0.407	-0.001
-556.456	174.938	-0.116	0.168
-555.442	352.504	0.065	0.129
-554.427	800.000	0.101	-0.288
-553.412	-27.229	0.248	-0.144
-552.398	-36.925	-0.335	-0.180
-551.383	-27.415	0.227	-0.132
-550.369	261.265	-0.132	-0.229
-549.354	-43.645	-0.196	-0.099
-548.339	264.458	0.082	0.143
-547.325	-164.739	0.254	0.011
-546.310	-14.544	0.099	0.063
-545.296	-200.000	-0.002	0.164
-544.281	47.359	-0.043	-0.040
-543.266	-200.000	-0.011	-0.647
-542.252	-106.668	0.320	-0.071
-541.237	-119.290	-0.233	-0.041
-540.223	86.048	0.040	0.044
-539.208	412.780	-0.127	0.270
-538.193	-79.315	0.188	-0.064
-537.179	800.000	0.040	0.154
-536.164	179.954	-0.114	0.167
-535.150	278.274	0.202	-0.360
-534.135	156.657	0.085	-0.118
-533.121	65.590	-0.127	0.128
-532.106	-44.832	-0.391	-0.195
-531.091	225.813	0.077	0.125
-530.077	-104.109	-0.149	-0.035
-529.062	-42.037	-0.195	-0.100
-528.048	-54.186	0.220	-0.100
-527.033	202.930	-0.077	-0.119
-526.018	76.111	0.142	-0.151
-525.004	-92.678	-0.165	-0.046
-523.989	-88.703	-0.425	-0.126
-522.975	82.292	0.108	0.117
-521.960	49.044	0.128	-0.120
-520.945	26.242	0.093	0.077
-519.931	236.393	0.061	-0.101
-518.916	-200.000	0.000	-0.021
-517.902	-200.000	-0.038	0.169
-516.887	149.972	0.047	-0.063
-515.872	-127.732	-0.185	0.027
-514.858	188.029	-0.096	-0.143
-513.843	-200.000	-0.077	0.368
-512.829	389.668	0.078	-0.161
-511.814	-59.452	-0.117	-0.050
-510.799	-71.299	0.114	0.043
-509.785	-144.821	-0.206	-0.019
-508.770	131.853	-0.124	-0.159
-507.756	9.313	-0.235	0.177
-506.741	-14.029	0.057	0.037
-505.726	-200.000	-0.031	-0.304
-504.712	-200.000	-0.020	-0.220
-503.697	800.000	0.090	-0.251
-502.683	-200.000	-0.130	-0.580
-501.668	11.636	-0.207	-0.158
-500.653	-200.000	0.010	0.275
-499.639	-36.465	-0.205	-0.110
-498.624	-53.900	-0.307	-0.140
-497.610	391.925	-0.133	-0.276
-496.595	-200.000	-0.006	-0.093
-495.581	-200.000	0.020	-0.224
-494.566	800.000	0.084	0.282
-493.551	-87.665	-0.097	-0.029
-492.537	-200.000	-0.002	0.251
-491.522	-134.005	0.054	-0.007
-490.508	-200.000	0.045	-0.339
-489.493	-41.474	0.388	-0.199
-488.478	-80.793	-0.095	-0.031
-487.464	-151.637	-0.030	0.002
-486.449	65.228	-0.108	-0.109
-485.435	-200.000	0.033	0.205
-484.420	139.580	-0.082	0.108
-483.405	-150.326	0.160	-0.012
-482.391	399.949	0.105	-0.220
-481.376	52.916	0.081	-0.077
-480.362	-200.000	-0.189	0.001
-479.347	-83.876	-0.211	-0.067
-478.332	-200.000	0.067	0.370
-477.318	800.000	0.094	0.290
-476.303	31.036	0.345	-0.295
-475.289	-200.000	-0.033	0.260
-474.274	583.014	0.052	-0.128
-473.259	-165.997	-0.140	0.006
-472.245	-94.675	-0.242	0.066
-471.230	566.827	-0.038	-0.092
-470.216	-200.000	0.027	0.138
-469.201	20.578	-0.225	0.181
-468.186	-5.818	-0.304	-0.207
-467.172	-200.000	-0.042	-0.361
-466.157	-79.159	-0.370	0.125
-465.143	243.112	0.121	-0.203
-464.128	273.567	-0.082	0.145
-463.113	123.232	-0.096	-0.119
-462.099	-43.213	0.287	-0.145
-461.084	-112.438	-0.145	-0.029
-460.070	-38.851	0.170	-0.089
-459.055	-41.284	-0.304	-0.156
-458.040	800.000	-0.041	0.116
-457.026	-118.776	0.173	0.030
-456.011	-200.000	-0.029	-0.149
-454.997	-200.000	-0.005	-0.030
-453.982	800.000	0.123	-0.389
-452.968	103.796	0.122	0.143
-451.953	615.938	-0.111	-0.278
-450.938	14.766	0.207	0.161
-449.924	800.000	-0.025	-0.107
-448.909	155.415	0.046	-0.063
-447.895	188.143	-0.112	-0.167
-446.880	-200.000	-0.077	-0.430
-445.865	128.506	-0.165	0.210
-444.851	194.201	-0.161	-0.243
-443.836	118.079	0.073	-0.090
-442.822	451.617	0.052	-0.114
-441.807	800.000	0.068	-0.279
-440.792	-28.646	0.186	-0.107
-439.778	-39.664	0.145	0.075
-438.763	-55.220	0.014	-0.006
-437.749	245.960	0.125	0.210
-436.734	-200.000	0.012	0.120
-435.719	26.250	-0.113	0.094
-434.705	-200.000	0.018	0.101
-433.690	-200.000	-0.028	-0.233
-432.676	106.484	-0.109	-0.128
-431.661	800.000	-0.044	0.135
-430.646	-156.033	0.186	-0.012
-429.632	192.494	-0.022	0.033
-428.617	-109.873	0.112	0.023
-427.603	362.053	0.157	-0.314
-426.588	-60.768	0.331	-0.139
-425.573	-26.750	-0.080	-0.047
-424.559	34.042	-0.288	0.250
-423.544	-45.535	-0.341	-0.168
-422.530	593.311	-0.163	-0.402
-421.515	153.915	0.201	0.274
-420.500	-3.474	0.015	0.011
-419.486	-150.307	-0.273	-0.021
-418.471	-85.828	-0.475	0.146
-417.457	-52.622	0.094	-0.043
-416.442	648.932	0.048	-0.121
-415.428	-126.120	0.265	-0.040
-414.413	-83.495	0.320	0.102
-413.398	219.238	-0.228	-0.363
-412.384	-68.318	0.098	-0.038
-411.369	237.125	-0.127	0.210
-410.355	105.225	0.095	-0.111
-409.340	-200.000	0.007	-0.540
-408.325	128.597	0.064	-0.082
-407.311	366.035	0.046	-0.093
-406.296	-200.000	0.020	0.242
-405.282	-118.172	0.240	-0.042
-404.267	-200.000	0.001	0.133
-403.252	33.336	0.052	-0.045
-402.238	53.090	-0.086	0.082
-401.223	170.103	0.120	0.171
-400.209	-200.000	0.001	0.138
-399.194	-24.713	0.420	-0.248
-398.179	90.941	0.057	-0.063
-397.165	-200.000	-0.043	-0.302
-396.150	49.590	0.242	0.226
-395.136	-122.865	0.185	-0.030
-394.121	-200.000	-0.022	-0.218
-393.106	24.375	-0.169	-0.139
-392.092	28.927	-0.074	0.062
-391.077	-20.675	0.160	-0.097
-390.063	-20.552	0.229	0.140
-389.048	35.934	0.161	0.141
-388.033	228.127	0.154	-0.249
-387.019	800.000	-0.014	0.047
-386.004	256.236	-0.100	0.171
-384.990	-200.000	0.018	0.083
-383.975	516.342	0.067	-0.155
-382.960	-51.056	-0.188	-0.088
-381.946	-89.629	0.298	0.087
-380.931	361.179	-0.042	-0.083
-379.917	28.472	0.429	-0.360
-378.902	-187.844	-0.115	0.001
-377.888	-194.688	-0.229	0.002
-376.873	-200.000	-0.043	0.198
-375.858	-200.000	-0.004	-0.182
-374.844	565.643	-0.148	-0.356
-373.829	33.220	-0.206	0.177
-372.815	-118.790	-0.180	-0.031
-371.800	646.351	0.089	-0.225
-370.785	301.615	0.127	-0.232
-369.771	-84.879	-0.261	-0.081
-368.756	-155.304	-0.288	0.019
-367.742	-200.000	-0.005	0.095
-366.727	81.104	-0.126	-0.135
-365.712	-42.442	-0.177	0.090
-364.698	-200.000	0.091	0.453
-363.683	-99.869	-0.102	0.025
-362.669	-4.823	0.141	0.096
-361.654	286.791	0.133	0.238
-360.639	708.472	-0.109	0.287
-359.625	110.218	0.153	0.183
-358.610	105.708	-0.152	0.179
-357.596	32.911	-0.047	0.040
-356.581	-42.343	0.065	-0.033
-355.566	32.051	0.151	-0.129
-354.552	-182.909	-0.125	0.002
-353.537	-200.000	0.029	-0.161
-352.523	196.709	-0.155	-0.234
-351.508	-54.606	-0.135	-0.061
-350.493	-200.000	-0.001	-0.030
-349.479	-200.000	0.024	0.218
-348.464	25.559	0.129	0.106
-347.450	686.059	-0.132	0.341
-346.435	-200.000	-0.017	0.098
-345.420	-200.000	-0.030	0.282
-344.406	-200.000	-0.064	0.464
-343.391	-95.042	0.389	-0.104
-342.377	43.935	-0.140	0.127
-341.362	22.322	-0.142	0.115
-340.348	-121.143	-0.205	0.034
-339.333	6.203	0.300	-0.220
-338.318	-172.893	0.256	0.008
-337.304	-153.446	0.089	0.006
-336.289	-200.000	-0.016	0.107
-335.275	343.066	0.239	0.464
-334.260	44.734	0.119	0.108
-333.245	-86.451	-0.306	0.093
-332.231	109.603	0.255	0.303
-331.216	347.644	-0.175	-0.343
-330.202	-155.555	0.126	-0.008
-329.187	16.243	-0.104	-0.082
-328.172	-55.495	0.018	-0.008
-327.158	-40.284	0.279	0.144
-326.143	-42.290	0.188	0.095
-325.129	249.427	-0.196	-0.330
-324.114	800.000	0.048	0.155
-323.099	-0.868	0.128	0.090
-322.085	-200.000	0.015	-0.090
-321.070	-200.000	-0.074	0.467
-320.056	148.117	0.090	-0.121
-319.041	-200.000	0.003	0.262
-318.026	-5.576	0.165	-0.112
-317.012	-31.070	-0.060	-0.034
-315.997	96.951	0.265	-0.301
-314.983	-55.487	-0.325	0.144
-313.968	766.767	-0.088	-0.237
-312.953	800.000	0.073	0.237
-311.939	22.877	0.123	0.100
-310.924	-91.266	0.141	0.040
-309.910	-75.662	0.567	0.199
-308.895	265.734	-0.053	0.092
-307.880	-200.000	-0.029	-0.413
-306.866	-24.660	0.019	0.011
-305.851	800.000	-0.030	-0.107
-304.837	24.129	0.051	0.041
-303.822	-200.000	-0.014	-0.097
-302.807	-200.000	0.024	-0.113
-301.793	-200.000	-0.058	0.271
-300.778	-20.742	0.034	-0.021
-299.764	-200.000	-0.007	0.064
-298.749	200.350	-0.160	0.243
-297.735	-200.000	-0.004	0.027
-296.720	-31.343	0.267	0.149
-295.705	720.075	-0.116	-0.306
-294.691	64.677	-0.323	0.323
-293.676	341.094	0.163	0.316
-292.662	-200.000	0.051	0.351
-291.647	-200.000	-0.017	0.276
-290.632	-200.000	0.009	0.248
-289.618	166.274	-0.062	-0.087
-288.603	-100.609	0.148	-0.036
-287.589	-61.307	0.201	0.084
-286.574	-54.827	-0.162	-0.072
-285.559	-133.238	0.273	0.034
-284.545	153.196	-0.221	0.299
-283.530	23.200	-0.229	0.186
-282.516	-35.620	-0.264	0.142
-281.501	-200.000	-0.020	0.295
-280.486	-200.000	0.112	-0.526
-279.472	-101.548	-0.200	0.048
-278.457	-200.000	-0.056	0.261
-277.443	-200.000	-0.020	0.166
-276.428	800.000	-0.080	0.267
-275.413	237.283	0.144	0.236
-274.399	162.489	0.109	-0.152
-273.384	195.662	0.168	-0.252
-272.370	800.000	-0.014	-0.043
-271.355	-76.960	0.348	-0.120
-270.340	800.000	-0.062	-0.224
-269.326	118.026	0.138	0.168
-268.311	-200.000	0.021	0.137
-267.297	-98.036	-0.133	-0.034
-266.282	800.000	0.063	-0.179
-265.267	-136.574	0.096	0.011
-264.253	-130.813	-0.167	-0.022
-263.238	130.988	-0.076	0.096
-262.224	800.000	-0.114	0.311
-261.209	75.136	0.206	0.215
-260.195	140.184	-0.165	-0.215
-259.180	-117.423	-0.195	-0.035
-258.165	71.843	-0.233	0.239
-257.151	300.064	0.051	-0.092
-256.136	800.000	0.042	0.176
-255.122	187.648	-0.117	0.172
-254.107	-34.702	0.117	-0.063
-253.092	65.791	-0.101	0.101
-252.078	634.566	-0.063	-0.157
-251.063	136.981	-0.094	-0.121
-250.049	-36.834	0.329	-0.175
-249.034	168.728	-0.222	-0.312
-248.019	667.393	-0.024	-0.062
-247.005	-116.237	0.105	-0.019
-245.990	186.043	-0.271	0.398
-244.976	-76.830	0.230	-0.080
-243.961	-81.323	-0.165	0.054
-242.946	-200.000	-0.021	0.169
-241.932	78.891	0.181	0.191
-240.917	-55.132	0.160	0.071
-239.903	-105.874	-0.131	0.029
-238.888	-200.000	0.066	0.370
-237.873	168.434	-0.110	0.154
-236.859	-200.000	-0.053	-0.250
-235.844	-2.951	-0.023	-0.016
-234.830	-46.638	-0.106	-0.051
-233.815	-72.534	-0.198	0.072
-232.800	-49.377	-0.183	0.086
-231.786	570.079	-0.038	0.091
-230.771	-9.100	-0.250	-0.166
-229.757	171.019	0.237	-0.335
-228.742	189.044	-0.054	0.079
-227.727	102.114	-0.252	-0.291
-226.713	178.364	0.109	-0.157
-225.698	194.308	-0.135	-0.202
-224.684	-200.000	-0.017	0.204
-223.669	208.017	0.140	0.215
-222.655	-162.418	-0.270	0.013
-221.640	-169.454	0.082	-0.003
-220.625	165.683	0.085	0.119
-219.611	110.631	-0.171	-0.204
-218.596	-200.000	-0.046	0.343
-217.582	-200.000	-0.009	0.194
-216.567	68.275	-0.110	0.111
-215.552	423.573	-0.123	0.262
-214.538	-30.610	-0.239	0.134
-213.523	-30.894	0.048	0.027
-212.509	-65.894	0.211	-0.083
-211.494	-200.000	-0.007	-0.232
-210.479	35.778	-0.131	-0.114
-209.465	-200.000	-0.013	-0.152
-208.450	32.903	0.052	-0.045
-207.436	-40.724	-0.205	0.105
-206.421	-13.057	-0.050	-0.032
-205.406	13.106	0.253	0.194
-204.392	308.929	-0.103	0.189
-203.377	-71.034	0.220	0.082
-202.363	-126.052	-0.294	0.044
-201.348	173.578	-0.090	-0.128
-200.333	-200.000	-0.028	0.202
-199.319	83.267	0.240	-0.258
-198.304	800.000	0.089	0.264
-197.290	190.638	-0.200	0.296
-196.275	59.649	-0.059	0.058
-195.260	-200.000	0.036	0.192
-194.246	-200.000	-0.003	0.256
-193.231	-82.446	0.308	-0.099
-192.217	-45.089	-0.358	-0.176
-191.202	159.479	0.014	0.019
-190.187	21.373	-0.043	0.035
-189.173	441.509	-0.090	0.193
-188.158	-200.000	-0.089	0.413
-187.144	-115.460	-0.252	-0.047
-186.129	6.193	0.102	0.074
-185.114	-147.622	0.219	-0.018
-184.100	-106.526	0.245	-0.054
-183.085	-139.196	0.425	-0.045
-182.071	469.324	-0.014	0.032
-181.056	685.253	0.127	0.327
-180.042	169.818	0.081	-0.115
-179.027	-200.000	-0.038	-0.518
-178.012	-32.424	-0.247	-0.136
-176.998	-10.276	0.101	0.066
-175.983	-200.000	-0.065	-0.328
-174.969	78.347	0.062	-0.066
-173.954	285.223	0.028	-0.050
-172.939	77.685	0.342	0.359
-171.925	214.779	0.158	0.247
-170.910	24.181	-0.212	0.173
-169.896	-87.494	0.095	-0.028
-168.881	69.715	0.327	-0.332
-167.866	21.059	-0.039	0.031
-166.852	-96.909	0.220	0.057
-165.837	38.388	-0.177	-0.156
-164.823	800.000	0.028	-0.119
-163.808	800.000	0.052	-0.165
-162.793	-147.976	-0.073	-0.006
-161.779	-200.000	-0.002	-0.025
-160.764	-83.739	0.075	0.024
-159.750	217.826	-0.105	-0.164
-158.735	-52.572	-0.175	-0.080
-157.720	800.000	-0.039	-0.134
-156.706	107.997	0.069	-0.081
-155.691	-148.924	0.269	0.021
-154.677	178.729	0.045	0.065
-153.662	-200.000	-0.021	0.204
-152.647	800.000	0.088	0.305
-151.633	-109.208	0.244	-0.051
-150.618	-21.331	0.042	-0.026
-149.604	25.801	0.061	-0.050
-148.589	359.822	0.152	0.298
-147.574	-200.000	-0.065	0.300
-146.560	72.607	-0.055	-0.057
-145.545	-200.000	0.000	-0.153
-144.531	266.716	-0.058	0.100
-143.516	800.000	-0.055	-0.227
-142.502	800.000	-0.081	0.331
-141.487	-200.000	-0.016	0.334
-140.472	96.150	0.278	0.313
-139.458	-105.045	0.100	-0.022
-138.443	464.564	-0.006	-0.013
-137.429	489.758	0.128	-0.287
-136.414	-115.824	-0.156	0.029
-135.399	-50.695	0.061	-0.028
-134.385	73.812	0.222	0.229
-133.370	23.270	0.162	0.131
-132.356	63.284	-0.390	-0.385
-131.341	149.523	0.062	-0.083
-130.326	800.000	-0.027	-0.095
-129.312	606.506	-0.052	-0.129
-128.297	-136.116	0.192	-0.022
-127.283	197.377	0.242	-0.363
-126.268	5.756	0.291	0.212
-125.253	-36.371	0.371	-0.196
-124.239	13.107	0.320	-0.244
-123.224	-59.348	0.255	-0.108
-122.210	253.210	0.024	-0.040
-121.195	269.167	-0.134	0.231
-120.180	-131.674	-0.500	-0.065
-119.166	-200.000	0.057	-0.362
-118.151	-30.116	0.340	-0.190
-117.137	151.843	-0.175	-0.235
-116.122	-112.967	0.233	-0.045
-115.107	240.042	0.044	-0.072
-114.093	-178.182	-0.122	-0.003
-113.078	-32.897	0.232	-0.127
-112.064	-200.000	-0.073	0.386
-111.049	-200.000	-0.011	0.226
-110.034	-129.471	-0.025	0.003
-109.020	358.396	0.046	0.090
-108.005	-200.000	-0.052	-0.272
-106.991	15.121	-0.201	0.155
-105.976	48.613	0.298	0.274
-104.962	-84.269	-0.179	0.056
-103.947	-145.770	0.321	0.028
-102.932	765.780	0.086	-0.229
-101.918	769.945	-0.039	0.105
-100.903	-61.738	-0.395	0.163
-99.889	-47.679	0.229	-0.109
-98.874	-55.819	0.105	-0.046
-97.859	352.430	0.068	0.133
-96.845	-200.000	-0.066	-0.360
-95.830	59.927	0.205	0.199
-94.816	-75.666	-0.253	0.088
-93.801	643.865	0.078	-0.197
-92.786	1.187	-0.171	-0.121
-91.772	602.292	-0.096	0.233
-90.757	-200.000	0.044	0.231
-89.743	-200.000	-0.037	0.172
-88.728	-34.639	0.125	-0.067
-87.713	800.000	-0.011	-0.040
-86.699	-8.096	-0.198	0.131
-85.684	48.840	0.203	-0.187
-84.670	-92.392	-0.099	0.027
-83.655	112.958	-0.276	0.328
-82.640	-162.056	0.337	-0.017
-81.626	-39.075	-0.054	-0.028
-80.611	-15.407	0.107	0.067
-79.597	-17.691	0.141	0.087
-78.582	11.019	-0.172	0.129
-77.567	0.956	0.119	0.084
-76.553	-200.000	0.018	-0.199
-75.538	-53.843	-0.172	0.077
-74.524	626.375	-0.210	0.521
-73.509	-52.947	0.115	0.052
-72.494	-24.051	-0.184	0.108
-71.480	-84.419	0.186	0.058
-70.465	-200.000	-0.007	0.183
-69.451	347.864	-0.052	0.100
-68.436	340.887	0.134	-0.257
-67.422	800.000	-0.029	-0.094
-66.407	-118.284	-0.158	0.028
-65.392	-127.985	0.260	-0.037
-64.378	-200.000	-0.038	0.181
-63.363	-92.497	0.240	0.066
-62.349	56.527	0.336	0.320
-61.334	-41.408	-1.139	-0.575
-60.319	382.582	0.268	0.540
-59.305	500.576	-0.444	-1.004
-58.290	322.504	0.637	1.190
-57.276	233.073	1.048	1.690
-56.261	-200.000	97.606	609.098
-55.246	615.692	1397.465	3436.682
-54.232	194.072	2586.697	3843.565
-53.217	118.336	2144.318	2594.353
-52.203	43.896	1600.322	1437.743
-51.188	35.341	1338.964	1151.796
-50.173	32.131	1297.846	1097.658
-49.159	54.571	1347.002	1273.302
-48.144	56.639	1362.490	1300.176
-47.130	35.438	1320.749	1136.518
-46.115	31.872	1303.695	1100.912
-45.100	31.717	1298.450	1095.532
-44.086	31.632	1295.756	1092.717
-43.071	31.543	1294.039	1090.706
-42.057	31.637	1291.300	1088.903
-41.042	31.573	1290.072	1087.454
-40.027	31.639	1288.465	1086.434
-39.013	31.704	1286.336	1084.976
-37.998	31.668	1284.850	1083.469
-36.984	31.764	1282.792	1082.248
-35.969	31.724	1281.438	1080.830
-34.954	31.843	1279.486	1079.827
-33.940	31.828	1278.401	1078.785
-32.925	31.785	1277.300	1077.562
-31.911	31.832	1275.639	1076.390
-30.896	31.829	1274.227	1075.137
-29.881	31.797	1272.895	1073.789
-28.867	31.919	1270.744	1072.626
-27.852	31.919	1269.757	1071.750
-26.838	31.862	1268.448	1070.282
-25.823	31.889	1266.601	1068.832
-24.809	31.766	1265.886	1067.486
-23.794	31.876	1263.902	1066.397
-22.779	31.795	1263.353	1065.430
-21.765	31.860	1262.071	1064.674
-20.750	31.798	1260.422	1062.893
-19.736	31.692	1258.894	1060.962
-18.721	31.620	1257.861	1059.640
-17.706	31.687	1256.485	1058.818
-16.692	31.750	1255.450	1058.261
-15.677	31.721	1254.231	1057.023
-14.663	31.621	1253.442	1055.758
-13.648	31.546	1252.682	1054.653
-12.633	31.636	1251.358	1054.002
-11.619	31.610	1250.577	1053.156
-10.604	31.686	1249.793	1052.877
-9.590	31.715	1248.637	1052.026
-8.575	31.577	1247.661	1050.388
-7.560	31.559	1246.985	1049.679
-6.546	31.679	1245.844	1049.347
-5.531	31.638	1245.074	1048.427
-4.517	31.600	1244.109	1047.358
-3.502	31.691	1243.310	1047.156
-2.487	31.727	1242.290	1046.457
-1.473	31.608	1238.190	1042.297
-0.458	30.048	1223.645	1021.419
0.556	24.108	1204.819	981.705
1.571	20.354	1210.018	965.029
2.586	19.591	1224.613	972.287
3.600	19.349	1213.865	962.323
4.615	13.913	1142.268	876.852
5.629	4.324	1066.604	771.224
6.644	-0.059	1045.513	734.518
7.659	-0.358	1042.739	731.047
8.673	-0.460	1042.131	730.060
9.688	-0.392	1040.239	728.998
10.702	-0.176	1038.879	729.029
11.717	5.438	1046.903	762.004
12.731	14.619	1059.786	816.415
13.746	18.610	1064.438	839.496
14.761	18.762	1064.708	840.381
15.775	18.748	1063.814	839.529
16.790	18.500	1062.980	837.587
17.804	18.308	1062.439	836.150
18.819	18.418	1061.985	836.255
19.834	18.464	1061.736	836.209
20.848	18.368	1060.942	835.040
21.863	18.358	1060.406	834.497
22.877	18.451	1059.542	834.195
23.892	18.371	1058.860	833.196
24.907	18.461	1058.332	833.146
25.921	18.411	1057.252	831.976
26.936	18.490	1055.838	831.172
27.950	18.487	1054.245	829.832
28.965	18.252	1052.485	827.237
29.980	18.385	1050.446	826.203
30.994	18.552	1049.654	826.312
32.009	18.497	1048.308	824.913
33.023	18.273	1047.149	822.851
34.038	18.430	1046.261	822.835
35.053	18.562	1045.562	822.845
36.067	18.591	1044.500	822.077
37.082	18.543	1044.118	821.473
38.096	18.743	1043.026	821.500
39.111	18.772	1042.270	820.969
40.126	18.604	1040.842	818.970
41.140	18.326	1039.123	816.222
42.155	18.238	1037.436	814.406
43.169	18.220	1036.976	813.887
44.184	18.257	1035.754	813.029
45.199	18.229	1034.943	812.190
46.213	18.121	1033.904	810.791
47.228	18.396	1032.512	810.931
48.242	18.393	1031.491	810.041
49.257	18.518	1030.780	809.999
50.271	18.562	1029.662	809.259
51.286	18.435	1029.486	808.448
52.301	18.474	1028.468	807.761
53.315	18.463	1027.378	806.781
54.330	18.465	1026.182	805.780
55.344	18.392	1025.488	804.824
56.359	18.411	1024.516	804.078
57.374	18.391	1023.370	803.012
58.388	18.473	1022.552	802.683
59.403	18.387	1021.360	801.276
60.417	18.150	1020.974	799.794
61.432	18.257	1020.140	799.571
62.447	18.395	1019.805	799.881
63.461	18.245	1019.516	798.883
64.476	18.383	1017.620	797.968
65.490	18.334	1016.673	796.929
66.505	18.367	1016.195	796.636
67.520	18.319	1015.477	795.780
68.534	18.128	1014.300	793.902
69.549	18.005	1013.130	792.342
70.563	17.975	1012.352	791.526
71.578	18.045	1011.703	791.275
72.593	17.906	1010.916	789.946
73.607	17.869	1010.395	789.296
74.622	18.121	1009.961	790.051
75.636	18.194	1009.051	789.606
76.651	18.113	1008.033	788.367
77.666	17.940	1007.531	787.108
78.680	18.233	1006.519	787.595
79.695	18.064	1006.298	786.575
80.709	18.168	1005.506	786.366
81.724	18.149	1004.410	785.350
82.739	18.371	1003.438	785.543
83.753	18.574	1003.058	786.102
84.768	18.764	1001.986	786.066
85.782	18.803	1000.808	785.247
86.797	18.706	999.819	783.959
87.812	18.620	998.857	782.743
88.826	18.656	998.262	782.372
89.841	18.770	997.482	782.212
90.855	18.753	996.483	781.282
91.870	18.711	995.381	780.158
92.884	18.586	994.271	778.650
93.899	18.634	993.075	777.866
94.914	18.745	992.419	777.786
95.928	18.545	991.291	775.928
96.943	18.426	990.302	774.547
97.957	18.202	988.778	772.275
98.972	18.046	987.939	770.845
99.987	18.140	987.079	770.531
101.001	18.486	986.440	771.521
102.016	18.471	985.383	770.561
103.030	18.346	984.343	769.118
104.045	18.085	983.281	767.046
105.060	18.122	982.292	766.372
106.074	18.200	981.609	766.123
107.089	18.657	981.159	767.750
108.103	18.700	979.571	766.630
109.118	18.386	978.421	764.261
110.133	18.483	977.565	763.956
111.147	18.244	976.407	761.920
112.162	18.108	975.034	760.178
113.176	18.294	974.677	760.659
114.191	18.184	973.843	759.452
115.206	17.953	972.866	757.600
116.220	17.983	971.816	756.847
117.235	18.207	970.786	756.969
118.249	18.057	970.104	755.708
119.264	18.025	969.783	755.247
120.279	18.080	969.019	754.829
121.293	18.138	968.117	754.316
122.308	18.271	967.172	754.101
123.322	18.277	965.848	753.025
124.337	18.173	964.378	751.357
125.352	17.688	962.647	747.817
126.366	17.654	961.478	746.693
127.381	18.246	961.628	749.334
128.395	18.582	960.913	750.180
129.410	18.719	959.779	749.829
130.424	18.608	958.984	748.655
131.439	18.510	957.857	747.285
132.454	18.648	956.871	747.050
133.468	18.508	956.002	745.697
134.483	18.693	955.297	745.883
135.497	18.720	954.351	745.196
136.512	18.782	953.354	744.620
137.527	18.782	952.453	743.849
138.541	18.846	951.359	743.207
139.556	18.811	950.870	742.610
140.570	18.910	949.914	742.222
141.585	18.742	948.807	740.569
142.600	18.671	947.965	739.538
143.614	18.932	947.129	739.946
144.629	19.015	946.114	739.446
145.643	18.879	945.043	737.958
146.658	18.725	943.909	736.345
147.673	18.721	942.650	735.282
148.687	18.509	941.879	733.706
149.702	18.555	940.449	732.725
150.716	18.652	939.620	732.429
151.731	18.740	939.297	732.487
152.746	18.965	938.755	732.959
153.760	19.030	938.478	732.954
154.775	19.003	937.824	732.264
155.789	18.911	936.847	731.047
156.804	18.880	935.437	729.749
157.819	18.917	934.671	729.244
158.833	18.965	934.279	729.077
159.848	18.930	933.100	727.945
160.862	18.896	931.680	726.628
161.877	18.980	931.359	726.669
162.892	19.032	930.352	726.039
163.906	19.007	928.871	724.713
164.921	18.942	928.239	723.882
165.935	18.948	927.362	723.159
166.950	18.895	926.359	722.092
167.964	18.855	925.410	721.118
168.979	18.863	924.285	720.213
169.994	18.749	923.454	719.022
171.008	18.977	922.853	719.445
172.023	18.967	921.891	718.590
173.037	18.711	920.969	716.739
174.052	18.497	920.345	715.297
175.067	18.794	919.763	716.021
176.081	18.934	918.875	715.850
177.096	18.854	918.305	715.011
178.110	18.716	917.285	713.577
179.125	18.439	916.678	711.892
180.140	18.535	916.430	712.034
181.154	18.625	915.797	711.853
182.169	18.756	915.900	712.414
183.183	18.972	914.814	712.403
184.198	19.035	913.785	711.798
185.213	19.046	912.814	711.022
186.227	19.061	912.571	710.833
187.242	18.985	912.283	710.234
188.256	18.899	911.351	709.089
189.271	19.090	910.000	708.761
190.286	18.781	909.510	707.048
191.300	18.353	908.288	704.274
192.315	17.814	906.632	700.714
193.329	17.713	906.137	699.854
194.344	18.558	906.645	703.655
195.359	18.812	906.766	704.729
196.373	18.927	905.625	704.251
197.388	18.629	905.304	702.716
198.402	18.748	904.081	702.192
199.417	18.778	903.614	701.890
200.432	18.477	902.582	699.800
201.446	18.366	901.936	698.783
202.461	18.313	901.414	698.102
203.475	17.593	899.273	693.452
204.490	17.060	897.814	690.099
205.504	17.766	898.865	693.717
206.519	18.474	898.625	696.349
207.534	18.633	897.813	696.302
208.548	19.040	897.490	697.643
209.563	18.639	896.891	695.488
210.577	18.676	896.170	695.017
211.592	19.122	895.568	696.295
212.607	18.869	895.215	694.934
213.621	19.063	894.112	694.799
214.636	19.068	893.590	694.353
215.650	18.924	892.780	693.084
216.665	19.049	892.146	693.034
217.680	18.968	891.713	692.309
218.694	18.615	890.276	689.713
219.709	18.385	889.543	688.162
220.723	18.785	889.087	689.352
221.738	18.970	888.321	689.440
222.753	18.764	887.810	688.157
223.767	18.945	887.418	688.515
224.782	19.097	886.529	688.372
225.796	19.123	885.822	687.868
226.811	18.509	884.397	684.249
227.826	17.989	883.644	681.534
228.840	18.209	882.685	681.608
229.855	18.248	882.473	681.541
230.869	17.843	881.142	678.841
231.884	18.290	881.192	680.599
232.899	18.962	881.066	683.110
233.913	18.936	880.488	682.497
234.928	18.945	879.635	681.814
235.942	18.847	879.119	680.965
236.957	18.694	878.060	679.479
237.972	18.694	877.467	678.958
238.986	18.716	877.068	678.679
240.001	18.742	876.184	678.037
241.015	18.873	875.765	678.170
242.030	18.859	874.980	677.444
243.045	19.061	874.275	677.633
244.059	19.069	874.249	677.587
245.074	18.884	873.193	675.982
246.088	18.487	872.041	673.468
247.103	18.800	871.790	674.446
248.117	19.357	871.681	676.486
249.132	19.368	871.400	676.255
250.147	19.386	870.429	675.509
251.161	19.620	870.014	676.043
252.176	19.351	869.600	674.612
253.190	19.695	868.503	675.044
254.205	19.814	867.879	674.964
255.220	19.877	866.983	674.453
256.234	19.716	866.602	673.468
257.249	19.547	865.755	672.093
258.263	19.541	865.106	671.505
259.278	19.715	864.441	671.606
260.293	19.705	863.815	671.024
261.307	19.545	862.957	669.676
262.322	19.375	861.942	668.170
263.336	18.602	860.236	663.800
264.351	17.546	858.539	658.350
265.366	17.839	857.760	658.824
266.380	18.817	859.013	663.508
267.395	19.234	858.453	664.627
268.409	19.317	857.547	664.188
269.424	19.657	856.613	664.714
270.439	19.453	856.516	663.792
271.453	19.547	855.653	663.427
272.468	19.652	855.640	663.761
273.482	19.907	854.632	663.899
274.497	19.380	853.715	661.111
275.512	19.209	852.681	659.594
276.526	19.454	852.979	660.708
277.541	19.652	852.443	660.991
278.555	19.295	851.607	658.918
279.570	19.185	850.466	657.557
280.585	19.431	849.700	657.843
281.599	19.375	849.099	657.108
282.614	18.889	847.715	654.130
283.628	18.953	847.533	654.175
284.643	19.276	846.928	654.878
285.657	18.864	846.035	652.565
286.672	18.533	845.418	650.777
287.687	19.166	845.207	652.954
288.701	19.103	844.712	652.279
289.716	19.073	843.227	650.960
290.730	18.857	843.340	650.172
291.745	18.666	841.982	648.347
292.760	18.709	841.933	648.414
293.774	19.651	842.202	652.119
294.789	19.902	842.181	652.995
295.803	20.102	841.382	653.069
296.818	20.149	840.607	652.585
297.833	19.780	839.559	650.331
298.847	19.501	839.035	648.817
299.862	20.009	838.626	650.349
300.876	19.969	838.359	649.935
301.891	19.860	837.481	648.789
302.906	19.423	836.436	646.286
303.920	19.633	835.725	646.465
304.935	19.971	835.608	647.582
305.949	19.911	835.074	646.885
306.964	19.774	834.354	645.759
307.979	19.924	834.003	645.992
308.993	20.111	833.747	646.434
310.008	20.065	832.909	645.554
311.022	19.914	831.907	644.158
312.037	19.739	831.802	643.370
313.052	19.621	831.038	642.282
314.066	18.851	829.312	638.036
315.081	18.678	828.381	636.620
316.095	19.353	828.893	639.462
317.110	19.860	828.721	641.151
318.125	19.042	827.608	637.207
319.139	18.131	826.198	632.694
320.154	18.339	825.632	632.974
321.168	18.936	826.088	635.476
322.183	19.626	826.165	638.026
323.197	19.853	825.497	638.292
324.212	19.996	825.147	638.490
325.227	20.022	824.677	638.167
326.241	19.761	824.028	636.649
327.256	19.822	823.360	636.301
328.270	19.931	822.034	635.618
329.285	19.502	822.000	633.962
330.300	19.506	821.114	633.237
331.314	19.649	820.666	633.358
332.329	19.871	820.575	634.046
333.343	20.011	820.446	634.403
334.358	20.033	819.299	633.542
335.373	20.048	819.227	633.486
336.387	20.301	819.296	634.408
337.402	20.317	819.228	634.355
338.416	20.289	818.389	633.549
339.431	20.305	818.541	633.666
340.446	20.312	817.895	633.138
341.460	20.339	816.865	632.384
342.475	20.096	816.714	631.324
343.489	20.249	816.182	631.413
344.504	20.582	816.174	632.564
345.519	20.604	815.736	632.249
346.533	20.706	815.410	632.310
347.548	20.682	814.964	631.820
348.562	20.646	814.415	631.211
349.577	20.731	813.360	630.644
350.592	20.690	812.559	629.820
351.606	20.587	812.037	628.984
352.621	20.749	811.077	628.772
353.635	20.531	810.488	627.474
354.650	19.917	808.958	624.018
355.665	19.020	807.789	619.832
356.679	19.496	807.484	621.257
357.694	19.795	807.002	621.908
358.708	19.756	806.304	621.175
359.723	20.071	806.433	622.352
360.738	20.495	806.086	623.548
361.752	20.617	805.442	623.434
362.767	20.764	805.139	623.670
363.781	20.748	804.969	623.425
364.796	20.938	804.435	623.635
365.810	20.993	804.260	623.644
366.825	20.969	803.813	623.153
367.840	20.766	802.464	621.330
368.854	20.502	801.894	619.893
369.869	20.360	801.888	619.325
370.883	20.514	801.431	619.467
371.898	20.400	800.375	618.191
372.913	20.324	800.268	617.783
373.927	20.496	800.069	618.187
374.942	20.544	799.385	617.774
375.956	20.642	799.299	618.001
376.971	20.909	798.906	618.591
377.986	20.843	798.330	617.854
379.000	20.858	797.918	617.534
380.015	20.891	796.985	616.875
381.029	20.975	796.446	616.702
382.044	21.076	795.559	616.316
383.059	20.897	795.608	615.667
384.073	20.969	794.969	615.373
385.088	21.075	794.234	615.122
386.102	20.884	793.634	613.931
387.117	20.813	793.102	613.215
388.132	20.437	792.145	611.098
389.146	20.046	791.250	608.979
390.161	20.397	791.175	610.101
391.175	20.705	790.722	610.777
392.190	20.667	789.797	609.877
393.205	19.239	788.237	603.620
394.219	18.110	786.821	598.531
395.234	18.045	786.760	598.202
396.248	19.597	787.668	604.277
397.263	20.840	788.381	609.117
398.278	20.866	787.591	608.547
399.292	20.560	787.171	607.098
400.307	20.577	786.921	606.910
401.321	20.540	786.906	606.717
402.336	20.910	786.185	607.395
403.350	21.242	786.026	608.377
404.365	21.531	785.797	609.154
405.380	21.643	785.323	609.121
406.394	21.564	785.259	608.741
407.409	21.665	783.884	607.972
408.423	21.558	784.152	607.756
409.438	21.623	783.716	607.591
410.453	21.594	783.229	607.058
411.467	21.619	782.715	606.693
412.482	21.699	782.148	606.476
413.496	21.728	782.128	606.508
414.511	21.637	781.718	605.821
415.526	21.687	781.044	605.417
416.540	21.588	780.052	604.255
417.555	21.409	779.267	602.974
418.569	21.399	779.121	602.776
419.584	21.404	778.614	602.345
420.599	21.250	777.921	601.225
421.613	158.359	1360.846	1796.659
422.628	136.821	1445.787	1796.739
