DTS Sentinel unit serial number:	SN413079Multiplexer serial number:	ORYXHardware model number:	OX4-SRSoftware version number:	ORYX F/W v4.00 Oryx Data Collector v3.7.2.0data status	okinstallation	princeton_trtdifferential loss correction	single-endedforward channel	channel 1reverse channel	N/Adate	2019/09/12time	01:52:11forward acquisition time	60.00reverse acquisition time	0.00gamma	496.2192k internal	0.2320k external	0.2320temperature offset calibration	1.0077default loss term (dB/km)	0.3790temperature slope calibration	1.0000multiplexer offset coefficient	1.0000multiplexer slope coefficient	1.0000fibre end	0.00T internal ref (°C)	32.81T ext. ref 1 (°C)	2.07T ext. ref 2 (°C)	27.33length (m)	temperature (°C)	Stokes	anti-Stokes-747.200	-16.343	0.137	-0.088
-746.185	221.110	-0.032	-0.053
-745.171	120.835	-0.208	-0.261
-744.156	-200.000	0.039	0.375
-743.142	-81.389	0.203	0.068
-742.127	-200.000	-0.081	0.378
-741.112	-92.685	-0.066	-0.019
-740.098	800.000	-0.138	0.503
-739.083	138.884	-0.148	0.196
-738.069	248.014	-0.053	0.090
-737.054	-68.221	-0.175	-0.069
-736.039	240.103	-0.209	0.352
-735.025	-200.000	-0.046	0.237
-734.010	-200.000	0.045	0.398
-732.996	47.579	0.201	0.190
-731.981	800.000	-0.013	0.041
-730.966	-200.000	-0.038	-0.267
-729.952	-200.000	-0.005	0.034
-728.937	51.442	0.155	-0.149
-727.923	2.720	-0.249	0.182
-726.908	-149.330	0.119	0.010
-725.894	43.503	-0.047	-0.043
-724.879	55.542	-0.151	-0.148
-723.864	800.000	0.157	-0.494
-722.850	43.446	0.033	-0.030
-721.835	-200.000	-0.016	-0.084
-720.821	-12.613	-0.146	-0.096
-719.806	6.580	-0.256	0.192
-718.791	-53.105	0.183	-0.085
-717.777	800.000	0.076	0.261
-716.762	-98.796	-0.347	-0.089
-715.748	-200.000	-0.046	-0.284
-714.733	650.425	0.054	0.139
-713.718	196.425	-0.131	-0.201
-712.704	-1.252	0.124	0.088
-711.689	-20.001	-0.161	-0.100
-710.675	-200.000	0.240	-0.001
-709.660	-200.000	0.002	-0.191
-708.645	-200.000	-0.007	-0.118
-707.631	366.258	-0.112	0.227
-706.616	257.472	-0.036	-0.062
-705.602	-200.000	0.064	0.289
-704.587	-119.719	-0.340	0.059
-703.572	-95.804	0.158	-0.043
-702.558	-82.491	-0.149	0.049
-701.543	-200.000	0.022	-0.268
-700.529	71.915	0.113	0.119
-699.514	-163.040	-0.126	-0.006
-698.499	-47.547	-0.073	-0.036
-697.485	-200.000	0.042	-0.290
-696.470	177.589	0.142	0.209
-695.456	-200.000	0.006	0.102
-694.441	382.977	-0.069	-0.144
-693.426	-79.549	-0.334	-0.114
-692.412	-133.783	0.240	-0.030
-691.397	60.586	-0.217	0.217
-690.383	-200.000	0.011	0.220
-689.368	-145.039	-0.479	-0.044
-688.354	-131.739	-0.090	-0.012
-687.339	238.483	-0.082	0.137
-686.324	238.991	-0.039	0.065
-685.310	770.268	0.040	-0.111
-684.295	-139.434	-0.218	-0.024
-683.281	674.362	-0.012	0.031
-682.266	-200.000	0.014	0.130
-681.251	-200.000	-0.060	-0.274
-680.237	401.074	0.108	0.228
-679.222	84.869	-0.181	0.200
-678.208	68.776	-0.113	0.117
-677.193	-89.725	-0.232	0.068
-676.178	98.891	0.077	-0.090
-675.164	358.675	0.074	0.149
-674.149	800.000	-0.124	0.385
-673.135	-161.146	0.029	-0.002
-672.120	72.957	-0.161	0.170
-671.105	-79.587	-0.375	0.127
-670.091	-117.948	0.143	0.026
-669.076	124.656	-0.128	-0.163
-668.062	27.867	-0.219	0.186
-667.047	800.000	0.028	0.108
-666.032	4.310	-0.168	0.124
-665.018	-35.865	-0.370	-0.202
-664.003	-31.770	0.138	0.078
-662.989	4.773	0.185	-0.137
-661.974	-128.165	-0.172	-0.025
-660.959	210.867	0.262	0.414
-659.945	-127.317	0.140	-0.021
-658.930	-200.000	-0.037	0.318
-657.916	62.601	-0.143	0.144
-656.901	-7.611	0.107	-0.073
-655.886	-79.201	-0.326	0.112
-654.872	175.509	-0.028	0.041
-653.857	-41.764	0.303	-0.157
-652.843	-200.000	-0.016	0.400
-651.828	-200.000	-0.277	0.001
-650.814	-200.000	-0.020	-0.228
-649.799	-200.000	0.010	-0.100
-648.784	-108.694	0.216	0.047
-647.770	3.789	0.160	0.118
-646.755	125.126	-0.142	-0.180
-645.741	800.000	0.060	-0.172
-644.726	-200.000	-0.018	-0.293
-643.711	-7.661	-0.187	-0.128
-642.697	-200.000	-0.007	0.148
-641.682	-200.000	0.027	-0.184
-640.668	800.000	0.062	-0.201
-639.653	79.106	-0.245	0.265
-638.638	-102.382	-0.141	0.034
-637.624	607.820	0.113	-0.284
-636.609	-45.643	-0.084	0.042
-635.595	-157.527	0.028	0.002
-634.580	-200.000	-0.032	0.164
-633.565	402.800	-0.054	-0.114
-632.551	-17.732	-0.119	-0.075
-631.536	-104.078	-0.056	0.013
-630.522	231.360	0.130	-0.214
-629.507	800.000	-0.119	-0.481
-628.492	-55.161	0.045	-0.021
-627.478	-113.247	-0.258	0.051
-626.463	-200.000	-0.005	0.181
-625.449	-34.551	-0.067	-0.037
-624.434	111.881	0.196	0.238
-623.419	-52.196	-0.082	0.038
-622.405	-57.771	0.098	0.043
-621.390	800.000	-0.049	0.192
-620.376	20.089	0.089	0.072
-619.361	-162.233	-0.087	0.004
-618.346	-71.297	0.083	-0.031
-617.332	7.879	0.134	0.101
-616.317	-200.000	-0.030	0.231
-615.303	-153.331	-0.399	-0.028
-614.288	-124.360	0.023	0.004
-613.273	161.588	-0.352	0.495
-612.259	113.262	-0.196	-0.239
-611.244	83.845	0.035	-0.039
-610.230	800.000	0.039	-0.148
-609.215	31.712	-0.089	-0.077
-608.201	374.685	-0.076	-0.155
-607.186	-57.754	-0.049	-0.022
-606.171	-80.434	0.273	-0.092
-605.157	-125.359	-0.150	-0.023
-604.142	-85.143	-0.136	0.043
-603.128	-143.065	0.193	-0.019
-602.113	-115.714	0.084	0.016
-601.098	600.100	0.053	0.133
-600.084	139.921	0.024	0.032
-599.069	-149.656	-0.246	0.020
-598.055	52.333	0.145	0.139
-597.040	-126.661	0.368	0.055
-596.025	-114.333	-0.043	0.008
-595.011	-100.052	-0.160	0.040
-593.996	250.098	0.204	-0.348
-592.982	-7.787	0.301	-0.204
-591.967	-157.500	0.048	-0.003
-590.952	91.657	-0.118	-0.133
-589.938	800.000	0.044	-0.145
-588.923	-129.378	-0.358	0.050
-587.909	75.134	0.190	0.201
-586.894	154.362	-0.067	-0.092
-585.879	1.913	0.197	-0.143
-584.865	-13.762	-0.156	-0.101
-583.850	0.072	-0.104	0.075
-582.836	-45.273	0.219	-0.109
-581.821	-200.000	0.033	-0.227
-580.806	-80.667	0.173	-0.058
-579.792	-19.787	-0.353	-0.219
-578.777	37.287	0.046	0.041
-577.763	-62.758	-0.113	0.047
-576.748	142.854	-0.057	-0.076
-575.733	-8.619	0.172	-0.116
-574.719	-129.767	0.168	-0.023
-573.704	-19.904	0.092	0.057
-572.690	-200.000	-0.002	0.403
-571.675	794.993	-0.049	0.135
-570.661	-39.663	0.139	-0.073
-569.646	-130.730	0.117	0.016
-568.631	105.254	-0.150	-0.178
-567.617	-7.702	-0.174	-0.118
-566.602	234.482	-0.046	-0.075
-565.588	263.554	-0.060	0.105
-564.573	379.681	-0.229	0.472
-563.558	-144.718	-0.256	-0.024
-562.544	530.331	-0.046	0.110
-561.529	-134.951	-0.414	-0.050
-560.515	-200.000	-0.048	0.252
-559.500	-141.278	0.262	-0.027
-558.485	284.596	0.079	0.143
-557.471	-149.498	-0.260	-0.021
-556.456	18.934	0.124	0.099
-555.442	-55.238	-0.125	-0.056
-554.427	-200.000	-0.054	0.424
-553.412	-200.000	0.016	-0.146
-552.398	433.396	-0.011	-0.024
-551.383	263.877	-0.060	0.105
-550.369	79.756	-0.036	-0.039
-549.354	121.524	-0.085	-0.106
-548.339	-40.817	-0.108	0.056
-547.325	-43.142	0.121	0.061
-546.310	25.647	-0.361	0.302
-545.296	-200.000	0.026	0.214
-544.281	251.151	-0.069	-0.117
-543.266	335.627	0.165	0.322
-542.252	159.479	0.155	-0.216
-541.237	23.986	-0.136	0.113
-540.223	-66.427	-0.117	0.047
-539.208	618.988	0.051	0.129
-538.193	-200.000	-0.060	0.338
-537.179	-60.749	0.331	-0.141
-536.164	678.719	0.080	-0.208
-535.150	240.524	0.133	0.222
-534.135	-135.952	-0.159	-0.019
-533.121	251.973	-0.045	-0.077
-532.106	-9.031	0.061	0.041
-531.091	83.285	0.176	-0.192
-530.077	-118.035	-0.166	-0.030
-529.062	-89.747	0.125	-0.037
-528.048	-28.714	-0.058	0.034
-527.033	3.960	-0.120	-0.088
-526.018	544.143	-0.035	-0.083
-525.004	283.638	-0.082	-0.149
-523.989	-141.022	-0.193	0.020
-522.975	800.000	-0.036	-0.122
-521.960	120.539	0.202	-0.251
-520.945	151.906	0.065	-0.088
-519.931	375.517	0.285	-0.583
-518.916	-200.000	-0.016	0.166
-517.902	316.647	0.103	-0.195
-516.887	-200.000	-0.013	-0.069
-515.872	-68.984	-0.200	-0.077
-514.858	-8.825	-0.093	-0.063
-513.843	-26.214	-0.253	0.149
-512.829	156.623	0.146	-0.202
-511.814	-200.000	0.010	-0.265
-510.799	-76.877	-0.042	0.015
-509.785	-130.581	0.259	-0.035
-508.770	-168.548	0.185	0.007
-507.756	-106.257	-0.371	0.083
-506.741	394.008	0.150	-0.312
-505.726	-136.259	0.239	0.028
-504.712	62.238	0.094	-0.094
-503.697	96.644	0.109	-0.125
-502.683	89.357	0.116	0.129
-501.668	47.891	-0.028	0.026
-500.653	-95.121	-0.314	-0.085
-499.639	-47.764	0.429	-0.208
-498.624	21.094	0.107	0.087
-497.610	-48.085	-0.039	-0.019
-496.595	-134.703	-0.344	0.042
-495.581	-200.000	0.019	0.096
-494.566	-37.897	0.033	0.018
-493.551	207.366	-0.108	0.169
-492.537	163.976	-0.091	0.128
-491.522	-200.000	0.025	0.564
-490.508	-200.000	0.011	-0.053
-489.493	38.063	0.325	-0.290
-488.478	514.774	-0.048	-0.113
-487.464	114.996	-0.114	-0.139
-486.449	24.038	-0.128	0.106
-485.435	-34.760	0.061	-0.033
-484.420	382.737	0.185	0.381
-483.405	-200.000	0.010	0.304
-482.391	-173.912	-0.082	-0.002
-481.376	624.503	-0.085	0.214
-480.362	-123.174	-0.339	0.054
-479.347	533.617	-0.116	0.274
-478.332	558.076	0.068	-0.163
-477.318	-33.725	0.134	-0.074
-476.303	-50.954	-0.064	0.030
-475.289	431.893	-0.178	-0.386
-474.274	-101.491	-0.140	-0.034
-473.259	-6.569	-0.206	0.140
-472.245	-162.941	0.378	0.018
-471.230	800.000	0.001	-0.003
-470.216	-4.474	0.136	-0.094
-469.201	-155.161	-0.092	0.006
-468.186	-68.174	0.459	0.179
-467.172	-34.491	-0.179	0.098
-466.157	222.285	0.187	0.301
-465.143	75.303	0.071	-0.074
-464.128	46.632	-0.118	0.109
-463.113	359.788	-0.077	-0.154
-462.099	800.000	0.122	-0.342
-461.084	301.675	-0.050	0.092
-460.070	417.060	-0.063	-0.134
-459.055	182.950	-0.142	0.209
-458.040	-38.381	0.333	-0.176
-457.026	41.267	-0.301	0.273
-456.011	75.039	0.283	-0.298
-454.997	151.294	0.220	-0.300
-453.982	156.024	0.107	0.147
-452.968	468.786	0.108	-0.241
-451.953	-108.866	-0.106	0.023
-450.938	-200.000	-0.072	0.338
-449.924	-59.711	-0.234	-0.100
-448.909	-39.977	0.349	-0.182
-447.895	-25.982	0.118	-0.069
-446.880	-158.173	0.258	0.015
-445.865	-77.426	-0.323	-0.112
-444.851	800.000	-0.026	-0.103
-443.836	53.714	-0.255	0.245
-442.822	-130.433	0.120	-0.016
-441.807	-198.263	0.241	-0.001
-440.792	211.686	-0.218	0.343
-439.778	-200.000	-0.025	0.192
-438.763	800.000	0.130	0.467
-437.749	212.345	0.069	-0.108
-436.734	-200.000	0.037	-0.179
-435.719	52.907	-0.159	0.152
-434.705	-200.000	-0.034	-0.235
-433.690	-35.778	0.250	-0.135
-432.676	-119.577	0.390	-0.067
-431.661	-96.179	-0.138	0.037
-430.646	-12.356	0.136	0.089
-429.632	250.263	0.099	0.169
-428.617	-27.168	-0.330	0.192
-427.603	367.753	-0.126	-0.255
-426.588	49.161	0.210	0.197
-425.573	0.560	0.101	-0.072
-424.559	-168.130	-0.166	0.006
-423.544	261.561	-0.192	0.332
-422.530	-14.015	0.073	0.047
-421.515	51.601	0.170	0.161
-420.500	128.770	0.054	-0.069
-419.486	146.122	-0.324	0.434
-418.471	323.093	0.051	-0.097
-417.457	-171.279	0.441	0.015
-416.442	-58.768	-0.285	-0.123
-415.428	-107.219	0.261	0.057
-414.413	-107.318	0.231	-0.051
-413.398	-146.893	-0.129	-0.011
-412.384	525.583	-0.179	0.420
-411.369	139.109	-0.035	-0.046
-410.355	20.754	0.101	0.082
-409.340	254.112	0.022	-0.038
-408.325	36.392	0.173	0.152
-407.311	-17.788	0.220	0.138
-406.296	-84.612	0.405	-0.127
-405.282	248.692	0.094	-0.158
-404.267	-91.859	0.123	-0.035
-403.252	-57.919	-0.174	-0.076
-402.238	-200.000	-0.001	0.110
-401.223	190.086	0.238	0.356
-400.209	-200.000	0.007	-0.127
-399.194	800.000	0.115	-0.322
-398.179	-200.000	0.061	-0.419
-397.165	800.000	-0.084	-0.324
-396.150	-71.731	-0.036	-0.013
-395.136	134.172	-0.247	0.320
-394.121	-152.388	-0.260	0.019
-393.106	-69.835	-0.320	0.122
-392.092	-186.603	-0.173	-0.002
-391.077	650.794	0.140	-0.357
-390.063	-200.000	0.060	0.378
-389.048	51.595	0.237	0.225
-388.033	-65.009	0.030	-0.012
-387.019	477.081	-0.202	-0.456
-386.004	78.400	-0.029	0.031
-384.990	-107.630	-0.228	0.050
-383.975	143.282	-0.293	0.389
-382.960	-167.708	-0.257	-0.010
-381.946	-200.000	-0.024	0.122
-380.931	-134.813	0.144	0.017
-379.917	-39.266	-0.290	-0.152
-378.902	-4.266	0.204	0.141
-377.888	467.668	0.081	0.182
-376.873	77.886	0.211	-0.224
-375.858	800.000	0.084	-0.320
-374.844	800.000	0.057	0.187
-373.829	-200.000	-0.037	0.215
-372.815	219.354	0.248	0.396
-371.800	800.000	-0.069	-0.252
-370.785	451.684	0.093	-0.204
-369.771	800.000	0.060	0.173
-368.756	-141.265	-0.295	0.030
-367.742	-43.510	0.286	-0.144
-366.727	181.586	-0.045	0.066
-365.712	739.035	0.060	0.160
-364.698	-54.856	-0.102	-0.046
-363.683	-55.228	-0.144	0.065
-362.669	507.192	0.046	0.107
-361.654	55.948	0.149	0.144
-360.639	-200.000	0.050	0.257
-359.625	339.665	-0.099	-0.192
-358.610	79.625	0.075	0.080
-357.596	-68.002	0.153	-0.059
-356.581	-121.901	-0.282	0.046
-355.566	18.528	0.039	0.031
-354.552	-200.000	-0.041	-0.393
-353.537	633.973	-0.117	-0.296
-352.523	2.607	-0.098	0.071
-351.508	-21.835	-0.187	-0.113
-350.493	-40.687	-0.222	0.114
-349.479	245.804	0.146	-0.245
-348.464	174.911	-0.125	0.180
-347.450	48.976	-0.155	-0.145
-346.435	-200.000	-0.067	-0.318
-345.420	800.000	-0.063	-0.173
-344.406	-120.177	0.028	0.005
-343.391	-200.000	0.010	-0.188
-342.377	-185.495	0.192	0.003
-341.362	-14.251	-0.227	0.146
-340.348	243.368	-0.115	0.191
-339.333	-14.758	0.283	-0.181
-338.318	492.714	-0.096	-0.218
-337.304	-116.295	-0.239	-0.044
-336.289	800.000	0.141	0.418
-335.275	-57.797	-0.239	0.104
-334.260	402.945	-0.066	0.137
-333.245	610.838	0.119	-0.295
-332.231	-138.898	-0.141	0.015
-331.216	71.516	-0.233	0.240
-330.202	-67.328	-0.244	0.095
-329.187	-81.450	-0.069	0.022
-328.172	800.000	0.061	-0.176
-327.158	-47.159	0.229	-0.111
-326.143	-158.616	-0.139	0.008
-325.129	-151.401	0.258	0.019
-324.114	81.712	-0.093	-0.101
-323.099	-43.747	-0.251	-0.126
-322.085	5.077	0.072	-0.053
-321.070	-139.977	0.187	0.020
-320.056	-138.381	-0.196	0.021
-319.041	283.183	-0.027	-0.048
-318.026	800.000	-0.043	-0.143
-317.012	-200.000	-0.018	0.233
-315.997	-84.509	0.116	-0.036
-314.983	-200.000	-0.016	0.470
-313.968	654.443	0.075	0.190
-312.953	136.002	0.070	-0.091
-311.939	800.000	-0.142	0.398
-310.924	-200.000	0.014	0.426
-309.910	800.000	-0.055	0.170
-308.895	-57.659	0.346	-0.150
-307.880	-116.486	-0.051	0.009
-306.866	-200.000	0.048	0.267
-305.851	2.540	0.176	0.127
-304.837	320.525	0.141	0.266
-303.822	-200.000	-0.001	0.183
-302.807	297.855	-0.141	-0.257
-301.793	-45.272	0.242	0.119
-300.778	-173.535	0.241	0.007
-299.764	121.998	-0.205	0.254
-298.749	-26.999	0.298	-0.173
-297.735	23.841	-0.156	-0.127
-296.720	-200.000	-0.013	0.130
-295.705	-200.000	-0.028	0.173
-294.691	26.358	-0.256	0.212
-293.676	18.965	-0.095	-0.076
-292.662	-28.177	-0.210	0.120
-291.647	82.285	-0.199	-0.215
-290.632	-100.916	0.152	0.037
-289.618	314.820	-0.139	0.259
-288.603	-12.311	-0.159	0.103
-287.589	-200.000	-0.022	0.568
-286.574	605.830	0.049	0.122
-285.559	-200.000	0.017	0.331
-284.545	-6.853	0.146	-0.098
-283.530	-87.433	0.479	-0.144
-282.516	-152.564	0.093	0.007
-281.501	-130.765	-0.173	-0.023
-280.486	-200.000	0.046	-0.293
-279.472	-34.984	0.142	0.077
-278.457	-70.271	0.161	-0.061
-277.443	-10.212	0.178	0.117
-276.428	407.668	-0.082	0.172
-275.413	-120.926	-0.165	0.028
-274.399	800.000	0.080	0.261
-273.384	-42.581	0.377	-0.191
-272.370	104.127	0.081	0.094
-271.355	-73.989	-0.110	0.040
-270.340	-200.000	0.017	-0.245
-269.326	-66.027	-0.129	0.051
-268.311	269.233	-0.083	0.144
-267.297	329.863	-0.092	0.176
-266.282	210.677	0.115	-0.180
-265.267	-200.000	0.024	-0.197
-264.253	430.089	0.138	-0.297
-263.238	522.998	-0.109	-0.254
-262.224	49.099	0.214	-0.200
-261.209	21.807	-0.314	-0.254
-260.195	-200.000	-0.002	0.320
-259.180	-112.728	0.436	-0.086
-258.165	800.000	0.120	-0.372
-257.151	-5.197	-0.251	-0.171
-256.136	800.000	-0.046	-0.191
-255.122	-200.000	-0.010	-0.092
-254.107	800.000	0.053	0.228
-253.092	63.809	-0.170	-0.169
-252.078	-73.614	0.398	-0.144
-251.063	-200.000	0.017	0.100
-250.049	180.663	-0.076	0.110
-249.034	-118.707	-0.370	-0.065
-248.019	-153.127	0.180	0.013
-247.005	8.673	0.543	0.406
-245.990	2.607	0.122	0.088
-244.976	295.541	0.107	-0.194
-243.961	58.124	-0.115	-0.111
-242.946	199.413	0.176	-0.268
-241.932	393.306	-0.036	-0.074
-240.917	800.000	-0.065	-0.277
-239.903	91.734	0.220	-0.245
-238.888	-200.000	-0.018	-0.134
-237.873	-83.722	0.311	0.099
-236.859	-76.530	-0.443	0.154
-235.844	341.069	0.054	-0.105
-234.830	1.668	0.259	-0.185
-233.815	-200.000	-0.049	-0.238
-232.800	800.000	0.065	-0.252
-231.786	199.629	-0.104	0.158
-230.771	-41.420	-0.142	-0.073
-229.757	86.439	0.174	-0.190
-228.742	-200.000	-0.003	-0.134
-227.727	800.000	-0.021	0.064
-226.713	-25.211	-0.309	-0.181
-225.698	-200.000	0.011	-0.394
-224.684	-112.725	-0.051	0.010
-223.669	-42.524	0.317	-0.160
-222.655	-200.000	0.035	0.251
-221.640	800.000	0.060	-0.212
-220.625	35.767	-0.116	0.101
-219.611	800.000	-0.093	0.258
-218.596	-117.226	0.197	-0.036
-217.582	-200.000	0.008	-0.142
-216.567	800.000	0.072	-0.290
-215.552	-156.904	-0.370	0.022
-214.538	101.416	-0.100	0.115
-213.523	-47.786	0.064	-0.031
-212.509	800.000	0.017	-0.052
-211.494	420.840	-0.096	0.204
-210.479	178.264	0.110	-0.159
-209.465	49.182	-0.150	-0.139
-208.450	151.983	0.074	-0.101
-207.436	-1.985	0.189	0.131
-206.421	-60.104	0.044	0.019
-205.406	187.682	-0.053	-0.078
-204.392	-200.000	-0.056	-0.263
-203.377	-58.534	-0.175	0.075
-202.363	-9.290	-0.092	0.061
-201.348	37.702	0.236	-0.208
-200.333	-147.118	-0.168	0.014
-199.319	-73.056	-0.245	0.089
-198.304	-43.062	-0.311	-0.156
-197.290	330.061	0.163	0.310
-196.275	-50.926	0.227	0.106
-195.260	-62.384	0.098	0.040
-194.246	-72.049	0.345	0.127
-193.231	800.000	0.023	-0.065
-192.217	-200.000	0.017	-0.248
-191.202	273.174	-0.061	-0.106
-190.187	0.811	0.231	0.164
-189.173	-200.000	0.005	-0.062
-188.158	-36.938	-0.052	-0.028
-187.144	-69.331	-0.039	-0.015
-186.129	-200.000	0.026	-0.249
-185.114	-120.902	0.207	-0.035
-184.100	-200.000	0.015	0.092
-183.085	659.447	-0.041	0.103
-182.071	800.000	-0.091	0.254
-181.056	5.411	0.092	-0.067
-180.042	119.318	0.118	0.144
-179.027	454.545	-0.067	-0.147
-178.012	-121.188	0.083	0.014
-176.998	60.825	0.191	0.187
-175.983	455.049	0.076	-0.166
-174.969	372.112	0.068	0.137
-173.954	-11.519	0.122	0.079
-172.939	126.917	-0.182	0.228
-171.925	54.013	-0.198	-0.188
-170.910	800.000	-0.089	0.242
-169.896	800.000	0.038	0.114
-168.881	-97.922	-0.097	-0.025
-167.866	-200.000	-0.040	0.274
-166.852	89.700	-0.224	-0.247
-165.837	-200.000	-0.009	0.104
-164.823	800.000	0.044	-0.145
-163.808	263.235	0.159	0.274
-162.793	-24.407	-0.218	-0.128
-161.779	190.310	-0.090	-0.134
-160.764	122.507	-0.163	-0.202
-159.750	-77.458	-0.143	-0.049
-158.735	500.914	0.033	-0.076
-157.720	800.000	0.053	-0.164
-156.706	-200.000	-0.004	0.168
-155.691	-70.288	-0.298	0.112
-154.677	-200.000	0.017	0.189
-153.662	57.946	-0.262	-0.253
-152.647	135.695	-0.135	-0.173
-151.633	30.784	0.306	0.259
-150.618	800.000	-0.067	0.278
-149.604	3.931	-0.205	0.148
-148.589	-200.000	0.046	-0.262
-147.574	-0.517	-0.177	0.124
-146.560	233.262	0.110	-0.178
-145.545	-119.706	-0.098	0.017
-144.531	190.708	-0.072	-0.106
-143.516	30.501	-0.352	-0.297
-142.502	203.346	0.016	-0.024
-141.487	115.776	0.195	0.236
-140.472	114.356	0.090	0.108
-139.458	-75.977	-0.104	0.036
-138.443	-92.069	-0.222	-0.062
-137.429	800.000	0.135	0.401
-136.414	-103.900	0.425	-0.098
-135.399	61.031	-0.323	0.317
-134.385	-75.022	0.098	0.035
-133.370	371.204	-0.058	0.115
-132.356	-63.075	-0.111	0.045
-131.341	800.000	-0.029	-0.092
-130.326	-5.962	0.161	0.109
-129.312	800.000	-0.076	0.292
-128.297	12.190	-0.175	0.133
-127.283	-92.721	-0.223	-0.062
-126.268	-44.489	0.052	-0.025
-125.253	800.000	0.033	-0.143
-124.239	88.202	0.234	0.256
-123.224	800.000	0.096	0.305
-122.210	800.000	-0.043	0.120
-121.195	53.980	0.200	-0.190
-120.180	134.442	-0.063	0.080
-119.166	800.000	-0.030	0.129
-118.151	-105.300	-0.318	-0.071
-117.137	-104.795	0.223	-0.051
-116.122	-126.574	-0.144	0.021
-115.107	-105.405	0.435	-0.098
-114.093	303.034	-0.233	-0.425
-113.078	-167.366	-0.242	0.010
-112.064	49.110	-0.079	0.073
-111.049	-61.044	-0.137	-0.057
-110.034	-13.019	-0.314	-0.201
-109.020	-79.916	0.219	-0.073
-108.005	-200.000	0.035	0.209
-106.991	-65.426	-0.087	0.035
-105.976	-99.954	0.277	-0.068
-104.962	49.664	-0.117	-0.108
-103.947	800.000	0.092	0.292
-102.932	-200.000	-0.027	-0.125
-101.918	800.000	0.031	-0.134
-100.903	17.067	-0.286	0.223
-99.889	-10.628	0.217	0.142
-98.874	-64.251	0.229	0.092
-97.859	-111.892	0.193	0.038
-96.845	138.224	-0.052	0.067
-95.830	102.243	0.112	-0.129
-94.816	-116.342	-0.158	0.029
-93.801	-13.598	-0.055	0.035
-92.786	-16.625	0.068	-0.042
-91.772	42.226	0.153	0.137
-90.757	-145.694	0.382	-0.034
-89.743	-22.233	0.372	0.222
-88.728	-200.000	0.007	-0.055
-87.713	74.046	-0.122	-0.126
-86.699	184.142	-0.115	0.167
-85.684	392.680	0.111	-0.227
-84.670	-51.210	-0.101	0.046
-83.655	148.206	0.082	0.110
-82.640	-200.000	0.025	0.277
-81.626	-200.000	0.013	-0.134
-80.611	-3.886	-0.215	-0.147
-79.597	-91.628	-0.271	0.076
-78.582	532.840	0.025	-0.059
-77.567	71.321	0.452	-0.462
-76.553	12.288	0.190	-0.144
-75.538	-9.363	-0.417	-0.274
-74.524	-200.000	-0.012	0.066
-73.509	148.644	-0.132	0.176
-72.494	-200.000	0.004	-0.041
-71.480	442.965	-0.142	0.307
-70.465	34.708	-0.175	-0.151
-69.451	-170.511	0.188	-0.006
-68.436	-83.563	0.164	0.052
-67.422	-43.773	-0.264	-0.131
-66.407	55.259	-0.015	-0.014
-65.392	-200.000	-0.007	-0.097
-64.378	-161.162	0.195	-0.010
-63.363	-178.454	0.133	0.003
-62.349	428.206	0.110	0.233
-61.334	-6.170	-1.162	-0.781
-60.319	-52.941	0.491	0.222
-59.305	-200.000	-0.037	-0.964
-58.290	177.828	0.709	1.017
-57.276	691.968	0.524	1.352
-56.261	-200.000	96.243	575.234
-55.246	553.543	1376.806	3257.622
-54.232	160.612	2551.341	3504.570
-53.217	112.288	2140.738	2547.553
-52.203	44.370	1604.088	1449.355
-51.188	36.324	1342.172	1164.370
-50.173	33.094	1300.587	1109.330
-49.159	54.824	1347.221	1279.283
-48.144	57.063	1363.851	1308.377
-47.130	36.476	1322.815	1148.295
-46.115	32.922	1305.614	1112.426
-45.100	32.665	1300.897	1106.855
-44.086	32.821	1297.709	1105.013
-43.071	32.788	1295.833	1103.176
-42.057	32.655	1293.862	1100.679
-41.042	32.740	1291.745	1099.329
-40.027	32.781	1290.822	1098.741
-39.013	32.848	1288.402	1097.026
-37.998	32.798	1286.938	1095.443
-36.984	32.791	1285.487	1094.125
-35.969	32.734	1283.698	1092.230
-34.954	32.843	1281.760	1091.166
-33.940	32.914	1280.625	1090.570
-32.925	32.842	1279.506	1089.154
-31.911	33.002	1277.381	1088.229
-30.896	32.856	1276.310	1086.429
-29.881	32.938	1274.878	1085.642
-28.867	32.923	1273.854	1084.636
-27.852	33.038	1271.576	1083.317
-26.838	32.946	1270.535	1081.856
-25.823	32.877	1269.337	1080.401
-24.809	32.920	1268.114	1079.560
-23.794	32.863	1266.504	1077.825
-22.779	32.878	1265.187	1076.748
-21.765	32.935	1263.961	1075.983
-20.750	32.906	1262.936	1074.906
-19.736	32.788	1261.457	1072.930
-18.721	32.773	1260.272	1071.794
-17.706	32.715	1259.654	1070.899
-16.692	32.676	1258.164	1069.369
-15.677	32.745	1256.903	1068.643
-14.663	32.825	1255.845	1068.156
-13.648	32.764	1254.875	1066.943
-12.633	32.605	1254.099	1065.343
-11.619	32.778	1253.227	1065.537
-10.604	32.683	1252.424	1064.277
-9.590	32.725	1251.067	1063.315
-8.575	32.671	1250.413	1062.416
-7.560	32.693	1249.393	1061.630
-6.546	32.811	1248.521	1061.511
-5.531	32.737	1247.669	1060.330
-4.517	32.802	1246.727	1059.848
-3.502	32.788	1245.712	1058.866
-2.487	32.801	1245.250	1058.505
-1.473	32.619	1241.238	1054.034
-0.458	31.337	1226.187	1034.121
0.556	28.297	1208.666	996.585
1.571	24.522	1214.422	980.554
2.586	23.842	1229.743	989.056
3.600	23.330	1218.718	977.280
4.615	17.142	1146.386	886.978
5.629	7.144	1068.977	778.094
6.644	2.520	1048.619	740.880
7.659	2.026	1046.355	736.826
8.673	1.912	1045.207	735.405
9.688	1.824	1043.817	733.937
10.702	2.426	1042.459	735.811
11.717	9.058	1051.567	774.258
12.731	19.078	1065.985	833.574
13.746	24.245	1072.012	863.310
14.761	25.209	1073.339	868.974
15.775	25.127	1073.207	868.393
16.790	25.134	1071.913	867.304
17.804	24.960	1071.147	865.767
18.819	25.199	1070.761	866.532
19.834	25.135	1070.754	866.140
20.848	25.269	1070.208	866.267
21.863	25.254	1069.932	865.897
22.877	25.150	1068.922	864.504
23.892	25.061	1068.895	863.976
24.907	25.158	1067.965	863.611
25.921	25.232	1066.539	862.741
26.936	25.138	1065.150	861.089
27.950	24.930	1064.070	859.139
28.965	24.964	1061.801	857.394
29.980	25.003	1060.295	856.293
30.994	25.239	1059.479	856.681
32.009	25.206	1058.455	855.620
33.023	25.027	1057.427	853.860
34.038	25.156	1056.544	853.687
35.053	25.097	1056.795	853.532
36.067	25.199	1055.204	852.659
37.082	25.337	1054.575	852.730
38.096	25.396	1054.226	852.653
39.111	25.470	1053.318	852.195
40.126	25.280	1052.195	850.309
41.140	24.901	1050.370	846.968
42.155	24.754	1048.895	845.009
43.169	24.919	1047.904	844.912
44.184	24.926	1046.632	843.849
45.199	24.712	1045.861	842.144
46.213	24.883	1045.022	842.197
47.228	25.030	1044.378	842.295
48.242	25.154	1043.657	842.219
49.257	25.086	1043.371	841.596
50.271	25.314	1041.982	841.472
51.286	25.300	1041.403	840.863
52.301	25.283	1040.393	839.895
53.315	25.173	1039.889	838.897
54.330	25.126	1039.012	837.894
55.344	25.181	1038.107	837.349
56.359	25.211	1036.975	836.503
57.374	25.007	1036.300	834.934
58.388	24.943	1035.844	834.191
59.403	24.858	1034.694	832.797
60.417	24.709	1033.884	831.382
61.432	24.946	1033.060	831.746
62.447	24.932	1032.875	831.457
63.461	24.930	1032.305	830.914
64.476	25.010	1030.836	830.027
65.490	24.801	1030.086	828.384
66.505	24.909	1029.225	828.116
67.520	25.032	1028.470	828.004
68.534	24.767	1027.129	825.629
69.549	24.434	1026.645	823.630
70.563	24.415	1025.640	822.664
71.578	24.544	1024.557	822.320
72.593	24.227	1023.940	820.289
73.607	24.583	1023.224	821.283
74.622	24.688	1023.313	821.762
75.636	24.826	1022.313	821.521
76.651	24.625	1021.252	819.674
77.666	24.622	1020.170	818.720
78.680	24.523	1020.512	818.466
79.695	24.774	1019.331	818.595
80.709	24.761	1018.980	818.183
81.724	24.749	1018.307	817.514
82.739	24.823	1017.126	816.831
83.753	25.300	1016.276	818.253
84.768	25.383	1016.307	818.582
85.782	25.509	1014.950	817.989
86.797	25.308	1014.197	816.397
87.812	25.353	1012.813	815.418
88.826	25.355	1012.388	815.010
89.841	25.422	1011.506	814.530
90.855	25.552	1009.863	813.726
91.870	25.467	1009.220	812.751
92.884	25.284	1008.367	811.165
93.899	25.134	1007.600	809.798
94.914	25.420	1006.628	810.238
95.928	25.472	1005.154	809.211
96.943	25.081	1004.399	806.775
97.957	24.862	1003.262	804.804
98.972	24.642	1002.323	802.993
99.987	25.024	1001.687	804.125
101.001	25.094	1001.287	804.045
102.016	25.084	1000.511	803.310
103.030	24.980	999.367	801.851
104.045	24.960	998.164	800.728
105.060	24.761	996.895	798.751
106.074	24.989	996.692	799.534
107.089	25.250	996.429	800.417
108.103	25.109	995.012	798.581
109.118	24.925	993.600	796.556
110.133	25.015	992.480	795.989
111.147	24.686	991.518	793.686
112.162	24.546	990.973	792.560
113.176	24.808	990.664	793.405
114.191	24.644	989.639	791.786
115.206	24.500	988.442	790.120
116.220	24.520	987.482	789.374
117.235	24.435	987.083	788.610
118.249	24.617	985.840	788.349
119.264	24.423	985.069	786.808
120.279	24.604	984.399	787.000
121.293	24.610	983.614	786.328
122.308	24.626	982.708	785.606
123.322	24.517	981.529	784.114
124.337	24.271	980.591	782.217
125.352	23.797	979.125	778.903
126.366	23.906	977.615	778.109
127.381	24.608	978.103	781.498
128.395	24.988	977.411	782.537
129.410	25.142	976.685	782.558
130.424	25.184	975.390	781.636
131.439	25.052	974.900	780.598
132.454	25.087	973.831	779.824
133.468	25.070	973.010	779.027
134.483	25.202	972.456	779.088
135.497	25.416	971.628	779.284
136.512	25.426	970.666	778.485
137.527	25.444	970.217	778.136
138.541	25.246	969.638	776.745
139.556	25.298	968.496	775.984
140.570	25.505	967.722	776.191
141.585	25.487	966.794	775.301
142.600	25.357	965.886	773.942
143.614	25.515	965.491	774.238
144.629	25.601	964.580	773.808
145.643	25.457	963.509	772.264
146.658	25.426	961.950	770.813
147.673	25.232	960.905	769.076
148.687	25.179	959.753	767.857
149.702	25.097	959.145	766.954
150.716	25.248	958.136	766.726
151.731	25.318	957.535	766.472
152.746	25.443	957.049	766.551
153.760	25.376	957.030	766.183
154.775	25.633	955.733	766.170
155.789	25.619	954.528	765.075
156.804	25.595	953.833	764.349
157.819	25.543	953.013	763.405
158.833	25.689	952.554	763.588
159.848	25.743	951.403	762.827
160.862	25.526	950.320	760.974
161.877	25.597	949.316	760.401
162.892	25.720	948.058	759.846
163.906	25.617	947.035	758.526
164.921	25.452	946.479	757.316
165.935	25.600	945.506	757.095
166.950	25.540	944.697	756.127
167.964	25.559	943.955	755.547
168.979	25.254	943.345	753.710
169.994	25.262	942.159	752.728
171.008	25.583	941.400	753.404
172.023	25.650	940.361	752.783
173.037	25.500	939.208	751.170
174.052	25.323	938.403	749.717
175.067	25.351	937.688	749.196
176.081	25.352	937.582	749.053
177.096	25.255	936.900	748.037
178.110	25.018	936.113	746.354
179.125	24.731	934.994	744.202
180.140	24.945	934.891	744.946
181.154	25.224	934.332	745.593
182.169	25.344	934.524	746.177
183.183	25.644	933.498	746.539
184.198	25.522	932.826	745.428
185.213	25.415	932.108	744.347
186.227	25.574	931.338	744.323
187.242	25.574	930.839	743.857
188.256	25.576	930.302	743.371
189.271	25.540	929.609	742.601
190.286	25.276	928.600	740.642
191.300	24.665	926.795	736.620
192.315	23.955	925.279	732.427
193.329	23.923	925.193	732.162
194.344	24.844	925.377	736.033
195.359	25.446	925.401	738.462
196.373	25.369	925.216	737.933
197.388	25.409	924.351	737.345
198.402	25.467	923.582	736.900
199.417	25.464	922.958	736.328
200.432	25.188	921.950	734.329
201.446	25.059	921.468	733.350
202.461	24.911	921.275	732.526
203.475	24.249	918.765	727.762
204.490	23.444	917.586	723.481
205.504	24.408	918.168	727.810
206.519	24.980	918.169	730.080
207.534	25.078	917.501	729.883
208.548	25.437	917.229	731.063
209.563	25.264	916.540	729.747
210.577	25.360	915.370	729.139
211.592	25.716	915.222	730.400
212.607	25.625	914.540	729.425
213.621	25.653	913.822	728.899
214.636	25.703	913.168	728.515
215.650	25.670	912.358	727.672
216.665	25.762	911.406	727.221
217.680	25.509	911.067	725.863
218.694	25.083	910.001	723.233
219.709	24.999	909.362	722.323
220.723	25.335	908.911	723.253
221.738	25.388	908.462	723.046
222.753	25.429	907.837	722.647
223.767	25.515	907.358	722.551
224.782	25.670	907.025	722.843
225.796	25.706	906.360	722.393
226.811	24.836	905.100	717.836
227.826	24.468	903.809	715.273
228.840	24.593	903.274	715.287
229.855	24.778	902.375	715.255
230.869	24.351	901.748	712.986
231.884	24.826	901.555	714.671
232.899	25.410	901.398	716.814
233.913	25.305	900.915	715.947
234.928	25.304	900.531	715.573
235.942	25.405	899.399	715.013
236.957	24.999	898.630	712.723
237.972	24.935	898.668	712.437
238.986	25.160	897.768	712.553
240.001	25.072	897.276	711.751
241.015	25.210	896.599	711.699
242.030	25.399	896.089	711.981
243.045	25.367	895.861	711.611
244.059	25.609	894.894	711.735
245.074	25.571	893.990	710.802
246.088	25.116	892.694	707.914
247.103	25.418	892.729	709.072
248.117	25.845	893.161	711.037
249.132	26.133	892.777	711.804
250.147	26.105	892.640	711.523
251.161	26.311	891.869	711.654
252.176	26.277	891.145	710.881
253.190	26.462	890.731	711.214
254.205	26.501	889.852	710.604
255.220	26.438	889.266	709.827
256.234	26.318	888.552	708.721
257.249	26.235	887.910	707.820
258.263	26.170	887.263	706.988
259.278	26.365	886.487	707.071
260.293	26.188	886.290	706.160
261.307	26.371	885.086	705.852
262.322	26.081	884.576	704.251
263.336	25.292	882.462	699.431
264.351	24.311	881.023	694.414
265.366	24.399	880.696	694.434
266.380	25.570	881.360	699.455
267.395	25.924	881.200	700.645
268.409	25.924	880.437	699.975
269.424	26.136	879.749	700.189
270.439	26.104	879.047	699.445
271.453	26.200	878.644	699.434
272.468	26.313	878.416	699.625
273.482	26.317	878.001	699.251
274.497	25.941	876.773	696.757
275.512	25.567	875.981	694.621
276.526	26.027	875.836	696.220
277.541	26.219	875.478	696.617
278.555	25.943	874.636	694.821
279.570	25.823	874.039	693.820
280.585	26.075	873.221	694.081
281.599	26.008	872.264	693.001
282.614	25.394	870.922	689.517
283.628	25.353	870.698	689.122
284.643	25.756	870.255	690.254
285.657	25.423	869.463	688.291
286.672	24.952	868.686	685.813
287.687	25.659	868.869	688.603
288.701	25.726	867.896	688.026
289.716	25.448	866.653	685.918
290.730	25.360	866.545	685.435
291.745	25.002	865.516	683.196
292.760	25.366	865.669	684.645
293.774	26.381	866.040	688.747
294.789	26.739	865.539	689.650
295.803	26.653	865.370	689.128
296.818	26.732	864.367	688.568
297.833	26.174	863.453	685.661
298.847	26.069	862.590	684.517
299.862	26.442	862.438	685.749
300.876	26.719	861.956	686.355
301.891	26.745	861.066	685.685
302.906	26.134	860.493	682.856
303.920	26.332	860.174	683.291
304.935	26.617	860.100	684.249
305.949	26.552	859.079	683.132
306.964	26.343	858.418	681.755
307.979	26.502	858.239	682.153
308.993	26.894	857.735	683.167
310.008	26.866	856.759	682.227
311.022	26.533	856.072	680.368
312.037	26.378	855.923	679.605
313.052	26.220	854.701	677.984
314.066	25.153	853.292	672.803
315.081	24.799	852.539	670.823
316.095	25.967	852.598	675.188
317.110	26.298	852.655	676.411
318.125	25.403	851.095	671.770
319.139	24.443	849.503	666.868
320.154	24.445	849.426	666.755
321.168	25.398	849.603	670.395
322.183	26.221	849.635	673.433
323.197	26.228	849.499	673.288
324.212	26.510	848.926	673.826
325.227	26.327	848.393	672.660
326.241	26.227	847.702	671.683
327.256	26.192	847.073	670.997
328.270	26.123	846.369	670.122
329.285	25.952	845.450	668.701
330.300	25.594	845.101	667.038
331.314	26.023	844.462	668.065
332.329	26.359	844.519	669.296
333.343	26.572	844.080	669.677
334.358	26.388	843.864	668.764
335.373	26.573	843.774	669.317
336.387	26.813	843.617	670.019
337.402	26.950	843.339	670.246
338.416	26.990	842.661	669.797
339.431	27.010	842.846	669.957
340.446	27.231	842.046	670.078
341.460	27.192	841.420	669.375
342.475	26.818	840.813	667.456
343.489	26.876	840.867	667.654
344.504	27.185	840.792	668.674
345.519	27.437	840.281	669.133
346.533	27.371	839.699	668.367
347.548	27.423	838.978	667.925
348.562	27.285	838.775	667.202
349.577	27.367	838.019	666.839
350.592	27.091	837.601	665.435
351.606	27.288	836.739	665.414
352.621	27.209	835.634	664.187
353.635	27.150	834.782	663.235
354.650	26.586	832.707	659.477
355.665	25.611	831.797	655.147
356.679	25.932	832.061	656.465
357.694	26.341	831.499	657.454
358.708	26.082	831.091	656.131
359.723	26.461	830.882	657.284
360.738	26.852	830.473	658.325
361.752	27.246	829.606	659.007
362.767	27.318	829.780	659.346
363.781	27.448	829.668	659.670
364.796	27.617	828.821	659.549
365.810	27.618	828.672	659.375
366.825	27.753	828.132	659.378
367.840	27.516	827.240	657.752
368.854	27.038	826.248	655.181
369.869	27.032	825.842	654.778
370.883	27.073	825.624	654.698
371.898	26.839	825.415	653.629
372.913	27.125	824.814	654.125
373.927	27.144	824.144	653.603
374.942	27.309	823.894	653.941
375.956	27.438	823.525	654.054
376.971	27.494	823.277	654.001
377.986	27.730	822.961	654.537
379.000	27.666	822.114	653.579
380.015	27.518	821.809	652.747
381.029	27.559	821.076	652.255
382.044	27.755	820.599	652.519
383.059	27.747	819.911	651.884
384.073	27.736	819.421	651.397
385.088	27.714	818.853	650.811
386.102	27.401	818.296	649.195
387.117	27.635	817.251	649.141
388.132	26.970	816.433	646.067
389.146	26.640	815.788	644.327
390.161	26.944	815.591	645.195
391.175	27.382	815.364	646.516
392.190	27.106	814.185	644.544
393.205	25.697	812.070	637.822
394.219	24.337	810.515	631.732
395.234	24.240	810.152	631.048
396.248	25.807	811.645	637.709
397.263	27.103	812.569	642.970
398.278	27.205	811.950	642.785
399.292	26.868	811.407	641.106
400.307	26.983	810.971	641.110
401.321	27.117	810.588	641.223
402.336	27.405	810.521	642.128
403.350	27.855	810.387	643.554
404.365	28.008	810.700	644.286
405.380	28.360	810.272	645.125
406.394	28.421	809.774	644.888
407.409	28.417	808.800	644.041
408.423	28.397	808.275	643.496
409.438	28.361	808.334	643.359
410.453	28.325	808.099	642.990
411.467	28.391	807.133	642.396
412.482	28.339	807.103	642.131
413.496	28.418	806.578	641.935
414.511	28.366	806.094	641.310
415.526	28.400	805.642	641.011
416.540	28.278	804.573	639.678
417.555	27.990	803.827	638.023
418.569	28.147	803.648	638.376
419.584	28.130	803.060	637.792
420.599	27.933	802.480	636.587
421.613	111.159	1285.163	1456.630
422.628	95.983	1355.469	1456.764
