DTS Sentinel unit serial number:	SN413079Multiplexer serial number:	ORYXHardware model number:	OX4-SRSoftware version number:	ORYX F/W v4.00 Oryx Data Collector v3.7.2.0data status	okinstallation	princeton_trtdifferential loss correction	single-endedforward channel	channel 1reverse channel	N/Adate	2019/09/11time	10:32:11forward acquisition time	60.00reverse acquisition time	0.00gamma	496.2192k internal	0.2299k external	0.2299temperature offset calibration	0.9951default loss term (dB/km)	0.3790temperature slope calibration	1.0000multiplexer offset coefficient	1.0000multiplexer slope coefficient	1.0000fibre end	0.00T internal ref (°C)	36.44T ext. ref 1 (°C)	0.17T ext. ref 2 (°C)	33.65length (m)	temperature (°C)	Stokes	anti-Stokes-747.200	485.574	0.063	-0.147
-746.185	-83.451	0.311	-0.102
-745.171	-93.458	-0.067	0.019
-744.156	-12.164	-0.263	-0.175
-743.142	-5.580	-0.304	0.213
-742.127	-200.000	0.025	0.538
-741.112	670.265	0.091	-0.241
-740.098	-200.000	-0.018	-0.324
-739.083	32.967	-0.291	0.257
-738.069	-35.068	0.340	0.189
-737.054	800.000	-0.069	0.199
-736.039	103.212	-0.294	-0.352
-735.025	304.565	-0.144	0.272
-734.010	360.142	-0.032	0.066
-732.996	-39.967	-0.165	-0.088
-731.981	-200.000	-0.051	-0.262
-730.966	769.216	0.094	-0.262
-729.952	756.221	-0.083	0.230
-728.937	-117.804	0.414	-0.076
-727.923	-124.276	0.050	0.008
-726.908	-118.871	0.151	-0.027
-725.894	-141.949	-0.197	-0.020
-724.879	0.564	-0.236	-0.172
-723.864	-80.395	0.216	0.073
-722.850	161.178	0.079	0.113
-721.835	-38.429	-0.184	-0.099
-720.821	32.412	-0.243	-0.214
-719.806	744.457	0.032	0.087
-718.791	320.006	-0.176	0.341
-717.777	186.904	-0.197	-0.300
-716.762	-81.993	-0.102	0.034
-715.748	-3.776	0.065	0.046
-714.733	230.472	-0.114	-0.191
-713.718	-35.972	0.109	-0.060
-712.704	-97.502	-0.234	0.062
-711.689	265.649	-0.282	0.501
-710.675	-200.000	-0.045	0.467
-709.660	384.320	-0.109	-0.229
-708.645	-90.110	0.242	0.072
-707.631	-41.021	0.375	0.197
-706.616	-85.965	-0.066	0.021
-705.602	-184.405	0.365	-0.006
-704.587	-170.961	0.090	0.003
-703.572	-200.000	0.018	0.127
-702.558	-119.953	0.177	0.031
-701.543	94.613	0.038	-0.045
-700.529	557.305	0.062	-0.153
-699.514	-200.000	-0.052	0.255
-698.499	22.332	-0.231	-0.192
-697.485	32.838	-0.126	0.111
-696.470	800.000	0.027	0.099
-695.456	-131.851	-0.300	0.040
-694.441	-146.302	-0.093	0.008
-693.426	7.107	-0.346	-0.263
-692.412	-200.000	0.013	0.204
-691.397	-198.731	0.287	-0.002
-690.383	-118.884	-0.234	0.042
-689.368	-200.000	0.003	0.107
-688.354	-18.462	-0.273	0.174
-687.339	283.814	0.153	-0.281
-686.324	-137.560	-0.348	0.040
-685.310	-76.644	-0.200	-0.071
-684.295	18.266	0.162	-0.132
-683.281	-99.619	0.098	-0.025
-682.266	-200.000	-0.036	-0.259
-681.251	-11.547	0.079	0.053
-680.237	800.000	-0.051	-0.201
-679.222	-133.840	-0.192	-0.024
-678.208	-200.000	-0.014	0.071
-677.193	69.475	0.269	-0.282
-676.178	-42.919	-0.317	-0.164
-675.164	-200.000	-0.015	-0.222
-674.149	800.000	0.085	-0.253
-673.135	648.072	-0.062	-0.162
-672.120	295.224	-0.169	-0.316
-671.105	91.098	0.127	-0.145
-670.091	-200.000	0.010	-0.208
-669.076	-141.136	-0.194	-0.020
-668.062	444.082	0.175	-0.391
-667.047	634.387	-0.132	-0.340
-666.032	-200.000	-0.019	-0.145
-665.018	-200.000	-0.008	-0.120
-664.003	19.717	0.300	-0.246
-662.989	-130.562	-0.079	0.011
-661.974	-23.840	-0.160	0.097
-660.959	73.984	-0.163	-0.174
-659.945	191.687	0.048	0.074
-658.930	136.020	0.113	-0.149
-657.916	-116.263	0.442	-0.083
-656.901	330.867	-0.192	-0.377
-655.886	-200.000	0.039	0.364
-654.872	-200.000	0.010	-0.068
-653.857	-78.385	-0.115	-0.040
-652.843	31.540	-0.286	0.250
-651.828	324.065	-0.166	-0.323
-650.814	-132.084	0.314	0.041
-649.799	-110.983	-0.338	-0.071
-648.784	-13.498	-0.124	-0.082
-647.770	-200.000	0.068	0.379
-646.755	465.802	-0.041	0.094
-645.741	264.653	-0.105	-0.187
-644.726	-166.044	-0.092	-0.004
-643.711	-200.000	-0.063	0.363
-642.697	-200.000	0.599	-0.001
-641.682	482.894	0.059	-0.136
-640.668	132.465	-0.059	-0.077
-639.653	-200.000	-0.008	-0.232
-638.638	-134.088	0.143	-0.018
-637.624	-200.000	0.018	-0.120
-636.609	-200.000	0.027	-0.292
-635.595	-4.499	0.140	-0.099
-634.580	-200.000	0.006	0.128
-633.565	-175.033	-0.168	-0.005
-632.551	-200.000	-0.021	-0.175
-631.536	72.182	0.029	0.031
-630.522	-112.700	-0.252	0.051
-629.507	65.289	0.181	0.186
-628.492	-86.884	0.265	-0.082
-627.478	26.031	-0.174	0.147
-626.463	103.061	0.198	0.235
-625.449	-56.578	-0.090	-0.041
-624.434	-116.911	0.177	-0.033
-623.419	-200.000	-0.019	-0.381
-622.405	-143.205	0.237	0.023
-621.390	-200.000	-0.007	0.399
-620.376	-9.798	-0.103	-0.070
-619.361	404.662	-0.061	-0.130
-618.346	-82.223	-0.136	0.045
-617.332	22.149	0.125	-0.103
-616.317	800.000	0.006	0.027
-615.303	370.150	0.111	-0.228
-614.288	800.000	-0.063	-0.256
-613.273	-135.233	-0.095	0.012
-612.259	-59.136	0.071	-0.031
-611.244	-148.632	0.287	-0.024
-610.230	-90.725	0.046	-0.013
-609.215	-85.536	0.198	-0.062
-608.201	155.624	-0.062	0.087
-607.186	453.034	-0.123	0.276
-606.171	-76.367	0.158	0.056
-605.157	85.371	0.041	-0.045
-604.142	-25.522	0.209	-0.125
-603.128	-75.139	-0.219	-0.079
-602.113	800.000	-0.028	0.087
-601.098	412.050	-0.069	-0.149
-600.084	737.607	-0.057	-0.154
-599.069	-117.661	0.387	-0.071
-598.055	-150.426	-0.202	0.016
-597.040	-200.000	0.017	-0.245
-596.025	-68.989	0.126	-0.049
-595.011	400.741	-0.034	-0.072
-593.996	-35.342	0.126	-0.070
-592.982	42.646	0.295	-0.272
-591.967	33.933	0.131	-0.116
-590.952	-112.254	-0.572	-0.116
-589.938	10.266	-0.215	-0.166
-588.923	-200.000	-0.045	0.345
-587.909	540.673	-0.130	0.314
-586.894	358.778	-0.096	0.194
-585.879	4.318	0.430	0.319
-584.865	425.402	0.046	-0.100
-583.850	-117.880	-0.256	-0.047
-582.836	156.530	-0.185	0.260
-581.821	800.000	-0.038	-0.155
-580.806	568.571	-0.064	-0.159
-579.792	-24.374	-0.195	-0.118
-578.777	334.336	-0.140	0.274
-577.763	-117.109	-0.043	-0.008
-576.748	-200.000	0.014	-0.179
-575.733	-200.000	-0.017	-0.244
-574.719	-18.017	-0.211	-0.134
-573.704	24.436	-0.151	0.126
-572.690	333.667	0.095	0.187
-571.675	800.000	-0.080	-0.282
-570.661	374.862	0.098	0.201
-569.646	0.428	-0.213	0.154
-568.631	-7.643	0.088	-0.060
-567.617	378.121	-0.043	-0.088
-566.602	229.782	-0.229	-0.379
-565.588	-138.873	-0.251	0.028
-564.573	-103.928	-0.120	-0.028
-563.558	-76.509	-0.131	-0.046
-562.544	-77.025	-0.440	0.156
-561.529	-200.000	-0.058	-0.450
-560.515	146.109	0.225	-0.306
-559.500	-200.000	-0.016	0.236
-558.485	-94.682	-0.578	-0.159
-557.471	-106.246	0.033	-0.007
-556.456	800.000	-0.077	0.217
-555.442	131.950	0.205	-0.267
-554.427	800.000	-0.054	-0.182
-553.412	-62.928	-0.192	0.081
-552.398	-62.177	0.140	0.059
-551.383	114.231	-0.144	0.178
-550.369	-146.766	0.102	-0.009
-549.354	65.408	-0.300	0.308
-548.339	-35.044	-0.166	-0.092
-547.325	69.783	0.223	-0.232
-546.310	-200.000	0.032	0.420
-545.296	3.731	-0.412	0.305
-544.281	-36.980	-0.175	0.095
-543.266	313.550	0.126	0.239
-542.252	-66.773	0.036	0.015
-541.237	123.285	-0.164	0.208
-540.223	-192.522	-0.568	0.005
-539.208	-120.481	-0.095	0.016
-538.193	-103.623	0.154	0.037
-537.179	-200.000	-0.036	-0.165
-536.164	-200.000	0.005	0.192
-535.150	40.559	-0.234	0.214
-534.135	108.714	-0.192	-0.232
-533.121	167.200	-0.053	-0.077
-532.106	-96.256	-0.095	0.025
-531.091	-39.719	0.239	-0.126
-530.077	-88.038	-0.162	0.049
-529.062	638.202	0.091	0.235
-528.048	800.000	0.051	0.145
-527.033	-37.286	-0.161	-0.087
-526.018	-0.256	-0.137	0.098
-525.004	135.487	-0.009	-0.012
-523.989	104.634	0.140	-0.167
-522.975	-112.296	-0.127	-0.026
-521.960	-108.961	-0.248	-0.054
-520.945	-200.000	-0.021	0.313
-519.931	55.975	0.077	-0.076
-518.916	-29.828	-0.258	0.149
-517.902	-138.909	-0.308	0.034
-516.887	-37.515	-0.116	-0.063
-515.872	-39.584	0.210	0.111
-514.858	-200.000	0.051	0.287
-513.843	-13.402	-0.101	-0.066
-512.829	655.639	-0.021	0.054
-511.814	77.064	0.212	-0.228
-510.799	106.747	0.063	0.076
-509.785	329.902	-0.068	-0.133
-508.770	100.310	-0.132	-0.155
-507.756	-72.831	0.241	0.090
-506.741	800.000	0.037	0.157
-505.726	-65.716	-0.342	0.139
-504.712	67.850	-0.312	0.323
-503.697	800.000	0.030	0.096
-502.683	132.523	0.168	0.219
-501.668	-1.885	-0.099	-0.071
-500.653	688.792	0.080	-0.211
-499.639	-0.119	-0.073	-0.053
-498.624	800.000	-0.027	-0.092
-497.610	-45.393	0.197	-0.099
-496.595	235.497	-0.188	-0.314
-495.581	-107.819	0.317	-0.070
-494.566	85.275	-0.180	0.199
-493.551	7.000	0.137	-0.103
-492.537	461.165	0.078	-0.176
-491.522	-147.661	0.425	0.036
-490.508	-73.898	-0.096	-0.035
-489.493	647.133	-0.015	0.040
-488.478	800.000	0.035	-0.132
-487.464	-52.188	0.087	0.041
-486.449	-200.000	-0.006	0.057
-485.435	-200.000	0.022	-0.213
-484.420	-8.248	0.227	0.154
-483.405	800.000	0.067	0.202
-482.391	392.102	0.187	-0.392
-481.376	-63.973	-0.200	-0.082
-480.362	800.000	-0.135	-0.478
-479.347	413.292	-0.012	0.026
-478.332	56.413	0.114	0.112
-477.318	-135.482	0.284	-0.034
-476.303	-69.203	0.111	-0.043
-475.289	20.533	-0.229	-0.187
-474.274	800.000	-0.057	0.172
-473.259	484.652	0.066	0.152
-472.245	27.189	0.186	-0.157
-471.230	651.179	-0.116	0.300
-470.216	-43.715	0.295	-0.150
-469.201	-98.632	0.144	-0.037
-468.186	-42.294	-0.143	-0.074
-467.172	500.007	0.031	0.071
-466.157	800.000	-0.077	-0.262
-465.143	15.493	-0.255	0.202
-464.128	800.000	0.079	0.245
-463.113	228.542	-0.157	-0.259
-462.099	-102.426	0.211	0.051
-461.084	22.102	-0.190	0.156
-460.070	77.564	-0.240	0.257
-459.055	-99.720	0.207	0.052
-458.040	213.490	0.115	-0.183
-457.026	-161.596	-0.106	0.005
-456.011	-102.709	0.064	-0.015
-454.997	-200.000	-0.011	0.221
-453.982	99.567	0.273	-0.319
-452.968	-119.061	0.181	0.032
-451.953	-200.000	-0.012	0.206
-450.938	-10.631	-0.202	0.135
-449.924	35.002	-0.121	0.107
-448.909	-20.540	0.081	-0.050
-447.895	-21.677	0.269	-0.165
-446.880	9.546	0.125	-0.096
-445.865	136.996	-0.166	0.219
-444.851	-88.707	-0.353	-0.106
-443.836	-175.463	-0.589	0.016
-442.822	-22.740	0.020	-0.012
-441.807	-200.000	0.050	-0.377
-440.792	-138.976	0.164	-0.018
-439.778	433.342	0.111	0.243
-438.763	800.000	0.031	0.109
-437.749	596.213	-0.096	-0.240
-436.734	-200.000	-0.065	-0.429
-435.719	-85.683	-0.044	0.014
-434.705	-89.832	-0.253	-0.075
-433.690	-109.765	0.267	0.057
-432.676	-31.963	0.194	0.109
-431.661	-66.135	0.220	0.088
-430.646	50.397	-0.181	0.173
-429.632	-101.798	-0.101	-0.025
-428.617	686.442	-0.018	-0.048
-427.603	-200.000	0.020	0.170
-426.588	-29.937	0.305	0.175
-425.573	800.000	0.062	0.174
-424.559	-40.215	0.212	-0.111
-423.544	30.126	-0.222	-0.191
-422.530	67.826	0.183	0.189
-421.515	-200.000	0.346	-0.000
-420.500	26.031	-0.304	0.256
-419.486	22.834	0.289	-0.239
-418.471	205.280	-0.162	-0.254
-417.457	38.228	0.149	-0.133
-416.442	-200.000	0.002	0.218
-415.428	-94.324	0.536	-0.148
-414.413	58.185	0.089	-0.088
-413.398	-158.346	0.205	-0.012
-412.384	222.064	-0.105	0.171
-411.369	404.478	0.115	-0.245
-410.355	800.000	-0.064	0.218
-409.340	572.527	0.038	-0.092
-408.325	-119.412	-0.296	-0.052
-407.311	-118.637	-0.148	-0.026
-406.296	800.000	0.057	0.194
-405.282	800.000	-0.097	-0.341
-404.267	-111.536	0.315	0.064
-403.252	38.595	0.054	0.048
-402.238	-17.559	0.105	0.067
-401.223	-140.744	0.236	-0.025
-400.209	-200.000	0.031	0.146
-399.194	-22.018	0.378	-0.231
-398.179	-88.898	-0.244	-0.073
-397.165	124.295	-0.044	-0.056
-396.150	-193.517	0.496	-0.004
-395.136	800.000	-0.038	0.131
-394.121	-104.936	-0.170	-0.039
-393.106	-200.000	0.031	0.374
-392.092	-200.000	-0.025	-0.161
-391.077	218.977	0.095	-0.152
-390.063	214.171	0.153	-0.244
-389.048	28.625	-0.168	0.143
-388.033	217.832	0.107	0.172
-387.019	130.498	0.217	0.280
-386.004	-200.000	0.022	0.261
-384.990	-109.222	0.423	-0.090
-383.975	24.108	0.242	0.201
-382.960	800.000	-0.077	-0.301
-381.946	-200.000	-0.008	-0.143
-380.931	-94.230	-0.107	0.030
-379.917	-200.000	0.033	-0.301
-378.902	-98.085	0.228	0.059
-377.888	-28.782	-0.156	0.090
-376.873	231.135	0.120	0.197
-375.858	345.760	-0.070	-0.138
-374.844	-120.440	-0.335	-0.057
-373.829	-7.542	0.100	0.068
-372.815	-119.904	-0.492	-0.085
-371.800	-200.000	0.017	-0.169
-370.785	-200.000	-0.026	0.135
-369.771	-49.890	-0.067	0.032
-368.756	-50.991	-0.239	0.113
-367.742	19.972	0.051	-0.042
-366.727	43.907	-0.140	-0.129
-365.712	-158.631	-0.262	-0.015
-364.698	258.325	-0.067	-0.115
-363.683	255.231	0.228	0.393
-362.669	-200.000	0.018	-0.250
-361.654	-36.702	-0.258	-0.139
-360.639	-43.361	0.223	-0.113
-359.625	-64.896	0.180	-0.073
-358.610	800.000	0.047	0.187
-357.596	-81.170	-0.144	0.048
-356.581	-17.773	0.011	-0.007
-355.566	-200.000	-0.037	0.418
-354.552	-25.730	-0.107	-0.064
-353.537	-110.365	0.348	-0.073
-352.523	-200.000	0.006	-0.106
-351.508	-179.016	-0.125	0.003
-350.493	91.170	0.062	0.070
-349.479	-200.000	0.002	-0.114
-348.464	93.330	-0.087	-0.099
-347.450	84.715	0.224	0.247
-346.435	-11.819	-0.075	-0.049
-345.420	-67.100	-0.212	0.084
-344.406	-119.068	-0.041	0.007
-343.391	-35.367	0.150	-0.082
-342.377	-200.000	-0.011	-0.155
-341.362	-136.294	-0.191	0.022
-340.348	-111.256	0.185	0.038
-339.333	-34.938	-0.217	0.119
-338.318	196.850	0.216	-0.331
-337.304	24.856	0.184	0.153
-336.289	-200.000	-0.001	0.253
-335.275	-200.000	0.046	0.274
-334.260	20.496	0.072	0.058
-333.245	376.256	-0.055	-0.112
-332.231	262.591	0.178	-0.311
-331.216	77.857	-0.204	-0.219
-330.202	-200.000	-0.026	-0.162
-329.187	-91.909	-0.326	0.093
-328.172	102.027	0.048	-0.057
-327.158	126.373	-0.152	-0.193
-326.143	-176.789	0.262	-0.007
-325.129	159.309	0.253	0.353
-324.114	-36.968	-0.115	0.062
-323.099	122.022	-0.206	0.258
-322.085	441.112	-0.062	0.137
-321.070	-200.000	0.028	-0.186
-320.056	112.164	0.141	0.172
-319.041	-26.801	0.195	-0.114
-318.026	-55.747	-0.242	-0.109
-317.012	-140.163	0.436	0.046
-315.997	197.982	-0.207	0.317
-314.983	-68.178	-0.187	-0.073
-313.968	-200.000	-0.037	0.343
-312.953	-9.919	0.282	-0.188
-311.939	-200.000	-0.052	-0.262
-310.924	-174.608	0.187	0.005
-309.910	-176.135	0.298	-0.008
-308.895	-111.470	-0.235	0.048
-307.880	-174.888	-0.185	0.005
-306.866	-154.514	0.210	0.014
-305.851	-116.581	-0.278	0.051
-304.837	235.380	0.163	0.270
-303.822	-62.201	-0.061	0.025
-302.807	-200.000	0.016	-0.298
-301.793	-13.981	0.194	-0.126
-300.778	-51.473	-0.280	-0.131
-299.764	-200.000	0.222	0.000
-298.749	-85.380	0.081	0.025
-297.735	57.526	-0.221	0.217
-296.720	47.887	0.112	0.105
-295.705	-200.000	0.008	0.114
-294.691	35.113	0.281	0.247
-293.676	113.014	-0.154	0.187
-292.662	-94.989	0.544	-0.147
-291.647	-85.343	-0.145	-0.045
-290.632	158.752	0.084	-0.117
-289.618	-200.000	0.042	-0.343
-288.603	-200.000	-0.000	-0.147
-287.589	23.570	-0.159	0.131
-286.574	37.458	-0.195	0.173
-285.559	27.708	0.287	0.242
-284.545	23.416	0.226	-0.186
-283.530	603.315	-0.035	-0.087
-282.516	6.379	-0.078	-0.058
-281.501	-110.694	0.189	-0.039
-280.486	-115.476	-0.378	-0.071
-279.472	800.000	0.069	-0.246
-278.457	-107.460	0.181	-0.040
-277.443	111.680	-0.015	-0.018
-276.428	130.942	-0.227	0.292
-275.413	347.789	-0.082	-0.162
-274.399	21.208	-0.086	-0.070
-273.384	-63.597	-0.288	-0.118
-272.370	-14.791	0.321	-0.206
-271.355	-200.000	-0.017	-0.152
-270.340	-200.000	-0.003	-0.061
-269.326	-80.415	0.287	0.096
-268.311	96.873	0.131	0.150
-267.297	-200.000	0.032	0.146
-266.282	-20.312	-0.230	-0.142
-265.267	-200.000	0.014	0.305
-264.253	-54.751	-0.407	-0.184
-263.238	505.064	0.113	0.262
-262.224	-68.811	-0.152	-0.059
-261.209	-200.000	-0.015	-0.229
-260.195	633.431	-0.081	0.207
-259.180	71.153	0.066	-0.068
-258.165	-30.617	0.095	0.054
-257.151	-95.658	0.373	0.100
-256.136	-66.358	0.245	-0.097
-255.122	-152.456	-0.147	-0.011
-254.107	-103.187	0.314	-0.074
-253.092	-61.018	0.039	-0.016
-252.078	90.885	-0.157	0.177
-251.063	800.000	-0.028	0.076
-250.049	800.000	0.045	-0.156
-249.034	53.098	-0.260	0.249
-248.019	-122.296	-0.253	-0.041
-247.005	-143.074	-0.158	-0.015
-245.990	22.397	-0.294	0.240
-244.976	-200.000	0.065	0.403
-243.961	2.268	0.446	0.323
-242.946	800.000	0.080	0.264
-241.932	-200.000	0.045	-0.235
-240.917	-145.189	0.044	-0.004
-239.903	-177.310	-0.366	0.009
-238.888	-200.000	-0.020	0.206
-237.873	21.280	0.191	-0.155
-236.859	-121.447	-0.079	0.013
-235.844	84.352	0.091	0.099
-234.830	127.904	-0.239	0.304
-233.815	217.809	-0.047	-0.074
-232.800	174.732	-0.153	-0.221
-231.786	226.438	0.119	-0.193
-230.771	-200.000	-0.013	-0.082
-229.757	-64.155	0.198	0.081
-228.742	-140.677	0.159	-0.016
-227.727	112.769	0.087	0.106
-226.713	800.000	-0.055	-0.171
-225.698	261.683	-0.043	-0.074
-224.684	86.689	-0.083	-0.092
-223.669	78.862	-0.160	-0.171
-222.655	800.000	-0.036	0.134
-221.640	598.471	0.112	-0.277
-220.625	800.000	-0.034	0.116
-219.611	800.000	-0.097	-0.397
-218.596	-80.601	-0.367	-0.122
-217.582	-158.297	0.051	0.003
-216.567	-43.919	-0.109	0.055
-215.552	-200.000	-0.009	-0.186
-214.538	-134.203	0.066	0.008
-213.523	-149.279	-0.177	0.014
-212.509	-200.000	-0.062	0.547
-211.494	70.464	0.077	-0.080
-210.479	638.166	0.022	0.057
-209.465	800.000	-0.040	0.117
-208.450	-60.893	-0.213	0.090
-207.436	126.980	0.053	-0.067
-206.421	55.308	-0.075	0.073
-205.406	-200.000	-0.053	0.245
-204.392	-102.080	0.342	-0.082
-203.377	438.133	0.164	-0.357
-202.363	-200.000	0.052	0.263
-201.348	-96.469	-0.369	0.097
-200.333	-200.000	-0.019	0.118
-199.319	-28.344	-0.099	0.057
-198.304	-106.352	-0.087	-0.019
-197.290	-94.774	0.101	0.027
-196.275	-62.986	0.100	0.041
-195.260	14.629	0.288	0.225
-194.246	0.135	0.062	-0.044
-193.231	-39.604	0.164	-0.086
-192.217	363.008	-0.146	-0.293
-191.202	-28.558	-0.139	-0.080
-190.187	-100.352	0.190	0.047
-189.173	-59.712	-0.231	0.099
-188.158	800.000	-0.054	-0.180
-187.144	120.650	0.206	0.255
-186.129	-200.000	0.009	-0.326
-185.114	53.435	-0.260	-0.249
-184.100	800.000	-0.044	0.180
-183.085	-73.086	0.284	-0.104
-182.071	-118.174	0.261	0.047
-181.056	-200.000	0.413	-0.001
-180.042	800.000	-0.147	-0.409
-179.027	-200.000	0.000	-0.099
-178.012	-41.315	-0.201	-0.103
-176.998	-103.106	-0.199	-0.047
-175.983	-200.000	0.033	0.164
-174.969	210.983	-0.182	-0.286
-173.954	-127.337	0.084	0.012
-172.939	-200.000	0.009	-0.318
-171.925	-61.756	-0.360	-0.151
-170.910	195.922	0.124	0.188
-169.896	91.218	0.219	0.245
-168.881	-47.365	0.034	-0.016
-167.866	2.080	0.190	0.137
-166.852	-25.660	0.152	0.089
-165.837	-57.091	0.230	0.101
-164.823	21.224	0.096	0.078
-163.808	-125.220	-0.185	-0.028
-162.793	731.669	0.064	-0.170
-161.779	-200.000	-0.010	0.309
-160.764	800.000	0.072	0.217
-159.750	-200.000	0.049	-0.231
-158.735	44.424	0.215	0.197
-157.720	289.422	-0.062	-0.111
-156.706	388.855	0.088	0.183
-155.691	-145.356	-0.269	-0.024
-154.677	166.929	-0.068	-0.096
-153.662	35.431	-0.218	0.190
-152.647	-82.747	0.342	0.110
-151.633	-137.539	0.331	0.037
-150.618	-200.000	-0.018	0.324
-149.604	-122.749	-0.177	0.029
-148.589	120.458	-0.064	-0.079
-147.574	-63.533	0.139	0.057
-146.560	-1.648	-0.077	0.054
-145.545	-38.145	0.042	0.022
-144.531	752.760	-0.035	0.095
-143.516	800.000	-0.082	0.245
-142.502	-200.000	-0.064	-0.280
-141.487	197.630	-0.230	-0.351
-140.472	13.702	0.045	-0.034
-139.458	-93.992	0.291	0.080
-138.443	-200.000	0.032	-0.191
-137.429	-62.575	-0.108	0.045
-136.414	1.686	-0.257	-0.184
-135.399	-149.861	0.150	-0.012
-134.385	-36.088	0.107	-0.058
-133.370	-51.392	0.117	0.055
-132.356	-38.161	-0.195	-0.103
-131.341	800.000	0.086	0.264
-130.326	61.972	-0.180	-0.179
-129.312	-129.086	0.275	-0.038
-128.297	-174.904	-0.122	-0.003
-127.283	-36.544	0.175	-0.094
-126.268	608.480	0.059	0.146
-125.253	-200.000	-0.005	-0.258
-124.239	488.565	0.088	-0.200
-123.224	182.543	-0.098	0.144
-122.210	238.686	0.091	-0.151
-121.195	800.000	-0.057	-0.214
-120.180	800.000	0.069	0.232
-119.166	134.294	0.047	-0.061
-118.151	-21.777	0.177	0.108
-117.137	-103.458	0.254	-0.060
-116.122	-200.000	0.009	0.235
-115.107	24.629	-0.220	-0.181
-114.093	297.452	0.109	0.200
-113.078	-8.535	0.184	0.123
-112.064	7.919	-0.127	0.095
-111.049	39.920	0.053	0.048
-110.034	21.746	-0.221	-0.179
-109.020	-85.282	0.262	0.081
-108.005	-130.301	0.110	0.015
-106.991	-200.000	-0.005	0.101
-105.976	-79.445	-0.253	-0.085
-104.962	-114.591	-0.178	-0.034
-103.947	-200.000	0.035	0.182
-102.932	-157.381	0.144	-0.009
-101.918	206.249	0.187	0.290
-100.903	800.000	0.045	0.158
-99.889	70.803	-0.140	0.144
-98.874	94.932	-0.173	-0.195
-97.859	-200.000	0.005	-0.089
-96.845	-75.723	0.062	-0.022
-95.830	48.678	-0.174	-0.162
-94.816	120.749	0.198	0.244
-93.801	-200.000	0.023	0.155
-92.786	-147.530	0.119	0.010
-91.772	193.488	0.120	0.181
-90.757	-137.417	-0.157	0.018
-89.743	-200.000	0.008	-0.109
-88.728	-200.000	0.003	0.101
-87.713	-119.889	0.485	0.083
-86.699	-28.603	0.183	0.105
-85.684	800.000	-0.089	-0.292
-84.670	-75.836	0.254	-0.089
-83.655	800.000	-0.027	0.096
-82.640	-48.085	0.366	-0.176
-81.626	800.000	0.059	-0.238
-80.611	-16.756	0.123	-0.077
-79.597	-43.415	-0.078	0.039
-78.582	-0.480	-0.065	-0.046
-77.567	-140.054	0.169	0.018
-76.553	800.000	-0.047	-0.138
-75.538	-143.444	0.389	-0.037
-74.524	800.000	-0.064	0.243
-73.509	332.040	0.144	0.277
-72.494	-122.126	0.145	0.024
-71.480	54.179	-0.302	0.289
-70.465	-12.648	-0.164	0.106
-69.451	-200.000	0.018	-0.085
-68.436	114.481	0.104	0.126
-67.422	131.181	-0.090	0.115
-66.407	-76.522	0.239	0.083
-65.392	-200.000	0.029	-0.223
-64.378	-200.000	0.005	0.107
-63.363	-200.000	0.008	-0.118
-62.349	478.048	0.045	-0.101
-61.334	126.080	-0.811	-1.019
-60.319	187.094	0.327	0.485
-59.305	158.690	-0.605	-0.835
-58.290	67.558	0.519	0.527
-57.276	-200.000	0.356	1.616
-56.261	-200.000	88.190	498.647
-55.246	534.988	1374.852	3238.577
-54.232	183.879	2608.837	3834.084
-53.217	115.698	2230.077	2709.179
-52.203	47.274	1676.124	1550.450
-51.188	39.820	1405.425	1252.925
-50.173	36.562	1361.349	1193.512
-49.159	55.897	1404.554	1352.898
-48.144	60.346	1423.119	1398.583
-47.130	40.333	1381.108	1234.249
-46.115	36.603	1363.993	1195.892
-45.100	36.350	1359.340	1190.203
-44.086	36.317	1356.558	1187.516
-43.071	36.147	1354.523	1184.644
-42.057	36.247	1351.830	1182.858
-41.042	36.324	1350.344	1181.977
-40.027	36.297	1348.931	1180.530
-39.013	36.401	1346.667	1179.137
-37.998	36.366	1344.975	1177.395
-36.984	36.374	1343.020	1175.689
-35.969	36.435	1341.404	1174.600
-34.954	36.616	1338.760	1173.332
-33.940	36.568	1337.604	1171.985
-32.925	36.550	1336.178	1170.581
-31.911	36.619	1334.601	1169.564
-30.896	36.629	1333.608	1168.712
-29.881	36.444	1332.283	1166.388
-28.867	36.578	1330.838	1165.881
-27.852	36.573	1329.559	1164.687
-26.838	36.516	1327.899	1162.845
-25.823	36.534	1326.483	1161.666
-24.809	36.504	1324.683	1159.863
-23.794	36.455	1323.608	1158.585
-22.779	36.581	1321.892	1157.789
-21.765	36.477	1321.070	1156.400
-20.750	36.485	1319.752	1155.246
-19.736	36.372	1318.333	1153.282
-18.721	36.321	1316.803	1151.599
-17.706	36.404	1315.468	1150.878
-16.692	36.434	1314.462	1150.130
-15.677	36.343	1313.432	1148.642
-14.663	36.353	1312.480	1147.825
-13.648	36.406	1310.889	1146.699
-12.633	36.380	1309.960	1145.691
-11.619	36.294	1309.165	1144.440
-10.604	36.332	1307.925	1143.536
-9.590	36.313	1307.083	1142.639
-8.575	36.412	1306.112	1142.330
-7.560	36.352	1305.552	1141.442
-6.546	36.349	1304.443	1140.412
-5.531	36.329	1303.735	1139.625
-4.517	36.343	1302.627	1138.696
-3.502	36.392	1302.075	1138.456
-2.487	36.436	1300.701	1137.468
-1.473	36.453	1296.910	1134.211
-0.458	35.349	1282.532	1115.174
0.556	30.509	1263.919	1078.020
1.571	27.139	1269.034	1062.618
2.586	26.331	1284.632	1070.796
3.600	25.135	1272.824	1053.839
4.615	17.391	1193.778	945.438
5.629	5.615	1110.200	817.975
6.644	0.536	1086.719	774.585
7.659	0.121	1084.310	770.675
8.673	0.021	1082.390	768.731
9.688	-0.015	1081.288	767.696
10.702	0.543	1080.217	769.718
11.717	7.731	1091.395	814.540
12.731	18.069	1106.917	879.517
13.746	21.918	1111.240	902.715
14.761	22.102	1110.968	903.362
15.775	21.957	1110.392	902.067
16.790	21.822	1109.413	900.502
17.804	21.800	1108.524	899.586
18.819	21.956	1108.381	900.190
19.834	22.006	1107.931	900.002
20.848	21.832	1107.933	899.034
21.863	21.815	1107.300	898.350
22.877	21.841	1106.266	897.567
23.892	21.763	1105.518	896.484
24.907	21.838	1105.105	896.449
25.921	21.823	1103.507	895.000
26.936	21.735	1102.544	893.689
27.950	21.632	1100.866	891.723
28.965	21.655	1098.834	890.117
29.980	21.722	1097.058	888.940
30.994	21.983	1096.182	889.475
32.009	21.972	1094.914	888.311
33.023	21.721	1093.527	885.840
34.038	21.803	1092.962	885.715
35.053	21.895	1092.444	885.681
36.067	21.977	1090.948	884.808
37.082	21.947	1090.831	884.483
38.096	22.127	1089.762	884.441
39.111	22.307	1088.803	884.493
40.126	21.946	1087.742	881.737
41.140	21.785	1085.464	879.008
42.155	21.508	1084.370	876.655
43.169	21.631	1083.665	876.624
44.184	21.536	1082.670	875.266
45.199	21.418	1081.497	873.652
46.213	21.587	1080.265	873.418
47.228	21.630	1079.768	873.157
48.242	21.741	1078.582	872.670
49.257	21.829	1078.055	872.606
50.271	21.853	1077.299	872.035
51.286	21.904	1076.483	871.552
52.301	22.017	1075.198	870.996
53.315	21.976	1074.265	869.959
54.330	21.853	1073.603	868.735
55.344	21.812	1072.600	867.645
56.359	21.748	1071.971	866.745
57.374	21.687	1070.742	865.374
58.388	21.629	1070.426	864.755
59.403	21.683	1068.881	863.698
60.417	21.508	1067.832	861.910
61.432	21.558	1067.517	861.825
62.447	21.683	1066.932	861.892
63.461	21.700	1066.583	861.616
64.476	21.708	1064.907	860.229
65.490	21.491	1064.417	858.692
66.505	21.502	1063.737	858.119
67.520	21.625	1063.191	858.207
68.534	21.425	1061.574	855.844
69.549	21.045	1060.689	853.197
70.563	21.133	1059.847	852.873
71.578	21.177	1058.775	852.150
72.593	21.074	1057.510	850.556
73.607	21.071	1057.350	850.336
74.622	21.448	1057.083	851.886
75.636	21.428	1056.011	850.845
76.651	21.422	1054.967	849.900
77.666	21.240	1054.268	848.378
78.680	21.457	1053.697	848.898
79.695	21.424	1053.099	848.180
80.709	21.563	1052.421	848.235
81.724	21.444	1051.602	846.923
82.739	21.628	1051.083	847.320
83.753	21.915	1050.905	848.492
84.768	22.159	1049.760	848.668
85.782	22.208	1048.838	848.086
86.797	22.216	1047.819	847.226
87.812	22.018	1046.630	845.233
88.826	21.920	1046.514	844.596
89.841	22.190	1044.970	844.572
90.855	22.041	1043.972	842.976
91.870	22.114	1042.900	842.386
92.884	21.958	1041.398	840.350
93.899	21.890	1040.896	839.547
94.914	22.154	1039.915	839.943
95.928	21.879	1038.814	837.665
96.943	21.795	1037.352	836.012
97.957	21.576	1035.785	833.633
98.972	21.271	1035.130	831.577
99.987	21.549	1034.555	832.364
101.001	21.887	1033.912	833.383
102.016	21.772	1032.994	832.022
103.030	21.656	1032.051	830.640
104.045	21.488	1031.207	829.091
105.060	21.349	1029.657	827.111
106.074	21.666	1028.729	827.791
107.089	21.997	1028.560	829.145
108.103	21.877	1027.307	827.496
109.118	21.679	1025.998	825.438
110.133	21.595	1024.890	824.078
111.147	21.508	1023.683	822.623
112.162	21.274	1023.108	820.992
113.176	21.545	1022.566	821.753
114.191	21.530	1021.419	820.689
115.206	21.179	1020.195	817.989
116.220	21.114	1020.020	817.471
117.235	21.474	1018.152	817.589
118.249	21.333	1017.650	816.454
119.264	21.255	1016.803	815.338
120.279	21.172	1016.269	814.450
121.293	21.306	1015.252	814.186
122.308	21.413	1014.102	813.689
123.322	21.301	1012.532	811.837
124.337	21.218	1011.527	810.574
125.352	20.717	1009.718	806.732
126.366	20.721	1008.604	805.788
127.381	21.367	1008.946	808.982
128.395	21.736	1008.223	810.036
129.410	21.886	1007.243	809.869
130.424	21.835	1006.704	809.128
131.439	21.874	1005.388	808.178
132.454	21.710	1004.598	806.717
133.468	21.759	1003.556	806.038
134.483	21.786	1002.889	805.554
135.497	22.032	1002.088	805.967
136.512	22.170	1001.229	805.836
137.527	22.116	1000.201	804.690
138.541	22.122	999.584	804.153
139.556	22.152	998.750	803.548
140.570	22.150	998.111	802.954
141.585	22.197	996.728	801.983
142.600	22.089	995.636	800.541
143.614	22.330	995.039	801.088
144.629	22.523	994.122	801.157
145.643	22.143	993.198	798.615
146.658	21.892	992.181	796.588
147.673	22.099	990.259	795.910
148.687	21.930	989.214	794.234
149.702	21.785	988.360	792.822
150.716	21.724	987.928	792.133
151.731	22.031	986.883	792.610
152.746	22.179	986.475	792.882
153.760	22.228	985.909	792.577
154.775	22.204	984.965	791.640
155.789	22.214	984.092	790.913
156.804	22.174	982.870	789.680
157.819	22.265	982.279	789.544
158.833	22.324	981.798	789.354
159.848	22.369	980.266	788.251
160.862	22.126	979.178	786.220
161.877	22.151	978.235	785.507
162.892	22.239	977.308	785.086
163.906	22.058	976.330	783.424
164.921	22.175	975.515	783.220
165.935	22.397	974.430	783.267
166.950	22.237	973.703	781.903
167.964	22.231	972.716	781.012
168.979	22.103	971.682	779.548
169.994	21.956	970.487	777.869
171.008	22.274	970.162	778.945
172.023	22.123	969.225	777.457
173.037	22.107	967.961	776.305
174.052	21.839	966.973	774.262
175.067	22.033	966.409	774.594
176.081	22.012	966.261	774.319
177.096	21.981	965.206	773.265
178.110	21.748	964.186	771.353
179.125	21.496	963.626	769.729
180.140	21.697	962.770	769.861
181.154	21.693	962.812	769.808
182.169	22.036	962.879	771.300
183.183	22.289	961.891	771.553
184.198	22.084	961.202	770.035
185.213	22.050	960.589	769.326
186.227	22.268	959.819	769.593
187.242	22.228	958.979	768.675
188.256	22.176	958.716	768.172
189.271	22.289	957.871	767.921
190.286	21.922	956.888	765.465
191.300	21.448	954.813	761.670
192.315	20.749	953.013	757.127
193.329	20.696	953.051	756.863
194.344	21.475	953.933	760.883
195.359	22.050	953.714	763.144
196.373	22.132	953.454	763.224
197.388	22.031	952.313	761.804
198.402	22.071	951.219	761.037
199.417	22.206	950.375	760.875
200.432	21.875	949.451	758.637
201.446	21.452	949.545	756.815
202.461	21.559	948.889	756.690
203.475	20.840	946.578	751.675
204.490	20.103	945.313	747.428
205.504	20.944	946.045	751.571
206.519	21.631	945.715	754.199
207.534	21.735	945.094	754.087
208.548	22.094	944.938	755.438
209.563	21.849	943.763	753.379
210.577	21.851	943.147	752.830
211.592	22.223	942.794	754.081
212.607	22.296	941.549	753.329
213.621	22.215	941.478	752.856
214.636	22.233	940.760	752.292
215.650	22.026	939.978	750.715
216.665	22.358	939.019	751.302
217.680	22.396	938.375	750.884
218.694	21.868	936.981	747.452
219.709	21.622	936.583	746.020
220.723	21.867	935.985	746.521
221.738	22.058	935.065	746.535
222.753	22.035	934.811	746.165
223.767	22.115	934.496	746.191
224.782	22.301	934.088	746.588
225.796	22.319	933.581	746.190
226.811	21.739	932.061	742.454
227.826	21.185	930.432	738.748
228.840	21.081	930.387	738.205
229.855	21.396	929.368	738.662
230.869	21.025	928.165	736.078
231.884	21.445	927.996	737.650
232.899	22.263	928.129	741.140
233.913	22.190	927.149	739.983
234.928	22.092	926.647	739.104
235.942	21.987	925.959	738.048
236.957	21.658	925.147	735.955
237.972	21.750	924.848	736.036
238.986	21.695	924.047	735.106
240.001	21.782	923.483	734.955
241.015	21.796	922.891	734.477
242.030	21.948	922.564	734.789
243.045	22.072	922.013	734.806
244.059	22.243	921.387	734.954
245.074	21.996	920.445	733.108
246.088	21.756	919.389	731.202
247.103	21.826	919.319	731.374
248.117	22.539	919.232	734.208
249.132	22.682	918.697	734.315
250.147	22.791	917.985	734.133
251.161	22.937	917.393	734.200
252.176	22.820	916.639	733.048
253.190	22.874	916.570	733.149
254.205	23.172	915.443	733.418
255.220	23.085	915.153	732.763
256.234	22.822	914.540	731.117
257.249	22.792	913.656	730.222
258.263	22.866	913.030	729.963
259.278	23.006	911.998	729.652
260.293	22.952	912.054	729.407
261.307	22.901	910.784	728.117
262.322	22.803	909.889	726.936
263.336	21.979	907.922	721.913
264.351	20.918	906.077	716.024
265.366	21.119	905.604	716.412
266.380	22.199	906.335	721.360
267.395	22.524	906.252	722.563
268.409	22.501	905.739	721.995
269.424	22.657	904.933	721.931
270.439	22.662	904.047	721.178
271.453	22.879	903.483	721.551
272.468	23.104	903.360	722.310
273.482	23.070	903.025	721.837
274.497	22.570	901.881	718.821
275.512	22.210	900.723	716.369
276.526	22.631	900.817	718.094
277.541	22.873	900.090	718.438
278.555	22.651	899.093	716.674
279.570	22.308	898.628	714.848
280.585	22.554	898.022	715.300
281.599	22.655	897.094	714.909
282.614	21.949	895.763	710.924
283.628	22.032	895.438	710.942
284.643	22.274	895.341	711.779
285.657	21.985	893.844	709.358
286.672	21.918	892.787	708.188
287.687	22.151	893.428	709.572
288.701	22.161	892.844	709.086
289.716	22.036	891.244	707.252
290.730	21.930	890.867	706.462
291.745	21.807	889.878	705.119
292.760	21.967	889.934	705.745
293.774	22.989	890.412	710.173
294.789	23.311	889.839	710.946
295.803	23.290	889.263	710.338
296.818	23.448	888.281	710.122
297.833	22.748	887.613	706.722
298.847	22.690	886.533	705.570
299.862	23.034	886.360	706.745
300.876	23.132	886.530	707.209
301.891	23.223	884.959	706.256
302.906	22.719	884.390	703.730
303.920	23.010	883.860	704.405
304.935	23.349	883.645	705.520
305.949	23.199	883.160	704.474
306.964	22.971	882.547	703.018
307.979	23.091	881.714	702.768
308.993	23.390	881.439	703.673
310.008	23.427	880.983	703.396
311.022	23.002	880.317	701.117
312.037	23.063	879.436	700.595
313.052	22.658	878.539	698.212
314.066	21.844	876.647	693.431
315.081	21.579	876.174	691.947
316.095	22.436	876.619	695.626
317.110	22.993	876.334	697.538
318.125	22.223	874.525	693.000
319.139	21.058	873.213	687.315
320.154	21.087	872.763	687.011
321.168	22.078	872.945	690.997
322.183	22.584	873.310	693.214
323.197	22.766	873.240	693.812
324.212	23.015	872.732	694.326
325.227	23.021	872.230	693.890
326.241	22.965	871.488	693.019
327.256	22.916	870.747	692.176
328.270	22.806	869.853	690.972
329.285	22.478	869.110	689.037
330.300	22.314	868.414	687.783
331.314	22.741	868.025	689.083
332.329	22.941	868.007	689.788
333.343	23.157	867.550	690.207
334.358	23.013	867.056	689.190
335.373	23.174	866.561	689.364
336.387	23.437	867.039	690.707
337.402	23.526	866.749	690.761
338.416	23.356	866.452	689.802
339.431	23.526	865.822	689.901
340.446	23.698	865.260	690.063
341.460	23.571	864.747	689.097
342.475	23.399	863.931	687.721
343.489	23.574	863.836	688.261
344.504	23.793	863.676	688.925
345.519	23.901	863.380	689.043
346.533	23.868	862.988	688.541
347.548	24.013	861.948	688.213
348.562	23.797	861.707	687.123
349.577	23.735	860.943	686.216
350.592	23.851	860.104	685.934
351.606	23.863	859.481	685.421
352.621	23.838	858.637	684.592
353.635	23.624	857.813	683.049
354.650	22.976	856.129	679.158
355.665	22.238	854.560	675.024
356.679	22.465	854.652	675.907
357.694	22.808	854.158	676.774
358.708	22.856	853.546	676.410
359.723	23.115	853.689	677.456
360.738	23.624	852.928	678.740
361.752	23.588	852.353	678.083
362.767	23.989	852.004	679.278
363.781	24.161	852.021	679.890
364.796	24.223	851.479	679.631
365.810	24.195	851.459	679.450
366.825	24.214	850.697	678.852
367.840	23.973	849.838	677.192
368.854	23.640	848.982	675.182
369.869	23.579	848.409	674.435
370.883	23.551	848.012	673.954
371.898	23.581	847.710	673.769
372.913	23.791	847.019	673.954
373.927	23.793	846.548	673.528
374.942	23.831	846.496	673.572
375.956	24.049	845.999	673.942
376.971	24.075	845.647	673.701
377.986	24.278	845.260	674.100
379.000	24.146	844.870	673.230
380.015	24.027	843.866	671.922
381.029	24.113	843.028	671.518
382.044	24.312	842.521	671.807
383.059	24.274	842.285	671.417
384.073	24.344	841.754	671.195
385.088	24.377	841.062	670.707
386.102	24.006	840.546	668.843
387.117	23.965	839.693	667.954
388.132	23.719	838.280	665.848
389.146	23.212	837.522	663.287
390.161	23.414	837.654	664.089
391.175	24.000	837.222	665.881
392.190	23.676	836.657	664.161
393.205	22.257	833.945	656.658
394.219	20.892	832.499	650.368
395.234	20.755	832.647	649.916
396.248	22.379	833.804	656.827
397.263	23.801	834.386	662.533
398.278	23.812	834.161	662.336
399.292	23.612	833.519	661.024
400.307	23.663	832.687	660.494
401.321	23.754	832.387	660.537
402.336	24.128	832.351	661.838
403.350	24.401	832.487	662.904
404.365	24.658	832.356	663.694
405.380	24.837	832.061	664.067
406.394	24.954	831.174	663.731
407.409	24.861	830.460	662.761
408.423	24.865	830.428	662.691
409.438	24.870	830.388	662.618
410.453	25.002	829.652	662.459
411.467	24.736	828.922	660.837
412.482	24.940	828.019	660.811
413.496	25.017	827.974	660.999
414.511	24.934	827.785	660.482
415.526	24.960	827.140	660.008
416.540	24.829	826.550	658.994
417.555	24.557	825.970	657.475
418.569	24.650	825.465	657.354
419.584	24.600	824.825	656.603
420.599	24.341	824.398	655.256
421.613	151.029	1366.616	1787.468
422.628	131.633	1445.646	1787.598
