DTS Sentinel unit serial number:	SN413079Multiplexer serial number:	ORYXHardware model number:	OX4-SRSoftware version number:	ORYX F/W v4.00 Oryx Data Collector v3.7.2.0data status	okinstallation	princeton_trtdifferential loss correction	single-endedforward channel	channel 1reverse channel	N/Adate	2019/09/12time	07:16:11forward acquisition time	60.00reverse acquisition time	0.00gamma	496.2192k internal	0.2319k external	0.2319temperature offset calibration	1.0044default loss term (dB/km)	0.3790temperature slope calibration	1.0000multiplexer offset coefficient	1.0000multiplexer slope coefficient	1.0000fibre end	0.00T internal ref (°C)	32.25T ext. ref 1 (°C)	1.60T ext. ref 2 (°C)	28.33length (m)	temperature (°C)	Stokes	anti-Stokes-747.200	143.647	0.229	0.309
-746.185	508.077	-0.186	0.437
-745.171	-174.289	0.122	0.004
-744.156	-80.134	-0.103	-0.035
-743.142	-121.172	0.351	0.059
-742.127	800.000	0.064	0.225
-741.112	126.399	0.040	-0.051
-740.098	127.787	0.221	0.284
-739.083	323.047	-0.083	0.159
-738.069	-131.878	0.153	0.020
-737.054	-16.312	0.186	0.119
-736.039	-116.679	-0.228	0.042
-735.025	50.160	0.115	-0.110
-734.010	135.822	0.112	0.148
-732.996	-84.123	-0.385	-0.123
-731.981	800.000	0.053	-0.176
-730.966	0.234	0.273	-0.197
-729.952	-67.184	-0.260	-0.103
-728.937	-128.703	-0.184	-0.026
-727.923	4.961	0.201	-0.150
-726.908	800.000	0.034	-0.103
-725.894	111.092	0.078	0.094
-724.879	-92.008	-0.038	0.011
-723.864	-119.369	0.193	0.034
-722.850	-14.169	-0.177	0.115
-721.835	-200.000	0.027	0.234
-720.821	-99.027	-0.135	0.034
-719.806	180.154	0.127	0.189
-718.791	-200.000	0.038	0.187
-717.777	-200.000	-0.004	-0.097
-716.762	-109.198	-0.255	0.055
-715.748	178.466	-0.094	-0.139
-714.733	-28.500	0.297	0.173
-713.718	37.878	0.140	-0.126
-712.704	-188.443	-0.162	-0.002
-711.689	320.465	-0.061	-0.117
-710.675	-200.000	0.017	-0.294
-709.660	-200.000	-0.006	-0.038
-708.645	-200.000	-0.028	-0.200
-707.631	34.560	-0.246	0.217
-706.616	-62.809	0.215	0.090
-705.602	121.724	0.206	0.259
-704.587	303.574	0.127	-0.238
-703.572	-14.801	-0.194	-0.126
-702.558	-111.323	-0.369	0.076
-701.543	800.000	0.103	-0.431
-700.529	-200.000	-0.034	-0.188
-699.514	-103.957	0.079	-0.019
-698.499	-107.915	0.423	0.093
-697.485	-111.543	-0.106	0.022
-696.470	-13.456	-0.003	0.002
-695.456	-189.972	0.067	-0.001
-694.441	-48.625	0.036	-0.017
-693.426	-145.331	0.552	-0.050
-692.412	-200.000	0.007	-0.091
-691.397	538.399	0.004	0.010
-690.383	-21.141	0.170	-0.105
-689.368	314.451	0.074	0.141
-688.354	321.180	-0.203	-0.389
-687.339	800.000	0.121	0.438
-686.324	-11.457	0.150	-0.100
-685.310	-65.638	0.063	-0.026
-684.295	-139.374	0.267	0.029
-683.281	800.000	0.072	0.254
-682.266	800.000	-0.203	0.659
-681.251	-32.274	-0.165	0.093
-680.237	-93.026	-0.274	-0.077
-679.222	-16.705	-0.039	-0.025
-678.208	-64.658	0.117	0.048
-677.193	-30.493	-0.273	0.156
-676.178	800.000	0.134	-0.456
-675.164	-112.235	0.102	-0.021
-674.149	3.570	-0.196	0.144
-673.135	153.824	0.027	0.037
-672.120	-200.000	-0.015	-0.322
-671.105	-162.131	-0.305	0.015
-670.091	56.335	-0.135	0.132
-669.076	54.607	0.373	0.363
-668.062	104.078	-0.133	0.158
-667.047	800.000	-0.095	-0.285
-666.032	-200.000	-0.012	0.320
-665.018	-142.302	-0.490	0.049
-664.003	-100.816	0.255	-0.063
-662.989	-144.786	0.316	0.029
-661.974	-78.737	-0.235	0.081
-660.959	2.224	0.167	0.122
-659.945	-24.691	0.117	0.070
-658.930	-49.790	0.400	-0.192
-657.916	567.607	-0.087	0.212
-656.901	24.752	0.068	0.057
-655.886	202.057	-0.090	-0.140
-654.872	-79.108	0.104	-0.036
-653.857	-121.669	-0.201	-0.034
-652.843	-166.220	0.150	-0.006
-651.828	-138.689	-0.202	0.022
-650.814	41.080	-0.089	0.081
-649.799	-150.743	0.111	0.008
-648.784	123.569	-0.094	-0.119
-647.770	800.000	0.110	-0.343
-646.755	240.726	0.013	-0.022
-645.741	120.880	-0.120	-0.150
-644.726	-27.604	-0.292	0.171
-643.711	800.000	0.028	-0.099
-642.697	195.889	-0.169	0.260
-641.682	109.808	0.032	0.038
-640.668	-36.702	-0.266	0.144
-639.653	143.547	-0.209	0.281
-638.638	-147.404	-0.185	-0.016
-637.624	-83.348	0.308	0.099
-636.609	-89.445	0.104	0.031
-635.595	-100.100	-0.219	-0.055
-634.580	-34.856	0.256	-0.141
-633.565	649.595	0.075	-0.194
-632.551	137.875	0.258	-0.341
-631.536	800.000	0.052	-0.191
-630.522	100.618	-0.065	0.076
-629.507	-41.390	-0.166	-0.086
-628.492	-200.000	-0.034	0.403
-627.478	-200.000	0.023	-0.156
-626.463	99.126	0.103	-0.120
-625.449	36.366	-0.195	0.173
-624.434	159.007	-0.114	-0.160
-623.419	205.209	0.104	-0.163
-622.405	233.551	-0.116	-0.192
-621.390	-200.000	0.031	-0.236
-620.376	-123.475	-0.215	-0.034
-619.361	-27.466	0.205	0.120
-618.346	-49.081	0.115	0.056
-617.332	800.000	0.077	0.263
-616.317	30.540	-0.078	0.067
-615.303	-133.825	0.327	-0.041
-614.288	-200.000	0.025	0.115
-613.273	-200.000	-0.022	-0.104
-612.259	-16.872	0.123	-0.078
-611.244	-97.693	-0.338	0.088
-610.230	8.872	0.007	0.005
-609.215	138.572	-0.037	-0.049
-608.201	-1.374	0.188	0.133
-607.186	-60.881	0.260	-0.111
-606.171	403.313	0.083	0.175
-605.157	-107.948	0.168	-0.037
-604.142	800.000	-0.046	0.178
-603.128	-11.395	-0.248	-0.164
-602.113	-200.000	0.013	0.075
-601.098	-46.149	0.118	0.059
-600.084	787.628	-0.016	0.045
-599.069	54.061	-0.118	0.114
-598.055	-37.379	0.156	-0.084
-597.040	-200.000	0.021	0.120
-596.025	800.000	0.121	0.398
-595.011	125.309	-0.219	-0.278
-593.996	201.486	0.273	-0.423
-592.982	-150.456	-0.111	-0.009
-591.967	-62.345	-0.378	-0.158
-590.952	-87.152	-0.312	0.095
-589.938	-90.164	-0.225	-0.066
-588.923	-18.681	0.313	0.196
-587.909	140.224	0.201	0.267
-586.894	138.970	-0.209	0.276
-585.879	-200.000	-0.025	0.307
-584.865	114.255	-0.241	-0.295
-583.850	-113.970	0.398	0.078
-582.836	-156.109	0.100	-0.006
-581.821	370.228	-0.124	-0.253
-580.806	-152.434	-0.357	-0.026
-579.792	-120.107	0.220	0.038
-578.777	-1.042	-0.406	0.288
-577.763	-200.000	0.020	0.311
-576.748	-119.657	0.388	-0.067
-575.733	-16.545	0.200	-0.128
-574.719	30.405	-0.086	0.074
-573.704	97.334	-0.249	-0.287
-572.690	-142.794	0.043	0.004
-571.675	95.158	-0.109	-0.125
-570.661	-130.969	-0.129	-0.017
-569.646	800.000	-0.102	-0.390
-568.631	-25.466	0.138	-0.082
-567.617	20.309	0.014	0.011
-566.602	322.732	-0.303	0.579
-565.588	-200.000	0.009	-0.258
-564.573	55.967	-0.361	0.352
-563.558	-200.000	0.014	-0.136
-562.544	-43.796	0.037	-0.019
-561.529	129.793	-0.109	-0.140
-560.515	-127.528	0.244	0.036
-559.500	47.649	0.123	0.116
-558.485	-93.510	-0.106	0.029
-557.471	800.000	0.039	-0.126
-556.456	-200.000	-0.023	-0.203
-555.442	34.970	0.244	0.214
-554.427	-73.670	0.079	-0.029
-553.412	-72.509	-0.074	-0.028
-552.398	-104.524	-0.277	-0.064
-551.383	41.739	-0.064	0.058
-550.369	196.035	0.260	0.397
-549.354	-200.000	0.001	0.354
-548.339	70.890	-0.108	0.113
-547.325	800.000	0.136	-0.411
-546.310	179.584	0.106	0.156
-545.296	-120.396	0.224	-0.038
-544.281	-53.303	-0.231	-0.106
-543.266	51.199	-0.193	0.183
-542.252	-32.048	-0.123	0.069
-541.237	47.606	0.170	-0.159
-540.223	368.343	-0.085	-0.173
-539.208	150.063	-0.105	-0.143
-538.193	-45.784	-0.168	-0.083
-537.179	-62.835	-0.114	0.047
-536.164	-111.555	0.191	-0.039
-535.150	-99.946	0.229	0.057
-534.135	541.506	-0.102	-0.244
-533.121	-52.986	-0.238	-0.110
-532.106	-200.000	0.052	0.372
-531.091	257.337	0.109	0.188
-530.077	-117.805	0.610	-0.110
-529.062	800.000	0.021	-0.080
-528.048	115.103	-0.036	0.045
-527.033	-12.858	-0.131	0.085
-526.018	-84.114	-0.518	-0.165
-525.004	-200.000	0.069	0.365
-523.989	-140.322	-0.345	-0.036
-522.975	-94.691	-0.066	0.018
-521.960	-174.153	0.390	-0.011
-520.945	800.000	-0.054	-0.155
-519.931	261.487	0.184	-0.319
-518.916	-57.846	-0.131	-0.057
-517.902	42.597	0.315	0.288
-516.887	-175.271	-0.334	-0.009
-515.872	95.174	-0.084	-0.096
-514.858	-46.968	-0.093	0.046
-513.843	-59.872	0.384	0.165
-512.829	800.000	-0.067	0.223
-511.814	-55.181	-0.181	0.082
-510.799	800.000	-0.140	0.516
-509.785	-200.000	0.024	0.142
-508.770	8.462	0.302	0.228
-507.756	-110.243	0.438	0.091
-506.741	-200.000	-0.062	-0.294
-505.726	-200.000	0.013	0.166
-504.712	-60.984	0.038	-0.016
-503.697	133.218	-0.098	-0.127
-502.683	-100.403	-0.139	-0.034
-501.668	91.861	0.180	-0.204
-500.653	219.461	-0.202	0.324
-499.639	-99.768	-0.141	0.035
-498.624	-27.825	0.419	0.244
-497.610	-88.684	0.287	-0.086
-496.595	-200.000	0.016	-0.120
-495.581	-200.000	0.008	-0.187
-494.566	-63.763	-0.369	0.152
-493.551	550.958	0.135	0.324
-492.537	-200.000	0.058	-0.441
-491.522	293.468	0.058	0.107
-490.508	-84.705	-0.566	-0.179
-489.493	800.000	-0.062	0.173
-488.478	-137.463	-0.102	-0.012
-487.464	200.209	-0.181	-0.279
-486.449	-71.483	-0.234	-0.088
-485.435	27.200	0.072	0.060
-484.420	48.462	-0.186	0.174
-483.405	772.527	-0.077	0.210
-482.391	137.036	-0.220	0.288
-481.376	-57.061	-0.034	-0.015
-480.362	360.274	0.126	-0.252
-479.347	-63.028	0.321	-0.133
-478.332	-139.061	0.267	-0.029
-477.318	52.761	-0.090	0.086
-476.303	66.364	-0.228	0.232
-475.289	800.000	0.083	-0.285
-474.274	-154.224	-0.366	0.025
-473.259	-52.643	0.212	0.098
-472.245	315.970	0.125	0.236
-471.230	-33.197	-0.205	0.113
-470.216	-139.359	-0.202	0.022
-469.201	227.217	-0.073	0.119
-468.186	736.036	0.165	-0.442
-467.172	-122.289	-0.056	0.009
-466.157	-76.818	0.206	-0.072
-465.143	14.624	-0.226	-0.177
-464.128	412.705	0.027	0.058
-463.113	9.653	0.310	0.235
-462.099	26.859	0.181	0.151
-461.084	-62.492	-0.130	-0.054
-460.070	-200.000	0.000	0.041
-459.055	-200.000	-0.006	0.262
-458.040	-46.988	-0.174	0.085
-457.026	137.495	0.147	-0.192
-456.011	160.284	-0.066	-0.093
-454.997	800.000	-0.101	0.401
-453.982	-200.000	0.018	0.135
-452.968	17.435	-0.042	0.033
-451.953	17.972	-0.273	-0.218
-450.938	257.582	0.081	0.140
-449.924	-88.149	0.408	0.122
-448.909	-200.000	0.005	0.024
-447.895	55.331	-0.184	-0.178
-446.880	-59.829	0.308	-0.132
-445.865	-200.000	0.020	0.263
-444.851	-123.969	0.176	0.028
-443.836	-77.629	0.071	0.024
-442.822	-100.912	-0.263	-0.065
-441.807	-15.766	-0.308	0.196
-440.792	23.669	0.140	-0.115
-439.778	-106.775	0.135	-0.030
-438.763	-200.000	0.031	-0.536
-437.749	-127.234	0.142	-0.021
-436.734	-200.000	-0.022	0.230
-435.719	-6.216	0.123	0.084
-434.705	176.486	-0.117	-0.170
-433.690	141.670	-0.053	0.071
-432.676	-61.420	-0.100	0.042
-431.661	500.081	-0.180	0.416
-430.646	208.026	0.159	-0.249
-429.632	-128.525	-0.104	-0.015
-428.617	-27.326	-0.163	-0.095
-427.603	-13.859	-0.263	0.170
-426.588	-4.349	-0.197	-0.136
-425.573	-200.000	0.008	-0.277
-424.559	75.002	0.136	-0.143
-423.544	-113.068	-0.196	0.039
-422.530	-143.638	-0.214	-0.020
-421.515	-58.479	0.028	-0.012
-420.500	800.000	-0.045	-0.195
-419.486	-12.356	-0.070	0.046
-418.471	-5.226	-0.362	0.248
-417.457	-200.000	-0.026	0.201
-416.442	357.657	-0.091	-0.181
-415.428	342.588	0.156	0.305
-414.413	-81.917	-0.458	-0.150
-413.398	716.226	0.105	-0.278
-412.384	800.000	-0.089	-0.292
-411.369	-200.000	-0.028	-0.373
-410.355	-38.018	-0.192	0.102
-409.340	-29.032	-0.080	-0.046
-408.325	427.208	-0.082	-0.176
-407.311	83.691	-0.258	-0.281
-406.296	-140.248	-0.137	-0.014
-405.282	-200.000	-0.004	-0.076
-404.267	-153.820	-0.286	-0.020
-403.252	239.621	0.179	0.298
-402.238	-37.889	-0.084	-0.044
-401.223	-200.000	-0.008	0.361
-400.209	646.594	-0.057	-0.144
-399.194	-200.000	0.027	-0.155
-398.179	-125.639	0.312	-0.047
-397.165	-200.000	0.010	0.076
-396.150	800.000	0.076	-0.215
-395.136	-184.200	-0.432	-0.007
-394.121	183.465	0.083	0.122
-393.106	256.351	-0.129	-0.221
-392.092	166.179	0.180	-0.254
-391.077	-200.000	-0.001	0.217
-390.063	-60.130	-0.059	0.025
-389.048	-1.967	-0.170	-0.119
-388.033	139.771	0.036	-0.047
-387.019	-55.390	0.237	-0.106
-386.004	-123.826	0.349	-0.055
-384.990	293.024	0.098	0.179
-383.975	106.029	-0.168	-0.198
-382.960	36.244	0.211	-0.186
-381.946	-200.000	0.007	-0.033
-380.931	59.490	0.072	-0.071
-379.917	233.942	-0.052	0.085
-378.902	129.258	-0.037	-0.047
-377.888	-200.000	-0.006	0.191
-376.873	240.200	-0.116	-0.192
-375.858	-200.000	-0.034	0.333
-374.844	631.768	0.116	-0.294
-373.829	111.432	-0.150	-0.181
-372.815	-62.729	0.189	0.078
-371.800	138.904	-0.054	0.070
-370.785	-200.000	-0.026	-0.215
-369.771	-119.645	-0.100	-0.017
-368.756	-5.599	0.047	0.032
-367.742	398.563	0.099	0.206
-366.727	-5.402	0.070	0.048
-365.712	55.460	0.147	-0.142
-364.698	153.662	-0.184	-0.252
-363.683	133.442	-0.127	0.163
-362.669	512.414	0.032	0.073
-361.654	753.645	0.095	0.256
-360.639	800.000	-0.044	-0.128
-359.625	-110.705	0.204	0.042
-358.610	-200.000	0.044	0.330
-357.596	-154.079	0.140	-0.009
-356.581	-125.296	-0.239	0.036
-355.566	-25.318	0.380	0.224
-354.552	-35.411	0.156	-0.084
-353.537	-200.000	-0.065	0.334
-352.523	195.409	0.159	-0.240
-351.508	800.000	-0.044	-0.165
-350.493	-136.532	0.116	-0.013
-349.479	-24.039	0.113	-0.067
-348.464	-33.924	0.313	-0.172
-347.450	-200.000	-0.124	-0.000
-346.435	-121.976	-0.182	-0.030
-345.420	-106.945	-0.154	0.034
-344.406	-50.021	0.314	-0.148
-343.391	-22.247	-0.197	0.119
-342.377	52.605	0.047	0.045
-341.362	86.865	-0.041	-0.045
-340.348	-32.358	-0.293	-0.163
-339.333	-134.350	-0.116	-0.014
-338.318	800.000	-0.038	-0.115
-337.304	-155.826	-0.059	0.004
-336.289	-35.984	0.205	-0.110
-335.275	101.753	-0.129	0.150
-334.260	87.590	-0.127	0.140
-333.245	119.915	0.075	-0.092
-332.231	54.097	0.307	-0.294
-331.216	305.996	0.127	-0.235
-330.202	-200.000	-0.014	-0.201
-329.187	-72.909	0.322	-0.118
-328.172	9.490	-0.182	-0.137
-327.158	-44.699	0.106	0.053
-326.143	-115.872	0.276	-0.051
-325.129	103.703	-0.089	-0.104
-324.114	504.744	0.097	-0.223
-323.099	164.406	0.143	0.200
-322.085	-65.072	0.056	-0.022
-321.070	800.000	-0.096	0.346
-320.056	41.311	-0.184	-0.166
-319.041	-200.000	-0.006	-0.195
-318.026	-63.535	0.193	-0.079
-317.012	800.000	-0.049	0.148
-315.997	-109.831	0.131	0.027
-314.983	-39.714	0.325	0.169
-313.968	1.209	0.085	0.061
-312.953	21.934	0.086	-0.070
-311.939	69.636	0.244	0.250
-310.924	270.271	-0.069	0.120
-309.910	-118.898	-0.297	0.052
-308.895	-37.804	0.139	0.074
-307.880	-188.149	-0.083	-0.001
-306.866	-83.232	-0.364	0.116
-305.851	281.990	0.244	0.435
-304.837	-200.000	0.043	0.228
-303.822	-164.221	-0.075	-0.003
-302.807	-7.845	-0.100	0.067
-301.793	800.000	0.160	0.446
-300.778	-125.645	0.114	0.017
-299.764	-120.180	-0.134	0.023
-298.749	800.000	0.037	0.113
-297.735	104.105	0.304	0.355
-296.720	32.181	-0.197	0.169
-295.705	202.116	0.105	0.161
-294.691	-200.000	0.067	0.410
-293.676	-113.176	0.084	0.016
-292.662	70.322	0.134	0.138
-291.647	-67.767	0.227	-0.088
-290.632	69.166	-0.100	-0.102
-289.618	123.048	0.214	-0.267
-288.603	105.774	-0.136	0.160
-287.589	800.000	0.051	0.206
-286.574	54.750	0.207	0.198
-285.559	-200.000	0.031	0.169
-284.545	-1.530	0.307	0.215
-283.530	-70.696	0.274	-0.103
-282.516	-142.705	0.190	-0.018
-281.501	192.716	-0.148	0.223
-280.486	-200.000	0.012	0.275
-279.472	800.000	-0.050	-0.181
-278.457	-95.983	-0.294	0.078
-277.443	176.643	-0.054	-0.078
-276.428	16.623	-0.285	0.224
-275.413	-200.000	-0.020	0.231
-274.399	430.320	0.136	0.292
-273.384	21.053	-0.262	-0.211
-272.370	-86.853	0.313	0.095
-271.355	-200.000	0.007	0.106
-270.340	-18.996	-0.031	0.019
-269.326	800.000	0.033	-0.141
-268.311	356.627	-0.064	0.126
-267.297	730.976	-0.098	0.261
-266.282	78.680	-0.228	-0.242
-265.267	-169.262	0.405	-0.015
-264.253	-83.311	0.206	-0.066
-263.238	8.844	-0.150	-0.113
-262.224	129.927	0.283	-0.359
-261.209	334.401	0.221	-0.425
-260.195	-131.829	0.217	-0.028
-259.180	-60.785	-0.209	0.088
-258.165	-52.569	-0.234	-0.107
-257.151	-75.028	0.361	0.128
-256.136	24.821	-0.056	-0.046
-255.122	800.000	0.013	0.054
-254.107	-200.000	-0.003	-0.053
-253.092	77.788	0.095	-0.101
-252.078	-158.091	-0.401	0.023
-251.063	800.000	0.061	-0.190
-250.049	-43.964	-0.093	-0.046
-249.034	-158.678	-0.183	-0.010
-248.019	164.639	0.035	-0.048
-247.005	13.782	-0.069	0.053
-245.990	-200.000	0.001	0.228
-244.976	800.000	0.060	0.185
-243.961	-101.011	0.391	0.095
-242.946	-106.378	-0.197	0.044
-241.932	79.724	0.333	-0.355
-240.917	-51.381	0.160	-0.074
-239.903	-200.000	-0.009	0.040
-238.888	-41.490	0.156	0.079
-237.873	227.189	0.185	-0.298
-236.859	439.681	0.055	-0.119
-235.844	72.316	0.197	-0.203
-234.830	-200.000	-0.033	-0.228
-233.815	262.930	-0.197	-0.338
-232.800	149.753	-0.065	0.087
-231.786	-42.305	-0.290	-0.147
-230.771	800.000	-0.040	-0.151
-229.757	-35.728	-0.253	0.136
-228.742	472.175	0.040	-0.089
-227.727	4.698	0.328	0.239
-226.713	-162.085	-0.197	-0.010
-225.698	253.462	0.061	-0.104
-224.684	800.000	-0.012	0.045
-223.669	41.720	0.190	-0.170
-222.655	-200.000	-0.012	0.194
-221.640	-104.233	-0.270	0.062
-220.625	-200.000	0.003	-0.109
-219.611	53.037	-0.191	-0.181
-218.596	-67.293	0.364	0.142
-217.582	46.471	0.186	-0.171
-216.567	-139.013	-0.155	-0.017
-215.552	-65.626	0.220	-0.087
-214.538	-200.000	-0.045	-0.252
-213.523	-200.000	-0.075	-0.406
-212.509	-54.824	-0.138	0.062
-211.494	-161.520	-0.107	-0.005
-210.479	125.398	0.167	0.208
-209.465	60.090	0.128	-0.126
-208.450	611.583	0.069	-0.171
-207.436	-78.245	-0.559	0.190
-206.421	800.000	-0.085	0.334
-205.406	800.000	0.066	-0.239
-204.392	-124.465	-0.171	0.026
-203.377	331.462	-0.146	-0.278
-202.363	621.279	-0.114	0.283
-201.348	797.306	-0.079	-0.215
-200.333	330.692	0.113	-0.216
-199.319	800.000	0.073	-0.282
-198.304	233.627	0.130	-0.212
-197.290	246.144	-0.096	-0.160
-196.275	-83.384	-0.228	0.072
-195.260	-200.000	-0.012	-0.119
-194.246	11.066	-0.126	0.095
-193.231	571.533	-0.012	-0.028
-192.217	-116.511	0.288	0.053
-191.202	-200.000	-0.004	0.203
-190.187	-151.018	-0.123	0.009
-189.173	31.294	0.123	-0.104
-188.158	68.380	0.120	0.122
-187.144	256.166	0.178	0.303
-186.129	800.000	-0.111	0.401
-185.114	-200.000	0.014	0.396
-184.100	78.646	0.140	-0.148
-183.085	-16.909	0.164	-0.103
-182.071	800.000	0.048	-0.203
-181.056	6.221	-0.107	-0.078
-180.042	-200.000	-0.051	-0.306
-179.027	-45.635	-0.248	0.121
-178.012	-200.000	-0.005	-0.136
-176.998	181.969	-0.072	-0.105
-175.983	98.741	-0.048	-0.054
-174.969	114.189	0.108	-0.130
-173.954	800.000	-0.071	-0.222
-172.939	-162.270	0.300	-0.015
-171.925	-200.000	-0.033	-0.226
-170.910	46.199	-0.117	0.107
-169.896	-16.346	-0.257	-0.162
-168.881	-200.000	0.027	-0.495
-167.866	256.390	0.086	0.147
-166.852	77.937	0.027	-0.029
-165.837	-78.548	0.315	-0.106
-164.823	228.796	-0.199	0.321
-163.808	114.158	0.125	0.151
-162.793	4.136	0.051	-0.037
-161.779	-88.730	0.201	0.059
-160.764	-200.000	0.081	0.377
-159.750	-136.670	-0.140	0.016
-158.735	-159.600	0.120	0.007
-157.720	-35.777	-0.112	-0.060
-156.706	-39.248	0.141	0.073
-155.691	608.548	0.082	-0.203
-154.677	-112.768	0.064	0.013
-153.662	800.000	0.086	0.331
-152.647	143.450	0.074	-0.098
-151.633	-140.041	-0.387	-0.040
-150.618	-46.179	0.133	-0.065
-149.604	-83.577	-0.276	-0.087
-148.589	-127.585	0.187	0.027
-147.574	40.840	-0.205	0.183
-146.560	-95.563	-0.146	0.039
-145.545	-3.105	-0.096	-0.066
-144.531	-200.000	0.006	0.142
-143.516	-147.007	0.217	0.018
-142.502	-134.706	0.090	0.011
-141.487	-200.000	0.021	0.257
-140.472	-66.943	0.341	-0.133
-139.458	-200.000	0.002	-0.062
-138.443	-146.786	0.273	-0.023
-137.429	221.065	0.054	0.086
-136.414	234.422	-0.071	-0.116
-135.399	-200.000	0.001	-0.185
-134.385	292.789	0.078	0.140
-133.370	156.929	0.149	0.203
-132.356	800.000	0.006	-0.018
-131.341	-162.757	0.194	-0.009
-130.326	-200.000	-0.007	0.371
-129.312	-200.000	0.022	-0.429
-128.297	-134.678	0.176	0.021
-127.283	188.389	-0.140	0.207
-126.268	35.626	-0.162	-0.140
-125.253	-200.000	-0.002	-0.078
-124.239	-200.000	0.104	0.588
-123.224	84.810	0.149	-0.161
-122.210	800.000	-0.036	0.144
-121.195	258.173	0.078	0.132
-120.180	-99.723	0.207	-0.051
-119.166	-55.436	-0.028	-0.012
-118.151	56.020	0.270	0.259
-117.137	93.702	-0.122	-0.137
-116.122	-9.382	0.158	-0.104
-115.107	71.190	0.231	0.236
-114.093	-200.000	-0.024	-0.179
-113.078	-144.200	0.269	0.025
-112.064	-103.026	0.420	-0.098
-111.049	-55.584	0.145	0.064
-110.034	532.220	0.112	0.261
-109.020	-200.000	-0.030	0.138
-108.005	517.118	0.127	0.292
-106.991	181.692	0.116	0.169
-105.976	-88.536	0.298	0.088
-104.962	-200.000	0.023	0.332
-103.947	-51.793	0.149	0.068
-102.932	-140.356	-0.238	0.024
-101.918	-135.456	0.067	0.008
-100.903	-200.000	-0.027	0.443
-99.889	-47.809	-0.223	-0.107
-98.874	477.850	-0.180	0.402
-97.859	-123.786	0.170	0.026
-96.845	-3.403	-0.187	0.128
-95.830	-200.000	-0.029	-0.183
-94.816	732.687	-0.014	0.037
-93.801	-200.000	-0.028	-0.150
-92.786	23.308	0.154	-0.125
-91.772	-67.809	-0.167	0.064
-90.757	39.430	0.139	-0.123
-89.743	-57.249	0.207	0.090
-88.728	106.287	-0.182	-0.213
-87.713	214.893	0.013	-0.021
-86.699	-37.124	0.111	0.059
-85.684	179.335	0.193	0.279
-84.670	15.757	-0.156	0.121
-83.655	-155.698	0.185	-0.012
-82.640	-144.402	0.274	0.025
-81.626	800.000	-0.030	0.105
-80.611	246.369	-0.042	-0.069
-79.597	117.536	0.058	0.071
-78.582	310.500	0.185	0.341
-77.567	-103.271	0.118	0.027
-76.553	-200.000	-0.002	0.179
-75.538	264.920	0.086	-0.148
-74.524	-31.932	-0.389	0.215
-73.509	67.074	0.177	-0.178
-72.494	-112.649	0.197	-0.039
-71.480	-144.718	-0.112	0.010
-70.465	-200.000	0.004	0.104
-69.451	-118.392	0.100	0.018
-68.436	-200.000	0.028	0.152
-67.422	-42.667	-0.233	0.117
-66.407	134.455	0.039	-0.050
-65.392	-78.803	-0.140	0.047
-64.378	-55.517	0.198	-0.087
-63.363	88.141	-0.158	-0.172
-62.349	473.787	0.060	-0.134
-61.334	149.524	-0.683	-0.912
-60.319	40.524	0.440	0.390
-59.305	565.188	-0.437	-1.044
-58.290	800.000	0.456	1.456
-57.276	240.905	0.917	1.507
-56.261	-200.000	96.547	592.614
-55.246	558.838	1384.212	3289.329
-54.232	159.012	2562.638	3506.963
-53.217	113.383	2147.565	2566.296
-52.203	44.159	1606.762	1450.988
-51.188	35.786	1343.704	1163.031
-50.173	32.593	1302.318	1108.415
-49.159	54.839	1349.970	1282.624
-48.144	57.047	1366.008	1311.006
-47.130	35.928	1324.640	1147.197
-46.115	32.444	1307.072	1111.407
-45.100	32.353	1302.232	1106.712
-44.086	32.201	1299.795	1103.701
-43.071	32.086	1297.918	1101.391
-42.057	32.227	1294.841	1099.563
-41.042	32.108	1293.648	1097.810
-40.027	32.280	1292.020	1097.389
-39.013	32.186	1290.487	1095.491
-37.998	32.120	1288.786	1093.623
-36.984	32.272	1286.733	1092.721
-35.969	32.301	1284.750	1091.163
-34.954	32.250	1283.582	1089.831
-33.940	32.347	1282.442	1089.381
-32.925	32.365	1280.510	1087.799
-31.911	32.398	1279.082	1086.732
-30.896	32.374	1277.502	1085.211
-29.881	32.312	1276.294	1083.781
-28.867	32.477	1274.830	1083.447
-27.852	32.440	1273.566	1082.119
-26.838	32.377	1272.044	1080.421
-25.823	32.385	1270.808	1079.370
-24.809	32.249	1269.893	1077.772
-23.794	32.404	1267.921	1076.944
-22.779	32.334	1266.810	1075.558
-21.765	32.265	1265.606	1074.098
-20.750	32.321	1264.068	1073.067
-19.736	32.256	1263.110	1071.843
-18.721	32.190	1261.578	1070.127
-17.706	32.232	1260.296	1069.237
-16.692	32.218	1259.054	1068.061
-15.677	32.171	1258.475	1067.258
-14.663	32.249	1256.944	1066.360
-13.648	32.116	1255.926	1064.701
-12.633	32.154	1255.467	1064.484
-11.619	32.104	1254.724	1063.526
-10.604	32.124	1253.541	1062.597
-9.590	32.154	1252.194	1061.580
-8.575	32.140	1251.307	1060.708
-7.560	32.099	1250.280	1059.564
-6.546	32.199	1249.656	1059.555
-5.531	32.151	1248.877	1058.586
-4.517	32.151	1248.209	1057.978
-3.502	32.280	1246.851	1057.511
-2.487	32.135	1246.462	1056.323
-1.473	32.330	1241.724	1053.359
-0.458	31.012	1227.350	1033.821
0.556	27.600	1210.465	998.013
1.571	24.238	1216.179	984.107
2.586	23.368	1231.709	991.721
3.600	22.574	1220.565	978.253
4.615	16.075	1147.055	885.239
5.629	6.095	1070.334	776.833
6.644	1.880	1050.444	741.847
7.659	1.587	1048.132	738.729
8.673	1.496	1046.437	737.026
9.688	1.419	1045.344	735.817
10.702	1.652	1043.585	735.643
11.717	7.803	1052.128	771.506
12.731	17.999	1067.268	832.469
13.746	23.679	1073.995	865.407
14.761	24.921	1075.761	872.811
15.775	24.946	1075.287	872.474
16.790	24.778	1074.119	870.632
17.804	24.581	1073.568	869.149
18.819	24.711	1073.663	869.780
19.834	24.932	1073.174	870.382
20.848	24.967	1072.254	869.727
21.863	24.919	1071.793	869.045
22.877	24.788	1071.605	868.183
23.892	24.781	1070.637	867.286
24.907	24.880	1069.709	866.938
25.921	25.002	1068.484	866.459
26.936	24.826	1067.250	864.529
27.950	24.837	1065.472	863.067
28.965	24.742	1063.928	861.284
29.980	24.819	1062.349	860.299
30.994	25.069	1061.485	860.722
32.009	24.896	1060.891	859.336
33.023	24.699	1059.671	857.327
34.038	24.870	1058.717	857.299
35.053	24.898	1058.270	856.994
36.067	24.887	1057.457	856.205
37.082	25.042	1056.613	856.186
38.096	25.139	1056.115	856.173
39.111	25.269	1054.971	855.790
40.126	25.066	1053.999	853.959
41.140	24.601	1052.140	850.163
42.155	24.443	1051.034	848.443
43.169	24.546	1049.958	847.991
44.184	24.614	1048.768	847.278
45.199	24.533	1047.602	845.875
46.213	24.433	1047.613	845.334
47.228	24.706	1046.551	845.697
48.242	24.851	1045.760	845.669
49.257	24.833	1045.241	845.088
50.271	24.969	1044.277	844.873
51.286	24.994	1043.737	844.481
52.301	25.009	1042.579	843.538
53.315	25.065	1041.499	842.853
54.330	24.881	1040.789	841.340
55.344	24.994	1039.559	840.800
56.359	24.736	1039.093	839.142
57.374	24.634	1038.062	837.754
58.388	24.672	1037.583	837.473
59.403	24.613	1036.557	836.293
60.417	24.399	1035.541	834.400
61.432	24.592	1034.986	834.780
62.447	24.730	1034.304	834.802
63.461	24.658	1034.007	834.153
64.476	24.725	1032.311	833.022
65.490	24.672	1031.622	832.145
66.505	24.547	1031.432	831.339
67.520	24.582	1030.936	831.028
68.534	24.397	1029.789	829.170
69.549	24.050	1028.440	826.398
70.563	24.165	1027.135	825.809
71.578	24.151	1026.639	825.274
72.593	24.069	1025.477	823.887
73.607	24.198	1025.046	824.066
74.622	24.479	1025.342	825.529
75.636	24.359	1024.442	824.178
76.651	24.294	1023.088	822.712
77.666	24.282	1022.548	822.151
78.680	24.381	1021.863	821.983
79.695	24.569	1020.871	821.981
80.709	24.539	1020.610	821.557
81.724	24.491	1019.632	820.479
82.739	24.541	1019.078	820.188
83.753	24.907	1018.565	821.382
84.768	25.247	1017.931	822.356
85.782	25.319	1016.881	821.767
86.797	25.227	1015.905	820.481
87.812	24.912	1015.110	818.330
88.826	25.120	1014.210	818.481
89.841	25.179	1013.413	818.037
90.855	25.262	1012.207	817.368
91.870	25.335	1011.039	816.684
92.884	24.923	1010.784	814.530
93.899	24.912	1009.271	813.190
94.914	25.206	1008.552	813.873
95.928	24.996	1007.704	812.167
96.943	24.783	1006.014	809.768
97.957	24.478	1005.284	807.726
98.972	24.396	1004.063	806.302
99.987	24.815	1003.568	807.729
101.001	24.829	1003.118	807.358
102.016	24.867	1002.272	806.777
103.030	24.769	1001.200	805.400
104.045	24.635	1000.076	803.823
105.060	24.401	999.444	802.192
106.074	24.713	998.445	802.720
107.089	25.041	998.193	803.919
108.103	24.815	997.322	802.132
109.118	24.651	995.886	800.172
110.133	24.641	994.753	799.146
111.147	24.551	993.848	797.945
112.162	24.360	992.529	795.963
113.176	24.691	992.270	797.164
114.191	24.462	991.589	795.526
115.206	24.228	990.309	793.385
116.220	24.197	989.697	792.687
117.235	24.340	988.882	792.601
118.249	24.445	987.404	791.810
119.264	24.310	986.951	790.778
120.279	24.331	986.185	790.190
121.293	24.327	985.574	789.610
122.308	24.358	984.873	789.119
123.322	24.280	983.490	787.596
124.337	24.173	981.980	785.845
125.352	23.688	980.480	782.440
126.366	23.708	979.637	781.786
127.381	24.344	979.794	784.637
128.395	24.758	979.344	786.028
129.410	24.793	978.431	785.383
130.424	24.717	977.504	784.234
131.439	24.853	976.466	783.928
132.454	24.924	975.611	783.481
133.468	24.771	974.962	782.222
134.483	24.876	974.877	782.543
135.497	25.140	973.426	782.462
136.512	25.049	972.536	781.283
137.527	25.048	971.888	780.686
138.541	25.115	971.012	780.204
139.556	25.101	970.252	779.468
140.570	25.312	969.392	779.623
141.585	25.212	968.669	778.536
142.600	25.172	967.680	777.500
143.614	25.356	966.780	777.504
144.629	25.524	966.050	777.577
145.643	25.260	965.149	775.639
146.658	25.198	963.458	773.945
147.673	24.986	962.566	772.249
148.687	24.958	961.592	771.276
149.702	24.802	960.880	769.965
150.716	24.839	959.604	769.034
151.731	25.041	959.297	769.590
152.746	25.202	958.973	769.951
153.760	25.378	958.121	769.954
154.775	25.269	957.603	769.004
155.789	25.291	956.761	768.352
156.804	25.226	955.863	767.285
157.819	25.185	955.364	766.642
158.833	25.348	954.512	766.588
159.848	25.421	953.197	765.774
160.862	25.209	952.047	763.880
161.877	25.363	950.645	763.342
162.892	25.199	950.781	762.685
163.906	25.149	948.962	760.947
164.921	25.224	948.077	760.490
165.935	25.274	947.462	760.138
166.950	25.194	946.647	759.079
167.964	25.316	945.667	758.741
168.979	25.024	944.830	756.770
169.994	25.099	944.042	756.390
171.008	25.365	943.361	756.897
172.023	25.349	942.884	756.382
173.037	25.045	941.672	754.061
174.052	25.005	940.573	752.949
175.067	24.997	940.235	752.576
176.081	25.021	939.981	752.405
177.096	25.098	939.104	751.962
178.110	24.670	937.669	748.954
179.125	24.645	937.496	748.644
180.140	24.721	936.839	748.371
181.154	24.794	936.787	748.572
182.169	25.070	936.431	749.374
183.183	25.342	935.742	749.890
184.198	25.264	934.853	748.786
185.213	25.027	934.523	747.468
186.227	25.334	933.221	747.640
187.242	25.243	932.653	746.738
188.256	25.294	932.154	746.486
189.271	25.425	931.347	746.317
190.286	24.864	930.553	743.286
191.300	24.427	928.860	740.056
192.315	23.635	927.440	735.579
193.329	23.665	927.176	735.430
194.344	24.647	927.403	739.608
195.359	25.045	927.592	741.343
196.373	25.196	926.822	741.284
197.388	25.083	926.749	740.693
198.402	24.951	926.111	739.574
199.417	25.041	925.341	739.264
200.432	24.854	924.159	737.487
201.446	24.755	923.729	736.667
202.461	24.847	923.027	736.423
203.475	23.955	921.415	731.405
204.490	23.088	920.133	726.761
205.504	24.089	920.339	730.972
206.519	24.660	920.379	733.281
207.534	24.893	919.797	733.710
208.548	25.197	919.565	734.703
209.563	25.105	918.339	733.284
210.577	24.886	917.702	731.814
211.592	25.338	917.709	733.601
212.607	25.202	916.646	732.133
213.621	25.358	915.993	732.184
214.636	25.403	915.035	731.537
215.650	25.336	914.538	730.800
216.665	25.418	914.122	730.736
217.680	25.331	913.143	729.536
218.694	24.963	912.107	727.150
219.709	24.826	911.640	726.157
220.723	25.005	910.880	726.214
221.738	25.038	910.193	725.735
222.753	25.162	909.838	725.888
223.767	25.155	909.666	725.662
224.782	25.388	909.328	726.268
225.796	25.359	908.818	725.679
226.811	24.732	906.769	721.452
227.826	24.168	905.506	718.110
228.840	24.306	905.305	718.442
229.855	24.425	904.290	718.053
230.869	23.922	903.815	715.590
231.884	24.421	903.777	717.501
232.899	25.190	903.257	720.114
233.913	25.189	902.898	719.759
234.928	25.185	902.158	719.089
235.942	24.936	902.109	717.988
236.957	24.728	900.933	716.159
237.972	24.706	900.433	715.609
238.986	24.750	899.896	715.293
240.001	24.761	899.359	714.849
241.015	24.971	898.795	715.174
242.030	25.146	898.307	715.421
243.045	25.294	897.813	715.557
244.059	25.234	897.672	715.140
245.074	25.011	896.436	713.205
246.088	24.798	895.443	711.503
247.103	25.021	895.156	712.100
248.117	25.618	895.317	714.537
249.132	25.714	895.125	714.702
250.147	26.032	894.353	715.285
251.161	26.099	893.901	715.125
252.176	26.026	893.298	714.291
253.190	26.113	892.707	714.098
254.205	26.197	892.439	714.151
255.220	26.011	891.593	712.679
256.234	26.011	891.304	712.385
257.249	25.896	890.615	711.315
258.263	25.946	889.528	710.584
259.278	25.999	888.690	710.057
260.293	26.203	888.008	710.253
261.307	25.925	887.796	708.928
262.322	25.723	886.817	707.289
263.336	25.049	884.390	702.648
264.351	24.165	882.514	697.635
265.366	24.271	882.371	697.875
266.380	25.293	883.173	702.452
267.395	25.565	883.253	703.517
268.409	25.623	882.362	702.971
269.424	25.778	881.791	703.059
270.439	25.818	880.991	702.517
271.453	25.798	881.062	702.433
272.468	26.164	880.412	703.277
273.482	26.250	879.663	702.953
274.497	25.668	878.695	699.853
275.512	25.383	877.916	698.063
276.526	25.725	878.105	699.481
277.541	25.935	877.374	699.651
278.555	25.654	876.799	698.044
279.570	25.517	875.673	696.553
280.585	25.748	875.432	697.195
281.599	25.552	874.448	695.591
282.614	25.054	873.403	692.774
283.628	25.064	872.931	692.375
284.643	25.587	872.243	693.787
285.657	25.134	871.282	691.217
286.672	25.025	870.299	689.956
287.687	25.497	870.468	691.845
288.701	25.513	869.810	691.323
289.716	25.239	869.041	689.599
290.730	25.175	868.848	689.139
291.745	24.798	867.719	686.734
292.760	25.021	867.775	687.576
293.774	26.109	867.717	691.637
294.789	26.442	867.722	692.857
295.803	26.349	867.338	692.135
296.818	26.422	866.748	691.882
297.833	25.821	865.495	688.524
298.847	25.871	864.571	687.919
299.862	26.221	864.413	689.069
300.876	26.290	864.588	689.410
301.891	26.292	863.468	688.461
302.906	25.978	862.320	686.293
303.920	26.007	862.456	686.448
304.935	26.415	862.124	687.677
305.949	26.470	861.123	687.027
306.964	26.152	860.526	685.283
307.979	26.131	860.431	685.063
308.993	26.571	860.043	686.366
310.008	26.497	859.627	685.690
311.022	26.062	859.222	683.661
312.037	26.015	858.359	682.733
313.052	25.714	857.069	680.508
314.066	24.974	855.270	676.231
315.081	24.752	854.589	674.794
316.095	25.431	855.177	677.760
317.110	26.078	854.813	679.850
318.125	25.198	853.275	675.257
319.139	24.027	851.991	669.777
320.154	24.060	851.667	669.587
321.168	24.929	852.565	673.503
322.183	25.759	852.314	676.363
323.197	25.840	852.055	676.406
324.212	26.080	851.357	676.688
325.227	26.063	850.859	676.170
326.241	25.989	850.036	675.180
327.256	25.831	849.683	674.246
328.270	25.899	848.614	673.596
329.285	25.642	847.909	672.017
330.300	25.434	846.930	670.405
331.314	25.703	846.890	671.317
332.329	26.024	847.043	672.576
333.343	26.358	846.403	673.251
334.358	26.184	846.051	672.265
335.373	26.216	846.242	672.476
336.387	26.484	846.026	673.241
337.402	26.725	845.506	673.665
338.416	26.466	845.435	672.584
339.431	26.675	844.916	672.890
340.446	26.933	844.479	673.438
341.460	26.733	843.926	672.199
342.475	26.503	843.787	671.174
343.489	26.668	843.247	671.296
344.504	26.845	843.110	671.783
345.519	27.352	842.206	672.881
346.533	27.090	842.130	671.789
347.548	26.990	841.667	670.993
348.562	27.068	840.938	670.638
349.577	27.103	840.568	670.415
350.592	27.043	839.791	669.515
351.606	27.063	839.152	669.020
352.621	26.869	837.930	667.272
353.635	26.769	837.385	666.412
354.650	26.104	835.415	662.344
355.665	25.141	834.467	658.004
356.679	25.616	834.323	659.573
357.694	26.089	833.943	660.949
358.708	26.061	833.258	660.242
359.723	26.373	833.199	661.280
360.738	26.603	833.282	662.127
361.752	26.766	832.612	662.133
362.767	27.022	832.406	662.845
363.781	27.363	831.755	663.513
364.796	27.411	831.174	663.163
365.810	27.475	831.206	663.364
366.825	27.280	830.788	662.262
367.840	27.046	829.671	660.464
368.854	26.747	828.715	658.557
369.869	26.861	828.209	658.511
370.883	26.830	827.902	658.095
371.898	26.737	827.883	657.683
372.913	26.864	827.280	657.607
373.927	26.800	827.091	657.166
374.942	27.114	826.699	657.935
375.956	27.125	826.259	657.567
376.971	27.257	825.858	657.666
377.986	27.475	825.334	657.977
379.000	27.362	824.940	657.198
380.015	27.093	824.355	655.702
381.029	27.192	823.699	655.481
382.044	27.367	823.111	655.585
383.059	27.437	822.510	655.298
384.073	27.390	821.982	654.651
385.088	27.313	821.475	653.912
386.102	27.114	820.720	652.541
387.117	27.131	819.902	651.891
388.132	26.919	818.688	650.109
389.146	26.300	817.855	647.175
390.161	26.712	817.998	648.707
391.175	27.220	817.955	650.435
392.190	26.704	816.869	647.667
393.205	25.282	814.925	640.997
394.219	23.934	812.713	634.395
395.234	23.708	812.965	633.730
396.248	25.483	814.197	640.970
397.263	26.857	814.950	646.405
398.278	26.854	814.651	646.101
399.292	26.587	813.752	644.380
400.307	26.612	813.493	644.208
401.321	26.823	812.991	644.505
402.336	27.168	812.902	645.599
403.350	27.423	813.193	646.680
404.365	27.710	813.002	647.489
405.380	28.105	812.471	648.412
406.394	28.117	812.049	648.061
407.409	28.053	811.489	647.327
408.423	27.965	811.157	646.695
409.438	28.112	810.717	646.806
410.453	28.168	810.298	646.614
411.467	28.059	809.773	645.754
412.482	28.060	809.304	645.326
413.496	28.186	809.056	645.514
414.511	28.065	809.327	645.245
415.526	27.999	808.261	644.108
416.540	27.845	807.360	642.788
417.555	27.766	806.532	641.796
418.569	27.938	806.172	642.059
419.584	27.798	805.771	641.190
420.599	27.670	805.212	640.238
421.613	110.179	1286.614	1458.947
422.628	95.125	1356.761	1459.068
