DTS Sentinel unit serial number:	SN413079Multiplexer serial number:	ORYXHardware model number:	OX4-SRSoftware version number:	ORYX F/W v4.00 Oryx Data Collector v3.7.2.0data status	okinstallation	princeton_trtdifferential loss correction	single-endedforward channel	channel 1reverse channel	N/Adate	2019/09/12time	03:32:11forward acquisition time	60.00reverse acquisition time	0.00gamma	496.2192k internal	0.2322k external	0.2322temperature offset calibration	1.0082default loss term (dB/km)	0.3790temperature slope calibration	1.0000multiplexer offset coefficient	1.0000multiplexer slope coefficient	1.0000fibre end	0.00T internal ref (°C)	32.17T ext. ref 1 (°C)	2.13T ext. ref 2 (°C)	27.34length (m)	temperature (°C)	Stokes	anti-Stokes-747.200	63.458	0.118	0.120
-746.185	800.000	-0.106	0.456
-745.171	-65.608	-0.170	-0.069
-744.156	800.000	0.039	-0.139
-743.142	800.000	-0.031	-0.135
-742.127	484.122	0.100	0.230
-741.112	-200.000	0.044	0.218
-740.098	-4.644	0.035	0.025
-739.083	-200.000	0.022	0.231
-738.069	103.168	0.107	0.127
-737.054	-20.229	-0.148	0.092
-736.039	-127.483	-0.345	0.051
-735.025	48.062	0.231	0.219
-734.010	-101.975	-0.338	0.082
-732.996	-113.506	-0.313	0.062
-731.981	24.442	-0.165	0.138
-730.966	-27.819	-0.179	-0.105
-729.952	27.179	0.124	-0.105
-728.937	119.467	-0.043	0.054
-727.923	800.000	0.070	0.271
-726.908	-80.354	-0.193	-0.065
-725.894	-26.483	-0.218	0.129
-724.879	363.059	-0.129	0.262
-723.864	-73.108	0.238	-0.088
-722.850	-148.038	0.359	-0.030
-721.835	-45.040	-0.099	0.050
-720.821	-200.000	0.049	0.282
-719.806	348.779	-0.135	0.269
-718.791	-155.263	0.381	-0.025
-717.777	-62.698	-0.096	-0.040
-716.762	-200.000	-0.026	-0.151
-715.748	-129.653	0.181	0.025
-714.733	-16.953	0.132	0.084
-713.718	-200.000	-0.009	-0.062
-712.704	39.370	0.172	-0.155
-711.689	217.301	0.173	0.279
-710.675	113.157	-0.184	0.225
-709.660	-200.000	-0.003	0.215
-708.645	-120.140	0.033	-0.006
-707.631	-200.000	-0.004	0.173
-706.616	144.788	-0.198	0.267
-705.602	-200.000	-0.038	0.272
-704.587	800.000	0.099	-0.286
-703.572	-39.692	-0.422	0.222
-702.558	800.000	0.052	0.157
-701.543	203.879	0.098	0.153
-700.529	-200.000	-0.001	-0.059
-699.514	800.000	-0.029	-0.091
-698.499	381.292	0.126	0.261
-697.485	-200.000	0.033	-0.399
-696.470	-200.000	0.002	0.268
-695.456	-146.822	-0.334	0.029
-694.441	206.508	-0.082	-0.129
-693.426	-74.711	-0.368	0.133
-692.412	-200.000	-0.013	-0.064
-691.397	-200.000	-0.040	0.199
-690.383	238.110	-0.097	0.163
-689.368	-200.000	0.226	0.001
-688.354	-50.198	0.216	0.103
-687.339	-136.147	0.354	0.042
-686.324	26.485	0.171	0.144
-685.310	-1.552	-0.177	0.126
-684.295	135.878	0.083	0.108
-683.281	60.467	-0.186	0.186
-682.266	-13.006	-0.195	-0.128
-681.251	44.506	0.087	0.081
-680.237	195.448	-0.077	-0.118
-679.222	-128.304	0.289	0.042
-678.208	31.059	-0.096	0.083
-677.193	800.000	-0.089	0.279
-676.178	-32.689	0.180	-0.101
-675.164	-200.000	-0.018	0.088
-674.149	800.000	0.044	0.179
-673.135	-200.000	-0.002	-0.024
-672.120	131.224	0.085	-0.110
-671.105	-66.699	0.120	0.048
-670.091	-56.103	0.203	-0.091
-669.076	503.202	0.088	0.204
-668.062	-200.000	-0.013	-0.117
-667.047	185.252	-0.117	-0.175
-666.032	-200.000	-0.000	-0.243
-665.018	-200.000	-0.002	-0.114
-664.003	131.324	0.126	0.163
-662.989	51.645	0.086	-0.083
-661.974	-200.000	0.007	0.214
-660.959	143.870	-0.141	0.189
-659.945	504.179	0.117	0.272
-658.930	163.824	-0.193	0.273
-657.916	-200.000	0.003	-0.328
-656.901	-200.000	0.051	-0.468
-655.886	193.304	-0.129	0.197
-654.872	195.720	-0.038	0.058
-653.857	60.001	0.295	-0.293
-652.843	588.978	-0.032	0.079
-651.828	1.714	0.063	0.045
-650.814	23.524	0.194	0.161
-649.799	745.704	0.108	0.293
-648.784	-62.303	0.340	-0.143
-647.770	352.139	-0.099	0.198
-646.755	-56.581	-0.042	-0.019
-645.741	-200.000	-0.003	-0.029
-644.726	80.107	0.075	-0.081
-643.711	326.751	0.134	-0.258
-642.697	17.738	-0.153	-0.123
-641.682	-152.157	-0.411	0.030
-640.668	171.863	0.113	0.164
-639.653	59.094	0.242	0.240
-638.638	144.642	-0.181	0.243
-637.624	-172.532	-0.398	0.013
-636.609	16.401	-0.071	-0.057
-635.595	611.732	-0.079	-0.198
-634.580	-136.365	-0.282	-0.033
-633.565	95.157	0.093	0.106
-632.551	-90.266	-0.264	-0.077
-631.536	-28.997	-0.156	0.090
-630.522	-177.610	-0.204	0.005
-629.507	90.729	-0.318	-0.358
-628.492	155.718	-0.116	-0.161
-627.478	56.232	0.183	-0.178
-626.463	114.778	-0.273	-0.335
-625.449	8.914	-0.216	0.164
-624.434	-200.000	-0.015	0.396
-623.419	255.577	-0.114	0.197
-622.405	73.475	0.179	0.188
-621.390	396.642	0.190	-0.399
-620.376	-106.404	0.084	0.019
-619.361	549.144	-0.115	0.277
-618.346	251.831	-0.022	-0.037
-617.332	251.433	-0.118	-0.202
-616.317	-87.002	-0.064	-0.020
-615.303	225.343	-0.220	-0.358
-614.288	-70.070	0.288	-0.110
-613.273	-37.056	0.192	0.103
-612.259	-93.196	0.512	0.143
-611.244	32.799	0.152	-0.132
-610.230	-186.933	-0.252	0.004
-609.215	-200.000	0.050	-0.374
-608.201	-200.000	0.036	0.204
-607.186	14.770	0.104	0.082
-606.171	-10.890	-0.112	0.074
-605.157	233.342	-0.073	-0.120
-604.142	375.139	0.023	-0.048
-603.128	-200.000	-0.061	0.391
-602.113	-91.664	-0.047	-0.013
-601.098	72.468	-0.137	-0.144
-600.084	40.683	-0.096	-0.087
-599.069	800.000	0.038	-0.134
-598.055	800.000	0.081	-0.304
-597.040	44.090	0.019	0.017
-596.025	30.210	0.165	0.141
-595.011	-66.797	-0.288	0.114
-593.996	322.955	0.169	-0.324
-592.982	293.784	0.238	-0.436
-591.967	-58.685	-0.373	0.163
-590.952	800.000	0.068	0.215
-589.938	-140.272	0.117	0.012
-588.923	314.206	-0.176	-0.333
-587.909	800.000	-0.083	-0.287
-586.894	310.663	0.201	0.377
-585.879	-200.000	0.070	-0.326
-584.865	-115.850	-0.321	0.060
-583.850	86.332	0.169	-0.187
-582.836	-200.000	0.007	-0.283
-581.821	800.000	-0.050	0.169
-580.806	-16.190	-0.351	-0.224
-579.792	25.101	0.136	-0.113
-578.777	-200.000	0.004	0.100
-577.763	-149.117	-0.133	-0.011
-576.748	652.598	-0.073	-0.188
-575.733	267.500	-0.274	-0.481
-574.719	800.000	0.038	0.121
-573.704	200.869	-0.123	-0.189
-572.690	449.173	0.073	0.161
-571.675	130.315	0.178	-0.228
-570.661	800.000	0.051	-0.167
-569.646	118.981	0.055	0.069
-568.631	-27.724	0.151	0.088
-567.617	77.633	-0.153	0.163
-566.602	-29.005	0.154	-0.089
-565.588	206.855	-0.171	0.268
-564.573	2.408	-0.279	0.202
-563.558	-70.275	-0.423	-0.161
-562.544	-200.000	-0.272	0.001
-561.529	-200.000	0.027	0.228
-560.515	266.349	0.094	-0.165
-559.500	142.607	-0.129	-0.172
-558.485	207.242	-0.085	0.133
-557.471	253.476	-0.109	0.187
-556.456	560.235	0.047	-0.114
-555.442	61.721	0.057	-0.057
-554.427	51.972	-0.083	-0.079
-553.412	-12.602	0.139	-0.091
-552.398	-37.999	0.208	-0.111
-551.383	40.933	0.079	-0.072
-550.369	-200.000	0.000	-0.162
-549.354	-200.000	0.044	-0.292
-548.339	-5.309	0.065	0.045
-547.325	128.525	0.203	-0.259
-546.310	-200.000	-0.039	-0.187
-545.296	-134.786	-0.230	-0.028
-544.281	800.000	-0.050	0.156
-543.266	-200.000	-0.011	0.054
-542.252	146.292	0.270	0.363
-541.237	-101.888	-0.263	-0.064
-540.223	-185.394	-0.233	0.004
-539.208	527.658	0.067	-0.158
-538.193	-141.126	0.223	-0.023
-537.179	272.403	0.098	-0.174
-536.164	178.470	0.303	-0.444
-535.150	-115.906	-0.238	-0.044
-534.135	14.064	0.136	-0.106
-533.121	59.269	-0.039	0.039
-532.106	-116.612	-0.192	-0.035
-531.091	-28.519	-0.191	0.110
-530.077	174.061	0.194	0.280
-529.062	-21.962	-0.112	-0.068
-528.048	-200.000	-0.020	0.371
-527.033	-114.464	-0.178	-0.034
-526.018	180.874	-0.123	-0.181
-525.004	92.746	0.162	-0.183
-523.989	257.663	-0.150	-0.258
-522.975	-110.607	-0.314	0.065
-521.960	-106.798	0.356	-0.079
-520.945	580.275	0.082	-0.200
-519.931	110.244	0.184	0.222
-518.916	408.060	-0.091	0.193
-517.902	-200.000	-0.006	0.072
-516.887	-154.555	0.230	0.015
-515.872	-16.767	-0.204	0.129
-514.858	-200.000	0.047	-0.421
-513.843	-57.604	-0.303	0.133
-512.829	-169.841	-0.312	0.011
-511.814	153.623	-0.099	-0.136
-510.799	-106.071	0.108	0.024
-509.785	221.174	-0.277	0.445
-508.770	-140.260	-0.319	-0.033
-507.756	313.676	-0.146	-0.275
-506.741	-151.120	-0.329	-0.025
-505.726	-121.137	0.046	-0.008
-504.712	-200.000	0.000	0.318
-503.697	-52.849	-0.200	0.092
-502.683	-168.281	0.255	-0.010
-501.668	173.372	-0.063	0.091
-500.653	19.410	-0.152	0.122
-499.639	-200.000	-0.024	-0.112
-498.624	800.000	-0.036	-0.151
-497.610	-200.000	-0.046	0.411
-496.595	233.821	0.106	0.174
-495.581	183.564	0.103	-0.152
-494.566	10.425	-0.143	0.109
-493.551	800.000	-0.066	0.260
-492.537	800.000	0.075	-0.222
-491.522	61.706	0.199	-0.198
-490.508	-200.000	-0.005	0.046
-489.493	196.156	0.085	0.129
-488.478	-115.084	0.166	0.032
-487.464	678.711	-0.054	0.139
-486.449	-55.295	0.152	0.068
-485.435	-3.725	0.157	-0.109
-484.420	-112.439	-0.046	-0.009
-483.405	47.324	-0.353	0.329
-482.391	92.733	-0.172	0.194
-481.376	-200.000	-0.010	-0.143
-480.362	-1.429	0.135	0.095
-479.347	-41.149	0.150	-0.077
-478.332	2.460	-0.406	0.294
-477.318	800.000	0.082	-0.269
-476.303	-200.000	-0.041	0.401
-475.289	184.697	0.179	0.265
-474.274	800.000	0.032	-0.131
-473.259	800.000	0.081	0.249
-472.245	51.678	-0.105	-0.100
-471.230	50.557	-0.044	-0.042
-470.216	55.656	-0.087	0.084
-469.201	163.335	0.148	0.208
-468.186	-129.029	0.307	-0.043
-467.172	-200.000	0.034	-0.293
-466.157	-58.635	-0.192	0.083
-465.143	91.152	-0.174	0.195
-464.128	-9.595	0.108	-0.072
-463.113	279.540	0.160	-0.285
-462.099	-126.238	-0.231	-0.035
-461.084	75.114	-0.198	-0.208
-460.070	-200.000	0.002	-0.242
-459.055	27.794	-0.218	0.184
-458.040	-55.245	0.146	-0.066
-457.026	39.277	0.215	0.192
-456.011	-200.000	-0.018	0.114
-454.997	800.000	-0.063	-0.228
-453.982	-65.444	0.202	-0.081
-452.968	-163.791	0.205	-0.010
-451.953	165.171	0.151	0.212
-450.938	-56.955	-0.154	0.068
-449.924	239.990	-0.144	0.240
-448.909	663.218	-0.099	0.256
-447.895	132.759	0.212	0.273
-446.880	-200.000	-0.088	0.521
-445.865	800.000	-0.017	-0.048
-444.851	401.638	-0.177	-0.371
-443.836	-127.263	0.034	-0.005
-442.822	-92.997	0.227	-0.063
-441.807	-106.451	-0.209	0.047
-440.792	-43.523	-0.233	-0.117
-439.778	-104.233	0.121	0.028
-438.763	9.531	0.133	-0.100
-437.749	-37.187	-0.096	0.051
-436.734	-3.989	0.287	-0.198
-435.719	-200.000	-0.050	-0.257
-434.705	69.094	-0.081	0.083
-433.690	-93.594	-0.388	0.107
-432.676	29.191	0.133	0.113
-431.661	434.375	0.167	-0.363
-430.646	-161.737	-0.166	-0.008
-429.632	202.376	-0.120	0.184
-428.617	-200.000	-0.039	-0.300
-427.603	-200.000	0.015	-0.154
-426.588	-110.346	0.202	-0.042
-425.573	82.893	0.261	0.284
-424.559	800.000	0.112	-0.406
-423.544	-154.743	0.223	-0.015
-422.530	-200.000	-0.004	-0.038
-421.515	-200.000	-0.015	-0.107
-420.500	-56.837	-0.170	-0.075
-419.486	-132.634	-0.089	-0.011
-418.471	7.053	0.308	0.229
-417.457	-19.922	-0.221	0.136
-416.442	176.105	0.055	0.079
-415.428	298.233	0.083	-0.152
-414.413	-69.619	0.386	-0.147
-413.398	290.788	-0.122	-0.221
-412.384	33.117	-0.304	0.263
-411.369	-200.000	-0.018	0.269
-410.355	-22.317	0.100	-0.060
-409.340	87.345	0.172	0.190
-408.325	-99.670	-0.109	-0.027
-407.311	-200.000	-0.061	0.437
-406.296	-81.538	0.105	0.034
-405.282	800.000	0.080	0.224
-404.267	250.278	-0.117	0.198
-403.252	-98.946	-0.233	0.059
-402.238	419.974	0.089	0.190
-401.223	461.433	-0.079	0.175
-400.209	-19.006	0.314	-0.195
-399.194	442.777	-0.037	-0.081
-398.179	800.000	0.099	0.341
-397.165	179.472	0.131	-0.191
-396.150	-111.929	0.277	0.056
-395.136	-68.569	-0.054	-0.021
-394.121	-32.687	0.177	-0.098
-393.106	-95.361	-0.201	0.054
-392.092	384.460	-0.218	0.448
-391.077	-200.000	0.048	0.238
-390.063	386.921	-0.175	0.360
-389.048	-14.490	0.207	0.133
-388.033	-185.046	-0.078	0.001
-387.019	-157.393	0.308	0.019
-386.004	-27.367	-0.121	0.070
-384.990	255.421	-0.170	-0.290
-383.975	-200.000	-0.031	-0.224
-382.960	-125.627	-0.252	-0.038
-381.946	-200.000	0.012	-0.094
-380.931	-1.418	0.427	-0.300
-379.917	-171.540	-0.255	-0.008
-378.902	-119.708	0.170	-0.029
-377.888	-63.858	-0.114	0.046
-376.873	-137.542	-0.069	-0.008
-375.858	800.000	-0.106	-0.324
-374.844	-24.223	0.111	0.066
-373.829	-200.000	-0.010	0.133
-372.815	-113.152	0.177	-0.035
-371.800	379.198	-0.043	0.088
-370.785	-200.000	-0.042	0.197
-369.771	-200.000	-0.048	0.506
-368.756	800.000	0.050	0.209
-367.742	-9.706	0.233	-0.154
-366.727	223.260	-0.153	-0.246
-365.712	16.727	0.128	0.101
-364.698	-106.856	-0.221	0.049
-363.683	-158.248	0.133	0.008
-362.669	158.472	-0.099	-0.137
-361.654	-1.333	-0.207	0.145
-360.639	190.720	0.073	0.109
-359.625	182.901	-0.128	-0.187
-358.610	-81.931	0.157	-0.051
-357.596	201.181	0.086	0.132
-356.581	-105.292	0.049	-0.011
-355.566	-200.000	0.061	-0.343
-354.552	-200.000	0.018	0.271
-353.537	26.100	0.200	-0.166
-352.523	-87.168	0.224	-0.068
-351.508	-66.127	0.238	-0.094
-350.493	-52.686	0.212	0.097
-349.479	-200.000	-0.049	-0.309
-348.464	196.556	-0.052	0.079
-347.450	111.734	0.220	0.264
-346.435	-42.368	-0.394	-0.200
-345.420	146.169	0.067	0.090
-344.406	-200.000	0.056	0.340
-343.391	369.846	-0.055	0.111
-342.377	166.313	0.044	-0.062
-341.362	645.361	-0.095	0.241
-340.348	60.301	0.283	-0.279
-339.333	-192.593	0.083	0.001
-338.318	479.777	0.095	0.214
-337.304	117.142	-0.233	-0.285
-336.289	123.072	-0.153	0.191
-335.275	-200.000	-0.063	0.458
-334.260	-134.627	0.325	-0.039
-333.245	6.973	0.278	-0.206
-332.231	14.442	-0.115	-0.089
-331.216	-118.535	0.227	-0.040
-330.202	32.759	-0.211	-0.182
-329.187	259.070	0.078	-0.134
-328.172	-171.848	0.249	-0.008
-327.158	-140.478	0.434	0.045
-326.143	12.137	0.183	0.140
-325.129	22.657	0.061	0.050
-324.114	-27.740	0.284	-0.164
-323.099	550.573	-0.149	-0.355
-322.085	-14.442	-0.279	-0.178
-321.070	-89.657	0.272	0.079
-320.056	-200.000	-0.005	0.121
-319.041	350.060	-0.020	-0.040
-318.026	237.198	0.068	-0.112
-317.012	-200.000	-0.011	-0.102
-315.997	-151.113	0.170	-0.013
-314.983	-24.998	-0.173	0.102
-313.968	252.800	0.119	0.201
-312.953	800.000	-0.089	0.314
-311.939	211.509	0.188	0.294
-310.924	442.933	0.079	-0.171
-309.910	-73.932	0.285	-0.103
-308.895	192.730	-0.186	0.279
-307.880	646.745	0.006	-0.016
-306.866	800.000	-0.149	-0.495
-305.851	191.665	0.125	-0.187
-304.837	-101.626	0.144	0.035
-303.822	-200.000	-0.003	-0.096
-302.807	800.000	0.027	-0.094
-301.793	-200.000	0.017	-0.089
-300.778	67.563	-0.108	0.110
-299.764	79.588	-0.105	0.112
-298.749	-138.784	0.264	-0.029
-297.735	-150.770	0.084	0.006
-296.720	-101.512	-0.305	-0.074
-295.705	124.977	-0.125	0.156
-294.691	-8.071	0.205	0.137
-293.676	-56.085	0.485	-0.214
-292.662	34.023	-0.260	-0.225
-291.647	-200.000	0.019	-0.144
-290.632	-200.000	0.036	-0.251
-289.618	64.224	-0.129	-0.128
-288.603	-64.575	-0.230	-0.093
-287.589	-200.000	0.050	-0.232
-286.574	-200.000	-0.010	-0.129
-285.559	-80.723	0.084	-0.028
-284.545	-82.516	0.256	-0.083
-283.530	128.557	0.140	-0.177
-282.516	-66.082	-0.352	0.139
-281.501	100.285	0.121	-0.139
-280.486	-23.992	-0.326	0.194
-279.472	-200.000	0.018	0.137
-278.457	-200.000	0.374	0.001
-277.443	652.276	0.196	0.499
-276.428	-200.000	-0.021	-0.186
-275.413	62.466	0.206	-0.204
-274.399	800.000	-0.060	-0.189
-273.384	100.476	-0.131	0.150
-272.370	51.827	0.138	0.130
-271.355	-112.976	-0.126	-0.025
-270.340	93.576	-0.046	0.052
-269.326	-200.000	-0.037	0.401
-268.311	9.531	0.282	0.211
-267.297	184.337	0.113	0.166
-266.282	282.032	-0.122	-0.217
-265.267	-200.000	-0.024	-0.154
-264.253	800.000	-0.039	-0.164
-263.238	-32.895	-0.204	-0.112
-262.224	358.536	0.138	0.274
-261.209	-141.956	0.194	-0.019
-260.195	105.933	-0.196	0.229
-259.180	395.389	-0.164	-0.340
-258.165	63.686	-0.138	-0.137
-257.151	663.615	0.036	-0.093
-256.136	-106.014	-0.110	-0.024
-255.122	-180.663	0.222	-0.005
-254.107	133.810	0.449	0.577
-253.092	-18.889	-0.040	0.025
-252.078	-200.000	-0.007	-0.061
-251.063	800.000	-0.031	0.096
-250.049	800.000	0.066	0.192
-249.034	-7.935	-0.179	-0.120
-248.019	-200.000	-0.075	-0.379
-247.005	-200.000	0.003	-0.045
-245.990	266.103	0.138	-0.239
-244.976	45.737	-0.124	0.114
-243.961	-73.190	-0.203	0.074
-242.946	-200.000	-0.343	0.000
-241.932	532.062	-0.034	0.079
-240.917	765.083	-0.035	-0.093
-239.903	-48.073	-0.270	-0.129
-238.888	-122.726	-0.046	-0.007
-237.873	185.225	0.155	0.227
-236.859	30.254	0.192	0.162
-235.844	800.000	0.059	-0.178
-234.830	-125.051	0.191	-0.029
-233.815	800.000	-0.175	-0.504
-232.800	800.000	-0.108	-0.381
-231.786	72.173	-0.144	0.148
-230.771	-200.000	-0.012	0.077
-229.757	788.463	0.043	-0.117
-228.742	664.901	-0.131	0.335
-227.727	-200.000	-0.034	-0.153
-226.713	800.000	-0.024	-0.097
-225.698	178.188	0.034	0.049
-224.684	-200.000	0.008	-0.207
-223.669	362.026	0.090	-0.179
-222.655	-139.211	0.265	0.028
-221.640	175.502	0.084	-0.121
-220.625	-40.013	0.314	-0.162
-219.611	27.282	0.108	0.089
-218.596	-137.277	-0.172	0.019
-217.582	36.279	0.170	0.148
-216.567	5.250	0.166	-0.121
-215.552	-135.496	-0.195	0.023
-214.538	54.221	0.266	0.254
-213.523	-27.791	0.164	0.094
-212.509	119.689	-0.206	-0.253
-211.494	19.016	-0.123	-0.098
-210.479	-35.935	0.121	0.065
-209.465	-1.278	-0.181	-0.126
-208.450	-53.099	0.171	-0.078
-207.436	-137.623	-0.320	0.036
-206.421	-56.605	0.138	0.061
-205.406	138.983	0.110	0.143
-204.392	107.811	-0.137	-0.161
-203.377	-200.000	-0.036	-0.182
-202.363	426.262	0.113	-0.241
-201.348	85.146	0.284	-0.308
-200.333	-200.000	0.013	0.126
-199.319	-46.110	-0.235	0.114
-198.304	12.012	0.476	0.362
-197.290	724.412	0.018	0.047
-196.275	-42.948	0.258	-0.129
-195.260	-61.874	0.206	0.085
-194.246	-69.271	-0.344	0.131
-193.231	164.148	0.239	-0.332
-192.217	-51.690	-0.263	-0.121
-191.202	-78.521	-0.238	-0.081
-190.187	-50.188	-0.210	0.098
-189.173	800.000	-0.114	0.381
-188.158	-101.641	-0.250	-0.060
-187.144	173.680	-0.119	0.170
-186.129	-62.024	-0.274	-0.113
-185.114	132.241	0.243	-0.309
-184.100	800.000	-0.141	0.553
-183.085	800.000	0.083	0.237
-182.071	-86.647	-0.100	-0.030
-181.056	26.705	0.258	0.213
-180.042	470.587	0.018	-0.041
-179.027	-61.059	-0.088	-0.037
-178.012	-129.534	-0.295	0.040
-176.998	-48.588	0.088	-0.042
-175.983	23.993	-0.337	0.275
-174.969	39.045	-0.102	0.090
-173.954	-115.650	0.344	0.064
-172.939	144.163	0.076	-0.100
-171.925	-84.209	0.241	0.076
-170.910	800.000	0.090	-0.289
-169.896	432.135	-0.076	0.162
-168.881	-136.197	0.269	0.031
-167.866	84.500	0.140	-0.152
-166.852	-200.000	-0.013	0.098
-165.837	-33.556	0.407	-0.222
-164.823	786.753	-0.020	-0.054
-163.808	-33.143	0.262	0.143
-162.793	-70.048	-0.216	0.081
-161.779	586.696	-0.028	0.067
-160.764	-200.000	0.005	0.233
-159.750	-200.000	-0.007	-0.065
-158.735	415.008	0.091	0.192
-157.720	349.504	-0.097	0.189
-156.706	-200.000	-0.001	0.227
-155.691	-200.000	-0.000	0.198
-154.677	-7.472	0.039	0.026
-153.662	-4.170	-0.204	0.140
-152.647	-22.945	-0.216	0.129
-151.633	87.926	-0.163	0.178
-150.618	800.000	0.083	-0.301
-149.604	-56.136	0.289	0.127
-148.589	111.457	0.151	0.180
-147.574	174.588	-0.094	-0.134
-146.560	-57.374	0.126	0.055
-145.545	253.872	-0.161	0.271
-144.531	118.308	0.290	0.353
-143.516	800.000	-0.059	0.200
-142.502	-200.000	-0.029	-0.202
-141.487	-93.069	-0.170	0.047
-140.472	-81.923	0.280	-0.090
-139.458	94.650	0.114	0.128
-138.443	-200.000	0.070	-0.000
-137.429	-108.448	-0.392	0.083
-136.414	-200.000	-0.034	-0.294
-135.399	-200.000	0.012	-0.251
-134.385	10.640	-0.161	0.121
-133.370	181.625	0.085	-0.123
-132.356	-27.483	-0.229	-0.131
-131.341	394.907	0.120	-0.246
-130.326	800.000	0.026	-0.082
-129.312	93.067	0.181	0.201
-128.297	53.507	0.162	0.154
-127.283	-35.655	0.247	-0.132
-126.268	-81.745	-0.251	0.081
-125.253	-200.000	0.007	-0.055
-124.239	380.414	-0.080	-0.162
-123.224	520.382	-0.030	0.069
-122.210	800.000	0.157	0.477
-121.195	124.041	-0.181	0.225
-120.180	-64.356	0.069	-0.028
-119.166	-109.344	0.274	-0.057
-118.151	-86.108	0.189	-0.057
-117.137	800.000	0.049	0.134
-116.122	-162.943	0.131	0.006
-115.107	-77.306	0.408	-0.140
-114.093	45.018	0.094	0.085
-113.078	-3.475	-0.172	-0.118
-112.064	-146.925	-0.063	0.005
-111.049	179.541	-0.143	-0.207
-110.034	800.000	0.063	-0.189
-109.020	800.000	0.015	-0.055
-108.005	706.957	-0.128	0.332
-106.991	-200.000	-0.023	0.159
-105.976	197.806	-0.066	-0.100
-104.962	-78.577	-0.117	0.039
-103.947	-70.833	0.158	0.059
-102.932	558.366	0.029	0.068
-101.918	-139.194	-0.373	0.040
-100.903	-151.459	0.176	0.013
-99.889	-200.000	-0.051	0.235
-98.874	53.069	0.251	0.237
-97.859	-59.210	0.239	0.101
-96.845	-44.699	0.310	-0.153
-95.830	-151.096	-0.242	-0.018
-94.816	43.972	0.115	0.104
-93.801	142.193	-0.065	0.086
-92.786	-200.000	0.009	-0.175
-91.772	-200.000	-0.007	-0.263
-90.757	-7.749	0.335	0.223
-89.743	-150.899	-0.202	0.015
-88.728	800.000	-0.022	0.079
-87.713	101.905	-0.191	0.220
-86.699	308.730	0.101	0.185
-85.684	789.956	-0.075	-0.202
-84.670	-200.000	-0.019	0.218
-83.655	-20.515	-0.288	0.174
-82.640	313.851	-0.048	-0.089
-81.626	-62.417	0.099	0.041
-80.611	-62.037	-0.159	0.065
-79.597	65.313	0.218	-0.217
-78.582	22.910	-0.225	0.182
-77.567	-98.818	0.238	0.060
-76.553	27.043	0.361	0.298
-75.538	-200.000	0.050	0.000
-74.524	-89.487	0.396	0.115
-73.509	-200.000	-0.008	-0.101
-72.494	-121.567	-0.151	0.025
-71.480	800.000	0.094	-0.260
-70.465	443.696	0.090	0.194
-69.451	-91.971	-0.198	-0.055
-68.436	-152.802	0.054	0.004
-67.422	53.092	-0.049	-0.046
-66.407	-130.875	-0.090	0.012
-65.392	-114.123	-0.223	-0.042
-64.378	-2.922	0.400	-0.275
-63.363	-48.606	-0.246	0.116
-62.349	156.734	0.214	0.290
-61.334	25.603	-1.096	-0.897
-60.319	180.450	0.329	0.475
-59.305	-200.000	-0.044	-1.050
-58.290	625.320	0.385	0.955
-57.276	800.000	0.578	1.652
-56.261	-200.000	95.875	599.871
-55.246	577.362	1362.844	3277.184
-54.232	163.168	2537.382	3506.618
-53.217	114.562	2134.288	2557.508
-52.203	44.068	1599.570	1442.213
-51.188	35.674	1337.820	1155.956
-50.173	32.476	1296.714	1101.715
-49.159	54.486	1343.929	1273.362
-48.144	56.958	1360.039	1303.275
-47.130	35.763	1319.721	1140.661
-46.115	32.439	1301.532	1105.410
-45.100	32.135	1296.919	1099.674
-44.086	32.095	1294.438	1097.292
-43.071	32.038	1291.925	1094.782
-42.057	31.909	1290.050	1092.401
-41.042	32.070	1288.228	1091.753
-40.027	32.152	1286.575	1090.784
-39.013	32.031	1285.174	1088.848
-37.998	32.065	1283.142	1087.283
-36.984	32.211	1280.963	1086.236
-35.969	32.243	1279.358	1085.017
-34.954	32.243	1277.680	1083.550
-33.940	32.169	1276.403	1081.997
-32.925	32.203	1275.123	1081.064
-31.911	32.282	1273.544	1080.137
-30.896	32.244	1271.975	1078.545
-29.881	32.304	1270.699	1077.768
-28.867	32.276	1269.340	1076.411
-27.852	32.267	1268.009	1075.190
-26.838	32.377	1266.564	1074.550
-25.823	32.377	1265.161	1073.317
-24.809	32.315	1264.026	1071.959
-23.794	32.190	1262.770	1070.139
-22.779	32.166	1261.831	1069.159
-21.765	32.194	1260.295	1067.978
-20.750	32.282	1259.219	1067.522
-19.736	32.285	1257.379	1065.938
-18.721	32.083	1256.540	1064.037
-17.706	32.067	1255.558	1063.077
-16.692	32.096	1254.095	1061.957
-15.677	32.039	1253.168	1060.810
-14.663	32.130	1252.082	1060.361
-13.648	32.143	1250.799	1059.305
-12.633	32.133	1249.250	1057.893
-11.619	32.100	1249.305	1057.717
-10.604	32.141	1248.035	1056.828
-9.590	32.090	1247.035	1055.652
-8.575	32.111	1246.239	1055.053
-7.560	32.164	1244.863	1054.148
-6.546	32.070	1244.703	1053.438
-5.531	31.978	1244.059	1052.340
-4.517	32.021	1242.787	1051.460
-3.502	32.148	1241.666	1051.179
-2.487	32.133	1240.793	1050.315
-1.473	32.131	1236.585	1046.700
-0.458	30.672	1222.253	1026.484
0.556	27.932	1205.291	990.674
1.571	24.443	1211.600	976.718
2.586	23.762	1226.944	985.221
3.600	23.404	1215.805	974.223
4.615	17.189	1142.978	883.569
5.629	6.867	1067.207	774.553
6.644	2.487	1046.342	738.259
7.659	2.153	1043.136	734.325
8.673	1.918	1042.519	732.695
9.688	1.963	1040.670	731.547
10.702	2.444	1039.865	733.219
11.717	9.117	1049.212	771.913
12.731	19.253	1063.413	831.450
13.746	24.187	1069.449	859.971
14.761	25.382	1070.486	866.500
15.775	25.319	1070.466	866.103
16.790	25.173	1069.126	864.241
17.804	25.169	1068.803	863.882
18.819	25.236	1068.153	863.605
19.834	25.396	1067.840	864.044
20.848	25.287	1067.857	863.457
21.863	25.487	1067.027	863.671
22.877	25.286	1066.400	862.121
23.892	25.259	1065.611	861.278
24.907	25.289	1065.118	860.946
25.921	25.417	1063.516	860.189
26.936	25.392	1061.760	858.570
27.950	25.187	1060.972	856.879
28.965	25.250	1058.996	855.507
29.980	25.136	1058.079	854.149
30.994	25.370	1057.312	854.568
32.009	25.404	1055.942	853.544
33.023	25.256	1054.453	851.563
34.038	25.415	1053.647	851.590
35.053	25.421	1053.357	851.309
36.067	25.448	1052.258	850.475
37.082	25.522	1051.724	850.320
38.096	25.630	1051.027	850.188
39.111	25.765	1050.233	850.111
40.126	25.405	1048.857	847.221
41.140	25.207	1046.778	844.535
42.155	24.913	1045.601	842.128
43.169	25.094	1044.593	842.094
44.184	25.113	1043.973	841.611
45.199	24.998	1042.752	840.013
46.213	24.907	1042.459	839.274
47.228	25.232	1041.593	840.025
48.242	25.286	1040.644	839.437
49.257	25.276	1040.043	838.831
50.271	25.353	1039.169	838.413
51.286	25.416	1038.606	838.179
52.301	25.333	1037.945	837.182
53.315	25.243	1037.022	835.943
54.330	25.334	1035.719	835.243
55.344	25.350	1034.971	834.641
56.359	25.331	1033.753	833.499
57.374	25.027	1033.246	831.604
58.388	25.226	1032.480	831.836
59.403	25.054	1031.455	830.143
60.417	25.050	1030.396	829.198
61.432	25.082	1029.840	828.824
62.447	25.101	1029.498	828.561
63.461	25.095	1029.092	828.137
64.476	25.036	1027.860	826.797
65.490	24.937	1027.024	825.594
66.505	24.991	1026.575	825.409
67.520	24.978	1025.705	824.576
68.534	24.830	1024.082	822.519
69.549	24.590	1023.476	820.857
70.563	24.538	1022.701	819.926
71.578	24.547	1022.209	819.501
72.593	24.476	1021.134	818.238
73.607	24.671	1020.633	818.662
74.622	25.009	1020.064	819.679
75.636	24.990	1019.409	818.990
76.651	24.700	1018.438	816.816
77.666	24.674	1017.737	816.063
78.680	24.827	1017.331	816.360
79.695	24.963	1016.436	816.191
80.709	24.928	1015.927	815.551
81.724	25.001	1015.144	815.183
82.739	24.920	1014.689	814.376
83.753	25.359	1014.138	815.855
84.768	25.671	1013.206	816.450
85.782	25.686	1012.824	816.139
86.797	25.759	1011.332	815.197
87.812	25.496	1010.374	813.161
88.826	25.563	1009.543	812.722
89.841	25.528	1009.168	812.190
90.855	25.525	1008.111	811.255
91.870	25.684	1006.705	810.767
92.884	25.513	1005.663	809.090
93.899	25.487	1004.937	808.315
94.914	25.610	1004.132	808.149
95.928	25.413	1002.899	806.199
96.943	25.303	1001.525	804.531
97.957	25.036	1000.877	802.746
98.972	24.967	999.694	801.417
99.987	25.106	999.204	801.575
101.001	25.293	998.655	801.898
102.016	25.301	997.541	800.970
103.030	25.272	996.441	799.885
104.045	24.971	995.946	798.074
105.060	24.848	994.930	796.645
106.074	25.164	994.246	797.430
107.089	25.424	993.541	797.950
108.103	25.310	992.619	796.631
109.118	25.237	991.119	795.036
110.133	25.108	990.385	793.803
111.147	24.872	988.905	791.506
112.162	24.802	988.101	790.483
113.176	24.926	987.665	790.610
114.191	24.885	986.729	789.611
115.206	24.595	985.858	787.564
116.220	24.591	985.148	786.913
117.235	24.770	984.244	786.905
118.249	24.775	983.328	786.126
119.264	24.671	982.649	785.057
120.279	24.660	982.093	784.495
121.293	24.858	981.209	784.587
122.308	24.797	980.359	783.571
123.322	24.742	979.052	782.218
124.337	24.648	978.093	780.971
125.352	24.079	976.547	777.184
126.366	24.086	975.503	776.316
127.381	24.925	975.538	779.931
128.395	25.154	975.355	780.711
129.410	25.336	973.741	780.144
130.424	25.469	973.026	780.078
131.439	25.191	972.472	778.357
132.454	25.325	971.271	777.910
133.468	25.335	970.381	777.171
134.483	25.322	969.906	776.665
135.497	25.532	968.874	776.678
136.512	25.663	967.636	776.183
137.527	25.518	967.694	775.534
138.541	25.521	966.586	774.590
139.556	25.654	965.542	774.260
140.570	25.734	965.036	774.127
141.585	25.684	963.931	772.958
142.600	25.653	962.678	771.751
143.614	25.829	962.343	772.171
144.629	25.896	961.811	771.963
145.643	25.727	960.340	769.991
146.658	25.544	958.985	768.053
147.673	25.489	957.901	766.882
148.687	25.446	956.799	765.750
149.702	25.402	955.483	764.443
150.716	25.278	955.256	763.666
151.731	25.463	954.390	763.690
152.746	25.632	954.035	764.056
153.760	25.651	953.582	763.707
154.775	25.657	952.912	763.129
155.789	25.693	951.552	762.125
156.804	25.655	950.979	761.440
157.819	25.656	950.765	761.205
158.833	25.773	949.879	760.919
159.848	25.813	948.238	759.709
160.862	25.531	947.473	757.841
161.877	25.672	946.445	757.545
162.892	25.679	945.407	756.677
163.906	25.598	944.763	755.752
164.921	25.650	943.577	754.953
165.935	25.699	942.966	754.604
166.950	25.763	941.893	753.947
167.964	25.638	941.078	752.707
168.979	25.564	939.911	751.398
169.994	25.521	939.041	750.455
171.008	25.826	938.270	751.043
172.023	25.726	937.774	750.163
173.037	25.477	936.630	748.145
174.052	25.265	935.612	746.383
175.067	25.335	935.346	746.396
176.081	25.541	934.687	746.662
177.096	25.621	933.707	746.143
178.110	25.223	933.042	743.897
179.125	25.095	932.290	742.703
180.140	25.079	932.041	742.373
181.154	25.231	931.604	742.586
182.169	25.690	931.475	744.318
183.183	25.809	931.274	744.583
184.198	25.641	930.364	743.095
185.213	25.641	929.336	742.208
186.227	25.779	928.443	741.997
187.242	25.738	928.057	741.456
188.256	25.723	927.661	741.010
189.271	25.865	926.364	740.494
190.286	25.497	925.692	738.379
191.300	24.870	924.079	734.455
192.315	24.090	922.280	729.765
193.329	24.133	922.062	729.706
194.344	24.965	922.363	733.286
195.359	25.448	922.428	735.251
196.373	25.597	922.353	735.733
197.388	25.610	921.429	734.986
198.402	25.552	920.983	734.328
199.417	25.614	920.249	733.930
200.432	25.337	919.178	731.882
201.446	25.180	918.721	730.815
202.461	25.275	917.864	730.453
203.475	24.446	915.920	725.473
204.490	23.629	914.662	721.097
205.504	24.535	915.028	725.003
206.519	25.200	914.985	727.600
207.534	25.238	914.824	727.564
208.548	25.589	914.373	728.561
209.563	25.451	913.683	727.390
210.577	25.462	912.903	726.748
211.592	25.771	912.750	727.809
212.607	25.821	911.613	727.042
213.621	25.923	910.748	726.698
214.636	25.809	910.280	725.803
215.650	25.717	909.531	724.770
216.665	25.916	909.004	725.085
217.680	25.822	908.567	724.295
218.694	25.299	907.412	721.212
219.709	25.320	906.532	720.531
220.723	25.433	906.401	720.818
221.738	25.587	905.636	720.761
222.753	25.624	904.990	720.331
223.767	25.757	904.938	720.760
224.782	25.946	904.628	721.205
225.796	25.863	904.016	720.320
226.811	25.255	902.188	716.375
227.826	24.549	901.285	712.780
228.840	24.814	900.752	713.352
229.855	24.817	899.914	712.636
230.869	24.447	899.176	710.516
231.884	24.880	899.016	712.048
232.899	25.513	898.857	714.375
233.913	25.532	898.010	713.716
234.928	25.504	897.799	713.372
235.942	25.496	896.923	712.581
236.957	25.155	896.032	710.462
237.972	25.110	895.781	710.020
238.986	25.200	895.353	709.976
240.001	25.299	894.904	709.949
241.015	25.353	894.290	709.611
242.030	25.429	893.580	709.286
243.045	25.694	893.088	709.875
244.059	25.709	892.922	709.743
245.074	25.517	891.792	708.024
246.088	25.200	890.954	706.049
247.103	25.664	890.318	707.306
248.117	26.021	890.924	709.130
249.132	26.270	890.215	709.481
250.147	26.321	889.909	709.372
251.161	26.472	889.350	709.458
252.176	26.471	888.754	708.917
253.190	26.490	888.227	708.506
254.205	26.714	887.493	708.737
255.220	26.445	887.492	707.620
256.234	26.527	886.593	707.158
257.249	26.346	885.757	705.724
258.263	26.203	885.314	704.752
259.278	26.531	884.488	705.308
260.293	26.627	883.954	705.194
261.307	26.434	883.192	703.776
262.322	26.256	882.264	702.278
263.336	25.488	880.401	697.756
264.351	24.456	878.541	692.218
265.366	24.717	878.155	692.864
266.380	25.536	879.049	696.686
267.395	26.025	879.072	698.534
268.409	26.044	877.803	697.540
269.424	26.247	877.290	697.855
270.439	26.145	876.913	697.098
271.453	26.187	876.711	697.040
272.468	26.476	875.921	697.464
273.482	26.571	875.682	697.577
274.497	26.146	874.343	694.811
275.512	25.752	873.603	692.649
276.526	26.084	873.248	693.580
277.541	26.319	873.179	694.367
278.555	25.987	872.534	692.520
279.570	25.926	871.777	691.623
280.585	26.267	870.795	692.090
281.599	26.201	870.018	691.159
282.614	25.432	869.008	687.354
283.628	25.581	868.694	687.616
284.643	25.910	867.954	688.226
285.657	25.523	866.703	685.694
286.672	25.091	866.393	683.744
287.687	25.837	866.423	686.551
288.701	25.817	865.714	685.852
289.716	25.673	864.512	684.289
290.730	25.411	864.081	682.892
291.745	25.128	863.313	681.149
292.760	25.547	863.371	682.729
293.774	26.586	863.767	686.923
294.789	26.955	863.239	687.844
295.803	26.687	863.228	686.759
296.818	27.024	861.925	686.934
297.833	26.422	860.979	683.846
298.847	26.408	860.169	683.088
299.862	26.752	859.822	684.052
300.876	26.897	859.700	684.442
301.891	26.708	859.082	683.174
302.906	26.260	858.325	680.825
303.920	26.372	857.870	680.824
304.935	26.817	857.856	682.427
305.949	26.887	856.820	681.806
306.964	26.548	856.248	680.017
307.979	26.514	855.559	679.283
308.993	27.002	855.907	681.331
310.008	26.918	854.882	680.142
311.022	26.609	853.985	678.209
312.037	26.447	853.385	677.066
313.052	26.218	852.710	675.615
314.066	25.429	851.151	671.375
315.081	25.105	850.536	669.618
316.095	25.901	851.182	673.043
317.110	26.445	850.185	674.224
318.125	25.580	849.045	670.036
319.139	24.533	847.590	664.934
320.154	24.559	847.205	664.669
321.168	25.457	847.929	668.521
322.183	26.215	847.721	671.117
323.197	26.288	847.535	671.180
324.212	26.678	846.819	672.002
325.227	26.626	846.195	671.255
326.241	26.427	845.579	669.968
327.256	26.406	844.914	669.306
328.270	26.495	843.939	668.804
329.285	26.029	843.331	666.540
330.300	25.892	842.736	665.504
331.314	26.120	842.551	666.142
332.329	26.652	841.997	667.606
333.343	26.764	842.391	668.273
334.358	26.517	842.020	667.009
335.373	26.677	841.471	667.104
336.387	27.039	841.384	668.309
337.402	27.085	841.242	668.305
338.416	27.086	840.835	667.928
339.431	27.228	840.242	667.918
340.446	27.408	839.841	668.200
341.460	27.344	839.334	667.503
342.475	27.132	838.904	666.324
343.489	27.223	838.578	666.340
344.504	27.397	838.495	666.853
345.519	27.544	838.034	666.964
346.533	27.594	837.542	666.699
347.548	27.509	837.075	665.955
348.562	27.491	836.426	665.315
349.577	27.479	835.642	664.588
350.592	27.444	834.806	663.738
351.606	27.555	834.406	663.766
352.621	27.170	833.990	661.973
353.635	27.272	832.916	661.436
354.650	26.632	831.254	657.731
355.665	25.580	829.993	652.860
356.679	25.927	830.174	654.203
357.694	26.540	829.548	655.874
358.708	26.366	829.049	654.792
359.723	26.736	828.750	655.837
360.738	27.163	828.409	657.052
361.752	27.144	828.328	656.863
362.767	27.592	827.636	657.873
363.781	27.850	827.316	658.493
364.796	27.701	827.151	657.765
365.810	27.831	826.657	657.781
366.825	27.858	826.407	657.621
367.840	27.511	825.579	655.654
368.854	27.183	824.557	653.608
369.869	27.387	823.592	653.518
370.883	27.331	823.463	653.157
371.898	27.027	823.365	651.929
372.913	27.233	823.136	652.430
373.927	27.444	822.283	652.453
374.942	27.441	822.078	652.221
375.956	27.566	821.797	652.387
376.971	27.734	821.235	652.483
377.986	27.927	820.990	652.920
379.000	27.787	820.433	651.921
380.015	27.638	819.646	650.706
381.029	27.585	819.449	650.302
382.044	27.880	818.503	650.545
383.059	27.950	818.235	650.524
384.073	27.851	817.560	649.577
385.088	27.748	816.906	648.634
386.102	27.650	816.075	647.570
387.117	27.488	815.452	646.444
388.132	27.214	814.328	644.522
389.146	26.818	813.229	642.196
390.161	27.191	813.390	643.587
391.175	27.516	813.680	644.908
392.190	27.110	812.523	642.498
393.205	25.865	810.171	636.192
394.219	24.337	808.331	629.302
395.234	24.314	808.511	629.306
396.248	25.934	810.083	636.198
397.263	27.289	810.688	641.397
398.278	27.431	809.631	641.001
399.292	27.023	809.294	639.243
400.307	27.087	809.154	639.300
401.321	27.280	808.548	639.446
402.336	27.634	808.483	640.582
403.350	28.186	808.406	642.403
404.365	28.386	808.275	642.942
405.380	28.651	807.833	643.464
406.394	28.578	807.727	643.066
407.409	28.506	806.906	642.105
408.423	28.403	806.702	641.524
409.438	28.617	806.158	641.784
410.453	28.586	806.014	641.502
411.467	28.546	805.352	640.779
412.482	28.614	804.880	640.584
413.496	28.556	804.355	639.906
414.511	28.718	804.109	640.221
415.526	28.657	803.490	639.457
416.540	28.348	802.930	637.882
417.555	28.233	802.305	636.927
418.569	28.323	801.821	636.801
419.584	28.166	801.533	635.968
420.599	27.996	800.833	634.765
421.613	111.663	1286.229	1458.623
422.628	96.373	1356.952	1458.740
