DTS Sentinel unit serial number:	SN413079Multiplexer serial number:	ORYXHardware model number:	OX4-SRSoftware version number:	ORYX F/W v4.00 Oryx Data Collector v3.7.2.0data status	okinstallation	princeton_trtdifferential loss correction	single-endedforward channel	channel 1reverse channel	N/Adate	2019/09/12time	05:32:11forward acquisition time	60.00reverse acquisition time	0.00gamma	496.2192k internal	0.2321k external	0.2321temperature offset calibration	1.0049default loss term (dB/km)	0.3790temperature slope calibration	1.0000multiplexer offset coefficient	1.0000multiplexer slope coefficient	1.0000fibre end	0.00T internal ref (°C)	31.94T ext. ref 1 (°C)	1.60T ext. ref 2 (°C)	27.41length (m)	temperature (°C)	Stokes	anti-Stokes-747.200	20.922	0.079	-0.064
-746.185	-6.920	-0.328	0.225
-745.171	-98.375	-0.260	-0.067
-744.156	22.015	-0.196	0.161
-743.142	269.037	0.055	0.097
-742.127	-200.000	0.003	0.136
-741.112	180.383	0.240	0.355
-740.098	800.000	-0.160	0.515
-739.083	-200.000	0.041	0.201
-738.069	90.322	-0.244	0.276
-737.054	-200.000	0.001	-0.066
-736.039	800.000	-0.080	-0.246
-735.025	581.950	0.121	0.299
-734.010	-108.027	0.107	0.023
-732.996	74.038	0.065	-0.069
-731.981	-28.644	0.133	0.077
-730.966	-80.036	0.124	0.042
-729.952	92.506	0.241	-0.275
-728.937	-42.543	0.334	0.172
-727.923	-101.826	0.334	0.082
-726.908	-200.000	0.009	0.049
-725.894	-200.000	-0.017	-0.201
-724.879	-200.000	0.016	-0.117
-723.864	23.399	0.098	-0.082
-722.850	-181.160	-0.390	-0.008
-721.835	800.000	0.039	0.140
-720.821	-21.077	-0.102	-0.063
-719.806	-200.000	-0.007	-0.155
-718.791	-40.483	-0.350	0.184
-717.777	240.839	0.073	-0.122
-716.762	-76.436	0.315	-0.112
-715.748	405.065	-0.097	-0.207
-714.733	-200.000	-0.016	0.149
-713.718	119.325	-0.031	-0.039
-712.704	106.073	-0.181	0.217
-711.689	-200.000	-0.010	-0.255
-710.675	-8.837	0.107	0.072
-709.660	-82.783	0.211	0.069
-708.645	800.000	0.082	0.262
-707.631	25.207	0.096	-0.080
-706.616	-112.898	-0.218	0.044
-705.602	-114.282	0.125	0.024
-704.587	145.312	-0.197	0.265
-703.572	174.387	0.143	-0.209
-702.558	-120.406	-0.201	0.034
-701.543	15.117	0.227	0.179
-700.529	-200.000	-0.040	-0.560
-699.514	-14.632	-0.063	-0.041
-698.499	800.000	-0.077	-0.238
-697.485	69.987	0.292	-0.304
-696.470	52.940	-0.139	-0.134
-695.456	800.000	0.050	-0.216
-694.441	108.491	0.332	0.399
-693.426	-89.535	-0.035	-0.010
-692.412	-61.221	-0.352	0.150
-691.397	-140.027	-0.115	-0.012
-690.383	-2.135	-0.099	0.070
-689.368	-123.075	0.330	0.054
-688.354	12.365	-0.166	-0.129
-687.339	-200.000	-0.039	-0.234
-686.324	-110.472	0.228	-0.048
-685.310	77.152	-0.311	-0.333
-684.295	327.495	-0.113	-0.218
-683.281	24.568	0.161	0.134
-682.266	-200.000	-0.009	-0.262
-681.251	-60.278	-0.164	-0.071
-680.237	-200.000	-0.086	-0.435
-679.222	-117.502	-0.474	0.086
-678.208	101.494	0.061	0.072
-677.193	133.375	0.197	0.257
-676.178	473.857	-0.153	0.347
-675.164	9.418	0.183	-0.140
-674.149	-112.882	-0.281	0.056
-673.135	-145.727	0.017	-0.002
-672.120	138.069	-0.186	-0.246
-671.105	-73.762	-0.190	0.070
-670.091	204.380	-0.079	0.123
-669.076	800.000	0.013	-0.053
-668.062	74.053	-0.030	0.032
-667.047	198.915	0.123	-0.190
-666.032	-80.113	-0.158	-0.053
-665.018	-200.000	-0.086	0.654
-664.003	211.670	-0.174	0.276
-662.989	-58.695	0.339	-0.148
-661.974	-35.652	0.411	0.225
-660.959	-200.000	0.002	0.046
-659.945	-28.749	-0.099	-0.057
-658.930	-128.107	0.319	0.046
-657.916	800.000	-0.025	0.075
-656.901	-200.000	0.019	0.157
-655.886	-169.245	-0.155	-0.006
-654.872	-5.683	-0.382	0.264
-653.857	24.375	0.226	-0.188
-652.843	576.545	-0.060	-0.147
-651.828	-200.000	0.030	0.275
-650.814	215.104	0.097	-0.155
-649.799	-162.352	0.383	0.019
-648.784	12.529	-0.255	-0.198
-647.770	-165.879	0.106	-0.005
-646.755	358.783	0.138	-0.277
-645.741	800.000	0.055	-0.209
-644.726	261.173	-0.124	-0.216
-643.711	-69.867	0.119	-0.046
-642.697	196.589	-0.049	0.076
-641.682	-78.109	-0.234	0.081
-640.668	61.628	-0.112	0.112
-639.653	-31.035	-0.115	-0.065
-638.638	68.145	-0.084	-0.086
-637.624	-65.139	-0.059	0.024
-636.609	800.000	-0.131	-0.396
-635.595	-36.416	-0.270	-0.146
-634.580	-141.835	0.161	0.016
-633.565	-200.000	0.138	-0.686
-632.551	420.434	-0.224	-0.484
-631.536	-200.000	-0.006	-0.248
-630.522	80.221	-0.058	-0.063
-629.507	-190.509	-0.025	-0.000
-628.492	-200.000	0.002	-0.057
-627.478	-58.199	0.218	-0.096
-626.463	65.442	0.114	0.116
-625.449	-200.000	0.023	-0.294
-624.434	320.003	-0.134	0.256
-623.419	117.144	-0.144	0.178
-622.405	676.024	-0.081	0.213
-621.390	-93.785	0.170	0.047
-620.376	-121.824	0.436	0.072
-619.361	152.017	-0.098	0.135
-618.346	173.797	-0.184	-0.267
-617.332	-200.000	0.013	0.304
-616.317	541.992	0.202	0.485
-615.303	-200.000	0.018	0.189
-614.288	634.485	0.115	0.294
-613.273	-200.000	0.016	0.320
-612.259	601.249	0.031	-0.077
-611.244	800.000	0.043	-0.146
-610.230	-200.000	0.006	-0.275
-609.215	101.648	0.316	-0.370
-608.201	-200.000	0.032	-0.234
-607.186	22.892	-0.216	-0.178
-606.171	-35.420	0.335	-0.183
-605.157	-200.000	0.065	0.356
-604.142	-10.211	-0.112	0.075
-603.128	67.497	-0.313	-0.322
-602.113	-61.560	-0.262	-0.111
-601.098	79.450	0.117	0.126
-600.084	15.264	-0.192	-0.152
-599.069	-160.935	-0.174	0.009
-598.055	-77.960	0.115	-0.040
-597.040	-30.131	0.357	0.204
-596.025	-200.000	-0.012	0.274
-595.011	2.369	-0.159	-0.115
-593.996	409.365	0.080	-0.170
-592.982	-200.000	-0.042	0.231
-591.967	39.263	-0.154	-0.139
-590.952	71.751	0.125	-0.131
-589.938	-148.451	-0.279	0.023
-588.923	-10.038	-0.172	0.115
-587.909	-200.000	-0.009	-0.146
-586.894	-115.492	0.165	0.031
-585.879	-69.285	0.157	-0.060
-584.865	800.000	-0.083	0.340
-583.850	126.412	-0.165	0.210
-582.836	412.496	0.114	-0.243
-581.821	-162.235	-0.285	-0.014
-580.806	218.788	0.109	-0.174
-579.792	420.076	0.069	-0.148
-578.777	12.220	0.245	0.190
-577.763	800.000	-0.132	-0.400
-576.748	-122.664	0.146	-0.024
-575.733	-76.615	0.098	-0.034
-574.719	-200.000	0.018	-0.208
-573.704	-200.000	0.015	-0.341
-572.690	16.074	0.399	-0.316
-571.675	7.860	-0.123	-0.093
-570.661	178.570	-0.059	-0.087
-569.646	-141.092	0.158	-0.016
-568.631	-200.000	0.030	0.132
-567.617	-200.000	-0.042	-0.341
-566.602	48.748	0.198	0.187
-565.588	-200.000	-0.016	0.137
-564.573	-60.639	-0.169	-0.072
-563.558	-200.000	-0.044	0.231
-562.544	-144.939	-0.081	-0.007
-561.529	-99.598	-0.223	0.056
-560.515	595.311	-0.039	-0.097
-559.500	-133.610	0.319	0.040
-558.485	17.577	-0.244	-0.195
-557.471	-170.376	0.256	0.009
-556.456	-113.873	0.396	0.077
-555.442	-96.141	-0.326	0.087
-554.427	84.383	-0.155	-0.170
-553.412	310.927	-0.133	-0.250
-552.398	-77.378	0.206	-0.072
-551.383	-184.506	0.333	0.005
-550.369	-156.720	-0.249	0.015
-549.354	544.868	-0.075	-0.180
-548.339	32.531	-0.243	-0.210
-547.325	399.217	-0.101	-0.213
-546.310	562.187	-0.069	-0.168
-545.296	45.324	0.066	0.061
-544.281	-61.851	-0.456	0.191
-543.266	308.133	-0.093	-0.175
-542.252	-104.683	0.168	-0.039
-541.237	-30.142	0.080	0.045
-540.223	-93.296	-0.347	0.097
-539.208	-58.109	-0.285	-0.125
-538.193	-200.000	0.004	0.520
-537.179	-65.755	0.255	0.102
-536.164	-9.883	0.076	0.051
-535.150	-184.791	-0.191	0.003
-534.135	186.487	0.115	0.172
-533.121	407.460	-0.077	-0.164
-532.106	366.693	0.061	0.124
-531.091	107.669	0.240	0.287
-530.077	-200.000	-0.010	0.053
-529.062	335.022	-0.102	0.198
-528.048	77.848	0.104	0.111
-527.033	366.820	0.047	0.096
-526.018	-200.000	0.015	0.106
-525.004	-114.264	0.440	0.085
-523.989	-141.801	0.185	0.019
-522.975	45.901	-0.032	0.029
-521.960	-93.465	0.372	0.103
-520.945	60.112	-0.118	0.117
-519.931	293.421	0.168	0.306
-518.916	49.676	-0.234	-0.221
-517.902	551.336	-0.030	0.072
-516.887	-6.231	0.239	0.163
-515.872	-62.273	-0.108	-0.045
-514.858	-125.675	-0.238	-0.036
-513.843	-28.844	-0.141	-0.081
-512.829	-98.003	0.213	-0.055
-511.814	412.527	-0.014	0.030
-510.799	-156.371	0.241	0.015
-509.785	-32.334	0.122	0.068
-508.770	-100.850	-0.090	0.022
-507.756	800.000	0.047	-0.192
-506.741	-200.000	-0.029	-0.202
-505.726	-200.000	-0.008	-0.091
-504.712	-200.000	-0.053	-0.325
-503.697	800.000	0.030	-0.118
-502.683	-67.277	-0.288	-0.114
-501.668	62.713	-0.172	-0.173
-500.653	101.404	0.085	-0.100
-499.639	-200.000	0.006	-0.084
-498.624	84.459	-0.117	-0.128
-497.610	800.000	-0.079	0.228
-496.595	-200.000	-0.013	0.123
-495.581	-34.383	0.315	-0.173
-494.566	-54.338	-0.165	-0.075
-493.551	-200.000	0.022	-0.196
-492.537	-11.587	0.318	-0.209
-491.522	-46.365	-0.109	0.054
-490.508	-1.382	-0.133	-0.094
-489.493	-83.346	-0.165	0.053
-488.478	-10.136	-0.253	0.168
-487.464	-200.000	0.048	0.219
-486.449	211.601	0.098	0.154
-485.435	-94.269	0.135	-0.037
-484.420	800.000	-0.088	-0.290
-483.405	33.379	0.029	0.025
-482.391	2.568	0.169	0.122
-481.376	258.796	0.243	-0.419
-480.362	25.080	0.111	-0.092
-479.347	-14.047	0.140	-0.090
-478.332	-48.454	-0.464	-0.224
-477.318	-19.049	0.040	0.025
-476.303	31.237	-0.076	0.065
-475.289	106.034	0.159	0.189
-474.274	350.389	0.228	-0.452
-473.259	800.000	-0.097	-0.337
-472.245	347.808	-0.120	0.237
-471.230	590.454	0.055	0.137
-470.216	101.310	0.138	-0.160
-469.201	286.195	-0.135	-0.244
-468.186	-76.849	-0.303	0.106
-467.172	-82.754	-0.317	0.103
-466.157	800.000	0.189	0.522
-465.143	-8.455	-0.125	0.084
-464.128	745.765	0.040	-0.109
-463.113	13.131	-0.155	0.120
-462.099	115.797	-0.161	0.197
-461.084	50.057	0.099	-0.093
-460.070	398.495	0.113	0.236
-459.055	800.000	-0.079	-0.280
-458.040	800.000	-0.126	-0.350
-457.026	-83.463	0.164	0.053
-456.011	96.232	-0.130	0.149
-454.997	-200.000	0.048	0.243
-453.982	-45.024	-0.486	-0.241
-452.968	-60.442	0.253	0.107
-451.953	-58.227	-0.417	0.182
-450.938	516.647	0.067	-0.157
-449.924	-200.000	0.008	-0.095
-448.909	116.505	-0.188	0.230
-447.895	800.000	-0.111	-0.324
-446.880	-173.189	0.151	0.005
-445.865	135.725	0.119	0.155
-444.851	-21.215	0.188	0.115
-443.836	-21.721	-0.248	0.151
-442.822	-145.175	-0.106	-0.010
-441.807	-45.131	0.107	-0.053
-440.792	-200.000	-0.016	-0.070
-439.778	-5.873	0.176	0.121
-438.763	-14.335	-0.113	0.073
-437.749	179.408	-0.220	0.321
-436.734	-200.000	0.035	-0.240
-435.719	800.000	-0.062	0.215
-434.705	-61.927	0.091	0.038
-433.690	51.690	-0.117	-0.111
-432.676	428.291	-0.065	0.139
-431.661	-35.810	0.028	0.015
-430.646	40.795	0.268	-0.241
-429.632	800.000	-0.102	-0.349
-428.617	85.754	-0.218	-0.239
-427.603	-2.764	0.252	-0.176
-426.588	213.406	0.087	-0.138
-425.573	-175.810	-0.414	0.011
-424.559	85.199	0.185	0.203
-423.544	13.701	-0.244	-0.189
-422.530	-200.000	-0.018	0.340
-421.515	-101.266	0.062	0.015
-420.500	-100.086	-0.290	0.072
-419.486	-172.009	0.277	-0.009
-418.471	-54.335	-0.237	0.107
-417.457	-40.724	0.192	-0.099
-416.442	190.279	0.139	-0.208
-415.428	-93.996	-0.135	0.037
-414.413	564.194	-0.125	0.301
-413.398	-200.000	-0.029	0.155
-412.384	-127.107	-0.206	0.030
-411.369	-40.066	0.035	0.018
-410.355	-200.000	-0.029	-0.251
-409.340	800.000	-0.112	-0.433
-408.325	57.340	0.092	0.090
-407.311	59.513	0.119	-0.117
-406.296	606.654	-0.040	0.099
-405.282	800.000	-0.021	-0.090
-404.267	-200.000	-0.035	-0.218
-403.252	-200.000	0.001	-0.089
-402.238	466.351	-0.159	0.356
-401.223	-200.000	0.041	-0.344
-400.209	-4.160	-0.317	0.219
-399.194	-29.889	0.228	0.129
-398.179	343.274	-0.099	-0.194
-397.165	-16.405	-0.171	-0.108
-396.150	800.000	-0.090	0.299
-395.136	-72.021	0.288	-0.107
-394.121	800.000	-0.011	-0.048
-393.106	-79.911	-0.045	0.015
-392.092	-140.848	-0.185	0.019
-391.077	-200.000	-0.005	-0.180
-390.063	-98.403	0.224	-0.057
-389.048	-54.927	0.239	0.107
-388.033	-43.549	-0.044	0.022
-387.019	-200.000	-0.002	-0.284
-386.004	159.166	0.023	-0.032
-384.990	62.826	0.109	0.108
-383.975	194.867	0.089	0.135
-382.960	214.160	-0.114	-0.180
-381.946	-200.000	-0.031	0.288
-380.931	176.088	-0.075	0.108
-379.917	-81.550	-0.420	0.138
-378.902	-77.701	-0.139	-0.048
-377.888	-200.000	0.025	0.187
-376.873	113.377	0.145	0.175
-375.858	83.560	0.136	0.147
-374.844	-200.000	-0.043	0.254
-373.829	448.443	0.032	-0.070
-372.815	-157.316	0.277	-0.017
-371.800	133.970	-0.045	-0.058
-370.785	-104.356	-0.204	0.047
-369.771	110.554	0.046	0.056
-368.756	-13.655	-0.173	0.112
-367.742	-111.368	0.281	-0.057
-366.727	32.107	0.128	0.110
-365.712	-200.000	0.012	0.184
-364.698	-65.173	0.094	-0.038
-363.683	22.097	0.213	-0.173
-362.669	400.710	0.088	0.185
-361.654	-96.330	-0.333	0.088
-360.639	242.811	0.185	0.309
-359.625	268.410	0.125	-0.218
-358.610	99.594	-0.043	0.050
-357.596	53.757	0.117	-0.112
-356.581	-47.853	0.273	-0.132
-355.566	-144.388	0.332	0.031
-354.552	-200.000	-0.035	-0.156
-353.537	126.359	-0.237	-0.299
-352.523	86.756	0.278	0.306
-351.508	11.181	0.064	-0.049
-350.493	-20.990	0.307	0.187
-349.479	471.577	-0.064	0.144
-348.464	175.234	-0.174	0.251
-347.450	-76.142	0.166	0.058
-346.435	159.563	0.060	0.083
-345.420	69.716	0.155	0.159
-344.406	-103.848	0.269	0.063
-343.391	-114.133	0.138	-0.027
-342.377	-92.114	0.303	0.085
-341.362	78.481	0.041	-0.043
-340.348	-200.000	0.070	0.374
-339.333	539.769	0.028	-0.066
-338.318	79.171	-0.199	-0.212
-337.304	-200.000	0.045	0.420
-336.289	-150.457	-0.405	-0.031
-335.275	194.108	-0.179	0.270
-334.260	207.776	0.211	0.328
-333.245	-200.000	0.017	0.138
-332.231	-41.767	0.125	0.064
-331.216	800.000	0.050	-0.145
-330.202	-200.000	-0.027	0.257
-329.187	565.772	0.171	0.411
-328.172	-46.192	-0.206	-0.101
-327.158	800.000	-0.024	0.068
-326.143	-57.508	-0.188	0.082
-325.129	-28.049	0.205	0.118
-324.114	5.838	0.167	-0.123
-323.099	163.117	-0.106	-0.147
-322.085	-105.158	0.249	0.056
-321.070	22.674	0.199	-0.162
-320.056	-51.947	-0.130	0.060
-319.041	104.153	-0.074	-0.086
-318.026	99.164	-0.245	-0.281
-317.012	-200.000	0.070	0.349
-315.997	-91.075	0.269	-0.077
-314.983	-177.006	0.256	0.006
-313.968	172.793	-0.142	-0.203
-312.953	-200.000	0.013	-0.326
-311.939	203.193	0.061	0.094
-310.924	27.834	0.097	0.081
-309.910	200.482	-0.138	0.211
-308.895	42.467	0.179	0.162
-307.880	122.664	0.082	-0.102
-306.866	101.630	-0.114	-0.132
-305.851	-109.611	-0.112	0.024
-304.837	182.458	0.288	-0.422
-303.822	-103.047	0.123	-0.029
-302.807	64.342	-0.201	0.201
-301.793	734.775	0.052	-0.139
-300.778	-51.812	0.228	0.105
-299.764	800.000	0.040	0.161
-298.749	648.213	-0.131	-0.332
-297.735	401.798	-0.162	0.337
-296.720	800.000	0.034	-0.147
-295.705	800.000	0.069	-0.232
-294.691	37.451	-0.201	0.177
-293.676	-9.727	-0.041	-0.027
-292.662	-47.354	-0.384	-0.186
-291.647	293.572	0.088	0.159
-290.632	-200.000	-0.042	0.481
-289.618	19.847	0.208	0.167
-288.603	414.945	-0.090	-0.190
-287.589	-124.593	-0.161	-0.025
-286.574	-86.301	0.194	-0.059
-285.559	542.761	-0.069	0.163
-284.545	800.000	0.075	-0.312
-283.530	-134.483	0.158	-0.019
-282.516	800.000	0.044	-0.172
-281.501	23.135	-0.066	-0.054
-280.486	-78.718	0.162	-0.055
-279.472	-11.390	-0.218	-0.142
-278.457	-98.920	0.181	-0.046
-277.443	-168.451	-0.268	0.010
-276.428	467.063	-0.068	-0.151
-275.413	-17.753	0.213	0.132
-274.399	342.880	-0.096	0.186
-273.384	-200.000	-0.019	-0.124
-272.370	-95.058	0.195	-0.052
-271.355	-200.000	0.039	-0.229
-270.340	35.144	0.293	-0.254
-269.326	407.593	-0.102	-0.214
-268.311	779.736	-0.117	0.318
-267.297	276.567	0.060	0.106
-266.282	800.000	-0.083	0.236
-265.267	800.000	0.118	0.330
-264.253	82.794	0.182	0.196
-263.238	98.701	-0.225	0.257
-262.224	156.418	-0.316	-0.432
-261.209	-200.000	-0.012	0.193
-260.195	8.748	-0.331	-0.247
-259.180	691.150	0.075	-0.194
-258.165	-54.157	-0.198	0.089
-257.151	9.820	-0.335	-0.252
-256.136	28.276	-0.208	0.174
-255.122	-200.000	-0.033	0.477
-254.107	800.000	0.027	-0.087
-253.092	157.382	-0.124	0.170
-252.078	-6.031	-0.108	0.073
-251.063	800.000	-0.091	0.296
-250.049	123.980	-0.153	-0.191
-249.034	-7.144	0.367	0.247
-248.019	-65.679	-0.275	0.109
-247.005	7.768	0.405	-0.301
-245.990	-72.166	-0.154	0.057
-244.976	-109.976	0.273	-0.057
-243.961	-86.633	-0.221	0.067
-242.946	800.000	-0.031	-0.104
-241.932	27.440	-0.201	-0.167
-240.917	-200.000	0.000	0.176
-239.903	243.948	0.250	0.416
-238.888	63.477	-0.222	0.221
-237.873	-61.442	0.236	0.098
-236.859	437.506	-0.031	0.066
-235.844	113.725	-0.105	0.127
-234.830	-55.573	0.262	-0.116
-233.815	614.914	0.017	0.043
-232.800	-79.754	0.083	-0.028
-231.786	70.968	0.111	0.114
-230.771	-110.821	0.431	0.088
-229.757	-28.347	-0.121	-0.069
-228.742	-200.000	-0.016	0.170
-227.727	-200.000	-0.001	-0.217
-226.713	184.063	-0.074	-0.108
-225.698	327.939	0.150	-0.284
-224.684	-187.104	-0.203	0.003
-223.669	-64.603	-0.051	-0.020
-222.655	167.430	0.267	-0.376
-221.640	552.588	0.040	-0.096
-220.625	-92.741	0.154	-0.043
-219.611	-200.000	-0.045	0.241
-218.596	128.233	-0.085	0.107
-217.582	800.000	0.067	-0.242
-216.567	-200.000	0.049	-0.244
-215.552	244.548	-0.108	-0.179
-214.538	-200.000	0.021	-0.340
-213.523	8.428	-0.137	-0.102
-212.509	-94.581	-0.251	-0.068
-211.494	372.002	0.104	-0.208
-210.479	-200.000	-0.015	0.090
-209.465	-7.709	-0.057	0.038
-208.450	-67.207	0.200	0.078
-207.436	-200.000	-0.018	0.171
-206.421	-143.290	-0.319	-0.030
-205.406	-36.962	0.147	-0.078
-204.392	321.866	0.094	0.177
-203.377	800.000	0.062	-0.201
-202.363	-200.000	0.071	0.364
-201.348	800.000	-0.016	-0.065
-200.333	387.903	0.198	0.406
-199.319	-39.824	0.133	-0.069
-198.304	-200.000	-0.069	0.335
-197.290	800.000	-0.016	-0.059
-196.275	-122.197	0.361	-0.059
-195.260	47.359	-0.078	0.072
-194.246	-200.000	-0.004	0.083
-193.231	-64.995	-0.149	0.059
-192.217	-6.692	0.289	-0.194
-191.202	-133.677	0.339	0.042
-190.187	-94.331	-0.300	-0.081
-189.173	737.760	-0.107	-0.283
-188.158	-200.000	0.009	0.115
-187.144	-200.000	0.037	0.269
-186.129	-131.122	0.255	-0.034
-185.114	-14.908	0.249	0.158
-184.100	181.784	0.219	-0.319
-183.085	609.413	-0.159	0.393
-182.071	-155.800	-0.077	0.005
-181.056	6.995	-0.239	-0.176
-180.042	800.000	-0.017	-0.059
-179.027	136.915	-0.171	-0.221
-178.012	37.986	-0.250	0.220
-176.998	397.785	-0.061	-0.127
-175.983	-27.271	-0.345	0.199
-174.969	314.627	-0.064	-0.118
-173.954	-165.961	0.184	-0.008
-172.939	72.854	-0.048	-0.049
-171.925	434.620	-0.034	0.073
-170.910	92.064	0.121	-0.135
-169.896	-80.975	0.217	0.071
-168.881	-72.374	-0.248	0.091
-167.866	47.371	-0.063	0.058
-166.852	-83.413	-0.235	0.074
-165.837	53.333	0.045	0.043
-164.823	800.000	-0.060	-0.196
-163.808	348.580	0.095	0.186
-162.793	584.813	-0.097	-0.236
-161.779	-101.560	0.083	-0.020
-160.764	-200.000	-0.026	0.225
-159.750	-143.822	-0.321	0.030
-158.735	-59.887	-0.237	0.100
-157.720	-200.000	0.073	0.322
-156.706	244.048	0.097	0.160
-155.691	384.281	0.142	0.290
-154.677	-163.898	0.065	0.003
-153.662	-23.071	-0.286	-0.170
-152.647	800.000	-0.093	0.271
-151.633	-199.874	0.282	-0.001
-150.618	41.475	-0.110	-0.098
-149.604	-143.532	0.024	-0.002
-148.589	-179.692	-0.341	0.007
-147.574	-131.529	0.231	0.030
-146.560	130.147	0.109	-0.137
-145.545	800.000	-0.117	0.385
-144.531	338.250	-0.064	-0.124
-143.516	13.384	-0.289	0.221
-142.502	800.000	-0.057	0.192
-141.487	-200.000	0.011	-0.096
-140.472	-90.121	-0.161	0.046
-139.458	5.225	-0.219	-0.160
-138.443	155.824	0.066	-0.089
-137.429	800.000	0.109	-0.297
-136.414	-31.230	-0.163	-0.091
-135.399	-200.000	-0.012	0.212
-134.385	7.041	-0.063	-0.047
-133.370	-200.000	0.021	0.170
-132.356	-116.753	0.265	0.048
-131.341	-122.892	0.082	-0.013
-130.326	102.340	0.067	0.077
-129.312	14.109	-0.100	-0.077
-128.297	281.455	0.202	-0.357
-127.283	80.879	0.099	0.105
-126.268	203.876	-0.202	0.308
-125.253	261.089	0.052	0.089
-124.239	-114.586	-0.093	-0.018
-123.224	-40.346	0.014	0.007
-122.210	81.427	-0.189	-0.201
-121.195	-62.581	-0.205	-0.084
-120.180	119.902	-0.213	0.260
-119.166	-200.000	-0.028	-0.304
-118.151	-38.126	-0.119	-0.062
-117.137	-200.000	-0.041	-0.213
-116.122	-132.902	0.431	0.054
-115.107	-124.873	0.104	0.016
-114.093	-24.710	0.107	0.063
-113.078	-67.169	-0.370	-0.144
-112.064	64.103	-0.062	0.062
-111.049	2.488	-0.260	-0.186
-110.034	-89.325	0.107	0.031
-109.020	-67.015	0.337	0.131
-108.005	-84.364	0.161	0.050
-106.991	-79.234	0.025	-0.008
-105.976	-200.000	-0.062	-0.300
-104.962	-200.000	0.008	-0.252
-103.947	68.766	-0.109	0.110
-102.932	-55.351	-0.246	-0.109
-101.918	68.805	-0.029	-0.029
-100.903	521.045	0.082	0.189
-99.889	-184.495	0.270	0.004
-98.874	800.000	-0.058	-0.223
-97.859	-5.165	-0.229	0.155
-96.845	165.203	0.193	0.269
-95.830	-87.670	-0.189	0.056
-94.816	-52.664	-0.290	-0.132
-93.801	-22.517	0.120	0.072
-92.786	-7.485	0.111	0.074
-91.772	649.498	-0.069	0.175
-90.757	800.000	-0.065	-0.253
-89.743	121.168	-0.196	0.240
-88.728	81.913	-0.120	-0.128
-87.713	60.716	-0.209	0.204
-86.699	-53.370	0.056	-0.025
-85.684	-103.036	0.350	0.082
-84.670	72.011	0.135	-0.138
-83.655	97.847	0.101	-0.114
-82.640	358.731	-0.105	0.207
-81.626	-74.756	-0.114	-0.040
-80.611	-200.000	0.014	-0.063
-79.597	56.208	0.176	-0.168
-78.582	-174.800	-0.211	0.006
-77.567	72.689	0.182	0.187
-76.553	-3.998	-0.286	-0.195
-75.538	493.113	-0.248	0.561
-74.524	108.681	0.092	-0.108
-73.509	-200.000	-0.014	-0.235
-72.494	204.773	-0.068	-0.104
-71.480	139.105	-0.096	0.124
-70.465	77.472	0.074	-0.077
-69.451	-73.512	0.111	-0.040
-68.436	-123.236	0.076	0.012
-67.422	800.000	0.064	0.209
-66.407	-192.129	0.056	0.001
-65.392	330.855	-0.059	0.111
-64.378	271.120	-0.046	-0.079
-63.363	-0.238	0.093	0.065
-62.349	-165.932	0.392	-0.017
-61.334	265.254	-0.530	-0.909
-60.319	-67.715	0.770	0.296
-59.305	800.000	-0.311	-0.900
-58.290	56.366	0.734	0.702
-57.276	800.000	0.598	1.850
-56.261	-200.000	96.435	602.002
-55.246	566.445	1370.246	3270.899
-54.232	161.730	2546.921	3507.468
-53.217	114.103	2138.228	2558.992
-52.203	44.006	1600.906	1443.337
-51.188	35.530	1338.667	1156.108
-50.173	32.217	1297.822	1101.413
-49.159	55.327	1344.843	1279.496
-48.144	57.585	1361.364	1308.595
-47.130	35.665	1320.352	1140.911
-46.115	32.189	1302.431	1104.982
-45.100	31.944	1297.780	1099.558
-44.086	31.901	1295.159	1097.041
-43.071	31.823	1293.034	1094.742
-42.057	31.849	1290.726	1092.894
-41.042	31.788	1289.114	1091.131
-40.027	31.820	1287.565	1089.963
-39.013	31.826	1285.998	1088.628
-37.998	31.821	1284.191	1087.030
-36.984	31.870	1282.630	1085.947
-35.969	32.047	1280.534	1085.155
-34.954	32.025	1278.743	1083.462
-33.940	32.012	1277.571	1082.355
-32.925	31.923	1276.468	1080.866
-31.911	31.961	1274.505	1079.378
-30.896	32.066	1272.923	1078.597
-29.881	32.097	1271.448	1077.482
-28.867	32.018	1270.559	1076.233
-27.852	32.083	1269.199	1075.411
-26.838	31.974	1267.940	1073.680
-25.823	31.971	1266.622	1072.504
-24.809	32.125	1264.754	1071.756
-23.794	31.933	1264.149	1070.106
-22.779	32.011	1262.496	1069.111
-21.765	32.078	1261.386	1068.507
-20.750	31.984	1260.422	1067.117
-19.736	31.848	1258.686	1064.831
-18.721	31.887	1257.529	1064.028
-17.706	32.017	1256.177	1063.579
-16.692	31.971	1254.880	1062.181
-15.677	31.949	1254.286	1061.510
-14.663	31.929	1252.812	1060.106
-13.648	31.808	1251.807	1058.531
-12.633	31.818	1250.612	1057.534
-11.619	31.885	1249.931	1057.296
-10.604	31.823	1249.208	1056.293
-9.590	31.836	1248.028	1055.330
-8.575	31.886	1247.141	1054.817
-7.560	31.830	1246.313	1053.760
-6.546	31.873	1245.382	1053.174
-5.531	31.914	1244.430	1052.555
-4.517	31.905	1243.811	1051.941
-3.502	31.883	1242.963	1051.058
-2.487	31.840	1241.878	1049.856
-1.473	31.870	1237.416	1046.210
-0.458	30.474	1223.195	1026.439
0.556	27.195	1206.678	991.281
1.571	23.875	1211.760	977.152
2.586	23.026	1227.254	984.829
3.600	22.388	1216.108	972.279
4.615	16.103	1141.688	879.999
5.629	5.899	1065.620	771.359
6.644	1.844	1046.170	737.615
7.659	1.581	1043.107	734.118
8.673	1.489	1042.043	732.865
9.688	1.467	1040.704	731.748
10.702	1.657	1038.923	731.348
11.717	7.517	1047.583	765.709
12.731	17.753	1062.223	826.172
13.746	23.620	1069.019	859.897
14.761	24.795	1070.394	866.620
15.775	24.913	1070.276	867.023
16.790	24.576	1069.404	864.609
17.804	24.629	1068.886	864.368
18.819	24.767	1068.696	864.804
19.834	24.932	1067.769	864.774
20.848	24.918	1067.488	864.406
21.863	25.008	1066.689	864.115
22.877	24.898	1066.117	863.044
23.892	24.794	1065.635	862.077
24.907	24.756	1065.142	861.419
25.921	24.778	1064.020	860.541
26.936	24.870	1062.372	859.577
27.950	24.767	1060.746	857.689
28.965	24.645	1059.083	855.683
29.980	24.683	1057.682	854.658
30.994	24.977	1056.613	855.124
32.009	24.875	1055.696	853.818
33.023	24.738	1054.514	852.136
34.038	24.865	1053.868	852.140
35.053	24.777	1053.571	851.406
36.067	24.901	1052.571	851.116
37.082	24.914	1051.630	850.339
38.096	25.096	1051.096	850.697
39.111	25.188	1050.041	850.201
40.126	25.129	1048.742	848.794
41.140	24.554	1047.313	844.844
42.155	24.523	1045.381	843.068
43.169	24.523	1044.912	842.613
44.184	24.581	1044.011	842.088
45.199	24.264	1043.117	839.795
46.213	24.418	1042.251	839.750
47.228	24.683	1041.464	840.288
48.242	24.692	1040.877	839.783
49.257	24.724	1040.272	839.369
50.271	24.910	1039.153	839.264
51.286	24.903	1038.655	838.757
52.301	24.983	1037.371	838.020
53.315	24.872	1036.600	836.804
54.330	24.789	1036.094	835.934
55.344	24.944	1034.889	835.612
56.359	24.749	1034.117	834.001
57.374	24.608	1033.320	832.630
58.388	24.604	1032.553	831.918
59.403	24.565	1031.186	830.561
60.417	24.581	1030.643	830.126
61.432	24.476	1030.368	829.346
62.447	24.621	1029.435	829.191
63.461	24.641	1029.162	828.994
64.476	24.639	1027.352	827.453
65.490	24.411	1026.553	825.680
66.505	24.553	1026.166	825.952
67.520	24.586	1025.567	825.551
68.534	24.459	1024.352	823.914
69.549	24.121	1023.179	821.339
70.563	24.123	1022.268	820.543
71.578	24.185	1021.165	819.871
72.593	24.011	1020.882	818.770
73.607	24.256	1020.109	819.205
74.622	24.351	1020.274	819.701
75.636	24.384	1019.205	818.918
76.651	24.303	1018.163	817.638
77.666	24.213	1017.812	816.873
78.680	24.138	1017.755	816.410
79.695	24.440	1016.603	816.796
80.709	24.433	1015.921	816.145
81.724	24.471	1015.001	815.508
82.739	24.552	1014.089	815.073
83.753	24.838	1013.490	815.821
84.768	25.180	1013.104	816.997
85.782	25.332	1011.355	816.204
86.797	25.079	1011.136	814.808
87.812	24.822	1010.463	813.024
88.826	25.016	1009.117	812.750
89.841	25.173	1008.406	812.815
90.855	25.222	1007.235	812.023
91.870	25.208	1006.330	811.159
92.884	24.947	1005.426	809.180
93.899	24.980	1004.392	808.424
94.914	25.211	1003.612	808.765
95.928	24.932	1002.998	806.944
96.943	24.760	1001.401	804.811
97.957	24.589	1000.021	802.863
98.972	24.458	999.009	801.392
99.987	24.638	998.812	801.972
101.001	24.841	997.760	801.963
102.016	24.762	997.380	801.237
103.030	24.613	996.716	799.962
104.045	24.545	995.435	798.562
105.060	24.459	994.456	797.321
106.074	24.600	993.891	797.428
107.089	24.894	993.646	798.472
108.103	24.835	992.026	796.836
109.118	24.667	990.710	794.962
110.133	24.623	989.895	794.043
111.147	24.391	988.632	791.930
112.162	24.452	987.342	791.094
113.176	24.617	987.399	791.803
114.191	24.439	986.871	790.522
115.206	24.094	985.636	787.935
116.220	24.103	985.024	787.414
117.235	24.289	983.865	787.241
118.249	24.282	983.236	786.637
119.264	24.201	982.272	785.438
120.279	24.237	981.706	785.074
121.293	24.338	981.000	784.887
122.308	24.363	980.261	784.334
123.322	24.244	979.024	782.752
124.337	24.106	977.791	781.094
125.352	23.639	976.212	777.718
126.366	23.514	975.375	776.435
127.381	24.270	975.795	780.010
128.395	24.648	975.086	781.026
129.410	24.852	974.430	781.320
130.424	24.763	973.746	780.315
131.439	24.713	972.635	779.138
132.454	24.749	971.622	778.415
133.468	24.729	970.700	777.520
134.483	24.945	969.776	777.651
135.497	25.078	969.164	777.667
136.512	24.991	968.552	776.731
137.527	25.030	967.464	775.960
138.541	25.056	966.757	775.433
139.556	25.096	966.175	775.073
140.570	25.223	965.014	774.619
141.585	25.164	964.193	773.637
142.600	25.116	963.234	772.595
143.614	25.274	962.742	772.811
144.629	25.277	962.066	772.215
145.643	25.191	961.150	771.040
146.658	24.903	959.807	768.657
147.673	24.845	958.713	767.465
148.687	24.845	957.791	766.660
149.702	24.849	956.657	765.702
150.716	24.833	955.862	764.927
151.731	24.865	955.346	764.583
152.746	25.122	954.418	764.871
153.760	25.294	953.761	765.011
154.775	25.251	953.813	764.802
155.789	25.208	953.081	763.961
156.804	25.133	951.896	762.627
157.819	25.261	950.707	762.149
158.833	25.311	950.622	762.228
159.848	25.472	948.939	761.492
160.862	25.318	947.745	759.814
161.877	25.165	947.108	758.590
162.892	25.246	946.253	758.182
163.906	25.252	944.985	757.124
164.921	25.186	944.615	756.483
165.935	25.046	944.052	755.373
166.950	25.200	942.553	754.755
167.964	25.209	941.506	753.886
168.979	24.971	941.105	752.500
169.994	25.007	939.650	751.421
171.008	25.179	939.302	751.798
172.023	25.233	938.665	751.448
173.037	25.052	936.939	749.240
174.052	24.924	936.351	748.171
175.067	24.906	935.536	747.376
176.081	25.032	935.439	747.759
177.096	25.019	934.616	746.981
178.110	24.647	933.760	744.683
179.125	24.462	933.095	743.314
180.140	24.499	932.927	743.269
181.154	24.790	932.389	743.987
182.169	25.073	932.231	744.971
183.183	25.140	931.810	744.846
184.198	25.132	930.674	743.838
185.213	25.186	930.106	743.542
186.227	25.319	929.447	743.502
187.242	25.163	928.825	742.293
188.256	25.230	928.477	742.227
189.271	25.398	927.317	741.927
190.286	25.055	926.037	739.421
191.300	24.295	924.779	735.219
192.315	23.499	923.139	730.575
193.329	23.534	922.913	730.474
194.344	24.496	923.697	734.993
195.359	25.016	923.009	736.517
196.373	25.221	922.764	737.099
197.388	25.059	922.269	735.974
198.402	25.105	921.182	735.229
199.417	25.162	920.675	734.995
200.432	24.708	919.922	732.467
201.446	24.595	919.349	731.485
202.461	24.702	918.539	731.213
203.475	23.886	916.658	726.321
204.490	23.183	915.332	722.336
205.504	24.047	916.119	726.422
206.519	24.752	915.872	729.034
207.534	24.722	915.681	728.697
208.548	25.128	915.389	730.053
209.563	24.986	914.322	728.560
210.577	24.920	913.990	727.964
211.592	25.367	913.345	729.201
212.607	25.298	912.453	728.147
213.621	25.285	911.957	727.630
214.636	25.297	911.103	726.934
215.650	25.031	910.710	725.481
216.665	25.267	910.348	726.082
217.680	25.279	909.137	725.101
218.694	24.867	907.860	722.356
219.709	24.772	906.999	721.223
220.723	25.099	907.142	722.591
221.738	25.129	906.619	722.232
222.753	25.065	906.261	721.627
223.767	25.131	905.487	721.212
224.782	25.426	905.272	722.159
225.796	25.490	904.458	721.704
226.811	24.757	903.342	717.810
227.826	24.078	901.781	713.784
228.840	24.307	901.753	714.616
229.855	24.378	900.728	714.027
230.869	24.069	899.339	711.625
231.884	24.319	899.748	712.888
232.899	25.061	899.862	715.879
233.913	25.046	898.910	714.998
234.928	24.896	898.695	714.167
235.942	24.931	897.907	713.616
236.957	24.825	896.710	712.181
237.972	24.660	896.744	711.486
238.986	24.714	896.273	711.267
240.001	24.803	895.587	711.012
241.015	25.027	894.867	711.266
242.030	24.899	894.870	710.699
243.045	25.160	894.184	711.125
244.059	25.311	893.518	711.131
245.074	25.188	892.803	710.013
246.088	24.766	891.663	707.375
247.103	25.065	891.627	708.467
248.117	25.453	892.079	710.297
249.132	25.845	891.235	711.108
250.147	25.957	890.488	710.892
251.161	26.053	890.155	710.942
252.176	25.831	889.914	709.811
253.190	25.926	889.166	709.524
254.205	26.218	888.614	710.171
255.220	26.218	887.929	709.560
256.234	25.922	887.244	707.789
257.249	25.915	886.403	707.026
258.263	25.942	885.742	706.544
259.278	26.022	885.358	706.487
260.293	26.021	884.929	706.079
261.307	25.920	883.689	704.632
262.322	25.759	882.998	703.388
263.336	25.017	881.535	699.269
264.351	24.108	879.048	693.695
265.366	24.198	879.336	694.211
266.380	25.271	880.081	698.920
267.395	25.660	879.665	700.040
268.409	25.542	878.752	698.792
269.424	25.722	878.509	699.236
270.439	25.832	877.681	698.941
271.453	25.724	877.485	698.307
272.468	26.237	876.814	699.696
273.482	26.061	876.331	698.570
274.497	25.645	874.956	695.801
275.512	25.478	873.956	694.302
276.526	25.782	874.229	695.630
277.541	25.812	874.257	695.708
278.555	25.581	873.321	694.008
279.570	25.461	872.297	692.673
280.585	25.781	871.885	693.517
281.599	25.660	870.970	692.262
282.614	24.918	870.062	688.628
283.628	25.078	869.445	688.691
284.643	25.408	868.733	689.334
285.657	25.054	867.752	687.136
286.672	24.707	867.189	685.300
287.687	25.243	867.215	687.313
288.701	25.407	866.430	687.258
289.716	25.119	865.358	685.247
290.730	25.057	864.882	684.574
291.745	24.785	863.965	682.749
292.760	25.059	864.206	683.922
293.774	25.981	864.979	687.994
294.789	26.429	864.135	688.971
295.803	26.407	863.526	688.339
296.818	26.413	862.909	687.808
297.833	26.007	861.900	685.402
298.847	25.791	861.241	683.998
299.862	26.155	861.262	685.333
300.876	26.303	861.054	685.670
301.891	26.278	859.964	684.647
302.906	25.964	858.680	682.374
303.920	26.112	858.600	682.812
304.935	26.415	858.230	683.601
305.949	26.284	857.737	682.655
306.964	26.059	856.732	680.945
307.979	26.245	856.586	681.473
308.993	26.352	856.801	681.986
310.008	26.462	855.524	681.322
311.022	26.216	855.099	679.997
312.037	26.226	854.182	679.246
313.052	25.923	853.093	677.182
314.066	24.989	851.535	672.380
315.081	24.670	850.983	670.690
316.095	25.437	851.655	674.036
317.110	26.058	851.317	676.038
318.125	25.065	850.032	671.243
319.139	24.016	848.411	665.979
320.154	24.118	848.100	666.058
321.168	25.148	848.221	669.943
322.183	25.702	848.612	672.261
323.197	25.885	848.352	672.682
324.212	26.138	847.908	673.211
325.227	26.236	847.376	673.095
326.241	26.005	846.297	671.320
327.256	25.916	845.899	670.613
328.270	25.861	845.021	669.652
329.285	25.587	844.343	668.039
330.300	25.464	843.392	666.773
331.314	25.677	843.472	667.568
332.329	26.135	843.400	669.147
333.343	26.295	842.949	669.323
334.358	26.119	842.242	668.052
335.373	26.187	842.457	668.414
336.387	26.476	842.503	669.462
337.402	26.573	842.432	669.704
338.416	26.676	841.556	669.332
339.431	26.623	841.681	669.176
340.446	26.919	841.093	669.742
341.460	26.651	840.493	668.215
342.475	26.417	840.068	666.957
343.489	26.668	839.632	667.474
344.504	26.968	839.465	668.389
345.519	26.946	838.886	667.787
346.533	26.997	838.647	667.724
347.548	26.950	838.109	667.065
348.562	27.055	837.605	666.989
349.577	26.918	836.853	665.832
350.592	26.938	835.826	665.028
351.606	26.965	835.493	664.803
352.621	26.786	834.613	663.388
353.635	26.655	833.806	662.208
354.650	26.005	832.386	658.651
355.665	25.110	830.845	654.107
356.679	25.699	830.239	655.719
357.694	26.031	830.470	657.053
358.708	25.911	829.843	656.064
359.723	26.250	830.189	657.511
360.738	26.584	829.609	658.210
361.752	26.681	829.043	658.056
362.767	27.154	828.721	659.458
363.781	27.283	828.170	659.429
364.796	27.508	827.635	659.758
365.810	27.489	827.553	659.568
366.825	27.282	827.395	658.632
367.840	27.144	826.254	657.167
368.854	26.708	825.105	654.622
369.869	26.670	825.166	654.472
370.883	26.684	825.023	654.352
371.898	26.631	824.386	653.599
372.913	26.723	824.252	653.766
373.927	26.904	823.432	653.712
374.942	27.029	823.114	653.850
375.956	27.112	822.786	653.832
376.971	27.273	822.320	653.981
377.986	27.383	822.179	654.206
379.000	27.243	821.486	653.095
380.015	27.176	820.766	652.224
381.029	27.338	820.344	652.413
382.044	27.397	819.936	652.242
383.059	27.495	819.150	651.910
384.073	27.354	818.717	651.002
385.088	27.439	817.587	650.348
386.102	27.178	817.114	648.986
387.117	27.147	816.556	648.374
388.132	26.650	815.580	645.770
389.146	26.122	814.690	643.126
390.161	26.633	814.461	644.709
391.175	27.029	814.486	646.079
392.190	26.755	813.472	644.246
393.205	25.489	811.206	637.904
394.219	23.858	809.418	630.660
395.234	23.703	809.705	630.278
396.248	25.516	810.582	637.341
397.263	26.766	811.692	642.592
398.278	26.786	811.413	642.383
399.292	26.618	810.389	640.920
400.307	26.468	810.338	640.295
401.321	26.710	809.596	640.506
402.336	27.079	809.495	641.673
403.350	27.591	809.248	643.229
404.365	27.769	809.374	643.899
405.380	28.156	808.885	644.819
406.394	28.185	808.371	644.452
407.409	28.052	807.820	643.489
408.423	27.942	807.609	642.876
409.438	28.093	807.446	643.220
410.453	27.859	807.185	642.133
411.467	28.050	806.096	641.880
412.482	27.933	805.896	641.256
413.496	28.125	805.716	641.729
414.511	28.034	805.470	641.156
415.526	28.158	804.728	640.944
416.540	28.002	803.540	639.396
417.555	27.800	803.150	638.323
418.569	27.853	803.132	638.436
419.584	27.678	802.521	637.283
420.599	27.522	802.037	636.295
421.613	110.617	1287.018	1459.499
422.628	95.422	1357.685	1459.583
