DTS Sentinel unit serial number:	SN413079Multiplexer serial number:	ORYXHardware model number:	OX4-SRSoftware version number:	ORYX F/W v4.00 Oryx Data Collector v3.7.2.0data status	okinstallation	princeton_trtdifferential loss correction	single-endedforward channel	channel 1reverse channel	N/Adate	2019/09/12time	03:52:11forward acquisition time	60.00reverse acquisition time	0.00gamma	496.2192k internal	0.2322k external	0.2322temperature offset calibration	1.0081default loss term (dB/km)	0.3790temperature slope calibration	1.0000multiplexer offset coefficient	1.0000multiplexer slope coefficient	1.0000fibre end	0.00T internal ref (°C)	32.14T ext. ref 1 (°C)	2.14T ext. ref 2 (°C)	27.04length (m)	temperature (°C)	Stokes	anti-Stokes-747.200	-200.000	0.017	-0.236
-746.185	-200.000	0.019	0.318
-745.171	-98.811	-0.259	0.067
-744.156	261.506	0.234	0.410
-743.142	-200.000	0.053	0.310
-742.127	-55.711	-0.309	0.140
-741.112	-113.138	-0.214	0.043
-740.098	8.933	-0.198	0.151
-739.083	-55.576	0.209	-0.095
-738.069	-11.665	0.287	0.190
-737.054	-200.000	0.009	0.095
-736.039	-53.197	-0.224	0.104
-735.025	-0.636	0.187	0.134
-734.010	20.225	0.125	0.102
-732.996	-122.573	-0.278	-0.046
-731.981	40.745	0.125	0.114
-730.966	800.000	-0.075	-0.235
-729.952	800.000	-0.102	-0.390
-728.937	738.403	-0.036	-0.096
-727.923	418.544	-0.088	0.190
-726.908	-200.000	0.002	-0.323
-725.894	265.749	0.062	-0.109
-724.879	332.171	-0.107	-0.209
-723.864	-132.410	-0.426	-0.055
-722.850	-200.000	0.014	0.077
-721.835	800.000	-0.099	-0.338
-720.821	-35.985	-0.200	0.109
-719.806	611.842	-0.065	-0.163
-718.791	-107.278	-0.144	0.032
-717.777	-119.524	0.090	-0.016
-716.762	-200.000	0.004	-0.101
-715.748	-104.180	-0.242	-0.057
-714.733	84.807	0.171	0.189
-713.718	334.472	0.038	0.074
-712.704	-10.841	-0.273	-0.182
-711.689	800.000	-0.043	-0.154
-710.675	356.758	0.049	0.098
-709.660	-148.274	0.088	0.007
-708.645	-200.000	0.002	-0.091
-707.631	-142.670	0.276	-0.027
-706.616	0.442	-0.104	-0.075
-705.602	-93.927	0.095	0.026
-704.587	-134.580	0.267	0.033
-703.572	100.994	0.025	-0.029
-702.558	-66.664	-0.325	0.130
-701.543	-101.821	-0.212	-0.052
-700.529	-90.842	0.155	0.045
-699.514	334.340	-0.134	-0.261
-698.499	220.200	-0.152	-0.246
-697.485	-122.548	-0.277	-0.045
-696.470	141.890	0.150	-0.200
-695.456	-119.710	0.293	-0.051
-694.441	-200.000	-0.045	-0.294
-693.426	-60.135	0.102	-0.044
-692.412	-58.086	0.247	0.109
-691.397	-112.167	0.172	0.035
-690.383	-99.738	-0.217	-0.055
-689.368	-71.760	-0.581	0.218
-688.354	90.480	-0.162	-0.182
-687.339	95.569	0.118	-0.136
-686.324	33.663	-0.097	-0.085
-685.310	-68.923	0.088	0.034
-684.295	-80.641	0.189	-0.063
-683.281	152.201	-0.070	0.096
-682.266	-4.989	0.157	-0.109
-681.251	362.235	0.132	-0.268
-680.237	124.403	-0.186	0.235
-679.222	60.885	0.083	-0.083
-678.208	-94.701	-0.034	0.009
-677.193	200.538	-0.061	-0.095
-676.178	-200.000	-0.068	-0.401
-675.164	44.221	-0.258	-0.238
-674.149	-131.716	0.480	0.063
-673.135	-9.372	0.121	0.082
-672.120	-33.804	0.298	0.166
-671.105	90.089	0.113	0.127
-670.091	-200.000	-0.011	-0.122
-669.076	-3.340	-0.159	-0.111
-668.062	-25.219	0.199	0.119
-667.047	-200.000	0.012	-0.113
-666.032	788.330	0.044	0.121
-665.018	0.168	-0.196	-0.141
-664.003	35.271	0.151	0.134
-662.989	-70.391	0.189	0.072
-661.974	34.965	0.111	0.098
-660.959	-135.393	0.289	-0.035
-659.945	-200.000	-0.042	-0.280
-658.930	-12.930	-0.227	0.149
-657.916	-200.000	0.001	-0.217
-656.901	-71.405	0.099	0.037
-655.886	277.164	0.062	-0.111
-654.872	-50.255	-0.485	0.231
-653.857	800.000	-0.092	-0.292
-652.843	245.616	0.117	-0.199
-651.828	90.553	-0.096	-0.108
-650.814	481.709	-0.162	0.371
-649.799	-200.000	0.033	0.175
-648.784	-200.000	0.014	0.278
-647.770	-103.725	0.409	0.097
-646.755	800.000	-0.095	0.267
-645.741	-200.000	0.005	-0.152
-644.726	56.381	0.227	0.222
-643.711	-108.333	0.264	-0.057
-642.697	-14.955	-0.194	-0.125
-641.682	-34.810	-0.149	-0.082
-640.668	800.000	0.079	0.345
-639.653	23.624	-0.080	-0.066
-638.638	-7.755	-0.100	-0.068
-637.624	264.120	-0.072	0.126
-636.609	47.307	0.180	0.169
-635.595	800.000	-0.022	0.084
-634.580	-81.953	0.355	-0.117
-633.565	-59.197	-0.081	-0.035
-632.551	-200.000	-0.001	-0.228
-631.536	-15.520	-0.076	0.049
-630.522	-200.000	0.025	0.194
-629.507	8.149	-0.109	0.082
-628.492	-47.664	-0.183	0.089
-627.478	90.970	0.140	-0.158
-626.463	-200.000	0.031	0.312
-625.449	-134.174	-0.454	-0.056
-624.434	-169.728	0.455	0.017
-623.419	-26.042	0.178	-0.106
-622.405	146.149	0.081	0.109
-621.390	-118.447	-0.028	0.005
-620.376	601.034	-0.041	-0.103
-619.361	800.000	0.056	-0.222
-618.346	800.000	0.176	0.537
-617.332	-200.000	-0.024	0.385
-616.317	-102.725	0.294	0.071
-615.303	45.495	0.219	-0.203
-614.288	-200.000	-0.023	-0.135
-613.273	-67.659	-0.374	0.147
-612.259	14.904	-0.226	-0.178
-611.244	800.000	-0.039	0.145
-610.230	120.921	-0.087	0.109
-609.215	800.000	-0.046	0.180
-608.201	-200.000	-0.011	-0.073
-607.186	-200.000	0.013	0.211
-606.171	-54.085	0.145	-0.066
-605.157	78.892	0.035	-0.038
-604.142	149.516	0.135	0.184
-603.128	-191.376	-0.274	0.003
-602.113	64.439	-0.179	0.181
-601.098	503.992	0.097	-0.225
-600.084	-64.743	-0.199	-0.081
-599.069	800.000	0.094	-0.281
-598.055	-200.000	0.141	0.001
-597.040	-200.000	0.009	-0.308
-596.025	2.126	0.355	-0.258
-595.011	27.480	0.072	-0.061
-593.996	-29.962	0.286	-0.164
-592.982	268.174	0.130	0.229
-591.967	-34.041	0.275	0.152
-590.952	-200.000	0.057	-0.279
-589.938	-78.138	0.243	-0.084
-588.923	-90.787	-0.267	0.077
-587.909	-73.251	-0.180	0.066
-586.894	-103.942	-0.220	0.051
-585.879	391.937	-0.097	-0.202
-584.865	-82.317	0.117	-0.038
-583.850	-148.604	0.041	-0.003
-582.836	800.000	0.027	-0.082
-581.821	-119.039	-0.232	0.041
-580.806	-109.327	0.184	0.039
-579.792	-75.081	-0.451	-0.162
-578.777	-176.300	0.141	0.004
-577.763	93.077	-0.216	-0.245
-576.748	257.818	-0.135	-0.233
-575.733	800.000	0.043	-0.142
-574.719	800.000	-0.036	0.113
-573.704	-87.165	0.306	-0.093
-572.690	231.287	0.096	-0.158
-571.675	310.390	-0.015	-0.029
-570.661	84.341	0.228	0.250
-569.646	-28.634	0.171	0.099
-568.631	514.384	-0.051	-0.119
-567.617	155.855	0.166	-0.230
-566.602	190.668	0.115	-0.173
-565.588	-84.267	-0.348	0.110
-564.573	682.193	-0.149	0.390
-563.558	140.704	-0.217	0.288
-562.544	-71.522	-0.197	-0.074
-561.529	-200.000	-0.005	-0.094
-560.515	-200.000	0.002	0.035
-559.500	-129.763	0.098	-0.014
-558.485	-67.596	0.155	-0.061
-557.471	-200.000	-0.036	0.247
-556.456	-120.474	-0.114	0.019
-555.442	161.229	0.105	-0.148
-554.427	-25.981	-0.204	0.120
-553.412	-152.167	-0.056	0.004
-552.398	280.900	0.191	-0.343
-551.383	-59.491	0.092	-0.040
-550.369	-20.242	0.205	0.126
-549.354	-19.031	0.284	-0.177
-548.339	52.147	0.137	-0.131
-547.325	800.000	-0.068	0.290
-546.310	-114.845	-0.244	-0.047
-545.296	800.000	-0.064	-0.213
-544.281	129.122	0.078	-0.100
-543.266	24.550	-0.153	0.127
-542.252	800.000	0.014	-0.061
-541.237	42.281	-0.132	-0.120
-540.223	17.925	0.033	-0.026
-539.208	-141.828	0.279	-0.028
-538.193	-200.000	-0.061	-0.561
-537.179	-46.880	-0.346	0.170
-536.164	41.280	0.092	0.084
-535.150	145.126	0.092	-0.123
-534.135	134.328	0.204	0.265
-533.121	-200.000	-0.055	0.243
-532.106	-134.874	0.163	-0.020
-531.091	-59.247	-0.155	-0.067
-530.077	665.659	-0.018	0.046
-529.062	413.164	-0.060	-0.127
-528.048	-145.248	0.100	0.009
-527.033	288.553	0.039	0.071
-526.018	555.478	0.158	0.380
-525.004	69.338	0.081	-0.084
-523.989	-200.000	-0.012	0.103
-522.975	411.782	-0.155	0.329
-521.960	45.439	-0.231	0.213
-520.945	-200.000	-0.032	0.377
-519.931	-34.849	-0.166	-0.091
-518.916	174.488	0.129	0.187
-517.902	117.672	0.130	0.160
-516.887	-167.701	0.237	0.009
-515.872	-200.000	-0.060	-0.387
-514.858	603.052	-0.122	0.304
-513.843	-109.745	0.141	0.030
-512.829	-82.196	0.113	0.037
-511.814	173.033	0.086	0.125
-510.799	-200.000	-0.075	0.373
-509.785	-117.089	0.529	0.097
-508.770	-82.162	0.181	-0.059
-507.756	586.607	-0.146	-0.361
-506.741	149.486	-0.089	0.121
-505.726	-200.000	-0.006	0.240
-504.712	219.473	0.136	0.217
-503.697	-139.909	0.230	0.024
-502.683	-72.845	0.321	-0.118
-501.668	15.850	0.213	0.167
-500.653	-74.894	-0.268	0.096
-499.639	-68.393	-0.037	-0.014
-498.624	72.402	0.216	0.226
-497.610	188.162	-0.140	0.209
-496.595	-200.000	0.019	-0.325
-495.581	-28.779	0.302	-0.174
-494.566	-148.705	-0.140	-0.011
-493.551	-43.727	0.083	0.042
-492.537	-200.000	-0.010	-0.259
-491.522	-22.398	0.154	0.094
-490.508	800.000	-0.024	0.102
-489.493	-20.946	-0.061	0.037
-488.478	-108.706	-0.213	-0.046
-487.464	-32.288	-0.284	-0.159
-486.449	197.189	-0.129	-0.197
-485.435	750.191	0.072	0.195
-484.420	762.601	-0.072	-0.196
-483.405	40.330	-0.012	0.011
-482.391	800.000	0.046	0.192
-481.376	-98.721	-0.397	-0.101
-480.362	-200.000	-0.006	0.041
-479.347	23.264	-0.226	0.186
-478.332	44.238	-0.076	-0.069
-477.318	326.421	0.196	-0.375
-476.303	-200.000	-0.002	0.103
-475.289	-177.446	0.277	0.007
-474.274	-78.732	-0.106	0.036
-473.259	72.190	0.231	-0.240
-472.245	-200.000	-0.002	-0.142
-471.230	103.901	-0.070	-0.082
-470.216	-154.425	-0.333	-0.022
-469.201	786.364	0.015	0.042
-468.186	-19.409	-0.261	-0.161
-467.172	200.122	-0.385	0.590
-466.157	-75.239	-0.323	0.115
-465.143	637.687	0.148	-0.376
-464.128	33.835	0.407	0.354
-463.113	168.913	0.174	-0.248
-462.099	243.226	0.109	0.183
-461.084	-78.107	-0.497	-0.171
-460.070	-90.232	-0.459	-0.133
-459.055	-80.971	-0.212	-0.070
-458.040	111.043	0.328	0.394
-457.026	-59.926	0.430	-0.184
-456.011	174.373	0.152	0.220
-454.997	240.036	-0.029	0.049
-453.982	-174.093	0.272	0.008
-452.968	800.000	-0.068	0.270
-451.953	-128.626	0.232	-0.033
-450.938	-66.137	-0.182	0.073
-449.924	-200.000	-0.033	0.216
-448.909	26.956	-0.257	-0.215
-447.895	-123.926	-0.455	-0.072
-446.880	800.000	-0.107	-0.358
-445.865	-77.833	-0.362	0.125
-444.851	87.841	0.039	0.043
-443.836	-52.915	0.073	-0.034
-442.822	316.339	-0.044	0.083
-441.807	-122.113	-0.328	-0.054
-440.792	-143.570	0.412	-0.039
-439.778	72.982	0.133	0.139
-438.763	-69.980	-0.202	-0.077
-437.749	-140.282	0.110	-0.011
-436.734	11.204	0.221	0.169
-435.719	-200.000	0.014	-0.426
-434.705	800.000	0.038	-0.156
-433.690	-121.602	0.381	0.063
-432.676	13.346	0.150	-0.116
-431.661	94.021	0.128	0.145
-430.646	-200.000	-0.003	-0.274
-429.632	123.787	0.191	-0.240
-428.617	-100.677	0.201	-0.050
-427.603	8.155	0.355	0.266
-426.588	-200.000	-0.048	0.276
-425.573	86.627	0.135	0.149
-424.559	54.058	0.243	-0.233
-423.544	193.980	-0.231	0.349
-422.530	-85.046	-0.219	-0.068
-421.515	-200.000	0.024	-0.190
-420.500	-4.215	0.128	-0.088
-419.486	-6.697	-0.419	-0.284
-418.471	-9.644	0.198	-0.132
-417.457	163.494	-0.082	0.115
-416.442	800.000	-0.049	-0.209
-415.428	68.786	-0.308	-0.315
-414.413	-97.357	0.269	0.070
-413.398	342.804	0.103	-0.201
-412.384	800.000	-0.039	0.126
-411.369	800.000	-0.039	-0.152
-410.355	485.367	-0.184	0.418
-409.340	-200.000	0.020	-0.114
-408.325	579.117	-0.090	0.219
-407.311	-200.000	0.008	-0.182
-406.296	-36.498	-0.112	0.060
-405.282	95.388	0.185	-0.211
-404.267	2.492	0.067	0.049
-403.252	-119.160	-0.200	-0.035
-402.238	-200.000	0.020	-0.109
-401.223	-95.616	-0.128	0.034
-400.209	208.134	0.077	-0.120
-399.194	42.490	0.246	-0.223
-398.179	-37.007	0.051	0.027
-397.165	800.000	-0.032	-0.113
-396.150	-117.553	-0.217	0.039
-395.136	-199.541	-0.301	-0.002
-394.121	3.808	0.227	-0.165
-393.106	619.733	-0.040	0.101
-392.092	-105.858	-0.082	-0.018
-391.077	176.773	-0.168	0.243
-390.063	-74.274	-0.056	0.020
-389.048	-200.000	0.021	0.325
-388.033	800.000	-0.077	-0.256
-387.019	225.930	0.097	-0.157
-386.004	-169.192	0.435	-0.016
-384.990	-21.871	0.187	-0.113
-383.975	-200.000	-0.187	0.001
-382.960	800.000	-0.036	-0.156
-381.946	-200.000	0.033	0.184
-380.931	-200.000	0.033	-0.366
-379.917	-200.000	-0.082	-0.369
-378.902	800.000	-0.130	-0.518
-377.888	-200.000	0.030	-0.145
-376.873	-92.604	-0.110	-0.031
-375.858	-180.863	-0.273	-0.006
-374.844	114.010	0.053	0.064
-373.829	161.749	-0.068	-0.095
-372.815	-66.434	0.176	0.070
-371.800	-12.693	-0.221	-0.143
-370.785	264.700	0.079	0.136
-369.771	-200.000	-0.000	-0.086
-368.756	-6.547	0.179	-0.121
-367.742	-164.656	-0.141	0.006
-366.727	63.086	0.005	-0.005
-365.712	800.000	-0.046	0.147
-364.698	800.000	-0.076	0.271
-363.683	36.724	-0.111	0.098
-362.669	299.193	-0.144	0.264
-361.654	-104.442	-0.065	0.015
-360.639	-47.435	-0.090	0.044
-359.625	-48.491	0.161	0.077
-358.610	-43.175	-0.153	-0.077
-357.596	210.319	0.166	0.260
-356.581	-151.160	-0.096	-0.007
-355.566	20.846	-0.192	0.155
-354.552	800.000	-0.010	0.039
-353.537	-12.777	0.164	0.107
-352.523	-200.000	-0.049	0.303
-351.508	-107.778	-0.072	0.016
-350.493	20.532	0.173	-0.140
-349.479	89.903	-0.231	-0.256
-348.464	86.730	0.082	-0.090
-347.450	-200.000	0.016	-0.084
-346.435	162.203	0.214	-0.298
-345.420	-200.000	0.016	0.115
-344.406	174.175	-0.085	-0.122
-343.391	-114.431	-0.211	-0.040
-342.377	-200.000	0.025	-0.205
-341.362	-103.014	0.122	-0.029
-340.348	-48.881	-0.255	0.121
-339.333	136.653	-0.097	-0.126
-338.318	54.858	0.097	-0.093
-337.304	25.142	0.178	0.147
-336.289	79.145	0.041	-0.043
-335.275	-200.000	-0.251	0.000
-334.260	408.008	0.142	-0.298
-333.245	-127.445	0.182	0.026
-332.231	650.763	0.192	-0.488
-331.216	-27.164	-0.212	-0.123
-330.202	-52.701	0.370	-0.170
-329.187	-200.000	0.003	-0.054
-328.172	221.935	-0.197	-0.315
-327.158	-200.000	0.005	0.351
-326.143	-70.973	0.170	-0.064
-325.129	-154.849	-0.258	-0.017
-324.114	-81.464	0.234	-0.077
-323.099	91.481	-0.031	-0.034
-322.085	253.165	-0.062	-0.105
-321.070	-16.350	0.147	-0.092
-320.056	-68.911	-0.170	-0.065
-319.041	800.000	0.015	-0.064
-318.026	800.000	-0.043	0.119
-317.012	-200.000	-0.031	-0.213
-315.997	800.000	-0.044	-0.165
-314.983	-85.009	0.287	-0.089
-313.968	-8.266	-0.248	0.166
-312.953	-27.055	-0.246	0.142
-311.939	510.871	-0.101	-0.233
-310.924	55.853	-0.295	-0.284
-309.910	800.000	-0.095	-0.402
-308.895	168.321	-0.087	-0.124
-307.880	27.199	-0.255	-0.213
-306.866	98.991	-0.050	0.058
-305.851	-53.575	-0.292	-0.133
-304.837	143.639	0.137	-0.182
-303.822	-0.855	-0.308	-0.217
-302.807	-80.158	0.189	0.063
-301.793	-71.703	-0.145	-0.054
-300.778	-200.000	-0.036	-0.227
-299.764	4.261	-0.319	-0.232
-298.749	-8.906	-0.050	0.033
-297.735	693.132	0.018	0.047
-296.720	-2.313	-0.071	0.049
-295.705	-141.030	0.418	0.043
-294.691	297.937	-0.196	0.357
-293.676	-200.000	0.010	0.062
-292.662	294.029	-0.058	0.105
-291.647	-200.000	-0.015	0.087
-290.632	-8.442	0.249	0.166
-289.618	-138.972	-0.064	-0.007
-288.603	-200.000	0.005	0.233
-287.589	-42.180	0.055	0.028
-286.574	442.773	0.001	0.003
-285.559	-122.935	0.143	0.023
-284.545	511.147	0.074	0.170
-283.530	800.000	-0.081	-0.311
-282.516	266.945	0.037	-0.064
-281.501	305.896	0.057	-0.106
-280.486	656.247	0.196	0.500
-279.472	-82.369	-0.406	0.131
-278.457	-200.000	-0.019	-0.096
-277.443	800.000	-0.046	-0.142
-276.428	308.552	-0.167	0.309
-275.413	-200.000	-0.029	-0.342
-274.399	-46.538	0.393	-0.191
-273.384	-200.000	0.063	0.501
-272.370	97.154	0.340	0.387
-271.355	-68.222	0.088	-0.034
-270.340	43.173	-0.147	-0.133
-269.326	436.419	-0.085	-0.184
-268.311	92.369	-0.102	-0.114
-267.297	-200.000	0.011	-0.379
-266.282	-62.803	-0.175	0.072
-265.267	-93.006	0.163	0.045
-264.253	-200.000	0.013	0.281
-263.238	-160.077	0.243	-0.013
-262.224	343.766	-0.085	0.165
-261.209	-16.363	-0.362	-0.228
-260.195	28.904	-0.246	0.206
-259.180	12.809	-0.045	-0.034
-258.165	106.545	0.168	-0.197
-257.151	53.197	-0.138	0.131
-256.136	211.778	-0.233	0.364
-255.122	612.448	-0.141	0.350
-254.107	-32.367	-0.315	0.174
-253.092	-19.804	-0.263	-0.161
-252.078	800.000	-0.111	0.357
-251.063	-123.809	-0.020	0.003
-250.049	-200.000	-0.002	-0.082
-249.034	-200.000	-0.031	0.178
-248.019	-55.675	-0.113	0.050
-247.005	-200.000	0.026	0.170
-245.990	228.951	-0.113	-0.183
-244.976	-161.012	-0.287	0.015
-243.961	350.729	-0.034	0.066
-242.946	-200.000	0.041	0.213
-241.932	209.856	0.113	0.176
-240.917	168.893	0.130	0.184
-239.903	-144.250	0.425	0.039
-238.888	417.719	-0.075	0.158
-237.873	147.875	0.086	-0.115
-236.859	357.094	0.142	0.280
-235.844	-101.714	-0.303	0.073
-234.830	-145.075	0.197	-0.018
-233.815	800.000	0.099	-0.301
-232.800	800.000	-0.076	-0.249
-231.786	800.000	0.078	0.252
-230.771	648.872	0.104	-0.264
-229.757	-200.000	-0.012	-0.263
-228.742	-185.459	-0.123	0.002
-227.727	220.387	0.104	0.165
-226.713	-200.000	-0.044	0.281
-225.698	-200.000	0.006	0.082
-224.684	-200.000	0.061	0.301
-223.669	-175.924	-0.142	-0.004
-222.655	119.629	-0.111	-0.136
-221.640	-136.314	0.193	0.022
-220.625	120.349	0.083	0.103
-219.611	-80.301	-0.112	0.037
-218.596	-62.847	0.187	0.077
-217.582	69.107	0.041	0.041
-216.567	-6.121	0.206	0.140
-215.552	-105.140	0.110	0.025
-214.538	-143.140	0.122	-0.012
-213.523	318.528	-0.177	0.331
-212.509	-153.125	0.422	-0.029
-211.494	-200.000	0.054	-0.300
-210.479	49.424	0.114	-0.107
-209.465	-166.068	-0.144	0.006
-208.450	-126.020	0.065	0.010
-207.436	-194.422	0.246	-0.002
-206.421	-54.489	-0.213	-0.095
-205.406	-200.000	-0.011	-0.310
-204.392	-200.000	-0.048	-0.238
-203.377	74.432	0.205	-0.213
-202.363	89.455	0.088	0.097
-201.348	-77.011	0.118	0.041
-200.333	38.648	-0.171	0.151
-199.319	308.829	-0.059	-0.109
-198.304	106.426	0.107	-0.126
-197.290	-200.000	0.001	0.263
-196.275	-156.644	-0.408	-0.025
-195.260	-98.129	0.263	0.067
-194.246	111.793	0.187	0.224
-193.231	82.742	0.201	-0.216
-192.217	-113.658	0.204	0.039
-191.202	-73.811	-0.389	0.140
-190.187	252.222	0.197	-0.331
-189.173	59.702	0.062	0.061
-188.158	709.094	0.069	-0.180
-187.144	793.246	0.097	-0.263
-186.129	28.179	-0.145	0.121
-185.114	271.424	-0.103	0.179
-184.100	354.476	-0.056	0.110
-183.085	531.068	0.068	0.158
-182.071	288.668	-0.175	0.314
-181.056	-200.000	-0.013	0.165
-180.042	800.000	-0.026	0.082
-179.027	-200.000	-0.008	0.071
-178.012	-200.000	0.026	0.193
-176.998	502.103	-0.198	-0.452
-175.983	-102.718	0.337	0.079
-174.969	313.746	-0.091	0.169
-173.954	-123.790	0.327	-0.051
-172.939	193.441	-0.095	-0.143
-171.925	262.994	0.148	0.254
-170.910	150.053	0.205	-0.275
-169.896	167.643	-0.181	0.255
-168.881	684.257	-0.162	0.418
-167.866	-200.000	-0.025	-0.147
-166.852	-27.491	-0.173	0.099
-165.837	-96.163	0.240	-0.063
-164.823	477.459	-0.080	-0.180
-163.808	-3.012	-0.086	-0.059
-162.793	-81.156	-0.269	0.088
-161.779	800.000	0.055	-0.175
-160.764	-96.486	0.292	-0.076
-159.750	369.137	-0.041	-0.082
-158.735	42.681	0.127	-0.114
-157.720	-89.293	-0.328	0.095
-156.706	-200.000	-0.037	-0.232
-155.691	24.838	0.240	0.197
-154.677	-141.956	0.065	0.006
-153.662	50.126	-0.164	0.153
-152.647	-10.969	-0.182	0.118
-151.633	-200.000	0.007	-0.056
-150.618	528.680	0.157	-0.367
-149.604	-200.000	0.007	0.038
-148.589	800.000	-0.077	-0.292
-147.574	-46.764	0.157	0.076
-146.560	-200.000	-0.039	-0.193
-145.545	-10.136	-0.127	0.083
-144.531	800.000	-0.086	-0.250
-143.516	-49.795	-0.120	0.056
-142.502	654.057	-0.135	0.341
-141.487	800.000	-0.105	-0.315
-140.472	-35.727	0.262	-0.140
-139.458	4.162	0.411	0.297
-138.443	-200.000	-0.032	-0.150
-137.429	-200.000	-0.020	-0.100
-136.414	-96.142	0.334	-0.088
-135.399	166.149	-0.026	0.037
-134.385	16.533	0.163	0.127
-133.370	0.576	-0.072	-0.051
-132.356	81.046	-0.205	0.219
-131.341	20.163	0.234	0.187
-130.326	-21.972	0.222	0.133
-129.312	-95.284	0.398	0.106
-128.297	44.929	0.128	-0.116
-127.283	-165.316	0.402	-0.017
-126.268	-155.490	-0.240	0.015
-125.253	255.018	0.112	0.189
-124.239	-121.701	0.092	0.015
-123.224	692.105	-0.111	-0.288
-122.210	-66.065	0.466	0.183
-121.195	126.715	-0.157	0.196
-120.180	482.517	0.141	0.316
-119.166	-180.508	-0.135	0.003
-118.151	608.294	-0.048	-0.118
-117.137	-31.926	0.289	-0.159
-116.122	-70.905	0.201	-0.075
-115.107	729.086	-0.141	0.372
-114.093	800.000	-0.036	0.143
-113.078	187.165	-0.127	-0.186
-112.064	533.408	0.073	0.170
-111.049	77.225	0.216	-0.226
-110.034	-37.961	0.299	0.157
-109.020	-11.103	-0.271	-0.176
-108.005	800.000	0.039	0.138
-106.991	-200.000	-0.007	0.339
-105.976	-200.000	-0.008	0.099
-104.962	-144.125	0.274	-0.025
-103.947	-200.000	0.023	-0.268
-102.932	3.150	0.261	-0.187
-101.918	-76.304	-0.182	0.063
-100.903	-200.000	0.019	0.327
-99.889	50.149	0.290	0.270
-98.874	29.549	0.294	0.246
-97.859	-22.460	0.190	0.113
-96.845	296.357	0.045	0.081
-95.830	-118.314	-0.363	0.064
-94.816	-200.000	0.007	-0.068
-93.801	31.329	-0.073	0.062
-92.786	-71.950	-0.055	-0.020
-91.772	-17.986	-0.138	0.085
-90.757	-200.000	-0.029	0.466
-89.743	-63.383	0.066	-0.027
-88.728	-49.828	-0.257	-0.120
-87.713	-7.521	0.307	-0.204
-86.699	783.284	-0.073	0.197
-85.684	800.000	-0.037	-0.149
-84.670	515.973	-0.129	0.296
-83.655	-5.484	0.040	0.027
-82.640	-38.096	0.189	-0.099
-81.626	800.000	0.072	-0.225
-80.611	133.017	0.150	0.191
-79.597	-200.000	0.045	-0.216
-78.582	-108.785	0.246	0.052
-77.567	800.000	0.045	-0.190
-76.553	11.592	0.447	0.338
-75.538	-200.000	0.002	0.432
-74.524	10.606	0.264	0.198
-73.509	-51.014	-0.285	0.132
-72.494	-52.928	-0.260	-0.118
-71.480	-42.636	-0.414	0.207
-70.465	-200.000	0.009	0.074
-69.451	-200.000	-0.011	0.093
-68.436	8.356	-0.324	-0.240
-67.422	-131.827	-0.054	0.007
-66.407	-179.006	0.211	-0.005
-65.392	-200.000	-0.044	-0.224
-64.378	-126.344	-0.140	-0.021
-63.363	-108.080	0.239	-0.051
-62.349	-111.974	-0.273	0.054
-61.334	-62.912	-0.927	-0.377
-60.319	34.693	0.675	0.581
-59.305	-200.000	-0.136	-1.223
-58.290	414.968	0.477	1.001
-57.276	800.000	0.577	1.746
-56.261	-200.000	95.574	596.346
-55.246	574.105	1363.095	3270.773
-54.232	162.936	2538.972	3507.044
-53.217	114.034	2135.321	2554.544
-52.203	44.109	1600.131	1443.158
-51.188	35.477	1339.072	1155.968
-50.173	32.517	1297.056	1102.354
-49.159	54.585	1344.417	1274.537
-48.144	57.012	1360.658	1304.321
-47.130	35.664	1320.108	1140.524
-46.115	32.351	1302.591	1105.906
-45.100	32.216	1296.914	1100.250
-44.086	31.978	1295.110	1097.286
-43.071	32.034	1292.689	1095.517
-42.057	31.959	1290.368	1093.072
-41.042	32.053	1288.894	1092.324
-40.027	32.064	1287.475	1091.143
-39.013	32.008	1285.458	1089.069
-37.998	32.064	1283.552	1087.734
-36.984	32.130	1281.839	1086.621
-35.969	32.054	1280.144	1084.701
-34.954	32.180	1278.743	1084.197
-33.940	32.156	1277.349	1082.834
-32.925	32.233	1275.866	1081.979
-31.911	32.258	1273.796	1080.322
-30.896	32.113	1272.953	1078.732
-29.881	32.188	1271.340	1077.755
-28.867	32.229	1270.102	1076.898
-27.852	32.360	1268.252	1076.037
-26.838	32.279	1267.353	1074.766
-25.823	32.279	1265.785	1073.392
-24.809	32.260	1264.494	1072.146
-23.794	32.275	1263.263	1071.149
-22.779	32.189	1262.174	1069.689
-21.765	32.240	1261.092	1069.021
-20.750	32.215	1259.350	1067.363
-19.736	32.154	1258.127	1065.935
-18.721	32.166	1256.721	1064.770
-17.706	32.115	1255.867	1063.716
-16.692	32.132	1254.371	1062.502
-15.677	32.088	1253.880	1061.794
-14.663	32.049	1252.516	1060.376
-13.648	32.044	1251.242	1059.228
-12.633	32.076	1250.598	1058.822
-11.619	32.104	1249.917	1058.363
-10.604	32.164	1248.726	1057.649
-9.590	32.108	1247.494	1056.249
-8.575	32.029	1246.957	1055.309
-7.560	32.015	1245.958	1054.340
-6.546	32.045	1244.926	1053.594
-5.531	32.019	1244.373	1052.939
-4.517	32.081	1243.318	1052.355
-3.502	32.061	1242.369	1051.396
-2.487	32.088	1241.512	1050.777
-1.473	31.958	1237.639	1046.737
-0.458	30.604	1222.209	1026.177
0.556	27.825	1205.246	990.302
1.571	24.315	1211.416	976.111
2.586	23.463	1226.745	983.648
3.600	22.891	1215.789	971.634
4.615	16.963	1143.098	882.704
5.629	6.941	1066.575	774.646
6.644	2.468	1045.960	738.078
7.659	2.127	1043.468	734.617
8.673	2.044	1042.271	733.306
9.688	1.922	1041.019	731.779
10.702	2.539	1039.557	733.641
11.717	9.130	1049.411	772.316
12.731	19.150	1063.366	831.120
13.746	24.255	1069.743	860.752
14.761	25.232	1070.898	866.323
15.775	25.363	1070.361	866.445
16.790	25.198	1069.560	864.924
17.804	25.173	1068.603	863.955
18.819	25.262	1068.676	864.366
19.834	25.359	1068.039	864.242
20.848	25.359	1067.411	863.653
21.863	25.535	1067.045	864.130
22.877	25.194	1066.739	862.166
23.892	25.347	1065.661	861.955
24.907	25.302	1065.238	861.319
25.921	25.315	1064.161	860.434
26.936	25.260	1062.904	859.077
27.950	25.200	1061.297	857.415
28.965	25.164	1059.410	855.643
29.980	25.202	1057.767	854.424
30.994	25.403	1056.901	854.605
32.009	25.452	1055.623	853.730
33.023	25.112	1054.745	851.328
34.038	25.268	1053.965	851.361
35.053	25.406	1053.470	851.542
36.067	25.333	1052.649	850.459
37.082	25.488	1051.709	850.358
38.096	25.560	1051.412	850.382
39.111	25.686	1050.470	850.140
40.126	25.499	1048.800	847.831
41.140	25.101	1047.010	844.434
42.155	24.824	1046.232	842.428
43.169	25.010	1045.289	842.469
44.184	25.047	1044.148	841.650
45.199	24.858	1043.381	840.067
46.213	24.916	1042.480	839.539
47.228	25.156	1041.397	839.718
48.242	25.175	1040.936	839.362
49.257	25.349	1040.118	839.443
50.271	25.406	1039.133	838.837
51.286	25.431	1038.429	838.313
52.301	25.353	1037.675	837.265
53.315	25.312	1036.981	836.441
54.330	25.279	1035.534	835.048
55.344	25.325	1035.140	834.870
56.359	25.176	1034.471	833.561
57.374	25.179	1033.105	832.402
58.388	25.161	1032.428	831.701
59.403	25.057	1031.413	830.328
60.417	24.979	1030.625	829.255
61.432	24.998	1030.347	829.050
62.447	25.129	1029.618	828.995
63.461	25.217	1028.755	828.632
64.476	25.276	1027.146	827.535
65.490	25.122	1026.483	826.218
66.505	25.136	1026.264	826.034
67.520	25.163	1025.506	825.476
68.534	25.032	1023.914	823.520
69.549	24.516	1023.683	820.889
70.563	24.690	1022.852	820.946
71.578	24.664	1021.803	819.914
72.593	24.500	1021.194	818.601
73.607	24.559	1020.565	818.295
74.622	24.944	1019.883	819.440
75.636	24.912	1020.173	819.452
76.651	24.736	1018.599	817.310
77.666	24.665	1018.229	816.616
78.680	24.731	1017.622	816.362
79.695	24.868	1016.638	816.121
80.709	24.968	1016.065	816.047
81.724	24.985	1015.194	815.349
82.739	25.040	1014.858	815.260
83.753	25.294	1014.413	815.985
84.768	25.675	1013.314	816.759
85.782	25.656	1013.080	816.411
86.797	25.511	1011.782	814.635
87.812	25.385	1010.723	813.139
88.826	25.539	1009.792	813.017
89.841	25.767	1008.575	812.996
90.855	25.606	1008.065	811.783
91.870	25.605	1007.359	811.139
92.884	25.425	1005.923	809.102
93.899	25.530	1004.501	808.357
94.914	25.596	1004.272	808.401
95.928	25.492	1002.757	806.641
96.943	25.251	1001.878	804.780
97.957	24.991	1000.998	802.841
98.972	24.897	999.803	801.387
99.987	25.097	999.096	801.646
101.001	25.342	998.254	801.993
102.016	25.402	997.626	801.684
103.030	25.236	996.824	800.230
104.045	25.045	995.964	798.619
105.060	24.993	995.037	797.573
106.074	25.012	994.338	797.024
107.089	25.406	993.499	798.033
108.103	25.286	992.603	796.713
109.118	25.024	991.139	794.303
110.133	25.060	990.226	793.663
111.147	24.984	988.926	792.215
112.162	24.718	988.131	790.331
113.176	25.025	987.662	791.244
114.191	24.996	986.810	790.361
115.206	24.653	985.736	787.920
116.220	24.506	985.124	786.712
117.235	24.677	984.203	786.662
118.249	24.741	983.247	786.110
119.264	24.679	982.988	785.559
120.279	24.752	981.682	784.766
121.293	24.810	981.163	784.536
122.308	24.818	980.210	783.742
123.322	24.771	978.937	782.447
124.337	24.605	977.944	780.861
125.352	24.026	975.888	776.622
126.366	24.061	975.169	776.135
127.381	24.737	975.440	779.228
128.395	25.258	974.556	780.718
129.410	25.151	974.334	780.007
130.424	25.341	972.667	779.429
131.439	25.210	972.220	778.433
132.454	25.051	971.435	777.047
133.468	25.104	970.146	776.176
134.483	25.400	969.589	776.943
135.497	25.579	968.711	776.943
136.512	25.629	967.757	776.325
137.527	25.426	967.081	774.840
138.541	25.514	966.488	774.673
139.556	25.450	965.738	773.730
140.570	25.612	964.808	773.614
141.585	25.653	963.856	772.955
142.600	25.496	962.858	771.413
143.614	25.792	962.331	772.195
144.629	25.726	961.704	771.339
145.643	25.770	959.983	770.080
146.658	25.511	958.751	767.915
147.673	25.428	957.852	766.774
148.687	25.348	957.085	765.753
149.702	25.209	955.807	764.069
150.716	25.343	954.769	763.741
151.731	25.383	954.241	763.420
152.746	25.596	953.851	763.947
153.760	25.895	952.938	764.416
154.775	25.697	952.902	763.482
155.789	25.592	951.802	762.085
156.804	25.651	950.769	761.440
157.819	25.739	949.952	761.093
158.833	25.898	949.428	761.277
159.848	25.797	948.736	760.227
160.862	25.736	946.751	758.311
161.877	25.723	945.924	757.528
162.892	25.650	945.539	756.847
163.906	25.746	944.209	756.117
164.921	25.781	943.083	755.298
165.935	25.921	942.073	755.008
166.950	25.799	941.838	754.241
167.964	25.612	940.995	752.718
168.979	25.550	939.651	751.315
169.994	25.501	938.743	750.319
171.008	25.759	938.360	751.024
172.023	25.725	937.551	750.166
173.037	25.453	936.856	748.411
174.052	25.454	935.404	747.190
175.067	25.481	934.764	746.727
176.081	25.500	934.694	746.680
177.096	25.494	933.875	745.935
178.110	25.211	932.767	743.812
179.125	25.031	931.890	742.303
180.140	24.996	932.242	742.370
181.154	25.152	931.644	742.477
182.169	25.476	931.640	743.746
183.183	25.841	931.260	744.888
184.198	25.623	930.176	743.055
185.213	25.621	929.544	742.475
186.227	25.624	929.142	742.101
187.242	25.736	928.158	741.711
188.256	25.858	927.184	741.369
189.271	25.958	926.437	741.117
190.286	25.415	925.625	738.173
191.300	24.860	924.220	734.709
192.315	24.122	922.056	729.900
193.329	23.860	922.321	728.969
194.344	24.954	922.887	733.839
195.359	25.569	922.562	736.035
196.373	25.518	922.300	735.549
197.388	25.425	921.773	734.684
198.402	25.592	920.554	734.331
199.417	25.603	920.160	733.997
200.432	25.287	919.066	731.772
201.446	25.102	918.728	730.683
202.461	25.141	917.680	729.943
203.475	24.399	915.938	725.476
204.490	23.599	914.876	721.320
205.504	24.560	915.126	725.361
206.519	25.208	914.906	727.749
207.534	25.365	914.348	727.880
208.548	25.843	913.863	729.363
209.563	25.341	913.372	726.878
210.577	25.397	912.945	726.699
211.592	25.790	912.831	728.135
212.607	25.778	911.713	727.130
213.621	25.971	910.763	727.084
214.636	25.783	910.428	725.995
215.650	25.833	909.390	725.304
216.665	25.797	909.120	724.880
217.680	25.750	908.570	724.189
218.694	25.296	907.385	721.354
219.709	25.172	906.756	720.296
220.723	25.378	906.561	720.900
221.738	25.546	905.631	720.774
222.753	25.694	905.168	720.934
223.767	25.578	905.234	720.456
224.782	25.848	904.626	720.989
225.796	25.663	904.373	719.984
226.811	25.113	902.400	716.155
227.826	24.672	900.769	713.037
228.840	24.738	900.852	713.304
229.855	24.836	899.881	712.860
230.869	24.472	898.710	710.421
231.884	24.929	898.665	712.143
232.899	25.706	898.587	715.106
233.913	25.571	898.185	714.185
234.928	25.458	897.328	712.992
235.942	25.292	896.952	711.973
236.957	25.189	895.671	710.486
237.972	25.103	895.765	710.154
238.986	25.214	895.315	710.175
240.001	25.295	894.547	709.824
241.015	25.483	893.814	709.923
242.030	25.608	893.495	710.101
243.045	25.488	893.065	709.221
244.059	25.739	892.827	709.959
245.074	25.494	891.768	708.090
246.088	25.175	890.770	705.981
247.103	25.560	890.544	707.254
248.117	26.064	890.640	709.247
249.132	26.210	890.090	709.322
250.147	26.348	889.804	709.573
251.161	26.601	888.802	709.704
252.176	26.459	888.578	708.905
253.190	26.639	887.906	709.011
254.205	26.614	887.617	708.619
255.220	26.432	887.355	707.634
256.234	26.513	886.281	707.033
257.249	26.575	885.387	706.500
258.263	26.319	885.017	705.143
259.278	26.576	884.338	705.540
260.293	26.476	883.705	704.584
261.307	26.441	882.910	703.751
262.322	26.297	882.064	702.455
263.336	25.537	880.233	697.986
264.351	24.632	878.367	692.936
265.366	24.589	878.315	692.668
266.380	25.696	879.001	697.439
267.395	26.129	878.689	698.806
268.409	25.971	878.091	697.657
269.424	26.238	877.581	698.225
270.439	26.286	876.921	697.821
271.453	26.500	876.207	698.018
272.468	26.512	876.203	697.998
273.482	26.509	875.768	697.578
274.497	26.154	874.319	694.997
275.512	25.768	873.446	692.755
276.526	26.241	873.420	694.493
277.541	26.283	872.955	694.225
278.555	26.055	872.519	692.941
279.570	26.036	871.497	691.995
280.585	26.230	871.056	692.328
281.599	26.193	869.977	691.265
282.614	25.515	868.941	687.789
283.628	25.427	868.737	687.231
284.643	25.793	868.439	688.334
285.657	25.376	867.152	685.659
286.672	25.264	866.235	684.448
287.687	25.869	866.414	686.836
288.701	25.843	865.902	686.268
289.716	25.528	864.698	684.055
290.730	25.491	863.963	683.273
291.745	25.135	863.553	681.534
292.760	25.611	863.179	682.987
293.774	26.627	863.817	687.290
294.789	26.833	863.418	687.695
295.803	26.912	862.816	687.451
296.818	26.941	861.705	686.614
297.833	26.342	860.720	683.507
298.847	26.382	860.030	683.051
299.862	26.639	860.186	684.083
300.876	26.855	859.956	684.656
301.891	26.641	859.185	683.173
302.906	26.259	857.911	680.660
303.920	26.436	857.719	681.116
304.935	26.987	857.487	682.944
305.949	26.870	856.368	681.552
306.964	26.710	855.647	680.319
307.979	26.495	855.536	679.363
308.993	27.019	855.597	681.317
310.008	27.013	854.796	680.596
311.022	26.571	854.091	678.320
312.037	26.610	853.522	677.955
313.052	26.245	852.492	675.711
314.066	25.346	851.014	671.121
315.081	25.075	850.318	669.501
316.095	25.929	851.023	673.186
317.110	26.261	850.839	674.221
318.125	25.559	849.023	670.108
319.139	24.519	847.594	665.051
320.154	24.584	847.192	664.917
321.168	25.482	848.096	668.911
322.183	26.202	847.631	671.164
323.197	26.171	847.776	671.102
324.212	26.544	846.930	671.759
325.227	26.547	846.698	671.525
326.241	26.505	845.931	670.701
327.256	26.383	845.382	669.756
328.270	26.221	844.275	668.219
329.285	26.096	843.522	667.103
330.300	25.765	842.925	665.348
331.314	26.284	842.649	666.989
332.329	26.633	842.483	668.085
333.343	26.649	842.228	667.883
334.358	26.642	841.776	667.442
335.373	26.736	841.506	667.514
336.387	27.162	840.989	668.613
337.402	27.133	841.242	668.648
338.416	27.059	841.175	668.264
339.431	27.193	840.390	668.073
340.446	27.401	840.109	668.553
341.460	27.087	839.663	666.989
342.475	27.001	839.176	666.227
343.489	27.161	838.649	666.336
344.504	27.305	838.672	666.823
345.519	27.330	838.742	666.912
346.533	27.448	837.918	666.628
347.548	27.443	837.291	666.051
348.562	27.582	836.546	665.907
349.577	27.402	835.590	664.431
350.592	27.429	834.845	663.880
351.606	27.377	834.628	663.458
352.621	27.112	833.928	661.878
353.635	27.174	832.989	661.301
354.650	26.547	831.221	657.559
355.665	25.691	829.727	653.215
356.679	26.238	829.739	655.152
357.694	26.582	829.431	656.098
358.708	26.514	828.944	655.408
359.723	26.745	829.111	656.320
360.738	26.999	828.650	656.814
361.752	27.195	828.144	657.064
362.767	27.634	827.695	658.235
363.781	27.845	827.230	658.569
364.796	27.831	827.087	658.347
365.810	27.941	826.689	658.365
366.825	27.882	826.185	657.694
367.840	27.528	825.626	655.916
368.854	27.135	824.578	653.614
369.869	27.310	823.859	653.615
370.883	27.277	823.654	653.276
371.898	26.996	823.962	652.452
372.913	27.248	823.150	652.654
373.927	27.379	822.495	652.549
374.942	27.626	821.794	652.819
375.956	27.581	821.619	652.462
376.971	27.752	821.322	652.777
377.986	27.953	820.920	653.121
379.000	27.654	820.536	651.691
380.015	27.614	819.879	650.969
381.029	27.745	819.299	650.916
382.044	28.002	818.526	651.162
383.059	27.957	818.233	650.711
384.073	27.982	817.357	650.043
385.088	27.829	817.083	649.226
386.102	27.516	816.401	647.514
387.117	27.576	815.620	647.050
388.132	27.119	814.588	644.553
389.146	26.792	813.391	642.388
390.161	27.067	813.639	643.502
391.175	27.707	813.394	645.518
392.190	27.283	812.418	643.187
393.205	25.808	810.374	636.308
394.219	24.313	808.395	629.423
395.234	24.253	808.396	629.157
396.248	25.958	810.099	636.452
397.263	27.368	810.831	641.948
398.278	27.283	810.424	641.268
399.292	27.096	809.699	639.981
400.307	27.013	808.975	639.057
401.321	27.160	808.780	639.365
402.336	27.584	808.771	640.792
403.350	28.016	808.787	642.264
404.365	28.412	808.247	643.172
405.380	28.451	808.428	643.395
406.394	28.666	807.333	643.219
407.409	28.548	807.060	642.533
408.423	28.385	806.902	641.780
409.438	28.564	806.492	642.023
410.453	28.575	806.072	641.671
411.467	28.538	805.066	640.683
412.482	28.542	804.935	640.537
413.496	28.581	804.662	640.398
414.511	28.635	804.161	640.130
415.526	28.473	803.929	639.325
416.540	28.451	803.092	638.527
417.555	28.126	802.284	636.695
418.569	28.136	802.368	636.741
419.584	28.211	801.516	636.269
420.599	28.095	800.908	635.327
421.613	111.722	1286.017	1459.032
422.628	96.438	1356.684	1459.160
