DTS Sentinel unit serial number:	SN413079Multiplexer serial number:	ORYXHardware model number:	OX4-SRSoftware version number:	ORYX F/W v4.00 Oryx Data Collector v3.7.2.0data status	okinstallation	princeton_trtdifferential loss correction	single-endedforward channel	channel 1reverse channel	N/Adate	2019/09/10time	17:16:11forward acquisition time	60.00reverse acquisition time	0.00gamma	496.2192k internal	0.2299k external	0.2299temperature offset calibration	0.9925default loss term (dB/km)	0.3790temperature slope calibration	1.0000multiplexer offset coefficient	1.0000multiplexer slope coefficient	1.0000fibre end	0.00T internal ref (°C)	37.62T ext. ref 1 (°C)	-0.34T ext. ref 2 (°C)	32.15length (m)	temperature (°C)	Stokes	anti-Stokes-747.200	800.000	0.031	-0.130
-746.185	-98.470	0.180	0.047
-745.171	27.256	0.172	-0.148
-744.156	234.714	0.070	0.118
-743.142	-127.724	0.124	0.018
-742.127	-121.990	-0.058	0.010
-741.112	200.338	0.108	0.170
-740.098	-200.000	-0.007	0.336
-739.083	-200.000	0.051	0.298
-738.069	15.812	0.172	0.138
-737.054	151.052	0.111	-0.154
-736.039	800.000	-0.064	-0.195
-735.025	4.876	0.258	0.193
-734.010	277.574	-0.234	0.425
-732.996	800.000	0.050	-0.224
-731.981	-123.484	-0.381	0.062
-730.966	-137.891	0.302	0.034
-729.952	-118.804	-0.145	0.026
-728.937	800.000	0.124	-0.452
-727.923	20.507	-0.145	-0.119
-726.908	-106.426	0.077	-0.018
-725.894	-135.638	-0.366	0.044
-724.879	-55.316	-0.497	-0.227
-723.864	209.897	0.151	-0.242
-722.850	-200.000	-0.033	-0.235
-721.835	521.648	0.063	-0.151
-720.821	87.824	0.251	-0.283
-719.806	-95.660	0.663	-0.181
-718.791	228.988	-0.088	0.147
-717.777	-200.000	0.024	-0.118
-716.762	204.455	-0.193	-0.305
-715.748	-200.000	-0.019	-0.130
-714.733	377.826	0.120	-0.249
-713.718	6.214	-0.228	0.172
-712.704	-111.544	0.453	-0.094
-711.689	20.508	-0.273	-0.225
-710.675	187.487	0.245	-0.372
-709.660	198.752	-0.226	0.353
-708.645	180.662	0.048	0.072
-707.631	-167.602	0.269	-0.011
-706.616	-94.176	-0.214	0.060
-705.602	5.648	0.160	-0.120
-704.587	8.780	0.259	-0.199
-703.572	800.000	-0.040	0.129
-702.558	313.956	-0.040	0.077
-701.543	-32.463	0.232	-0.131
-700.529	-130.283	0.107	0.015
-699.514	126.592	-0.080	-0.103
-698.499	-99.209	-0.055	-0.014
-697.485	800.000	-0.027	0.112
-696.470	-79.607	0.608	-0.209
-695.456	12.950	-0.260	0.205
-694.441	-24.390	0.180	0.109
-693.426	-127.982	0.075	-0.011
-692.412	-200.000	0.012	-0.112
-691.397	-44.718	0.079	-0.040
-690.383	-88.552	0.153	-0.046
-689.368	-148.726	0.226	0.019
-688.354	74.973	-0.236	-0.254
-687.339	-200.000	0.051	0.272
-686.324	368.489	-0.140	-0.288
-685.310	40.598	-0.107	0.098
-684.295	-200.000	-0.007	0.231
-683.281	-200.000	-0.007	0.056
-682.266	33.627	-0.185	-0.164
-681.251	-162.866	0.241	0.012
-680.237	-166.134	-0.199	-0.009
-679.222	24.437	0.348	-0.292
-678.208	-200.000	-0.033	-0.305
-677.193	50.371	-0.139	-0.134
-676.178	-200.000	-0.030	-0.312
-675.164	168.138	0.127	-0.183
-674.149	8.029	0.191	-0.146
-673.135	-200.000	-0.022	-0.174
-672.120	-100.357	-0.243	0.061
-671.105	-89.874	0.379	0.113
-670.091	-200.000	0.055	-0.352
-669.076	-33.721	-0.131	0.074
-668.062	81.898	-0.150	0.165
-667.047	108.041	-0.159	-0.193
-666.032	73.872	-0.110	-0.117
-665.018	-200.000	0.014	-0.186
-664.003	313.345	0.125	-0.238
-662.989	-200.000	0.034	-0.197
-661.974	-62.965	0.276	0.116
-660.959	-24.101	0.047	-0.028
-659.945	-200.000	0.028	-0.235
-658.930	382.125	-0.079	0.164
-657.916	-200.000	0.005	0.318
-656.901	-131.640	-0.117	0.016
-655.886	305.399	0.155	0.293
-654.872	46.090	0.072	0.068
-653.857	83.867	-0.161	0.178
-652.843	101.662	-0.137	-0.163
-651.828	389.777	-0.143	0.302
-650.814	-74.640	-0.211	-0.077
-649.799	115.874	0.166	0.206
-648.784	16.976	-0.255	-0.205
-647.770	-36.872	0.121	-0.066
-646.755	27.888	-0.240	0.206
-645.741	364.047	0.063	0.130
-644.726	-15.612	0.123	0.080
-643.711	53.979	-0.156	0.153
-642.697	-90.599	-0.121	-0.036
-641.682	106.936	0.043	0.052
-640.668	800.000	0.075	-0.303
-639.653	-34.672	-0.429	-0.238
-638.638	-75.295	-0.096	0.035
-637.624	-200.000	-0.002	-0.049
-636.609	0.455	-0.091	0.066
-635.595	42.074	0.154	0.142
-634.580	48.979	0.024	0.023
-633.565	233.229	-0.127	-0.212
-632.551	144.938	0.066	-0.089
-631.536	-200.000	-0.020	-0.241
-630.522	800.000	0.063	-0.221
-629.507	-26.478	0.302	-0.180
-628.492	-36.291	-0.061	0.033
-627.478	-77.374	0.179	0.063
-626.463	-18.057	0.172	0.110
-625.449	-67.544	-0.192	0.077
-624.434	-55.982	-0.213	0.096
-623.419	-124.459	-0.158	-0.025
-622.405	-127.623	0.181	-0.027
-621.390	209.709	0.031	-0.050
-620.376	-66.028	-0.216	0.088
-619.361	-18.272	-0.014	0.009
-618.346	800.000	-0.068	-0.226
-617.332	800.000	-0.082	-0.253
-616.317	-65.559	0.199	0.081
-615.303	-170.510	-0.190	0.007
-614.288	20.036	-0.150	0.123
-613.273	263.812	0.147	-0.259
-612.259	-200.000	-0.047	-0.275
-611.244	-200.000	0.070	-0.000
-610.230	-122.221	-0.222	0.037
-609.215	-83.015	-0.070	0.023
-608.201	-81.641	0.121	0.040
-607.186	96.903	-0.174	0.203
-606.171	348.656	-0.095	-0.191
-605.157	96.081	-0.016	0.018
-604.142	800.000	0.073	0.275
-603.128	710.900	0.027	-0.072
-602.113	-53.208	-0.210	0.098
-601.098	104.168	-0.205	-0.245
-600.084	21.995	0.074	0.061
-599.069	53.975	0.328	0.320
-598.055	567.018	-0.029	-0.071
-597.040	99.108	-0.097	-0.114
-596.025	1.597	-0.263	0.192
-595.011	-200.000	0.022	0.247
-593.996	-43.395	-0.112	0.057
-592.982	209.489	0.096	-0.152
-591.967	-200.000	0.003	-0.140
-590.952	800.000	0.085	-0.329
-589.938	800.000	0.035	-0.144
-588.923	-200.000	0.011	0.534
-587.909	-15.671	0.342	0.221
-586.894	47.202	-0.181	0.171
-585.879	-122.419	-0.191	0.032
-584.865	-8.237	-0.377	0.258
-583.850	800.000	-0.060	0.179
-582.836	-16.649	0.224	0.144
-581.821	-112.296	-0.242	-0.049
-580.806	173.482	0.280	-0.410
-579.792	52.958	0.216	-0.209
-578.777	118.331	0.159	0.198
-577.763	-27.738	-0.374	-0.220
-576.748	800.000	-0.049	-0.218
-575.733	-55.159	-0.199	-0.091
-574.719	-72.770	0.307	-0.115
-573.704	-200.000	-0.016	-0.239
-572.690	-45.763	-0.276	-0.138
-571.675	148.911	0.143	0.195
-570.661	-37.628	0.258	-0.139
-569.646	-52.748	-0.053	-0.025
-568.631	70.872	-0.088	-0.093
-567.617	29.816	0.139	0.120
-566.602	31.340	0.098	0.085
-565.588	800.000	0.015	-0.064
-564.573	-55.471	-0.087	-0.040
-563.558	160.436	0.231	-0.327
-562.544	417.136	-0.084	0.182
-561.529	800.000	0.004	0.012
-560.515	588.547	-0.058	0.144
-559.500	60.143	-0.035	-0.035
-558.485	20.462	-0.069	-0.056
-557.471	-86.377	-0.176	-0.055
-556.456	-179.414	0.165	-0.004
-555.442	15.778	0.199	-0.159
-554.427	312.941	-0.174	0.331
-553.412	-92.001	-0.280	-0.080
-552.398	442.059	0.123	0.273
-551.383	-8.445	-0.066	0.045
-550.369	-76.378	-0.305	-0.109
-549.354	-115.780	0.196	0.037
-548.339	18.120	0.143	-0.115
-547.325	-200.000	-0.024	0.193
-546.310	-167.157	0.184	-0.008
-545.296	43.144	-0.212	0.196
-544.281	800.000	0.144	0.467
-543.266	-93.643	-0.187	-0.052
-542.252	-200.000	0.031	-0.202
-541.237	90.729	0.286	-0.324
-540.223	162.526	0.158	-0.225
-539.208	-103.365	0.216	0.052
-538.193	35.127	0.223	-0.198
-537.179	-42.631	-0.218	-0.112
-536.164	800.000	-0.033	0.132
-535.150	-200.000	0.007	-0.158
-534.135	-23.976	-0.147	-0.089
-533.121	-200.000	0.055	-0.325
-532.106	19.400	0.363	0.295
-531.091	10.934	-0.123	-0.095
-530.077	56.163	0.055	0.054
-529.062	116.992	-0.162	0.201
-528.048	159.231	-0.183	0.257
-527.033	-47.033	0.160	-0.079
-526.018	-19.387	-0.299	0.188
-525.004	550.626	-0.169	0.410
-523.989	-134.703	-0.245	-0.030
-522.975	-142.820	0.414	0.041
-521.960	78.689	-0.212	-0.229
-520.945	-200.000	-0.028	0.124
-519.931	-65.910	0.137	-0.055
-518.916	-200.000	-0.009	-0.160
-517.902	0.137	0.195	-0.140
-516.887	44.894	0.053	-0.049
-515.872	-29.573	0.155	0.090
-514.858	-193.321	0.195	0.002
-513.843	438.348	0.078	0.172
-512.829	-200.000	0.011	0.169
-511.814	-72.868	-0.195	-0.073
-510.799	84.498	0.055	-0.061
-509.785	-200.000	-0.001	-0.101
-508.770	-142.432	-0.089	-0.009
-507.756	-200.000	-0.038	0.220
-506.741	800.000	-0.045	0.176
-505.726	-200.000	-0.020	-0.247
-504.712	-149.598	0.351	0.028
-503.697	60.260	-0.215	0.215
-502.683	-59.987	-0.215	0.093
-501.668	240.174	0.181	-0.306
-500.653	64.081	-0.065	-0.066
-499.639	212.339	-0.058	-0.092
-498.624	-200.000	-0.024	0.205
-497.610	-46.058	-0.112	0.056
-496.595	162.030	0.097	0.137
-495.581	-132.181	0.432	0.057
-494.566	6.501	-0.193	0.145
-493.551	249.046	0.112	-0.192
-492.537	239.732	-0.176	-0.296
-491.522	-73.630	-0.158	0.058
-490.508	-200.000	-0.046	-0.246
-489.493	-5.246	0.080	0.056
-488.478	-46.262	0.230	0.114
-487.464	-200.000	0.055	-0.297
-486.449	363.088	-0.129	-0.262
-485.435	-109.814	-0.160	0.034
-484.420	56.396	-0.095	-0.093
-483.405	-52.531	0.112	-0.052
-482.391	-200.000	-0.026	0.239
-481.376	106.764	0.024	0.028
-480.362	4.774	-0.287	-0.213
-479.347	457.933	-0.094	-0.210
-478.332	10.742	0.175	-0.135
-477.318	16.389	0.209	0.167
-476.303	46.544	0.114	0.107
-475.289	800.000	0.025	0.104
-474.274	-200.000	-0.013	0.355
-473.259	277.015	0.146	0.262
-472.245	101.607	0.055	-0.065
-471.230	-200.000	0.006	-0.141
-470.216	344.787	0.187	0.371
-469.201	111.469	0.115	-0.140
-468.186	-170.834	0.160	-0.006
-467.172	365.772	-0.063	0.128
-466.157	-200.000	0.054	-0.260
-465.143	268.725	-0.023	0.041
-464.128	-108.365	-0.141	0.031
-463.113	-200.000	0.036	-0.285
-462.099	-50.681	0.215	0.102
-461.084	84.107	-0.258	0.284
-460.070	-87.822	-0.193	-0.059
-459.055	51.126	0.197	-0.189
-458.040	119.328	0.288	-0.360
-457.026	71.461	-0.092	-0.097
-456.011	255.542	0.189	0.328
-454.997	387.853	-0.035	0.073
-453.982	53.537	0.173	-0.168
-452.968	-200.000	-0.011	-0.112
-451.953	152.453	0.226	0.312
-450.938	-110.579	0.055	-0.012
-449.924	-120.015	-0.254	-0.044
-448.909	-45.893	0.173	-0.086
-447.895	-52.721	-0.009	-0.004
-446.880	-200.000	-0.027	-0.294
-445.865	-2.684	-0.103	-0.073
-444.851	78.186	-0.350	0.377
-443.836	88.795	0.099	-0.111
-442.822	-68.519	0.133	0.052
-441.807	-118.459	-0.120	-0.021
-440.792	-200.000	-0.016	-0.164
-439.778	28.046	-0.127	0.108
-438.763	293.857	-0.065	-0.120
-437.749	521.668	0.085	-0.201
-436.734	65.718	-0.116	0.119
-435.719	235.232	0.131	0.218
-434.705	-8.693	0.193	-0.130
-433.690	378.090	-0.073	-0.151
-432.676	-11.313	0.188	0.125
-431.661	-65.832	-0.272	0.110
-430.646	800.000	0.079	-0.246
-429.632	800.000	0.091	0.287
-428.617	165.798	0.121	0.172
-427.603	-200.000	-0.006	0.101
-426.588	-147.812	-0.248	-0.021
-425.573	-200.000	-0.028	0.197
-424.559	97.015	-0.105	-0.122
-423.544	-46.610	-0.199	-0.098
-422.530	25.958	0.201	-0.169
-421.515	35.512	0.253	0.223
-420.500	33.336	0.218	-0.190
-419.486	-200.000	0.032	0.235
-418.471	-102.929	-0.209	0.050
-417.457	-124.148	0.072	0.011
-416.442	-127.615	0.220	0.032
-415.428	800.000	0.095	-0.316
-414.413	-156.758	-0.126	-0.008
-413.398	800.000	-0.022	-0.082
-412.384	-200.000	-0.014	0.172
-411.369	-57.229	0.046	-0.020
-410.355	-60.842	0.194	-0.083
-409.340	-114.731	-0.158	0.030
-408.325	781.353	0.024	-0.066
-407.311	-78.453	0.280	0.096
-406.296	-60.473	0.234	-0.100
-405.282	8.760	-0.064	-0.049
-404.267	51.653	0.272	-0.260
-403.252	-154.945	-0.239	0.016
-402.238	40.226	-0.164	-0.149
-401.223	-137.361	0.431	-0.049
-400.209	800.000	0.076	-0.241
-399.194	-146.434	-0.331	0.029
-398.179	-140.737	0.246	0.026
-397.165	-65.585	0.093	0.037
-396.150	-42.556	0.097	0.050
-395.136	-106.898	-0.215	-0.048
-394.121	467.481	-0.123	-0.277
-393.106	28.205	0.305	0.259
-392.092	-200.000	-0.020	0.145
-391.077	-21.264	0.334	0.205
-390.063	214.009	0.189	0.302
-389.048	179.421	0.206	-0.304
-388.033	800.000	0.044	0.173
-387.019	-7.580	-0.138	0.094
-386.004	-48.572	0.097	-0.047
-384.990	83.926	-0.108	-0.118
-383.975	-153.794	-0.142	0.010
-382.960	-200.000	-0.011	-0.127
-381.946	75.184	0.173	0.183
-380.931	-128.444	0.238	0.034
-379.917	-6.272	-0.255	-0.175
-378.902	-80.692	0.133	-0.044
-377.888	-34.354	0.218	-0.120
-376.873	-99.971	-0.126	-0.032
-375.858	-65.914	-0.371	0.149
-374.844	11.706	0.306	-0.236
-373.829	297.920	-0.049	-0.090
-372.815	-27.160	0.101	-0.059
-371.800	110.356	0.090	0.109
-370.785	157.205	-0.095	-0.133
-369.771	-56.579	0.084	0.037
-368.756	-20.280	0.309	-0.191
-367.742	-200.000	-0.053	0.591
-366.727	33.913	-0.276	0.241
-365.712	20.781	0.084	0.068
-364.698	-105.773	-0.091	0.021
-363.683	-56.251	-0.354	-0.158
-362.669	265.381	-0.095	-0.167
-361.654	775.844	-0.014	0.038
-360.639	-49.969	-0.121	0.058
-359.625	35.605	-0.192	0.169
-358.610	222.257	-0.186	-0.301
-357.596	800.000	0.070	-0.202
-356.581	-200.000	-0.023	-0.121
-355.566	398.864	0.117	0.245
-354.552	-47.313	0.081	0.040
-353.537	13.219	0.375	-0.292
-352.523	116.676	-0.181	-0.224
-351.508	163.583	0.073	0.104
-350.493	698.735	0.073	0.192
-349.479	262.866	0.085	0.149
-348.464	387.251	-0.112	0.232
-347.450	800.000	-0.054	0.210
-346.435	-85.951	0.119	0.037
-345.420	-84.388	0.136	0.043
-344.406	-200.000	0.015	-0.300
-343.391	800.000	-0.066	0.202
-342.377	518.928	0.076	0.178
-341.362	217.156	-0.157	0.251
-340.348	405.132	-0.054	0.114
-339.333	-71.280	0.104	0.039
-338.318	-64.468	-0.025	-0.010
-337.304	62.989	-0.040	-0.041
-336.289	16.931	0.350	0.278
-335.275	621.345	-0.106	-0.268
-334.260	-0.956	-0.214	0.152
-333.245	113.218	-0.122	0.148
-332.231	39.218	-0.166	0.149
-331.216	-23.964	-0.277	-0.166
-330.202	800.000	-0.050	0.193
-329.187	116.566	0.162	0.200
-328.172	143.739	-0.012	-0.016
-327.158	-117.142	-0.101	0.018
-326.143	-82.763	-0.081	0.026
-325.129	-56.777	0.216	0.096
-324.114	-200.000	-0.034	-0.234
-323.099	210.668	0.079	-0.124
-322.085	-77.889	0.172	-0.059
-321.070	0.779	0.155	-0.111
-320.056	-134.770	-0.188	-0.023
-319.041	378.548	-0.054	0.111
-318.026	-121.756	0.160	0.027
-317.012	800.000	0.030	0.108
-315.997	53.675	0.132	-0.127
-314.983	-83.965	0.269	0.086
-313.968	-48.222	-0.205	0.099
-312.953	149.779	0.072	-0.098
-311.939	-59.794	-0.069	0.030
-310.924	19.314	-0.212	-0.171
-309.910	95.236	-0.125	-0.143
-308.895	-71.650	0.185	0.069
-307.880	-200.000	-0.003	-0.455
-306.866	-72.829	0.052	0.019
-305.851	-30.621	-0.175	0.099
-304.837	-115.575	-0.132	-0.025
-303.822	-200.000	0.004	-0.158
-302.807	800.000	-0.033	-0.103
-301.793	-200.000	0.060	0.505
-300.778	-200.000	-0.007	0.256
-299.764	-200.000	-0.045	0.368
-298.749	-151.942	0.162	-0.012
-297.735	-170.674	-0.246	-0.009
-296.720	-38.009	-0.074	-0.039
-295.705	674.947	-0.044	-0.116
-294.691	-8.116	-0.340	-0.230
-293.676	48.744	-0.307	-0.289
-292.662	-74.556	-0.127	-0.046
-291.647	43.432	0.036	0.033
-290.632	172.151	0.098	0.141
-289.618	-85.977	0.122	-0.038
-288.603	113.744	-0.197	-0.239
-287.589	-46.913	0.321	0.157
-286.574	-200.000	-0.066	-0.303
-285.559	-100.805	0.119	0.029
-284.545	-200.000	0.039	0.177
-283.530	-200.000	0.037	-0.253
-282.516	-129.185	-0.254	0.036
-281.501	168.635	-0.136	-0.195
-280.486	800.000	-0.005	-0.020
-279.472	205.914	-0.101	0.157
-278.457	84.535	-0.190	-0.208
-277.443	-200.000	0.005	0.031
-276.428	-163.306	-0.164	-0.008
-275.413	152.735	0.155	0.212
-274.399	800.000	-0.064	-0.181
-273.384	-98.170	0.334	-0.086
-272.370	-6.435	0.320	-0.218
-271.355	-101.559	0.571	-0.139
-270.340	88.662	-0.061	0.068
-269.326	-200.000	0.029	-0.269
-268.311	-200.000	-0.010	-0.352
-267.297	-33.956	-0.124	-0.069
-266.282	-200.000	-0.003	-0.067
-265.267	-41.493	0.182	0.094
-264.253	452.163	-0.022	0.048
-263.238	150.103	0.195	-0.265
-262.224	-127.832	0.314	-0.045
-261.209	360.023	0.179	-0.358
-260.195	-200.000	-0.023	-0.389
-259.180	252.554	0.072	-0.122
-258.165	-200.000	-0.012	0.077
-257.151	231.751	-0.144	0.236
-256.136	-95.808	-0.394	-0.105
-255.122	800.000	-0.041	-0.127
-254.107	-200.000	0.000	-0.309
-253.092	93.138	-0.085	0.096
-252.078	-72.682	-0.233	-0.086
-251.063	-200.000	-0.121	0.000
-250.049	163.467	-0.103	-0.145
-249.034	321.347	0.160	-0.305
-248.019	-121.726	-0.219	-0.036
-247.005	-10.045	-0.120	-0.080
-245.990	34.052	0.235	0.205
-244.976	-104.383	-0.389	0.090
-243.961	-105.633	0.060	-0.013
-242.946	2.655	-0.061	-0.044
-241.932	-46.660	0.250	-0.122
-240.917	800.000	0.093	-0.271
-239.903	-7.036	0.151	0.102
-238.888	203.367	0.127	-0.197
-237.873	-49.190	-0.237	-0.113
-236.859	-42.519	-0.077	0.039
-235.844	-120.655	-0.245	0.041
-234.830	261.783	0.101	0.175
-233.815	106.989	0.079	0.094
-232.800	-137.309	-0.185	-0.021
-231.786	-200.000	0.017	0.105
-230.771	-81.088	-0.274	-0.091
-229.757	-200.000	0.020	0.318
-228.742	-40.161	0.186	0.097
-227.727	800.000	-0.061	-0.244
-226.713	-200.000	-0.012	-0.175
-225.698	663.501	-0.129	0.332
-224.684	-108.856	-0.316	-0.067
-223.669	32.660	0.268	0.232
-222.655	64.162	0.210	0.211
-221.640	375.694	0.099	0.202
-220.625	318.987	-0.198	0.376
-219.611	-200.000	0.022	-0.128
-218.596	-45.874	0.252	-0.124
-217.582	-68.788	-0.352	-0.136
-216.567	-200.000	0.062	0.425
-215.552	-117.866	0.277	0.050
-214.538	183.861	-0.077	-0.114
-213.523	52.772	-0.158	-0.151
-212.509	800.000	0.077	-0.218
-211.494	21.769	-0.210	-0.171
-210.479	-12.731	-0.087	-0.056
-209.465	310.745	-0.105	0.196
-208.450	-180.629	-0.156	0.003
-207.436	-200.000	0.035	-0.224
-206.421	-121.381	-0.290	0.048
-205.406	-104.423	0.072	-0.017
-204.392	310.881	0.199	0.373
-203.377	-200.000	-0.023	0.529
-202.363	-100.657	-0.175	-0.043
-201.348	709.414	-0.048	0.126
-200.333	-171.353	0.202	-0.007
-199.319	800.000	0.029	0.097
-198.304	107.487	-0.190	0.225
-197.290	461.645	-0.039	-0.087
-196.275	-200.000	-0.009	0.379
-195.260	-200.000	-0.014	0.126
-194.246	-111.523	-0.172	0.035
-193.231	-72.754	0.156	-0.057
-192.217	-113.579	0.217	0.042
-191.202	-77.834	0.244	-0.084
-190.187	800.000	0.057	0.247
-189.173	13.685	-0.273	0.212
-188.158	800.000	0.063	-0.214
-187.144	8.883	0.236	-0.177
-186.129	116.919	0.108	0.133
-185.114	-13.521	-0.422	0.273
-184.100	562.660	0.035	0.084
-183.085	-85.909	-0.164	-0.051
-182.071	-200.000	-0.026	-0.138
-181.056	23.720	-0.094	-0.077
-180.042	-200.000	-0.020	-0.176
-179.027	-66.431	-0.349	-0.138
-178.012	-96.060	0.228	0.061
-176.998	225.376	-0.199	0.322
-175.983	86.960	0.132	0.145
-174.969	199.728	0.131	-0.200
-173.954	800.000	-0.086	-0.251
-172.939	-200.000	0.035	0.167
-171.925	223.298	0.197	0.317
-170.910	610.984	-0.092	0.231
-169.896	300.832	-0.055	0.101
-168.881	800.000	-0.051	-0.147
-167.866	-75.540	0.270	-0.096
-166.852	48.061	0.250	0.233
-165.837	-111.136	-0.428	0.088
-164.823	800.000	-0.081	0.257
-163.808	167.481	0.239	0.339
-162.793	-63.804	0.028	-0.011
-161.779	235.955	-0.036	-0.060
-160.764	759.554	0.057	-0.153
-159.750	8.327	-0.070	0.053
-158.735	540.590	0.085	0.201
-157.720	-200.000	-0.022	-0.275
-156.706	800.000	-0.098	0.288
-155.691	-51.598	-0.100	0.047
-154.677	100.437	-0.310	-0.358
-153.662	648.490	0.085	-0.216
-152.647	-111.898	0.319	0.064
-151.633	-200.000	0.068	0.376
-150.618	-71.533	0.253	0.094
-149.604	-42.193	0.045	-0.023
-148.589	-20.870	-0.213	0.130
-147.574	-16.442	-0.160	-0.101
-146.560	800.000	0.044	-0.130
-145.545	1.533	-0.165	0.118
-144.531	191.786	0.156	0.234
-143.516	-10.437	-0.289	-0.191
-142.502	-95.081	-0.097	-0.026
-141.487	35.715	-0.365	0.320
-140.472	-200.000	0.010	0.064
-139.458	-200.000	-0.082	0.372
-138.443	40.973	-0.126	0.113
-137.429	-200.000	0.109	0.496
-136.414	621.586	-0.020	-0.049
-135.399	51.017	0.130	-0.123
-134.385	-70.421	-0.462	0.175
-133.370	-2.039	0.080	-0.056
-132.356	175.825	-0.193	-0.278
-131.341	309.725	0.057	-0.106
-130.326	143.465	0.087	0.116
-129.312	12.411	0.095	-0.073
-128.297	-53.283	0.315	-0.144
-127.283	270.410	-0.075	-0.132
-126.268	-200.000	-0.009	-0.155
-125.253	128.297	0.108	-0.137
-124.239	800.000	0.077	0.234
-123.224	-89.047	-0.255	0.075
-122.210	-141.319	0.095	-0.010
-121.195	800.000	0.076	0.264
-120.180	-200.000	-0.026	0.167
-119.166	22.473	-0.303	0.246
-118.151	-200.000	0.018	0.263
-117.137	737.977	-0.036	-0.097
-116.122	-66.038	0.161	-0.064
-115.107	-69.427	0.673	0.257
-114.093	-122.895	0.331	-0.053
-113.078	-171.844	0.267	0.009
-112.064	4.410	0.229	0.167
-111.049	-184.707	0.136	0.002
-110.034	29.670	0.302	-0.256
-109.020	7.984	-0.029	0.022
-108.005	-200.000	-0.015	0.226
-106.991	-70.242	-0.230	-0.087
-105.976	-110.957	-0.380	0.078
-104.962	101.205	-0.189	-0.219
-103.947	-117.586	0.139	-0.025
-102.932	8.023	0.123	0.092
-101.918	-169.965	-0.179	-0.006
-100.903	-14.746	0.200	-0.128
-99.889	-38.239	-0.042	-0.022
-98.874	-29.025	-0.107	0.061
-97.859	123.772	-0.191	-0.238
-96.845	-130.597	0.191	-0.026
-95.830	800.000	-0.063	0.193
-94.816	-28.215	0.251	-0.144
-93.801	502.299	0.139	0.320
-92.786	531.025	-0.050	0.119
-91.772	558.576	0.043	0.103
-90.757	-29.480	-0.345	-0.196
-89.743	-0.780	-0.208	-0.146
-88.728	-93.907	-0.132	0.036
-87.713	-15.423	-0.311	0.198
-86.699	-200.000	-0.031	-0.432
-85.684	-131.038	-0.257	-0.034
-84.670	579.843	-0.170	0.413
-83.655	419.171	0.072	0.153
-82.640	252.093	0.097	0.164
-81.626	18.252	-0.183	0.145
-80.611	-167.198	-0.146	0.006
-79.597	-18.234	0.249	-0.155
-78.582	286.590	0.040	0.072
-77.567	306.273	-0.065	0.120
-76.553	328.904	-0.084	-0.160
-75.538	-114.167	-0.384	-0.074
-74.524	-200.000	-0.013	-0.084
-73.509	-200.000	0.004	0.124
-72.494	-37.899	-0.281	0.148
-71.480	-23.902	-0.141	-0.084
-70.465	-88.423	0.126	0.037
-69.451	-86.870	0.164	0.050
-68.436	605.350	-0.093	0.229
-67.422	153.646	0.162	-0.221
-66.407	7.402	0.102	0.076
-65.392	331.337	0.118	0.227
-64.378	84.121	-0.343	-0.372
-63.363	42.840	0.078	-0.071
-62.349	-200.000	0.044	0.335
-61.334	27.272	-0.797	-0.665
-60.319	800.000	0.110	0.353
-59.305	-200.000	-0.083	-0.786
-58.290	39.707	0.609	0.542
-57.276	241.138	0.802	1.330
-56.261	-200.000	85.823	505.187
-55.246	551.554	1375.615	3280.025
-54.232	180.775	2624.164	3827.430
-53.217	119.171	2253.414	2768.157
-52.203	48.592	1700.989	1583.199
-51.188	40.963	1430.651	1282.572
-50.173	37.658	1386.358	1222.114
-49.159	56.685	1427.845	1380.058
-48.144	61.280	1445.964	1426.705
-47.130	41.344	1405.500	1262.240
-46.115	37.812	1388.312	1224.609
-45.100	37.412	1383.990	1218.237
-44.086	37.362	1381.241	1215.462
-43.071	37.384	1378.638	1213.255
-42.057	37.372	1376.435	1211.200
-41.042	37.309	1375.042	1209.529
-40.027	37.381	1373.403	1208.486
-39.013	37.387	1371.421	1206.735
-37.998	37.518	1369.565	1205.862
-36.984	37.509	1367.723	1204.137
-35.969	37.547	1365.871	1202.699
-34.954	37.598	1364.024	1201.339
-33.940	37.683	1362.535	1200.503
-32.925	37.689	1361.240	1199.351
-31.911	37.782	1359.369	1198.224
-30.896	37.826	1357.866	1197.126
-29.881	37.779	1356.915	1195.949
-28.867	37.760	1355.054	1194.145
-27.852	37.708	1353.654	1192.544
-26.838	37.749	1352.014	1191.307
-25.823	37.723	1350.543	1189.806
-24.809	37.753	1349.266	1188.813
-23.794	37.708	1348.377	1187.709
-22.779	37.714	1346.421	1185.976
-21.765	37.826	1344.697	1185.089
-20.750	37.719	1343.789	1183.592
-19.736	37.683	1342.524	1182.212
-18.721	37.469	1341.478	1179.945
-17.706	37.590	1339.692	1179.062
-16.692	37.638	1338.771	1178.496
-15.677	37.682	1337.381	1177.493
-14.663	37.516	1336.632	1175.779
-13.648	37.531	1335.417	1174.755
-12.633	37.555	1334.128	1173.721
-11.619	37.581	1333.408	1173.200
-10.604	37.635	1332.298	1172.502
-9.590	37.558	1331.533	1171.317
-8.575	37.519	1330.423	1170.056
-7.560	37.496	1329.761	1169.294
-6.546	37.556	1328.746	1168.715
-5.531	37.515	1328.127	1167.876
-4.517	37.500	1327.013	1166.761
-3.502	37.528	1326.155	1166.126
-2.487	37.481	1325.032	1164.810
-1.473	37.604	1320.951	1161.911
-0.458	36.380	1305.736	1141.257
0.556	30.302	1286.371	1098.730
1.571	26.237	1290.711	1078.131
2.586	25.087	1305.896	1083.771
3.600	24.040	1295.411	1068.691
4.615	17.100	1216.736	964.414
5.629	5.521	1132.193	835.791
6.644	0.009	1108.314	789.221
7.659	-0.369	1105.176	784.938
8.673	-0.465	1103.577	783.229
9.688	-0.534	1102.328	781.917
10.702	-0.217	1100.947	782.521
11.717	5.937	1110.929	821.839
12.731	14.991	1123.933	879.155
13.746	17.201	1125.350	891.798
14.761	15.708	1122.783	881.865
15.775	15.329	1121.790	879.022
16.790	14.904	1120.512	875.716
17.804	14.800	1119.988	874.684
18.819	14.854	1119.113	874.206
19.834	14.826	1118.805	873.739
20.848	14.730	1118.314	872.775
21.863	14.659	1117.307	871.544
22.877	14.719	1116.526	871.170
23.892	14.520	1116.217	869.814
24.907	14.694	1115.373	869.985
25.921	14.660	1113.972	868.642
26.936	14.773	1112.392	867.920
27.950	14.773	1110.767	866.575
28.965	14.668	1108.820	864.432
29.980	14.647	1107.013	862.838
30.994	14.775	1105.796	862.475
32.009	14.724	1104.561	861.175
33.023	14.655	1103.223	859.700
34.038	14.655	1102.484	859.045
35.053	14.818	1101.731	859.225
36.067	14.926	1100.818	858.989
37.082	14.950	1099.648	858.122
38.096	14.947	1098.991	857.520
39.111	15.000	1097.951	856.902
40.126	14.766	1096.734	854.683
41.140	14.710	1094.894	852.885
42.155	14.650	1093.183	851.171
43.169	14.618	1091.936	849.963
44.184	14.685	1090.789	849.337
45.199	14.626	1089.679	848.095
46.213	14.543	1088.681	846.824
47.228	14.591	1087.446	846.029
48.242	14.531	1086.273	844.739
49.257	14.749	1084.811	844.630
50.271	14.752	1084.140	844.048
51.286	14.581	1083.472	842.592
52.301	14.759	1082.385	842.566
53.315	14.711	1081.020	841.188
54.330	14.726	1079.946	840.355
55.344	14.755	1079.475	840.060
56.359	14.660	1078.491	838.744
57.374	14.658	1076.995	837.497
58.388	14.619	1076.184	836.596
59.403	14.598	1075.763	836.086
60.417	14.487	1074.710	834.639
61.432	14.592	1073.945	834.495
62.447	14.567	1073.649	834.068
63.461	14.798	1072.079	833.927
64.476	14.715	1071.182	832.743
65.490	14.697	1070.155	831.782
66.505	14.676	1069.363	830.986
67.520	14.716	1068.947	830.788
68.534	14.615	1067.944	829.435
69.549	14.484	1066.983	827.965
70.563	14.436	1065.863	826.782
71.578	14.689	1064.906	827.222
72.593	14.537	1064.184	825.835
73.607	14.543	1063.733	825.440
74.622	14.808	1062.908	826.038
75.636	14.752	1061.674	824.732
76.651	14.504	1061.577	823.358
77.666	14.617	1060.078	822.679
78.680	14.629	1059.680	822.356
79.695	14.620	1059.191	821.859
80.709	14.723	1058.144	821.482
81.724	14.673	1057.022	820.294
82.739	14.682	1056.108	819.553
83.753	14.804	1055.644	819.722
84.768	14.899	1054.317	819.083
85.782	14.975	1053.142	818.471
86.797	14.842	1052.086	816.927
87.812	14.775	1051.472	816.050
88.826	14.841	1050.192	815.308
89.841	14.868	1049.095	814.513
90.855	14.902	1047.792	813.598
91.870	14.794	1047.329	812.641
92.884	14.680	1046.414	811.305
93.899	14.704	1045.177	810.389
94.914	14.809	1044.097	809.989
95.928	14.711	1043.319	808.839
96.943	14.603	1042.398	807.533
97.957	14.481	1040.587	805.467
98.972	14.191	1039.757	803.352
99.987	14.524	1038.640	804.026
101.001	14.639	1038.140	804.123
102.016	14.606	1037.484	803.381
103.030	14.658	1035.960	802.382
104.045	14.439	1035.023	800.533
105.060	14.146	1034.323	798.513
106.074	14.555	1033.081	799.446
107.089	14.863	1032.449	800.361
108.103	14.750	1032.021	799.415
109.118	14.800	1029.848	797.904
110.133	14.823	1029.190	797.433
111.147	14.754	1027.862	796.004
112.162	14.516	1026.844	794.013
113.176	14.682	1026.234	794.258
114.191	14.719	1024.601	793.100
115.206	14.477	1024.187	791.561
116.220	14.555	1023.261	791.147
117.235	14.643	1022.349	790.787
118.249	14.575	1020.960	789.320
119.264	14.587	1020.342	788.829
120.279	14.647	1019.751	788.589
121.293	14.727	1018.513	787.940
122.308	14.759	1017.366	787.129
123.322	14.713	1015.800	785.634
124.337	14.577	1015.057	784.352
125.352	14.245	1013.283	781.352
126.366	14.346	1011.798	780.610
127.381	14.550	1011.372	781.169
128.395	14.882	1010.573	782.038
129.410	14.872	1009.904	781.402
130.424	14.799	1008.670	780.038
131.439	14.845	1007.290	779.117
132.454	14.794	1006.604	778.278
133.468	14.789	1005.545	777.366
134.483	14.888	1004.540	776.982
135.497	15.010	1003.994	777.056
136.512	15.006	1002.980	776.183
137.527	14.991	1001.965	775.263
138.541	14.969	1001.222	774.516
139.556	14.940	1000.374	773.659
140.570	14.908	999.147	772.492
141.585	14.981	997.866	771.769
142.600	14.949	996.708	770.660
143.614	14.992	996.195	770.391
144.629	15.066	994.984	769.729
145.643	14.916	994.226	768.387
146.658	15.016	992.731	767.620
147.673	14.804	992.058	766.060
148.687	14.872	991.079	765.548
149.702	15.051	989.582	765.140
150.716	14.782	989.411	763.711
151.731	14.900	988.826	763.734
152.746	14.919	988.241	763.298
153.760	15.114	986.822	763.024
154.775	15.038	986.354	762.250
155.789	15.021	985.565	761.495
156.804	15.054	984.677	760.890
157.819	15.040	983.760	760.053
158.833	15.080	982.629	759.293
159.848	15.038	981.815	758.405
160.862	14.973	980.638	757.136
161.877	15.168	979.654	757.188
162.892	15.122	979.062	756.460
163.906	15.160	978.072	755.795
164.921	15.081	977.295	754.775
165.935	15.005	976.071	753.418
166.950	15.115	974.656	752.755
167.964	15.075	974.069	752.057
168.979	14.965	972.639	750.394
169.994	14.959	971.979	749.790
171.008	15.033	971.175	749.433
172.023	15.043	969.944	748.460
173.037	14.890	968.635	746.703
174.052	14.855	967.890	745.905
175.067	14.898	967.576	745.788
176.081	15.081	967.260	746.298
177.096	15.032	966.225	745.212
178.110	14.935	965.253	743.967
179.125	14.779	964.978	742.995
180.140	14.984	963.956	743.054
181.154	14.939	963.147	742.165
182.169	15.135	962.483	742.456
183.183	15.277	961.814	742.504
184.198	15.165	961.259	741.511
185.213	15.064	960.930	740.745
186.227	15.189	960.251	740.710
187.242	15.138	959.535	739.867
188.256	15.128	958.463	738.929
189.271	15.205	957.575	738.521
190.286	14.956	957.055	736.958
191.300	14.622	956.179	734.748
192.315	14.417	954.881	732.784
193.329	14.292	954.275	731.704
194.344	14.820	954.033	733.775
195.359	15.070	953.511	734.405
196.373	15.164	952.491	733.965
197.388	14.827	952.171	732.179
198.402	14.811	951.121	731.235
199.417	14.699	950.766	730.408
200.432	14.589	949.348	728.774
201.446	14.666	948.469	728.368
202.461	14.492	948.121	727.280
203.475	14.192	946.611	724.750
204.490	13.740	945.736	722.049
205.504	14.368	945.252	724.345
206.519	14.837	945.059	726.173
207.534	14.826	944.619	725.723
208.548	15.169	944.100	726.747
209.563	14.975	943.277	725.209
210.577	14.805	942.565	723.860
211.592	15.156	941.421	724.439
212.607	15.088	941.035	723.781
213.621	15.126	940.466	723.444
214.636	15.088	939.754	722.668
215.650	15.193	938.791	722.317
216.665	15.264	938.255	722.148
217.680	15.149	937.468	720.983
218.694	14.909	935.895	718.676
219.709	14.901	935.422	718.216
220.723	15.148	934.863	718.783
221.738	15.284	933.961	718.609
222.753	15.096	933.494	717.381
223.767	15.161	932.890	717.132
224.782	15.272	932.307	717.094
225.796	15.224	931.690	716.352
226.811	14.943	930.329	714.042
227.826	14.631	929.279	711.843
228.840	14.737	928.779	711.847
229.855	14.749	927.955	711.205
230.869	14.507	926.570	709.052
231.884	14.750	926.392	709.885
232.899	15.421	925.629	712.085
233.913	15.255	925.199	710.988
234.928	15.201	924.714	710.325
235.942	15.346	923.917	710.265
236.957	15.089	923.060	708.454
237.972	15.252	922.135	708.369
238.986	15.230	922.023	708.130
240.001	15.203	921.029	707.187
241.015	15.296	920.362	707.007
242.030	15.468	919.816	707.248
243.045	15.448	919.260	706.673
244.059	15.368	918.479	705.675
245.074	15.195	917.678	704.268
246.088	15.065	916.134	702.477
247.103	15.103	915.741	702.272
248.117	15.272	915.664	702.860
249.132	15.289	914.895	702.280
250.147	15.420	913.770	701.903
251.161	15.603	912.827	701.878
252.176	15.432	912.463	700.825
253.190	15.583	911.953	700.998
254.205	15.671	911.186	700.714
255.220	15.692	910.837	700.472
256.234	15.644	909.755	699.378
257.249	15.550	908.851	698.233
258.263	15.698	908.022	698.149
259.278	15.701	907.434	697.646
260.293	15.666	906.509	696.729
261.307	15.512	905.780	695.469
262.322	15.380	904.905	694.191
263.336	14.915	903.256	690.940
264.351	14.464	901.248	687.486
265.366	14.456	901.130	687.302
266.380	15.094	901.345	690.035
267.395	15.335	901.039	690.731
268.409	15.389	900.103	690.175
269.424	15.485	899.693	690.194
270.439	15.575	898.820	689.834
271.453	15.700	898.042	689.687
272.468	15.806	897.608	689.729
273.482	15.713	897.109	688.903
274.497	15.616	895.898	687.516
275.512	15.263	895.300	685.552
276.526	15.610	894.741	686.481
277.541	15.645	894.119	686.084
278.555	15.321	893.385	684.142
279.570	15.392	891.883	683.220
280.585	15.414	891.510	682.961
281.599	15.587	890.898	683.136
282.614	15.159	890.183	680.788
283.628	15.492	889.233	681.352
284.643	15.470	889.037	681.055
285.657	15.348	887.655	679.442
286.672	15.003	887.076	677.542
287.687	15.405	886.564	678.714
288.701	15.422	886.220	678.462
289.716	15.269	885.120	676.939
290.730	15.184	884.558	676.109
291.745	15.078	883.507	674.817
292.760	15.263	883.022	675.134
293.774	15.767	883.329	677.339
294.789	15.990	882.748	677.730
295.803	16.095	881.982	677.504
296.818	16.096	881.455	677.043
297.833	15.779	880.477	674.960
298.847	15.743	880.042	674.422
299.862	15.926	879.291	674.520
300.876	16.107	878.483	674.566
301.891	15.857	877.919	673.073
302.906	15.426	876.857	670.477
303.920	15.633	876.641	671.081
304.935	15.884	875.979	671.514
305.949	15.934	875.375	671.191
306.964	15.915	874.837	670.643
307.979	16.129	874.483	671.166
308.993	16.096	874.278	670.817
310.008	16.178	873.073	670.159
311.022	15.919	872.255	668.442
312.037	15.930	871.873	668.135
313.052	15.925	870.993	667.383
314.066	15.363	870.157	664.457
315.081	15.245	869.177	663.184
316.095	15.748	869.130	665.080
317.110	16.033	868.681	665.802
318.125	15.601	867.724	663.303
319.139	15.306	866.531	661.169
320.154	15.198	866.210	660.440
321.168	15.680	866.022	662.139
322.183	15.758	866.293	662.596
323.197	15.930	865.679	662.743
324.212	16.196	864.981	663.194
325.227	16.174	864.519	662.697
326.241	16.174	863.785	662.076
327.256	16.132	863.100	661.325
328.270	16.014	862.965	660.702
329.285	15.997	862.242	660.023
330.300	15.992	861.227	659.170
331.314	16.063	860.676	658.965
332.329	16.053	860.331	658.604
333.343	16.293	859.430	658.793
334.358	16.102	859.223	657.831
335.373	16.252	858.649	657.919
336.387	16.336	858.395	657.992
337.402	16.363	858.010	657.744
338.416	16.275	857.589	657.023
339.431	16.291	856.945	656.534
340.446	16.498	856.667	657.066
341.460	16.266	856.178	655.732
342.475	16.036	855.539	654.291
343.489	16.161	855.144	654.415
344.504	16.357	854.784	654.842
345.519	16.420	854.448	654.770
346.533	16.533	853.935	654.758
347.548	16.547	853.411	654.353
348.562	16.617	852.712	654.029
349.577	16.544	852.128	653.241
350.592	16.654	851.580	653.187
351.606	16.670	850.968	652.721
352.621	16.620	850.072	651.786
353.635	16.488	849.404	650.706
354.650	16.173	848.376	648.649
355.665	15.616	846.940	645.355
356.679	15.820	846.684	645.889
357.694	16.158	845.787	646.442
358.708	16.066	845.184	645.573
359.723	16.433	845.217	646.945
360.738	16.627	844.885	647.377
361.752	16.563	844.270	646.602
362.767	16.650	843.080	645.965
363.781	16.639	843.065	645.855
364.796	16.703	842.681	645.750
365.810	16.854	842.229	645.921
366.825	16.734	841.672	644.978
367.840	16.789	840.744	644.422
368.854	16.437	840.232	642.631
369.869	16.502	839.844	642.527
370.883	16.503	839.209	641.987
371.898	16.374	838.820	641.142
372.913	16.359	838.488	640.773
373.927	16.728	837.962	641.715
374.942	16.754	837.505	641.408
375.956	16.652	837.324	640.826
376.971	16.863	836.290	640.775
377.986	16.849	836.171	640.574
379.000	16.759	835.684	639.804
380.015	16.704	835.010	639.023
381.029	16.682	834.679	638.629
382.044	16.703	833.830	638.003
383.059	16.713	833.316	637.592
384.073	16.869	832.913	637.813
385.088	17.066	832.617	638.274
386.102	16.973	831.487	637.001
387.117	16.984	831.224	636.786
388.132	16.907	830.234	635.682
389.146	16.456	829.662	633.497
390.161	16.470	828.529	632.627
391.175	16.508	828.257	632.504
392.190	16.521	827.717	632.086
393.205	16.026	826.628	629.351
394.219	15.626	825.710	627.104
395.234	15.561	825.433	626.597
396.248	16.197	825.888	629.259
397.263	16.924	826.449	632.343
398.278	17.027	825.798	632.173
399.292	16.938	825.275	631.385
400.307	17.009	824.622	631.094
401.321	17.087	823.891	630.767
402.336	17.197	823.804	631.055
403.350	17.133	823.207	630.303
404.365	17.174	822.918	630.179
405.380	17.309	822.324	630.166
406.394	17.261	821.911	629.616
407.409	17.223	821.387	629.021
408.423	17.096	821.008	628.205
409.438	17.185	820.701	628.241
410.453	17.374	820.047	628.384
411.467	17.224	820.098	627.813
412.482	17.298	819.237	627.373
413.496	17.371	818.752	627.215
414.511	17.480	818.352	627.254
415.526	17.491	817.925	626.913
416.540	17.191	817.224	625.216
417.555	17.079	816.638	624.299
418.569	17.132	816.519	624.347
419.584	17.110	815.940	623.768
420.599	17.008	814.989	622.614
421.613	150.858	1358.118	1780.023
422.628	131.338	1437.263	1780.154
