DTS Sentinel unit serial number:	SN413079Multiplexer serial number:	ORYXHardware model number:	OX4-SRSoftware version number:	ORYX F/W v4.00 Oryx Data Collector v3.7.2.0data status	okinstallation	princeton_trtdifferential loss correction	single-endedforward channel	channel 1reverse channel	N/Adate	2019/09/10time	17:32:11forward acquisition time	60.00reverse acquisition time	0.00gamma	496.2192k internal	0.2299k external	0.2299temperature offset calibration	0.9925default loss term (dB/km)	0.3790temperature slope calibration	1.0000multiplexer offset coefficient	1.0000multiplexer slope coefficient	1.0000fibre end	0.00T internal ref (°C)	37.66T ext. ref 1 (°C)	-0.35T ext. ref 2 (°C)	31.69length (m)	temperature (°C)	Stokes	anti-Stokes-747.200	-200.000	-0.021	-0.312
-746.185	-42.160	0.334	-0.175
-745.171	-53.035	-0.081	-0.038
-744.156	-115.742	-0.307	0.059
-743.142	94.618	0.040	-0.046
-742.127	-200.000	-0.011	0.329
-741.112	-195.204	0.368	0.003
-740.098	100.865	-0.204	0.241
-739.083	-200.000	-0.029	0.141
-738.069	54.093	-0.143	-0.140
-737.054	-200.000	0.025	-0.125
-736.039	-200.000	-0.022	-0.235
-735.025	-55.477	0.488	-0.223
-734.010	-130.212	-0.152	-0.021
-732.996	251.936	-0.113	0.197
-731.981	144.875	-0.127	0.173
-730.966	800.000	0.056	-0.199
-729.952	-97.146	-0.290	0.077
-728.937	-39.782	0.088	0.047
-727.923	679.738	-0.143	0.380
-726.908	-152.376	0.210	-0.015
-725.894	691.731	-0.114	0.304
-724.879	706.727	0.109	0.294
-723.864	187.546	-0.043	-0.065
-722.850	-44.437	-0.098	-0.050
-721.835	800.000	0.084	-0.344
-720.821	438.782	-0.093	-0.206
-719.806	366.810	-0.164	-0.337
-718.791	-200.000	-0.023	-0.151
-717.777	193.020	-0.123	-0.189
-716.762	-15.081	-0.221	-0.144
-715.748	-200.000	-0.011	0.210
-714.733	-26.508	-0.068	-0.040
-713.718	2.861	0.326	-0.241
-712.704	89.558	-0.016	-0.018
-711.689	-134.858	0.283	-0.035
-710.675	-14.646	-0.210	0.138
-709.660	-5.638	0.464	0.324
-708.645	-14.176	-0.209	-0.137
-707.631	218.875	-0.116	0.189
-706.616	-200.000	0.005	-0.049
-705.602	23.054	0.160	0.134
-704.587	155.707	0.127	-0.178
-703.572	800.000	0.136	-0.433
-702.558	192.290	0.210	-0.323
-701.543	364.340	-0.076	-0.155
-700.529	-200.000	0.019	-0.205
-699.514	-40.973	0.285	-0.150
-698.499	-200.000	-0.020	-0.123
-697.485	211.099	0.135	-0.217
-696.470	404.959	0.078	-0.168
-695.456	-14.826	-0.089	0.058
-694.441	-17.227	0.116	-0.075
-693.426	-151.296	0.510	0.039
-692.412	-92.606	0.101	-0.029
-691.397	-67.335	-0.211	-0.085
-690.383	-22.372	-0.135	-0.083
-689.368	-200.000	0.019	-0.093
-688.354	41.624	0.195	0.180
-687.339	80.703	-0.148	-0.162
-686.324	185.404	0.152	-0.230
-685.310	624.531	-0.078	-0.199
-684.295	-70.421	-0.252	-0.097
-683.281	586.172	-0.140	-0.352
-682.266	432.453	0.085	-0.188
-681.251	223.665	0.121	-0.199
-680.237	43.853	-0.117	-0.109
-679.222	-10.569	-0.257	-0.173
-678.208	-200.000	-0.002	-0.288
-677.193	800.000	-0.012	0.053
-676.178	800.000	0.019	-0.077
-675.164	358.540	0.092	0.187
-674.149	183.961	0.153	-0.230
-673.135	115.239	0.191	-0.238
-672.120	-134.167	0.212	-0.027
-671.105	-133.225	0.041	-0.005
-670.091	-139.722	-0.190	0.021
-669.076	-8.245	-0.224	-0.154
-668.062	213.974	-0.141	0.228
-667.047	-200.000	-0.050	-0.238
-666.032	87.553	0.175	-0.197
-665.018	-114.280	-0.337	0.066
-664.003	800.000	0.002	-0.005
-662.989	96.725	-0.332	-0.386
-661.974	-58.518	-0.411	0.182
-660.959	-84.003	0.302	-0.098
-659.945	-10.295	-0.317	-0.214
-658.930	-47.957	0.070	-0.035
-657.916	-200.000	-0.016	-0.285
-656.901	153.007	-0.115	0.159
-655.886	-200.000	-0.055	-0.254
-654.872	41.958	-0.088	0.081
-653.857	-79.623	-0.182	0.063
-652.843	375.309	-0.129	-0.267
-651.828	512.896	0.114	0.271
-650.814	28.243	-0.269	-0.231
-649.799	-178.437	-0.044	0.001
-648.784	800.000	0.081	0.231
-647.770	-75.555	0.348	0.126
-646.755	-200.000	-0.009	0.208
-645.741	-165.086	-0.372	0.017
-644.726	800.000	-0.080	-0.226
-643.711	221.868	0.118	-0.193
-642.697	97.963	0.127	-0.148
-641.682	-171.601	0.168	0.006
-640.668	800.000	-0.031	0.097
-639.653	289.905	0.081	0.149
-638.638	289.294	0.060	0.111
-637.624	198.011	-0.087	0.135
-636.609	4.970	-0.118	0.088
-635.595	-200.000	-0.038	-0.317
-634.580	-116.353	-0.130	0.024
-633.565	-111.585	-0.217	0.045
-632.551	304.068	0.109	-0.206
-631.536	-200.000	0.037	-0.177
-630.522	695.192	0.032	0.085
-629.507	-200.000	0.012	0.099
-628.492	800.000	-0.130	0.389
-627.478	-200.000	0.008	0.157
-626.463	191.143	-0.110	-0.168
-625.449	28.752	0.074	-0.064
-624.434	259.532	0.123	0.216
-623.419	-200.000	-0.021	-0.195
-622.405	-145.615	-0.202	-0.018
-621.390	800.000	-0.077	-0.239
-620.376	5.816	0.172	0.129
-619.361	331.812	-0.105	-0.205
-618.346	98.841	0.029	-0.034
-617.332	53.594	0.138	0.135
-616.317	-136.899	0.189	0.022
-615.303	-34.380	0.199	-0.111
-614.288	-43.886	-0.281	-0.143
-613.273	-200.000	0.026	0.149
-612.259	111.762	0.368	-0.451
-611.244	-200.000	0.014	-0.092
-610.230	-116.892	-0.256	0.048
-609.215	-147.028	-0.227	-0.020
-608.201	179.573	0.130	0.193
-607.186	431.282	0.070	0.153
-606.171	293.351	0.062	0.115
-605.157	-183.954	-0.130	-0.002
-604.142	-181.925	-0.339	0.007
-603.128	-155.167	-0.244	-0.016
-602.113	800.000	0.099	-0.382
-601.098	344.123	0.131	0.262
-600.084	-134.856	-0.286	-0.035
-599.069	-200.000	0.001	0.247
-598.055	50.065	-0.164	0.157
-597.040	-200.000	0.019	0.293
-596.025	-162.186	0.109	0.006
-595.011	35.853	-0.093	-0.083
-593.996	-124.110	0.248	0.040
-592.982	-101.106	0.221	-0.055
-591.967	800.000	0.021	0.075
-590.952	-190.395	0.134	-0.001
-589.938	-3.693	-0.228	-0.161
-588.923	22.478	-0.026	0.022
-587.909	81.000	0.242	-0.265
-586.894	-169.290	-0.334	0.012
-585.879	13.891	0.296	0.234
-584.865	-15.970	-0.180	0.116
-583.850	106.692	-0.268	0.323
-582.836	-171.364	0.416	0.014
-581.821	-32.412	-0.226	0.128
-580.806	-52.555	0.179	-0.084
-579.792	800.000	-0.030	-0.085
-578.777	800.000	0.048	0.143
-577.763	-200.000	-0.038	0.249
-576.748	291.427	0.200	-0.368
-575.733	711.523	-0.094	-0.252
-574.719	67.339	0.161	-0.166
-573.704	800.000	-0.067	-0.248
-572.690	-54.541	0.170	-0.078
-571.675	-49.327	0.062	-0.030
-570.661	351.449	-0.098	0.197
-569.646	2.587	-0.246	0.181
-568.631	112.778	-0.074	-0.091
-567.617	-27.681	0.560	-0.330
-566.602	70.771	0.116	0.121
-565.588	392.950	0.040	-0.085
-564.573	-200.000	0.022	-0.152
-563.558	-17.882	0.106	0.067
-562.544	-33.401	-0.018	-0.010
-561.529	-200.000	-0.000	0.085
-560.515	-137.512	0.048	0.006
-559.500	-94.909	-0.341	0.094
-558.485	115.464	-0.090	-0.111
-557.471	800.000	-0.024	0.075
-556.456	3.764	0.282	0.209
-555.442	33.725	0.268	-0.236
-554.427	277.803	-0.055	-0.099
-553.412	-149.660	-0.069	0.006
-552.398	35.185	0.234	-0.208
-551.383	-114.309	0.259	-0.051
-550.369	-124.778	0.431	0.067
-549.354	189.989	-0.168	-0.256
-548.339	-161.363	-0.114	0.006
-547.325	800.000	0.081	0.296
-546.310	-120.032	0.538	-0.093
-545.296	-113.689	-0.039	-0.008
-544.281	-86.980	-0.394	0.122
-543.266	54.371	0.086	-0.084
-542.252	81.230	0.154	-0.168
-541.237	-58.016	0.143	-0.063
-540.223	-200.000	0.028	-0.159
-539.208	-81.027	0.291	0.098
-538.193	-46.974	-0.072	-0.036
-537.179	-200.000	-0.009	0.249
-536.164	-141.576	0.167	-0.017
-535.150	13.637	0.117	-0.092
-534.135	385.808	-0.071	-0.148
-533.121	463.887	-0.037	-0.083
-532.106	57.143	0.068	-0.067
-531.091	69.823	0.149	0.156
-530.077	800.000	0.028	0.095
-529.062	-156.525	0.375	-0.024
-528.048	162.844	-0.093	-0.132
-527.033	-155.181	-0.303	-0.020
-526.018	-200.000	0.008	0.071
-525.004	800.000	-0.116	-0.333
-523.989	-27.818	-0.124	-0.073
-522.975	189.752	0.050	-0.077
-521.960	270.603	-0.168	-0.299
-520.945	800.000	0.073	-0.217
-519.931	-8.622	-0.049	-0.033
-518.916	800.000	0.098	-0.320
-517.902	-200.000	-0.026	-0.253
-516.887	104.766	0.132	-0.157
-515.872	-88.270	-0.137	0.042
-514.858	-200.000	-0.023	-0.203
-513.843	-73.161	0.248	-0.092
-512.829	-200.000	-0.011	-0.260
-511.814	131.019	-0.131	0.170
-510.799	-200.000	0.014	0.087
-509.785	-59.072	-0.316	-0.138
-508.770	99.563	-0.138	-0.161
-507.756	-81.523	-0.458	0.152
-506.741	800.000	0.074	0.276
-505.726	64.954	-0.274	0.279
-504.712	-15.051	-0.198	0.128
-503.697	-35.371	0.093	0.051
-502.683	-200.000	0.039	0.324
-501.668	262.537	-0.265	-0.464
-500.653	57.269	-0.076	-0.075
-499.639	-18.826	0.280	0.176
-498.624	-58.321	-0.189	0.083
-497.610	181.652	0.181	-0.269
-496.595	-26.686	0.147	-0.087
-495.581	-75.481	-0.153	-0.055
-494.566	800.000	0.063	-0.187
-493.551	-87.894	-0.109	-0.033
-492.537	-23.547	-0.157	0.095
-491.522	800.000	0.039	-0.132
-490.508	36.480	0.199	-0.178
-489.493	-86.394	0.193	0.060
-488.478	164.669	-0.161	-0.229
-487.464	-162.302	0.389	-0.020
-486.449	-200.000	0.149	0.000
-485.435	-127.225	0.157	0.023
-484.420	51.443	0.271	-0.260
-483.405	-200.000	0.029	-0.364
-482.391	-149.056	0.370	-0.030
-481.376	-200.000	-0.001	0.379
-480.362	-96.910	-0.374	-0.099
-479.347	-74.456	-0.389	-0.142
-478.332	800.000	-0.051	-0.168
-477.318	-38.079	0.353	0.189
-476.303	91.280	-0.247	-0.281
-475.289	507.473	0.097	0.227
-474.274	-33.424	-0.186	0.104
-473.259	23.720	0.154	-0.128
-472.245	78.263	-0.097	-0.105
-471.230	587.169	-0.027	-0.067
-470.216	704.514	-0.076	-0.204
-469.201	-96.617	0.149	0.040
-468.186	-107.846	0.351	-0.077
-467.172	-91.350	-0.150	0.043
-466.157	-56.917	-0.123	-0.055
-465.143	34.055	-0.073	-0.064
-464.128	-51.831	-0.187	-0.088
-463.113	-200.000	-0.070	0.353
-462.099	120.944	0.140	-0.176
-461.084	800.000	-0.051	0.166
-460.070	-16.053	-0.227	-0.146
-459.055	1.372	0.180	-0.130
-458.040	413.830	0.043	-0.092
-457.026	-27.078	0.139	0.082
-456.011	8.844	-0.133	-0.101
-454.997	-94.021	-0.157	0.043
-453.982	-113.768	-0.285	-0.056
-452.968	-51.017	0.207	0.098
-451.953	155.325	0.095	-0.131
-450.938	39.867	0.058	0.052
-449.924	140.898	-0.067	0.089
-448.909	-73.147	-0.194	-0.072
-447.895	-106.701	0.321	-0.072
-446.880	-200.000	0.030	-0.269
-445.865	800.000	-0.116	0.411
-444.851	-45.956	0.235	0.117
-443.836	195.981	0.061	0.093
-442.822	-106.170	-0.184	0.042
-441.807	-200.000	-0.019	0.132
-440.792	16.135	0.038	-0.030
-439.778	-104.757	0.072	-0.017
-438.763	-121.436	-0.452	0.076
-437.749	-200.000	-0.024	-0.149
-436.734	97.167	0.197	0.228
-435.719	-200.000	0.055	0.293
-434.705	-80.859	0.329	0.110
-433.690	54.058	0.251	-0.244
-432.676	-81.012	0.578	0.193
-431.661	113.543	0.175	0.214
-430.646	-200.000	-0.020	0.393
-429.632	-200.000	0.058	0.293
-428.617	41.799	-0.201	-0.183
-427.603	470.148	-0.054	-0.123
-426.588	-200.000	0.012	-0.093
-425.573	-19.661	0.206	-0.128
-424.559	-106.253	-0.182	-0.041
-423.544	-110.325	0.370	-0.078
-422.530	-109.693	-0.209	-0.044
-421.515	-64.109	0.159	-0.065
-420.500	11.657	-0.111	0.086
-419.486	160.031	0.207	0.291
-418.471	91.393	0.056	0.063
-417.457	137.270	-0.108	0.142
-416.442	313.786	0.048	0.090
-415.428	-4.855	0.129	0.090
-414.413	-200.000	-0.036	0.238
-413.398	-200.000	0.007	0.464
-412.384	5.900	-0.144	0.107
-411.369	-200.000	-0.031	-0.207
-410.355	248.918	-0.044	0.075
-409.340	-78.710	0.025	-0.009
-408.325	-68.271	0.283	0.111
-407.311	403.514	-0.112	-0.238
-406.296	30.685	0.209	-0.180
-405.282	800.000	0.081	-0.306
-404.267	-113.178	-0.122	-0.024
-403.252	-68.965	0.133	0.052
-402.238	-76.520	-0.018	-0.007
-401.223	-51.387	-0.268	-0.126
-400.209	-134.833	-0.487	0.059
-399.194	51.740	0.135	-0.130
-398.179	56.759	0.104	0.102
-397.165	-25.320	-0.220	0.131
-396.150	-121.168	-0.176	0.030
-395.136	299.626	0.130	0.242
-394.121	-130.459	-0.088	-0.012
-393.106	-200.000	-0.004	0.020
-392.092	171.210	0.229	0.331
-391.077	566.869	0.063	0.154
-390.063	-50.278	0.203	-0.097
-389.048	524.308	0.135	0.320
-388.033	59.083	-0.280	0.278
-387.019	101.246	0.141	0.165
-386.004	326.642	0.142	-0.273
-384.990	-128.077	-0.266	-0.038
-383.975	25.209	-0.246	0.206
-382.960	171.445	-0.042	-0.060
-381.946	652.760	0.024	0.063
-380.931	800.000	-0.128	-0.369
-379.917	-41.589	-0.202	-0.104
-378.902	-92.053	0.221	-0.063
-377.888	191.406	0.179	0.271
-376.873	-200.000	-0.017	0.371
-375.858	-39.104	-0.094	0.050
-374.844	262.713	0.078	-0.135
-373.829	56.754	0.237	-0.232
-372.815	308.361	0.183	-0.343
-371.800	145.959	0.016	0.022
-370.785	-9.112	-0.223	-0.150
-369.771	-200.000	0.052	-0.447
-368.756	457.333	0.048	-0.108
-367.742	-136.761	-0.160	-0.019
-366.727	800.000	0.088	-0.265
-365.712	800.000	-0.048	0.207
-364.698	83.631	0.103	-0.112
-363.683	-121.559	0.109	-0.018
-362.669	-107.332	0.250	0.055
-361.654	-200.000	-0.034	0.297
-360.639	399.544	-0.130	-0.274
-359.625	120.744	0.221	-0.277
-358.610	-200.000	0.045	0.209
-357.596	8.887	-0.226	0.172
-356.581	-200.000	0.036	-0.276
-355.566	-47.293	0.204	-0.100
-354.552	184.862	0.031	-0.047
-353.537	458.917	-0.085	0.191
-352.523	242.880	0.053	0.089
-351.508	-66.184	-0.207	-0.083
-350.493	-200.000	-0.019	0.219
-349.479	266.319	-0.162	0.284
-348.464	49.084	0.128	-0.121
-347.450	597.047	0.047	0.118
-346.435	-89.933	-0.116	0.034
-345.420	-200.000	0.063	-0.289
-344.406	800.000	-0.067	-0.280
-343.391	-108.614	-0.305	-0.066
-342.377	-74.163	-0.074	-0.027
-341.362	467.145	0.144	0.325
-340.348	-200.000	0.015	0.096
-339.333	-76.330	0.178	0.063
-338.318	199.598	0.188	-0.289
-337.304	67.687	-0.089	0.091
-336.289	-61.973	-0.505	-0.212
-335.275	205.740	-0.078	0.121
-334.260	-57.455	-0.239	0.105
-333.245	50.633	0.107	0.102
-332.231	141.463	-0.177	-0.235
-331.216	-46.944	0.182	-0.089
-330.202	41.930	-0.163	-0.149
-329.187	-200.000	-0.012	-0.348
-328.172	800.000	-0.159	0.501
-327.158	-55.636	-0.118	0.053
-326.143	-85.335	-0.496	0.155
-325.129	-4.432	-0.143	-0.100
-324.114	800.000	-0.097	0.330
-323.099	-82.795	-0.281	0.091
-322.085	8.032	0.115	-0.086
-321.070	-33.883	-0.133	-0.074
-320.056	141.911	0.063	-0.083
-319.041	-13.840	0.125	-0.081
-318.026	-157.496	-0.363	0.022
-317.012	-200.000	-0.036	0.178
-315.997	15.841	-0.301	-0.238
-314.983	-86.058	-0.281	-0.087
-313.968	87.515	0.183	-0.203
-312.953	616.767	0.076	-0.191
-311.939	-100.241	-0.064	-0.016
-310.924	-93.178	-0.428	0.119
-309.910	-200.000	0.028	-0.385
-308.895	76.180	-0.054	-0.058
-307.880	589.906	0.114	0.283
-306.866	159.892	0.156	0.218
-305.851	800.000	0.019	0.065
-304.837	186.436	0.256	-0.382
-303.822	125.553	-0.204	-0.258
-302.807	91.484	-0.159	-0.179
-301.793	800.000	0.086	0.352
-300.778	257.838	0.052	0.089
-299.764	-200.000	0.014	-0.079
-298.749	208.342	-0.044	-0.069
-297.735	-102.090	0.260	0.063
-296.720	31.790	-0.106	0.091
-295.705	-32.184	0.285	0.160
-294.691	208.057	-0.126	0.197
-293.676	-200.000	-0.092	0.496
-292.662	-200.000	0.009	0.459
-291.647	-102.507	0.040	0.010
-290.632	243.794	0.105	-0.176
-289.618	147.110	-0.117	-0.157
-288.603	21.877	0.201	-0.164
-287.589	9.784	-0.293	-0.223
-286.574	304.717	-0.086	-0.160
-285.559	-80.804	0.444	0.148
-284.545	-74.006	-0.298	-0.108
-283.530	752.471	0.050	0.136
-282.516	-98.985	-0.362	-0.092
-281.501	139.056	0.021	0.028
-280.486	-200.000	-0.014	-0.173
-279.472	512.179	0.063	0.148
-278.457	63.760	-0.149	0.150
-277.443	-35.958	-0.087	0.047
-276.428	54.492	-0.221	0.214
-275.413	-200.000	-0.032	0.227
-274.399	63.278	0.142	0.142
-273.384	-24.400	0.100	-0.060
-272.370	527.740	0.113	0.267
-271.355	135.210	-0.140	0.183
-270.340	43.266	-0.154	0.141
-269.326	-56.584	-0.094	-0.042
-268.311	89.655	-0.136	-0.152
-267.297	-13.966	0.133	-0.086
-266.282	163.800	0.092	-0.129
-265.267	-47.186	0.038	0.019
-264.253	91.933	-0.202	-0.227
-263.238	-5.808	0.304	0.209
-262.224	-78.441	0.173	0.059
-261.209	-59.211	0.399	0.172
-260.195	-200.000	0.019	0.254
-259.180	-60.001	-0.198	0.085
-258.165	153.224	0.285	-0.391
-257.151	-142.882	-0.128	0.012
-256.136	-93.681	-0.052	-0.014
-255.122	-18.427	-0.288	0.180
-254.107	312.516	0.090	-0.169
-253.092	-200.000	-0.007	0.044
-252.078	-9.097	0.241	0.162
-251.063	-46.237	0.192	-0.095
-250.049	-200.000	0.010	-0.123
-249.034	-120.658	-0.245	0.041
-248.019	-82.871	0.390	0.126
-247.005	800.000	0.070	-0.298
-245.990	-158.551	-0.044	0.003
-244.976	-102.252	0.271	0.065
-243.961	-22.031	0.147	0.089
-242.946	-143.996	-0.134	0.013
-241.932	95.454	-0.115	0.131
-240.917	12.026	-0.075	-0.057
-239.903	405.413	0.096	-0.203
-238.888	21.631	0.238	-0.194
-237.873	-175.992	0.347	-0.009
-236.859	-72.156	0.388	0.144
-235.844	-42.812	0.170	0.086
-234.830	56.553	0.113	-0.110
-233.815	404.929	0.155	-0.327
-232.800	528.724	0.075	0.177
-231.786	324.050	-0.040	0.077
-230.771	119.027	0.044	0.055
-229.757	-130.764	0.202	-0.027
-228.742	-200.000	-0.006	0.121
-227.727	-104.380	-0.496	-0.115
-226.713	-51.180	-0.117	0.055
-225.698	-31.160	0.183	0.103
-224.684	-200.000	-0.011	0.414
-223.669	179.762	0.103	-0.150
-222.655	93.688	-0.104	0.118
-221.640	-143.902	-0.139	-0.013
-220.625	-89.676	0.241	-0.071
-219.611	66.837	0.126	-0.128
-218.596	-113.841	-0.146	0.028
-217.582	-0.024	0.240	-0.171
-216.567	-200.000	0.011	-0.159
-215.552	-107.552	0.201	0.044
-214.538	-200.000	0.099	0.000
-213.523	120.642	-0.198	0.246
-212.509	48.702	0.173	0.163
-211.494	-123.529	-0.292	-0.046
-210.479	-200.000	-0.004	-0.212
-209.465	800.000	0.023	-0.065
-208.450	800.000	0.028	-0.101
-207.436	156.273	-0.200	-0.276
-206.421	0.021	-0.223	-0.159
-205.406	-140.998	-0.368	-0.038
-204.392	-61.837	-0.208	0.087
-203.377	-79.830	-0.086	0.029
-202.363	800.000	-0.127	0.384
-201.348	-200.000	-0.007	0.173
-200.333	226.653	-0.102	0.165
-199.319	-153.523	-0.427	-0.030
-198.304	-111.790	-0.273	-0.055
-197.290	270.248	0.133	0.234
-196.275	-49.642	-0.110	0.052
-195.260	-46.445	0.083	0.041
-194.246	-82.719	0.453	-0.146
-193.231	66.227	-0.028	-0.029
-192.217	800.000	-0.035	0.122
-191.202	-63.346	0.309	-0.127
-190.187	121.175	-0.057	0.071
-189.173	14.157	0.237	-0.184
-188.158	38.072	-0.201	0.178
-187.144	-94.765	-0.235	-0.064
-186.129	-200.000	-0.038	0.275
-185.114	577.584	-0.028	-0.069
-184.100	-80.793	-0.418	0.139
-183.085	-13.507	-0.158	-0.103
-182.071	57.015	0.184	0.179
-181.056	40.656	0.163	0.147
-180.042	9.836	-0.165	0.125
-179.027	-200.000	0.053	0.246
-178.012	441.553	-0.047	0.103
-176.998	-32.091	-0.134	0.075
-175.983	34.159	-0.017	0.015
-174.969	-16.592	-0.156	0.098
-173.954	58.448	-0.135	-0.132
-172.939	-141.964	0.404	-0.040
-171.925	112.247	-0.098	-0.118
-170.910	-144.756	0.118	0.011
-169.896	-59.149	0.367	0.158
-168.881	-17.323	-0.126	0.079
-167.866	-93.627	-0.272	0.075
-166.852	-27.193	-0.196	0.114
-165.837	98.305	-0.105	0.120
-164.823	-87.041	-0.091	0.028
-163.808	99.125	0.045	-0.052
-162.793	402.088	-0.215	-0.451
-161.779	800.000	0.042	-0.166
-160.764	-40.485	0.166	0.086
-159.750	-148.258	0.080	0.007
-158.735	-109.634	-0.093	0.020
-157.720	-200.000	0.040	-0.204
-156.706	-83.246	0.360	-0.115
-155.691	380.216	-0.091	0.187
-154.677	364.402	-0.123	-0.246
-153.662	26.282	-0.219	0.182
-152.647	36.186	-0.180	0.158
-151.633	-128.303	-0.125	-0.018
-150.618	96.642	0.108	0.123
-149.604	-131.716	0.284	-0.037
-148.589	33.577	-0.211	-0.183
-147.574	41.416	-0.189	0.171
-146.560	256.402	0.096	-0.164
-145.545	-47.299	-0.464	-0.225
-144.531	-13.572	0.184	0.119
-143.516	-107.175	-0.247	-0.054
-142.502	351.322	0.064	-0.127
-141.487	-49.486	0.238	0.113
-140.472	91.417	-0.080	0.090
-139.458	800.000	0.051	-0.218
-138.443	-200.000	0.034	-0.152
-137.429	64.693	-0.256	-0.257
-136.414	253.236	0.186	-0.317
-135.399	-78.828	-0.371	-0.126
-134.385	-200.000	0.033	-0.295
-133.370	-200.000	-0.006	-0.464
-132.356	-130.330	-0.243	0.033
-131.341	-156.383	0.131	-0.008
-130.326	85.523	-0.107	0.117
-129.312	-121.861	0.206	-0.034
-128.297	183.851	0.101	-0.148
-127.283	-15.261	-0.208	0.133
-126.268	800.000	0.110	0.453
-125.253	110.297	-0.203	-0.242
-124.239	800.000	-0.121	-0.397
-123.224	-200.000	-0.098	0.434
-122.210	-69.808	-0.407	-0.155
-121.195	70.037	-0.059	-0.061
-120.180	-23.791	0.256	-0.152
-119.166	-200.000	0.009	0.070
-118.151	712.731	-0.029	0.077
-117.137	-92.512	-0.239	0.067
-116.122	-132.427	0.258	0.033
-115.107	-37.777	-0.403	0.214
-114.093	-20.128	-0.079	-0.049
-113.078	800.000	-0.088	0.331
-112.064	-67.628	-0.104	-0.041
-111.049	-143.978	-0.151	0.014
-110.034	208.394	0.208	-0.324
-109.020	-200.000	0.024	0.225
-108.005	-200.000	-0.024	-0.124
-106.991	217.446	0.030	0.047
-105.976	295.614	0.122	-0.223
-104.962	-200.000	0.006	-0.143
-103.947	-34.946	0.491	-0.267
-102.932	-200.000	0.003	-0.066
-101.918	12.879	-0.156	0.120
-100.903	161.484	0.082	0.115
-99.889	-40.345	0.107	-0.055
-98.874	-100.612	-0.167	-0.041
-97.859	612.953	-0.120	0.299
-96.845	-200.000	0.037	0.218
-95.830	242.546	0.032	0.053
-94.816	-200.000	-0.006	-0.089
-93.801	-107.126	0.417	0.092
-92.786	-121.067	0.268	0.045
-91.772	-18.049	-0.298	0.186
-90.757	251.562	-0.085	0.145
-89.743	52.752	-0.182	0.173
-88.728	268.167	0.110	-0.191
-87.713	-71.727	0.342	-0.127
-86.699	227.744	-0.145	-0.234
-85.684	62.398	0.280	0.278
-84.670	-7.043	0.195	0.132
-83.655	-25.256	0.309	0.182
-82.640	-56.927	-0.232	0.102
-81.626	-94.441	0.395	-0.107
-80.611	-200.000	0.010	0.074
-79.597	800.000	0.090	-0.255
-78.582	-7.231	0.177	0.119
-77.567	-65.203	0.073	0.029
-76.553	-200.000	-0.033	-0.582
-75.538	10.060	-0.130	-0.098
-74.524	128.262	0.202	-0.256
-73.509	4.854	0.259	-0.189
-72.494	-46.058	0.280	0.137
-71.480	-200.000	-0.023	-0.165
-70.465	-28.496	0.035	0.020
-69.451	-86.218	0.120	0.037
-68.436	-144.165	-0.193	-0.018
-67.422	-52.463	-0.354	0.163
-66.407	-200.000	-0.074	0.357
-65.392	-152.549	0.424	0.030
-64.378	-153.494	0.151	-0.010
-63.363	-200.000	-0.004	0.173
-62.349	329.201	-0.182	0.347
-61.334	63.378	-0.798	-0.795
-60.319	800.000	-0.065	0.262
-59.305	-200.000	-0.063	-0.850
-58.290	800.000	0.303	1.026
-57.276	447.901	0.800	1.750
-56.261	-200.000	85.498	501.717
-55.246	549.396	1376.029	3276.597
-54.232	180.448	2624.801	3826.225
-53.217	119.400	2252.668	2769.923
-52.203	48.651	1700.030	1583.116
-51.188	41.033	1428.950	1281.797
-50.173	37.802	1384.387	1221.560
-49.159	56.678	1425.970	1378.522
-48.144	61.283	1444.419	1425.525
-47.130	41.384	1403.684	1261.150
-46.115	37.789	1386.389	1223.047
-45.100	37.496	1381.742	1217.068
-44.086	37.558	1379.300	1215.259
-43.071	37.456	1376.562	1212.160
-42.057	37.404	1374.924	1210.347
-41.042	37.576	1372.517	1209.251
-40.027	37.616	1371.151	1208.245
-39.013	37.540	1369.462	1206.238
-37.998	37.672	1367.331	1205.129
-36.984	37.675	1365.599	1203.574
-35.969	37.687	1363.853	1202.060
-34.954	37.691	1362.230	1200.605
-33.940	37.669	1360.815	1199.178
-32.925	37.775	1358.828	1198.034
-31.911	37.672	1357.947	1196.572
-30.896	37.826	1356.163	1195.903
-29.881	37.654	1354.989	1193.763
-28.867	37.645	1353.638	1192.472
-27.852	37.773	1351.774	1191.563
-26.838	37.917	1349.709	1190.577
-25.823	37.810	1348.679	1188.965
-24.809	37.841	1347.453	1188.025
-23.794	37.789	1346.191	1186.550
-22.779	37.832	1344.648	1185.408
-21.765	37.842	1343.089	1184.047
-20.750	37.709	1341.810	1182.064
-19.736	37.622	1340.714	1180.520
-18.721	37.635	1339.458	1179.451
-17.706	37.573	1337.981	1177.726
-16.692	37.523	1336.920	1176.442
-15.677	37.616	1335.565	1175.767
-14.663	37.514	1334.617	1174.266
-13.648	37.463	1333.797	1173.195
-12.633	37.541	1332.873	1172.806
-11.619	37.591	1331.386	1171.752
-10.604	37.647	1330.399	1171.172
-9.590	37.594	1329.506	1170.021
-8.575	37.667	1328.356	1169.402
-7.560	37.486	1327.770	1167.750
-6.546	37.483	1327.484	1167.432
-5.531	37.572	1325.939	1166.566
-4.517	37.513	1325.387	1165.675
-3.502	37.585	1324.042	1164.883
-2.487	37.572	1322.788	1163.656
-1.473	37.507	1319.331	1160.179
-0.458	36.311	1304.043	1139.632
0.556	30.155	1284.092	1096.142
1.571	25.849	1287.765	1073.585
2.586	24.621	1303.059	1078.828
3.600	23.580	1292.497	1063.755
4.615	16.672	1214.594	960.489
5.629	5.194	1130.667	833.097
6.644	-0.039	1106.648	787.945
7.659	-0.394	1103.643	783.883
8.673	-0.444	1101.765	782.217
9.688	-0.542	1100.820	780.967
10.702	-0.241	1099.080	781.228
11.717	5.900	1109.008	820.398
12.731	15.086	1122.152	878.446
13.746	17.354	1123.845	891.596
14.761	16.158	1121.852	883.671
15.775	15.800	1121.005	881.053
16.790	15.422	1119.740	878.005
17.804	15.346	1119.035	876.977
18.819	15.331	1118.963	876.764
19.834	15.301	1118.304	876.014
20.848	15.301	1117.359	875.197
21.863	15.198	1116.801	874.144
22.877	15.174	1116.028	873.338
23.892	15.165	1115.363	872.692
24.907	15.259	1114.303	872.275
25.921	15.243	1113.439	871.435
26.936	15.309	1111.986	870.568
27.950	15.172	1110.648	868.729
28.965	15.237	1108.095	866.993
29.980	15.149	1106.305	865.065
30.994	15.337	1105.344	865.202
32.009	15.455	1103.701	864.447
33.023	15.109	1102.555	861.697
34.038	15.314	1101.464	861.818
35.053	15.413	1100.563	861.546
36.067	15.438	1099.351	860.648
37.082	15.290	1099.257	859.740
38.096	15.502	1098.110	859.855
39.111	15.595	1097.020	859.402
40.126	15.334	1096.245	857.385
41.140	15.300	1093.616	855.077
42.155	15.188	1092.193	853.318
43.169	15.284	1090.896	852.719
44.184	15.052	1090.236	850.948
45.199	15.053	1088.793	849.751
46.213	15.108	1087.390	848.862
47.228	15.093	1086.488	848.005
48.242	15.057	1085.176	846.723
49.257	15.151	1084.465	846.569
50.271	15.235	1083.621	846.262
51.286	15.205	1082.465	845.133
52.301	15.278	1081.304	844.518
53.315	15.278	1080.141	843.535
54.330	15.259	1079.252	842.670
55.344	15.279	1078.180	841.860
56.359	15.231	1077.240	840.812
57.374	15.167	1076.251	839.643
58.388	15.208	1075.332	839.059
59.403	15.285	1074.196	838.483
60.417	15.148	1073.164	836.915
61.432	15.291	1072.575	837.096
62.447	15.250	1071.998	836.369
63.461	15.268	1071.121	835.699
64.476	15.249	1069.910	834.587
65.490	15.087	1068.925	832.936
66.505	15.241	1067.989	832.898
67.520	15.282	1067.003	832.262
68.534	15.152	1065.884	830.673
69.549	15.017	1065.160	829.365
70.563	14.995	1064.274	828.490
71.578	15.154	1063.272	828.424
72.593	14.912	1062.884	826.856
73.607	15.088	1061.879	826.870
74.622	15.265	1061.526	827.394
75.636	15.256	1060.442	826.431
76.651	15.045	1060.026	824.996
77.666	14.974	1058.928	823.714
78.680	15.126	1058.002	823.672
79.695	15.264	1057.374	823.788
80.709	15.172	1057.023	822.990
81.724	15.060	1056.271	821.782
82.739	15.164	1055.168	821.359
83.753	15.301	1054.185	821.192
84.768	15.373	1053.554	820.983
85.782	15.337	1052.437	819.860
86.797	15.374	1050.960	818.820
87.812	15.249	1049.961	817.361
88.826	15.354	1049.025	817.071
89.841	15.398	1048.259	816.613
90.855	15.470	1046.888	815.826
91.870	15.474	1046.029	815.102
92.884	15.168	1045.078	812.803
93.899	15.274	1043.988	812.398
94.914	15.386	1042.951	812.064
95.928	15.298	1041.881	810.732
96.943	15.204	1040.718	809.303
97.957	14.894	1039.231	806.577
98.972	14.811	1038.121	805.243
99.987	14.893	1037.601	805.168
101.001	15.277	1036.339	805.962
102.016	15.215	1036.020	805.346
103.030	15.000	1034.871	803.349
104.045	14.914	1033.536	801.826
105.060	14.966	1032.099	800.892
106.074	15.053	1031.603	800.854
107.089	15.306	1030.936	801.472
108.103	15.441	1029.774	801.143
109.118	15.326	1028.735	799.713
110.133	15.273	1027.849	798.704
111.147	15.185	1026.780	797.383
112.162	15.216	1025.593	796.539
113.176	15.179	1024.462	795.412
114.191	15.094	1023.848	794.464
115.206	14.948	1022.473	792.636
116.220	14.990	1021.733	792.191
117.235	15.119	1020.890	792.076
118.249	15.211	1019.980	791.732
119.264	15.216	1018.791	790.764
120.279	15.160	1018.031	789.843
121.293	15.301	1016.943	789.593
122.308	15.239	1016.344	788.762
123.322	15.252	1014.983	787.701
124.337	15.167	1012.946	785.649
125.352	14.845	1011.769	783.161
126.366	14.708	1010.693	781.618
127.381	15.159	1009.911	783.050
128.395	15.333	1009.363	783.370
129.410	15.494	1008.036	783.021
130.424	15.360	1007.194	781.673
131.439	15.207	1006.435	780.305
132.454	15.226	1005.154	779.330
133.468	15.371	1004.083	779.103
134.483	15.282	1003.579	778.230
135.497	15.455	1002.674	778.263
136.512	15.620	1001.492	778.040
137.527	15.538	1000.559	776.868
138.541	15.598	999.530	776.277
139.556	15.547	998.708	775.333
140.570	15.676	997.553	774.963
141.585	15.415	997.008	773.267
142.600	15.380	995.719	772.038
143.614	15.519	995.290	772.278
144.629	15.605	994.454	771.955
145.643	15.558	993.103	770.625
146.658	15.538	991.212	768.994
147.673	15.341	990.696	767.625
148.687	15.461	989.806	767.417
149.702	15.455	988.752	766.507
150.716	15.399	988.079	765.660
151.731	15.518	987.445	765.643
152.746	15.599	986.713	765.375
153.760	15.723	985.586	764.999
154.775	15.552	984.945	763.655
155.789	15.589	983.921	762.961
156.804	15.483	983.785	762.311
157.819	15.679	982.307	761.982
158.833	15.660	981.638	761.315
159.848	15.615	980.501	760.160
160.862	15.490	979.264	758.570
161.877	15.700	978.657	758.981
162.892	15.802	977.706	758.633
163.906	15.691	976.553	757.172
164.921	15.528	975.754	755.752
165.935	15.695	974.645	755.577
166.950	15.586	973.511	754.143
167.964	15.578	972.781	753.474
168.979	15.662	971.332	752.661
169.994	15.578	970.600	751.651
171.008	15.721	969.913	751.692
172.023	15.679	969.097	750.805
173.037	15.479	967.544	748.646
174.052	15.216	966.990	746.980
175.067	15.490	966.382	747.663
176.081	15.604	966.111	747.893
177.096	15.576	965.318	747.092
178.110	15.360	964.811	745.671
179.125	15.347	963.891	744.837
180.140	15.385	963.531	744.659
181.154	15.375	962.476	743.736
182.169	15.524	962.116	744.051
183.183	15.658	961.799	744.335
184.198	15.594	960.697	743.132
185.213	15.718	959.682	742.829
186.227	15.634	959.554	742.293
187.242	15.691	958.508	741.669
188.256	15.754	957.077	740.774
189.271	15.768	956.493	740.318
190.286	15.627	955.746	739.054
191.300	15.298	954.572	736.635
192.315	14.823	953.295	733.500
193.329	14.689	952.934	732.570
194.344	15.361	952.581	735.181
195.359	15.606	952.302	735.975
196.373	15.535	951.704	735.134
197.388	15.384	950.777	733.695
198.402	15.378	950.122	733.097
199.417	15.419	949.124	732.441
200.432	15.083	948.154	730.164
201.446	15.017	947.202	729.078
202.461	15.075	946.804	728.959
203.475	14.598	945.095	725.505
204.490	14.069	944.271	722.512
205.504	14.734	944.490	725.505
206.519	15.220	944.180	727.313
207.534	15.464	943.093	727.466
208.548	15.789	942.657	728.474
209.563	15.450	942.277	726.649
210.577	15.480	941.232	725.909
211.592	15.594	940.457	725.737
212.607	15.695	939.431	725.318
213.621	15.511	939.298	724.355
214.636	15.692	938.343	724.340
215.650	15.665	937.535	723.531
216.665	15.749	936.914	723.351
217.680	15.627	935.875	721.959
218.694	15.318	934.690	719.655
219.709	15.319	934.140	719.172
220.723	15.620	933.880	720.200
221.738	15.688	933.042	719.782
222.753	15.768	931.769	719.078
223.767	15.713	931.391	718.487
224.782	15.776	930.909	718.320
225.796	15.864	930.410	718.247
226.811	15.319	928.837	714.650
227.826	15.076	927.921	712.844
228.840	15.249	927.060	712.858
229.855	15.201	926.406	712.088
230.869	15.055	925.266	710.527
231.884	15.393	925.117	711.786
232.899	15.723	925.195	713.184
233.913	15.727	924.355	712.489
234.928	15.850	923.904	712.599
235.942	15.799	923.389	711.923
236.957	15.681	921.926	710.231
237.972	15.604	921.541	709.547
238.986	15.691	921.061	709.483
240.001	15.697	920.157	708.749
241.015	15.720	919.495	708.275
242.030	15.779	918.625	707.789
243.045	15.797	918.546	707.742
244.059	16.100	917.255	707.956
245.074	15.729	916.443	705.712
246.088	15.516	915.030	703.667
247.103	15.602	914.772	703.768
248.117	15.843	914.810	704.745
249.132	15.872	913.665	703.922
250.147	15.955	912.986	703.681
251.161	16.111	912.398	703.816
252.176	16.137	911.367	703.068
253.190	15.995	911.121	702.224
254.205	16.184	910.669	702.601
255.220	16.325	909.799	702.456
256.234	16.130	908.997	700.961
257.249	16.179	907.754	700.145
258.263	16.310	906.896	699.966
259.278	16.287	906.306	699.351
260.293	16.305	905.703	698.898
261.307	16.052	904.853	697.136
262.322	16.063	903.535	696.105
263.336	15.404	902.068	692.193
264.351	14.703	900.406	687.971
265.366	14.873	899.655	688.034
266.380	15.601	900.567	691.670
267.395	15.933	900.124	692.635
268.409	15.985	899.082	691.983
269.424	16.233	898.636	692.598
270.439	16.273	897.873	692.113
271.453	16.322	897.271	691.790
272.468	16.353	896.926	691.587
273.482	16.418	895.928	691.022
274.497	16.048	894.929	688.679
275.512	15.848	894.139	687.194
276.526	16.167	894.063	688.378
277.541	16.173	893.511	687.914
278.555	15.873	892.490	685.846
279.570	15.846	891.224	684.702
280.585	15.945	890.939	684.826
281.599	16.126	889.744	684.584
282.614	15.783	889.001	682.558
283.628	15.770	888.535	682.089
284.643	15.902	888.213	682.316
285.657	15.818	886.640	680.708
286.672	15.519	885.914	678.880
287.687	15.946	885.354	680.116
288.701	16.026	885.081	680.169
289.716	15.786	883.835	678.185
290.730	15.648	883.320	677.173
291.745	15.509	882.268	675.747
292.760	15.659	882.113	676.174
293.774	16.412	882.090	679.121
294.789	16.449	881.688	678.901
295.803	16.747	881.046	679.541
296.818	16.790	880.310	679.086
297.833	16.560	879.018	677.109
298.847	16.434	878.523	676.163
299.862	16.680	878.026	676.707
300.876	16.793	877.664	676.820
301.891	16.519	876.796	674.995
302.906	16.038	875.789	672.244
303.920	16.249	875.079	672.477
304.935	16.337	874.829	672.578
305.949	16.551	874.251	672.926
306.964	16.445	873.538	671.894
307.979	16.488	873.625	672.072
308.993	16.818	872.767	672.663
310.008	16.753	871.914	671.689
311.022	16.559	871.411	670.472
312.037	16.543	870.662	669.775
313.052	16.203	870.271	668.069
314.066	15.964	868.945	666.047
315.081	15.766	867.920	664.419
316.095	16.233	868.057	666.312
317.110	16.621	867.692	667.504
318.125	15.995	867.030	664.467
319.139	15.438	865.654	661.160
320.154	15.630	864.925	661.301
321.168	16.122	865.188	663.380
322.183	16.441	865.026	664.451
323.197	16.668	864.119	664.585
324.212	16.732	863.849	664.571
325.227	16.855	863.286	664.562
326.241	16.714	862.542	663.377
327.256	16.597	862.143	662.553
328.270	16.652	861.356	662.103
329.285	16.579	860.860	661.380
330.300	16.377	859.470	659.465
331.314	16.646	858.950	660.056
332.329	16.591	859.024	659.840
333.343	16.802	858.500	660.201
334.358	16.663	857.953	659.181
335.373	16.924	857.597	659.865
336.387	16.938	857.427	659.732
337.402	17.034	857.015	659.730
338.416	16.862	856.113	658.308
339.431	16.723	855.906	657.549
340.446	16.963	855.414	658.046
341.460	16.790	854.957	656.965
342.475	16.772	854.314	656.343
343.489	16.677	854.258	655.873
344.504	16.998	853.735	656.659
345.519	17.164	853.195	656.824
346.533	17.125	852.732	656.261
347.548	17.247	852.307	656.347
348.562	17.348	851.295	655.898
349.577	17.201	851.268	655.251
350.592	17.347	850.248	654.974
351.606	17.248	850.084	654.407
352.621	17.132	849.181	653.206
353.635	17.131	848.152	652.355
354.650	16.748	846.314	649.413
355.665	16.082	845.671	646.311
356.679	16.300	845.253	646.772
357.694	16.494	845.075	647.318
358.708	16.662	844.164	647.206
359.723	17.047	843.901	648.418
360.738	17.178	843.592	648.624
361.752	17.216	842.754	648.067
362.767	17.321	842.061	647.876
363.781	17.497	841.756	648.256
364.796	17.508	841.836	648.302
365.810	17.607	840.955	647.941
366.825	17.466	840.636	647.105
367.840	17.240	839.848	645.581
368.854	17.198	838.808	644.567
369.869	17.173	838.655	644.297
370.883	17.295	838.178	644.336
371.898	17.061	837.459	642.840
372.913	17.101	837.199	642.734
373.927	17.266	836.602	642.844
374.942	17.316	836.572	642.951
375.956	17.332	835.908	642.445
376.971	17.312	835.894	642.301
377.986	17.564	835.144	642.619
379.000	17.568	834.417	642.020
380.015	17.273	834.243	640.715
381.029	17.402	833.538	640.603
382.044	17.401	832.900	640.053
383.059	17.300	832.243	639.111
384.073	17.498	831.682	639.370
385.088	17.718	831.209	639.775
386.102	17.551	830.859	638.823
387.117	17.624	829.933	638.327
388.132	17.420	829.100	636.867
389.146	16.923	828.486	634.476
390.161	17.123	827.555	634.457
391.175	17.309	827.205	634.828
392.190	17.184	826.628	633.862
393.205	16.721	825.088	630.899
394.219	15.743	824.182	626.509
395.234	15.804	824.004	626.546
396.248	16.669	824.397	630.012
397.263	17.483	824.942	633.401
398.278	17.729	824.531	633.945
399.292	17.606	823.876	632.928
400.307	17.525	823.836	632.538
401.321	17.536	823.601	632.344
402.336	17.737	822.836	632.445
403.350	17.851	822.542	632.587
404.365	17.997	821.697	632.423
405.380	17.883	821.670	631.925
406.394	18.053	820.816	631.841
407.409	17.872	820.325	630.737
408.423	17.725	820.159	630.011
409.438	17.870	819.598	630.060
410.453	18.017	819.312	630.327
411.467	18.129	818.469	630.033
412.482	18.056	818.560	629.779
413.496	18.152	817.839	629.520
414.511	18.118	817.576	629.140
415.526	18.074	817.235	628.660
416.540	18.049	816.215	627.727
417.555	17.733	815.458	625.931
418.569	17.852	815.236	626.139
419.584	17.812	815.026	625.778
420.599	17.683	814.491	624.838
421.613	150.510	1358.185	1778.768
422.628	131.003	1437.417	1778.905
