DTS Sentinel unit serial number:	SN413079Multiplexer serial number:	ORYXHardware model number:	OX4-SRSoftware version number:	ORYX F/W v4.00 Oryx Data Collector v3.7.2.0data status	okinstallation	princeton_trtdifferential loss correction	single-endedforward channel	channel 1reverse channel	N/Adate	2019/09/12time	06:00:11forward acquisition time	60.00reverse acquisition time	0.00gamma	496.2192k internal	0.2320k external	0.2320temperature offset calibration	1.0046default loss term (dB/km)	0.3790temperature slope calibration	1.0000multiplexer offset coefficient	1.0000multiplexer slope coefficient	1.0000fibre end	0.00T internal ref (°C)	32.08T ext. ref 1 (°C)	1.57T ext. ref 2 (°C)	27.40length (m)	temperature (°C)	Stokes	anti-Stokes-747.200	800.000	0.176	0.505
-746.185	-86.409	-0.203	0.063
-745.171	641.275	-0.070	0.181
-744.156	-200.000	0.061	0.328
-743.142	-69.173	-0.329	-0.128
-742.127	800.000	0.058	0.182
-741.112	-69.481	-0.186	-0.072
-740.098	-89.210	-0.087	0.026
-739.083	329.548	0.099	0.193
-738.069	-66.102	0.125	0.050
-737.054	-108.338	-0.237	0.052
-736.039	-200.000	0.024	-0.221
-735.025	-70.996	0.481	0.183
-734.010	95.457	-0.117	0.135
-732.996	45.432	-0.176	-0.164
-731.981	-42.993	0.070	0.036
-730.966	24.873	-0.395	-0.331
-729.952	-200.000	0.033	-0.218
-728.937	-55.421	-0.242	-0.109
-727.923	800.000	-0.072	-0.253
-726.908	-147.269	-0.089	0.008
-725.894	-200.000	0.001	-0.135
-724.879	800.000	0.049	-0.215
-723.864	-200.000	-0.004	0.122
-722.850	800.000	0.040	0.113
-721.835	-37.634	0.062	0.033
-720.821	-31.870	0.180	0.102
-719.806	256.956	0.003	0.004
-718.791	85.648	-0.034	0.038
-717.777	-65.312	-0.267	-0.108
-716.762	-200.000	-0.026	-0.218
-715.748	-118.072	-0.368	0.066
-714.733	-200.000	-0.062	-0.469
-713.718	380.625	-0.065	0.135
-712.704	-183.172	0.212	0.004
-711.689	-14.321	-0.220	0.143
-710.675	-82.086	-0.433	0.143
-709.660	-124.703	-0.368	0.058
-708.645	-93.067	-0.260	0.073
-707.631	800.000	-0.059	0.229
-706.616	-200.000	0.026	-0.561
-705.602	-59.758	0.251	0.109
-704.587	800.000	0.026	0.109
-703.572	260.896	0.340	-0.594
-702.558	65.024	0.089	-0.090
-701.543	56.763	-0.134	-0.132
-700.529	-62.490	0.031	-0.013
-699.514	54.527	-0.112	0.109
-698.499	-200.000	0.042	-0.350
-697.485	38.245	-0.503	-0.452
-696.470	126.009	0.199	0.254
-695.456	-145.276	-0.190	-0.017
-694.441	-9.086	-0.060	-0.041
-693.426	-53.959	-0.130	-0.060
-692.412	-138.456	-0.303	-0.034
-691.397	233.818	0.060	0.099
-690.383	-84.002	-0.226	-0.072
-689.368	372.100	-0.074	0.152
-688.354	800.000	-0.040	-0.132
-687.339	356.024	0.229	-0.459
-686.324	-87.798	0.100	0.030
-685.310	35.877	-0.178	-0.158
-684.295	-140.114	0.069	0.007
-683.281	-140.494	-0.219	-0.023
-682.266	461.099	0.143	-0.321
-681.251	-200.000	0.012	-0.066
-680.237	-105.684	-0.245	0.056
-679.222	151.981	-0.214	-0.294
-678.208	800.000	0.050	-0.159
-677.193	800.000	-0.039	0.126
-676.178	-86.725	-0.276	-0.085
-675.164	315.652	-0.101	0.192
-674.149	-67.424	-0.285	-0.113
-673.135	544.300	-0.083	-0.199
-672.120	800.000	0.089	-0.299
-671.105	800.000	0.093	-0.286
-670.091	-200.000	-0.037	-0.180
-669.076	666.147	-0.138	0.358
-668.062	800.000	0.045	-0.142
-667.047	160.560	0.009	-0.012
-666.032	-49.141	0.217	-0.105
-665.018	-31.706	0.066	-0.037
-664.003	800.000	0.025	-0.107
-662.989	-29.449	-0.354	-0.204
-661.974	-200.000	-0.093	0.421
-660.959	-147.428	-0.346	-0.029
-659.945	-200.000	0.027	-0.246
-658.930	-122.423	0.104	-0.017
-657.916	432.596	-0.165	0.360
-656.901	21.462	-0.207	0.170
-655.886	385.537	0.087	-0.180
-654.872	-70.906	-0.279	-0.106
-653.857	162.450	-0.072	0.102
-652.843	236.608	0.086	-0.143
-651.828	-200.000	-0.026	-0.133
-650.814	-55.699	-0.206	0.093
-649.799	591.052	0.148	0.367
-648.784	29.843	0.136	0.116
-647.770	-138.234	0.030	0.003
-646.755	-130.344	-0.107	-0.015
-645.741	-49.144	-0.333	0.160
-644.726	-200.000	-0.031	-0.182
-643.711	-200.000	-0.037	-0.167
-642.697	-106.962	0.224	0.050
-641.682	-191.611	-0.302	0.003
-640.668	120.335	0.156	0.195
-639.653	128.998	-0.090	0.115
-638.638	64.482	-0.175	0.178
-637.624	-63.997	-0.169	0.069
-636.609	-56.053	-0.187	0.084
-635.595	-75.472	-0.394	0.141
-634.580	14.456	-0.185	0.145
-633.565	38.869	-0.087	0.078
-632.551	-138.488	-0.087	-0.010
-631.536	2.856	-0.148	0.108
-630.522	12.687	0.149	-0.116
-629.507	800.000	-0.038	0.115
-628.492	-86.379	0.167	0.052
-627.478	800.000	0.050	0.138
-626.463	13.022	0.128	-0.100
-625.449	-200.000	0.000	-0.179
-624.434	107.835	-0.195	0.234
-623.419	-19.998	0.274	0.170
-622.405	-200.000	0.011	-0.355
-621.390	493.164	0.086	-0.198
-620.376	118.671	0.170	0.211
-619.361	-200.000	-0.004	-0.085
-618.346	-27.417	-0.181	-0.106
-617.332	-105.590	-0.269	-0.061
-616.317	-108.813	0.302	-0.065
-615.303	-120.089	-0.191	-0.033
-614.288	800.000	-0.100	0.311
-613.273	159.241	-0.118	-0.166
-612.259	-139.108	-0.169	-0.018
-611.244	271.364	-0.178	-0.315
-610.230	-106.354	-0.150	0.034
-609.215	-43.008	-0.201	0.103
-608.201	800.000	0.124	-0.351
-607.186	-200.000	0.030	-0.180
-606.171	-119.625	-0.216	-0.037
-605.157	400.214	0.087	-0.184
-604.142	-45.523	-0.114	-0.057
-603.128	-200.000	-0.010	-0.140
-602.113	800.000	-0.124	-0.364
-601.098	11.482	0.135	0.104
-600.084	-63.044	0.208	-0.086
-599.069	222.797	-0.140	0.226
-598.055	167.046	-0.180	-0.256
-597.040	174.406	-0.106	0.155
-596.025	554.485	-0.082	0.199
-595.011	-72.240	-0.266	0.099
-593.996	-143.404	-0.483	-0.046
-592.982	-12.330	-0.083	0.055
-591.967	69.520	0.244	0.252
-590.952	175.046	-0.129	0.188
-589.938	-6.532	0.165	0.113
-588.923	270.110	0.099	0.174
-587.909	-59.051	0.269	0.117
-586.894	-43.040	0.100	0.051
-585.879	-56.867	0.061	0.027
-584.865	-107.376	-0.317	-0.070
-583.850	639.766	-0.109	-0.279
-582.836	369.071	-0.055	-0.112
-581.821	800.000	-0.114	0.382
-580.806	-143.984	0.136	-0.013
-579.792	-132.316	-0.358	0.047
-578.777	-131.193	0.072	-0.010
-577.763	-200.000	-0.003	-0.115
-576.748	800.000	0.091	0.324
-575.733	-200.000	0.003	0.095
-574.719	35.444	0.076	0.067
-573.704	-200.000	-0.032	-0.173
-572.690	101.631	-0.109	-0.128
-571.675	800.000	-0.024	-0.075
-570.661	-200.000	0.034	0.156
-569.646	171.054	-0.188	0.270
-568.631	-200.000	-0.028	-0.291
-567.617	800.000	-0.143	-0.422
-566.602	-87.591	0.224	0.068
-565.588	59.679	0.008	0.008
-564.573	-27.409	-0.092	-0.054
-563.558	-36.939	-0.294	0.158
-562.544	-200.000	0.022	-0.115
-561.529	-15.326	0.188	-0.121
-560.515	35.392	-0.067	-0.059
-559.500	21.599	-0.084	-0.069
-558.485	140.280	-0.326	-0.431
-557.471	-21.354	0.223	-0.137
-556.456	-137.392	-0.191	-0.022
-555.442	242.826	0.037	-0.063
-554.427	-157.770	-0.367	0.022
-553.412	401.997	-0.134	0.284
-552.398	-79.408	-0.077	-0.026
-551.383	-200.000	0.042	0.196
-550.369	800.000	-0.055	0.169
-549.354	2.272	0.373	0.271
-548.339	235.704	-0.149	-0.247
-547.325	800.000	0.035	-0.111
-546.310	66.331	0.106	-0.108
-545.296	51.972	-0.241	-0.231
-544.281	143.612	0.120	-0.160
-543.266	-200.000	-0.016	-0.209
-542.252	-30.946	0.209	-0.118
-541.237	35.249	-0.107	0.094
-540.223	-200.000	0.014	-0.416
-539.208	406.742	0.041	0.086
-538.193	72.099	-0.096	-0.100
-537.179	-200.000	0.043	0.330
-536.164	49.959	-0.068	0.064
-535.150	21.540	-0.047	0.039
-534.135	-130.896	-0.168	0.023
-533.121	-200.000	0.052	-0.232
-532.106	800.000	-0.009	-0.027
-531.091	711.652	-0.077	0.204
-530.077	-200.000	-0.003	-0.144
-529.062	270.435	-0.195	-0.344
-528.048	289.158	-0.097	0.176
-527.033	-18.801	-0.054	-0.034
-526.018	-200.000	0.025	-0.508
-525.004	-149.854	0.196	0.015
-523.989	-200.000	-0.010	0.099
-522.975	377.399	-0.087	0.178
-521.960	-153.247	0.362	-0.025
-520.945	-200.000	-0.005	0.144
-519.931	111.968	0.183	-0.222
-518.916	435.938	0.065	0.142
-517.902	-200.000	0.036	-0.177
-516.887	-7.806	-0.011	0.008
-515.872	-200.000	0.013	-0.179
-514.858	-72.721	0.169	0.062
-513.843	140.735	-0.103	-0.137
-512.829	-43.246	0.209	-0.106
-511.814	739.411	-0.156	-0.419
-510.799	465.592	-0.107	0.241
-509.785	-71.827	0.347	-0.130
-508.770	-128.550	-0.256	-0.036
-507.756	448.614	0.140	-0.310
-506.741	800.000	0.044	-0.184
-505.726	359.498	0.042	-0.085
-504.712	12.254	-0.174	-0.134
-503.697	63.664	0.250	-0.252
-502.683	-141.708	-0.057	-0.006
-501.668	-145.572	-0.115	0.010
-500.653	-26.312	-0.040	-0.023
-499.639	645.228	0.052	0.133
-498.624	270.197	-0.083	0.147
-497.610	240.206	-0.225	0.375
-496.595	-200.000	0.008	0.083
-495.581	-200.000	0.014	0.125
-494.566	-59.538	-0.177	-0.076
-493.551	151.286	0.078	-0.106
-492.537	-85.401	0.220	-0.069
-491.522	-200.000	0.001	0.026
-490.508	-200.000	0.018	0.269
-489.493	3.762	0.330	0.241
-488.478	800.000	0.046	-0.142
-487.464	-134.048	0.269	-0.033
-486.449	-200.000	0.008	0.257
-485.435	216.423	0.102	-0.162
-484.420	-63.165	-0.282	-0.117
-483.405	493.976	-0.102	0.235
-482.391	-200.000	-0.001	-0.222
-481.376	-200.000	0.006	-0.136
-480.362	-200.000	0.008	-0.233
-479.347	18.770	0.203	-0.163
-478.332	-162.095	0.134	0.007
-477.318	175.815	0.139	0.203
-476.303	563.619	0.162	0.392
-475.289	-21.112	0.043	0.026
-474.274	82.833	-0.111	-0.121
-473.259	-147.505	-0.363	-0.031
-472.245	64.489	0.172	0.173
-471.230	168.092	0.117	0.167
-470.216	-200.000	0.018	0.083
-469.201	-80.155	0.240	0.080
-468.186	800.000	0.018	-0.072
-467.172	-124.779	0.091	-0.014
-466.157	99.030	0.134	0.155
-465.143	41.555	0.162	-0.147
-464.128	-159.252	0.157	-0.009
-463.113	-57.727	-0.164	0.072
-462.099	67.512	0.215	0.220
-461.084	436.531	0.020	-0.044
-460.070	-200.000	0.075	-0.364
-459.055	-200.000	-0.001	-0.371
-458.040	-58.842	0.207	0.089
-457.026	-200.000	0.001	0.141
-456.011	-200.000	-0.001	-0.078
-454.997	-28.272	-0.247	-0.143
-453.982	275.641	-0.236	-0.419
-452.968	-200.000	-0.020	-0.269
-451.953	221.548	-0.136	0.218
-450.938	508.016	0.062	-0.143
-449.924	44.293	-0.211	-0.194
-448.909	520.786	-0.088	0.205
-447.895	42.995	-0.222	-0.202
-446.880	-92.983	0.172	-0.048
-445.865	-187.644	0.117	0.002
-444.851	800.000	0.024	0.096
-443.836	50.913	-0.354	0.335
-442.822	-200.000	0.018	0.304
-441.807	-17.796	0.051	0.032
-440.792	-152.682	0.095	0.007
-439.778	201.706	-0.062	-0.095
-438.763	51.207	0.121	0.115
-437.749	134.532	-0.059	0.077
-436.734	-100.998	0.155	-0.038
-435.719	1.063	-0.146	0.105
-434.705	749.662	-0.060	0.162
-433.690	800.000	0.069	-0.250
-432.676	-200.000	-0.018	-0.139
-431.661	82.493	0.225	-0.243
-430.646	-200.000	-0.003	0.167
-429.632	122.679	-0.163	0.204
-428.617	-12.881	-0.133	0.086
-427.603	1.634	-0.093	0.067
-426.588	800.000	0.014	0.047
-425.573	146.349	-0.092	-0.124
-424.559	207.930	0.104	0.162
-423.544	-89.119	-0.235	-0.069
-422.530	98.796	0.087	-0.100
-421.515	24.315	0.111	0.091
-420.500	94.860	0.225	0.255
-419.486	7.098	-0.165	-0.123
-418.471	-87.443	0.139	-0.042
-417.457	-92.400	-0.571	0.160
-416.442	101.787	-0.273	-0.318
-415.428	-9.559	0.331	0.221
-414.413	-140.821	-0.051	0.005
-413.398	-200.000	0.022	-0.460
-412.384	-200.000	0.027	-0.138
-411.369	-32.112	0.268	0.150
-410.355	-200.000	0.005	0.220
-409.340	489.887	0.032	-0.073
-408.325	153.500	0.071	-0.097
-407.311	-200.000	-0.005	0.391
-406.296	84.185	0.101	0.110
-405.282	-54.236	0.260	-0.118
-404.267	-101.962	-0.254	0.061
-403.252	800.000	-0.041	0.125
-402.238	217.735	0.156	0.249
-401.223	233.728	0.104	0.171
-400.209	-200.000	-0.074	-0.355
-399.194	53.373	-0.141	-0.135
-398.179	69.651	0.073	0.075
-397.165	-111.580	0.200	-0.041
-396.150	-62.735	-0.355	0.147
-395.136	5.563	-0.146	0.107
-394.121	-200.000	-0.021	0.349
-393.106	27.668	0.146	0.122
-392.092	-200.000	-0.006	0.069
-391.077	118.850	0.249	-0.307
-390.063	-43.018	-0.149	0.075
-389.048	274.665	-0.035	-0.061
-388.033	375.248	0.091	-0.185
-387.019	139.605	-0.094	0.124
-386.004	-200.000	-0.052	-0.356
-384.990	115.829	-0.251	-0.306
-383.975	-186.162	0.218	0.003
-382.960	-200.000	-0.035	-0.218
-381.946	800.000	-0.082	-0.229
-380.931	154.181	0.146	-0.199
-379.917	-200.000	-0.047	0.276
-378.902	800.000	0.037	0.147
-377.888	-167.247	-0.315	-0.013
-376.873	74.189	-0.072	0.075
-375.858	800.000	0.033	0.139
-374.844	10.715	-0.360	0.274
-373.829	-195.022	-0.300	0.002
-372.815	178.953	0.126	0.183
-371.800	-200.000	-0.010	0.182
-370.785	-53.014	0.178	0.082
-369.771	-152.413	0.040	0.003
-368.756	-112.743	0.264	-0.052
-367.742	769.868	-0.042	-0.115
-366.727	23.133	0.172	0.141
-365.712	-200.000	0.035	0.179
-364.698	31.907	0.155	-0.133
-363.683	800.000	-0.044	0.146
-362.669	635.112	0.014	-0.036
-361.654	32.290	-0.120	0.104
-360.639	70.711	0.209	0.216
-359.625	-142.521	-0.127	0.012
-358.610	611.677	0.087	0.217
-357.596	-37.405	0.299	0.159
-356.581	-113.160	-0.253	0.050
-355.566	427.442	0.088	0.190
-354.552	-39.076	0.028	0.015
-353.537	-200.000	-0.009	0.082
-352.523	-200.000	-0.044	-0.265
-351.508	-55.593	-0.340	0.152
-350.493	-200.000	0.036	0.201
-349.479	-19.476	-0.151	-0.093
-348.464	800.000	0.045	-0.131
-347.450	6.289	0.148	-0.110
-346.435	389.924	-0.020	-0.041
-345.420	-8.307	-0.260	-0.174
-344.406	230.531	0.086	0.140
-343.391	800.000	-0.042	-0.158
-342.377	800.000	-0.046	-0.169
-341.362	-88.369	0.371	0.110
-340.348	800.000	0.054	-0.201
-339.333	-37.815	0.123	0.065
-338.318	800.000	0.048	-0.189
-337.304	800.000	-0.006	-0.025
-336.289	-141.058	-0.401	-0.041
-335.275	800.000	-0.067	-0.238
-334.260	-200.000	0.014	0.071
-333.245	69.005	0.223	0.228
-332.231	-143.183	-0.241	-0.023
-331.216	800.000	0.082	-0.240
-330.202	328.691	-0.021	-0.040
-329.187	-200.000	0.020	-0.128
-328.172	496.885	-0.130	-0.298
-327.158	29.733	0.062	0.053
-326.143	459.122	0.017	0.038
-325.129	147.186	0.053	-0.070
-324.114	-4.414	-0.270	-0.186
-323.099	11.473	-0.034	0.026
-322.085	-42.126	-0.076	0.039
-321.070	34.958	-0.137	0.120
-320.056	7.535	0.096	0.071
-319.041	-120.267	-0.258	0.044
-318.026	783.600	0.050	0.137
-317.012	717.297	0.112	0.295
-315.997	82.742	0.174	0.188
-314.983	-200.000	0.002	0.058
-313.968	-200.000	0.043	0.291
-312.953	457.110	-0.112	-0.248
-311.939	70.222	0.213	0.219
-310.924	-61.716	0.355	0.148
-309.910	8.119	-0.414	0.309
-308.895	210.024	0.110	0.171
-307.880	103.801	-0.027	-0.032
-306.866	167.902	-0.060	0.085
-305.851	800.000	-0.085	0.337
-304.837	-31.244	0.347	-0.195
-303.822	-139.404	0.265	-0.028
-302.807	-15.281	-0.218	-0.138
-301.793	6.946	-0.039	-0.029
-300.778	-39.594	0.424	-0.220
-299.764	59.701	-0.178	-0.175
-298.749	86.291	0.147	0.161
-297.735	800.000	-0.026	0.107
-296.720	15.061	0.187	0.146
-295.705	116.250	0.158	-0.193
-294.691	417.534	-0.114	0.243
-293.676	-108.496	-0.090	-0.019
-292.662	52.240	-0.258	0.245
-291.647	-91.839	-0.321	-0.090
-290.632	-108.147	-0.192	-0.041
-289.618	-200.000	0.035	0.418
-288.603	-143.832	0.385	0.036
-287.589	-7.563	0.312	0.210
-286.574	-82.073	0.276	-0.090
-285.559	-40.743	0.134	-0.069
-284.545	-92.872	-0.533	-0.148
-283.530	-121.928	0.302	-0.049
-282.516	71.202	0.028	0.029
-281.501	346.195	0.133	-0.259
-280.486	-25.808	-0.107	0.063
-279.472	143.581	-0.162	-0.215
-278.457	-200.000	0.033	-0.201
-277.443	-200.000	0.000	-0.438
-276.428	434.072	0.067	0.145
-275.413	-18.218	0.376	0.233
-274.399	452.774	-0.034	-0.074
-273.384	-122.190	0.423	0.069
-272.370	-132.374	-0.197	0.025
-271.355	514.602	-0.163	-0.378
-270.340	-200.000	-0.020	-0.144
-269.326	-56.562	-0.378	0.166
-268.311	289.570	0.109	0.196
-267.297	424.814	-0.176	-0.377
-266.282	800.000	0.043	-0.177
-265.267	88.951	0.214	0.236
-264.253	29.079	0.331	-0.278
-263.238	-200.000	0.044	-0.386
-262.224	34.972	-0.233	-0.203
-261.209	159.453	-0.199	-0.275
-260.195	800.000	-0.086	0.298
-259.180	-88.722	0.094	-0.028
-258.165	-13.867	-0.040	-0.026
-257.151	112.358	0.133	0.159
-256.136	-171.192	-0.157	0.005
-255.122	-200.000	-0.004	0.160
-254.107	547.031	-0.086	0.203
-253.092	110.581	-0.213	-0.254
-252.078	130.960	0.086	-0.110
-251.063	-29.749	0.136	-0.077
-250.049	-200.000	0.057	0.388
-249.034	-116.890	-0.336	-0.061
-248.019	186.816	0.161	-0.238
-247.005	422.765	-0.099	-0.211
-245.990	46.825	0.246	0.227
-244.976	-200.000	0.015	0.162
-243.961	-129.206	0.348	0.048
-242.946	106.018	0.178	-0.209
-241.932	-75.566	0.271	-0.095
-240.917	14.089	0.509	0.393
-239.903	-69.856	0.087	-0.033
-238.888	28.851	0.286	-0.240
-237.873	800.000	-0.082	0.237
-236.859	-37.824	-0.239	0.126
-235.844	-35.593	-0.179	-0.096
-234.830	13.176	-0.120	0.092
-233.815	-21.218	0.120	0.073
-232.800	14.950	0.015	-0.012
-231.786	800.000	-0.127	0.380
-230.771	642.677	-0.028	0.071
-229.757	-200.000	0.023	0.205
-228.742	314.244	0.205	-0.382
-227.727	800.000	0.051	0.167
-226.713	66.955	0.074	-0.074
-225.698	-200.000	0.010	-0.052
-224.684	-200.000	-0.038	-0.242
-223.669	-106.286	-0.136	-0.030
-222.655	281.632	0.130	-0.231
-221.640	610.515	0.109	-0.270
-220.625	38.971	-0.143	-0.127
-219.611	332.862	0.062	0.120
-218.596	256.873	-0.075	0.128
-217.582	303.708	0.092	0.168
-216.567	-9.582	0.089	-0.059
-215.552	38.785	-0.117	-0.104
-214.538	692.638	0.129	-0.336
-213.523	-177.314	0.452	-0.011
-212.509	-200.000	0.010	0.105
-211.494	-60.168	-0.386	0.163
-210.479	-200.000	0.019	0.305
-209.465	72.219	-0.163	0.168
-208.450	-200.000	-0.016	0.545
-207.436	135.646	0.190	0.244
-206.421	-200.000	-0.007	0.077
-205.406	23.038	0.082	0.066
-204.392	800.000	-0.009	0.031
-203.377	-137.687	-0.236	-0.026
-202.363	277.748	-0.149	0.262
-201.348	-21.962	-0.261	0.157
-200.333	-57.506	-0.364	0.158
-199.319	18.067	0.121	-0.096
-198.304	344.854	0.092	0.179
-197.290	465.561	-0.051	-0.113
-196.275	-200.000	0.042	0.233
-195.260	-149.728	0.167	-0.013
-194.246	-200.000	-0.020	-0.478
-193.231	-65.581	0.097	-0.039
-192.217	10.737	0.381	0.287
-191.202	-193.281	0.195	0.002
-190.187	65.350	0.085	0.085
-189.173	35.286	0.125	-0.108
-188.158	-89.546	-0.117	-0.034
-187.144	-39.084	0.137	-0.071
-186.129	399.845	0.076	-0.157
-185.114	-200.000	-0.032	-0.265
-184.100	744.236	-0.045	0.120
-183.085	240.903	0.124	0.204
-182.071	26.238	0.214	0.177
-181.056	-124.621	0.291	0.045
-180.042	-171.703	-0.016	-0.001
-179.027	128.661	0.210	0.264
-178.012	-23.882	0.158	-0.094
-176.998	22.519	-0.210	-0.170
-175.983	800.000	0.066	0.188
-174.969	9.905	-0.259	0.194
-173.954	-147.494	0.326	0.027
-172.939	800.000	-0.065	-0.192
-171.925	-108.564	0.274	0.058
-170.910	-200.000	0.007	-0.033
-169.896	698.768	-0.236	-0.613
-168.881	-200.000	-0.009	0.175
-167.866	146.136	-0.126	0.167
-166.852	-200.000	0.031	-0.283
-165.837	228.163	-0.088	-0.142
-164.823	-200.000	-0.002	-0.215
-163.808	800.000	0.049	0.172
-162.793	154.720	0.047	-0.064
-161.779	-200.000	0.013	-0.093
-160.764	-134.880	-0.199	-0.024
-159.750	-200.000	0.022	-0.413
-158.735	197.975	-0.099	-0.150
-157.720	-134.626	-0.202	-0.024
-156.706	-33.332	0.116	-0.064
-155.691	653.005	0.035	0.090
-154.677	-49.601	0.049	-0.023
-153.662	-146.361	0.090	-0.008
-152.647	-200.000	-0.004	0.030
-151.633	758.747	0.086	0.231
-150.618	-200.000	-0.005	0.393
-149.604	-128.375	0.557	-0.078
-148.589	6.054	0.028	0.021
-147.574	-81.638	-0.178	-0.058
-146.560	9.749	-0.157	-0.118
-145.545	-200.000	-0.010	-0.166
-144.531	154.630	-0.433	-0.588
-143.516	-44.823	0.365	0.180
-142.502	150.718	-0.136	-0.183
-141.487	-200.000	-0.031	-0.159
-140.472	-135.507	0.169	-0.020
-139.458	-42.556	0.519	-0.261
-138.443	-200.000	0.042	-0.263
-137.429	-27.112	0.199	0.114
-136.414	-149.528	-0.255	0.020
-135.399	157.373	0.034	0.046
-134.385	89.050	-0.146	-0.160
-133.370	704.468	-0.111	-0.290
-132.356	-64.391	-0.362	-0.146
-131.341	177.456	-0.280	-0.403
-130.326	-200.000	-0.008	-0.253
-129.312	26.865	0.255	0.211
-128.297	-200.000	-0.004	0.102
-127.283	80.003	0.186	0.197
-126.268	127.557	0.120	-0.150
-125.253	-69.107	0.200	-0.076
-124.239	-45.230	0.171	-0.084
-123.224	389.713	-0.021	-0.043
-122.210	800.000	-0.055	0.162
-121.195	-82.639	0.280	0.090
-120.180	-91.290	0.411	0.116
-119.166	-136.115	0.112	-0.013
-118.151	-200.000	-0.008	0.117
-117.137	287.538	-0.250	0.446
-116.122	-55.972	-0.183	-0.081
-115.107	468.543	-0.182	0.403
-114.093	-43.302	-0.150	-0.075
-113.078	14.361	-0.177	0.136
-112.064	69.204	-0.242	-0.245
-111.049	-12.297	0.399	-0.257
-110.034	-200.000	-0.002	0.166
-109.020	87.300	0.107	0.117
-108.005	-65.307	0.163	0.065
-106.991	800.000	0.134	0.382
-105.976	82.801	-0.188	0.202
-104.962	109.336	0.184	-0.218
-103.947	-200.000	0.021	-0.371
-102.932	800.000	-0.092	-0.294
-101.918	-200.000	-0.004	0.091
-100.903	-200.000	0.012	0.327
-99.889	-29.316	-0.084	-0.047
-98.874	800.000	0.075	0.286
-97.859	104.633	-0.079	-0.091
-96.845	800.000	0.059	0.255
-95.830	-200.000	0.005	0.286
-94.816	-109.418	0.375	-0.078
-93.801	-109.335	0.376	0.079
-92.786	332.887	0.024	-0.045
-91.772	641.628	0.054	0.136
-90.757	-6.795	-0.115	0.077
-89.743	800.000	-0.031	0.119
-88.728	109.049	0.185	-0.218
-87.713	-200.000	0.044	-0.409
-86.699	-200.000	0.025	-0.283
-85.684	81.051	0.081	0.086
-84.670	392.673	-0.050	-0.102
-83.655	93.065	-0.105	0.117
-82.640	-200.000	-0.012	-0.146
-81.626	34.348	-0.177	-0.152
-80.611	-27.755	0.065	-0.037
-79.597	-88.965	0.178	0.052
-78.582	31.816	-0.074	-0.063
-77.567	-84.120	-0.382	0.120
-76.553	-117.352	-0.389	-0.069
-75.538	-67.071	-0.137	-0.053
-74.524	398.637	0.066	0.136
-73.509	160.572	0.136	-0.187
-72.494	-200.000	-0.007	-0.100
-71.480	62.214	-0.107	-0.106
-70.465	-200.000	0.031	-0.437
-69.451	-57.341	0.085	0.037
-68.436	262.013	-0.027	0.046
-67.422	-146.734	0.109	0.009
-66.407	429.833	-0.034	-0.072
-65.392	-200.000	0.026	-0.196
-64.378	20.792	-0.040	-0.032
-63.363	-70.417	-0.072	0.027
-62.349	-138.753	0.182	0.020
-61.334	44.086	-1.019	-0.920
-60.319	403.605	0.255	0.528
-59.305	800.000	-0.244	-0.702
-58.290	103.780	0.757	0.875
-57.276	613.377	0.607	1.496
-56.261	-200.000	95.756	595.106
-55.246	565.124	1371.668	3272.561
-54.232	161.185	2549.275	3507.093
-53.217	113.394	2141.598	2558.036
-52.203	44.030	1603.418	1446.355
-51.188	35.655	1341.306	1159.610
-50.173	32.460	1299.472	1104.685
-49.159	54.470	1347.163	1277.168
-48.144	56.644	1363.660	1305.725
-47.130	35.655	1322.440	1143.114
-46.115	32.186	1305.084	1107.662
-45.100	31.953	1300.122	1102.038
-44.086	31.975	1297.350	1099.773
-43.071	32.012	1295.170	1098.097
-42.057	31.892	1292.946	1095.468
-41.042	31.977	1291.085	1094.341
-40.027	32.002	1289.983	1093.513
-39.013	31.951	1288.333	1091.773
-37.998	31.989	1286.252	1090.184
-36.984	32.115	1284.182	1089.117
-35.969	32.199	1282.333	1087.995
-34.954	32.133	1281.052	1086.482
-33.940	32.049	1280.090	1085.137
-32.925	32.096	1278.546	1084.059
-31.911	32.175	1276.678	1082.887
-30.896	32.212	1274.983	1081.617
-29.881	32.162	1273.921	1080.386
-28.867	32.196	1272.349	1079.206
-27.852	32.239	1270.446	1077.795
-26.838	32.126	1269.477	1076.286
-25.823	32.335	1267.847	1076.055
-24.809	32.170	1267.287	1074.594
-23.794	32.108	1265.876	1073.003
-22.779	32.174	1264.616	1072.268
-21.765	32.212	1263.263	1071.294
-20.750	32.154	1261.711	1069.602
-19.736	32.065	1260.398	1067.945
-18.721	32.056	1259.380	1066.990
-17.706	32.049	1258.224	1065.927
-16.692	32.053	1256.659	1064.581
-15.677	31.970	1256.335	1063.789
-14.663	31.982	1254.971	1062.661
-13.648	32.021	1253.439	1061.545
-12.633	31.922	1253.319	1060.842
-11.619	32.036	1251.986	1060.314
-10.604	31.962	1251.363	1059.326
-9.590	31.945	1250.234	1058.235
-8.575	32.090	1248.559	1057.590
-7.560	31.974	1248.338	1056.709
-6.546	32.049	1247.584	1056.447
-5.531	31.912	1246.687	1054.877
-4.517	32.047	1245.604	1054.676
-3.502	32.027	1244.681	1053.741
-2.487	31.935	1244.076	1052.674
-1.473	31.902	1239.634	1048.685
-0.458	30.671	1224.944	1029.411
0.556	27.179	1207.575	992.644
1.571	23.725	1213.601	978.518
2.586	22.861	1229.414	986.352
3.600	22.266	1218.062	973.867
4.615	15.982	1144.488	882.161
5.629	6.070	1067.853	774.373
6.644	1.910	1048.269	739.946
7.659	1.416	1046.198	736.028
8.673	1.417	1044.556	734.809
9.688	1.538	1043.111	734.315
10.702	1.677	1041.714	733.934
11.717	7.690	1049.939	768.818
12.731	17.886	1064.564	829.234
13.746	23.653	1072.074	863.137
14.761	24.770	1073.466	869.611
15.775	24.863	1072.741	869.402
16.790	24.631	1071.951	867.557
17.804	24.620	1071.313	866.912
18.819	24.735	1070.906	867.063
19.834	24.822	1070.383	866.986
20.848	24.839	1070.321	866.942
21.863	24.902	1069.359	866.389
22.877	24.753	1069.447	865.663
23.892	24.748	1068.245	864.591
24.907	24.878	1067.537	864.569
25.921	24.894	1065.579	862.982
26.936	24.767	1065.029	861.846
27.950	24.825	1063.227	860.591
28.965	24.561	1062.065	858.306
29.980	24.602	1060.387	857.071
30.994	24.965	1059.254	857.819
32.009	24.785	1058.227	856.053
33.023	24.713	1057.327	854.904
34.038	24.692	1056.738	854.249
35.053	24.993	1055.750	854.814
36.067	24.856	1055.059	853.526
37.082	25.028	1053.819	853.267
38.096	24.966	1054.009	853.049
39.111	25.117	1052.751	852.673
40.126	24.935	1051.558	850.767
41.140	24.607	1049.708	847.640
42.155	24.365	1048.630	845.544
43.169	24.572	1047.522	845.560
44.184	24.564	1046.753	844.825
45.199	24.426	1045.728	843.269
46.213	24.448	1044.946	842.670
47.228	24.658	1044.445	843.183
48.242	24.753	1043.248	842.588
49.257	24.834	1042.660	842.420
50.271	24.946	1041.808	842.186
51.286	25.010	1040.730	841.536
52.301	24.839	1040.287	840.305
53.315	24.830	1039.153	839.270
54.330	24.682	1038.496	837.974
55.344	24.878	1037.312	837.860
56.359	24.704	1036.987	836.711
57.374	24.577	1035.781	835.068
58.388	24.687	1034.799	834.719
59.403	24.545	1033.980	833.320
60.417	24.284	1033.523	831.660
61.432	24.416	1032.784	831.609
62.447	24.623	1032.101	831.949
63.461	24.537	1031.455	830.955
64.476	24.678	1030.220	830.539
65.490	24.456	1029.537	828.886
66.505	24.568	1028.600	828.576
67.520	24.632	1028.124	828.416
68.534	24.463	1027.014	826.665
69.549	24.094	1025.776	823.889
70.563	24.234	1025.084	823.910
71.578	24.181	1023.976	822.702
72.593	24.053	1023.071	821.308
73.607	24.078	1023.131	821.399
74.622	24.355	1022.991	822.492
75.636	24.520	1022.026	822.406
76.651	24.197	1020.909	819.949
77.666	24.315	1020.105	819.769
78.680	24.275	1019.930	819.376
79.695	24.379	1019.066	819.084
80.709	24.501	1018.602	819.202
81.724	24.425	1017.499	817.891
82.739	24.583	1016.941	818.093
83.753	24.890	1016.904	819.397
84.768	25.107	1015.981	819.575
85.782	25.293	1014.808	819.406
86.797	25.157	1014.033	818.084
87.812	25.053	1012.860	816.595
88.826	25.122	1012.141	816.253
89.841	25.234	1010.966	815.743
90.855	25.145	1010.343	814.764
91.870	25.082	1009.603	813.808
92.884	25.021	1008.373	812.471
93.899	25.006	1007.094	811.299
94.914	25.146	1006.447	811.339
95.928	24.969	1005.489	809.696
96.943	24.572	1004.895	807.355
97.957	24.575	1003.179	805.915
98.972	24.511	1001.982	804.594
99.987	24.586	1001.777	804.695
101.001	24.896	1000.980	805.379
102.016	24.759	1000.210	804.071
103.030	24.717	999.221	803.021
104.045	24.500	998.693	801.547
105.060	24.455	997.320	800.173
106.074	24.601	996.750	800.302
107.089	24.945	995.993	801.161
108.103	24.838	994.940	799.766
109.118	24.656	993.920	798.061
110.133	24.479	993.082	796.530
111.147	24.401	991.566	794.896
112.162	24.271	990.414	793.321
113.176	24.526	990.385	794.366
114.191	24.360	989.628	792.949
115.206	24.111	988.440	790.820
116.220	24.140	987.578	790.188
117.235	24.305	986.999	790.390
118.249	24.267	985.980	789.332
119.264	24.136	985.205	788.062
120.279	24.249	984.476	787.909
121.293	24.435	983.777	788.104
122.308	24.325	983.337	787.196
123.322	24.197	981.998	785.491
124.337	24.174	980.333	783.986
125.352	23.652	978.646	780.277
126.366	23.678	977.766	779.617
127.381	24.283	978.396	782.709
128.395	24.660	977.758	783.783
129.410	24.868	976.898	783.934
130.424	24.766	975.657	782.422
131.439	24.751	974.728	781.543
132.454	24.791	973.765	780.879
133.468	24.792	972.666	779.933
134.483	24.857	972.312	779.861
135.497	25.054	971.593	780.074
136.512	25.018	970.681	779.116
137.527	25.027	970.025	778.557
138.541	24.984	969.237	777.669
139.556	24.971	968.490	776.947
140.570	25.160	967.598	776.983
141.585	25.116	966.794	776.075
142.600	25.011	965.753	774.720
143.614	25.265	964.996	775.140
144.629	25.279	964.182	774.479
145.643	25.253	962.612	773.036
146.658	25.050	961.722	771.380
147.673	24.898	960.665	769.811
148.687	24.937	959.717	769.148
149.702	24.815	958.845	767.861
150.716	24.856	957.563	766.940
151.731	24.849	957.503	766.794
152.746	25.236	956.416	767.511
153.760	25.139	956.299	766.937
154.775	25.244	955.318	766.529
155.789	25.148	954.578	765.458
156.804	25.062	953.896	764.476
157.819	25.139	952.969	763.993
158.833	25.285	952.377	764.073
159.848	25.319	951.146	763.163
160.862	25.208	949.962	761.674
161.877	25.253	948.665	760.759
162.892	25.329	947.781	760.303
163.906	25.149	947.055	758.890
164.921	25.163	946.345	758.315
165.935	25.185	945.409	757.590
166.950	25.090	944.491	756.388
167.964	25.200	943.579	756.053
168.979	25.199	942.444	755.074
169.994	25.081	941.030	753.377
171.008	25.153	941.320	753.844
172.023	25.399	939.716	753.525
173.037	25.010	939.436	751.602
174.052	24.916	938.135	750.101
175.067	24.828	937.700	749.322
176.081	24.909	937.450	749.394
177.096	25.086	936.364	749.199
178.110	24.725	935.423	746.874
179.125	24.566	934.708	745.572
180.140	24.742	934.310	745.921
181.154	24.719	934.539	745.943
182.169	24.983	934.250	746.747
183.183	25.259	933.584	747.298
184.198	25.146	932.314	745.745
185.213	25.039	931.998	744.982
186.227	25.224	931.663	745.418
187.242	25.206	930.555	744.390
188.256	25.237	929.989	743.998
189.271	25.325	929.067	743.560
190.286	25.012	927.899	741.266
191.300	24.365	926.649	737.526
192.315	23.561	925.079	732.892
193.329	23.508	924.977	732.528
194.344	24.443	925.204	736.504
195.359	24.983	925.032	738.530
196.373	25.239	924.674	739.233
197.388	25.142	924.075	738.288
198.402	24.963	923.501	737.027
199.417	25.179	922.750	737.251
200.432	24.750	921.877	734.728
201.446	24.709	920.870	733.691
202.461	24.841	919.929	733.417
203.475	23.950	918.366	728.460
204.490	23.057	917.371	723.949
205.504	24.044	917.973	728.403
206.519	24.756	917.395	730.790
207.534	24.813	917.115	730.736
208.548	25.006	917.102	731.448
209.563	24.945	915.451	729.818
210.577	24.797	915.169	728.928
211.592	25.291	915.441	731.090
212.607	25.319	914.258	730.194
213.621	25.389	913.232	729.594
214.636	25.349	912.870	729.079
215.650	25.237	912.455	728.231
216.665	25.404	911.630	728.185
217.680	25.340	910.758	727.162
218.694	24.833	909.599	724.124
219.709	24.760	909.128	723.390
220.723	24.875	908.419	723.224
221.738	25.027	908.103	723.525
222.753	25.156	907.485	723.487
223.767	25.292	906.980	723.570
224.782	25.394	906.944	723.889
225.796	25.238	906.452	722.803
226.811	24.689	904.528	718.995
227.826	24.089	903.250	715.508
228.840	24.276	903.413	716.324
229.855	24.398	902.231	715.811
230.869	23.904	901.489	713.180
231.884	24.336	901.309	714.708
232.899	25.125	901.168	717.693
233.913	24.990	900.630	716.661
234.928	25.056	899.825	716.219
235.942	24.991	899.215	715.409
236.957	24.561	898.210	712.833
237.972	24.586	898.020	712.717
238.986	24.830	897.236	713.005
240.001	24.681	897.151	712.279
241.015	24.862	896.230	712.205
242.030	24.922	896.059	712.247
243.045	25.003	895.801	712.300
244.059	25.260	895.180	712.765
245.074	25.084	893.890	710.977
246.088	24.874	892.732	709.161
247.103	25.140	892.635	710.076
248.117	25.433	893.073	711.518
249.132	25.719	892.880	712.436
250.147	25.891	891.912	712.280
251.161	25.974	891.560	712.262
252.176	25.922	890.928	711.492
253.190	25.927	890.718	711.278
254.205	26.159	890.188	711.706
255.220	26.119	889.583	711.006
256.234	25.936	888.579	709.420
257.249	25.878	887.724	708.447
258.263	25.810	887.345	707.811
259.278	25.957	886.521	707.668
260.293	25.961	885.967	707.179
261.307	25.976	885.214	706.575
262.322	25.882	884.232	705.361
263.336	24.890	882.579	700.102
264.351	24.031	880.568	695.094
265.366	24.046	880.464	695.006
266.380	25.115	881.098	699.620
267.395	25.560	880.892	701.130
268.409	25.593	879.792	700.320
269.424	25.825	879.515	700.943
270.439	25.765	878.860	700.124
271.453	25.840	878.090	699.740
272.468	25.990	878.444	700.545
273.482	25.976	877.974	700.051
274.497	25.721	876.024	697.450
275.512	25.127	875.979	695.049
276.526	25.691	875.371	696.689
277.541	25.772	875.263	696.853
278.555	25.604	874.277	695.358
279.570	25.574	873.464	694.536
280.585	25.649	873.241	694.586
281.599	25.584	872.183	693.434
282.614	24.995	871.020	690.178
283.628	25.038	870.626	689.969
284.643	25.487	870.190	691.291
285.657	25.176	868.974	689.070
286.672	24.748	868.279	686.814
287.687	25.353	868.523	689.270
288.701	25.362	867.852	688.709
289.716	25.015	867.063	686.692
290.730	24.934	866.691	686.027
291.745	24.801	865.088	684.188
292.760	25.195	865.509	685.967
293.774	26.008	865.757	689.214
294.789	26.328	865.441	690.122
295.803	26.478	864.734	690.070
296.818	26.369	864.191	689.159
297.833	25.885	862.788	686.138
298.847	25.745	862.443	685.271
299.862	26.246	861.763	686.573
300.876	26.347	861.928	687.028
301.891	26.207	861.230	685.879
302.906	25.838	860.194	683.592
303.920	26.057	859.962	684.177
304.935	26.401	859.663	685.186
305.949	26.143	859.143	683.733
306.964	26.078	858.019	682.533
307.979	26.106	858.075	682.620
308.993	26.312	857.880	683.185
310.008	26.507	856.938	683.111
311.022	26.257	855.925	681.300
312.037	25.952	855.798	679.988
313.052	25.811	854.690	678.517
314.066	24.880	853.155	673.735
315.081	24.598	852.403	672.021
316.095	25.502	852.858	675.721
317.110	25.896	852.725	677.036
318.125	24.996	851.313	672.476
319.139	24.068	849.499	667.508
320.154	24.070	849.492	667.453
321.168	25.011	849.746	671.119
322.183	25.785	849.623	673.858
323.197	25.875	849.423	673.978
324.212	26.082	849.148	674.473
325.227	25.935	848.773	673.568
326.241	25.842	847.950	672.509
327.256	25.958	846.838	671.998
328.270	25.871	846.198	671.106
329.285	25.431	845.736	669.042
330.300	25.415	845.023	668.360
331.314	25.575	844.410	668.410
332.329	25.986	844.904	670.270
333.343	26.209	844.354	670.605
334.358	26.165	843.969	670.076
335.373	26.230	843.462	669.853
336.387	26.451	843.411	670.572
337.402	26.582	843.578	671.133
338.416	26.514	843.197	670.517
339.431	26.548	842.748	670.228
340.446	26.704	842.402	670.471
341.460	26.573	841.538	669.240
342.475	26.463	841.163	668.474
343.489	26.621	841.298	669.109
344.504	26.938	840.676	669.722
345.519	27.166	840.069	670.021
346.533	26.921	839.913	668.934
347.548	27.104	839.229	669.005
348.562	27.025	838.695	668.227
349.577	26.799	838.280	667.009
350.592	26.976	837.165	666.710
351.606	26.959	836.638	666.173
352.621	26.849	835.537	664.831
353.635	26.638	834.992	663.567
354.650	26.156	833.487	660.549
355.665	25.177	831.816	655.590
356.679	25.514	831.951	656.869
357.694	26.155	831.692	658.949
358.708	25.879	831.014	657.346
359.723	26.180	831.272	658.591
360.738	26.786	830.547	660.164
361.752	26.736	830.003	659.490
362.767	27.089	829.804	660.559
363.781	27.296	829.431	660.954
364.796	27.257	829.406	660.736
365.810	27.277	828.861	660.316
366.825	27.354	828.454	660.213
367.840	26.978	827.762	658.241
368.854	26.567	826.730	655.872
369.869	26.683	826.234	655.839
370.883	26.580	826.050	655.262
371.898	26.632	825.627	655.059
372.913	26.829	825.000	655.213
373.927	26.874	824.690	655.074
374.942	26.921	824.382	654.938
375.956	27.141	823.994	655.367
376.971	27.363	823.226	655.497
377.986	27.393	823.109	655.455
379.000	27.212	822.678	654.400
380.015	27.143	821.757	653.363
381.029	27.125	821.504	653.040
382.044	27.269	820.981	653.084
383.059	27.354	820.420	652.884
384.073	27.301	819.720	652.080
385.088	27.335	819.129	651.673
386.102	27.037	818.371	649.945
387.117	26.985	817.517	649.026
388.132	26.679	816.314	646.920
389.146	26.131	815.801	644.500
390.161	26.608	815.925	646.243
391.175	27.095	815.705	647.749
392.190	26.784	814.397	645.544
393.205	25.303	812.386	638.629
394.219	23.886	810.560	632.104
395.234	23.814	810.453	631.711
396.248	25.437	811.936	638.584
397.263	26.718	813.164	644.050
398.278	26.753	812.277	643.412
399.292	26.664	811.340	642.300
400.307	26.676	811.089	642.086
401.321	26.756	810.864	642.134
402.336	27.101	811.057	643.451
403.350	27.427	811.018	644.518
404.365	27.901	810.743	645.921
405.380	28.059	810.307	646.075
406.394	27.985	809.944	645.467
407.409	28.017	809.092	644.842
408.423	27.904	808.746	644.112
409.438	28.137	808.566	644.734
410.453	28.175	807.689	644.109
411.467	28.032	807.024	643.020
412.482	28.001	807.117	642.928
413.496	28.210	806.808	643.358
414.511	28.071	806.428	642.510
415.526	27.918	806.287	641.805
416.540	27.900	804.968	640.634
417.555	27.640	804.639	639.404
418.569	27.802	804.295	639.642
419.584	27.638	803.313	638.231
420.599	27.306	803.552	637.202
421.613	110.383	1286.770	1459.121
422.628	95.267	1357.151	1459.237
