DTS Sentinel unit serial number:	SN413079Multiplexer serial number:	ORYXHardware model number:	OX4-SRSoftware version number:	ORYX F/W v4.00 Oryx Data Collector v3.7.2.0data status	okinstallation	princeton_trtdifferential loss correction	single-endedforward channel	channel 1reverse channel	N/Adate	2019/09/11time	03:12:11forward acquisition time	60.00reverse acquisition time	0.00gamma	496.2192k internal	0.2332k external	0.2332temperature offset calibration	0.9924default loss term (dB/km)	0.3790temperature slope calibration	1.0000multiplexer offset coefficient	1.0000multiplexer slope coefficient	1.0000fibre end	0.00T internal ref (°C)	29.34T ext. ref 1 (°C)	-0.32T ext. ref 2 (°C)	24.09length (m)	temperature (°C)	Stokes	anti-Stokes-747.200	79.045	-0.026	-0.028
-746.185	-109.816	0.093	-0.020
-745.171	185.902	0.066	0.098
-744.156	800.000	0.041	0.144
-743.142	72.449	-0.318	0.333
-742.127	176.670	0.111	0.162
-741.112	-200.000	0.068	-0.402
-740.098	-200.000	-0.019	0.385
-739.083	174.607	0.317	-0.461
-738.069	-67.718	-0.355	-0.140
-737.054	378.780	0.124	0.255
-736.039	-71.548	-0.301	-0.113
-735.025	800.000	0.062	-0.178
-734.010	152.032	0.227	-0.311
-732.996	142.745	0.085	-0.114
-731.981	-157.223	-0.613	-0.037
-730.966	381.854	-0.047	0.097
-729.952	-18.403	-0.299	0.188
-728.937	38.025	-0.201	-0.180
-727.923	800.000	-0.065	-0.263
-726.908	556.233	0.042	-0.103
-725.894	-105.202	-0.171	-0.039
-724.879	-200.000	0.040	0.306
-723.864	-32.042	0.076	0.043
-722.850	-200.000	-0.003	-0.099
-721.835	263.810	-0.145	-0.254
-720.821	-143.750	0.180	0.017
-719.806	-138.969	-0.087	-0.009
-718.791	-92.068	0.341	-0.097
-717.777	275.170	-0.106	-0.190
-716.762	64.722	0.219	-0.222
-715.748	-150.694	-0.230	-0.018
-714.733	-27.743	0.217	-0.126
-713.718	-200.000	-0.006	-0.169
-712.704	-200.000	-0.008	-0.127
-711.689	-26.583	0.209	-0.123
-710.675	52.589	-0.189	-0.181
-709.660	-200.000	0.002	0.016
-708.645	-103.748	0.173	-0.041
-707.631	-148.117	-0.264	0.022
-706.616	-200.000	0.017	0.138
-705.602	167.347	-0.234	-0.334
-704.587	-20.927	0.202	0.124
-703.572	-54.911	0.181	-0.082
-702.558	-138.529	-0.239	-0.026
-701.543	-26.651	-0.095	0.056
-700.529	33.174	-0.098	0.086
-699.514	77.677	0.127	-0.135
-698.499	-163.416	0.256	0.012
-697.485	-200.000	-0.043	-0.260
-696.470	-84.244	-0.343	-0.109
-695.456	-61.571	0.319	-0.134
-694.441	-111.274	-0.074	0.015
-693.426	-200.000	-0.017	0.226
-692.412	-134.299	-0.304	0.037
-691.397	800.000	0.045	0.168
-690.383	-143.533	0.136	0.013
-689.368	-61.224	0.267	0.113
-688.354	187.703	0.222	0.332
-687.339	292.093	0.049	0.089
-686.324	16.743	-0.210	-0.167
-685.310	136.390	0.104	-0.136
-684.295	-55.914	-0.222	-0.099
-683.281	-107.820	-0.182	0.040
-682.266	-200.000	-0.001	0.277
-681.251	-130.334	-0.294	0.040
-680.237	-200.000	0.024	-0.324
-679.222	800.000	-0.082	-0.237
-678.208	524.211	0.041	-0.096
-677.193	800.000	0.170	-0.488
-676.178	155.258	-0.297	0.410
-675.164	63.766	0.063	-0.063
-674.149	-64.151	-0.196	0.080
-673.135	-176.917	0.195	0.005
-672.120	-98.409	-0.057	0.015
-671.105	-13.882	-0.105	-0.068
-670.091	78.167	0.154	0.165
-669.076	-137.400	0.187	0.021
-668.062	-200.000	0.006	0.225
-667.047	-40.399	0.150	0.078
-666.032	173.029	0.133	0.192
-665.018	800.000	0.068	-0.276
-664.003	-116.309	-0.294	0.055
-662.989	-12.563	0.128	-0.084
-661.974	-105.020	-0.190	-0.044
-660.959	-200.000	-0.014	-0.212
-659.945	619.580	0.126	-0.317
-658.930	-200.000	-0.044	-0.241
-657.916	276.662	-0.082	-0.147
-656.901	535.568	0.056	-0.134
-655.886	-200.000	0.019	0.155
-654.872	155.975	-0.237	-0.327
-653.857	-61.989	0.201	0.084
-652.843	-123.590	0.197	-0.031
-651.828	55.663	0.240	-0.233
-650.814	800.000	0.186	-0.565
-649.799	-200.000	0.011	0.258
-648.784	23.077	-0.377	0.310
-647.770	-200.000	0.015	-0.184
-646.755	-200.000	0.045	-0.348
-645.741	-132.760	-0.163	-0.021
-644.726	326.420	0.066	-0.127
-643.711	-121.765	-0.069	-0.011
-642.697	425.992	0.209	0.451
-641.682	-65.498	-0.331	-0.133
-640.668	-62.212	0.161	0.067
-639.653	-29.909	-0.150	-0.086
-638.638	28.559	-0.267	-0.226
-637.624	800.000	0.105	-0.297
-636.609	567.520	0.104	-0.254
-635.595	-14.983	0.181	0.116
-634.580	301.182	-0.160	-0.296
-633.565	-114.172	-0.317	-0.061
-632.551	6.130	-0.110	0.082
-631.536	-58.854	0.141	0.061
-630.522	100.726	-0.147	-0.171
-629.507	-31.548	-0.123	0.069
-628.492	-200.000	0.011	-0.282
-627.478	-120.003	-0.086	-0.015
-626.463	70.633	-0.202	-0.209
-625.449	105.445	0.049	-0.058
-624.434	800.000	0.117	-0.408
-623.419	-200.000	-0.003	-0.225
-622.405	800.000	0.008	-0.024
-621.390	193.670	0.116	0.176
-620.376	146.770	0.108	0.145
-619.361	22.223	0.141	0.116
-618.346	437.373	0.115	0.252
-617.332	261.484	-0.098	-0.170
-616.317	-200.000	0.026	-0.302
-615.303	-193.710	-0.129	0.001
-614.288	800.000	-0.021	0.071
-613.273	183.724	-0.162	0.240
-612.259	-150.645	0.379	0.029
-611.244	145.551	0.056	-0.074
-610.230	-79.713	-0.338	-0.114
-609.215	183.455	0.104	-0.154
-608.201	-80.935	0.189	-0.063
-607.186	31.949	-0.260	0.224
-606.171	800.000	-0.020	0.057
-605.157	156.050	0.089	0.123
-604.142	-63.301	-0.142	-0.058
-603.128	-200.000	0.032	-0.184
-602.113	-49.686	-0.176	0.084
-601.098	52.572	0.109	-0.104
-600.084	-96.447	-0.287	-0.076
-599.069	-98.660	-0.171	-0.044
-598.055	147.386	0.141	-0.190
-597.040	800.000	0.067	0.225
-596.025	663.837	-0.036	0.093
-595.011	459.847	0.073	0.163
-593.996	364.298	-0.060	0.121
-592.982	30.096	-0.263	-0.225
-591.967	-110.536	0.155	0.032
-590.952	-36.519	-0.228	-0.123
-589.938	-163.987	0.133	-0.006
-588.923	-200.000	0.059	0.289
-587.909	111.903	-0.171	0.206
-586.894	800.000	-0.048	0.137
-585.879	800.000	0.135	-0.400
-584.865	-50.126	0.123	-0.058
-583.850	34.653	-0.227	-0.198
-582.836	800.000	-0.009	-0.031
-581.821	54.158	0.075	0.072
-580.806	187.313	-0.057	0.085
-579.792	197.061	0.043	-0.066
-578.777	-200.000	-0.032	-0.191
-577.763	623.483	-0.110	0.278
-576.748	-200.000	0.007	0.212
-575.733	85.046	0.158	0.173
-574.719	-200.000	-0.031	0.193
-573.704	-200.000	0.023	0.153
-572.690	-200.000	0.027	0.228
-571.675	-59.628	0.143	-0.061
-570.661	19.825	0.240	0.193
-569.646	-200.000	-0.113	-0.497
-568.631	-200.000	0.041	0.495
-567.617	-109.281	-0.282	0.060
-566.602	635.359	0.105	-0.267
-565.588	634.776	-0.055	-0.138
-564.573	-42.871	-0.392	-0.199
-563.558	-161.919	-0.093	-0.005
-562.544	449.931	-0.059	0.129
-561.529	-21.654	-0.171	0.104
-560.515	-123.681	0.445	-0.070
-559.500	-124.253	-0.169	0.026
-558.485	-53.045	0.374	0.172
-557.471	-200.000	-0.030	0.152
-556.456	-124.811	-0.148	-0.023
-555.442	-200.000	0.010	0.135
-554.427	246.728	0.230	0.388
-553.412	-200.000	-0.066	0.338
-552.398	-63.720	-0.112	0.046
-551.383	288.614	-0.085	0.155
-550.369	-124.971	-0.224	0.034
-549.354	-33.374	-0.021	-0.012
-548.339	800.000	-0.079	0.253
-547.325	-200.000	0.024	-0.212
-546.310	-94.483	0.232	0.063
-545.296	-141.524	0.253	-0.025
-544.281	28.910	0.288	0.244
-543.266	17.275	-0.373	-0.295
-542.252	-133.852	0.420	0.052
-541.237	274.650	0.211	-0.373
-540.223	210.332	0.182	-0.286
-539.208	418.532	0.052	-0.111
-538.193	-123.629	0.243	-0.039
-537.179	105.027	-0.109	-0.128
-536.164	-114.113	0.117	0.023
-535.150	-200.000	-0.024	0.165
-534.135	146.561	0.216	-0.290
-533.121	274.741	-0.221	-0.391
-532.106	-200.000	-0.017	-0.343
-531.091	688.809	-0.106	0.277
-530.077	-200.000	0.014	0.133
-529.062	-58.727	-0.189	-0.082
-528.048	-200.000	-0.012	0.059
-527.033	-103.724	0.265	0.062
-526.018	66.383	0.114	-0.116
-525.004	375.778	-0.189	0.384
-523.989	53.894	-0.126	-0.121
-522.975	-30.272	-0.187	-0.106
-521.960	1.310	-0.109	-0.078
-520.945	-200.000	-0.035	-0.305
-519.931	7.190	-0.144	0.107
-518.916	-200.000	-0.047	-0.226
-517.902	4.888	0.197	-0.144
-516.887	-200.000	-0.001	-0.053
-515.872	-54.503	0.374	-0.169
-514.858	-77.175	0.259	0.090
-513.843	352.744	-0.131	-0.259
-512.829	-200.000	0.046	-0.454
-511.814	-200.000	-0.027	0.372
-510.799	-200.000	-0.000	-0.230
-509.785	-200.000	-0.018	0.148
-508.770	-136.689	0.351	-0.040
-507.756	-99.820	0.244	0.061
-506.741	10.196	-0.309	0.235
-505.726	-200.000	0.017	0.109
-504.712	-80.822	-0.252	-0.083
-503.697	72.375	-0.033	0.034
-502.683	0.044	0.274	0.195
-501.668	-36.355	-0.177	-0.095
-500.653	-115.254	0.078	0.015
-499.639	1.689	0.255	0.183
-498.624	-200.000	0.037	-0.336
-497.610	581.885	0.195	-0.476
-496.595	57.848	0.158	-0.154
-495.581	-140.761	0.313	-0.032
-494.566	147.622	0.059	-0.079
-493.551	-200.000	-0.045	-0.217
-492.537	459.821	-0.085	0.189
-491.522	-200.000	0.043	0.232
-490.508	-112.449	-0.110	0.022
-489.493	124.508	0.055	-0.069
-488.478	-162.322	-0.207	0.010
-487.464	-21.112	0.243	-0.148
-486.449	-200.000	-0.003	-0.140
-485.435	169.532	-0.046	0.065
-484.420	-28.215	-0.361	0.208
-483.405	90.448	-0.125	-0.140
-482.391	-100.630	0.184	0.045
-481.376	800.000	-0.069	0.201
-480.362	-169.381	-0.147	0.005
-479.347	231.066	-0.183	0.299
-478.332	-200.000	-0.015	-0.150
-477.318	800.000	0.028	-0.092
-476.303	-200.000	-0.010	0.082
-475.289	200.593	0.195	0.299
-474.274	-136.739	0.389	-0.045
-473.259	-128.234	0.130	-0.019
-472.245	800.000	-0.077	-0.281
-471.230	-124.102	-0.225	0.035
-470.216	800.000	0.039	0.123
-469.201	-48.938	-0.287	0.137
-468.186	80.040	0.005	-0.005
-467.172	35.992	-0.102	-0.089
-466.157	-111.420	0.294	0.060
-465.143	-37.787	0.299	-0.158
-464.128	800.000	0.130	0.389
-463.113	630.191	-0.113	0.284
-462.099	174.119	0.319	-0.459
-461.084	-200.000	-0.040	-0.548
-460.070	85.476	0.185	-0.202
-459.055	185.932	0.065	-0.096
-458.040	-200.000	-0.031	-0.387
-457.026	-96.969	0.312	-0.081
-456.011	647.737	-0.102	-0.260
-454.997	-200.000	0.021	-0.107
-453.982	-200.000	-0.033	-0.317
-452.968	-200.000	0.002	-0.147
-451.953	-18.602	-0.081	-0.050
-450.938	215.186	0.081	-0.128
-449.924	26.807	-0.278	-0.232
-448.909	800.000	0.061	0.201
-447.895	172.482	-0.178	-0.255
-446.880	-30.447	0.256	0.144
-445.865	800.000	-0.086	-0.336
-444.851	-73.400	0.277	0.101
-443.836	400.072	0.081	-0.168
-442.822	-179.988	0.276	0.006
-441.807	62.119	0.021	0.020
-440.792	-125.069	-0.109	0.017
-439.778	-86.822	0.249	0.076
-438.763	-35.561	-0.168	-0.090
-437.749	-200.000	-0.019	-0.406
-436.734	-142.872	-0.084	0.008
-435.719	-46.968	-0.170	-0.083
-434.705	590.214	0.071	-0.174
-433.690	17.951	0.490	0.388
-432.676	504.603	-0.078	0.179
-431.661	268.068	0.035	-0.061
-430.646	225.186	-0.121	0.194
-429.632	-78.204	0.090	-0.031
-428.617	190.138	-0.141	-0.211
-427.603	-200.000	-0.043	0.197
-426.588	10.103	-0.057	-0.043
-425.573	-12.737	0.328	0.212
-424.559	-83.941	0.305	0.097
-423.544	148.143	0.161	-0.216
-422.530	87.701	-0.109	-0.120
-421.515	-76.462	-0.100	0.035
-420.500	800.000	-0.119	-0.363
-419.486	91.784	-0.188	0.210
-418.471	633.887	0.115	0.290
-417.457	314.932	0.068	-0.128
-416.442	180.242	-0.074	0.107
-415.428	-90.763	0.208	-0.060
-414.413	-41.779	-0.180	-0.092
-413.398	800.000	0.032	0.096
-412.384	51.151	-0.203	-0.192
-411.369	2.969	0.155	0.112
-410.355	-90.182	-0.150	-0.043
-409.340	800.000	-0.090	-0.313
-408.325	26.076	-0.318	0.264
-407.311	-5.287	-0.215	0.147
-406.296	800.000	0.066	0.219
-405.282	-90.890	-0.357	-0.102
-404.267	-135.047	0.084	-0.010
-403.252	-17.960	-0.117	-0.073
-402.238	614.004	-0.084	0.210
-401.223	20.116	-0.199	0.159
-400.209	-64.328	-0.062	-0.025
-399.194	224.181	-0.318	0.509
-398.179	-200.000	0.007	0.257
-397.165	-42.471	0.148	0.075
-396.150	38.036	-0.148	-0.131
-395.136	21.636	-0.150	-0.121
-394.121	-130.168	-0.288	0.039
-393.106	-118.778	0.061	0.011
-392.092	-140.081	-0.210	-0.022
-391.077	-46.790	0.221	0.107
-390.063	-102.634	-0.305	0.072
-389.048	38.884	0.111	0.099
-388.033	-200.000	0.028	0.498
-387.019	64.885	0.170	0.170
-386.004	-67.016	-0.234	0.092
-384.990	800.000	0.043	0.177
-383.975	-200.000	-0.012	0.301
-382.960	-10.261	-0.133	0.088
-381.946	-102.677	-0.134	0.032
-380.931	-183.773	0.187	0.003
-379.917	46.819	0.134	0.124
-378.902	-37.430	-0.080	-0.043
-377.888	158.519	0.148	-0.203
-376.873	800.000	0.043	0.131
-375.858	-161.675	-0.080	0.004
-374.844	61.549	0.117	-0.116
-373.829	-200.000	0.040	-0.213
-372.815	71.707	0.109	-0.112
-371.800	-123.988	0.440	-0.069
-370.785	241.704	-0.124	-0.206
-369.771	-200.000	-0.053	-0.306
-368.756	298.034	0.073	-0.132
-367.742	73.273	0.289	0.300
-366.727	43.498	-0.118	0.107
-365.712	-78.435	0.239	-0.081
-364.698	-4.256	0.238	-0.163
-363.683	-85.437	-0.291	-0.090
-362.669	610.512	0.108	-0.267
-361.654	800.000	0.041	0.166
-360.639	-178.747	-0.254	-0.006
-359.625	258.357	-0.080	0.137
-358.610	284.552	0.086	0.154
-357.596	398.999	-0.031	0.064
-356.581	385.429	0.106	0.217
-355.566	-200.000	0.013	0.341
-354.552	240.199	-0.130	-0.214
-353.537	-180.072	-0.490	0.010
-352.523	-158.162	-0.095	0.006
-351.508	-2.566	0.179	-0.124
-350.493	129.470	-0.072	0.092
-349.479	-103.242	0.078	0.018
-348.464	411.496	-0.056	-0.117
-347.450	800.000	-0.115	-0.314
-346.435	54.567	0.157	-0.149
-345.420	-8.188	-0.149	-0.100
-344.406	-78.724	0.178	0.060
-343.391	762.840	0.057	-0.152
-342.377	-200.000	0.003	-0.050
-341.362	-194.136	0.140	-0.001
-340.348	514.634	0.086	0.198
-339.333	-66.329	0.355	0.140
-338.318	-37.421	-0.082	0.044
-337.304	-200.000	0.081	0.361
-336.289	-84.367	0.235	0.074
-335.275	-200.000	0.037	0.295
-334.260	263.845	-0.153	0.263
-333.245	270.259	0.078	-0.136
-332.231	86.857	-0.101	0.111
-331.216	151.724	0.107	-0.145
-330.202	-43.818	0.037	-0.018
-329.187	-66.593	-0.346	-0.136
-328.172	800.000	0.036	0.133
-327.158	-145.715	-0.245	-0.022
-326.143	1.603	-0.231	0.165
-325.129	356.135	-0.063	0.125
-324.114	-200.000	-0.004	0.191
-323.099	-69.995	-0.348	-0.131
-322.085	30.730	-0.085	-0.072
-321.070	88.276	-0.137	-0.150
-320.056	800.000	-0.108	-0.313
-319.041	-200.000	0.002	0.038
-318.026	443.364	-0.233	0.504
-317.012	72.842	0.198	0.204
-315.997	-200.000	0.001	0.363
-314.983	-4.073	-0.267	0.183
-313.968	-68.486	0.277	-0.106
-312.953	-200.000	-0.005	0.047
-311.939	-73.651	-0.344	-0.124
-310.924	55.564	0.323	-0.309
-309.910	800.000	0.072	0.304
-308.895	-56.699	0.292	-0.128
-307.880	-89.303	-0.168	-0.049
-306.866	-200.000	0.029	-0.452
-305.851	154.559	0.121	-0.164
-304.837	336.867	-0.068	-0.130
-303.822	800.000	0.044	0.124
-302.807	192.293	0.105	-0.156
-301.793	722.305	0.048	0.125
-300.778	-135.172	0.058	0.007
-299.764	75.965	-0.196	0.205
-298.749	-56.658	0.200	0.087
-297.735	93.560	0.151	0.169
-296.720	-130.129	-0.181	-0.024
-295.705	190.980	0.102	0.152
-294.691	-173.619	0.169	-0.005
-293.676	-6.300	-0.077	0.052
-292.662	-48.757	-0.141	-0.067
-291.647	800.000	0.124	-0.376
-290.632	-179.399	-0.168	-0.004
-289.618	-114.656	0.429	0.081
-288.603	225.434	-0.181	-0.290
-287.589	-138.402	0.285	0.031
-286.574	177.371	-0.228	-0.328
-285.559	-200.000	-0.021	0.159
-284.545	-89.949	0.328	-0.095
-283.530	-115.333	-0.274	-0.051
-282.516	-173.951	-0.100	-0.003
-281.501	-4.740	0.144	-0.098
-280.486	38.334	0.069	-0.061
-279.472	-62.557	0.318	-0.131
-278.457	800.000	-0.051	-0.216
-277.443	-142.038	0.129	-0.013
-276.428	-9.283	0.418	0.276
-275.413	-200.000	-0.020	0.250
-274.399	-176.958	-0.372	0.009
-273.384	-18.364	0.115	0.071
-272.370	465.124	0.099	0.219
-271.355	74.703	0.222	0.231
-270.340	467.396	0.179	0.396
-269.326	-1.942	-0.093	0.065
-268.311	-200.000	-0.026	-0.143
-267.297	-49.450	-0.229	-0.108
-266.282	-53.795	-0.176	0.079
-265.267	420.317	-0.023	0.049
-264.253	-200.000	-0.008	-0.074
-263.238	124.184	-0.161	0.199
-262.224	800.000	0.043	0.177
-261.209	800.000	-0.078	-0.295
-260.195	-200.000	0.061	0.301
-259.180	-63.171	-0.262	0.106
-258.165	375.642	0.117	-0.235
-257.151	257.525	0.109	0.185
-256.136	65.314	-0.199	-0.198
-255.122	227.337	0.151	-0.243
-254.107	800.000	0.012	0.045
-253.092	-200.000	0.012	0.255
-252.078	-180.653	0.340	0.007
-251.063	-15.457	0.137	0.086
-250.049	40.021	-0.140	-0.124
-249.034	784.125	0.115	0.312
-248.019	-137.058	-0.077	-0.009
-247.005	-47.362	-0.330	0.158
-245.990	800.000	-0.047	0.175
-244.976	-138.926	-0.096	0.010
-243.961	-76.841	-0.047	0.016
-242.946	800.000	0.102	0.314
-241.932	63.567	-0.049	-0.048
-240.917	-83.601	-0.218	-0.069
-239.903	-200.000	-0.046	0.371
-238.888	330.951	-0.122	-0.232
-237.873	38.138	0.278	0.244
-236.859	-66.537	0.214	-0.084
-235.844	-200.000	-0.034	-0.189
-234.830	-200.000	0.001	0.182
-233.815	-200.000	0.008	-0.288
-232.800	-126.759	0.299	0.044
-231.786	47.886	0.082	0.076
-230.771	261.974	0.065	-0.112
-229.757	190.225	-0.259	-0.384
-228.742	679.567	0.120	0.308
-227.727	-200.000	-0.002	0.335
-226.713	139.804	-0.104	-0.135
-225.698	-147.713	-0.290	-0.024
-224.684	92.921	0.161	-0.179
-223.669	-200.000	-0.026	0.197
-222.655	108.147	-0.318	-0.374
-221.640	-143.309	-0.145	-0.014
-220.625	-141.074	0.170	0.017
-219.611	81.911	0.049	0.052
-218.596	-48.250	0.063	-0.030
-217.582	-200.000	0.010	0.164
-216.567	-200.000	0.155	-0.001
-215.552	-60.420	0.145	-0.061
-214.538	-43.128	0.320	-0.160
-213.523	666.820	0.072	-0.183
-212.509	18.941	0.200	0.158
-211.494	-101.373	-0.203	0.049
-210.479	-85.844	0.411	-0.125
-209.465	-54.000	-0.113	-0.051
-208.450	-17.194	0.259	0.161
-207.436	800.000	0.128	0.366
-206.421	328.955	-0.141	0.266
-205.406	-103.579	-0.142	0.033
-204.392	-96.133	0.260	0.068
-203.377	-107.720	0.386	-0.083
-202.363	-164.430	-0.536	0.024
-201.348	-200.000	-0.035	-0.381
-200.333	247.464	0.073	0.122
-199.319	87.054	0.129	-0.140
-198.304	-108.267	-0.330	0.070
-197.290	375.453	0.119	-0.239
-196.275	-104.206	0.387	-0.088
-195.260	151.137	0.056	-0.075
-194.246	-89.032	-0.061	-0.018
-193.231	210.869	0.133	-0.207
-192.217	-173.003	0.162	0.005
-191.202	-86.355	-0.147	0.045
-190.187	503.966	0.051	0.116
-189.173	613.884	0.143	-0.353
-188.158	602.316	-0.047	-0.116
-187.144	-200.000	-0.011	-0.194
-186.129	-14.767	-0.091	0.057
-185.114	99.740	0.191	0.218
-184.100	-200.000	-0.028	0.203
-183.085	-102.245	0.238	-0.056
-182.071	-200.000	0.035	0.388
-181.056	-153.097	0.162	0.011
-180.042	800.000	0.058	0.184
-179.027	-200.000	0.031	-0.190
-178.012	-110.600	-0.231	0.047
-176.998	-27.268	-0.366	-0.210
-175.983	149.525	-0.087	0.116
-174.969	-154.064	-0.278	0.019
-173.954	386.353	0.136	-0.277
-172.939	34.833	-0.074	0.064
-171.925	-21.903	0.179	0.107
-170.910	-7.102	-0.117	-0.078
-169.896	50.158	-0.091	0.084
-168.881	-153.488	-0.168	0.011
-167.866	293.907	0.081	0.146
-166.852	95.632	-0.217	-0.244
-165.837	153.507	-0.236	0.318
-164.823	-200.000	0.002	0.167
-163.808	-95.343	-0.252	0.067
-162.793	530.694	-0.072	-0.168
-161.779	-200.000	-0.023	-0.111
-160.764	76.408	-0.275	-0.286
-159.750	-88.980	-0.244	-0.071
-158.735	508.120	0.024	-0.054
-157.720	3.332	0.162	-0.116
-156.706	23.968	-0.264	0.214
-155.691	210.382	-0.187	0.289
-154.677	6.601	0.143	0.104
-153.662	29.752	-0.223	0.186
-152.647	-200.000	0.003	0.447
-151.633	252.425	-0.116	-0.195
-150.618	-106.783	-0.112	0.025
-149.604	148.016	-0.054	-0.072
-148.589	354.092	0.190	-0.370
-147.574	13.474	0.195	-0.149
-146.560	127.598	0.131	0.163
-145.545	-200.000	-0.000	-0.295
-144.531	95.191	0.144	0.162
-143.516	-67.991	-0.188	-0.072
-142.502	95.004	0.212	-0.237
-141.487	-150.485	0.354	-0.027
-140.472	-66.744	-0.116	0.045
-139.458	722.871	0.102	0.267
-138.443	800.000	-0.039	-0.122
-137.429	-66.564	0.191	-0.074
-136.414	63.964	0.227	-0.224
-135.399	-177.181	0.147	0.004
-134.385	262.810	-0.071	-0.121
-133.370	-123.395	-0.158	0.025
-132.356	297.388	-0.076	-0.138
-131.341	-200.000	0.003	-0.027
-130.326	52.370	-0.209	0.196
-129.312	134.685	-0.130	-0.166
-128.297	-200.000	-0.018	-0.260
-127.283	800.000	0.164	-0.538
-126.268	-200.000	-0.015	-0.187
-125.253	442.179	-0.133	0.287
-124.239	-199.219	0.379	0.002
-123.224	800.000	0.076	0.208
-122.210	85.018	0.206	0.222
-121.195	-200.000	-0.030	-0.191
-120.180	-138.626	-0.166	0.018
-119.166	113.161	0.161	-0.192
-118.151	-85.977	-0.116	0.035
-117.137	223.056	-0.288	0.455
-116.122	462.707	-0.081	-0.178
-115.107	-58.283	-0.160	0.068
-114.093	-68.096	-0.105	0.040
-113.078	-13.795	0.062	0.040
-112.064	800.000	0.071	0.215
-111.049	-72.731	0.066	-0.024
-110.034	-200.000	0.013	0.134
-109.020	139.572	-0.061	0.079
-108.005	-72.503	0.284	0.103
-106.991	-6.186	0.041	0.027
-105.976	-200.000	0.003	0.132
-104.962	68.365	-0.245	-0.246
-103.947	-126.642	-0.065	0.009
-102.932	12.307	-0.265	0.201
-101.918	-122.160	-0.071	-0.011
-100.903	800.000	0.049	0.154
-99.889	-91.992	0.445	0.124
-98.874	-132.622	0.176	-0.022
-97.859	-93.532	-0.189	-0.051
-96.845	-200.000	-0.001	-0.656
-95.830	-120.152	-0.201	-0.034
-94.816	692.341	0.091	0.234
-93.801	-200.000	-0.043	-0.211
-92.786	-200.000	-0.015	-0.165
-91.772	-68.797	-0.225	0.085
-90.757	800.000	0.061	0.213
-89.743	-122.428	0.224	0.036
-88.728	800.000	0.027	0.100
-87.713	-200.000	0.032	0.153
-86.699	800.000	0.044	-0.123
-85.684	-164.126	0.352	0.016
-84.670	-167.054	0.274	-0.011
-83.655	-47.691	0.185	-0.088
-82.640	289.166	-0.006	0.011
-81.626	546.558	0.128	0.300
-80.611	240.117	-0.156	0.256
-79.597	31.683	0.121	0.102
-78.582	-51.590	-0.349	0.160
-77.567	-114.474	-0.203	0.038
-76.553	-18.850	-0.446	-0.272
-75.538	-80.589	0.165	0.054
-74.524	-200.000	0.005	0.079
-73.509	353.374	-0.043	-0.084
-72.494	-98.585	0.118	-0.030
-71.480	800.000	0.069	-0.211
-70.465	-200.000	-0.014	-0.311
-69.451	-31.157	-0.166	-0.092
-68.436	166.615	0.045	0.063
-67.422	50.705	0.141	0.131
-66.407	455.776	0.040	-0.088
-65.392	800.000	-0.067	0.228
-64.378	292.807	0.100	0.179
-63.363	88.693	-0.118	-0.128
-62.349	-151.795	-0.372	0.027
-61.334	7.351	-1.165	-0.853
-60.319	62.737	0.475	0.466
-59.305	658.654	-0.411	-1.036
-58.290	211.687	0.647	0.998
-57.276	800.000	0.512	1.595
-56.261	-200.000	106.705	613.677
-55.246	505.905	1511.183	3429.886
-54.232	176.456	2702.394	3845.895
-53.217	111.222	2164.570	2554.204
-52.203	41.334	1599.634	1416.735
-51.188	32.895	1334.289	1131.370
-50.173	29.781	1292.735	1077.976
-49.159	54.180	1347.076	1269.120
-48.144	54.365	1362.649	1284.838
-47.130	32.992	1317.368	1117.423
-46.115	29.494	1299.673	1081.909
-45.100	29.329	1294.387	1076.502
-44.086	29.253	1291.927	1073.968
-43.071	29.229	1289.522	1071.791
-42.057	29.130	1287.986	1069.892
-41.042	29.326	1285.719	1069.103
-40.027	29.350	1284.204	1067.942
-39.013	29.221	1282.828	1066.012
-37.998	29.337	1280.656	1064.835
-36.984	29.368	1278.732	1063.369
-35.969	29.325	1277.378	1061.954
-34.954	29.409	1275.153	1060.546
-33.940	29.303	1274.338	1059.215
-32.925	29.366	1273.045	1058.458
-31.911	29.421	1271.219	1057.214
-30.896	29.414	1270.116	1056.214
-29.881	29.409	1268.760	1055.016
-28.867	29.485	1266.816	1053.793
-27.852	29.452	1265.198	1052.216
-26.838	29.450	1264.474	1051.562
-25.823	29.370	1263.398	1050.172
-24.809	29.485	1261.647	1049.326
-23.794	29.436	1260.423	1047.989
-22.779	29.409	1259.016	1046.624
-21.765	29.426	1257.791	1045.662
-20.750	29.499	1256.011	1044.553
-19.736	29.355	1255.591	1043.349
-18.721	29.297	1254.204	1041.826
-17.706	29.310	1253.125	1040.960
-16.692	29.276	1251.413	1039.304
-15.677	29.296	1251.154	1039.161
-14.663	29.399	1249.365	1038.217
-13.648	29.293	1248.556	1036.906
-12.633	29.219	1247.914	1035.916
-11.619	29.254	1246.919	1035.243
-10.604	29.291	1245.816	1034.494
-9.590	29.323	1245.180	1034.108
-8.575	29.225	1244.265	1032.756
-7.560	29.236	1243.466	1032.115
-6.546	29.290	1242.687	1031.730
-5.531	29.266	1241.586	1030.638
-4.517	29.332	1240.757	1030.278
-3.502	29.384	1240.127	1030.005
-2.487	29.265	1238.769	1028.170
-1.473	29.391	1234.650	1025.413
-0.458	27.935	1220.108	1005.293
0.556	22.263	1203.994	969.912
1.571	19.036	1209.368	956.251
2.586	18.221	1224.403	963.464
3.600	18.137	1213.925	954.668
4.615	13.446	1142.793	873.935
5.629	4.545	1068.302	772.796
6.644	0.001	1048.153	735.947
7.659	-0.325	1045.219	732.233
8.673	-0.483	1044.233	730.707
9.688	-0.462	1043.456	730.199
10.702	0.030	1041.454	731.127
11.717	5.960	1050.110	766.141
12.731	15.076	1062.794	820.172
13.746	19.465	1068.204	845.836
14.761	20.359	1069.338	851.046
15.775	20.262	1069.202	850.385
16.790	20.168	1067.842	848.768
17.804	20.235	1067.557	848.795
18.819	20.177	1067.178	848.136
19.834	20.376	1066.405	848.417
20.848	20.154	1066.499	847.331
21.863	20.313	1065.332	847.109
22.877	20.258	1065.029	846.524
23.892	20.152	1064.209	845.281
24.907	20.404	1063.183	845.616
25.921	20.404	1061.878	844.507
26.936	20.192	1061.111	842.788
27.950	20.096	1059.268	840.787
28.965	20.075	1057.783	839.430
29.980	20.225	1055.931	838.611
30.994	20.381	1054.921	838.487
32.009	20.383	1053.696	837.450
33.023	20.016	1052.676	834.799
34.038	20.270	1051.507	835.019
35.053	20.375	1051.008	835.056
36.067	20.249	1050.560	834.019
37.082	20.441	1049.116	833.722
38.096	20.556	1048.798	833.946
39.111	20.688	1047.743	833.664
40.126	20.448	1046.553	831.494
41.140	20.139	1044.459	828.283
42.155	19.942	1043.202	826.272
43.169	19.985	1042.368	825.744
44.184	20.052	1041.272	825.121
45.199	19.987	1040.221	823.907
46.213	20.025	1039.032	823.073
47.228	20.142	1038.156	822.859
48.242	20.168	1037.603	822.473
49.257	20.340	1036.650	822.463
50.271	20.303	1036.271	821.912
51.286	20.371	1035.358	821.439
52.301	20.359	1034.212	820.399
53.315	20.359	1033.497	819.758
54.330	20.339	1032.214	818.573
55.344	20.380	1031.478	818.112
56.359	20.222	1030.464	816.492
57.374	20.122	1029.416	815.116
58.388	20.151	1028.704	814.618
59.403	19.962	1028.035	813.127
60.417	19.882	1027.226	812.041
61.432	20.022	1026.798	812.289
62.447	20.240	1025.721	812.387
63.461	20.164	1024.943	811.340
64.476	20.021	1024.246	810.049
65.490	19.948	1023.509	809.053
66.505	20.109	1022.464	808.908
67.520	20.141	1021.864	808.508
68.534	19.882	1020.862	806.438
69.549	19.619	1019.555	804.112
70.563	19.722	1018.861	803.974
71.578	19.670	1018.031	803.003
72.593	19.631	1016.824	801.801
73.607	19.785	1016.820	802.441
74.622	19.952	1016.073	802.552
75.636	19.893	1015.442	801.711
76.651	19.695	1014.758	800.184
77.666	19.783	1013.957	799.889
78.680	19.964	1012.826	799.761
79.695	19.862	1012.713	799.129
80.709	20.139	1011.811	799.626
81.724	19.991	1011.004	798.234
82.739	19.960	1010.813	797.869
83.753	20.381	1010.021	799.115
84.768	20.624	1009.220	799.525
85.782	20.680	1008.191	798.899
86.797	20.622	1007.156	797.741
87.812	20.418	1006.362	796.106
88.826	20.575	1005.482	796.056
89.841	20.574	1004.604	795.288
90.855	20.600	1003.398	794.383
91.870	20.630	1002.515	793.748
92.884	20.367	1001.814	791.925
93.899	20.380	1000.233	790.664
94.914	20.574	999.600	790.977
95.928	20.376	998.543	789.169
96.943	20.091	997.689	787.130
97.957	20.036	996.193	785.630
98.972	19.823	995.261	783.861
99.987	20.008	994.808	784.274
101.001	20.221	993.885	784.439
102.016	20.277	993.278	784.145
103.030	20.192	992.271	782.897
104.045	20.021	990.910	780.982
105.060	19.987	989.780	779.871
106.074	20.144	989.453	780.252
107.089	20.460	989.047	781.283
108.103	20.360	987.458	779.509
109.118	20.119	986.828	777.860
110.133	20.115	985.776	776.947
111.147	19.871	984.256	774.586
112.162	19.841	983.146	773.511
113.176	20.084	982.839	774.287
114.191	19.931	982.158	772.997
115.206	19.740	980.465	770.745
116.220	19.768	980.001	770.437
117.235	19.827	979.423	770.177
118.249	19.708	978.353	768.737
119.264	19.813	976.969	768.049
120.279	19.773	976.838	767.701
121.293	19.827	976.002	767.218
122.308	19.896	974.768	766.484
123.322	19.866	973.657	765.409
124.337	19.687	972.460	763.609
125.352	19.164	971.021	760.106
126.366	19.071	970.311	759.070
127.381	19.984	969.513	762.402
128.395	20.351	969.116	763.636
129.410	20.383	968.270	763.041
130.424	20.280	967.396	761.836
131.439	20.241	966.721	761.065
132.454	20.382	965.420	760.589
133.468	20.244	964.494	759.189
134.483	20.249	964.342	759.024
135.497	20.425	963.242	758.859
136.512	20.684	961.631	758.656
137.527	20.553	961.451	757.873
138.541	20.621	960.705	757.515
139.556	20.518	959.508	756.056
140.570	20.446	958.852	755.157
141.585	20.541	958.137	754.941
142.600	20.593	956.401	753.735
143.614	20.564	956.801	753.857
144.629	20.770	955.644	753.770
145.643	20.559	954.170	751.629
146.658	20.449	952.931	750.111
147.673	20.449	951.850	749.195
148.687	20.307	950.964	747.817
149.702	20.340	949.744	746.933
150.716	20.400	948.645	746.263
151.731	20.450	948.418	746.231
152.746	20.575	948.123	746.472
153.760	20.720	947.325	746.399
154.775	20.755	946.587	745.901
155.789	20.706	945.716	744.941
156.804	20.689	944.627	743.941
157.819	20.765	944.027	743.731
158.833	20.834	943.145	743.261
159.848	20.827	941.867	742.158
160.862	20.712	940.888	740.835
161.877	20.777	939.864	740.240
162.892	20.674	939.103	739.137
163.906	20.708	938.092	738.418
164.921	20.681	937.417	737.706
165.935	20.668	936.581	736.931
166.950	20.725	935.520	736.272
167.964	20.653	934.799	735.334
168.979	20.583	933.489	733.944
169.994	20.581	932.287	732.923
171.008	20.653	932.418	733.265
172.023	20.778	931.287	732.838
173.037	20.511	930.173	730.774
174.052	20.468	929.463	729.969
175.067	20.499	928.886	729.585
176.081	20.607	927.806	729.124
177.096	20.407	927.556	728.023
178.110	20.259	926.442	726.464
179.125	20.207	925.456	725.409
180.140	20.160	925.204	724.951
181.154	20.049	925.348	724.535
182.169	20.613	924.709	726.327
183.183	20.667	924.654	726.445
184.198	20.652	923.317	725.267
185.213	20.595	922.630	724.426
186.227	20.822	921.677	724.562
187.242	20.596	921.507	723.422
188.256	20.852	920.337	723.501
189.271	20.851	919.723	722.951
190.286	20.628	918.258	720.814
191.300	19.909	917.658	717.301
192.315	19.269	915.968	713.267
193.329	19.177	915.657	712.581
194.344	20.151	915.825	716.678
195.359	20.509	916.002	718.234
196.373	20.676	915.015	718.085
197.388	20.558	914.516	717.141
198.402	20.521	913.929	716.464
199.417	20.523	913.033	715.708
200.432	20.362	911.892	714.086
201.446	20.081	911.884	712.862
202.461	20.311	910.593	712.735
203.475	19.344	908.847	707.340
204.490	18.647	907.759	703.574
205.504	19.548	908.029	707.416
206.519	20.270	907.853	710.169
207.534	20.292	907.485	709.912
208.548	20.652	907.157	711.064
209.563	20.309	906.411	709.014
210.577	20.432	905.585	708.808
211.592	20.807	905.319	710.065
212.607	20.809	904.036	709.004
213.621	20.797	903.870	708.762
214.636	20.814	903.043	708.120
215.650	20.665	902.525	707.047
216.665	20.860	901.856	707.251
217.680	20.779	900.841	706.064
218.694	20.471	899.021	703.328
219.709	20.153	898.845	701.842
220.723	20.491	899.008	703.276
221.738	20.555	897.899	702.605
222.753	20.644	897.083	702.265
223.767	20.714	896.850	702.299
224.782	20.917	896.578	702.845
225.796	20.897	895.826	702.112
226.811	20.202	894.432	698.161
227.826	19.561	893.153	694.522
228.840	19.882	892.947	695.593
229.855	19.881	892.268	694.996
230.869	19.571	890.609	692.403
231.884	19.843	891.299	693.968
232.899	20.669	891.077	697.044
233.913	20.476	890.337	695.629
234.928	20.629	889.623	695.622
235.942	20.477	889.060	694.514
236.957	20.145	888.488	692.678
237.972	20.271	887.847	692.621
238.986	20.499	886.949	692.767
240.001	20.391	886.164	691.666
241.015	20.505	885.637	691.647
242.030	20.619	885.267	691.747
243.045	20.662	884.886	691.559
244.059	20.820	884.595	691.898
245.074	20.558	883.336	689.814
246.088	20.182	882.302	687.454
247.103	20.621	881.935	688.849
248.117	21.087	882.270	690.894
249.132	21.305	881.495	691.089
250.147	21.318	880.929	690.636
251.161	21.265	880.784	690.252
252.176	21.206	879.827	689.209
253.190	21.545	879.160	689.962
254.205	21.558	878.756	689.634
255.220	21.547	878.187	689.083
256.234	21.384	877.244	687.639
257.249	21.286	876.226	686.395
258.263	21.308	875.649	685.970
259.278	21.450	875.087	686.028
260.293	21.405	874.521	685.346
261.307	21.387	873.740	684.602
262.322	21.118	873.174	683.047
263.336	20.148	871.379	677.789
264.351	19.418	869.139	673.142
265.366	19.613	868.537	673.375
266.380	20.604	869.239	677.725
267.395	20.988	869.292	679.201
268.409	21.059	868.628	678.900
269.424	21.268	867.993	679.156
270.439	21.346	867.098	678.697
271.453	21.375	866.721	678.456
272.468	21.371	867.077	678.661
273.482	21.640	866.182	678.943
274.497	20.993	865.072	675.504
275.512	20.797	863.663	673.589
276.526	21.151	864.002	675.160
277.541	21.320	863.603	675.444
278.555	21.158	862.613	673.984
279.570	20.909	861.768	672.302
280.585	21.135	860.970	672.492
281.599	21.180	860.096	671.922
282.614	20.620	859.102	668.933
283.628	20.421	858.846	667.908
284.643	20.830	858.585	669.222
285.657	20.454	857.188	666.629
286.672	20.228	856.205	664.941
287.687	20.856	856.138	667.234
288.701	20.884	855.810	667.028
289.716	20.638	854.671	665.140
290.730	20.561	853.782	664.095
291.745	20.295	853.133	662.518
292.760	20.507	853.298	663.394
293.774	21.630	853.366	667.675
294.789	21.846	853.184	668.293
295.803	21.928	852.773	668.228
296.818	21.979	851.765	667.572
297.833	21.343	850.915	664.428
298.847	21.394	850.079	663.911
299.862	21.699	849.828	664.815
300.876	21.602	850.072	664.577
301.891	21.775	849.166	664.466
302.906	21.112	848.302	661.220
303.920	21.353	847.711	661.614
304.935	21.732	847.711	662.992
305.949	21.842	846.708	662.560
306.964	21.466	846.410	660.850
307.979	21.591	846.008	660.950
308.993	21.998	845.593	662.103
310.008	21.869	844.643	660.815
311.022	21.546	844.090	659.105
312.037	21.612	843.140	658.555
313.052	21.303	842.343	656.713
314.066	20.586	840.788	652.750
315.081	20.203	840.840	651.297
316.095	21.098	840.853	654.609
317.110	21.519	840.377	655.757
318.125	20.727	838.833	651.531
319.139	19.706	837.505	646.625
320.154	19.819	837.200	646.753
321.168	20.592	837.637	649.925
322.183	21.150	837.676	651.983
323.197	21.311	837.037	652.028
324.212	21.562	836.792	652.716
325.227	21.515	836.465	652.228
326.241	21.588	835.296	651.529
327.256	21.485	834.855	650.746
328.270	21.445	834.238	650.057
329.285	21.182	833.197	648.213
330.300	21.002	832.534	646.974
331.314	21.075	832.623	647.257
332.329	21.662	832.339	649.154
333.343	21.629	832.074	648.767
334.358	21.651	831.536	648.371
335.373	21.806	830.738	648.266
336.387	22.004	830.653	648.872
337.402	22.171	830.702	649.473
338.416	22.052	830.201	648.584
339.431	22.079	830.006	648.474
340.446	22.300	829.414	648.770
341.460	22.048	828.995	647.453
342.475	21.936	828.465	646.570
343.489	22.047	828.069	646.613
344.504	22.430	827.723	647.692
345.519	22.355	827.626	647.286
346.533	22.405	827.348	647.195
347.548	22.470	826.772	646.926
348.562	22.384	826.297	646.180
349.577	22.486	825.421	645.811
350.592	22.356	824.991	644.941
351.606	22.340	824.298	644.283
352.621	22.398	823.492	643.809
353.635	22.201	822.710	642.422
354.650	21.567	820.729	638.507
355.665	20.760	819.278	634.382
356.679	21.001	819.767	635.581
357.694	21.544	819.060	636.955
358.708	21.414	818.177	635.740
359.723	21.817	818.452	637.361
360.738	22.087	818.166	638.065
361.752	22.249	817.173	637.821
362.767	22.609	817.124	639.031
363.781	22.739	816.736	639.141
364.796	22.797	816.554	639.154
365.810	22.687	816.291	638.491
366.825	22.718	815.822	638.182
367.840	22.377	814.950	636.211
368.854	22.194	813.764	634.569
369.869	22.040	813.919	634.078
370.883	22.190	813.248	634.040
371.898	21.967	813.061	633.034
372.913	22.311	812.500	633.778
373.927	22.294	811.931	633.217
374.942	22.443	811.611	633.448
375.956	22.519	811.239	633.376
376.971	22.659	810.624	633.344
377.986	22.762	810.540	633.590
379.000	22.725	809.854	632.864
380.015	22.604	809.187	631.853
381.029	22.561	808.733	631.291
382.044	22.782	808.084	631.518
383.059	22.877	807.336	631.218
384.073	22.828	807.314	630.969
385.088	22.727	806.515	629.929
386.102	22.652	805.782	629.035
387.117	22.602	805.252	628.386
388.132	22.129	804.133	625.771
389.146	21.731	803.133	623.524
390.161	22.061	803.226	624.716
391.175	22.372	802.962	625.560
392.190	22.121	801.846	623.744
393.205	20.787	799.878	617.429
394.219	19.412	798.344	611.320
395.234	19.458	798.248	611.355
396.248	21.145	799.573	618.299
397.263	22.547	800.098	623.616
398.278	22.287	800.046	622.601
399.292	22.036	799.277	621.059
400.307	21.975	798.986	620.561
401.321	22.292	797.966	620.833
402.336	22.657	798.000	622.092
403.350	23.102	797.945	623.565
404.365	23.175	798.112	623.898
405.380	23.434	797.653	624.395
406.394	23.382	797.044	623.679
407.409	23.451	796.447	623.401
408.423	23.318	796.380	622.825
409.438	23.422	795.861	622.731
410.453	23.404	795.414	622.263
411.467	23.486	794.776	621.996
412.482	23.432	794.204	621.304
413.496	23.447	794.176	621.280
414.511	23.614	793.677	621.418
415.526	23.648	792.698	620.715
416.540	23.401	792.124	619.350
417.555	23.131	791.741	618.051
418.569	23.143	791.415	617.786
419.584	23.157	791.062	617.503
420.599	22.918	790.162	615.912
421.613	158.176	1365.197	1799.767
422.628	136.985	1448.982	1799.826
