DTS Sentinel unit serial number:	SN413079Multiplexer serial number:	ORYXHardware model number:	OX4-SRSoftware version number:	ORYX F/W v4.00 Oryx Data Collector v3.7.2.0data status	okinstallation	princeton_trtdifferential loss correction	single-endedforward channel	channel 1reverse channel	N/Adate	2019/09/11time	06:44:11forward acquisition time	60.00reverse acquisition time	0.00gamma	496.2192k internal	0.2330k external	0.2330temperature offset calibration	0.9918default loss term (dB/km)	0.3790temperature slope calibration	1.0000multiplexer offset coefficient	1.0000multiplexer slope coefficient	1.0000fibre end	0.00T internal ref (°C)	29.81T ext. ref 1 (°C)	-0.16T ext. ref 2 (°C)	24.80length (m)	temperature (°C)	Stokes	anti-Stokes-747.200	76.105	0.257	0.274
-746.185	-200.000	0.002	-0.129
-745.171	-200.000	0.036	-0.217
-744.156	-200.000	-0.047	0.322
-743.142	192.950	0.078	0.118
-742.127	800.000	-0.054	0.200
-741.112	284.109	-0.226	0.409
-740.098	-200.000	0.004	-0.020
-739.083	-174.525	0.199	-0.006
-738.069	800.000	-0.078	0.317
-737.054	-15.493	-0.173	-0.111
-736.039	-110.407	-0.183	0.038
-735.025	-71.603	0.359	0.135
-734.010	325.848	-0.116	-0.223
-732.996	-43.184	-0.361	-0.184
-731.981	183.678	0.036	-0.054
-730.966	13.727	0.260	0.204
-729.952	193.597	-0.144	-0.219
-728.937	-200.000	-0.037	-0.475
-727.923	239.972	0.075	-0.126
-726.908	800.000	0.039	-0.126
-725.894	-107.693	-0.294	0.065
-724.879	91.663	-0.250	0.283
-723.864	-46.819	0.276	0.136
-722.850	-54.189	-0.116	-0.053
-721.835	800.000	0.058	-0.222
-720.821	120.589	0.162	-0.202
-719.806	27.204	-0.224	0.189
-718.791	88.657	-0.248	0.277
-717.777	800.000	-0.062	-0.214
-716.762	-200.000	0.011	0.162
-715.748	-200.000	-0.017	-0.120
-714.733	9.894	0.053	-0.041
-713.718	273.122	-0.043	-0.076
-712.704	33.552	-0.114	-0.099
-711.689	-77.608	0.279	-0.097
-710.675	240.302	-0.260	0.437
-709.660	0.357	-0.111	0.080
-708.645	412.775	0.090	0.192
-707.631	800.000	-0.044	-0.151
-706.616	800.000	-0.042	0.121
-705.602	-200.000	-0.016	0.243
-704.587	-40.352	0.270	-0.141
-703.572	200.582	0.082	0.126
-702.558	-29.613	0.255	-0.146
-701.543	91.854	-0.126	0.142
-700.529	-114.555	-0.191	0.037
-699.514	-83.624	0.043	0.014
-698.499	214.107	0.066	-0.106
-697.485	-66.926	-0.133	-0.053
-696.470	4.318	0.171	-0.126
-695.456	217.253	0.104	-0.167
-694.441	-71.936	0.336	-0.126
-693.426	-35.405	0.209	0.114
-692.412	168.792	-0.056	-0.081
-691.397	55.427	-0.214	0.208
-690.383	-7.445	0.056	-0.038
-689.368	21.934	0.083	0.068
-688.354	-183.546	-0.269	0.005
-687.339	33.852	0.142	0.124
-686.324	-200.000	0.011	-0.076
-685.310	-77.509	0.015	0.005
-684.295	-200.000	0.011	0.071
-683.281	-25.654	0.068	-0.040
-682.266	-154.160	0.154	0.010
-681.251	-61.607	-0.229	-0.096
-680.237	-81.250	0.156	0.052
-679.222	-175.154	-0.126	0.004
-678.208	-3.499	-0.078	0.055
-677.193	-21.459	0.149	0.092
-676.178	232.236	-0.086	-0.142
-675.164	618.339	-0.088	0.222
-674.149	800.000	0.090	0.262
-673.135	-27.275	-0.207	-0.121
-672.120	34.004	-0.136	0.119
-671.105	394.038	-0.120	-0.250
-670.091	-44.675	-0.309	0.155
-669.076	289.829	0.086	-0.156
-668.062	-76.404	-0.564	-0.199
-667.047	-200.000	0.000	-0.079
-666.032	64.888	-0.091	0.092
-665.018	372.955	-0.039	0.080
-664.003	97.374	0.208	-0.240
-662.989	-84.641	0.285	-0.090
-661.974	-200.000	-0.001	-0.078
-660.959	112.594	0.037	0.045
-659.945	154.791	0.043	-0.059
-658.930	-200.000	0.005	-0.228
-657.916	108.307	-0.065	-0.078
-656.901	323.392	-0.176	0.337
-655.886	-94.893	0.235	-0.064
-654.872	-200.000	-0.086	-0.397
-653.857	245.155	0.137	0.231
-652.843	193.928	0.134	0.203
-651.828	800.000	-0.114	0.428
-650.814	-200.000	0.011	0.137
-649.799	-129.372	0.135	-0.019
-648.784	-200.000	-0.012	0.139
-647.770	-141.190	0.211	-0.022
-646.755	58.492	-0.201	-0.197
-645.741	19.666	-0.081	-0.065
-644.726	-18.635	0.136	-0.085
-643.711	-22.872	0.173	-0.105
-642.697	203.984	-0.021	-0.033
-641.682	-200.000	0.038	0.177
-640.668	172.224	0.214	0.309
-639.653	65.599	-0.274	-0.278
-638.638	292.626	-0.122	0.223
-637.624	-163.915	-0.106	0.005
-636.609	113.243	-0.169	-0.205
-635.595	-128.504	0.521	0.074
-634.580	116.510	0.274	-0.337
-633.565	-55.309	-0.217	0.098
-632.551	-93.966	0.131	-0.036
-631.536	3.787	-0.266	-0.195
-630.522	359.826	0.182	0.365
-629.507	-163.314	0.357	0.017
-628.492	199.618	0.107	-0.165
-627.478	-63.320	-0.273	0.113
-626.463	-19.062	-0.265	0.165
-625.449	-15.453	0.044	-0.028
-624.434	-158.408	0.072	-0.004
-623.419	46.144	0.226	-0.209
-622.405	-74.278	-0.514	-0.186
-621.390	-42.828	0.097	0.049
-620.376	-200.000	0.027	0.224
-619.361	-128.289	0.196	-0.028
-618.346	-77.870	0.109	-0.038
-617.332	800.000	0.011	0.043
-616.317	-124.281	0.151	0.024
-615.303	70.037	0.091	-0.095
-614.288	-105.102	0.060	0.014
-613.273	-102.392	0.192	0.046
-612.259	748.512	0.115	-0.309
-611.244	-93.655	-0.180	-0.050
-610.230	-100.967	-0.110	-0.027
-609.215	-68.042	0.153	0.060
-608.201	-106.370	0.134	0.030
-607.186	206.366	-0.063	0.098
-606.171	47.536	-0.283	-0.264
-605.157	800.000	-0.071	0.266
-604.142	-132.871	-0.217	0.028
-603.128	-40.489	0.102	-0.053
-602.113	457.903	-0.344	-0.766
-601.098	800.000	0.170	-0.718
-600.084	146.076	0.097	0.130
-599.069	-200.000	-0.013	0.113
-598.055	-152.346	-0.211	-0.015
-597.040	55.932	-0.194	0.188
-596.025	-143.893	-0.261	0.025
-595.011	271.512	0.254	-0.447
-593.996	618.266	-0.266	0.669
-592.982	241.432	-0.138	-0.231
-591.967	-200.000	-0.010	-0.235
-590.952	17.280	-0.011	0.009
-589.938	-117.625	0.134	0.024
-588.923	-104.778	0.222	0.051
-587.909	465.535	-0.059	-0.132
-586.894	-144.564	0.296	0.027
-585.879	290.061	-0.215	0.390
-584.865	-47.816	-0.092	-0.045
-583.850	-200.000	0.034	0.213
-582.836	-200.000	-0.012	0.086
-581.821	-24.510	0.342	0.204
-580.806	-64.396	-0.107	-0.043
-579.792	-8.879	0.212	-0.142
-578.777	63.138	-0.144	0.144
-577.763	55.163	-0.116	0.112
-576.748	800.000	0.044	0.178
-575.733	739.929	0.053	0.142
-574.719	-72.736	0.314	-0.116
-573.704	348.688	-0.081	-0.160
-572.690	-200.000	-0.011	0.051
-571.675	-200.000	0.332	0.001
-570.661	-56.292	-0.210	-0.093
-569.646	-45.048	-0.148	-0.074
-568.631	-74.549	-0.105	0.038
-567.617	800.000	-0.088	-0.262
-566.602	800.000	-0.089	-0.336
-565.588	243.853	0.145	0.243
-564.573	800.000	0.067	0.204
-563.558	-200.000	-0.023	-0.115
-562.544	-25.830	-0.180	-0.106
-561.529	81.417	-0.322	-0.348
-560.515	-89.808	-0.236	0.069
-559.500	-57.193	0.384	-0.169
-558.485	-126.995	-0.049	-0.007
-557.471	-170.305	0.200	-0.007
-556.456	-200.000	0.041	-0.215
-555.442	-179.032	0.128	-0.003
-554.427	41.839	0.167	0.151
-553.412	-157.911	0.046	-0.003
-552.398	-111.800	-0.172	0.035
-551.383	-88.826	0.222	0.066
-550.369	-200.000	-0.017	-0.158
-549.354	-200.000	0.007	0.107
-548.339	-123.102	0.070	-0.011
-547.325	96.141	0.144	0.165
-546.310	-11.005	-0.099	-0.065
-545.296	-200.000	0.075	-0.466
-544.281	248.830	0.063	0.107
-543.266	800.000	-0.086	0.311
-542.252	69.984	-0.123	-0.127
-541.237	-200.000	0.015	-0.250
-540.223	626.427	-0.064	-0.163
-539.208	800.000	-0.108	0.317
-538.193	53.669	0.379	0.364
-537.179	-85.872	0.260	-0.081
-536.164	-200.000	0.006	-0.071
-535.150	-65.061	0.179	-0.072
-534.135	-32.105	-0.311	-0.174
-533.121	-200.000	-0.011	-0.230
-532.106	-63.492	-0.033	0.013
-531.091	-200.000	-0.003	-0.180
-530.077	753.105	-0.087	-0.234
-529.062	105.004	-0.141	0.166
-528.048	-200.000	-0.051	0.343
-527.033	-19.118	0.097	-0.060
-526.018	-183.332	0.099	-0.002
-525.004	0.118	0.185	-0.132
-523.989	-65.410	0.150	-0.060
-522.975	-200.000	0.031	-0.164
-521.960	-81.397	-0.067	0.022
-520.945	444.833	0.076	-0.166
-519.931	-25.944	-0.088	0.052
-518.916	77.283	-0.060	-0.064
-517.902	396.184	-0.128	-0.268
-516.887	-200.000	-0.019	-0.128
-515.872	-200.000	-0.036	0.232
-514.858	-22.453	0.243	-0.147
-513.843	-200.000	0.002	-0.041
-512.829	146.622	0.096	0.129
-511.814	37.509	0.056	0.050
-510.799	18.945	0.219	-0.175
-509.785	228.788	-0.154	0.251
-508.770	-139.465	0.247	-0.026
-507.756	521.765	-0.059	0.137
-506.741	-30.985	-0.161	0.091
-505.726	-200.000	-0.059	0.335
-504.712	259.084	-0.098	-0.169
-503.697	364.512	0.100	0.202
-502.683	144.276	-0.205	-0.273
-501.668	254.204	0.112	-0.192
-500.653	-177.214	-0.340	0.008
-499.639	195.040	0.079	-0.119
-498.624	-16.200	0.267	0.169
-497.610	-200.000	0.012	-0.243
-496.595	442.589	-0.058	-0.127
-495.581	-200.000	-0.041	-0.270
-494.566	138.517	-0.010	0.013
-493.551	478.673	0.040	-0.090
-492.537	-68.455	-0.259	0.100
-491.522	-54.052	0.165	0.075
-490.508	-200.000	-0.016	-0.215
-489.493	78.373	0.183	-0.195
-488.478	-147.631	-0.164	0.014
-487.464	-38.438	-0.150	-0.079
-486.449	51.032	-0.218	0.206
-485.435	-106.795	0.092	-0.020
-484.420	10.803	0.104	0.079
-483.405	-99.230	-0.295	-0.074
-482.391	-76.835	0.192	-0.067
-481.376	485.222	-0.090	-0.204
-480.362	-18.888	-0.147	-0.091
-479.347	-161.131	0.399	-0.021
-478.332	-101.098	-0.043	0.010
-477.318	-155.767	-0.197	0.013
-476.303	190.508	0.047	-0.070
-475.289	-92.900	-0.253	-0.070
-474.274	495.597	-0.222	0.507
-473.259	16.225	0.122	0.096
-472.245	118.346	-0.132	0.162
-471.230	-121.356	0.439	-0.073
-470.216	-115.552	-0.093	-0.017
-469.201	-200.000	0.011	0.107
-468.186	70.151	-0.257	0.264
-467.172	184.148	0.050	-0.073
-466.157	368.028	0.086	-0.173
-465.143	-128.914	0.294	-0.041
-464.128	55.278	-0.064	0.061
-463.113	77.487	0.143	0.152
-462.099	-31.677	0.238	0.133
-461.084	21.324	-0.212	-0.171
-460.070	214.938	0.042	-0.066
-459.055	-200.000	-0.051	0.428
-458.040	-138.880	-0.359	0.039
-457.026	-58.940	-0.232	-0.100
-456.011	-35.822	-0.129	0.069
-454.997	-52.040	0.192	0.089
-453.982	-85.745	0.286	0.088
-452.968	348.140	0.183	0.358
-451.953	-180.626	-0.002	0.000
-450.938	-125.634	-0.272	0.041
-449.924	-128.670	-0.169	0.024
-448.909	-94.346	-0.300	-0.081
-447.895	165.344	-0.103	-0.145
-446.880	13.997	0.244	-0.189
-445.865	73.902	-0.089	0.093
-444.851	16.954	0.253	-0.199
-443.836	800.000	-0.052	-0.191
-442.822	425.806	0.068	-0.146
-441.807	2.434	-0.292	-0.210
-440.792	60.530	-0.077	-0.076
-439.778	800.000	0.059	-0.166
-438.763	-200.000	-0.071	0.402
-437.749	319.286	0.096	0.181
-436.734	-7.637	-0.122	-0.082
-435.719	-200.000	-0.005	0.105
-434.705	55.761	0.333	0.321
-433.690	-10.241	0.106	0.070
-432.676	-200.000	0.179	0.000
-431.661	-74.841	-0.137	-0.049
-430.646	-39.267	0.219	-0.114
-429.632	26.836	0.116	0.096
-428.617	-5.903	-0.391	0.266
-427.603	-49.460	0.088	-0.042
-426.588	-200.000	-0.016	0.152
-425.573	90.837	0.198	0.221
-424.559	232.008	0.323	0.527
-423.544	-82.970	0.130	0.042
-422.530	51.045	-0.175	-0.165
-421.515	-149.456	0.525	0.041
-420.500	-128.604	-0.385	0.054
-419.486	-41.697	0.129	-0.066
-418.471	-14.887	-0.074	0.047
-417.457	14.138	-0.174	0.135
-416.442	-33.643	0.131	-0.072
-415.428	-46.223	0.317	-0.155
-414.413	-60.479	-0.335	-0.141
-413.398	590.391	-0.032	0.080
-412.384	-107.614	0.446	0.097
-411.369	-3.275	0.188	-0.130
-410.355	-7.229	-0.283	0.190
-409.340	-86.593	-0.339	0.103
-408.325	800.000	-0.065	0.235
-407.311	558.416	-0.071	-0.170
-406.296	590.271	0.130	-0.319
-405.282	240.746	-0.003	-0.005
-404.267	-182.102	0.170	0.003
-403.252	-22.318	0.046	-0.028
-402.238	-5.092	0.109	0.075
-401.223	-200.000	-0.026	0.291
-400.209	626.838	-0.078	-0.195
-399.194	-200.000	-0.006	-0.248
-398.179	-15.177	-0.343	-0.218
-397.165	164.149	-0.155	-0.216
-396.150	565.063	0.075	0.180
-395.136	-104.829	-0.214	0.049
-394.121	-200.000	-0.041	-0.313
-393.106	-102.815	0.116	0.027
-392.092	-85.061	0.326	0.101
-391.077	-108.723	-0.205	-0.044
-390.063	800.000	-0.023	-0.097
-389.048	299.782	0.147	0.269
-388.033	219.146	-0.294	0.467
-387.019	-139.121	-0.224	0.024
-386.004	606.736	-0.047	-0.116
-384.990	103.489	0.066	0.077
-383.975	-200.000	-0.013	0.371
-382.960	17.859	-0.184	0.146
-381.946	-200.000	-0.009	-0.066
-380.931	490.916	-0.093	-0.211
-379.917	-106.361	-0.396	-0.088
-378.902	-6.829	0.212	0.143
-377.888	-200.000	-0.048	-0.271
-376.873	-200.000	-0.020	0.144
-375.858	101.791	-0.224	-0.259
-374.844	-101.090	0.199	0.048
-373.829	-200.000	-0.006	0.566
-372.815	86.243	-0.177	-0.193
-371.800	6.774	0.152	-0.112
-370.785	-200.000	-0.004	0.171
-369.771	-200.000	-0.030	0.331
-368.756	37.079	-0.123	0.108
-367.742	-14.704	0.385	0.246
-366.727	465.895	-0.036	0.080
-365.712	-63.300	-0.134	0.055
-364.698	20.618	0.226	-0.181
-363.683	-15.438	-0.044	0.028
-362.669	-186.417	-0.431	-0.006
-361.654	-120.830	-0.356	0.059
-360.639	-145.809	-0.230	0.020
-359.625	61.916	-0.163	0.161
-358.610	800.000	0.023	-0.069
-357.596	-40.990	0.406	0.208
-356.581	-176.628	-0.191	0.005
-355.566	17.157	-0.347	-0.273
-354.552	-200.000	-0.004	0.047
-353.537	-180.487	-0.133	0.003
-352.523	-47.806	0.141	0.068
-351.508	-71.810	0.233	0.086
-350.493	-87.038	0.179	-0.054
-349.479	-66.486	-0.111	0.044
-348.464	59.899	-0.127	0.124
-347.450	-143.196	-0.264	0.025
-346.435	331.739	-0.189	-0.362
-345.420	-200.000	0.051	-0.452
-344.406	407.982	0.226	-0.474
-343.391	-200.000	0.052	0.326
-342.377	109.716	-0.302	0.359
-341.362	-102.558	-0.219	-0.052
-340.348	182.225	-0.250	-0.364
-339.333	525.169	0.160	0.373
-338.318	-151.611	-0.153	0.011
-337.304	63.389	0.229	0.228
-336.289	-27.423	-0.149	-0.086
-335.275	107.050	-0.112	0.132
-334.260	800.000	-0.113	0.396
-333.245	422.498	0.062	-0.132
-332.231	100.540	-0.194	0.224
-331.216	45.049	0.045	0.041
-330.202	45.365	0.244	-0.223
-329.187	98.223	-0.057	0.065
-328.172	-141.728	0.632	-0.063
-327.158	800.000	0.102	0.336
-326.143	-129.921	0.141	0.019
-325.129	-200.000	0.012	-0.148
-324.114	-104.376	0.115	0.026
-323.099	-200.000	-0.009	0.242
-322.085	91.681	0.159	-0.177
-321.070	-75.932	0.321	0.112
-320.056	-38.606	-0.200	-0.105
-319.041	229.513	0.251	-0.406
-318.026	204.001	-0.121	0.186
-317.012	163.754	0.164	-0.229
-315.997	181.316	0.118	-0.171
-314.983	-200.000	0.006	-0.158
-313.968	-57.676	0.162	-0.070
-312.953	-57.754	-0.288	0.125
-311.939	-5.533	0.237	0.161
-310.924	-127.903	-0.268	0.038
-309.910	270.069	-0.102	0.177
-308.895	-200.000	-0.069	-0.516
-307.880	36.993	0.319	-0.279
-306.866	-200.000	-0.012	0.185
-305.851	-13.148	0.250	-0.161
-304.837	-33.189	0.170	-0.093
-303.822	95.451	-0.009	0.011
-302.807	-48.446	-0.211	-0.101
-301.793	-86.663	0.065	0.020
-300.778	130.878	0.215	0.272
-299.764	93.564	0.135	0.151
-298.749	-200.000	0.050	0.226
-297.735	-200.000	-0.036	0.230
-296.720	32.525	0.446	0.381
-295.705	-200.000	0.007	-0.173
-294.691	268.020	-0.174	-0.302
-293.676	301.624	0.164	-0.300
-292.662	800.000	-0.038	-0.126
-291.647	689.415	0.068	-0.177
-290.632	800.000	0.058	-0.220
-289.618	132.481	0.200	0.255
-288.603	214.384	0.081	0.127
-287.589	172.326	-0.095	-0.135
-286.574	-89.839	-0.244	0.070
-285.559	800.000	0.073	0.246
-284.545	71.566	-0.041	-0.042
-283.530	-32.165	-0.242	0.134
-282.516	-3.408	0.281	-0.194
-281.501	-27.705	0.198	0.114
-280.486	-6.491	-0.073	-0.049
-279.472	4.997	0.028	-0.021
-278.457	105.382	0.077	0.090
-277.443	-200.000	0.003	-0.066
-276.428	-114.239	-0.042	-0.008
-275.413	-42.667	0.166	0.083
-274.399	-2.100	0.313	0.217
-273.384	154.126	0.075	-0.101
-272.370	30.520	-0.241	-0.204
-271.355	31.635	0.043	0.037
-270.340	466.359	-0.115	0.255
-269.326	422.454	-0.134	0.283
-268.311	-181.907	-0.500	0.009
-267.297	494.814	-0.118	0.267
-266.282	2.535	-0.235	-0.168
-265.267	17.599	0.136	0.107
-264.253	-146.937	0.062	-0.005
-263.238	-108.003	-0.202	0.043
-262.224	43.753	0.319	0.289
-261.209	-130.048	-0.157	0.021
-260.195	800.000	-0.079	0.248
-259.180	800.000	0.074	0.275
-258.165	-45.483	0.178	0.087
-257.151	-164.077	0.150	-0.007
-256.136	-43.430	-0.158	-0.079
-255.122	-106.806	0.442	0.097
-254.107	-200.000	0.009	-0.299
-253.092	800.000	0.093	-0.317
-252.078	-137.806	0.107	-0.012
-251.063	-38.085	-0.056	-0.029
-250.049	-163.266	-0.178	-0.008
-249.034	127.659	-0.250	0.313
-248.019	-108.379	0.185	-0.039
-247.005	-161.173	-0.318	-0.016
-245.990	-141.110	-0.245	0.025
-244.976	354.849	-0.130	0.256
-243.961	110.337	-0.204	-0.242
-242.946	69.880	-0.058	0.059
-241.932	-200.000	-0.005	0.098
-240.917	-200.000	0.013	0.080
-239.903	128.189	-0.092	0.115
-238.888	197.157	0.061	0.092
-237.873	295.536	0.019	0.034
-236.859	93.402	0.042	0.047
-235.844	-200.000	-0.023	-0.142
-234.830	14.481	0.034	-0.026
-233.815	-160.685	0.149	-0.008
-232.800	-89.010	-0.375	0.110
-231.786	23.542	0.189	-0.153
-230.771	-80.166	0.254	0.084
-229.757	-200.000	-0.054	-0.405
-228.742	800.000	-0.024	0.087
-227.727	-66.234	-0.414	0.163
-226.713	72.293	0.405	0.416
-225.698	450.976	-0.114	-0.249
-224.684	-18.674	-0.129	-0.079
-223.669	-44.522	-0.100	-0.049
-222.655	329.324	0.105	-0.198
-221.640	-63.493	-0.310	-0.126
-220.625	-71.824	-0.148	-0.055
-219.611	120.383	-0.228	0.279
-218.596	500.483	-0.073	-0.167
-217.582	520.174	0.062	0.143
-216.567	-85.593	-0.094	-0.029
-215.552	-200.000	0.016	-0.176
-214.538	-116.727	0.320	-0.058
-213.523	41.455	0.180	0.161
-212.509	-25.558	-0.130	0.076
-211.494	-68.128	-0.353	-0.136
-210.479	-120.271	0.055	0.009
-209.465	-21.330	-0.016	0.009
-208.450	412.679	0.016	-0.034
-207.436	-183.992	0.167	-0.003
-206.421	-14.516	0.355	0.225
-205.406	29.014	-0.073	0.061
-204.392	800.000	-0.127	-0.381
-203.377	-10.456	-0.237	-0.155
-202.363	-200.000	0.048	0.279
-201.348	-200.000	0.053	-0.297
-200.333	-200.000	0.012	-0.365
-199.319	-0.559	-0.190	0.133
-198.304	-74.910	-0.105	0.037
-197.290	74.646	-0.243	0.252
-196.275	188.345	-0.050	-0.073
-195.260	573.532	0.188	-0.452
-194.246	-103.256	0.065	-0.015
-193.231	-200.000	0.006	0.110
-192.217	13.861	-0.055	0.042
-191.202	76.840	0.145	-0.152
-190.187	140.651	-0.163	-0.211
-189.173	793.056	-0.092	-0.249
-188.158	749.640	0.085	0.225
-187.144	-101.329	-0.103	0.025
-186.129	-200.000	0.045	0.273
-185.114	53.067	0.125	-0.118
-184.100	-37.585	-0.403	-0.211
-183.085	-132.223	-0.268	0.034
-182.071	668.536	0.029	0.074
-181.056	800.000	0.017	-0.054
-180.042	552.476	-0.045	-0.106
-179.027	255.002	-0.221	0.372
-178.012	-200.000	-0.025	0.176
-176.998	5.505	0.090	-0.066
-175.983	-146.601	-0.344	-0.029
-174.969	127.968	0.059	0.073
-173.954	-8.272	0.087	0.058
-172.939	-110.563	0.376	-0.077
-171.925	94.731	0.232	0.260
-170.910	4.630	0.185	0.133
-169.896	82.920	-0.157	-0.169
-168.881	6.022	0.141	-0.103
-167.866	-21.400	-0.061	0.037
-166.852	-200.000	-0.006	0.238
-165.837	-200.000	-0.059	-0.262
-164.823	10.484	0.201	0.151
-163.808	-200.000	-0.004	-0.137
-162.793	-64.068	-0.311	-0.125
-161.779	237.836	-0.105	0.171
-160.764	8.639	0.268	-0.199
-159.750	-46.982	-0.153	-0.073
-158.735	-87.665	0.320	-0.095
-157.720	800.000	0.023	-0.090
-156.706	-200.000	-0.003	0.029
-155.691	-153.238	0.232	0.016
-154.677	-52.613	0.223	0.101
-153.662	800.000	0.084	-0.315
-152.647	-174.388	0.196	0.006
-151.633	377.316	-0.024	0.049
-150.618	-200.000	-0.014	-0.205
-149.604	-200.000	0.037	0.189
-148.589	148.027	-0.166	-0.220
-147.574	-132.761	0.186	-0.023
-146.560	-118.576	-0.211	-0.037
-145.545	-41.286	-0.215	-0.109
-144.531	-183.117	-0.355	-0.006
-143.516	372.138	-0.126	0.252
-142.502	-53.049	0.300	-0.136
-141.487	800.000	-0.122	0.416
-140.472	-177.851	-0.036	-0.001
-139.458	-5.721	0.189	-0.128
-138.443	-200.000	-0.053	0.265
-137.429	-137.053	0.386	-0.043
-136.414	19.230	-0.026	-0.021
-135.399	121.328	0.019	0.023
-134.385	-52.197	0.273	0.124
-133.370	68.331	-0.167	0.168
-132.356	-35.300	0.219	-0.117
-131.341	-200.000	-0.008	0.159
-130.326	181.213	0.132	-0.191
-129.312	-0.116	0.069	0.048
-128.297	-200.000	-0.008	0.102
-127.283	-83.747	-0.211	-0.066
-126.268	38.294	-0.179	-0.157
-125.253	800.000	0.048	-0.142
-124.239	-88.970	-0.143	-0.042
-123.224	-200.000	-0.016	-0.233
-122.210	449.310	0.040	-0.087
-121.195	311.104	-0.062	0.114
-120.180	-138.816	-0.153	-0.016
-119.166	-25.771	0.031	-0.018
-118.151	800.000	-0.076	-0.210
-117.137	-99.018	-0.116	0.029
-116.122	99.462	0.103	0.117
-115.107	-42.565	-0.155	0.077
-114.093	186.759	0.139	0.203
-113.078	-200.000	-0.012	-0.330
-112.064	-200.000	0.043	-0.235
-111.049	9.191	0.145	-0.107
-110.034	20.495	0.138	-0.110
-109.020	422.595	0.109	0.229
-108.005	224.822	0.077	0.123
-106.991	-200.000	0.035	-0.258
-105.976	-200.000	-0.090	-0.480
-104.962	214.765	0.140	-0.218
-103.947	71.400	-0.179	0.183
-102.932	-33.751	-0.152	0.082
-101.918	-57.524	-0.134	0.058
-100.903	413.745	-0.121	0.253
-99.889	390.872	-0.055	0.112
-98.874	-11.882	-0.139	-0.089
-97.859	-200.000	-0.012	0.291
-96.845	8.415	0.129	0.095
-95.830	800.000	-0.064	0.202
-94.816	-48.360	0.044	0.021
-93.801	52.532	0.247	0.232
-92.786	186.438	-0.092	0.134
-91.772	-126.243	0.293	-0.043
-90.757	-6.521	0.145	0.097
-89.743	-200.000	0.011	0.222
-88.728	48.860	0.259	0.238
-87.713	-48.020	0.117	0.055
-86.699	-200.000	-0.064	-0.311
-85.684	-200.000	-0.046	-0.252
-84.670	-118.717	-0.383	0.066
-83.655	-200.000	-0.022	0.175
-82.640	-200.000	0.005	-0.337
-81.626	-200.000	-0.013	-0.122
-80.611	800.000	-0.082	-0.229
-79.597	800.000	-0.059	-0.171
-78.582	118.743	-0.012	-0.014
-77.567	74.859	0.401	0.414
-76.553	522.284	0.071	0.164
-75.538	154.898	-0.296	0.398
-74.524	800.000	0.071	0.199
-73.509	-128.023	-0.272	0.038
-72.494	-200.000	0.084	0.485
-71.480	13.144	0.187	0.142
-70.465	43.492	0.141	-0.126
-69.451	-200.000	0.029	0.200
-68.436	800.000	-0.061	0.208
-67.422	357.794	0.055	-0.107
-66.407	35.261	-0.112	-0.097
-65.392	-120.630	0.284	0.047
-64.378	17.935	-0.296	0.231
-63.363	-151.675	0.128	0.009
-62.349	136.163	-0.063	0.080
-61.334	108.344	-1.032	-1.208
-60.319	72.072	0.440	0.449
-59.305	800.000	-0.290	-1.084
-58.290	218.550	0.675	1.057
-57.276	800.000	0.438	1.638
-56.261	-200.000	104.850	605.456
-55.246	500.775	1493.320	3377.462
-54.232	178.060	2688.953	3844.540
-53.217	112.879	2164.513	2570.152
-52.203	41.992	1597.158	1420.216
-51.188	33.296	1330.537	1131.389
-50.173	30.161	1289.086	1077.907
-49.159	53.942	1342.258	1264.080
-48.144	54.680	1358.670	1283.863
-47.130	33.438	1313.833	1117.848
-46.115	30.078	1295.556	1082.660
-45.100	29.790	1291.159	1077.267
-44.086	29.684	1288.570	1074.447
-43.071	29.687	1286.234	1072.476
-42.057	29.628	1284.225	1070.414
-41.042	29.709	1282.610	1069.495
-40.027	29.775	1281.036	1068.519
-39.013	29.663	1279.388	1066.455
-37.998	29.752	1277.579	1065.422
-36.984	29.829	1275.620	1064.188
-35.969	29.770	1274.106	1062.546
-34.954	29.829	1272.017	1061.097
-33.940	29.795	1271.299	1060.260
-32.925	29.952	1269.250	1059.410
-31.911	29.892	1268.100	1058.062
-30.896	29.901	1266.539	1056.768
-29.881	29.930	1264.976	1055.588
-28.867	29.924	1263.869	1054.587
-27.852	30.020	1262.680	1054.102
-26.838	29.935	1261.449	1052.553
-25.823	29.933	1259.723	1051.055
-24.809	29.892	1258.413	1049.687
-23.794	29.856	1257.845	1048.967
-22.779	29.895	1256.575	1048.091
-21.765	29.947	1254.902	1046.946
-20.750	29.932	1253.442	1045.605
-19.736	29.842	1252.142	1043.970
-18.721	29.893	1251.011	1043.273
-17.706	29.753	1249.811	1041.440
-16.692	29.762	1248.745	1040.563
-15.677	29.722	1248.107	1039.767
-14.663	29.692	1246.872	1038.525
-13.648	29.713	1245.543	1037.496
-12.633	29.680	1244.767	1036.622
-11.619	29.797	1244.097	1036.678
-10.604	29.785	1242.789	1035.484
-9.590	29.817	1241.919	1034.895
-8.575	29.733	1241.264	1033.839
-7.560	29.639	1240.612	1032.731
-6.546	29.644	1239.795	1032.038
-5.531	29.724	1238.538	1031.392
-4.517	29.752	1237.821	1030.912
-3.502	29.740	1236.921	1030.052
-2.487	29.770	1235.781	1029.229
-1.473	29.787	1232.060	1026.184
-0.458	28.702	1217.094	1007.727
0.556	23.002	1200.870	972.764
1.571	19.569	1206.558	958.267
2.586	18.905	1220.661	965.655
3.600	18.585	1210.281	955.574
4.615	13.978	1138.858	874.898
5.629	4.739	1064.244	771.854
6.644	0.163	1043.688	734.585
7.659	-0.220	1041.198	730.904
8.673	-0.289	1039.534	729.338
9.688	-0.303	1038.277	728.323
10.702	0.255	1036.358	729.616
11.717	6.129	1045.407	764.556
12.731	15.253	1057.924	818.373
13.746	19.782	1063.561	844.838
14.761	20.823	1065.308	851.243
15.775	20.850	1064.542	850.689
16.790	20.753	1063.503	849.310
17.804	20.608	1062.783	847.952
18.819	20.671	1062.696	848.115
19.834	20.860	1062.357	848.688
20.848	20.773	1061.858	847.795
21.863	20.825	1061.339	847.558
22.877	20.704	1060.753	846.427
23.892	20.685	1059.768	845.470
24.907	20.819	1058.903	845.359
25.921	20.790	1058.037	844.453
26.936	20.642	1057.179	842.974
27.950	20.789	1055.037	841.900
28.965	20.424	1053.482	838.827
29.980	20.703	1051.634	838.622
30.994	20.783	1051.230	838.611
32.009	20.786	1049.913	837.503
33.023	20.665	1048.443	835.675
34.038	20.805	1047.608	835.608
35.053	20.898	1046.877	835.395
36.067	20.816	1046.774	834.846
37.082	20.929	1045.682	834.443
38.096	21.064	1044.539	834.104
39.111	21.036	1044.194	833.618
40.126	20.978	1042.708	832.081
41.140	20.526	1041.470	828.865
42.155	20.431	1039.684	826.920
43.169	20.595	1038.658	826.812
44.184	20.433	1037.945	825.402
45.199	20.403	1036.689	824.185
46.213	20.531	1035.938	824.124
47.228	20.599	1035.164	823.756
48.242	20.676	1034.349	823.399
49.257	20.779	1033.766	823.348
50.271	20.942	1032.840	823.309
51.286	20.906	1032.051	822.437
52.301	20.951	1031.165	821.868
53.315	20.804	1030.392	820.490
54.330	20.738	1029.486	819.384
55.344	20.834	1028.816	819.230
56.359	20.748	1027.865	817.997
57.374	20.714	1026.146	816.395
58.388	20.539	1026.372	815.685
59.403	20.612	1024.960	814.829
60.417	20.396	1024.340	813.252
61.432	20.538	1023.864	813.470
62.447	20.545	1023.266	812.953
63.461	20.722	1021.777	812.525
64.476	20.556	1021.068	811.114
65.490	20.569	1019.978	810.239
66.505	20.641	1019.733	810.308
67.520	20.574	1018.986	809.329
68.534	20.317	1017.782	807.109
69.549	20.052	1016.518	804.805
70.563	20.160	1016.143	804.935
71.578	20.094	1015.033	803.681
72.593	19.928	1014.019	802.036
73.607	20.157	1013.238	802.407
74.622	20.490	1012.973	803.667
75.636	20.576	1011.909	803.151
76.651	20.178	1011.750	801.114
77.666	20.264	1010.446	800.408
78.680	20.357	1009.714	800.187
79.695	20.460	1009.094	800.097
80.709	20.512	1008.422	799.733
81.724	20.475	1007.423	798.702
82.739	20.442	1006.829	798.007
83.753	20.883	1006.357	799.585
84.768	21.178	1005.431	800.134
85.782	21.160	1004.602	799.319
86.797	21.035	1003.445	797.756
87.812	20.902	1002.454	796.291
88.826	20.974	1001.792	796.025
89.841	21.006	1000.913	795.400
90.855	21.092	999.890	794.907
91.870	20.994	999.225	793.865
92.884	20.786	998.040	791.905
93.899	20.835	997.021	791.250
94.914	21.041	996.136	791.415
95.928	20.910	994.719	789.622
96.943	20.693	993.729	787.787
97.957	20.531	992.577	786.068
98.972	20.323	991.512	784.218
99.987	20.601	990.747	784.798
101.001	20.764	990.037	784.902
102.016	20.762	989.058	784.046
103.030	20.554	988.297	782.435
104.045	20.670	987.255	782.063
105.060	20.442	986.240	780.165
106.074	20.491	985.930	780.072
107.089	20.941	985.326	781.543
108.103	20.836	983.665	779.688
109.118	20.597	982.680	777.768
110.133	20.542	981.785	776.746
111.147	20.264	980.297	774.260
112.162	20.346	979.380	773.835
113.176	20.607	978.777	774.452
114.191	20.459	977.687	772.861
115.206	20.185	976.771	770.852
116.220	20.081	976.219	769.885
117.235	20.266	975.160	769.801
118.249	20.050	975.207	768.812
119.264	20.111	973.576	767.732
120.279	20.208	972.816	767.490
121.293	20.402	971.932	767.583
122.308	20.261	971.235	766.344
123.322	20.246	970.034	765.263
124.337	20.014	968.293	762.801
125.352	19.741	966.490	760.112
126.366	19.548	966.150	758.929
127.381	20.270	966.318	762.166
128.395	20.712	965.481	763.375
129.410	20.751	964.371	762.602
130.424	20.806	963.191	761.841
131.439	20.875	962.505	761.533
132.454	20.679	961.893	760.126
133.468	20.706	960.644	759.191
134.483	20.844	960.493	759.607
135.497	20.901	959.686	759.149
136.512	20.898	958.860	758.413
137.527	20.946	958.086	757.945
138.541	21.032	957.036	757.418
139.556	20.995	956.239	756.562
140.570	21.090	955.213	756.093
141.585	21.056	954.390	755.229
142.600	21.036	953.471	754.348
143.614	21.159	953.162	754.570
144.629	21.234	951.909	753.832
145.643	21.118	950.529	752.173
146.658	21.048	949.190	750.747
147.673	20.816	948.714	749.306
148.687	20.718	947.538	747.888
149.702	20.870	946.489	747.646
150.716	20.814	945.677	746.701
151.731	21.043	945.055	747.124
152.746	21.142	944.720	747.216
153.760	21.211	943.628	746.581
154.775	21.167	942.898	745.752
155.789	21.134	942.367	745.125
156.804	21.267	941.182	744.690
157.819	21.130	940.709	743.663
158.833	21.305	939.947	743.742
159.848	21.327	938.559	742.672
160.862	21.161	937.467	741.036
161.877	21.247	936.742	740.764
162.892	21.224	935.927	739.954
163.906	21.222	934.511	738.761
164.921	21.150	933.958	737.957
165.935	21.280	933.047	737.718
166.950	21.131	932.235	736.383
167.964	21.151	931.098	735.502
168.979	21.001	929.731	733.726
169.994	20.952	928.693	732.638
171.008	21.231	928.554	733.634
172.023	21.135	927.733	732.518
173.037	20.968	926.943	731.131
174.052	20.871	925.937	729.867
175.067	20.950	925.177	729.535
176.081	21.040	924.713	729.479
177.096	20.831	924.345	728.249
178.110	20.625	923.071	726.321
179.125	20.529	922.582	725.473
180.140	20.532	922.072	725.020
181.154	20.796	921.573	725.664
182.169	21.037	921.754	726.744
183.183	21.142	921.343	726.796
184.198	21.028	920.082	725.262
185.213	21.046	919.812	725.060
186.227	21.129	918.398	724.227
187.242	21.121	918.054	723.858
188.256	21.284	917.425	723.973
189.271	21.258	916.555	723.112
190.286	20.939	915.297	720.739
191.300	20.356	914.245	717.438
192.315	19.729	912.629	713.518
193.329	19.599	912.441	712.773
194.344	20.493	912.834	716.704
195.359	21.129	912.561	719.049
196.373	20.995	911.901	717.911
197.388	20.953	911.227	717.147
198.402	21.015	910.735	716.951
199.417	21.024	910.225	716.523
200.432	20.717	909.015	714.248
201.446	20.651	908.531	713.532
202.461	20.706	907.837	713.151
203.475	19.815	905.880	707.905
204.490	19.163	904.254	703.907
205.504	20.016	904.884	707.822
206.519	20.600	905.044	710.271
207.534	20.687	904.508	710.143
208.548	21.109	904.390	711.708
209.563	20.923	903.162	709.921
210.577	20.790	902.534	708.825
211.592	21.217	902.568	710.525
212.607	21.192	901.422	709.459
213.621	21.188	901.075	709.109
214.636	21.266	900.439	708.861
215.650	21.199	899.280	707.615
216.665	21.270	898.661	707.352
217.680	21.153	898.250	706.491
218.694	20.726	896.834	703.591
219.709	20.664	896.133	702.729
220.723	20.965	896.007	703.784
221.738	20.935	895.388	703.114
222.753	21.054	894.572	702.889
223.767	21.230	894.022	703.105
224.782	21.456	893.737	703.725
225.796	21.230	893.272	702.390
226.811	20.648	891.645	698.711
227.826	20.154	890.306	695.619
228.840	20.320	890.027	696.003
229.855	20.225	889.614	695.239
230.869	19.988	888.164	693.097
231.884	20.366	888.529	694.833
232.899	21.032	888.403	697.338
233.913	21.091	887.704	696.960
234.928	20.928	887.167	695.826
235.942	20.776	886.530	694.659
236.957	20.576	885.432	692.941
237.972	20.723	884.896	693.045
238.986	20.715	884.369	692.538
240.001	20.785	883.705	692.238
241.015	20.949	883.342	692.542
242.030	20.941	883.205	692.343
243.045	21.043	882.644	692.246
244.059	21.201	881.977	692.287
245.074	21.020	880.926	690.684
246.088	20.619	879.738	688.107
247.103	20.978	879.484	689.267
248.117	21.472	879.681	691.313
249.132	21.657	879.007	691.453
250.147	21.669	878.245	690.837
251.161	21.906	878.008	691.525
252.176	21.756	877.421	690.411
253.190	21.852	876.746	690.198
254.205	22.025	876.221	690.402
255.220	21.988	875.666	689.761
256.234	21.818	875.003	688.509
257.249	21.764	874.021	687.462
258.263	21.819	873.425	687.150
259.278	21.784	872.834	686.486
260.293	21.956	871.860	686.334
261.307	21.860	871.286	685.446
262.322	21.634	870.954	684.239
263.336	20.831	868.708	679.283
264.351	19.983	866.806	674.434
265.366	19.933	866.844	674.209
266.380	21.041	867.342	678.853
267.395	21.492	867.092	680.353
268.409	21.539	866.271	679.832
269.424	21.625	865.696	679.653
270.439	21.771	865.037	679.639
271.453	21.636	864.873	678.930
272.468	21.922	864.757	679.887
273.482	22.047	863.882	679.622
274.497	21.600	862.805	676.985
275.512	21.149	861.809	674.403
276.526	21.701	861.740	676.422
277.541	21.797	861.718	676.715
278.555	21.577	860.401	674.774
279.570	21.394	859.657	673.423
280.585	21.612	859.316	673.939
281.599	21.649	858.219	673.158
282.614	20.875	857.266	669.378
283.628	20.912	856.933	669.202
284.643	21.329	856.563	670.453
285.657	20.992	855.062	667.931
286.672	20.532	854.524	665.687
287.687	21.354	854.444	668.714
288.701	21.243	854.010	667.890
289.716	21.044	853.137	666.390
290.730	20.910	852.307	665.171
291.745	20.730	851.211	663.569
292.760	21.020	851.453	664.806
293.774	22.091	851.612	668.950
294.789	22.397	851.185	669.720
295.803	22.319	850.753	669.024
296.818	22.390	849.832	668.513
297.833	21.745	849.023	665.369
298.847	21.671	848.204	664.388
299.862	22.014	848.314	665.716
300.876	22.193	847.971	666.065
301.891	22.119	846.820	664.823
302.906	21.660	846.182	662.527
303.920	21.913	845.930	663.227
304.935	22.243	845.514	664.090
305.949	22.251	844.462	663.233
306.964	21.911	844.053	661.573
307.979	22.100	843.591	661.864
308.993	22.301	843.855	662.770
310.008	22.457	842.661	662.362
311.022	22.210	842.018	660.870
312.037	21.843	841.668	659.157
313.052	21.701	840.628	657.751
314.066	20.998	838.711	653.559
315.081	20.585	838.341	651.664
316.095	21.449	839.012	655.365
317.110	21.850	838.617	656.502
318.125	21.110	836.980	652.395
319.139	19.954	835.889	647.169
320.154	20.255	835.199	647.700
321.168	21.069	835.835	651.176
322.183	21.675	835.776	653.337
323.197	21.656	835.699	653.147
324.212	21.924	834.894	653.459
325.227	22.108	834.170	653.518
326.241	21.856	833.806	652.236
327.256	21.930	833.023	651.842
328.270	21.778	832.212	650.585
329.285	21.559	831.823	649.412
330.300	21.196	831.277	647.584
331.314	21.683	830.745	648.913
332.329	21.825	830.836	649.453
333.343	22.102	830.425	650.100
334.358	22.075	829.857	649.498
335.373	22.244	829.496	649.782
336.387	22.447	829.099	650.164
337.402	22.475	829.466	650.500
338.416	22.458	828.711	649.787
339.431	22.577	828.524	650.019
340.446	22.669	828.333	650.150
341.460	22.518	827.577	648.946
342.475	22.498	826.576	648.030
343.489	22.364	826.708	647.584
344.504	22.674	826.168	648.241
345.519	22.801	826.306	648.760
346.533	22.975	825.291	648.545
347.548	22.874	824.918	647.821
348.562	22.923	824.354	647.501
349.577	22.834	823.798	646.681
350.592	22.933	823.201	646.518
351.606	22.919	822.341	645.735
352.621	22.844	821.153	644.469
353.635	22.487	820.903	642.914
354.650	21.884	819.705	639.722
355.665	21.121	817.972	635.534
356.679	21.591	817.728	637.001
357.694	21.878	817.374	637.712
358.708	21.889	816.942	637.359
359.723	22.257	816.646	638.407
360.738	22.676	816.082	639.430
361.752	22.545	816.154	638.951
362.767	23.009	815.595	640.141
363.781	23.054	815.287	640.004
364.796	23.305	814.539	640.268
365.810	23.196	814.628	639.888
366.825	23.073	814.375	639.188
367.840	22.898	813.381	637.720
368.854	22.594	812.196	635.636
369.869	22.607	811.592	635.155
370.883	22.786	811.397	635.591
371.898	22.435	811.284	634.181
372.913	22.602	811.066	634.556
373.927	22.727	810.458	634.474
374.942	22.833	809.890	634.354
375.956	22.927	809.298	634.171
376.971	23.176	809.189	634.923
377.986	23.153	809.064	634.688
379.000	23.065	808.462	633.844
380.015	23.015	807.647	632.969
381.029	23.089	807.186	632.815
382.044	23.286	806.681	633.068
383.059	23.150	806.195	632.146
384.073	23.190	805.469	631.663
385.088	22.979	805.362	630.771
386.102	22.981	804.600	630.125
387.117	23.040	803.591	629.490
388.132	22.742	802.147	627.244
389.146	22.137	801.424	624.472
390.161	22.572	801.702	626.180
391.175	23.015	801.115	627.241
392.190	22.553	800.181	624.817
393.205	21.278	798.271	618.754
394.219	19.793	796.948	612.419
395.234	19.916	796.399	612.380
396.248	21.545	797.925	619.267
397.263	22.718	799.074	624.258
398.278	22.813	798.376	623.994
399.292	22.628	797.678	622.740
400.307	22.652	796.853	622.126
401.321	22.812	796.627	622.457
402.336	22.836	796.679	622.529
403.350	23.327	796.774	624.279
404.365	23.502	796.385	624.535
405.380	23.782	796.443	625.508
406.394	24.098	795.187	625.580
407.409	23.937	794.703	624.578
408.423	24.002	794.363	624.484
409.438	23.972	793.957	624.003
410.453	23.909	793.705	623.529
411.467	23.813	793.419	622.913
412.482	23.670	793.234	622.212
413.496	23.808	792.701	622.220
414.511	23.888	792.276	622.113
415.526	23.982	791.731	621.959
416.540	23.950	790.649	620.943
417.555	23.625	790.101	619.322
418.569	23.551	789.850	618.812
419.584	23.560	789.287	618.350
420.599	23.264	789.053	617.080
421.613	157.085	1366.015	1798.011
422.628	135.955	1450.064	1798.099
