DTS Sentinel unit serial number:	SN413079Multiplexer serial number:	ORYXHardware model number:	OX4-SRSoftware version number:	ORYX F/W v4.00 Oryx Data Collector v3.7.2.0data status	okinstallation	princeton_trtdifferential loss correction	single-endedforward channel	channel 1reverse channel	N/Adate	2019/09/10time	23:48:11forward acquisition time	60.00reverse acquisition time	0.00gamma	496.2192k internal	0.2331k external	0.2331temperature offset calibration	0.9932default loss term (dB/km)	0.3790temperature slope calibration	1.0000multiplexer offset coefficient	1.0000multiplexer slope coefficient	1.0000fibre end	0.00T internal ref (°C)	29.55T ext. ref 1 (°C)	-0.31T ext. ref 2 (°C)	23.07length (m)	temperature (°C)	Stokes	anti-Stokes-747.200	-118.276	0.285	0.051
-746.185	-200.000	-0.034	0.316
-745.171	-27.337	0.120	-0.070
-744.156	-200.000	0.012	0.209
-743.142	-120.194	0.401	-0.069
-742.127	4.451	0.130	0.096
-741.112	-200.000	-0.057	-0.299
-740.098	-158.906	-0.093	-0.005
-739.083	-124.949	-0.077	0.012
-738.069	566.430	0.087	0.212
-737.054	50.188	-0.101	-0.096
-736.039	-200.000	-0.005	-0.238
-735.025	67.203	0.145	0.149
-734.010	800.000	-0.048	-0.163
-732.996	294.550	-0.166	-0.306
-731.981	-158.285	-0.230	-0.013
-730.966	252.953	0.096	-0.165
-729.952	800.000	-0.048	-0.193
-728.937	157.223	0.045	-0.063
-727.923	800.000	0.101	-0.317
-726.908	399.804	0.050	-0.106
-725.894	-200.000	0.008	-0.135
-724.879	-32.828	-0.228	-0.128
-723.864	18.879	0.121	0.098
-722.850	-143.266	0.163	-0.016
-721.835	596.995	-0.087	0.216
-720.821	-53.927	0.355	-0.163
-719.806	-114.526	-0.368	-0.071
-718.791	10.962	0.363	0.279
-717.777	800.000	-0.027	-0.096
-716.762	-158.087	-0.293	0.017
-715.748	-87.756	0.127	0.039
-714.733	-200.000	0.065	-0.646
-713.718	-200.000	-0.010	0.081
-712.704	119.024	-0.159	0.198
-711.689	-96.034	0.346	-0.092
-710.675	-101.581	-0.217	-0.053
-709.660	-97.567	0.096	0.025
-708.645	-125.789	0.291	0.044
-707.631	339.491	-0.186	-0.364
-706.616	-150.083	0.233	0.018
-705.602	800.000	0.103	0.301
-704.587	800.000	-0.049	-0.156
-703.572	204.337	-0.298	-0.464
-702.558	159.969	0.047	0.066
-701.543	-48.070	0.200	0.097
-700.529	-200.000	-0.022	-0.361
-699.514	-106.403	-0.065	-0.015
-698.499	-79.060	-0.181	0.062
-697.485	611.466	-0.223	-0.560
-696.470	151.302	-0.317	-0.434
-695.456	-86.090	-0.131	0.041
-694.441	82.517	0.332	0.362
-693.426	19.634	-0.191	0.155
-692.412	-125.677	0.101	-0.015
-691.397	42.766	0.147	-0.134
-690.383	30.588	0.323	-0.277
-689.368	-8.385	-0.306	-0.207
-688.354	-23.009	-0.302	0.183
-687.339	-86.584	0.260	-0.080
-686.324	13.445	-0.213	0.166
-685.310	-200.000	-0.021	-0.226
-684.295	-200.000	-0.044	-0.209
-683.281	-45.704	0.191	-0.095
-682.266	40.748	-0.218	-0.197
-681.251	-161.287	0.194	0.010
-680.237	168.517	0.260	-0.372
-679.222	605.022	-0.142	0.354
-678.208	800.000	-0.035	0.126
-677.193	-200.000	-0.022	0.223
-676.178	280.948	-0.099	-0.178
-675.164	191.532	-0.158	-0.238
-674.149	-134.654	-0.178	-0.022
-673.135	-157.950	-0.143	-0.008
-672.120	-58.770	-0.182	-0.079
-671.105	70.070	-0.176	0.182
-670.091	-13.936	0.260	0.169
-669.076	-152.753	0.400	0.028
-668.062	-30.042	-0.206	-0.118
-667.047	115.381	0.262	0.321
-666.032	421.727	0.039	0.083
-665.018	-92.291	-0.382	-0.108
-664.003	9.461	-0.277	-0.210
-662.989	521.145	0.073	-0.173
-661.974	79.953	-0.135	-0.145
-660.959	12.978	-0.179	-0.139
-659.945	-25.780	-0.210	0.124
-658.930	-63.309	-0.106	-0.044
-657.916	-90.763	0.158	0.046
-656.901	-200.000	-0.453	0.001
-655.886	-121.482	0.218	0.036
-654.872	49.356	-0.065	-0.061
-653.857	-7.013	-0.150	-0.102
-652.843	-21.447	0.141	-0.086
-651.828	-129.883	-0.394	-0.054
-650.814	254.888	-0.177	0.303
-649.799	-5.182	-0.338	-0.233
-648.784	480.326	-0.006	-0.013
-647.770	-139.047	-0.258	0.028
-646.755	-21.285	-0.290	0.178
-645.741	157.271	0.042	-0.058
-644.726	170.739	0.168	0.241
-643.711	-175.881	0.120	0.003
-642.697	800.000	0.080	-0.315
-641.682	42.521	0.123	0.112
-640.668	383.890	-0.020	0.041
-639.653	-200.000	-0.007	-0.054
-638.638	-200.000	0.014	-0.197
-637.624	597.979	-0.088	-0.218
-636.609	5.981	-0.255	0.189
-635.595	163.245	0.024	0.034
-634.580	-34.109	0.423	-0.233
-633.565	-34.510	-0.149	0.082
-632.551	40.849	0.067	0.060
-631.536	-200.000	0.002	-0.072
-630.522	30.289	0.114	0.098
-629.507	-96.365	-0.329	-0.087
-628.492	22.748	0.045	-0.037
-627.478	800.000	-0.139	-0.473
-626.463	800.000	-0.074	-0.270
-625.449	114.162	-0.168	0.204
-624.434	-200.000	0.009	-0.192
-623.419	39.168	0.220	-0.197
-622.405	227.121	-0.059	0.096
-621.390	67.283	-0.256	0.262
-620.376	254.822	0.083	0.143
-619.361	-111.658	0.221	-0.045
-618.346	-162.500	0.312	-0.015
-617.332	800.000	-0.043	-0.177
-616.317	-140.595	-0.341	0.035
-615.303	100.604	0.176	-0.205
-614.288	-28.011	0.263	-0.152
-613.273	110.329	-0.194	-0.233
-612.259	50.968	0.274	-0.260
-611.244	-3.236	0.078	0.054
-610.230	16.432	0.134	-0.106
-609.215	121.927	0.116	0.144
-608.201	167.472	0.135	0.192
-607.186	200.864	0.136	-0.209
-606.171	503.260	-0.031	-0.071
-605.157	-137.704	-0.128	0.014
-604.142	-156.922	-0.114	0.007
-603.128	-200.000	-0.001	0.363
-602.113	-200.000	0.011	0.407
-601.098	249.866	0.106	-0.180
-600.084	-135.868	-0.412	-0.049
-599.069	-162.955	0.197	-0.010
-598.055	30.252	-0.162	-0.138
-597.040	-114.902	0.210	-0.040
-596.025	68.030	-0.032	-0.033
-595.011	-143.802	-0.079	-0.007
-593.996	77.864	0.208	-0.221
-592.982	800.000	-0.041	-0.147
-591.967	15.720	0.283	-0.223
-590.952	-47.633	0.111	-0.054
-589.938	300.602	0.005	-0.010
-588.923	21.581	0.217	0.177
-587.909	-111.898	-0.295	0.059
-586.894	-200.000	-0.097	-0.447
-585.879	-29.774	0.230	-0.131
-584.865	174.456	0.328	0.474
-583.850	-200.000	-0.023	-0.105
-582.836	-66.099	-0.259	-0.103
-581.821	-66.464	0.239	0.095
-580.806	-169.728	-0.289	-0.010
-579.792	-30.379	0.299	-0.170
-578.777	19.186	0.200	-0.160
-577.763	133.388	0.065	-0.084
-576.748	-54.959	-0.088	-0.040
-575.733	303.342	0.038	-0.070
-574.719	-80.455	-0.119	0.040
-573.704	-25.133	0.242	-0.144
-572.690	-153.602	0.145	0.010
-571.675	-2.124	0.095	-0.066
-570.661	693.877	-0.080	-0.210
-569.646	1.271	0.484	0.347
-568.631	205.849	0.062	-0.096
-567.617	267.906	-0.102	-0.179
-566.602	179.862	-0.133	-0.194
-565.588	-90.638	0.152	0.044
-564.573	34.311	-0.316	0.275
-563.558	-200.000	-0.024	-0.248
-562.544	753.256	-0.105	-0.283
-561.529	-116.032	-0.178	0.033
-560.515	800.000	0.062	-0.235
-559.500	800.000	-0.026	0.108
-558.485	-112.155	0.296	-0.059
-557.471	-136.025	-0.239	-0.028
-556.456	-25.004	-0.289	-0.171
-555.442	-200.000	-0.026	0.211
-554.427	605.929	-0.039	-0.096
-553.412	-200.000	-0.041	-0.256
-552.398	446.813	0.113	-0.249
-551.383	45.216	-0.208	0.191
-550.369	-65.477	-0.118	-0.048
-549.354	-49.263	-0.208	0.099
-548.339	-200.000	0.023	0.295
-547.325	16.683	0.336	0.265
-546.310	252.819	-0.036	0.061
-545.296	-144.175	-0.453	0.042
-544.281	-60.061	-0.261	0.111
-543.266	-200.000	-0.037	0.266
-542.252	-37.424	-0.096	0.051
-541.237	-200.000	0.038	-0.383
-540.223	-140.236	0.242	0.025
-539.208	-103.021	0.290	0.069
-538.193	800.000	-0.066	-0.259
-537.179	449.852	0.145	-0.318
-536.164	-200.000	0.035	-0.168
-535.150	284.122	0.125	0.224
-534.135	70.734	0.197	-0.204
-533.121	-55.344	0.149	0.067
-532.106	455.419	0.024	-0.053
-531.091	-15.060	-0.108	0.069
-530.077	-10.896	0.204	0.135
-529.062	590.483	-0.123	0.302
-528.048	-86.876	-0.228	-0.069
-527.033	-200.000	0.057	-0.327
-526.018	-200.000	-0.002	0.228
-525.004	-90.985	-0.147	0.042
-523.989	64.979	-0.179	0.180
-522.975	85.263	-0.237	0.259
-521.960	-200.000	-0.021	-0.219
-520.945	268.439	-0.043	-0.076
-519.931	154.309	-0.211	0.288
-518.916	-56.461	-0.060	0.027
-517.902	-200.000	0.002	0.108
-516.887	-200.000	0.018	-0.149
-515.872	89.585	0.225	-0.250
-514.858	800.000	-0.005	0.023
-513.843	33.780	0.121	0.105
-512.829	800.000	0.075	0.292
-511.814	-200.000	0.050	-0.390
-510.799	-200.000	-0.017	0.194
-509.785	-200.000	-0.002	0.262
-508.770	800.000	0.055	0.208
-507.756	800.000	-0.006	-0.018
-506.741	-6.501	0.201	0.136
-505.726	-183.328	0.318	-0.006
-504.712	510.718	-0.104	0.242
-503.697	16.314	-0.406	0.319
-502.683	2.141	0.273	-0.197
-501.668	-84.542	-0.209	-0.066
-500.653	-76.621	-0.218	-0.076
-499.639	-51.794	-0.187	0.087
-498.624	-31.726	0.085	-0.047
-497.610	-45.823	-0.308	0.152
-496.595	685.240	0.058	0.150
-495.581	-2.707	-0.182	-0.127
-494.566	73.449	-0.183	-0.191
-493.551	-152.644	-0.200	0.014
-492.537	-200.000	-0.031	-0.317
-491.522	135.584	0.241	-0.312
-490.508	-23.321	-0.096	0.058
-489.493	268.767	0.093	0.162
-488.478	-148.337	-0.449	-0.037
-487.464	-108.725	-0.085	0.018
-486.449	800.000	0.157	0.533
-485.435	189.657	-0.112	0.167
-484.420	250.332	-0.143	-0.242
-483.405	-98.843	-0.056	-0.014
-482.391	800.000	-0.079	0.244
-481.376	-123.546	-0.363	-0.057
-480.362	2.495	-0.348	-0.251
-479.347	-69.460	-0.134	-0.051
-478.332	5.349	0.266	-0.196
-477.318	271.008	0.147	-0.258
-476.303	-200.000	0.025	0.163
-475.289	-112.887	0.451	0.089
-474.274	-69.988	-0.202	-0.077
-473.259	-37.980	0.090	-0.048
-472.245	-61.723	-0.166	0.069
-471.230	-200.000	-0.006	-0.300
-470.216	-158.016	-0.342	-0.020
-469.201	-87.926	-0.022	-0.007
-468.186	-66.303	-0.212	-0.084
-467.172	-67.029	-0.136	-0.053
-466.157	233.993	-0.083	0.137
-465.143	800.000	0.038	-0.130
-464.128	-11.651	-0.168	0.110
-463.113	302.799	-0.025	0.046
-462.099	55.366	-0.135	-0.130
-461.084	-39.031	-0.203	0.106
-460.070	-196.639	-0.068	0.000
-459.055	800.000	-0.023	-0.069
-458.040	171.930	0.006	0.008
-457.026	-67.738	-0.089	0.035
-456.011	123.756	0.036	-0.045
-454.997	-200.000	-0.039	-0.345
-453.982	3.400	-0.258	-0.187
-452.968	-54.078	0.264	-0.119
-451.953	92.141	-0.393	0.440
-450.938	-74.380	-0.541	0.194
-449.924	87.634	0.159	-0.175
-448.909	-30.260	0.138	0.078
-447.895	800.000	0.057	-0.220
-446.880	-116.618	-0.164	-0.030
-445.865	-130.761	-0.140	-0.019
-444.851	-200.000	-0.071	-0.339
-443.836	30.106	-0.179	0.152
-442.822	295.662	0.173	0.315
-441.807	392.055	0.084	-0.173
-440.792	173.028	0.167	-0.239
-439.778	20.193	-0.262	-0.211
-438.763	-200.000	0.014	0.175
-437.749	650.016	-0.086	0.218
-436.734	561.380	-0.099	-0.237
-435.719	-200.000	0.033	0.167
-434.705	75.213	-0.099	0.103
-433.690	225.668	0.144	0.232
-432.676	-168.145	-0.045	0.002
-431.661	200.193	-0.046	0.071
-430.646	20.769	-0.295	0.238
-429.632	-108.700	0.196	-0.042
-428.617	800.000	0.083	0.296
-427.603	800.000	0.111	0.338
-426.588	-45.616	-0.025	-0.013
-425.573	72.095	0.077	0.079
-424.559	322.166	-0.166	-0.314
-423.544	-200.000	0.008	-0.185
-422.530	27.492	0.383	0.320
-421.515	61.494	0.066	-0.066
-420.500	800.000	-0.087	0.323
-419.486	-5.850	-0.415	-0.282
-418.471	-113.444	-0.480	0.094
-417.457	136.112	0.055	-0.071
-416.442	93.466	-0.106	-0.119
-415.428	800.000	0.088	-0.247
-414.413	-200.000	-0.081	0.449
-413.398	74.609	0.175	-0.182
-412.384	23.355	0.374	-0.306
-411.369	253.090	-0.091	0.154
-410.355	105.580	-0.032	-0.038
-409.340	222.936	0.071	-0.114
-408.325	26.854	-0.221	0.184
-407.311	414.835	0.030	-0.064
-406.296	-197.345	0.103	-0.001
-405.282	354.119	-0.101	-0.199
-404.267	-200.000	0.027	0.185
-403.252	152.291	0.129	0.175
-402.238	800.000	0.048	0.140
-401.223	10.038	-0.029	-0.022
-400.209	53.002	0.164	-0.156
-399.194	581.037	0.040	0.097
-398.179	-106.968	-0.202	-0.044
-397.165	-200.000	-0.001	0.166
-396.150	-200.000	-0.017	0.177
-395.136	37.925	0.157	-0.138
-394.121	-6.620	0.172	0.116
-393.106	-167.453	-0.048	-0.002
-392.092	-78.659	0.305	-0.103
-391.077	800.000	-0.091	0.351
-390.063	271.414	0.018	0.031
-389.048	247.126	0.141	-0.237
-388.033	-75.587	0.195	-0.069
-387.019	341.031	0.171	0.332
-386.004	-124.036	0.262	-0.041
-384.990	-200.000	0.022	-0.142
-383.975	586.826	0.147	0.359
-382.960	104.161	-0.133	0.156
-381.946	356.131	-0.057	0.114
-380.931	800.000	-0.028	0.095
-379.917	-34.635	-0.310	0.168
-378.902	-200.000	0.001	0.026
-377.888	-32.793	-0.137	0.075
-376.873	-89.588	-0.172	-0.050
-375.858	-200.000	0.031	0.338
-374.844	-181.324	-0.425	-0.008
-373.829	-8.867	-0.255	0.170
-372.815	-143.606	0.161	0.015
-371.800	-200.000	-0.002	0.133
-370.785	12.890	0.206	0.158
-369.771	600.444	-0.118	0.291
-368.756	-110.887	0.029	0.006
-367.742	-200.000	0.054	-0.536
-366.727	140.398	0.152	-0.199
-365.712	358.803	0.121	0.239
-364.698	210.764	-0.195	0.304
-363.683	30.223	0.095	-0.080
-362.669	178.276	-0.064	-0.092
-361.654	-200.000	0.022	0.240
-360.639	301.689	-0.121	-0.221
-359.625	193.922	0.144	-0.216
-358.610	-200.000	0.050	-0.253
-357.596	396.391	-0.069	-0.142
-356.581	-200.000	0.062	-0.281
-355.566	-200.000	0.214	-0.001
-354.552	-200.000	-0.009	-0.125
-353.537	-5.840	-0.348	-0.236
-352.523	-50.977	-0.252	-0.117
-351.508	219.205	0.075	-0.118
-350.493	678.940	-0.028	0.071
-349.479	-72.127	-0.143	0.052
-348.464	-200.000	0.008	-0.145
-347.450	-63.013	0.277	0.114
-346.435	-2.354	0.106	0.073
-345.420	229.422	-0.122	-0.197
-344.406	51.883	-0.124	0.117
-343.391	-127.900	-0.124	-0.018
-342.377	-132.649	0.115	0.015
-341.362	200.241	0.037	0.057
-340.348	800.000	-0.081	0.231
-339.333	-200.000	-0.011	-0.228
-338.318	-74.947	0.364	0.129
-337.304	800.000	-0.043	0.136
-336.289	-84.302	-0.102	-0.032
-335.275	-200.000	-0.079	0.380
-334.260	95.196	-0.184	-0.208
-333.245	-111.356	0.260	0.052
-332.231	800.000	0.060	0.198
-331.216	-200.000	0.008	0.056
-330.202	45.951	0.360	-0.329
-329.187	-200.000	-0.013	0.162
-328.172	-200.000	-0.006	0.197
-327.158	367.923	0.156	-0.313
-326.143	-200.000	0.018	-0.108
-325.129	152.612	-0.094	0.126
-324.114	399.345	-0.158	-0.327
-323.099	-90.729	-0.194	0.055
-322.085	-200.000	-0.026	0.189
-321.070	-79.887	-0.371	0.124
-320.056	-89.176	-0.308	-0.090
-319.041	11.085	0.193	-0.146
-318.026	243.338	0.246	0.409
-317.012	64.540	-0.009	-0.009
-315.997	16.490	-0.088	-0.069
-314.983	2.532	0.227	0.163
-313.968	779.180	0.049	-0.132
-312.953	286.007	0.016	0.029
-311.939	468.491	0.068	0.152
-310.924	1.864	-0.263	-0.188
-309.910	62.469	-0.225	-0.223
-308.895	-106.132	0.177	-0.039
-307.880	407.942	0.085	0.178
-306.866	-144.237	-0.189	0.017
-305.851	767.514	0.026	0.070
-304.837	176.273	-0.183	-0.262
-303.822	290.408	0.059	0.105
-302.807	-111.844	-0.113	0.022
-301.793	-119.057	0.285	0.049
-300.778	589.525	-0.091	-0.221
-299.764	423.424	0.058	0.122
-298.749	-44.218	0.297	0.147
-297.735	800.000	0.112	-0.392
-296.720	-119.345	-0.527	0.091
-295.705	800.000	0.046	0.148
-294.691	-143.707	0.179	-0.017
-293.676	176.895	0.067	-0.096
-292.662	-175.486	-0.180	0.005
-291.647	-200.000	0.034	0.295
-290.632	-139.734	-0.150	-0.016
-289.618	-87.399	0.065	-0.019
-288.603	-57.117	0.306	-0.133
-287.589	-2.240	0.076	-0.053
-286.574	-165.224	0.349	0.015
-285.559	-58.056	-0.222	-0.096
-284.545	97.710	0.160	0.182
-283.530	84.018	0.192	-0.207
-282.516	-98.217	0.086	-0.022
-281.501	186.968	0.137	0.202
-280.486	322.673	0.131	-0.247
-279.472	-80.711	0.231	-0.076
-278.457	-200.000	-0.010	-0.126
-277.443	101.418	0.099	-0.114
-276.428	-74.268	0.317	-0.113
-275.413	306.441	-0.215	-0.396
-274.399	-43.917	0.196	0.097
-273.384	800.000	-0.046	-0.196
-272.370	218.619	0.029	0.046
-271.355	-47.934	-0.259	0.124
-270.340	-74.956	0.172	-0.061
-269.326	363.593	0.156	0.309
-268.311	112.942	0.475	0.568
-267.297	664.741	0.139	-0.354
-266.282	555.935	-0.064	-0.152
-265.267	800.000	0.044	-0.157
-264.253	-145.253	-0.285	0.025
-263.238	101.564	-0.109	0.126
-262.224	177.091	-0.168	-0.241
-261.209	-2.357	-0.117	0.081
-260.195	4.682	0.124	-0.090
-259.180	57.126	0.049	0.047
-258.165	18.847	-0.235	0.186
-257.151	-200.000	-0.043	-0.190
-256.136	-117.437	-0.271	-0.048
-255.122	-139.194	0.362	0.039
-254.107	24.984	0.269	-0.221
-253.092	-200.000	-0.033	-0.172
-252.078	119.550	-0.187	0.228
-251.063	-187.427	-0.291	-0.004
-250.049	-200.000	0.001	-0.423
-249.034	-18.333	-0.061	0.038
-248.019	-60.545	0.256	-0.107
-247.005	-21.132	-0.100	-0.061
-245.990	-200.000	-0.011	-0.341
-244.976	610.645	0.081	0.200
-243.961	-200.000	0.051	0.262
-242.946	800.000	-0.084	-0.258
-241.932	243.393	0.202	-0.333
-240.917	-200.000	-0.024	0.190
-239.903	-52.518	0.111	-0.051
-238.888	-146.203	-0.333	-0.029
-237.873	399.978	0.060	0.124
-236.859	-200.000	-0.050	-0.235
-235.844	-200.000	-0.045	0.241
-234.830	-124.728	0.077	-0.012
-233.815	-82.900	0.167	0.053
-232.800	-200.000	0.000	0.304
-231.786	800.000	-0.127	0.389
-230.771	191.109	0.197	0.293
-229.757	-95.555	0.282	-0.075
-228.742	-200.000	0.029	0.215
-227.727	-200.000	0.034	0.339
-226.713	-71.200	-0.042	-0.015
-225.698	-141.662	-0.187	-0.019
-224.684	138.282	0.192	0.248
-223.669	-62.803	0.281	-0.115
-222.655	-74.591	0.123	-0.044
-221.640	58.864	-0.134	0.130
-220.625	800.000	0.026	-0.093
-219.611	43.484	0.281	0.253
-218.596	-24.272	-0.247	0.145
-217.582	-200.000	0.012	-0.146
-216.567	-200.000	-0.032	0.139
-215.552	-200.000	-0.001	0.300
-214.538	-12.017	0.481	0.311
-213.523	215.623	0.169	0.265
-212.509	637.013	-0.146	-0.366
-211.494	-0.711	0.034	0.024
-210.479	-161.433	-0.204	-0.010
-209.465	70.074	0.172	-0.175
-208.450	-65.337	0.137	0.054
-207.436	-17.176	0.123	0.077
-206.421	669.633	0.122	-0.310
-205.406	-74.845	0.072	-0.026
-204.392	800.000	-0.057	-0.170
-203.377	742.450	0.102	0.271
-202.363	-0.940	0.090	0.063
-201.348	300.027	0.309	0.560
-200.333	10.802	0.186	0.140
-199.319	-43.373	-0.229	0.114
-198.304	27.770	-0.227	-0.189
-197.290	115.341	-0.048	0.057
-196.275	800.000	-0.032	-0.136
-195.260	75.722	-0.051	-0.053
-194.246	17.011	0.097	-0.076
-193.231	281.434	-0.084	0.149
-192.217	12.929	0.195	0.149
-191.202	-26.909	0.277	-0.159
-190.187	50.863	-0.154	-0.144
-189.173	134.297	0.163	-0.207
-188.158	396.750	-0.009	-0.018
-187.144	800.000	0.131	-0.364
-186.129	350.422	-0.090	0.176
-185.114	-6.046	0.156	-0.105
-184.100	-12.756	-0.265	-0.170
-183.085	59.945	-0.075	0.072
-182.071	-71.425	0.156	0.057
-181.056	797.610	0.046	-0.124
-180.042	-200.000	0.051	0.228
-179.027	317.608	-0.133	0.247
-178.012	-200.000	-0.039	0.331
-176.998	-98.908	-0.144	-0.036
-175.983	146.551	0.160	0.211
-174.969	243.275	0.120	0.199
-173.954	-200.000	-0.020	0.275
-172.939	612.712	0.044	0.108
-171.925	93.523	0.352	-0.392
-170.910	-200.000	0.051	-0.261
-169.896	-200.000	-0.025	0.437
-168.881	152.599	0.153	0.205
-167.866	-30.020	-0.169	0.094
-166.852	-120.123	-0.314	-0.053
-165.837	207.639	0.124	0.190
-164.823	-200.000	0.004	-0.048
-163.808	162.725	-0.049	-0.067
-162.793	-159.824	-0.402	-0.022
-161.779	800.000	-0.025	-0.078
-160.764	532.443	-0.112	0.260
-159.750	-200.000	-0.048	-0.254
-158.735	82.170	0.199	-0.212
-157.720	800.000	-0.041	0.158
-156.706	213.722	0.244	-0.380
-155.691	214.575	0.224	-0.349
-154.677	-200.000	-0.015	0.308
-153.662	494.119	-0.045	0.101
-152.647	-166.169	-0.055	-0.002
-151.633	-19.012	-0.108	-0.066
-150.618	70.909	0.082	0.083
-149.604	-76.711	-0.226	-0.078
-148.589	800.000	0.070	0.260
-147.574	-200.000	-0.084	0.398
-146.560	800.000	0.166	-0.559
-145.545	88.482	-0.192	-0.210
-144.531	-143.140	0.107	0.010
-143.516	-200.000	-0.019	-0.128
-142.502	-169.677	0.249	0.009
-141.487	-200.000	0.003	0.179
-140.472	17.156	-0.093	0.073
-139.458	-89.829	-0.026	-0.007
-138.443	-53.899	-0.264	0.118
-137.429	776.353	0.104	0.280
-136.414	-96.736	0.227	-0.059
-135.399	-200.000	0.000	0.105
-134.385	-30.118	-0.110	-0.061
-133.370	-32.786	0.240	-0.131
-132.356	335.818	-0.007	0.013
-131.341	-7.645	0.182	0.121
-130.326	-200.000	0.049	0.382
-129.312	-130.722	0.289	0.038
-128.297	116.865	-0.095	0.115
-127.283	-143.980	-0.090	0.008
-126.268	15.970	0.177	0.137
-125.253	-66.316	0.296	0.116
-124.239	-155.894	-0.309	-0.019
-123.224	-161.133	0.145	-0.007
-122.210	426.726	-0.076	-0.161
-121.195	774.993	0.027	-0.072
-120.180	-171.514	0.290	0.009
-119.166	-91.842	-0.170	0.047
-118.151	607.444	0.076	0.186
-117.137	-104.320	-0.204	-0.046
-116.122	800.000	0.166	-0.485
-115.107	-200.000	-0.106	-0.000
-114.093	800.000	0.046	0.134
-113.078	27.730	0.193	-0.159
-112.064	-89.210	0.266	-0.077
-111.049	308.645	-0.059	0.108
-110.034	-25.737	0.099	-0.057
-109.020	11.354	-0.037	0.028
-108.005	331.521	-0.038	-0.073
-106.991	-50.672	-0.236	-0.109
-105.976	-200.000	-0.006	0.457
-104.962	-157.681	-0.350	0.020
-103.947	-200.000	0.013	-0.308
-102.932	-151.995	0.323	-0.023
-101.918	-80.818	-0.128	-0.042
-100.903	-200.000	-0.003	-0.300
-99.889	147.292	0.095	0.125
-98.874	374.833	-0.245	-0.490
-97.859	-41.698	-0.190	0.096
-96.845	-104.069	0.212	-0.049
-95.830	-4.593	0.106	-0.072
-94.816	222.738	-0.052	-0.082
-93.801	-113.976	-0.057	-0.011
-92.786	-200.000	-0.025	0.252
-91.772	-200.000	-0.061	-0.289
-90.757	-200.000	-0.015	0.066
-89.743	82.343	0.222	-0.236
-88.728	-87.830	0.182	0.054
-87.713	-200.000	0.020	-0.376
-86.699	81.861	0.105	-0.111
-85.684	31.479	-0.110	0.093
-84.670	107.613	0.247	0.289
-83.655	800.000	0.064	-0.180
-82.640	105.998	0.332	0.386
-81.626	-186.037	0.230	-0.003
-80.611	800.000	-0.046	-0.148
-79.597	216.901	0.092	-0.144
-78.582	25.935	0.148	0.121
-77.567	-70.847	0.153	0.057
-76.553	-9.107	0.324	-0.212
-75.538	-200.000	-0.007	-0.143
-74.524	-130.402	-0.045	-0.006
-73.509	-180.590	-0.253	-0.005
-72.494	351.560	-0.082	0.158
-71.480	64.030	-0.072	0.071
-70.465	800.000	0.045	-0.180
-69.451	-52.017	0.450	0.205
-68.436	211.626	-0.053	0.082
-67.422	109.069	-0.213	0.249
-66.407	209.272	-0.160	-0.245
-65.392	200.621	-0.159	0.239
-64.378	-48.845	0.143	0.067
-63.363	-157.658	0.199	-0.012
-62.349	-200.000	0.030	0.182
-61.334	-15.042	-1.480	-0.929
-60.319	102.279	0.489	0.559
-59.305	-200.000	-0.226	-1.299
-58.290	316.141	0.598	1.105
-57.276	470.623	0.771	1.698
-56.261	-200.000	106.375	624.368
-55.246	522.820	1503.646	3459.787
-54.232	177.717	2692.955	3844.868
-53.217	112.697	2155.101	2555.983
-52.203	41.514	1594.759	1413.900
-51.188	33.101	1330.402	1129.470
-50.173	29.985	1289.425	1076.561
-49.159	54.716	1344.340	1269.868
-48.144	54.719	1359.472	1284.127
-47.130	33.110	1314.058	1115.469
-46.115	29.643	1296.760	1080.509
-45.100	29.586	1291.274	1075.563
-44.086	29.528	1288.916	1073.223
-43.071	29.443	1286.796	1070.922
-42.057	29.386	1284.097	1068.299
-41.042	29.452	1282.783	1067.546
-40.027	29.546	1281.161	1066.699
-39.013	29.510	1279.250	1064.855
-37.998	29.474	1277.609	1063.241
-36.984	29.577	1275.899	1062.370
-35.969	29.560	1274.077	1060.711
-34.954	29.592	1272.615	1059.638
-33.940	29.494	1271.302	1057.939
-32.925	29.728	1269.295	1057.565
-31.911	29.565	1268.576	1055.995
-30.896	29.613	1267.108	1055.006
-29.881	29.636	1265.552	1053.796
-28.867	29.536	1264.450	1052.270
-27.852	29.586	1262.716	1051.067
-26.838	29.632	1261.201	1050.025
-25.823	29.653	1259.896	1049.015
-24.809	29.617	1258.718	1047.790
-23.794	29.649	1257.100	1046.583
-22.779	29.674	1256.088	1045.841
-21.765	29.687	1254.605	1044.640
-20.750	29.684	1253.695	1043.823
-19.736	29.548	1252.543	1042.053
-18.721	29.465	1251.099	1040.345
-17.706	29.487	1249.860	1039.396
-16.692	29.484	1248.899	1038.537
-15.677	29.592	1247.814	1038.204
-14.663	29.481	1246.628	1036.553
-13.648	29.532	1245.547	1035.897
-12.633	29.355	1244.822	1034.261
-11.619	29.546	1243.819	1034.455
-10.604	29.604	1242.480	1033.626
-9.590	29.433	1242.120	1032.329
-8.575	29.447	1241.136	1031.549
-7.560	29.510	1240.330	1031.189
-6.546	29.467	1239.444	1030.173
-5.531	29.398	1238.932	1029.323
-4.517	29.483	1237.732	1028.757
-3.502	29.543	1237.255	1028.652
-2.487	29.546	1236.090	1027.658
-1.473	29.516	1231.715	1023.819
-0.458	27.860	1216.873	1002.357
0.556	22.177	1199.534	965.174
1.571	18.602	1205.400	950.045
2.586	17.837	1219.593	956.859
3.600	17.656	1209.028	947.480
4.615	12.696	1138.525	866.122
5.629	3.990	1064.387	766.682
6.644	-0.063	1044.833	732.794
7.659	-0.259	1042.259	729.970
8.673	-0.427	1041.268	728.399
9.688	-0.500	1039.734	726.907
10.702	-0.033	1037.749	727.715
11.717	5.591	1045.636	760.557
12.731	14.566	1059.200	814.344
13.746	19.002	1063.839	839.535
14.761	19.767	1065.078	844.176
15.775	19.745	1064.631	843.642
16.790	19.568	1063.500	841.805
17.804	19.469	1063.289	841.082
18.819	19.630	1062.670	841.304
19.834	19.586	1062.697	841.037
20.848	19.677	1061.729	840.638
21.863	19.754	1060.979	840.345
22.877	19.523	1060.571	838.824
23.892	19.641	1059.669	838.610
24.907	19.624	1059.225	838.103
25.921	19.567	1057.977	836.764
26.936	19.666	1056.321	835.857
27.950	19.576	1054.740	834.100
28.965	19.490	1052.532	831.863
29.980	19.513	1051.324	830.945
30.994	19.629	1050.359	830.667
32.009	19.617	1048.959	829.430
33.023	19.439	1047.844	827.621
34.038	19.580	1046.993	827.553
35.053	19.856	1046.108	828.100
36.067	19.758	1045.752	827.275
37.082	19.782	1044.663	826.456
38.096	19.887	1044.034	826.387
39.111	19.984	1043.120	826.054
40.126	19.783	1041.874	824.037
41.140	19.421	1040.200	820.918
42.155	19.254	1038.741	818.900
43.169	19.462	1037.425	818.774
44.184	19.247	1037.106	817.434
45.199	19.283	1035.715	816.432
46.213	19.397	1034.776	816.161
47.228	19.531	1033.434	815.666
48.242	19.456	1032.824	814.755
49.257	19.656	1031.970	814.953
50.271	19.676	1031.182	814.356
51.286	19.599	1030.587	813.447
52.301	19.764	1029.257	813.105
53.315	19.566	1028.753	811.701
54.330	19.782	1027.067	811.313
55.344	19.760	1026.728	810.870
56.359	19.702	1025.370	809.454
57.374	19.350	1024.648	807.166
58.388	19.627	1023.824	807.742
59.403	19.395	1023.034	805.962
60.417	19.455	1021.858	805.244
61.432	19.503	1021.540	805.145
62.447	19.513	1021.469	805.064
63.461	19.504	1020.279	804.016
64.476	19.526	1018.807	802.886
65.490	19.429	1017.781	801.557
66.505	19.610	1017.412	802.037
67.520	19.531	1016.784	801.103
68.534	19.278	1015.980	799.223
69.549	18.935	1014.978	796.777
70.563	19.085	1013.940	796.586
71.578	19.074	1012.877	795.630
72.593	19.057	1011.998	794.790
73.607	19.250	1011.482	795.205
74.622	19.319	1011.446	795.426
75.636	19.437	1010.254	794.963
76.651	19.204	1009.804	793.465
77.666	19.154	1008.872	792.430
78.680	19.276	1008.114	792.328
79.695	19.384	1006.916	791.811
80.709	19.288	1006.559	791.020
81.724	19.232	1005.494	789.856
82.739	19.365	1004.590	789.683
83.753	19.718	1004.201	790.922
84.768	19.825	1003.587	790.861
85.782	19.884	1002.140	789.917
86.797	19.860	1001.224	789.016
87.812	19.742	1000.356	787.728
88.826	19.882	999.469	787.597
89.841	19.900	998.778	787.064
90.855	19.919	997.598	786.151
91.870	19.870	996.469	784.968
92.884	19.827	995.056	783.591
93.899	19.769	994.412	782.752
94.914	19.919	993.580	782.705
95.928	19.846	992.589	781.524
96.943	19.628	991.071	779.281
97.957	19.140	990.621	776.657
98.972	19.204	988.650	775.330
99.987	19.504	988.240	776.290
101.001	19.669	987.400	776.300
102.016	19.640	986.927	775.729
103.030	19.421	986.008	773.957
104.045	19.280	984.760	772.276
105.060	19.209	983.470	770.882
106.074	19.433	982.901	771.368
107.089	19.936	982.348	773.112
108.103	19.827	980.770	771.316
109.118	19.529	979.757	769.123
110.133	19.438	979.243	768.246
111.147	19.352	977.766	766.639
112.162	19.187	976.878	765.140
113.176	19.420	976.449	765.773
114.191	19.280	975.588	764.406
115.206	19.063	974.278	762.351
116.220	19.034	973.345	761.427
117.235	19.123	972.771	761.305
118.249	19.285	971.574	761.015
119.264	19.188	970.751	759.875
120.279	19.180	969.905	759.111
121.293	19.233	969.378	758.863
122.308	19.279	968.285	758.145
123.322	19.157	966.903	756.457
124.337	19.084	965.767	755.182
125.352	18.703	963.807	751.913
126.366	18.570	962.952	750.599
127.381	19.366	963.224	754.229
128.395	19.706	962.344	754.957
129.410	19.802	961.148	754.373
130.424	19.725	960.596	753.536
131.439	19.596	959.044	751.690
132.454	19.589	958.439	751.120
133.468	19.523	957.524	750.050
134.483	19.751	956.577	750.230
135.497	19.929	956.103	750.564
136.512	19.903	955.058	749.564
137.527	20.040	954.328	749.520
138.541	19.974	953.324	748.378
139.556	19.993	952.567	747.799
140.570	19.859	952.354	746.986
141.585	19.937	950.915	746.130
142.600	19.821	949.793	744.685
143.614	20.104	949.009	745.220
144.629	20.113	948.290	744.629
145.643	20.007	946.860	742.986
146.658	19.917	945.559	741.513
147.673	19.931	944.419	740.614
148.687	19.768	943.710	739.293
149.702	19.617	943.198	738.183
150.716	19.550	942.289	737.121
151.731	19.775	941.685	737.542
152.746	20.027	941.100	738.095
153.760	20.125	940.370	737.872
154.775	20.159	939.162	737.002
155.789	19.986	938.711	735.848
156.804	19.905	938.051	734.923
157.819	20.141	936.491	734.635
158.833	20.101	936.600	734.485
159.848	20.160	935.084	733.481
160.862	19.989	934.168	731.978
161.877	20.181	932.980	731.793
162.892	20.183	932.119	731.058
163.906	20.006	931.067	729.426
164.921	20.046	930.328	728.948
165.935	20.091	929.207	728.195
166.950	20.075	928.291	727.345
167.964	20.129	927.001	726.495
168.979	19.943	926.531	725.284
169.994	19.921	925.542	724.355
171.008	20.061	924.779	724.279
172.023	20.047	924.574	723.998
173.037	19.682	923.328	721.433
174.052	19.774	922.283	720.937
175.067	19.847	921.744	720.757
176.081	19.986	921.215	720.855
177.096	19.999	920.295	720.128
178.110	19.635	919.328	717.794
179.125	19.555	918.151	716.479
180.140	19.690	918.487	717.241
181.154	19.703	917.743	716.647
182.169	19.788	918.176	717.275
183.183	20.150	916.752	717.600
184.198	20.082	915.909	716.596
185.213	19.933	915.543	715.627
186.227	20.133	914.060	715.230
187.242	20.075	913.920	714.819
188.256	20.129	913.279	714.479
189.271	20.100	912.548	713.720
190.286	19.884	911.304	711.797
191.300	19.373	910.313	708.862
192.315	18.531	908.842	704.195
193.329	18.743	908.080	704.414
194.344	19.587	908.377	708.044
195.359	19.945	908.511	709.552
196.373	20.079	907.803	709.487
197.388	19.819	907.220	707.902
198.402	19.844	906.273	707.203
199.417	19.861	905.599	706.683
200.432	19.685	904.346	704.924
201.446	19.526	903.703	703.717
202.461	19.495	903.278	703.197
203.475	18.607	901.524	698.153
204.490	18.018	900.270	694.727
205.504	19.033	900.421	698.909
206.519	19.492	900.459	700.740
207.534	19.679	899.908	701.009
208.548	20.019	899.769	702.216
209.563	19.803	898.651	700.408
210.577	19.833	897.961	699.930
211.592	20.102	897.571	700.650
212.607	20.127	896.428	699.798
213.621	20.014	896.428	699.281
214.636	20.282	895.359	699.466
215.650	20.086	894.623	698.040
216.665	20.214	894.040	698.037
217.680	20.047	893.365	696.776
218.694	19.683	892.267	694.395
219.709	19.569	891.289	693.116
220.723	19.797	891.418	694.068
221.738	20.043	890.276	694.105
222.753	20.072	889.456	693.522
223.767	19.973	889.497	693.096
224.782	20.326	888.744	693.856
225.796	20.157	888.232	692.721
226.811	19.592	886.741	689.242
227.826	19.053	885.328	685.936
228.840	19.172	885.152	686.214
229.855	19.238	884.410	685.841
230.869	18.920	883.413	683.740
231.884	19.368	883.252	685.337
232.899	20.102	883.042	688.028
233.913	19.975	882.427	686.986
234.928	19.905	881.813	686.170
235.942	19.868	880.808	685.178
236.957	19.659	880.479	684.035
237.972	19.578	879.868	683.179
238.986	19.898	879.023	683.727
240.001	19.732	878.257	682.416
241.015	19.945	877.968	682.971
242.030	19.898	877.572	682.418
243.045	20.120	876.873	682.690
244.059	20.292	876.402	682.937
245.074	19.847	875.548	680.463
246.088	19.652	874.376	678.726
247.103	19.821	874.398	679.347
248.117	20.363	873.959	681.071
249.132	20.729	873.363	681.981
250.147	20.687	872.721	681.255
251.161	20.752	872.337	681.150
252.176	20.723	871.994	680.707
253.190	20.792	871.230	680.320
254.205	20.943	870.548	680.316
255.220	20.774	870.205	679.332
256.234	20.764	869.056	678.332
257.249	20.569	868.631	677.181
258.263	20.690	867.774	676.926
259.278	20.766	867.289	676.783
260.293	20.957	866.501	676.849
261.307	20.622	866.224	675.273
262.322	20.612	864.765	674.038
263.336	19.683	862.827	668.874
264.351	18.682	860.982	663.515
265.366	18.866	860.627	663.894
266.380	19.997	861.531	668.904
267.395	20.417	860.781	669.882
268.409	20.301	860.460	669.128
269.424	20.503	860.282	669.706
270.439	20.667	859.538	669.700
271.453	20.675	858.863	669.145
272.468	20.904	858.394	669.603
273.482	20.915	857.892	669.193
274.497	20.558	856.753	666.877
275.512	20.084	855.855	664.303
276.526	20.525	855.968	666.021
277.541	20.720	855.345	666.223
278.555	20.559	854.060	664.548
279.570	20.172	853.844	662.844
280.585	20.465	852.741	663.047
281.599	20.562	852.042	662.815
282.614	19.884	851.015	659.371
283.628	19.972	850.481	659.236
284.643	20.346	849.990	660.219
285.657	19.959	848.740	657.722
286.672	19.620	847.857	655.691
287.687	20.289	848.192	658.432
288.701	20.310	847.541	657.949
289.716	19.944	846.870	655.982
290.730	19.978	845.733	655.174
291.745	19.687	844.689	653.207
292.760	19.959	844.945	654.375
293.774	20.802	845.214	657.709
294.789	21.170	844.863	658.768
295.803	21.312	844.242	658.763
296.818	21.223	843.785	658.012
297.833	20.837	842.433	655.446
298.847	20.690	841.889	654.412
299.862	21.000	841.802	655.450
300.876	21.251	841.501	656.101
301.891	20.940	840.817	654.343
302.906	20.658	839.539	652.233
303.920	20.776	839.162	652.326
304.935	21.145	839.157	653.646
305.949	21.060	838.764	652.965
306.964	20.770	838.154	651.348
307.979	20.991	837.430	651.551
308.993	21.307	836.796	652.180
310.008	21.241	836.288	651.483
311.022	21.047	835.084	649.764
312.037	21.069	834.755	649.532
313.052	20.570	834.556	647.459
314.066	19.938	832.732	643.641
315.081	19.641	832.041	641.943
316.095	20.542	832.245	645.391
317.110	21.048	831.860	646.914
318.125	20.008	830.488	641.938
319.139	19.130	829.097	637.555
320.154	19.210	828.776	637.548
321.168	20.133	828.943	641.036
322.183	20.461	829.459	642.590
323.197	20.682	829.012	643.004
324.212	20.951	828.860	643.825
325.227	21.015	827.870	643.232
326.241	20.753	827.694	642.075
327.256	20.813	826.859	641.590
328.270	20.741	825.823	640.466
329.285	20.579	825.066	639.225
330.300	20.423	823.988	637.761
331.314	20.559	824.077	638.273
332.329	21.042	823.628	639.641
333.343	21.191	823.071	639.697
334.358	20.966	822.854	638.648
335.373	21.250	822.276	639.181
336.387	21.394	822.485	639.814
337.402	21.462	822.351	639.901
338.416	21.366	821.532	638.857
339.431	21.433	821.190	638.779
340.446	21.583	821.109	639.210
341.460	21.390	820.383	637.884
342.475	21.239	819.760	636.791
343.489	21.325	819.345	636.726
344.504	21.579	819.119	637.417
345.519	21.845	818.895	638.156
346.533	21.709	818.794	637.526
347.548	21.794	818.463	637.522
348.562	21.766	817.659	636.736
349.577	21.811	817.014	636.343
350.592	21.734	816.550	635.644
351.606	21.938	815.145	635.235
352.621	21.687	814.649	633.883
353.635	21.524	814.160	632.857
354.650	20.890	812.312	629.077
355.665	20.093	811.054	625.171
356.679	20.502	810.879	626.455
357.694	20.943	810.522	627.712
358.708	20.939	809.757	627.051
359.723	21.204	809.966	628.110
360.738	21.636	809.044	628.893
361.752	21.702	808.711	628.816
362.767	21.724	809.135	629.168
363.781	22.020	808.428	629.622
364.796	22.029	807.898	629.188
365.810	22.145	807.493	629.231
366.825	22.092	807.132	628.706
367.840	21.823	806.244	626.998
368.854	21.478	805.388	625.044
369.869	21.454	805.076	624.659
370.883	21.483	804.886	624.560
371.898	21.449	804.019	623.711
372.913	21.429	804.012	623.580
373.927	21.598	803.839	623.991
374.942	21.755	803.231	624.024
375.956	21.846	802.702	623.881
376.971	22.000	802.283	624.048
377.986	22.197	801.925	624.415
379.000	22.128	801.282	623.613
380.015	21.954	800.495	622.328
381.029	22.086	800.033	622.381
382.044	22.029	799.882	622.009
383.059	22.113	798.947	621.522
384.073	22.101	799.052	621.508
385.088	22.012	798.668	620.840
386.102	21.783	797.686	619.211
387.117	21.989	796.536	618.990
388.132	21.675	795.406	616.952
389.146	21.192	794.543	614.528
390.161	21.338	794.784	615.175
391.175	21.875	794.269	616.609
392.190	21.508	793.319	614.529
393.205	20.232	791.458	608.561
394.219	18.861	790.031	602.605
395.234	19.075	789.915	603.214
396.248	20.453	791.394	609.125
397.263	21.898	791.541	614.247
398.278	21.782	791.124	613.462
399.292	21.634	790.505	612.411
400.307	21.648	790.197	612.168
401.321	21.620	789.922	611.802
402.336	22.002	789.618	612.847
403.350	22.370	789.715	614.151
404.365	22.639	789.415	614.800
405.380	22.787	789.057	614.985
406.394	22.762	788.514	614.421
407.409	22.686	787.870	613.600
408.423	22.699	787.273	613.126
409.438	22.846	786.906	613.295
410.453	22.784	786.902	613.021
411.467	22.744	786.124	612.224
412.482	22.761	786.041	612.165
413.496	22.930	785.446	612.231
414.511	22.899	785.161	611.847
415.526	22.876	784.712	611.365
416.540	22.676	783.877	609.970
417.555	22.573	783.260	609.079
418.569	22.582	782.818	608.713
419.584	22.556	782.227	608.109
420.599	22.301	781.916	606.933
421.613	158.834	1362.862	1798.589
422.628	137.348	1447.482	1798.639
