DTS Sentinel unit serial number:	SN413079Multiplexer serial number:	ORYXHardware model number:	OX4-SRSoftware version number:	ORYX F/W v4.00 Oryx Data Collector v3.7.2.0data status	okinstallation	princeton_trtdifferential loss correction	single-endedforward channel	channel 1reverse channel	N/Adate	2019/09/11time	16:08:11forward acquisition time	60.00reverse acquisition time	0.00gamma	496.2192k internal	0.2291k external	0.2291temperature offset calibration	0.9993default loss term (dB/km)	0.3790temperature slope calibration	1.0000multiplexer offset coefficient	1.0000multiplexer slope coefficient	1.0000fibre end	0.00T internal ref (°C)	43.19T ext. ref 1 (°C)	1.04T ext. ref 2 (°C)	39.00length (m)	temperature (°C)	Stokes	anti-Stokes-747.200	-43.070	0.136	-0.071
-746.185	91.152	0.098	0.113
-745.171	52.967	-0.279	-0.273
-744.156	20.671	0.172	-0.143
-743.142	361.685	0.127	-0.261
-742.127	-45.649	-0.201	0.102
-741.112	-3.949	0.193	0.137
-740.098	465.496	0.148	0.339
-739.083	-200.000	0.047	0.249
-738.069	361.762	-0.068	0.139
-737.054	-99.004	-0.247	-0.064
-736.039	36.755	-0.135	-0.122
-735.025	-110.634	-0.159	-0.034
-734.010	123.796	-0.135	0.174
-732.996	-169.009	0.215	0.008
-731.981	96.365	-0.222	-0.259
-730.966	569.992	0.018	0.044
-729.952	-200.000	0.057	-0.276
-728.937	200.724	0.139	0.218
-727.923	-110.508	0.054	-0.011
-726.908	-156.984	-0.499	-0.031
-725.894	0.286	-0.131	0.096
-724.879	-158.912	-0.126	0.007
-723.864	-130.618	-0.069	0.010
-722.850	-200.000	-0.027	-0.324
-721.835	233.309	-0.110	-0.186
-720.821	-95.632	-0.055	0.015
-719.806	-99.450	-0.267	-0.069
-718.791	13.413	0.089	0.070
-717.777	-76.507	-0.172	0.062
-716.762	-94.762	-0.348	0.097
-715.748	78.326	0.393	-0.429
-714.733	-60.754	0.318	0.138
-713.718	-200.000	0.034	0.260
-712.704	-31.903	-0.112	-0.064
-711.689	-200.000	0.002	-0.076
-710.675	-200.000	-0.009	0.128
-709.660	383.644	0.142	-0.298
-708.645	309.525	0.053	0.101
-707.631	-200.000	-0.035	0.162
-706.616	147.683	-0.079	0.109
-705.602	273.989	0.167	-0.302
-704.587	-106.081	-0.065	0.015
-703.572	122.220	-0.199	0.254
-702.558	42.936	0.196	0.183
-701.543	-40.894	0.115	-0.061
-700.529	800.000	0.085	0.276
-699.514	62.985	-0.159	-0.163
-698.499	800.000	-0.057	-0.251
-697.485	-200.000	0.022	0.102
-696.470	-200.000	-0.027	0.270
-695.456	-16.600	0.209	0.135
-694.441	46.174	-0.074	-0.070
-693.426	35.401	-0.312	0.279
-692.412	364.943	0.112	0.231
-691.397	-47.523	0.197	-0.098
-690.383	548.045	-0.226	-0.553
-689.368	61.422	-0.196	-0.199
-688.354	-200.000	0.011	-0.245
-687.339	661.526	0.043	-0.113
-686.324	-55.670	-0.373	-0.171
-685.310	-165.030	0.159	0.007
-684.295	530.426	-0.148	0.356
-683.281	68.965	0.232	0.243
-682.266	-142.734	-0.360	0.036
-681.251	16.395	-0.268	-0.217
-680.237	-26.315	-0.262	-0.157
-679.222	95.665	-0.188	-0.219
-678.208	-31.497	0.216	-0.124
-677.193	193.093	-0.188	0.291
-676.178	-197.334	0.129	-0.001
-675.164	10.907	0.141	-0.110
-674.149	-200.000	-0.047	0.231
-673.135	161.751	-0.334	-0.477
-672.120	310.460	0.047	-0.091
-671.105	-200.000	-0.013	-0.197
-670.091	55.195	0.166	-0.164
-669.076	9.159	0.172	-0.133
-668.062	-200.000	-0.012	-0.160
-667.047	178.866	-0.102	0.152
-666.032	4.598	-0.072	0.054
-665.018	-100.385	-0.415	-0.105
-664.003	800.000	0.043	-0.153
-662.989	61.821	-0.064	-0.066
-661.974	-92.812	-0.426	-0.122
-660.959	800.000	0.079	0.259
-659.945	55.282	0.236	-0.233
-658.930	-104.817	0.196	-0.046
-657.916	0.075	-0.092	-0.067
-656.901	-20.150	0.081	0.051
-655.886	360.112	-0.209	0.426
-654.872	653.605	-0.078	-0.203
-653.857	208.182	-0.240	0.383
-652.843	-200.000	-0.003	0.220
-651.828	198.484	0.064	-0.099
-650.814	-200.000	0.023	-0.318
-649.799	800.000	0.047	0.192
-648.784	-15.072	-0.055	0.036
-647.770	-11.374	-0.078	0.052
-646.755	-200.000	0.008	-0.166
-645.741	136.729	0.051	0.068
-644.726	-87.416	-0.169	-0.052
-643.711	-105.327	0.258	-0.060
-642.697	-103.181	-0.092	0.022
-641.682	-200.000	0.003	0.123
-640.668	-120.591	-0.190	-0.033
-639.653	-64.963	-0.158	0.065
-638.638	-32.717	-0.256	-0.145
-637.624	-200.000	0.006	-0.058
-636.609	144.429	-0.140	0.190
-635.595	-46.959	-0.249	-0.124
-634.580	-27.345	-0.074	-0.044
-633.565	-137.200	-0.136	0.016
-632.551	556.434	-0.166	-0.407
-631.536	-87.438	-0.395	0.122
-630.522	131.482	0.069	-0.090
-629.507	-34.563	0.266	-0.148
-628.492	-37.083	0.073	0.040
-627.478	-67.245	0.221	-0.089
-626.463	631.319	-0.058	0.149
-625.449	-93.549	0.197	-0.056
-624.434	-104.172	0.157	-0.037
-623.419	-58.746	0.172	0.076
-622.405	-25.924	-0.115	0.069
-621.390	68.512	0.302	-0.315
-620.376	-153.660	0.155	-0.011
-619.361	800.000	-0.036	0.146
-618.346	-150.255	-0.331	0.026
-617.332	-69.755	0.333	0.130
-616.317	201.664	-0.073	0.114
-615.303	-200.000	0.045	-0.241
-614.288	50.150	-0.030	-0.029
-613.273	-200.000	0.007	0.193
-612.259	800.000	-0.063	0.216
-611.244	-123.950	-0.198	0.032
-610.230	-200.000	0.018	-0.106
-609.215	484.474	-0.079	0.183
-608.201	52.848	-0.222	0.216
-607.186	156.829	0.171	0.241
-606.171	59.741	0.126	-0.127
-605.157	-43.825	-0.302	-0.155
-604.142	315.276	-0.255	-0.490
-603.128	-11.132	0.438	-0.294
-602.113	-119.111	-0.352	0.063
-601.098	-44.353	0.208	-0.106
-600.084	6.511	0.123	0.093
-599.069	48.734	-0.151	0.145
-598.055	172.750	0.116	0.170
-597.040	70.767	0.081	0.085
-596.025	-50.996	0.108	-0.052
-595.011	-161.322	-0.136	0.007
-593.996	-200.000	-0.018	-0.238
-592.982	306.803	-0.134	0.255
-591.967	-44.458	-0.181	0.092
-590.952	-56.614	0.262	-0.118
-589.938	58.495	-0.242	0.242
-588.923	-200.000	-0.007	-0.107
-587.909	-200.000	0.059	-0.314
-586.894	-83.837	0.325	-0.105
-585.879	292.209	-0.015	0.028
-584.865	-200.000	-0.009	0.099
-583.850	280.910	-0.135	0.246
-582.836	32.924	0.131	0.115
-581.821	-200.000	-0.031	0.138
-580.806	-200.000	0.024	0.225
-579.792	-200.000	-0.048	0.239
-578.777	-24.204	0.089	0.054
-577.763	93.562	0.140	-0.161
-576.748	-174.479	0.119	0.003
-575.733	-200.000	-0.048	0.271
-574.719	-142.135	-0.314	-0.032
-573.704	-127.896	-0.342	0.050
-572.690	524.270	0.032	0.077
-571.675	9.923	-0.062	0.048
-570.661	204.857	0.060	-0.095
-569.646	-137.886	0.253	-0.029
-568.631	473.415	-0.141	-0.323
-567.617	800.000	-0.069	-0.196
-566.602	95.419	0.089	0.103
-565.588	-124.802	-0.181	0.028
-564.573	-200.000	0.003	-0.078
-563.558	-120.797	-0.285	-0.049
-562.544	-107.742	0.139	0.031
-561.529	-73.872	0.219	0.081
-560.515	-130.156	0.128	-0.018
-559.500	-151.590	-0.272	0.020
-558.485	-195.670	-0.173	-0.001
-557.471	-200.000	0.004	0.288
-556.456	-200.000	0.024	-0.239
-555.442	34.444	-0.131	0.117
-554.427	26.787	-0.212	0.181
-553.412	2.178	-0.235	-0.173
-552.398	-200.000	0.047	-0.350
-551.383	-13.803	0.247	-0.162
-550.369	-124.255	-0.121	-0.019
-549.354	-95.544	-0.321	0.087
-548.339	437.666	-0.187	0.415
-547.325	800.000	0.085	0.345
-546.310	-66.337	0.318	0.128
-545.296	350.357	0.058	-0.117
-544.281	-182.702	-0.383	-0.007
-543.266	-147.363	0.178	0.015
-542.252	-94.465	-0.333	-0.092
-541.237	249.502	-0.248	0.427
-540.223	-66.307	-0.317	-0.128
-539.208	-32.168	0.136	0.077
-538.193	800.000	0.052	-0.153
-537.179	800.000	-0.090	0.343
-536.164	-101.893	-0.447	-0.110
-535.150	-170.286	0.234	-0.008
-534.135	-200.000	-0.007	0.137
-533.121	37.197	-0.036	0.033
-532.106	228.968	0.193	0.319
-531.091	-132.429	0.287	-0.038
-530.077	117.188	0.037	-0.046
-529.062	21.166	-0.094	0.078
-528.048	800.000	-0.022	0.085
-527.033	104.721	0.105	-0.126
-526.018	-134.120	-0.145	0.018
-525.004	100.990	-0.114	0.135
-523.989	-200.000	-0.002	0.163
-522.975	22.444	-0.216	0.180
-521.960	-200.000	-0.035	0.316
-520.945	-200.000	-0.034	-0.346
-519.931	27.920	-0.307	0.263
-518.916	189.507	0.088	-0.134
-517.902	163.168	0.183	-0.261
-516.887	209.959	0.060	-0.096
-515.872	191.213	0.168	-0.256
-514.858	-20.843	0.260	0.162
-513.843	227.355	0.126	0.208
-512.829	-200.000	0.009	-0.325
-511.814	504.473	-0.139	0.328
-510.799	-59.279	-0.060	-0.026
-509.785	-80.054	-0.252	0.086
-508.770	371.591	0.121	-0.249
-507.756	-153.392	0.138	-0.010
-506.741	21.221	0.243	0.200
-505.726	-145.950	-0.357	0.032
-504.712	-200.000	0.053	-0.332
-503.697	-146.724	0.311	-0.027
-502.683	73.107	-0.160	-0.170
-501.668	800.000	-0.061	0.203
-500.653	-27.458	-0.346	-0.204
-499.639	54.229	-0.254	-0.248
-498.624	593.558	-0.137	-0.344
-497.610	154.783	0.205	-0.285
-496.595	390.745	-0.135	-0.284
-495.581	-148.671	0.206	-0.017
-494.566	800.000	0.090	0.307
-493.551	-5.596	-0.033	-0.023
-492.537	87.941	-0.203	-0.229
-491.522	-139.215	0.234	-0.026
-490.508	-86.322	0.178	-0.056
-489.493	-61.508	-0.098	0.042
-488.478	-200.000	0.278	0.001
-487.464	162.381	0.267	0.379
-486.449	121.812	-0.063	0.079
-485.435	352.273	-0.243	-0.488
-484.420	224.836	0.065	0.106
-483.405	-200.000	-0.009	0.184
-482.391	635.122	0.067	-0.173
-481.376	140.724	-0.026	-0.035
-480.362	262.487	0.133	-0.233
-479.347	-200.000	-0.022	-0.196
-478.332	-79.646	0.078	-0.027
-477.318	171.375	-0.135	0.196
-476.303	716.670	-0.154	-0.415
-475.289	197.041	0.263	-0.406
-474.274	3.138	0.321	-0.237
-473.259	800.000	0.107	-0.348
-472.245	-162.862	-0.458	-0.023
-471.230	124.936	-0.079	-0.101
-470.216	800.000	0.019	-0.069
-469.201	-33.270	0.055	-0.031
-468.186	-152.374	-0.251	-0.018
-467.172	192.399	-0.098	0.150
-466.157	39.612	-0.160	0.145
-465.143	-36.691	0.232	0.127
-464.128	327.753	0.032	0.063
-463.113	-163.527	-0.098	-0.005
-462.099	-200.000	0.045	0.385
-461.084	51.540	-0.265	-0.255
-460.070	-106.118	0.372	-0.085
-459.055	-169.886	-0.170	-0.006
-458.040	-111.188	-0.040	0.008
-457.026	-80.591	-0.176	0.059
-456.011	800.000	-0.089	0.267
-454.997	61.413	-0.291	-0.293
-453.982	800.000	-0.064	0.231
-452.968	800.000	0.112	0.486
-451.953	124.828	0.209	0.267
-450.938	-74.899	-0.074	-0.027
-449.924	107.545	0.211	-0.255
-448.909	30.904	0.196	-0.170
-447.895	157.617	-0.168	-0.236
-446.880	3.163	0.140	0.103
-445.865	-1.505	0.083	0.059
-444.851	244.679	-0.074	-0.127
-443.836	-30.612	0.140	0.080
-442.822	31.206	0.162	0.141
-441.807	-200.000	-0.007	0.042
-440.792	338.069	-0.144	0.284
-439.778	-42.564	0.138	-0.071
-438.763	200.050	-0.173	0.268
-437.749	-45.365	0.155	0.078
-436.734	-13.759	0.180	-0.118
-435.719	-200.000	-0.025	0.130
-434.705	-72.066	0.141	0.053
-433.690	425.030	-0.094	0.204
-432.676	717.896	0.035	0.094
-431.661	228.779	0.219	0.361
-430.646	-139.436	-0.477	0.052
-429.632	91.436	-0.096	-0.109
-428.617	-200.000	0.014	0.321
-427.603	249.090	0.174	0.298
-426.588	734.424	0.053	0.142
-425.573	227.811	0.155	0.256
-424.559	-69.434	0.240	0.093
-423.544	124.091	0.022	-0.028
-422.530	-200.000	-0.015	-0.152
-421.515	57.633	-0.335	-0.332
-420.500	160.736	0.112	-0.158
-419.486	-35.645	-0.231	-0.127
-418.471	-71.381	-0.213	0.081
-417.457	-88.742	0.137	-0.041
-416.442	132.038	-0.106	0.138
-415.428	-64.143	-0.107	0.044
-414.413	-200.000	0.009	-0.058
-413.398	-137.040	-0.251	-0.029
-412.384	173.945	-0.131	0.192
-411.369	708.909	-0.026	0.069
-410.355	-200.000	-0.014	0.407
-409.340	-116.444	-0.161	0.030
-408.325	1.448	0.443	-0.322
-407.311	137.458	0.127	-0.168
-406.296	-169.146	0.449	0.017
-405.282	800.000	-0.130	0.376
-404.267	215.004	0.273	0.437
-403.252	-60.158	0.127	0.055
-402.238	-98.249	-0.445	0.116
-401.223	-147.577	0.161	-0.014
-400.209	408.066	-0.065	0.139
-399.194	309.764	0.083	0.156
-398.179	-85.834	-0.217	0.068
-397.165	43.282	-0.013	-0.012
-396.150	-200.000	-0.007	-0.039
-395.136	-59.657	0.314	0.136
-394.121	-142.169	0.012	0.001
-393.106	800.000	0.033	-0.131
-392.092	-86.764	-0.081	0.025
-391.077	-119.648	0.213	0.037
-390.063	-125.285	0.222	-0.034
-389.048	787.887	0.064	-0.176
-388.033	-200.000	-0.064	-0.304
-387.019	-74.398	0.357	-0.130
-386.004	-37.135	-0.159	0.086
-384.990	-200.000	0.037	0.279
-383.975	48.843	0.200	0.189
-382.960	130.603	0.114	-0.148
-381.946	174.497	0.152	-0.222
-380.931	-48.255	-0.467	-0.227
-379.917	-63.269	-0.104	0.043
-378.902	65.053	-0.389	0.397
-377.888	-200.000	0.046	-0.327
-376.873	-96.816	0.133	-0.035
-375.858	-200.000	0.007	-0.514
-374.844	-174.991	-0.218	-0.006
-373.829	3.286	0.109	0.080
-372.815	800.000	-0.045	0.153
-371.800	-49.793	-0.150	0.072
-370.785	-5.906	0.110	-0.076
-369.771	-200.000	0.022	-0.257
-368.756	-57.376	0.287	0.127
-367.742	-200.000	0.180	0.001
-366.727	52.561	0.047	-0.045
-365.712	-183.384	-0.400	0.007
-364.698	-8.818	-0.176	-0.119
-363.683	-39.549	0.287	0.151
-362.669	-188.653	-0.126	0.002
-361.654	800.000	0.034	-0.115
-360.639	-36.636	0.177	-0.096
-359.625	-96.579	-0.373	0.099
-358.610	-200.000	-0.063	-0.308
-357.596	-200.000	-0.066	-0.293
-356.581	-200.000	0.137	-0.001
-355.566	-184.986	-0.286	-0.005
-354.552	-200.000	0.072	0.323
-353.537	-8.520	0.317	0.215
-352.523	-119.758	-0.120	0.021
-351.508	-100.364	-0.091	-0.023
-350.493	215.960	0.130	-0.208
-349.479	800.000	-0.063	-0.199
-348.464	340.450	0.030	-0.059
-347.450	-4.212	-0.050	0.035
-346.435	-200.000	-0.017	-0.122
-345.420	3.915	0.216	-0.159
-344.406	-96.709	-0.354	-0.094
-343.391	800.000	-0.017	-0.068
-342.377	27.434	0.091	0.077
-341.362	-52.145	-0.155	0.073
-340.348	-95.941	0.217	-0.058
-339.333	800.000	0.025	-0.107
-338.318	-113.522	0.208	0.041
-337.304	800.000	-0.018	-0.059
-336.289	85.734	-0.121	0.135
-335.275	130.822	-0.011	-0.014
-334.260	136.891	-0.095	-0.126
-333.245	-200.000	0.015	0.086
-332.231	-195.206	-0.243	-0.002
-331.216	316.171	0.096	-0.183
-330.202	-200.000	-0.015	0.344
-329.187	411.374	-0.138	-0.296
-328.172	-26.876	-0.331	-0.195
-327.158	30.710	-0.144	0.124
-326.143	-96.736	0.215	0.057
-325.129	-189.707	0.239	-0.003
-324.114	-171.916	0.192	-0.006
-323.099	9.920	0.318	0.244
-322.085	-5.832	-0.143	0.099
-321.070	-164.257	-0.117	-0.005
-320.056	243.392	-0.045	0.076
-319.041	-5.120	0.143	-0.099
-318.026	33.088	0.127	-0.111
-317.012	-121.077	0.227	0.038
-315.997	-85.884	0.136	0.043
-314.983	-149.071	0.436	0.035
-313.968	-29.654	-0.348	0.200
-312.953	685.671	0.107	-0.283
-311.939	26.617	0.065	-0.055
-310.924	800.000	-0.055	-0.182
-309.910	-96.729	-0.140	0.037
-308.895	20.562	-0.232	0.189
-307.880	-78.817	-0.108	0.037
-306.866	-200.000	-0.035	-0.362
-305.851	-200.000	0.068	-0.360
-304.837	-200.000	-0.039	-0.200
-303.822	-200.000	0.046	0.245
-302.807	-106.251	0.422	-0.095
-301.793	-200.000	-0.009	-0.080
-300.778	640.531	-0.080	-0.206
-299.764	417.764	-0.136	0.293
-298.749	-200.000	-0.041	-0.225
-297.735	-134.729	0.170	-0.021
-296.720	64.355	0.182	-0.185
-295.705	64.880	0.174	0.176
-294.691	-200.000	0.002	0.479
-293.676	770.965	0.032	-0.087
-292.662	283.216	-0.085	0.153
-291.647	-66.411	-0.251	-0.100
-290.632	-161.475	-0.328	-0.017
-289.618	800.000	-0.091	-0.288
-288.603	800.000	-0.076	0.277
-287.589	350.727	0.197	-0.393
-286.574	586.270	-0.054	-0.134
-285.559	35.426	-0.024	-0.021
-284.545	-200.000	-0.047	0.257
-283.530	-58.409	0.144	0.063
-282.516	770.076	-0.140	-0.385
-281.501	-139.508	-0.218	0.023
-280.486	-115.839	0.406	0.076
-279.472	281.285	0.070	0.126
-278.457	-181.047	-0.255	-0.005
-277.443	-15.546	-0.213	0.137
-276.428	-53.506	0.132	0.061
-275.413	84.590	0.104	0.115
-274.399	-200.000	0.027	0.440
-273.384	-200.000	-0.036	0.166
-272.370	-200.000	-0.011	-0.096
-271.355	800.000	0.020	0.056
-270.340	-81.727	-0.412	0.136
-269.326	318.365	-0.055	0.105
-268.311	-103.992	-0.223	0.052
-267.297	-177.960	0.343	-0.008
-266.282	-118.893	-0.209	-0.037
-265.267	-117.456	-0.216	-0.039
-264.253	-63.180	0.189	0.078
-263.238	-114.575	0.332	-0.064
-262.224	72.653	-0.261	-0.273
-261.209	-200.000	-0.042	-0.393
-260.195	-35.573	-0.067	-0.037
-259.180	271.904	-0.195	-0.345
-258.165	54.036	0.068	0.066
-257.151	-82.646	0.010	-0.003
-256.136	-94.371	-0.260	-0.071
-255.122	-127.160	0.166	0.024
-254.107	417.322	0.053	0.113
-253.092	229.943	0.130	-0.213
-252.078	-156.764	-0.210	-0.013
-251.063	800.000	0.022	-0.077
-250.049	174.823	-0.269	0.391
-249.034	800.000	0.103	0.347
-248.019	-200.000	0.016	0.424
-247.005	369.149	0.062	-0.126
-245.990	-145.041	-0.128	-0.012
-244.976	-108.593	0.256	0.055
-243.961	287.113	-0.172	-0.311
-242.946	-20.653	-0.214	-0.132
-241.932	55.554	-0.247	0.240
-240.917	-145.807	-0.544	-0.049
-239.903	78.422	0.324	-0.348
-238.888	85.614	-0.072	0.080
-237.873	-200.000	-0.003	-0.163
-236.859	-102.344	-0.103	-0.025
-235.844	161.521	-0.200	-0.281
-234.830	52.251	-0.180	0.172
-233.815	800.000	-0.012	0.036
-232.800	-48.501	0.207	-0.100
-231.786	-91.477	0.226	0.065
-230.771	-169.471	-0.337	-0.012
-229.757	-200.000	0.011	0.056
-228.742	35.883	-0.103	0.091
-227.727	-200.000	0.009	-0.099
-226.713	-200.000	0.138	0.001
-225.698	-81.333	0.238	0.079
-224.684	11.170	0.162	0.124
-223.669	-200.000	-0.003	0.134
-222.655	-87.070	0.247	-0.075
-221.640	800.000	0.087	0.267
-220.625	-60.265	-0.309	0.132
-219.611	53.971	0.135	-0.130
-218.596	65.984	0.406	-0.413
-217.582	-200.000	0.002	-0.156
-216.567	-0.356	0.281	0.200
-215.552	250.120	-0.097	0.166
-214.538	-200.000	-0.035	0.307
-213.523	-44.873	0.168	0.084
-212.509	-27.228	0.224	0.131
-211.494	-120.384	0.156	0.027
-210.479	206.036	-0.069	0.107
-209.465	800.000	0.059	-0.233
-208.450	19.288	0.112	0.090
-207.436	800.000	0.058	-0.239
-206.421	55.422	0.325	-0.315
-205.406	66.324	0.157	-0.160
-204.392	-200.000	-0.003	-0.229
-203.377	691.977	-0.145	-0.380
-202.363	800.000	0.030	-0.123
-201.348	7.547	-0.132	-0.099
-200.333	-69.898	-0.046	0.018
-199.319	-78.080	-0.285	0.098
-198.304	-86.922	0.439	-0.134
-197.290	88.844	0.059	-0.066
-196.275	-44.175	0.156	0.078
-195.260	-200.000	0.018	0.444
-194.246	11.084	-0.239	0.183
-193.231	85.166	0.177	-0.195
-192.217	387.948	-0.094	0.195
-191.202	-106.351	0.341	-0.077
-190.187	-15.127	0.359	-0.230
-189.173	800.000	-0.079	0.277
-188.158	-64.342	0.053	0.022
-187.144	-133.377	0.184	-0.023
-186.129	-26.944	-0.093	0.054
-185.114	-125.724	-0.049	-0.007
-184.100	-123.931	0.232	0.037
-183.085	5.448	0.294	0.217
-182.071	230.206	0.207	-0.338
-181.056	-117.293	0.280	-0.051
-180.042	-200.000	-0.004	0.193
-179.027	-127.995	-0.159	-0.023
-178.012	275.403	-0.065	-0.115
-176.998	800.000	0.098	-0.287
-175.983	-47.007	-0.116	0.057
-174.969	-52.875	0.063	-0.029
-173.954	-153.794	0.334	-0.023
-172.939	462.871	0.041	-0.091
-171.925	-32.102	-0.126	0.071
-170.910	528.800	0.015	-0.035
-169.896	145.825	-0.138	0.185
-168.881	-200.000	-0.018	0.184
-167.866	177.018	-0.245	-0.357
-166.852	-200.000	-0.055	-0.281
-165.837	-17.389	-0.194	0.122
-164.823	-200.000	0.020	0.175
-163.808	800.000	0.078	0.268
-162.793	310.180	-0.047	0.088
-161.779	-92.096	0.173	-0.049
-160.764	-2.376	-0.163	-0.114
-159.750	-30.976	0.118	-0.067
-158.735	-200.000	-0.055	0.466
-157.720	-18.438	0.245	0.153
-156.706	9.661	0.086	0.066
-155.691	28.741	-0.012	0.010
-154.677	737.906	0.087	-0.232
-153.662	-41.930	0.423	-0.217
-152.647	-14.459	-0.126	-0.081
-151.633	6.829	-0.073	-0.054
-150.618	-31.915	0.128	0.071
-149.604	69.349	-0.077	-0.079
-148.589	800.000	-0.042	-0.142
-147.574	-39.632	0.157	-0.082
-146.560	93.478	0.068	0.077
-145.545	-14.589	-0.205	-0.132
-144.531	-200.000	-0.032	0.204
-143.516	97.170	0.195	-0.224
-142.502	94.097	0.047	-0.053
-141.487	376.624	0.111	-0.226
-140.472	-81.025	0.116	-0.038
-139.458	124.209	0.212	-0.267
-138.443	-55.133	0.271	-0.122
-137.429	323.333	-0.041	0.078
-136.414	66.960	0.147	0.150
-135.399	158.494	-0.083	-0.115
-134.385	-200.000	0.038	0.239
-133.370	-96.776	-0.283	0.074
-132.356	-111.492	-0.382	-0.078
-131.341	148.575	-0.139	-0.187
-130.326	800.000	0.057	0.163
-129.312	-113.416	0.255	-0.050
-128.297	-200.000	-0.006	0.112
-127.283	-85.712	0.261	0.081
-126.268	604.813	-0.069	0.172
-125.253	418.162	-0.110	0.235
-124.239	800.000	0.039	-0.147
-123.224	-200.000	-0.042	-0.188
-122.210	-25.528	0.144	-0.085
-121.195	761.826	0.026	-0.072
-120.180	-63.345	-0.192	0.079
-119.166	-72.868	0.245	-0.090
-118.151	-102.821	0.256	0.061
-117.137	800.000	0.082	0.300
-116.122	-200.000	-0.024	0.170
-115.107	-200.000	-0.017	0.124
-114.093	102.328	0.148	-0.173
-113.078	-200.000	0.104	-0.560
-112.064	552.885	0.089	0.213
-111.049	800.000	-0.081	0.231
-110.034	-186.770	0.153	0.002
-109.020	653.094	0.090	-0.231
-108.005	800.000	0.073	-0.307
-106.991	-200.000	-0.026	-0.160
-105.976	800.000	0.036	-0.122
-104.962	800.000	-0.017	0.048
-103.947	154.266	0.092	-0.126
-102.932	-200.000	0.004	0.066
-101.918	89.728	-0.096	0.107
-100.903	-200.000	-0.017	-0.412
-99.889	-200.000	0.052	0.365
-98.874	710.537	0.127	0.336
-97.859	-101.402	0.264	0.064
-96.845	-200.000	-0.042	-0.243
-95.830	438.744	0.114	0.249
-94.816	-98.556	-0.268	-0.068
-93.801	-200.000	0.001	0.152
-92.786	-133.992	-0.178	-0.022
-91.772	30.251	-0.144	0.122
-90.757	40.566	0.106	-0.095
-89.743	78.054	0.294	0.313
-88.728	422.317	-0.176	-0.377
-87.713	-77.040	0.246	0.086
-86.699	800.000	0.028	0.109
-85.684	-120.229	-0.270	0.046
-84.670	800.000	-0.054	-0.175
-83.655	729.565	0.078	-0.207
-82.640	-200.000	0.007	0.271
-81.626	-53.824	0.137	-0.062
-80.611	-200.000	-0.004	-0.087
-79.597	-67.330	-0.226	0.089
-78.582	-154.929	0.238	0.016
-77.567	-5.440	0.152	0.104
-76.553	-200.000	0.013	-0.331
-75.538	-126.000	-0.242	0.036
-74.524	586.242	-0.126	0.310
-73.509	800.000	-0.047	0.175
-72.494	-200.000	-0.046	0.452
-71.480	-85.483	0.089	0.028
-70.465	-10.665	-0.185	-0.122
-69.451	800.000	-0.047	0.180
-68.436	-9.672	0.202	0.135
-67.422	-144.300	0.121	-0.011
-66.407	70.558	-0.063	0.065
-65.392	13.840	0.154	-0.120
-64.378	800.000	0.108	-0.342
-63.363	-100.188	-0.127	-0.031
-62.349	705.147	-0.063	0.165
-61.334	59.301	-0.629	-0.618
-60.319	-57.128	0.337	0.148
-59.305	-200.000	-0.038	-0.623
-58.290	-7.726	0.481	0.324
-57.276	-200.000	0.333	1.839
-56.261	-200.000	72.870	533.110
-55.246	597.429	1284.419	3173.067
-54.232	148.643	2501.949	3370.151
-53.217	123.942	2221.735	2781.405
-52.203	56.402	1664.929	1613.335
-51.188	47.540	1382.953	1285.427
-50.173	43.507	1334.735	1216.354
-49.159	61.608	1367.662	1356.516
-48.144	70.125	1386.239	1426.398
-47.130	47.644	1349.478	1254.744
-46.115	43.300	1332.882	1213.228
-45.100	43.089	1328.447	1207.878
-44.086	43.032	1325.881	1205.159
-43.071	42.948	1323.689	1202.617
-42.057	42.912	1321.331	1200.210
-41.042	43.000	1319.480	1199.004
-40.027	43.180	1317.473	1198.205
-39.013	43.005	1316.223	1195.981
-37.998	43.064	1313.906	1194.175
-36.984	43.149	1312.359	1193.228
-35.969	43.222	1310.686	1192.088
-34.954	43.215	1308.992	1190.460
-33.940	43.296	1306.985	1189.063
-32.925	43.282	1306.317	1188.330
-31.911	43.236	1304.855	1186.683
-30.896	43.301	1303.156	1185.469
-29.881	43.311	1301.672	1184.129
-28.867	43.255	1300.297	1182.503
-27.852	43.186	1298.964	1180.844
-26.838	43.340	1297.344	1180.223
-25.823	43.312	1295.989	1178.778
-24.809	43.334	1294.596	1177.597
-23.794	43.187	1293.549	1175.737
-22.779	43.292	1291.509	1174.449
-21.765	43.314	1290.374	1173.498
-20.750	43.216	1289.373	1171.973
-19.736	43.269	1287.695	1170.710
-18.721	43.220	1286.490	1169.282
-17.706	43.070	1285.836	1167.769
-16.692	43.220	1284.317	1167.216
-15.677	43.091	1283.672	1165.836
-14.663	43.083	1282.478	1164.657
-13.648	43.121	1281.256	1163.722
-12.633	43.170	1280.285	1163.075
-11.619	43.087	1279.426	1161.769
-10.604	43.254	1278.192	1161.569
-9.590	43.180	1277.347	1160.326
-8.575	43.093	1276.235	1158.768
-7.560	43.074	1275.857	1158.273
-6.546	43.052	1274.542	1156.903
-5.531	43.117	1273.538	1156.322
-4.517	43.126	1272.648	1155.522
-3.502	43.194	1271.809	1155.098
-2.487	43.055	1271.362	1153.854
-1.473	43.177	1267.674	1151.159
-0.458	42.432	1253.122	1133.692
0.556	38.162	1233.246	1094.269
1.571	34.145	1236.202	1074.179
2.586	32.745	1250.934	1078.880
3.600	31.109	1240.471	1060.472
4.615	22.264	1161.375	945.453
5.629	8.300	1074.988	805.078
6.644	1.612	1049.659	753.021
7.659	1.047	1046.431	747.851
8.673	0.769	1045.720	745.904
9.688	0.735	1044.182	744.572
10.702	1.314	1043.331	746.751
11.717	9.200	1054.843	794.021
12.731	20.115	1070.245	859.997
13.746	23.755	1074.388	881.342
14.761	23.391	1073.806	878.984
15.775	23.471	1072.879	878.544
16.790	23.109	1072.353	876.240
17.804	23.070	1071.535	875.303
18.819	23.246	1071.123	875.760
19.834	23.144	1070.656	874.797
20.848	23.329	1070.366	875.396
21.863	23.306	1069.702	874.664
22.877	23.156	1069.123	873.371
23.892	23.195	1067.974	872.548
24.907	23.228	1067.652	872.369
25.921	23.247	1066.600	871.526
26.936	23.352	1064.633	870.358
27.950	23.099	1063.640	868.225
28.965	23.086	1061.477	866.320
29.980	23.120	1060.297	865.448
30.994	23.285	1059.173	865.258
32.009	23.274	1058.554	864.621
33.023	22.939	1057.654	862.180
34.038	23.129	1056.893	862.409
35.053	23.260	1055.963	862.213
36.067	23.195	1055.128	861.138
37.082	23.342	1054.304	861.101
38.096	23.449	1053.668	861.026
39.111	23.508	1053.208	860.859
40.126	23.612	1050.826	859.340
41.140	23.211	1049.525	856.261
42.155	22.929	1047.982	853.566
43.169	22.934	1047.390	853.029
44.184	22.899	1046.247	851.856
45.199	22.830	1045.171	850.572
46.213	22.843	1044.499	850.013
47.228	23.106	1043.657	850.517
48.242	23.263	1042.406	850.178
49.257	23.099	1042.293	849.221
50.271	23.372	1041.175	849.544
51.286	23.416	1040.200	848.883
52.301	23.298	1039.996	848.078
53.315	23.331	1038.688	847.094
54.330	23.196	1037.851	845.692
55.344	23.237	1037.371	845.421
56.359	23.231	1035.985	844.187
57.374	23.083	1035.132	842.713
58.388	23.083	1034.578	842.189
59.403	23.036	1033.590	841.086
60.417	22.904	1032.121	839.187
61.432	22.850	1031.915	838.688
62.447	23.223	1031.060	839.690
63.461	23.075	1030.624	838.560
64.476	23.047	1029.596	837.517
65.490	22.986	1028.866	836.559
66.505	22.962	1028.336	835.940
67.520	22.867	1027.875	835.043
68.534	22.868	1026.342	833.729
69.549	22.595	1025.170	831.417
70.563	22.540	1024.523	830.557
71.578	22.566	1023.456	829.741
72.593	22.515	1022.163	828.381
73.607	22.567	1022.324	828.683
74.622	22.982	1021.229	829.669
75.636	22.811	1021.077	828.670
76.651	22.722	1019.881	827.210
77.666	22.757	1019.482	826.976
78.680	22.809	1018.523	826.368
79.695	22.777	1018.167	825.858
80.709	22.790	1017.838	825.580
81.724	22.872	1016.571	824.858
82.739	23.083	1015.616	824.997
83.753	23.348	1015.234	825.847
84.768	23.566	1014.640	826.307
85.782	23.768	1013.492	826.241
86.797	23.447	1012.733	824.055
87.812	23.373	1011.737	822.830
88.826	23.431	1011.374	822.730
89.841	23.532	1010.032	822.034
90.855	23.617	1008.795	821.346
91.870	23.522	1008.115	820.282
92.884	23.480	1006.792	818.942
93.899	23.358	1006.046	817.697
94.914	23.560	1004.962	817.674
95.928	23.442	1003.781	816.096
96.943	23.058	1002.728	813.405
97.957	22.913	1001.381	811.572
98.972	22.840	1000.126	810.148
99.987	23.211	999.604	811.356
101.001	23.180	998.803	810.491
102.016	23.388	997.537	810.345
103.030	23.208	996.953	808.976
104.045	23.068	996.423	807.834
105.060	22.800	995.293	805.625
106.074	23.059	994.472	806.067
107.089	23.296	994.145	806.810
108.103	23.329	992.908	805.888
109.118	23.009	991.333	803.084
110.133	23.064	990.494	802.582
111.147	22.940	989.362	801.030
112.162	22.725	988.552	799.332
113.176	23.022	987.557	799.799
114.191	22.767	987.242	798.322
115.206	22.726	985.274	796.475
116.220	22.647	985.244	796.023
117.235	22.757	984.294	795.679
118.249	22.700	983.392	794.624
119.264	22.578	982.841	793.561
120.279	22.723	981.725	793.241
121.293	22.832	980.818	792.927
122.308	22.837	979.851	792.099
123.322	22.913	978.568	791.330
124.337	22.667	977.703	789.461
125.352	22.157	975.925	785.675
126.366	22.032	974.956	784.269
127.381	22.909	974.837	788.015
128.395	23.268	974.759	789.482
129.410	23.414	973.796	789.283
130.424	23.328	973.012	788.197
131.439	23.279	972.295	787.330
132.454	23.369	970.947	786.567
133.468	23.240	970.700	785.726
134.483	23.275	969.747	785.038
135.497	23.542	969.140	785.660
136.512	23.669	967.717	784.998
137.527	23.578	967.094	784.021
138.541	23.635	966.291	783.554
139.556	23.590	965.848	782.928
140.570	23.854	964.863	783.224
141.585	23.622	964.072	781.488
142.600	23.580	962.940	780.321
143.614	23.729	962.473	780.524
144.629	24.032	961.343	780.868
145.643	23.758	960.233	778.700
146.658	23.521	959.079	776.656
147.673	23.462	957.845	775.330
148.687	23.348	956.806	773.924
149.702	23.359	955.814	773.099
150.716	23.370	954.911	772.348
151.731	23.399	954.522	772.090
152.746	23.672	953.677	772.526
153.760	23.807	952.597	772.173
154.775	23.630	952.665	771.388
155.789	23.791	950.997	770.669
156.804	23.773	950.384	770.024
157.819	23.797	949.708	769.513
158.833	23.811	949.356	769.221
159.848	23.811	948.370	768.355
160.862	23.734	946.750	766.643
161.877	23.654	946.129	765.725
162.892	23.763	945.225	765.398
163.906	23.790	943.743	764.246
164.921	23.654	943.137	763.100
165.935	23.652	942.404	762.431
166.950	23.678	941.281	761.570
167.964	23.719	940.469	761.021
168.979	23.576	939.297	759.392
169.994	23.473	938.319	758.092
171.008	23.686	938.158	758.807
172.023	23.716	937.165	758.065
173.037	23.448	936.258	756.119
174.052	23.449	935.124	755.143
175.067	23.275	934.795	754.069
176.081	23.606	934.092	754.843
177.096	23.540	933.215	753.789
178.110	23.294	932.136	751.806
179.125	22.920	931.833	749.905
180.140	23.149	931.013	750.151
181.154	23.158	931.082	750.179
182.169	23.399	930.833	750.932
183.183	23.746	930.496	752.062
184.198	23.657	929.604	750.900
185.213	23.675	928.569	750.075
186.227	23.621	928.231	749.507
187.242	23.549	927.440	748.498
188.256	23.697	926.387	748.204
189.271	23.865	925.470	748.107
190.286	23.487	924.536	745.695
191.300	22.962	923.106	742.272
192.315	22.164	921.689	737.719
193.329	22.072	921.217	736.889
194.344	22.874	921.849	740.696
195.359	23.470	921.980	743.232
196.373	23.538	921.044	742.698
197.388	23.506	920.497	742.057
198.402	23.557	919.856	741.688
199.417	23.551	919.177	741.048
200.432	23.187	918.566	738.972
201.446	23.136	917.479	737.818
202.461	23.281	916.953	737.935
203.475	22.409	915.393	732.985
204.490	21.612	913.396	728.008
205.504	22.454	914.115	732.019
206.519	23.143	914.031	734.748
207.534	23.277	913.394	734.731
208.548	23.720	913.333	736.452
209.563	23.451	912.502	734.602
210.577	23.445	911.550	733.746
211.592	23.763	911.698	735.118
212.607	23.858	910.435	734.424
213.621	23.854	910.057	734.037
214.636	23.779	909.519	733.232
215.650	23.583	908.670	731.675
216.665	23.883	907.986	732.295
217.680	23.682	907.346	730.887
218.694	23.219	906.501	728.234
219.709	23.132	905.807	727.255
220.723	23.526	905.228	728.344
221.738	23.538	904.672	727.881
222.753	23.455	903.660	726.662
223.767	23.616	903.567	727.184
224.782	23.920	903.238	728.100
225.796	23.974	902.226	727.440
226.811	23.224	900.634	723.030
227.826	22.576	899.777	719.636
228.840	22.746	899.405	719.965
229.855	22.829	898.656	719.643
230.869	22.613	897.266	717.585
231.884	22.898	897.543	718.902
232.899	23.627	897.568	721.826
233.913	23.549	896.760	720.796
234.928	23.437	896.791	720.303
235.942	23.460	895.593	719.369
236.957	23.067	894.751	717.034
237.972	23.135	894.262	716.856
238.986	23.188	893.856	716.682
240.001	23.367	892.829	716.520
241.015	23.385	892.415	716.195
242.030	23.516	892.197	716.486
243.045	23.651	891.626	716.511
244.059	23.713	891.541	716.628
245.074	23.521	890.208	714.722
246.088	23.256	889.313	712.870
247.103	23.395	888.854	712.999
248.117	23.976	889.177	715.532
249.132	24.200	888.783	716.051
250.147	24.276	887.977	715.643
251.161	24.387	888.024	716.067
252.176	24.383	887.201	715.322
253.190	24.486	886.343	714.981
254.205	24.589	885.956	715.017
255.220	24.751	885.256	715.037
256.234	24.473	884.419	713.186
257.249	24.260	884.004	711.937
258.263	24.492	883.194	712.146
259.278	24.399	882.590	711.227
260.293	24.498	882.138	711.195
261.307	24.496	881.134	710.315
262.322	24.273	880.482	708.839
263.336	23.614	878.437	704.513
264.351	22.542	876.790	698.880
265.366	22.474	876.535	698.346
266.380	23.576	876.991	703.020
267.395	24.018	876.932	704.660
268.409	24.123	875.817	704.116
269.424	24.151	875.785	704.138
270.439	24.287	875.068	704.038
271.453	24.363	874.619	703.914
272.468	24.396	874.472	703.862
273.482	24.680	873.488	704.127
274.497	24.176	872.412	701.213
275.512	23.778	871.498	698.855
276.526	24.251	871.440	700.603
277.541	24.476	870.728	700.854
278.555	24.055	870.424	698.894
279.570	23.895	869.545	697.497
280.585	24.097	868.759	697.598
281.599	24.251	867.735	697.315
282.614	23.549	866.274	693.337
283.628	23.573	866.376	693.452
284.643	23.897	865.941	694.307
285.657	23.502	864.889	691.863
286.672	23.218	864.031	690.008
287.687	23.693	864.662	692.305
288.701	23.995	863.268	692.301
289.716	23.683	862.595	690.488
290.730	23.549	862.079	689.492
291.745	23.214	861.133	687.372
292.760	23.563	860.992	688.555
293.774	24.501	861.072	692.195
294.789	24.899	861.162	693.751
295.803	24.893	860.483	693.120
296.818	24.960	859.641	692.640
297.833	24.504	858.594	689.971
298.847	24.303	857.899	688.577
299.862	24.664	857.701	689.749
300.876	24.827	857.509	690.164
301.891	24.742	856.762	689.174
302.906	24.394	855.634	686.864
303.920	24.480	855.513	687.037
304.935	24.675	855.312	687.565
305.949	24.715	854.304	686.848
306.964	24.506	853.831	685.607
307.979	24.591	853.534	685.633
308.993	24.859	853.372	686.469
310.008	24.914	853.132	686.428
311.022	24.633	852.430	684.723
312.037	24.406	851.503	683.051
313.052	24.270	850.425	681.605
314.066	23.504	848.602	677.161
315.081	23.108	848.283	675.336
316.095	23.851	848.447	678.242
317.110	24.460	848.354	680.428
318.125	23.700	846.793	676.225
319.139	22.665	845.417	671.131
320.154	22.532	845.122	670.331
321.168	23.533	845.135	674.086
322.183	24.129	845.525	676.603
323.197	24.413	844.973	677.180
324.212	24.668	844.617	677.802
325.227	24.584	844.328	677.191
326.241	24.363	843.502	675.632
327.256	24.438	842.666	675.187
328.270	24.288	841.998	674.024
329.285	24.078	841.304	672.617
330.300	23.873	840.474	671.120
331.314	24.212	839.730	671.745
332.329	24.576	840.105	673.356
333.343	24.655	839.693	673.265
334.358	24.659	839.280	672.887
335.373	24.719	839.231	673.014
336.387	24.875	839.180	673.504
337.402	25.099	838.944	674.094
338.416	25.080	838.147	673.326
339.431	25.100	837.985	673.210
340.446	25.288	837.764	673.676
341.460	25.092	837.216	672.444
342.475	24.912	836.939	671.484
343.489	25.105	836.166	671.529
344.504	25.420	835.718	672.290
345.519	25.495	835.795	672.571
346.533	25.578	835.167	672.317
347.548	25.391	834.896	671.340
348.562	25.405	834.215	670.786
349.577	25.428	833.499	670.237
350.592	25.446	832.774	669.662
351.606	25.467	832.010	669.066
352.621	25.308	831.320	667.861
353.635	25.173	830.678	666.785
354.650	24.683	828.723	663.338
355.665	23.801	827.321	658.889
356.679	24.080	827.028	659.632
357.694	24.472	827.120	661.099
358.708	24.413	826.475	660.306
359.723	24.753	826.493	661.520
360.738	25.252	825.906	662.834
361.752	25.249	825.659	662.566
362.767	25.513	825.151	663.075
363.781	25.690	824.851	663.427
364.796	25.915	824.374	663.813
365.810	25.924	824.082	663.554
366.825	25.869	823.637	662.933
367.840	25.563	823.036	661.266
368.854	25.151	821.880	658.765
369.869	25.115	821.842	658.543
370.883	25.235	821.080	658.315
371.898	25.193	820.502	657.641
372.913	25.185	820.566	657.602
373.927	25.484	819.407	657.712
374.942	25.512	819.430	657.774
375.956	25.624	819.242	657.975
376.971	25.510	819.146	657.421
377.986	25.785	818.627	657.953
379.000	25.647	818.027	656.908
380.015	25.672	817.019	656.133
381.029	25.770	816.684	656.161
382.044	25.795	816.266	655.859
383.059	25.760	815.842	655.333
384.073	25.669	815.512	654.679
385.088	25.736	814.618	654.147
386.102	25.657	813.738	653.097
387.117	25.507	813.169	652.035
388.132	25.336	811.927	650.363
389.146	24.797	811.081	647.678
390.161	25.182	810.700	648.710
391.175	25.552	810.801	650.071
392.190	25.295	809.827	648.305
393.205	24.026	807.764	642.022
394.219	22.363	805.999	634.570
395.234	22.295	805.848	634.149
396.248	23.918	807.273	641.072
397.263	25.253	807.865	646.298
398.278	25.265	807.798	646.227
399.292	25.052	807.388	645.075
400.307	25.115	806.367	644.430
401.321	25.271	806.090	644.711
402.336	25.567	805.827	645.506
403.350	26.083	805.711	647.210
404.365	26.365	805.808	648.241
405.380	26.571	805.329	648.534
406.394	26.503	805.048	648.008
407.409	26.496	804.343	647.358
408.423	26.424	804.152	646.888
409.438	26.490	803.754	646.749
410.453	26.652	803.199	646.824
411.467	26.646	802.253	645.981
412.482	26.594	802.070	645.592
413.496	26.507	801.815	645.020
414.511	26.544	801.659	644.972
415.526	26.609	801.170	644.749
416.540	26.436	800.172	643.274
417.555	26.139	799.645	641.739
418.569	26.025	799.646	641.276
419.584	26.354	798.812	641.720
420.599	25.980	798.123	639.783
421.613	86.872	1245.895	1322.080
422.628	74.053	1311.168	1322.193
