DTS Sentinel unit serial number:	SN413079Multiplexer serial number:	ORYXHardware model number:	OX4-SRSoftware version number:	ORYX F/W v4.00 Oryx Data Collector v3.7.2.0data status	okinstallation	princeton_trtdifferential loss correction	single-endedforward channel	channel 1reverse channel	N/Adate	2019/09/11time	23:52:11forward acquisition time	60.00reverse acquisition time	0.00gamma	496.2192k internal	0.2319k external	0.2319temperature offset calibration	1.0075default loss term (dB/km)	0.3790temperature slope calibration	1.0000multiplexer offset coefficient	1.0000multiplexer slope coefficient	1.0000fibre end	0.00T internal ref (°C)	33.87T ext. ref 1 (°C)	1.99T ext. ref 2 (°C)	27.89length (m)	temperature (°C)	Stokes	anti-Stokes-747.200	-200.000	-0.039	0.183
-746.185	-200.000	0.064	0.438
-745.171	719.321	0.031	-0.083
-744.156	418.108	-0.126	0.272
-743.142	800.000	0.034	-0.135
-742.127	-200.000	0.052	0.261
-741.112	-77.881	0.342	0.120
-740.098	47.999	-0.316	0.299
-739.083	800.000	0.089	0.267
-738.069	222.473	-0.115	0.187
-737.054	-133.615	0.099	0.013
-736.039	177.581	-0.130	0.192
-735.025	243.481	0.181	0.307
-734.010	-93.282	-0.359	-0.101
-732.996	800.000	0.040	0.112
-731.981	32.409	0.160	0.139
-730.966	-140.072	0.253	0.027
-729.952	318.696	0.056	0.107
-728.937	557.143	-0.075	0.182
-727.923	-141.858	-0.269	0.027
-726.908	253.283	-0.035	-0.061
-725.894	-200.000	-0.007	-0.098
-724.879	-149.321	0.140	-0.011
-723.864	142.682	0.189	0.254
-722.850	27.237	0.166	-0.141
-721.835	-200.000	-0.028	-0.151
-720.821	71.323	-0.151	0.159
-719.806	-128.733	-0.131	0.019
-718.791	204.283	-0.093	-0.145
-717.777	128.845	0.131	-0.169
-716.762	-200.000	0.015	-0.121
-715.748	61.039	0.238	0.239
-714.733	-142.158	-0.200	-0.020
-713.718	-168.911	0.333	-0.013
-712.704	-131.027	0.509	-0.069
-711.689	800.000	-0.129	0.389
-710.675	30.537	0.062	0.054
-709.660	355.727	0.138	-0.278
-708.645	-200.000	0.027	-0.129
-707.631	800.000	0.075	0.260
-706.616	-47.739	0.307	-0.151
-705.602	106.614	0.306	-0.367
-704.587	251.697	0.253	0.434
-703.572	113.843	0.228	-0.280
-702.558	207.380	0.179	-0.282
-701.543	370.171	-0.085	-0.175
-700.529	20.550	-0.137	0.112
-699.514	-56.146	-0.174	-0.078
-698.499	-62.623	-0.457	0.192
-697.485	-164.770	0.193	-0.009
-696.470	-34.351	-0.045	-0.025
-695.456	7.902	-0.094	-0.071
-694.441	97.863	0.041	-0.047
-693.426	-79.823	-0.062	-0.021
-692.412	435.123	-0.138	0.304
-691.397	-60.245	0.189	0.081
-690.383	-103.575	-0.161	-0.038
-689.368	192.196	-0.095	0.144
-688.354	-58.566	-0.031	0.014
-687.339	232.078	0.119	0.198
-686.324	36.916	0.129	0.115
-685.310	13.307	-0.264	-0.206
-684.295	-70.364	-0.148	0.057
-683.281	-200.000	0.019	0.121
-682.266	473.674	-0.137	0.312
-681.251	-200.000	-0.043	-0.210
-680.237	499.828	0.093	-0.217
-679.222	-200.000	-0.068	-0.397
-678.208	349.173	0.100	-0.200
-677.193	-200.000	0.036	-0.465
-676.178	-105.845	0.242	-0.055
-675.164	76.285	-0.090	0.097
-674.149	-115.463	-0.332	-0.063
-673.135	-101.869	0.354	-0.086
-672.120	800.000	-0.063	-0.267
-671.105	-134.641	-0.121	-0.015
-670.091	-107.453	0.102	0.023
-669.076	59.548	-0.228	-0.227
-668.062	-65.086	0.045	0.018
-667.047	-73.657	-0.201	-0.074
-666.032	66.861	-0.133	-0.136
-665.018	-200.000	0.007	0.535
-664.003	800.000	0.139	0.493
-662.989	-39.342	-0.018	-0.009
-661.974	-136.049	0.184	-0.022
-660.959	-200.000	-0.019	-0.137
-659.945	185.492	0.101	-0.151
-658.930	343.554	0.066	-0.130
-657.916	11.929	0.278	-0.215
-656.901	-125.525	-0.201	0.031
-655.886	-43.888	-0.009	-0.004
-654.872	-200.000	-0.015	-0.174
-653.857	-200.000	0.018	-0.106
-652.843	310.108	-0.175	0.330
-651.828	-48.613	-0.202	0.098
-650.814	36.693	0.118	-0.105
-649.799	-54.193	0.074	0.034
-648.784	57.773	-0.151	0.149
-647.770	-51.632	0.286	0.134
-646.755	800.000	0.125	-0.430
-645.741	800.000	0.148	-0.443
-644.726	137.151	0.106	0.139
-643.711	-12.919	-0.070	0.046
-642.697	94.388	0.036	-0.041
-641.682	477.143	0.113	-0.257
-640.668	223.384	0.041	0.067
-639.653	136.376	0.063	0.083
-638.638	-85.114	0.245	-0.077
-637.624	4.057	-0.140	-0.103
-636.609	676.689	-0.087	0.227
-635.595	260.146	-0.196	-0.341
-634.580	-77.701	0.234	0.082
-633.565	-200.000	-0.004	-0.275
-632.551	-99.004	0.275	-0.070
-631.536	-101.786	-0.172	0.042
-630.522	-200.000	0.127	0.617
-629.507	-22.578	0.178	-0.109
-628.492	178.949	0.067	0.098
-627.478	232.197	0.089	-0.147
-626.463	300.994	0.139	-0.259
-625.449	-88.433	-0.183	0.055
-624.434	-149.483	-0.268	-0.021
-623.419	26.379	-0.098	-0.083
-622.405	479.468	-0.100	0.228
-621.390	8.019	-0.095	0.072
-620.376	102.452	0.199	0.234
-619.361	-200.000	0.005	0.154
-618.346	130.650	0.029	-0.038
-617.332	150.261	-0.224	-0.306
-616.317	-15.590	-0.145	-0.093
-615.303	217.560	-0.101	0.162
-614.288	-29.917	-0.132	0.076
-613.273	-48.536	-0.258	0.125
-612.259	-99.610	-0.279	0.070
-611.244	-200.000	-0.028	-0.390
-610.230	-200.000	0.055	-0.285
-609.215	-200.000	0.019	-0.261
-608.201	306.883	0.064	0.119
-607.186	-33.682	-0.269	-0.149
-606.171	-200.000	0.025	-0.183
-605.157	153.942	0.048	0.066
-604.142	-158.727	0.201	-0.012
-603.128	150.615	-0.063	-0.086
-602.113	-200.000	-0.004	-0.104
-601.098	-200.000	-0.065	0.580
-600.084	-32.473	0.134	0.075
-599.069	243.500	0.147	0.247
-598.055	800.000	0.037	-0.111
-597.040	507.930	0.040	0.092
-596.025	-5.137	-0.316	-0.219
-595.011	1.613	0.082	-0.059
-593.996	-200.000	-0.055	0.328
-592.982	-97.522	0.261	-0.068
-591.967	-33.723	-0.676	-0.375
-590.952	-43.093	-0.136	-0.069
-589.938	-150.934	0.035	-0.003
-588.923	-138.239	0.108	-0.012
-587.909	482.559	0.053	0.122
-586.894	-104.785	-0.152	-0.035
-585.879	800.000	-0.028	0.119
-584.865	-200.000	0.048	0.255
-583.850	-200.000	0.050	0.333
-582.836	-132.445	0.222	0.029
-581.821	-165.995	0.149	0.006
-580.806	125.835	-0.148	0.188
-579.792	678.630	0.136	-0.356
-578.777	-58.752	0.061	-0.027
-577.763	-200.000	0.024	-0.201
-576.748	704.340	0.051	0.135
-575.733	23.362	-0.167	0.138
-574.719	-96.645	-0.032	0.009
-573.704	39.308	-0.113	-0.101
-572.690	-100.139	-0.199	0.050
-571.675	-72.651	0.140	-0.052
-570.661	-99.106	0.153	-0.039
-569.646	-162.148	0.245	0.012
-568.631	1.584	0.118	-0.085
-567.617	-3.763	-0.225	0.157
-566.602	-125.831	0.408	-0.062
-565.588	218.228	0.041	0.066
-564.573	137.575	-0.079	0.104
-563.558	-161.253	-0.287	0.015
-562.544	296.976	-0.074	-0.137
-561.529	-200.000	0.030	0.257
-560.515	-64.548	-0.361	-0.147
-559.500	-51.391	0.173	-0.081
-558.485	-54.463	0.144	0.065
-557.471	272.026	0.131	-0.232
-556.456	21.721	-0.230	-0.188
-555.442	800.000	-0.033	-0.118
-554.427	47.740	-0.100	0.094
-553.412	-74.821	-0.188	-0.068
-552.398	-58.363	0.068	0.030
-551.383	-200.000	0.063	0.275
-550.369	-38.386	-0.205	-0.109
-549.354	-164.965	0.394	0.018
-548.339	226.110	0.061	0.100
-547.325	-122.027	-0.227	-0.037
-546.310	677.322	-0.044	-0.116
-545.296	-123.248	0.050	0.008
-544.281	800.000	0.098	0.275
-543.266	169.808	-0.250	-0.359
-542.252	-71.855	0.147	-0.055
-541.237	-35.753	0.373	0.203
-540.223	-51.056	-0.210	-0.099
-539.208	77.336	-0.061	-0.066
-538.193	266.697	-0.091	0.160
-537.179	-87.201	-0.146	0.044
-536.164	29.888	0.056	-0.048
-535.150	283.861	-0.327	0.591
-534.135	226.430	0.107	0.174
-533.121	-121.555	-0.136	0.023
-532.106	-59.189	0.299	-0.129
-531.091	-131.212	-0.064	-0.008
-530.077	800.000	-0.050	0.175
-529.062	-74.140	-0.232	-0.084
-528.048	-69.311	-0.183	-0.071
-527.033	-6.658	-0.420	-0.287
-526.018	68.678	0.153	-0.157
-525.004	-107.549	0.208	-0.046
-523.989	-120.383	0.173	0.030
-522.975	-92.016	-0.200	-0.057
-521.960	-68.170	0.292	0.114
-520.945	-166.545	0.395	-0.017
-519.931	-200.000	-0.043	-0.232
-518.916	-200.000	-0.009	0.237
-517.902	800.000	-0.045	-0.158
-516.887	-59.953	0.050	0.021
-515.872	-37.499	0.163	-0.087
-514.858	135.352	-0.053	-0.069
-513.843	-200.000	-0.013	-0.330
-512.829	-200.000	-0.001	-0.158
-511.814	168.509	0.119	-0.171
-510.799	278.943	-0.104	-0.186
-509.785	186.001	0.097	-0.145
-508.770	-200.000	0.078	-0.403
-507.756	67.048	-0.075	0.076
-506.741	76.424	-0.160	-0.170
-505.726	362.652	0.052	0.104
-504.712	-170.455	0.059	0.002
-503.697	37.140	-0.153	-0.136
-502.683	214.559	0.142	-0.226
-501.668	139.135	0.103	-0.136
-500.653	-23.900	-0.143	-0.086
-499.639	132.034	-0.045	0.058
-498.624	-58.104	0.163	0.071
-497.610	634.457	-0.029	0.073
-496.595	-111.337	0.302	0.062
-495.581	800.000	0.095	0.334
-494.566	-139.118	0.085	0.009
-493.551	-200.000	0.002	-0.121
-492.537	-130.331	0.165	0.022
-491.522	-82.690	0.233	-0.075
-490.508	800.000	-0.026	-0.103
-489.493	-200.000	-0.021	0.174
-488.478	800.000	0.057	0.212
-487.464	437.525	-0.136	-0.297
-486.449	-63.644	0.251	-0.103
-485.435	-109.747	0.208	0.044
-484.420	379.957	0.246	0.504
-483.405	12.584	-0.122	0.094
-482.391	149.201	0.082	0.112
-481.376	800.000	-0.085	-0.353
-480.362	52.696	-0.176	-0.169
-479.347	86.816	-0.143	0.159
-478.332	800.000	-0.048	0.166
-477.318	-81.505	-0.107	0.035
-476.303	153.867	0.092	0.126
-475.289	800.000	0.081	0.246
-474.274	-85.284	0.447	0.140
-473.259	408.460	0.100	-0.212
-472.245	-114.918	0.327	-0.062
-471.230	-113.823	-0.250	-0.049
-470.216	457.060	-0.124	-0.277
-469.201	800.000	0.027	-0.080
-468.186	800.000	0.041	-0.178
-467.172	354.368	0.049	0.097
-466.157	800.000	0.017	-0.072
-465.143	615.757	0.159	-0.399
-464.128	-200.000	0.088	0.000
-463.113	11.336	-0.144	-0.110
-462.099	-97.422	0.301	0.078
-461.084	272.550	0.069	0.122
-460.070	30.097	-0.182	0.155
-459.055	106.460	-0.204	0.242
-458.040	-100.153	-0.176	-0.044
-457.026	114.876	-0.088	-0.108
-456.011	-138.556	0.271	-0.030
-454.997	470.205	0.108	0.242
-453.982	800.000	0.042	0.128
-452.968	-4.565	0.243	0.168
-451.953	-10.611	-0.255	0.169
-450.938	800.000	-0.074	0.321
-449.924	402.672	-0.063	-0.133
-448.909	0.280	-0.032	-0.023
-447.895	-35.427	0.269	-0.146
-446.880	219.521	-0.023	-0.037
-445.865	-200.000	0.045	0.228
-444.851	267.684	0.153	-0.267
-443.836	6.106	0.114	-0.085
-442.822	119.790	0.163	0.202
-441.807	-21.114	0.252	0.154
-440.792	-58.339	0.146	-0.064
-439.778	136.567	0.089	-0.116
-438.763	78.239	-0.150	0.160
-437.749	-42.964	0.172	0.088
-436.734	-200.000	-0.072	-0.378
-435.719	266.830	0.142	0.247
-434.705	-104.807	0.251	-0.058
-433.690	-170.005	0.067	-0.002
-432.676	239.596	0.172	-0.286
-431.661	-157.311	-0.261	-0.016
-430.646	-117.811	0.400	-0.072
-429.632	-14.621	0.145	0.093
-428.617	800.000	-0.057	0.239
-427.603	159.655	-0.112	-0.156
-426.588	-152.573	0.019	0.001
-425.573	-12.567	-0.136	-0.089
-424.559	345.751	0.085	0.166
-423.544	-200.000	0.035	-0.313
-422.530	800.000	-0.032	0.120
-421.515	-8.705	-0.180	0.121
-420.500	-102.754	0.383	0.091
-419.486	-189.030	-0.694	-0.008
-418.471	302.493	-0.133	0.246
-417.457	800.000	-0.142	-0.402
-416.442	125.612	-0.131	0.165
-415.428	396.642	-0.158	0.329
-414.413	-21.878	-0.254	0.154
-413.398	118.608	-0.166	0.204
-412.384	212.533	0.151	0.238
-411.369	72.331	-0.230	0.239
-410.355	-80.386	-0.171	-0.057
-409.340	-200.000	0.302	0.000
-408.325	-155.757	-0.073	0.005
-407.311	301.228	-0.124	-0.229
-406.296	-63.717	0.056	-0.023
-405.282	-63.328	-0.030	0.012
-404.267	-132.408	0.307	-0.039
-403.252	-63.652	-0.257	0.105
-402.238	470.206	0.093	0.208
-401.223	557.003	-0.016	-0.038
-400.209	363.507	0.159	-0.318
-399.194	800.000	-0.067	0.252
-398.179	516.767	-0.089	0.208
-397.165	-65.372	-0.286	-0.115
-396.150	-0.421	-0.109	0.077
-395.136	-200.000	0.013	0.199
-394.121	-7.254	-0.095	-0.065
-393.106	-38.243	-0.072	-0.038
-392.092	-200.000	0.066	0.359
-391.077	-154.867	0.174	-0.011
-390.063	122.204	0.012	0.015
-389.048	328.818	-0.116	0.222
-388.033	191.210	-0.050	0.076
-387.019	354.366	0.117	0.232
-386.004	9.996	-0.169	-0.128
-384.990	-200.000	-0.103	-0.461
-383.975	299.817	0.129	0.238
-382.960	-8.422	0.044	-0.030
-381.946	238.127	-0.165	0.274
-380.931	-200.000	0.052	-0.292
-379.917	-68.987	0.359	0.138
-378.902	69.412	-0.245	-0.251
-377.888	18.717	-0.129	-0.103
-376.873	-67.154	-0.062	0.024
-375.858	-68.055	-0.105	-0.041
-374.844	-9.709	0.061	0.041
-373.829	76.201	-0.115	-0.121
-372.815	-81.314	-0.171	0.056
-371.800	800.000	0.066	0.236
-370.785	-90.859	-0.160	-0.046
-369.771	40.669	0.057	-0.051
-368.756	-200.000	0.003	0.037
-367.742	221.945	0.170	0.273
-366.727	-38.240	-0.175	-0.093
-365.712	-38.530	0.184	-0.097
-364.698	-200.000	-0.006	-0.073
-363.683	-200.000	0.037	-0.239
-362.669	800.000	0.036	0.146
-361.654	-89.955	0.122	0.036
-360.639	364.102	0.138	0.278
-359.625	265.030	0.195	0.339
-358.610	-200.000	-0.036	-0.319
-357.596	-0.531	-0.328	-0.232
-356.581	20.226	-0.194	0.156
-355.566	-50.032	-0.088	0.042
-354.552	-47.630	0.386	0.186
-353.537	-200.000	0.035	0.225
-352.523	-75.973	0.195	-0.069
-351.508	-105.585	-0.402	-0.091
-350.493	-98.539	-0.098	-0.025
-349.479	648.973	-0.044	0.113
-348.464	63.976	0.192	-0.192
-347.450	-200.000	-0.010	-0.175
-346.435	-25.703	0.077	-0.045
-345.420	800.000	0.152	-0.542
-344.406	37.643	-0.226	-0.200
-343.391	-108.688	0.118	0.025
-342.377	-59.662	0.355	0.152
-341.362	-200.000	0.002	-0.040
-340.348	-75.533	-0.151	-0.054
-339.333	800.000	0.039	-0.134
-338.318	-69.983	0.105	0.040
-337.304	17.754	-0.196	0.155
-336.289	480.455	0.106	0.239
-335.275	-12.450	-0.224	-0.146
-334.260	-200.000	0.000	-0.237
-333.245	-100.485	-0.105	0.026
-332.231	116.385	-0.068	0.083
-331.216	-106.238	-0.125	0.028
-330.202	259.092	-0.192	0.330
-329.187	-118.855	0.192	-0.034
-328.172	75.016	0.260	-0.272
-327.158	17.909	0.283	-0.225
-326.143	-200.000	-0.053	-0.363
-325.129	-24.974	-0.157	-0.093
-324.114	800.000	-0.155	-0.465
-323.099	172.931	0.036	-0.052
-322.085	-25.681	0.057	0.034
-321.070	187.559	-0.121	-0.179
-320.056	56.741	-0.077	-0.074
-319.041	-50.925	-0.197	-0.092
-318.026	391.109	-0.054	-0.111
-317.012	800.000	0.040	-0.138
-315.997	404.141	0.030	-0.063
-314.983	-115.683	0.248	-0.046
-313.968	160.480	0.201	-0.280
-312.953	-131.870	0.251	-0.033
-311.939	130.826	-0.092	0.117
-310.924	-154.595	-0.158	0.010
-309.910	-142.275	0.036	-0.004
-308.895	279.426	0.102	-0.181
-307.880	-31.930	-0.102	0.057
-306.866	-200.000	0.041	0.205
-305.851	-79.235	0.145	-0.049
-304.837	61.540	-0.207	-0.205
-303.822	-200.000	0.004	-0.035
-302.807	-107.021	-0.299	0.066
-301.793	76.532	0.025	-0.027
-300.778	-82.878	0.079	-0.025
-299.764	-57.137	-0.202	-0.088
-298.749	135.836	0.028	-0.037
-297.735	159.119	-0.231	0.319
-296.720	-200.000	0.051	0.243
-295.705	488.598	0.027	-0.060
-294.691	97.685	0.147	0.167
-293.676	800.000	0.054	0.160
-292.662	-73.372	-0.115	0.042
-291.647	783.270	-0.179	0.487
-290.632	-200.000	0.021	0.146
-289.618	86.290	0.136	-0.149
-288.603	40.022	-0.057	-0.051
-287.589	-106.229	0.404	-0.090
-286.574	-194.040	-0.482	-0.004
-285.559	101.304	-0.096	0.111
-284.545	38.098	-0.098	0.086
-283.530	-181.583	-0.401	-0.008
-282.516	592.836	0.041	-0.102
-281.501	319.837	-0.098	0.185
-280.486	-99.442	-0.271	-0.068
-279.472	114.543	-0.191	-0.231
-278.457	-137.249	0.189	-0.021
-277.443	-200.000	0.017	-0.119
-276.428	-28.672	-0.164	0.094
-275.413	-22.901	0.380	0.227
-274.399	52.120	0.069	-0.065
-273.384	159.718	0.099	0.137
-272.370	-200.000	0.029	0.354
-271.355	-158.904	0.071	-0.004
-270.340	-200.000	0.009	-0.247
-269.326	563.641	-0.078	-0.188
-268.311	-200.000	-0.044	-0.258
-267.297	-17.854	0.089	0.056
-266.282	131.717	0.109	-0.139
-265.267	100.634	0.085	0.098
-264.253	0.398	0.171	0.121
-263.238	-92.912	0.234	-0.065
-262.224	-35.343	0.252	0.136
-261.209	86.667	0.203	-0.222
-260.195	-50.693	-0.340	0.159
-259.180	658.026	0.151	0.386
-258.165	-52.377	0.213	-0.098
-257.151	78.693	-0.316	-0.335
-256.136	-56.714	-0.109	0.048
-255.122	800.000	-0.060	-0.223
-254.107	79.597	-0.250	0.266
-253.092	274.223	-0.079	-0.139
-252.078	187.958	0.166	-0.247
-251.063	800.000	0.061	0.252
-250.049	-112.167	0.134	0.027
-249.034	800.000	-0.054	-0.203
-248.019	233.556	-0.086	0.141
-247.005	95.429	0.162	0.183
-245.990	537.135	-0.067	-0.158
-244.976	-200.000	0.002	0.208
-243.961	323.450	0.183	0.347
-242.946	64.379	-0.264	-0.264
-241.932	-110.313	0.200	0.041
-240.917	-86.905	-0.188	0.057
-239.903	-200.000	0.018	-0.081
-238.888	-200.000	-0.022	0.303
-237.873	117.870	-0.091	0.111
-236.859	-31.139	-0.203	-0.114
-235.844	-130.153	0.331	0.045
-234.830	-23.414	-0.228	0.136
-233.815	-94.801	-0.047	0.013
-232.800	432.028	-0.062	0.133
-231.786	-200.000	-0.064	-0.336
-230.771	-200.000	-0.024	0.282
-229.757	21.532	0.069	-0.056
-228.742	-126.800	0.016	0.002
-227.727	104.685	-0.226	-0.264
-226.713	-163.418	0.384	0.018
-225.698	319.500	-0.080	-0.150
-224.684	540.224	-0.080	0.189
-223.669	-95.503	-0.366	0.097
-222.655	331.871	-0.147	0.282
-221.640	-7.999	-0.164	0.110
-220.625	-114.026	-0.131	-0.025
-219.611	-97.041	-0.240	-0.062
-218.596	-200.000	0.068	-0.396
-217.582	-92.801	-0.096	-0.027
-216.567	72.161	0.285	-0.294
-215.552	-94.678	-0.241	-0.065
-214.538	-60.244	-0.233	0.098
-213.523	-18.856	0.046	0.028
-212.509	-51.718	-0.041	0.019
-211.494	800.000	-0.132	0.363
-210.479	-99.602	-0.173	0.043
-209.465	-118.818	0.200	-0.035
-208.450	-70.845	-0.262	0.098
-207.436	-10.860	0.213	-0.140
-206.421	-73.758	0.300	0.108
-205.406	10.286	-0.067	0.051
-204.392	800.000	-0.116	0.327
-203.377	240.100	0.082	0.135
-202.363	1.014	0.273	-0.194
-201.348	-174.778	-0.150	0.004
-200.333	-37.263	-0.123	-0.065
-199.319	-114.027	-0.074	-0.014
-198.304	-189.110	0.175	0.002
-197.290	-42.505	0.221	0.112
-196.275	-170.639	-0.034	0.001
-195.260	-200.000	-0.025	0.141
-194.246	-29.415	0.111	-0.063
-193.231	800.000	0.059	-0.251
-192.217	800.000	-0.130	0.361
-191.202	800.000	-0.056	-0.175
-190.187	800.000	0.062	-0.200
-189.173	800.000	0.026	0.111
-188.158	105.485	0.258	-0.302
-187.144	628.573	-0.034	-0.084
-186.129	-200.000	0.013	-0.076
-185.114	-31.593	0.203	0.113
-184.100	122.633	-0.208	-0.258
-183.085	-200.000	0.001	0.439
-182.071	10.898	0.218	-0.165
-181.056	199.339	0.099	-0.150
-180.042	800.000	0.160	0.475
-179.027	-200.000	0.010	0.054
-178.012	-200.000	-0.019	-0.279
-176.998	-105.706	0.225	0.050
-175.983	-134.730	-0.317	0.038
-174.969	-35.318	0.214	0.115
-173.954	157.489	-0.192	-0.263
-172.939	0.580	-0.332	0.235
-171.925	-40.772	0.248	-0.127
-170.910	173.948	0.246	-0.352
-169.896	37.040	0.039	-0.034
-168.881	-200.000	-0.002	0.099
-167.866	47.792	-0.096	0.088
-166.852	131.346	-0.065	0.083
-165.837	-200.000	0.059	-0.266
-164.823	-200.000	0.001	-0.031
-163.808	-200.000	-0.013	0.141
-162.793	180.823	0.159	0.232
-161.779	-105.027	-0.230	0.052
-160.764	642.409	0.023	0.057
-159.750	357.132	-0.060	-0.118
-158.735	720.884	-0.058	0.153
-157.720	-125.897	0.250	0.037
-156.706	-100.487	-0.376	-0.092
-155.691	-67.796	0.438	0.169
-154.677	-79.913	-0.113	-0.038
-153.662	30.974	-0.186	0.158
-152.647	-40.356	-0.207	-0.106
-151.633	-200.000	-0.036	0.232
-150.618	66.839	0.297	0.299
-149.604	19.161	-0.058	-0.046
-148.589	-0.280	-0.217	0.152
-147.574	149.168	-0.208	-0.278
-146.560	637.662	-0.109	0.274
-145.545	-32.738	-0.296	-0.163
-144.531	-200.000	0.060	0.285
-143.516	800.000	0.107	0.363
-142.502	-106.806	0.117	0.026
-141.487	-200.000	0.018	-0.134
-140.472	-79.688	0.267	-0.089
-139.458	721.394	0.108	0.285
-138.443	-200.000	0.007	0.042
-137.429	1.949	0.149	0.106
-136.414	583.822	0.109	0.263
-135.399	-20.595	0.088	0.053
-134.385	-93.668	0.023	-0.006
-133.370	526.682	-0.091	0.211
-132.356	589.924	0.097	0.236
-131.341	602.707	-0.093	0.229
-130.326	-84.972	-0.224	0.069
-129.312	527.544	-0.066	-0.153
-128.297	-0.069	-0.123	0.087
-127.283	-138.856	0.311	0.033
-126.268	-200.000	-0.016	0.120
-125.253	8.939	0.435	0.324
-124.239	800.000	-0.049	0.206
-123.224	225.117	0.139	0.223
-122.210	-41.604	0.190	0.096
-121.195	-122.993	0.194	0.031
-120.180	97.063	0.135	-0.153
-119.166	-161.118	-0.377	0.019
-118.151	800.000	-0.053	-0.172
-117.137	524.055	0.012	0.028
-116.122	-113.552	-0.330	0.064
-115.107	-41.676	-0.413	-0.209
-114.093	800.000	0.058	-0.175
-113.078	-87.210	0.121	-0.036
-112.064	105.923	-0.044	-0.052
-111.049	200.391	-0.154	0.233
-110.034	-42.065	-0.163	0.082
-109.020	-22.577	0.378	0.226
-108.005	242.251	0.295	-0.487
-106.991	800.000	-0.048	-0.142
-105.976	-13.959	-0.103	0.066
-104.962	-55.731	0.431	0.190
-103.947	230.721	0.041	-0.066
-102.932	4.396	0.321	-0.232
-101.918	165.208	0.085	0.119
-100.903	-200.000	-0.008	0.155
-99.889	148.436	-0.046	-0.061
-98.874	-200.000	0.011	0.234
-97.859	112.080	0.244	-0.291
-96.845	800.000	-0.043	0.147
-95.830	-200.000	0.006	0.183
-94.816	-118.201	-0.123	-0.022
-93.801	-127.159	-0.192	0.028
-92.786	258.571	0.108	0.183
-91.772	800.000	-0.041	0.151
-90.757	-94.331	0.249	-0.067
-89.743	-54.700	0.202	0.090
-88.728	128.961	-0.283	-0.356
-87.713	41.819	0.240	0.215
-86.699	145.985	-0.032	0.042
-85.684	-94.279	0.169	-0.046
-84.670	200.700	0.096	-0.145
-83.655	-10.815	-0.425	-0.277
-82.640	800.000	-0.102	-0.305
-81.626	50.235	-0.155	-0.145
-80.611	-59.742	0.325	-0.137
-79.597	-200.000	0.018	0.268
-78.582	-67.785	-0.282	0.109
-77.567	98.520	0.281	-0.319
-76.553	-93.361	0.180	-0.049
-75.538	-90.137	-0.166	-0.048
-74.524	30.575	0.189	0.159
-73.509	-200.000	-0.041	-0.244
-72.494	523.257	0.157	-0.364
-71.480	337.634	-0.179	0.342
-70.465	327.236	0.106	0.200
-69.451	143.903	-0.190	-0.250
-68.436	118.819	0.122	0.149
-67.422	-52.701	0.164	-0.075
-66.407	-126.361	-0.138	-0.020
-65.392	800.000	0.086	-0.251
-64.378	85.159	-0.160	-0.173
-63.363	-61.520	0.138	-0.057
-62.349	255.345	-0.076	0.129
-61.334	79.415	-0.845	-0.892
-60.319	102.648	0.436	0.502
-59.305	-200.000	0.025	-0.819
-58.290	374.544	0.523	1.049
-57.276	800.000	0.630	1.817
-56.261	-200.000	96.873	582.836
-55.246	544.810	1387.674	3264.654
-54.232	156.005	2576.918	3498.955
-53.217	112.220	2151.532	2561.608
-52.203	45.192	1610.381	1461.949
-51.188	37.387	1348.018	1176.702
-50.173	34.045	1306.037	1120.366
-49.159	56.636	1353.560	1296.943
-48.144	59.251	1370.645	1328.896
-47.130	37.538	1327.702	1159.684
-46.115	33.920	1310.283	1123.087
-45.100	33.869	1305.379	1118.540
-44.086	33.736	1303.097	1115.761
-43.071	33.692	1301.190	1113.826
-42.057	33.627	1299.182	1111.681
-41.042	33.673	1297.005	1110.044
-40.027	33.791	1295.475	1109.381
-39.013	33.772	1294.040	1107.998
-37.998	33.727	1292.306	1106.207
-36.984	33.800	1290.528	1105.064
-35.969	33.852	1288.687	1103.748
-34.954	33.969	1287.180	1103.091
-33.940	33.970	1285.959	1102.008
-32.925	33.975	1284.583	1100.814
-31.911	33.929	1282.573	1098.777
-30.896	33.950	1281.473	1097.914
-29.881	33.963	1280.416	1097.042
-28.867	33.996	1279.130	1096.084
-27.852	34.058	1277.112	1094.672
-26.838	34.031	1275.777	1093.325
-25.823	33.933	1274.510	1091.633
-24.809	34.009	1273.050	1090.779
-23.794	33.932	1271.900	1089.306
-22.779	34.008	1270.634	1088.617
-21.765	33.923	1269.851	1087.413
-20.750	33.966	1268.132	1086.143
-19.736	33.883	1266.679	1084.384
-18.721	33.803	1265.465	1082.843
-17.706	33.749	1264.546	1081.708
-16.692	33.800	1263.151	1080.761
-15.677	33.933	1261.958	1080.454
-14.663	33.889	1261.089	1079.420
-13.648	33.826	1260.283	1078.326
-12.633	33.849	1258.741	1077.097
-11.619	33.777	1258.736	1076.641
-10.604	33.834	1257.822	1076.137
-9.590	33.783	1256.501	1074.680
-8.575	33.791	1255.433	1073.768
-7.560	33.741	1254.777	1072.878
-6.546	33.889	1253.699	1072.753
-5.531	33.682	1253.028	1070.968
-4.517	33.808	1252.227	1070.952
-3.502	33.759	1251.527	1070.034
-2.487	33.837	1250.120	1069.227
-1.473	33.707	1246.214	1065.115
-0.458	32.272	1231.572	1044.590
0.556	29.283	1213.343	1006.740
1.571	25.573	1219.242	991.137
2.586	24.826	1234.619	999.380
3.600	24.622	1224.223	989.746
4.615	18.287	1151.201	897.523
5.629	7.409	1072.906	782.971
6.644	2.403	1051.715	743.171
7.659	1.934	1049.303	739.128
8.673	1.858	1048.005	737.783
9.688	1.777	1046.862	736.518
10.702	2.400	1045.253	738.331
11.717	9.256	1055.451	778.781
12.731	19.590	1069.677	839.712
13.746	24.206	1075.590	866.787
14.761	24.989	1076.133	870.959
15.775	25.041	1075.949	870.986
16.790	24.866	1075.074	869.348
17.804	24.810	1074.493	868.529
18.819	25.018	1073.735	868.852
19.834	25.046	1073.542	868.753
20.848	25.040	1073.174	868.350
21.863	25.099	1072.579	868.076
22.877	24.865	1072.187	866.550
23.892	24.967	1071.022	866.025
24.907	24.943	1070.743	865.607
25.921	25.099	1069.382	865.184
26.936	24.971	1068.097	863.451
27.950	25.003	1066.668	862.374
28.965	24.811	1064.608	859.708
29.980	24.819	1063.244	858.570
30.994	25.020	1062.642	858.969
32.009	25.135	1061.109	858.205
33.023	24.804	1060.210	855.822
34.038	25.001	1059.277	855.934
35.053	25.092	1058.568	855.718
36.067	25.095	1057.741	854.989
37.082	25.208	1057.143	854.966
38.096	25.338	1056.314	854.840
39.111	25.259	1056.049	854.176
40.126	25.141	1054.520	852.300
41.140	24.780	1052.739	849.074
42.155	24.569	1051.624	847.097
43.169	24.710	1050.498	846.785
44.184	24.689	1049.735	845.996
45.199	24.474	1048.838	844.180
46.213	24.554	1048.226	843.992
47.228	24.935	1046.952	844.687
48.242	25.047	1045.819	844.230
49.257	24.979	1045.869	843.871
50.271	25.130	1044.747	843.604
51.286	25.087	1043.958	842.688
52.301	25.035	1043.157	841.725
53.315	25.155	1041.959	841.248
54.330	24.957	1041.308	839.718
55.344	25.106	1040.391	839.603
56.359	24.837	1040.229	838.137
57.374	24.841	1038.237	836.477
58.388	24.882	1037.760	836.212
59.403	24.728	1036.894	834.717
60.417	24.648	1036.031	833.578
61.432	24.803	1035.387	833.710
62.447	24.990	1034.394	833.704
63.461	24.899	1034.037	832.922
64.476	24.853	1032.933	831.744
65.490	24.691	1032.157	830.294
66.505	24.738	1031.897	830.230
67.520	24.767	1031.405	829.892
68.534	24.663	1029.516	827.817
69.549	24.249	1028.841	825.284
70.563	24.409	1027.560	824.928
71.578	24.280	1027.385	824.118
72.593	24.157	1026.033	822.391
73.607	24.225	1026.047	822.642
74.622	24.530	1025.305	823.381
75.636	24.581	1024.723	823.077
76.651	24.543	1023.768	822.063
77.666	24.471	1022.562	820.691
78.680	24.443	1022.136	820.148
79.695	24.549	1021.590	820.123
80.709	24.797	1020.741	820.508
81.724	24.832	1019.802	819.839
82.739	24.684	1019.743	819.040
83.753	25.079	1019.602	820.666
84.768	25.313	1018.451	820.735
85.782	25.306	1017.539	819.897
86.797	25.267	1016.705	818.972
87.812	25.185	1015.847	817.836
88.826	25.326	1014.365	817.210
89.841	25.484	1013.559	817.208
90.855	25.265	1012.643	815.401
91.870	25.247	1011.820	814.585
92.884	25.190	1010.749	813.396
93.899	25.168	1009.733	812.405
94.914	25.339	1008.995	812.513
95.928	25.208	1007.742	810.841
96.943	24.979	1006.745	808.931
97.957	24.686	1005.687	806.690
98.972	24.629	1004.724	805.587
99.987	24.733	1004.432	805.752
101.001	24.885	1003.613	805.705
102.016	25.013	1002.394	805.234
103.030	24.922	1001.639	804.147
104.045	24.757	1000.564	802.470
105.060	24.714	999.583	801.421
106.074	24.819	999.087	801.424
107.089	25.045	998.735	802.081
108.103	24.968	997.408	800.601
109.118	24.893	995.776	798.887
110.133	24.647	995.315	797.345
111.147	24.585	994.137	796.057
112.162	24.558	993.031	794.979
113.176	24.744	992.544	795.349
114.191	24.658	991.665	794.190
115.206	24.402	990.254	791.853
116.220	24.392	989.611	791.227
117.235	24.460	989.138	791.078
118.249	24.494	987.994	790.243
119.264	24.241	987.566	788.714
120.279	24.487	986.317	788.734
121.293	24.483	986.180	788.533
122.308	24.557	984.889	787.761
123.322	24.613	983.414	786.758
124.337	24.218	982.933	784.563
125.352	23.872	980.627	781.135
126.366	23.871	979.670	780.299
127.381	24.517	980.335	783.594
128.395	24.929	979.528	784.688
129.410	25.066	978.639	784.503
130.424	25.017	977.631	783.412
131.439	25.088	976.769	782.965
132.454	25.059	976.290	782.383
133.468	24.926	975.266	780.911
134.483	25.008	974.882	780.892
135.497	25.136	974.181	780.820
136.512	25.226	973.212	780.366
137.527	25.243	972.249	779.601
138.541	25.362	971.651	779.566
139.556	25.210	970.887	778.224
140.570	25.393	970.102	778.319
141.585	25.280	969.144	776.996
142.600	25.148	967.994	775.433
143.614	25.489	967.485	776.431
144.629	25.506	966.543	775.678
145.643	25.375	965.219	773.984
146.658	25.215	963.741	772.039
147.673	25.234	962.550	771.101
148.687	25.047	961.619	769.485
149.702	24.982	960.662	768.372
150.716	25.109	959.708	768.083
151.731	25.066	959.933	768.013
152.746	25.212	959.361	768.111
153.760	25.377	958.339	767.928
154.775	25.530	957.561	767.892
155.789	25.468	956.922	767.046
156.804	25.509	955.673	766.153
157.819	25.354	955.052	764.930
158.833	25.502	954.638	765.160
159.848	25.496	953.610	764.240
160.862	25.434	952.294	762.857
161.877	25.441	951.189	761.932
162.892	25.535	950.131	761.418
163.906	25.410	949.133	760.020
164.921	25.448	948.178	759.351
165.935	25.521	947.178	758.790
166.950	25.483	946.669	758.155
167.964	25.427	945.718	757.090
168.979	25.243	944.602	755.354
169.994	25.288	943.639	754.707
171.008	25.409	943.334	754.903
172.023	25.399	942.425	754.067
173.037	25.300	941.476	752.826
174.052	25.201	940.340	751.439
175.067	25.116	939.879	750.647
176.081	25.294	939.618	751.118
177.096	25.240	938.120	749.625
178.110	24.897	937.285	747.462
179.125	24.662	936.855	746.072
180.140	24.884	936.218	746.423
181.154	24.939	936.263	746.622
182.169	25.254	936.577	748.121
183.183	25.457	935.722	748.219
184.198	25.228	935.009	746.630
185.213	25.267	934.276	746.139
186.227	25.448	933.034	745.833
187.242	25.438	932.745	745.493
188.256	25.434	932.321	745.072
189.271	25.470	931.548	744.538
190.286	25.226	930.174	742.365
191.300	24.535	928.784	738.334
192.315	23.826	927.586	734.390
193.329	23.795	927.045	733.767
194.344	24.745	927.322	737.845
195.359	25.252	927.338	739.882
196.373	25.315	926.833	739.673
197.388	25.046	926.556	738.279
198.402	25.125	925.929	738.040
199.417	25.157	925.264	737.572
200.432	25.192	923.897	736.563
201.446	24.880	923.433	734.847
202.461	24.982	922.543	734.492
203.475	24.084	920.630	729.230
204.490	23.272	919.548	724.983
205.504	24.308	919.569	729.175
206.519	24.793	919.952	731.398
207.534	24.956	919.572	731.697
208.548	25.404	919.269	733.219
209.563	25.013	918.494	730.940
210.577	25.158	917.688	730.827
211.592	25.811	916.928	732.817
212.607	25.511	916.376	731.090
213.621	25.554	915.789	730.731
214.636	25.602	914.815	730.081
215.650	25.487	914.042	728.936
216.665	25.610	913.869	729.232
217.680	25.596	912.993	728.411
218.694	25.087	912.054	725.539
219.709	24.986	911.104	724.311
220.723	25.273	911.077	725.384
221.738	25.410	910.086	725.084
222.753	25.168	909.576	723.638
223.767	25.298	909.194	723.795
224.782	25.673	908.550	724.727
225.796	25.620	908.442	724.365
226.811	24.921	907.164	720.468
227.826	24.345	905.415	716.704
228.840	24.413	905.295	716.818
229.855	24.468	904.196	716.104
230.869	24.151	903.023	713.842
231.884	24.702	902.762	715.780
232.899	25.358	903.248	718.726
233.913	25.273	902.617	717.821
234.928	25.120	901.949	716.614
235.942	25.241	901.151	716.402
236.957	24.758	900.577	713.954
237.972	24.934	899.665	713.871
238.986	24.972	899.454	713.791
240.001	24.959	898.517	712.934
241.015	25.076	898.121	713.021
242.030	25.132	897.924	713.025
243.045	25.272	897.260	712.991
244.059	25.392	896.713	712.968
245.074	25.093	895.963	711.124
246.088	24.893	894.758	709.312
247.103	25.218	894.784	710.556
248.117	25.669	894.718	712.229
249.132	25.944	894.300	712.919
250.147	26.198	893.320	713.076
251.161	26.072	893.580	712.722
252.176	26.138	892.790	712.290
253.190	26.200	892.416	712.174
254.205	26.450	891.798	712.604
255.220	26.244	891.306	711.334
256.234	26.115	890.302	709.965
257.249	26.140	889.664	709.493
258.263	26.016	888.900	708.332
259.278	26.248	888.211	708.629
260.293	26.292	887.949	708.533
261.307	26.215	886.915	707.343
262.322	25.807	886.396	705.270
263.336	25.041	884.524	700.723
264.351	24.182	881.999	695.308
265.366	24.349	882.221	696.074
266.380	25.350	882.846	700.411
267.395	25.885	882.241	701.956
268.409	25.747	881.715	700.936
269.424	25.976	881.243	701.391
270.439	26.015	880.654	701.013
271.453	25.962	880.263	700.431
272.468	26.190	879.561	700.697
273.482	26.286	879.294	700.795
274.497	25.869	878.090	698.159
275.512	25.461	877.028	695.670
276.526	25.864	877.486	697.537
277.541	26.004	877.227	697.810
278.555	25.906	875.750	696.195
279.570	25.657	875.321	694.831
280.585	25.843	875.040	695.263
281.599	25.876	873.549	694.144
282.614	25.390	872.249	691.181
283.628	25.248	872.183	690.520
284.643	25.732	871.965	692.149
285.657	25.088	871.195	689.000
286.672	24.994	870.050	687.674
287.687	25.533	870.163	689.769
288.701	25.436	869.584	688.880
289.716	25.208	868.808	687.331
290.730	25.245	867.957	686.737
291.745	25.049	866.991	685.163
292.760	25.305	867.284	686.314
293.774	26.296	867.125	689.911
294.789	26.557	866.916	690.680
295.803	26.618	866.458	690.488
296.818	26.645	865.832	690.028
297.833	26.151	864.454	686.990
298.847	26.144	863.787	686.372
299.862	26.460	863.660	687.412
300.876	26.450	863.716	687.358
301.891	26.420	862.710	686.384
302.906	26.152	861.844	684.617
303.920	26.272	861.452	684.699
304.935	26.592	861.223	685.671
305.949	26.489	860.328	684.505
306.964	26.267	859.771	683.162
307.979	26.282	859.657	683.071
308.993	26.701	858.961	684.037
310.008	26.572	858.588	683.195
311.022	26.369	857.534	681.528
312.037	26.322	857.062	680.916
313.052	25.901	856.229	678.609
314.066	25.060	854.657	674.144
315.081	24.807	854.138	672.722
316.095	25.545	854.710	675.887
317.110	26.091	854.258	677.524
318.125	25.366	852.587	673.417
319.139	24.341	851.433	668.608
320.154	24.396	850.545	668.058
321.168	25.365	851.306	672.224
322.183	25.765	851.342	673.691
323.197	26.006	851.214	674.433
324.212	26.211	850.675	674.709
325.227	26.418	849.673	674.628
326.241	26.321	849.278	673.893
327.256	26.164	848.690	672.784
328.270	25.951	847.959	671.351
329.285	25.866	847.228	670.396
330.300	25.655	846.511	668.986
331.314	25.976	845.975	669.695
332.329	26.327	846.044	670.992
333.343	26.429	845.745	671.076
334.358	26.367	845.347	670.470
335.373	26.580	844.887	670.834
336.387	26.575	845.095	670.921
337.402	26.867	844.851	671.749
338.416	26.912	844.438	671.528
339.431	26.890	843.877	670.942
340.446	26.942	843.904	671.097
341.460	26.828	843.410	670.225
342.475	26.648	842.710	668.943
343.489	26.843	842.359	669.325
344.504	27.065	841.859	669.687
345.519	27.229	841.763	670.155
346.533	27.192	841.607	669.837
347.548	27.305	840.335	669.182
348.562	27.103	839.865	668.004
349.577	27.052	839.807	667.712
350.592	27.135	838.857	667.202
351.606	27.138	837.784	666.302
352.621	27.106	837.055	665.546
353.635	27.005	836.263	664.486
354.650	26.205	834.983	660.485
355.665	25.307	833.811	656.220
356.679	25.647	833.668	657.289
357.694	26.261	833.021	658.962
358.708	26.116	832.372	657.862
359.723	26.660	832.288	659.719
360.738	26.946	831.919	660.409
361.752	26.962	831.809	660.323
362.767	27.235	831.331	660.876
363.781	27.465	831.076	661.453
364.796	27.494	830.858	661.323
365.810	27.601	830.198	661.129
366.825	27.680	829.360	660.691
367.840	27.252	828.943	658.747
368.854	26.887	827.967	656.592
369.869	26.828	827.696	656.109
370.883	27.007	827.467	656.517
371.898	26.760	826.813	655.046
372.913	26.805	826.762	655.110
373.927	26.952	825.975	654.958
374.942	27.206	825.674	655.579
375.956	27.258	825.274	655.391
376.971	27.375	825.098	655.615
377.986	27.437	824.363	655.195
379.000	27.433	823.976	654.816
380.015	27.383	823.067	653.856
381.029	27.400	822.825	653.666
382.044	27.551	822.181	653.637
383.059	27.488	821.474	652.791
384.073	27.674	820.939	652.976
385.088	27.452	820.627	651.874
386.102	27.408	819.626	650.866
387.117	27.311	818.903	649.886
388.132	26.933	817.976	647.744
389.146	26.382	817.171	645.083
390.161	26.845	817.327	646.801
391.175	27.436	816.607	648.279
392.190	27.139	815.305	646.135
393.205	25.583	813.524	639.140
394.219	24.156	811.684	632.576
395.234	23.974	812.002	632.120
396.248	25.483	813.632	638.700
397.263	27.071	814.379	644.872
398.278	27.068	813.741	644.299
399.292	26.643	813.243	642.340
400.307	26.842	812.584	642.467
401.321	26.946	812.126	642.418
402.336	27.386	812.098	643.895
403.350	27.665	812.289	644.977
404.365	27.943	811.764	645.487
405.380	28.302	811.415	646.418
406.394	28.184	810.944	645.569
407.409	28.123	810.860	645.233
408.423	28.045	810.193	644.367
409.438	28.294	809.594	644.711
410.453	28.281	809.243	644.330
411.467	28.216	808.613	643.541
412.482	28.323	808.328	643.635
413.496	28.276	808.310	643.399
414.511	28.244	807.940	642.935
415.526	28.185	807.275	642.142
416.540	28.137	806.468	641.275
417.555	27.856	805.660	639.592
418.569	28.006	805.449	639.891
419.584	27.885	804.581	638.720
420.599	27.786	804.345	638.131
421.613	110.138	1283.467	1451.032
422.628	95.120	1353.262	1451.135
