DTS Sentinel unit serial number:	SN413079Multiplexer serial number:	ORYXHardware model number:	OX4-SRSoftware version number:	ORYX F/W v4.00 Oryx Data Collector v3.7.2.0data status	okinstallation	princeton_trtdifferential loss correction	single-endedforward channel	channel 1reverse channel	N/Adate	2019/09/11time	05:48:11forward acquisition time	60.00reverse acquisition time	0.00gamma	496.2192k internal	0.2331k external	0.2331temperature offset calibration	0.9922default loss term (dB/km)	0.3790temperature slope calibration	1.0000multiplexer offset coefficient	1.0000multiplexer slope coefficient	1.0000fibre end	0.00T internal ref (°C)	29.41T ext. ref 1 (°C)	-0.24T ext. ref 2 (°C)	23.51length (m)	temperature (°C)	Stokes	anti-Stokes-747.200	-38.011	0.167	-0.089
-746.185	78.371	-0.270	-0.291
-745.171	-93.873	0.071	0.020
-744.156	495.504	0.135	-0.312
-743.142	800.000	-0.060	-0.254
-742.127	54.349	0.016	-0.015
-741.112	-92.580	0.415	0.117
-740.098	-112.670	-0.082	0.016
-739.083	-200.000	-0.144	-0.000
-738.069	432.931	-0.195	0.425
-737.054	800.000	0.164	-0.528
-736.039	79.621	0.159	-0.172
-735.025	154.910	0.169	0.234
-734.010	800.000	-0.081	-0.286
-732.996	-38.328	-0.372	0.198
-731.981	-200.000	-0.024	0.185
-730.966	41.509	-0.092	-0.084
-729.952	13.788	-0.172	0.134
-728.937	378.803	-0.088	-0.180
-727.923	208.622	0.129	0.204
-726.908	-93.625	0.356	-0.099
-725.894	-29.547	-0.130	-0.075
-724.879	-167.792	0.142	0.006
-723.864	-96.271	-0.175	0.047
-722.850	800.000	-0.046	-0.135
-721.835	-85.265	-0.342	0.107
-720.821	560.353	0.071	0.173
-719.806	-107.292	-0.252	-0.056
-718.791	141.927	0.081	0.108
-717.777	48.870	0.228	0.215
-716.762	37.005	-0.150	-0.133
-715.748	-200.000	0.021	0.254
-714.733	292.164	-0.054	-0.099
-713.718	800.000	-0.053	0.153
-712.704	800.000	-0.049	-0.213
-711.689	155.379	0.252	-0.348
-710.675	98.822	-0.084	-0.097
-709.660	155.445	-0.199	0.275
-708.645	-200.000	-0.047	-0.285
-707.631	-101.950	-0.308	-0.075
-706.616	399.281	-0.056	-0.118
-705.602	549.344	0.069	0.166
-704.587	36.761	0.132	0.117
-703.572	291.561	-0.097	-0.177
-702.558	132.328	-0.118	0.153
-701.543	19.768	-0.156	-0.127
-700.529	145.513	-0.178	-0.240
-699.514	-99.024	0.183	-0.047
-698.499	396.079	0.114	-0.238
-697.485	87.173	-0.234	-0.260
-696.470	-200.000	-0.016	-0.227
-695.456	-200.000	0.026	0.267
-694.441	800.000	-0.160	0.473
-693.426	407.070	0.108	-0.230
-692.412	398.965	-0.071	0.150
-691.397	-69.793	0.054	-0.021
-690.383	624.987	0.115	-0.290
-689.368	470.297	-0.058	0.131
-688.354	-76.981	-0.141	-0.050
-687.339	-125.650	-0.553	-0.084
-686.324	181.572	0.125	-0.184
-685.310	-200.000	0.042	-0.204
-684.295	76.404	-0.075	0.080
-683.281	-27.963	-0.302	0.175
-682.266	-50.133	0.215	-0.102
-681.251	-200.000	-0.004	-0.248
-680.237	34.179	0.242	-0.212
-679.222	-176.635	0.183	0.005
-678.208	783.693	-0.034	0.093
-677.193	10.254	0.127	0.097
-676.178	-33.798	0.071	-0.039
-675.164	4.920	0.230	0.170
-674.149	44.062	-0.157	-0.145
-673.135	-153.428	-0.354	-0.025
-672.120	91.475	-0.024	0.027
-671.105	289.149	-0.065	-0.118
-670.091	117.958	-0.082	-0.101
-669.076	-180.040	-0.273	-0.006
-668.062	-200.000	0.009	0.075
-667.047	-200.000	-0.022	-0.108
-666.032	718.597	-0.027	0.072
-665.018	-134.107	-0.174	-0.022
-664.003	-147.873	0.305	0.026
-662.989	-200.000	0.018	0.113
-661.974	2.019	-0.045	0.033
-660.959	-200.000	-0.014	0.063
-659.945	-24.353	0.316	-0.189
-658.930	800.000	-0.010	0.036
-657.916	-76.910	0.362	0.127
-656.901	-15.479	0.341	0.218
-655.886	-104.186	0.129	-0.030
-654.872	-102.761	0.096	-0.023
-653.857	-34.084	-0.152	-0.084
-652.843	6.001	-0.270	0.200
-651.828	367.050	0.081	0.164
-650.814	-171.035	-0.140	-0.005
-649.799	-12.505	-0.213	0.139
-648.784	-115.689	0.244	0.046
-647.770	-44.953	-0.174	-0.087
-646.755	-183.478	0.041	0.001
-645.741	138.518	-0.057	0.075
-644.726	168.149	0.049	-0.070
-643.711	6.008	0.077	0.057
-642.697	-34.077	-0.087	0.048
-641.682	-200.000	0.020	-0.277
-640.668	-34.759	-0.073	-0.040
-639.653	-85.342	-0.193	-0.060
-638.638	624.602	0.141	0.356
-637.624	-200.000	0.009	-0.299
-636.609	800.000	0.038	-0.111
-635.595	489.700	-0.026	0.059
-634.580	24.498	0.281	-0.233
-633.565	-142.581	-0.080	-0.008
-632.551	3.282	-0.354	0.259
-631.536	578.422	0.108	-0.265
-630.522	-22.080	-0.129	-0.079
-629.507	800.000	-0.012	-0.039
-628.492	133.890	-0.072	0.093
-627.478	-200.000	0.021	-0.212
-626.463	279.800	0.130	-0.233
-625.449	-200.000	-0.073	0.349
-624.434	64.342	-0.272	0.274
-623.419	-200.000	-0.006	0.143
-622.405	618.969	0.062	-0.156
-621.390	-67.966	0.203	-0.079
-620.376	-166.837	0.159	-0.007
-619.361	-108.246	0.245	-0.053
-618.346	-112.973	0.228	-0.045
-617.332	-77.198	0.016	-0.006
-616.317	-16.880	-0.239	-0.151
-615.303	-8.874	-0.099	-0.067
-614.288	800.000	0.128	0.464
-613.273	-186.902	0.330	0.005
-612.259	800.000	0.054	-0.152
-611.244	62.377	0.152	-0.152
-610.230	-83.927	-0.117	-0.037
-609.215	800.000	0.046	0.201
-608.201	-157.759	-0.289	0.017
-607.186	-72.592	0.200	0.074
-606.171	11.871	0.240	0.185
-605.157	800.000	-0.068	-0.297
-604.142	-170.340	0.109	0.004
-603.128	73.285	0.289	0.302
-602.113	-200.000	0.027	-0.139
-601.098	-133.157	0.360	0.046
-600.084	176.662	0.271	-0.394
-599.069	33.519	0.270	-0.234
-598.055	-200.000	-0.298	-0.001
-597.040	112.538	-0.047	-0.057
-596.025	800.000	-0.037	0.103
-595.011	79.056	-0.148	-0.159
-593.996	-66.334	-0.178	-0.071
-592.982	-200.000	-0.022	0.304
-591.967	420.458	0.113	0.243
-590.952	26.532	-0.103	0.086
-589.938	-49.800	0.330	0.157
-588.923	106.543	-0.273	-0.324
-587.909	139.639	0.225	0.296
-586.894	-60.216	0.226	-0.096
-585.879	-29.484	-0.168	0.096
-584.865	96.219	-0.171	-0.195
-583.850	547.955	-0.107	-0.257
-582.836	255.871	0.076	-0.130
-581.821	164.960	-0.167	-0.235
-580.806	12.723	0.137	0.106
-579.792	-72.214	-0.053	0.020
-578.777	252.711	0.139	-0.237
-577.763	-43.201	-0.233	-0.118
-576.748	800.000	0.013	-0.035
-575.733	205.710	-0.260	0.404
-574.719	-200.000	-0.022	0.000
-573.704	-200.000	0.012	-0.612
-572.690	-48.260	-0.074	0.036
-571.675	31.821	-0.010	0.009
-570.661	-200.000	0.006	0.099
-569.646	-200.000	-0.052	0.299
-568.631	-41.938	-0.357	-0.183
-567.617	61.687	0.218	-0.216
-566.602	50.791	0.315	-0.298
-565.588	-99.370	-0.416	0.105
-564.573	800.000	-0.080	0.227
-563.558	800.000	-0.112	0.451
-562.544	-200.000	-0.023	0.161
-561.529	309.192	0.087	-0.163
-560.515	74.727	-0.229	-0.240
-559.500	156.340	0.219	-0.302
-558.485	-37.496	-0.319	0.170
-557.471	-3.846	-0.291	-0.201
-556.456	-3.661	0.095	0.066
-555.442	153.538	-0.203	-0.278
-554.427	51.364	0.061	-0.058
-553.412	-103.835	-0.156	0.036
-552.398	78.328	0.284	-0.303
-551.383	-34.976	-0.282	-0.154
-550.369	800.000	-0.091	0.312
-549.354	92.383	-0.227	-0.255
-548.339	800.000	0.071	-0.229
-547.325	777.627	-0.056	-0.153
-546.310	-200.000	0.054	-0.298
-545.296	42.234	-0.082	-0.074
-544.281	-200.000	0.015	0.351
-543.266	143.029	-0.172	-0.228
-542.252	-132.923	0.132	0.017
-541.237	-91.076	-0.229	-0.066
-540.223	9.969	-0.237	-0.179
-539.208	-13.554	-0.104	0.067
-538.193	-200.000	-0.008	0.117
-537.179	-200.000	0.002	-0.400
-536.164	-119.212	0.248	-0.043
-535.150	73.258	-0.166	0.173
-534.135	28.314	-0.196	-0.165
-533.121	-200.000	0.034	0.244
-532.106	128.994	0.114	-0.145
-531.091	-15.259	0.222	0.142
-530.077	-147.112	-0.184	0.016
-529.062	-102.840	0.093	-0.022
-528.048	370.947	0.040	-0.081
-527.033	495.026	0.124	0.285
-526.018	-200.000	-0.027	0.148
-525.004	332.521	0.107	-0.207
-523.989	-123.930	-0.301	-0.047
-522.975	800.000	-0.065	0.181
-521.960	61.679	-0.147	0.146
-520.945	-110.967	-0.143	-0.029
-519.931	-200.000	-0.012	0.270
-518.916	33.203	0.280	0.243
-517.902	-200.000	-0.014	-0.202
-516.887	-12.917	-0.255	-0.165
-515.872	210.266	0.150	-0.235
-514.858	-2.601	0.328	0.229
-513.843	800.000	0.090	0.381
-512.829	-149.496	-0.154	0.012
-511.814	-99.991	-0.172	-0.043
-510.799	-152.228	0.261	0.019
-509.785	800.000	0.022	0.074
-508.770	-112.153	0.273	0.055
-507.756	218.662	-0.081	-0.128
-506.741	-200.000	0.006	0.253
-505.726	14.363	0.297	-0.231
-504.712	-200.000	0.005	0.198
-503.697	-106.826	-0.365	0.081
-502.683	217.673	-0.161	-0.257
-501.668	800.000	0.038	-0.112
-500.653	-109.470	-0.109	-0.023
-499.639	242.588	-0.032	0.054
-498.624	-138.614	-0.070	-0.008
-497.610	800.000	0.053	0.172
-496.595	761.695	0.048	0.131
-495.581	74.181	0.050	-0.053
-494.566	17.850	-0.234	-0.186
-493.551	327.865	0.090	0.171
-492.537	-160.112	-0.199	0.011
-491.522	800.000	0.040	0.155
-490.508	-54.105	-0.095	0.043
-489.493	-200.000	-0.001	0.232
-488.478	-156.642	0.101	-0.006
-487.464	80.769	0.143	-0.154
-486.449	-106.594	0.227	-0.050
-485.435	-110.365	-0.117	0.024
-484.420	-158.607	-0.068	-0.004
-483.405	262.523	0.076	0.131
-482.391	-181.918	-0.221	-0.004
-481.376	-66.472	0.589	-0.233
-480.362	-110.724	0.128	-0.026
-479.347	-97.435	0.041	-0.011
-478.332	800.000	0.052	-0.151
-477.318	-123.203	-0.334	-0.053
-476.303	35.073	-0.253	0.221
-475.289	-112.311	-0.067	0.013
-474.274	-184.778	-0.334	0.005
-473.259	-200.000	-0.007	0.135
-472.245	-84.364	-0.208	0.065
-471.230	129.061	-0.239	0.303
-470.216	-200.000	0.050	-0.450
-469.201	-200.000	0.001	0.114
-468.186	-200.000	0.041	-0.246
-467.172	800.000	0.006	-0.023
-466.157	-12.806	0.214	-0.139
-465.143	-158.510	-0.418	0.024
-464.128	-200.000	0.023	0.104
-463.113	252.883	-0.060	-0.101
-462.099	-5.045	0.015	-0.010
-461.084	36.637	-0.220	-0.193
-460.070	148.853	-0.142	0.191
-459.055	67.849	0.040	-0.041
-458.040	684.861	0.049	0.128
-457.026	144.560	0.088	-0.117
-456.011	316.429	-0.106	0.199
-454.997	-179.277	0.142	-0.003
-453.982	-78.579	0.325	-0.111
-452.968	193.043	-0.130	0.195
-451.953	800.000	-0.021	-0.079
-450.938	-46.564	0.106	-0.051
-449.924	-62.064	-0.077	0.032
-448.909	-26.943	0.295	0.171
-447.895	-13.994	0.205	-0.132
-446.880	-100.193	0.355	-0.088
-445.865	655.028	0.030	0.078
-444.851	-61.729	0.230	-0.096
-443.836	-38.012	-0.153	0.081
-442.822	630.706	-0.037	0.094
-441.807	800.000	-0.095	0.283
-440.792	8.618	-0.117	0.088
-439.778	-134.731	-0.095	-0.011
-438.763	388.649	-0.133	0.273
-437.749	-200.000	0.026	0.210
-436.734	-101.684	-0.173	0.042
-435.719	133.495	-0.063	-0.081
-434.705	217.548	-0.227	-0.360
-433.690	-54.879	-0.141	0.063
-432.676	-81.321	0.169	0.055
-431.661	-74.009	-0.474	0.171
-430.646	800.000	-0.031	-0.103
-429.632	77.546	0.149	-0.158
-428.617	104.668	0.266	-0.311
-427.603	-84.708	0.225	-0.070
-426.588	-200.000	0.033	0.162
-425.573	800.000	-0.021	-0.085
-424.559	-61.847	0.244	0.102
-423.544	1.402	-0.087	0.062
-422.530	-43.598	-0.117	0.059
-421.515	-200.000	0.009	0.511
-420.500	800.000	-0.092	-0.282
-419.486	-178.095	0.093	0.002
-418.471	-200.000	0.023	0.195
-417.457	649.135	-0.156	-0.397
-416.442	-101.967	0.258	0.062
-415.428	800.000	0.043	0.171
-414.413	502.498	-0.143	-0.328
-413.398	-137.045	-0.402	-0.046
-412.384	7.134	0.057	-0.043
-411.369	437.148	0.104	0.226
-410.355	800.000	0.093	-0.344
-409.340	-41.436	0.138	0.071
-408.325	171.628	-0.020	0.029
-407.311	66.378	-0.053	0.054
-406.296	-200.000	-0.014	0.346
-405.282	62.720	-0.168	0.167
-404.267	178.517	-0.120	-0.174
-403.252	475.769	-0.098	-0.220
-402.238	-200.000	0.033	0.204
-401.223	-115.767	-0.072	0.013
-400.209	-106.997	0.303	-0.067
-399.194	800.000	-0.045	0.192
-398.179	-38.732	0.189	-0.099
-397.165	-200.000	0.014	-0.100
-396.150	377.206	0.007	-0.015
-395.136	800.000	0.048	0.189
-394.121	187.445	-0.257	0.380
-393.106	159.887	-0.142	-0.196
-392.092	90.531	0.117	-0.130
-391.077	539.548	0.024	-0.057
-390.063	98.533	0.243	0.278
-389.048	-159.290	0.120	-0.007
-388.033	-144.750	0.172	0.016
-387.019	-154.165	-0.241	-0.016
-386.004	800.000	0.126	-0.440
-384.990	88.291	0.072	0.079
-383.975	-51.424	-0.327	-0.152
-382.960	-15.106	-0.107	-0.068
-381.946	17.437	-0.333	0.263
-380.931	-45.919	0.308	-0.151
-379.917	-200.000	-0.003	0.151
-378.902	-119.191	0.303	-0.052
-377.888	-158.157	-0.230	-0.013
-376.873	-95.830	-0.224	-0.059
-375.858	61.341	0.270	0.267
-374.844	-111.874	-0.189	0.038
-373.829	-58.873	0.296	0.127
-372.815	-146.973	0.111	0.009
-371.800	800.000	0.014	-0.049
-370.785	-200.000	-0.001	0.420
-369.771	34.732	0.054	-0.047
-368.756	2.116	0.072	0.052
-367.742	800.000	0.055	-0.170
-366.727	-200.000	0.041	-0.250
-365.712	800.000	0.114	0.378
-364.698	-26.831	-0.105	-0.061
-363.683	800.000	0.084	-0.248
-362.669	-39.161	-0.231	-0.120
-361.654	299.133	0.023	0.042
-360.639	-200.000	0.012	0.100
-359.625	-163.197	-0.063	-0.003
-358.610	-200.000	0.000	0.159
-357.596	-200.000	0.044	0.322
-356.581	-69.189	0.186	-0.071
-355.566	-200.000	-0.047	0.286
-354.552	-200.000	0.053	-0.270
-353.537	-200.000	-0.021	-0.211
-352.523	-70.664	0.238	-0.089
-351.508	153.183	-0.105	0.142
-350.493	545.895	0.099	-0.234
-349.479	-25.945	0.122	0.071
-348.464	-22.827	-0.102	0.061
-347.450	-200.000	-0.022	0.156
-346.435	79.434	-0.133	0.141
-345.420	263.356	0.131	-0.226
-344.406	-139.304	0.380	0.040
-343.391	-200.000	0.019	0.142
-342.377	-200.000	0.005	0.027
-341.362	253.760	-0.042	-0.070
-340.348	272.120	0.097	0.169
-339.333	800.000	0.045	-0.160
-338.318	118.930	-0.172	0.211
-337.304	305.864	0.052	0.097
-336.289	416.824	-0.206	0.436
-335.275	-112.229	0.490	0.097
-334.260	574.768	0.083	-0.200
-333.245	44.506	-0.157	-0.143
-332.231	-82.273	0.132	0.042
-331.216	466.698	-0.049	0.109
-330.202	-118.809	-0.130	-0.023
-329.187	286.478	-0.129	0.230
-328.172	43.132	0.201	-0.181
-327.158	-32.047	-0.080	-0.045
-326.143	-12.806	0.296	0.191
-325.129	-200.000	0.019	0.213
-324.114	-15.427	-0.051	-0.033
-323.099	-36.648	0.181	0.096
-322.085	30.093	-0.061	0.051
-321.070	-160.145	0.080	-0.004
-320.056	589.783	0.037	0.091
-319.041	45.297	0.023	0.021
-318.026	-200.000	0.021	0.155
-317.012	-94.003	-0.229	-0.062
-315.997	206.589	0.173	-0.267
-314.983	190.022	-0.123	0.183
-313.968	-12.843	0.222	0.143
-312.953	-88.468	-0.093	0.028
-311.939	51.865	0.234	0.221
-310.924	-13.742	-0.392	0.251
-309.910	150.460	0.074	-0.099
-308.895	-3.930	-0.194	0.133
-307.880	87.262	-0.179	0.195
-306.866	-2.245	0.338	-0.235
-305.851	-200.000	-0.017	-0.137
-304.837	-105.240	-0.206	-0.047
-303.822	569.305	0.091	-0.219
-302.807	-81.315	-0.101	-0.033
-301.793	245.157	0.055	0.092
-300.778	53.844	0.165	-0.157
-299.764	-200.000	0.120	-0.578
-298.749	-103.062	-0.211	0.049
-297.735	621.025	0.135	0.335
-296.720	-200.000	-0.004	0.235
-295.705	135.485	-0.142	-0.183
-294.691	-154.059	-0.362	-0.024
-293.676	-84.747	-0.421	-0.131
-292.662	-96.916	-0.384	0.100
-291.647	32.340	0.248	0.212
-290.632	110.870	0.189	-0.225
-289.618	-200.000	0.019	0.180
-288.603	12.729	-0.181	-0.138
-287.589	-109.146	-0.208	0.044
-286.574	-149.426	0.200	0.016
-285.559	800.000	-0.076	0.239
-284.545	-59.189	-0.302	0.128
-283.530	257.091	0.090	0.153
-282.516	-36.603	-0.231	0.123
-281.501	241.825	-0.138	-0.228
-280.486	-65.683	-0.388	-0.154
-279.472	-85.517	-0.211	-0.065
-278.457	-14.982	0.164	0.104
-277.443	-29.789	0.291	-0.164
-276.428	-200.000	-0.080	0.392
-275.413	-200.000	0.074	0.331
-274.399	-200.000	0.027	-0.331
-273.384	110.160	-0.296	-0.351
-272.370	-92.484	0.238	-0.066
-271.355	-9.828	-0.195	0.128
-270.340	763.032	-0.043	-0.115
-269.326	83.468	-0.012	0.013
-268.311	-26.710	0.134	0.077
-267.297	11.225	0.197	0.149
-266.282	336.998	0.025	0.048
-265.267	-108.875	-0.291	0.061
-264.253	393.402	0.086	-0.177
-263.238	194.609	-0.241	-0.361
-262.224	-55.088	-0.222	-0.099
-261.209	617.895	-0.055	-0.136
-260.195	-200.000	0.017	-0.113
-259.180	-166.311	0.174	0.007
-258.165	-200.000	-0.010	-0.135
-257.151	800.000	0.104	-0.290
-256.136	-107.557	-0.259	-0.056
-255.122	406.214	0.147	-0.306
-254.107	-45.462	0.178	0.087
-253.092	-20.803	0.203	-0.123
-252.078	586.517	0.078	-0.189
-251.063	48.336	-0.196	-0.181
-250.049	275.262	0.063	0.111
-249.034	224.228	0.147	-0.234
-248.019	-85.785	-0.039	-0.012
-247.005	-45.665	0.051	-0.025
-245.990	66.431	-0.259	-0.260
-244.976	-200.000	-0.028	0.130
-243.961	263.610	-0.142	0.243
-242.946	94.121	0.211	0.236
-241.932	108.317	0.048	0.057
-240.917	-107.840	-0.208	-0.045
-239.903	800.000	0.064	-0.262
-238.888	16.419	-0.074	-0.058
-237.873	800.000	-0.055	0.156
-236.859	160.550	0.315	0.433
-235.844	-158.897	-0.156	0.009
-234.830	-72.008	0.472	-0.173
-233.815	-104.388	0.060	0.014
-232.800	-89.311	0.140	-0.041
-231.786	-200.000	-0.001	-0.028
-230.771	79.812	-0.197	0.209
-229.757	-200.000	-0.001	0.330
-228.742	-116.233	0.205	-0.037
-227.727	-54.231	0.305	-0.137
-226.713	800.000	0.026	-0.086
-225.698	530.120	0.111	0.258
-224.684	-2.289	-0.152	0.105
-223.669	-45.708	-0.069	-0.034
-222.655	800.000	0.090	-0.274
-221.640	-121.676	0.201	-0.033
-220.625	224.969	0.020	0.031
-219.611	-80.251	-0.248	-0.082
-218.596	-200.000	-0.046	-0.227
-217.582	9.646	0.261	-0.195
-216.567	-4.669	0.178	-0.121
-215.552	428.204	0.174	-0.371
-214.538	-200.000	-0.016	-0.124
-213.523	-39.825	0.200	0.103
-212.509	-27.031	0.297	-0.171
-211.494	-200.000	-0.085	-0.376
-210.479	-200.000	0.005	0.194
-209.465	405.053	-0.072	0.149
-208.450	-88.183	-0.298	-0.088
-207.436	-141.156	-0.208	0.021
-206.421	-200.000	0.001	-0.141
-205.406	-111.854	-0.043	-0.009
-204.392	184.407	-0.125	0.182
-203.377	-200.000	0.050	0.256
-202.363	411.876	0.069	-0.145
-201.348	398.832	0.135	-0.279
-200.333	469.541	0.131	-0.290
-199.319	-73.564	-0.242	0.087
-198.304	-200.000	0.010	0.086
-197.290	292.820	-0.051	0.091
-196.275	93.245	0.111	-0.124
-195.260	800.000	0.071	0.262
-194.246	-200.000	0.016	0.158
-193.231	-87.857	0.080	0.024
-192.217	41.911	-0.064	0.057
-191.202	-38.978	0.188	-0.097
-190.187	-42.774	-0.122	0.061
-189.173	-56.497	-0.194	-0.085
-188.158	-25.976	0.198	-0.115
-187.144	55.288	-0.242	-0.230
-186.129	40.579	0.017	0.015
-185.114	9.907	0.068	-0.051
-184.100	12.885	0.099	0.075
-183.085	67.058	-0.241	-0.242
-182.071	-120.530	0.038	-0.006
-181.056	800.000	-0.046	0.181
-180.042	34.931	-0.228	0.197
-179.027	-98.788	-0.256	-0.064
-178.012	92.193	-0.098	-0.108
-176.998	-200.000	0.006	0.065
-175.983	45.413	-0.202	0.183
-174.969	-200.000	0.029	-0.141
-173.954	-167.891	0.268	0.010
-172.939	250.622	-0.040	0.067
-171.925	343.225	0.124	0.239
-170.910	356.456	-0.066	0.129
-169.896	-106.493	0.309	0.068
-168.881	62.603	-0.043	0.042
-167.866	-141.649	0.223	0.022
-166.852	-73.424	0.264	0.095
-165.837	-180.806	0.172	-0.003
-164.823	-44.075	-0.183	-0.090
-163.808	-200.000	0.004	0.034
-162.793	-97.244	0.400	0.103
-161.779	-45.354	0.136	0.066
-160.764	-9.093	0.123	0.081
-159.750	335.384	0.057	-0.109
-158.735	-39.747	-0.475	0.244
-157.720	-200.000	0.088	0.421
-156.706	68.141	0.289	0.291
-155.691	60.298	-0.147	0.143
-154.677	18.086	0.134	-0.105
-153.662	-37.835	0.193	0.101
-152.647	95.887	-0.045	0.050
-151.633	-200.000	0.046	-0.365
-150.618	126.648	-0.126	0.158
-149.604	206.789	0.092	-0.141
-148.589	-89.846	0.198	0.057
-147.574	-6.775	0.200	0.133
-146.560	-144.724	0.364	-0.033
-145.545	110.795	0.218	0.257
-144.531	-200.000	0.014	-0.253
-143.516	-22.138	-0.091	0.054
-142.502	300.977	0.073	0.132
-141.487	800.000	-0.057	0.156
-140.472	31.829	0.133	-0.112
-139.458	-71.064	0.331	-0.122
-138.443	-200.000	0.065	-0.288
-137.429	48.724	-0.171	-0.158
-136.414	-105.290	0.471	-0.105
-135.399	-79.883	-0.269	0.089
-134.385	13.317	-0.329	0.250
-133.370	145.911	-0.106	0.139
-132.356	800.000	0.076	0.308
-131.341	-138.528	-0.141	0.015
-130.326	176.232	0.113	0.161
-129.312	-200.000	-0.013	0.137
-128.297	-25.768	0.279	-0.162
-127.283	-200.000	-0.018	0.295
-126.268	-9.683	0.117	-0.076
-125.253	130.872	0.182	-0.230
-124.239	-57.723	-0.091	0.039
-123.224	800.000	0.087	0.335
-122.210	-200.000	0.054	0.363
-121.195	411.219	-0.218	0.454
-120.180	-79.349	0.223	0.074
-119.166	-200.000	0.011	0.223
-118.151	-76.524	-0.287	-0.099
-117.137	-200.000	0.005	-0.236
-116.122	-110.447	-0.060	-0.012
-115.107	503.160	0.010	0.023
-114.093	-200.000	-0.064	0.314
-113.078	304.528	0.063	0.115
-112.064	-86.765	-0.438	-0.132
-111.049	29.869	0.205	-0.172
-110.034	-122.733	-0.363	-0.058
-109.020	666.288	0.108	0.273
-108.005	159.072	-0.029	0.039
-106.991	265.712	-0.062	-0.107
-105.976	16.775	-0.086	0.066
-104.962	-141.481	0.172	0.017
-103.947	133.330	0.190	0.241
-102.932	-200.000	-0.014	-0.166
-101.918	-148.942	-0.109	0.009
-100.903	800.000	0.037	0.157
-99.889	131.770	0.112	0.141
-98.874	516.876	-0.018	-0.041
-97.859	-200.000	0.029	-0.139
-96.845	-180.349	0.252	0.005
-95.830	54.919	-0.312	-0.295
-94.816	-200.000	0.069	-0.331
-93.801	-200.000	0.063	0.430
-92.786	63.062	0.117	0.115
-91.772	-137.739	-0.264	-0.029
-90.757	540.444	-0.058	0.135
-89.743	-23.778	0.105	-0.062
-88.728	-19.300	-0.284	0.173
-87.713	-30.883	0.203	0.112
-86.699	-200.000	0.014	0.120
-85.684	-137.122	-0.131	0.015
-84.670	-33.687	0.152	0.082
-83.655	2.303	0.151	0.107
-82.640	-200.000	-0.015	0.400
-81.626	594.052	0.025	0.059
-80.611	-200.000	0.042	0.297
-79.597	800.000	-0.060	-0.181
-78.582	-200.000	0.023	-0.106
-77.567	508.787	-0.101	0.231
-76.553	112.277	0.068	-0.081
-75.538	-200.000	0.128	0.000
-74.524	-106.063	-0.252	-0.056
-73.509	-2.348	0.179	0.123
-72.494	-37.109	0.119	-0.062
-71.480	-144.880	0.390	0.035
-70.465	-42.889	0.276	-0.138
-69.451	-67.961	-0.207	0.079
-68.436	800.000	-0.081	-0.285
-67.422	14.664	0.067	0.051
-66.407	-200.000	-0.050	0.342
-65.392	339.093	0.109	0.209
-64.378	-39.780	0.097	-0.049
-63.363	-16.864	-0.135	-0.084
-62.349	105.310	0.067	-0.077
-61.334	22.849	-1.012	-0.813
-60.319	40.282	0.640	0.564
-59.305	-200.000	-0.029	-0.918
-58.290	218.552	0.799	1.250
-57.276	478.218	0.707	1.568
-56.261	-200.000	106.049	613.699
-55.246	505.808	1509.101	3426.004
-54.232	176.082	2702.823	3844.229
-53.217	111.549	2165.768	2559.251
-52.203	41.461	1599.934	1418.366
-51.188	32.958	1334.178	1132.027
-50.173	29.845	1293.014	1078.936
-49.159	54.648	1346.706	1271.934
-48.144	54.669	1362.762	1287.170
-47.130	33.021	1317.406	1117.989
-46.115	29.635	1299.807	1083.201
-45.100	29.398	1294.606	1077.438
-44.086	29.303	1292.330	1074.948
-43.071	29.315	1289.485	1072.604
-42.057	29.238	1287.742	1070.668
-41.042	29.414	1285.722	1069.967
-40.027	29.376	1284.198	1068.436
-39.013	29.322	1282.523	1066.688
-37.998	29.347	1280.936	1065.470
-36.984	29.357	1279.098	1063.955
-35.969	29.507	1276.738	1062.816
-34.954	29.435	1275.079	1060.980
-33.940	29.474	1274.178	1060.411
-32.925	29.479	1272.667	1059.141
-31.911	29.462	1271.611	1058.122
-30.896	29.523	1270.109	1057.178
-29.881	29.461	1268.330	1055.299
-28.867	29.425	1267.276	1054.178
-27.852	29.490	1265.142	1052.732
-26.838	29.548	1264.176	1052.214
-25.823	29.447	1263.357	1050.915
-24.809	29.401	1262.050	1049.524
-23.794	29.367	1260.734	1048.196
-22.779	29.552	1258.770	1047.570
-21.765	29.486	1257.708	1046.270
-20.750	29.557	1256.334	1045.492
-19.736	29.389	1254.958	1043.351
-18.721	29.393	1254.343	1042.825
-17.706	29.366	1253.272	1041.738
-16.692	29.429	1251.986	1040.984
-15.677	29.360	1250.554	1039.363
-14.663	29.394	1249.462	1038.607
-13.648	29.524	1248.310	1038.338
-12.633	29.381	1247.734	1037.015
-11.619	29.319	1246.891	1035.922
-10.604	29.338	1245.715	1035.015
-9.590	29.351	1245.068	1034.507
-8.575	29.225	1244.142	1032.990
-7.560	29.224	1243.389	1032.315
-6.546	29.419	1242.195	1032.377
-5.531	29.287	1241.721	1031.202
-4.517	29.334	1240.459	1030.378
-3.502	29.351	1239.606	1029.721
-2.487	29.336	1238.920	1029.029
-1.473	29.356	1234.542	1025.463
-0.458	27.938	1219.889	1005.451
0.556	22.346	1202.827	969.932
1.571	18.667	1208.791	954.240
2.586	17.939	1223.964	962.027
3.600	17.860	1212.748	952.690
4.615	13.551	1142.154	874.452
5.629	4.571	1068.464	773.444
6.644	0.102	1048.028	736.737
7.659	-0.286	1045.718	733.150
8.673	-0.353	1044.375	731.818
9.688	-0.412	1042.414	730.092
10.702	0.138	1041.089	731.773
11.717	6.042	1049.946	766.821
12.731	15.067	1062.210	820.101
13.746	19.599	1068.317	847.021
14.761	20.735	1069.621	853.556
15.775	20.811	1068.840	853.228
16.790	20.503	1068.250	851.173
17.804	20.518	1067.311	850.427
18.819	20.579	1067.364	850.688
19.834	20.733	1066.256	850.485
20.848	20.668	1066.549	850.324
21.863	20.620	1065.871	849.473
22.877	20.511	1065.560	848.621
23.892	20.554	1064.486	847.897
24.907	20.660	1063.540	847.586
25.921	20.647	1062.282	846.444
26.936	20.692	1061.025	845.589
27.950	20.611	1059.288	843.736
28.965	20.493	1057.522	841.685
29.980	20.558	1056.027	840.734
30.994	20.753	1054.755	840.586
32.009	20.736	1053.793	839.667
33.023	20.542	1052.258	837.435
34.038	20.515	1052.122	837.121
35.053	20.701	1051.014	837.061
36.067	20.765	1050.498	836.883
37.082	20.592	1049.706	835.348
38.096	20.936	1048.768	836.175
39.111	21.111	1047.836	836.197
40.126	20.896	1046.186	833.777
41.140	20.468	1044.794	830.552
42.155	20.325	1042.947	828.329
43.169	20.410	1042.702	828.466
44.184	20.366	1041.998	827.624
45.199	20.255	1040.809	826.075
46.213	20.502	1039.280	825.961
47.228	20.477	1039.522	825.962
48.242	20.500	1038.435	825.137
49.257	20.612	1037.265	824.664
50.271	20.744	1036.644	824.725
51.286	20.806	1035.380	823.938
52.301	20.792	1034.903	823.419
53.315	20.724	1033.475	821.891
54.330	20.702	1032.627	821.037
55.344	20.608	1032.281	820.249
56.359	20.527	1031.350	819.055
57.374	20.448	1030.337	817.806
58.388	20.535	1029.232	817.263
59.403	20.515	1028.178	816.261
60.417	20.282	1027.335	814.426
61.432	20.458	1026.749	814.713
62.447	20.507	1026.179	814.418
63.461	20.544	1025.513	813.994
64.476	20.492	1024.128	812.577
65.490	20.443	1023.430	811.724
66.505	20.385	1022.874	810.941
67.520	20.376	1022.538	810.561
68.534	20.224	1021.319	808.815
69.549	19.874	1020.205	806.229
70.563	19.968	1019.088	805.713
71.578	20.093	1018.149	805.480
72.593	19.881	1017.099	803.594
73.607	19.973	1017.179	804.010
74.622	20.164	1016.791	804.521
75.636	20.380	1015.639	804.541
76.651	20.226	1014.630	802.958
77.666	20.245	1013.517	802.090
78.680	20.184	1013.449	801.686
79.695	20.323	1012.939	801.854
80.709	20.321	1012.144	801.144
81.724	20.292	1011.006	800.040
82.739	20.440	1010.486	800.236
83.753	20.617	1009.874	800.499
84.768	21.039	1009.046	801.709
85.782	21.064	1008.291	801.156
86.797	20.926	1007.135	799.534
87.812	20.722	1006.317	797.876
88.826	20.831	1005.477	797.637
89.841	20.858	1004.515	796.928
90.855	20.803	1003.928	796.142
91.870	20.830	1002.606	795.147
92.884	20.719	1001.266	793.508
93.899	20.734	1000.226	792.681
94.914	20.830	999.800	792.712
95.928	20.702	998.283	790.857
96.943	20.496	996.927	788.775
97.957	20.348	995.833	787.170
98.972	20.192	994.657	785.462
99.987	20.510	993.872	786.213
101.001	20.596	993.630	786.340
102.016	20.765	992.267	785.957
103.030	20.604	991.555	784.598
104.045	20.505	990.507	783.250
105.060	20.294	989.793	781.668
106.074	20.514	989.234	782.148
107.089	20.791	988.882	783.045
108.103	20.611	988.101	781.548
109.118	20.455	986.344	779.390
110.133	20.559	985.230	778.907
111.147	20.265	983.727	776.333
112.162	20.161	982.969	775.203
113.176	20.439	982.024	775.631
114.191	20.247	981.631	774.396
115.206	20.069	980.222	772.422
116.220	19.997	979.193	771.219
117.235	20.134	978.419	771.152
118.249	20.011	977.809	770.055
119.264	20.016	977.067	769.425
120.279	20.110	976.369	769.225
121.293	20.226	975.470	768.966
122.308	20.190	974.667	768.105
123.322	20.293	973.091	767.248
124.337	20.017	972.279	765.323
125.352	19.675	970.155	762.075
126.366	19.461	969.700	760.706
127.381	20.329	969.327	764.171
128.395	20.644	969.173	765.366
129.410	20.749	967.791	764.668
130.424	20.554	966.802	762.965
131.439	20.536	966.102	762.266
132.454	20.607	965.126	761.739
133.468	20.688	964.022	761.155
134.483	20.633	963.499	760.432
135.497	20.772	962.708	760.350
136.512	20.978	961.513	760.234
137.527	20.887	960.927	759.309
138.541	20.842	959.956	758.279
139.556	20.842	959.327	757.716
140.570	20.826	958.440	756.877
141.585	20.873	957.739	756.460
142.600	20.888	956.244	755.277
143.614	21.003	956.037	755.546
144.629	21.167	955.058	755.418
145.643	21.017	953.671	753.603
146.658	20.731	952.498	751.375
147.673	20.839	951.438	750.938
148.687	20.772	950.478	749.826
149.702	20.650	949.245	748.261
150.716	20.650	948.646	747.722
151.731	20.798	947.804	747.629
152.746	20.960	947.321	747.879
153.760	21.011	946.901	747.700
154.775	21.077	945.934	747.150
155.789	21.109	945.058	746.532
156.804	21.045	944.003	745.356
157.819	21.111	943.555	745.221
158.833	21.056	943.153	744.601
159.848	21.023	941.916	743.418
160.862	20.925	940.682	741.962
161.877	20.894	939.997	741.224
162.892	21.069	938.558	740.768
163.906	21.031	937.666	739.834
164.921	20.882	936.808	738.463
165.935	20.883	935.990	737.755
166.950	21.099	934.822	737.682
167.964	21.028	934.078	736.730
168.979	20.879	933.124	735.284
169.994	20.873	931.960	734.277
171.008	21.306	931.412	735.605
172.023	21.126	930.703	734.224
173.037	20.818	929.420	731.851
174.052	20.846	928.160	730.911
175.067	20.818	927.956	730.567
176.081	20.861	927.643	730.437
177.096	20.855	926.878	729.744
178.110	20.584	925.970	727.833
179.125	20.463	925.158	726.621
180.140	20.476	924.603	726.177
181.154	20.445	924.760	726.106
182.169	20.866	924.257	727.404
183.183	21.030	923.868	727.717
184.198	20.923	922.990	726.518
185.213	20.803	922.365	725.460
186.227	21.027	921.507	725.654
187.242	21.086	920.476	725.022
188.256	21.038	920.143	724.497
189.271	21.093	919.475	724.136
190.286	20.891	918.008	722.080
191.300	20.246	916.914	718.484
192.315	19.499	915.253	714.032
193.329	19.398	915.108	713.435
194.344	20.483	915.236	717.960
195.359	20.934	915.210	719.739
196.373	20.933	914.787	719.337
197.388	20.921	913.622	718.306
198.402	20.735	913.576	717.443
199.417	20.972	912.468	717.483
200.432	20.620	911.600	715.290
201.446	20.403	911.182	714.004
202.461	20.330	910.437	713.059
203.475	19.567	908.891	708.654
204.490	19.028	906.721	704.692
205.504	19.789	907.792	708.584
206.519	20.333	908.080	710.974
207.534	20.553	907.039	710.997
208.548	21.163	906.573	713.059
209.563	20.830	905.606	710.880
210.577	20.698	905.706	710.353
211.592	21.011	905.300	711.251
212.607	21.035	904.032	710.289
213.621	21.106	903.679	710.239
214.636	21.098	902.959	709.579
215.650	21.016	902.165	708.558
216.665	21.192	901.528	708.709
217.680	21.029	900.551	707.215
218.694	20.636	899.428	704.681
219.709	20.396	899.069	703.365
220.723	20.735	898.335	704.100
221.738	21.022	897.445	704.500
222.753	20.821	897.331	703.537
223.767	21.010	896.802	703.823
224.782	21.184	896.543	704.259
225.796	21.240	895.726	703.778
226.811	20.600	894.035	699.813
227.826	19.922	893.031	696.239
228.840	20.111	892.853	696.801
229.855	20.218	891.883	696.410
230.869	19.803	891.350	694.268
231.884	20.334	891.077	696.124
232.899	20.934	891.468	698.771
233.913	20.826	890.517	697.536
234.928	20.954	889.697	697.342
235.942	20.684	889.556	696.089
236.957	20.413	888.482	694.105
237.972	20.579	887.471	693.914
238.986	20.649	887.136	693.874
240.001	20.762	886.304	693.609
241.015	20.743	886.251	693.432
242.030	20.878	885.495	693.316
243.045	20.983	885.028	693.308
244.059	20.929	884.990	693.001
245.074	20.752	883.751	691.265
246.088	20.533	882.417	689.295
247.103	20.847	882.316	690.399
248.117	21.445	882.354	692.737
249.132	21.623	881.555	692.751
250.147	21.587	880.736	691.905
251.161	21.878	880.520	692.823
252.176	21.618	880.183	691.471
253.190	21.837	879.263	691.551
254.205	21.914	879.103	691.669
255.220	21.901	878.301	690.924
256.234	21.707	877.595	689.544
257.249	21.638	876.834	688.615
258.263	21.756	875.820	688.220
259.278	21.801	875.138	687.798
260.293	21.797	874.706	687.384
261.307	21.753	874.189	686.744
262.322	21.467	873.072	684.687
263.336	20.651	871.256	680.012
264.351	19.621	869.337	674.437
265.366	19.787	869.257	674.960
266.380	20.898	869.875	679.720
267.395	21.432	869.362	681.338
268.409	21.323	869.046	680.604
269.424	21.721	868.330	681.533
270.439	21.600	867.713	680.517
271.453	21.554	867.153	679.840
272.468	21.744	866.815	680.253
273.482	21.903	866.383	680.470
274.497	21.360	865.439	677.566
275.512	20.969	864.402	675.178
276.526	21.465	864.410	677.044
277.541	21.724	863.980	677.651
278.555	21.401	863.177	675.713
279.570	21.222	862.149	674.158
280.585	21.383	861.823	674.462
281.599	21.524	860.251	673.716
282.614	20.729	859.322	669.871
283.628	20.799	859.175	669.965
284.643	21.299	858.562	671.349
285.657	20.837	857.375	668.592
286.672	20.533	856.698	666.838
287.687	21.187	856.577	669.191
288.701	21.215	855.951	668.753
289.716	21.107	855.006	667.541
290.730	20.957	854.281	666.340
291.745	20.571	853.321	664.060
292.760	21.048	853.496	665.959
293.774	21.766	853.638	668.749
294.789	22.084	853.691	669.944
295.803	22.194	852.860	669.654
296.818	22.204	852.373	669.250
297.833	21.730	851.111	666.398
298.847	21.538	850.400	665.055
299.862	21.863	850.313	666.162
300.876	21.917	850.640	666.564
301.891	21.975	849.218	665.610
302.906	21.426	848.383	662.816
303.920	21.781	847.655	663.533
304.935	22.001	847.709	664.347
305.949	21.952	846.964	663.521
306.964	21.946	845.633	662.397
307.979	21.804	845.658	661.822
308.993	22.087	845.604	662.789
310.008	22.205	844.610	662.395
311.022	21.928	844.113	660.907
312.037	21.884	843.730	660.382
313.052	21.684	842.538	658.637
314.066	20.748	841.038	653.892
315.081	20.340	840.785	652.105
316.095	21.343	840.754	655.791
317.110	21.707	840.858	657.179
318.125	20.928	839.311	652.991
319.139	20.121	837.648	648.623
320.154	20.005	837.217	647.797
321.168	21.039	837.467	651.802
322.183	21.455	837.783	653.543
323.197	21.674	837.426	654.025
324.212	21.822	837.001	654.187
325.227	21.963	836.055	653.915
326.241	21.805	835.386	652.746
327.256	21.690	835.175	652.097
328.270	21.702	834.405	651.482
329.285	21.334	833.395	649.269
330.300	21.243	832.887	648.478
331.314	21.548	832.394	649.169
332.329	22.015	832.170	650.666
333.343	21.917	832.309	650.354
334.358	21.953	831.488	649.790
335.373	22.065	831.035	649.792
336.387	22.208	831.344	650.505
337.402	22.448	830.857	650.951
338.416	22.313	830.130	649.827
339.431	22.427	830.012	650.097
340.446	22.544	830.270	650.676
341.460	22.572	828.692	649.485
342.475	22.222	828.642	648.098
343.489	22.383	828.495	648.518
344.504	22.602	828.103	648.960
345.519	22.740	827.731	649.119
346.533	22.721	827.238	648.606
347.548	22.729	826.442	647.955
348.562	22.771	825.954	647.667
349.577	22.567	825.729	646.685
350.592	22.739	824.766	646.505
351.606	22.765	824.088	646.009
352.621	22.516	823.561	644.630
353.635	22.483	822.774	643.834
354.650	21.926	820.894	640.275
355.665	20.878	819.889	635.614
356.679	21.321	819.465	636.842
357.694	21.761	818.909	637.959
358.708	21.784	818.335	637.537
359.723	22.089	818.458	638.687
360.738	22.337	818.395	639.483
361.752	22.543	817.353	639.359
362.767	22.714	817.178	639.786
363.781	22.937	817.075	640.456
364.796	23.105	816.505	640.563
365.810	23.093	816.345	640.335
366.825	22.949	815.879	639.394
367.840	22.732	814.824	637.723
368.854	22.383	814.219	635.933
369.869	22.426	814.137	635.970
370.883	22.463	813.025	635.178
371.898	22.388	812.773	634.654
372.913	22.473	812.562	634.740
373.927	22.687	811.698	634.779
374.942	22.676	811.739	634.716
375.956	22.722	811.161	634.374
376.971	22.871	811.132	634.829
377.986	23.116	810.206	634.928
379.000	22.959	809.981	634.132
380.015	22.903	809.151	633.226
381.029	22.815	808.831	632.605
382.044	23.076	808.319	633.080
383.059	23.010	807.887	632.450
384.073	23.121	807.113	632.185
385.088	22.928	806.770	631.171
386.102	22.834	806.020	630.194
387.117	22.724	805.383	629.247
388.132	22.448	804.146	627.241
389.146	21.985	803.049	624.686
390.161	22.444	802.891	626.138
391.175	22.633	802.992	626.833
392.190	22.536	801.801	625.506
393.205	21.082	799.996	618.887
394.219	19.737	798.245	612.716
395.234	19.685	798.177	612.423
396.248	21.336	799.635	619.344
397.263	22.666	800.437	624.626
398.278	22.674	799.818	624.114
399.292	22.458	799.043	622.692
400.307	22.344	798.569	621.863
401.321	22.462	798.127	621.883
402.336	22.845	798.169	623.211
403.350	23.253	798.336	624.727
404.365	23.502	798.256	625.487
405.380	23.741	797.745	625.872
406.394	23.782	796.722	625.158
407.409	23.757	795.869	624.345
408.423	23.608	795.991	623.863
409.438	23.862	795.634	624.422
410.453	23.807	795.240	623.862
411.467	23.680	794.632	622.884
412.482	23.730	794.022	622.527
413.496	23.774	794.078	622.670
414.511	23.684	793.940	622.190
415.526	23.933	792.937	622.223
416.540	23.565	792.209	620.308
417.555	23.397	791.997	619.501
418.569	23.322	791.572	618.851
419.584	23.258	791.212	618.294
420.599	23.376	790.106	617.785
421.613	157.454	1365.796	1798.018
422.628	136.324	1449.678	1798.108
