DTS Sentinel unit serial number:	SN413079Multiplexer serial number:	ORYXHardware model number:	OX4-SRSoftware version number:	ORYX F/W v4.00 Oryx Data Collector v3.7.2.0data status	okinstallation	princeton_trtdifferential loss correction	single-endedforward channel	channel 1reverse channel	N/Adate	2019/09/11time	21:40:11forward acquisition time	60.00reverse acquisition time	0.00gamma	496.2192k internal	0.2311k external	0.2311temperature offset calibration	1.0047default loss term (dB/km)	0.3790temperature slope calibration	1.0000multiplexer offset coefficient	1.0000multiplexer slope coefficient	1.0000fibre end	0.00T internal ref (°C)	35.84T ext. ref 1 (°C)	1.62T ext. ref 2 (°C)	30.39length (m)	temperature (°C)	Stokes	anti-Stokes-747.200	-33.218	0.126	-0.071
-746.185	-178.528	0.273	-0.006
-745.171	-12.432	0.188	-0.125
-744.156	-200.000	-0.012	0.079
-743.142	800.000	-0.094	0.408
-742.127	46.772	0.152	0.143
-741.112	-200.000	-0.006	-0.210
-740.098	71.384	-0.141	0.148
-739.083	25.218	-0.457	0.385
-738.069	609.405	0.118	0.299
-737.054	-7.019	0.213	-0.147
-736.039	57.425	-0.265	-0.262
-735.025	-138.117	0.116	-0.013
-734.010	-20.562	0.297	0.185
-732.996	-111.595	-0.268	0.055
-731.981	-200.000	0.003	0.352
-730.966	-200.000	0.007	0.228
-729.952	233.164	0.056	-0.093
-728.937	-167.089	-0.406	-0.017
-727.923	800.000	-0.060	0.198
-726.908	-43.382	-0.130	-0.067
-725.894	250.092	-0.066	0.114
-724.879	-200.000	-0.042	-0.205
-723.864	-200.000	0.122	-0.555
-722.850	-200.000	0.008	0.147
-721.835	-101.355	0.267	0.066
-720.821	268.366	-0.202	-0.358
-719.806	-54.346	0.155	-0.071
-718.791	-200.000	-0.064	-0.309
-717.777	-200.000	0.054	0.261
-716.762	198.093	0.058	-0.090
-715.748	-200.000	-0.007	0.269
-714.733	800.000	0.044	-0.123
-713.718	-200.000	-0.021	0.161
-712.704	181.313	-0.040	-0.059
-711.689	86.311	-0.105	-0.118
-710.675	117.125	-0.183	-0.228
-709.660	-155.251	0.251	0.017
-708.645	6.821	-0.311	-0.235
-707.631	-78.233	-0.194	-0.068
-706.616	-127.714	-0.039	0.006
-705.602	800.000	-0.030	0.113
-704.587	-80.998	0.248	-0.083
-703.572	138.944	-0.102	-0.136
-702.558	-123.885	0.206	0.033
-701.543	-200.000	-0.014	-0.143
-700.529	-200.000	0.027	0.474
-699.514	800.000	-0.086	-0.262
-698.499	-153.908	0.650	0.045
-697.485	181.872	0.133	-0.199
-696.470	798.815	-0.056	-0.157
-695.456	-173.545	0.048	0.001
-694.441	666.830	0.040	-0.106
-693.426	152.758	-0.116	-0.161
-692.412	-180.034	-0.221	-0.005
-691.397	-116.931	0.171	0.032
-690.383	-86.833	-0.351	-0.109
-689.368	158.878	0.049	0.069
-688.354	138.781	0.158	0.211
-687.339	800.000	-0.205	0.589
-686.324	-101.142	-0.250	0.062
-685.310	-96.548	0.173	0.046
-684.295	386.019	0.060	-0.125
-683.281	84.200	-0.233	0.258
-682.266	-116.367	0.067	0.013
-681.251	75.936	-0.103	-0.110
-680.237	176.164	-0.133	-0.195
-679.222	-154.438	0.096	0.006
-678.208	631.881	-0.014	-0.035
-677.193	-90.847	0.339	0.099
-676.178	-112.951	0.433	-0.087
-675.164	34.969	0.093	0.082
-674.149	-131.517	-0.091	0.012
-673.135	229.687	-0.212	-0.350
-672.120	-200.000	-0.001	-0.118
-671.105	95.868	-0.050	0.058
-670.091	-27.887	-0.229	0.134
-669.076	-64.345	-0.385	0.159
-668.062	335.835	0.095	-0.187
-667.047	322.971	0.114	-0.221
-666.032	244.269	-0.094	0.159
-665.018	-106.020	-0.213	0.048
-664.003	53.918	-0.345	0.335
-662.989	-104.523	0.210	0.049
-661.974	-200.000	-0.040	0.236
-660.959	-77.375	0.360	0.126
-659.945	708.624	0.011	-0.029
-658.930	-200.000	-0.016	-0.344
-657.916	155.609	-0.173	-0.241
-656.901	119.110	0.138	-0.172
-655.886	774.331	-0.090	-0.249
-654.872	-62.645	0.329	-0.138
-653.857	800.000	-0.019	-0.077
-652.843	208.035	-0.106	-0.168
-651.828	191.190	0.070	0.106
-650.814	37.892	0.189	-0.170
-649.799	59.016	-0.163	-0.163
-648.784	800.000	-0.036	-0.131
-647.770	-200.000	0.004	-0.463
-646.755	-200.000	-0.007	-0.530
-645.741	-200.000	-0.006	0.100
-644.726	-200.000	-0.039	-0.217
-643.711	459.393	-0.014	-0.032
-642.697	-200.000	0.069	0.450
-641.682	136.347	-0.151	-0.199
-640.668	39.765	0.108	-0.098
-639.653	-169.772	-0.391	-0.014
-638.638	-200.000	0.016	-0.194
-637.624	-105.061	-0.251	0.058
-636.609	226.295	-0.104	0.171
-635.595	-53.261	0.141	-0.066
-634.580	15.311	-0.077	0.061
-633.565	239.486	0.147	-0.248
-632.551	-200.000	0.027	-0.231
-631.536	135.444	-0.085	0.112
-630.522	61.320	0.095	0.095
-629.507	18.317	-0.140	-0.113
-628.492	-26.292	-0.245	-0.146
-627.478	662.544	0.095	-0.247
-626.463	116.241	0.163	0.202
-625.449	-176.118	0.379	0.010
-624.434	-200.000	0.005	-0.248
-623.419	89.851	0.275	-0.310
-622.405	-200.000	-0.021	-0.094
-621.390	-48.973	0.282	-0.137
-620.376	12.170	0.058	-0.045
-619.361	-61.470	-0.169	0.072
-618.346	9.233	0.036	-0.027
-617.332	65.531	0.110	-0.113
-616.317	-106.387	-0.258	-0.058
-615.303	800.000	-0.034	0.104
-614.288	-200.000	0.056	0.368
-613.273	537.299	-0.084	0.202
-612.259	-200.000	0.019	0.102
-611.244	480.873	0.071	0.164
-610.230	41.632	-0.170	-0.156
-609.215	-71.399	-0.201	-0.076
-608.201	-62.913	-0.232	-0.097
-607.186	-200.000	0.025	-0.235
-606.171	658.737	-0.148	0.384
-605.157	-156.555	-0.078	0.005
-604.142	-200.000	0.025	0.203
-603.128	-200.000	0.191	-0.001
-602.113	-200.000	-0.027	-0.144
-601.098	101.799	-0.117	-0.138
-600.084	19.209	0.108	-0.088
-599.069	-51.869	0.069	-0.032
-598.055	-110.218	-0.337	-0.071
-597.040	-135.656	-0.150	0.018
-596.025	-28.094	-0.203	-0.119
-595.011	-107.162	-0.293	0.065
-593.996	-200.000	0.058	0.380
-592.982	-69.580	-0.069	0.027
-591.967	298.741	-0.186	-0.346
-590.952	400.263	-0.126	-0.267
-589.938	-67.459	-0.240	0.095
-588.923	63.987	0.148	0.150
-587.909	320.608	0.195	0.373
-586.894	-72.629	-0.078	0.029
-585.879	296.829	0.146	0.271
-584.865	800.000	-0.102	-0.288
-583.850	800.000	-0.137	0.454
-582.836	51.645	0.176	0.169
-581.821	800.000	0.045	-0.185
-580.806	-75.605	-0.317	0.114
-579.792	318.863	-0.059	0.113
-578.777	-200.000	-0.005	-0.134
-577.763	-122.277	-0.076	-0.013
-576.748	-137.853	-0.153	-0.017
-575.733	800.000	0.063	0.214
-574.719	-200.000	-0.041	0.218
-573.704	54.046	0.283	-0.274
-572.690	-103.148	-0.293	-0.070
-571.675	-133.201	0.331	-0.042
-570.661	-34.859	0.123	-0.068
-569.646	119.606	-0.045	-0.056
-568.631	-75.041	0.174	-0.063
-567.617	-175.330	-0.446	-0.012
-566.602	272.104	-0.171	-0.303
-565.588	-200.000	-0.039	-0.284
-564.573	-84.536	0.253	-0.081
-563.558	800.000	0.055	-0.240
-562.544	736.835	0.038	0.102
-561.529	-200.000	-0.048	0.254
-560.515	157.934	-0.217	0.303
-559.500	-13.602	0.374	0.244
-558.485	800.000	-0.133	-0.374
-557.471	48.880	0.263	0.249
-556.456	-36.540	-0.385	0.209
-555.442	-95.495	0.217	-0.059
-554.427	-41.284	-0.250	-0.130
-553.412	800.000	0.101	-0.413
-552.398	800.000	0.015	0.064
-551.383	-200.000	0.016	0.117
-550.369	54.102	-0.104	0.101
-549.354	-96.776	-0.244	-0.065
-548.339	-5.992	0.210	-0.145
-547.325	124.485	0.226	-0.287
-546.310	-45.517	-0.185	-0.092
-545.296	515.814	0.138	-0.324
-544.281	-45.143	0.086	-0.043
-543.266	800.000	0.005	0.019
-542.252	-81.708	0.145	0.048
-541.237	-88.100	0.134	0.040
-540.223	242.331	-0.112	-0.189
-539.208	79.620	-0.325	-0.351
-538.193	-127.487	0.404	-0.059
-537.179	-200.000	-0.001	0.212
-536.164	194.345	-0.185	0.282
-535.150	114.847	-0.070	-0.086
-534.135	140.556	0.149	0.199
-533.121	36.142	0.099	0.087
-532.106	314.056	0.155	0.293
-531.091	-137.828	0.246	0.028
-530.077	-73.543	0.067	-0.025
-529.062	-72.816	0.272	-0.101
-528.048	168.947	-0.263	0.378
-527.033	777.189	-0.133	0.364
-526.018	-27.772	-0.163	0.095
-525.004	-87.364	0.043	0.013
-523.989	-82.530	0.203	-0.066
-522.975	-137.141	0.175	-0.020
-521.960	26.562	-0.150	-0.126
-520.945	155.045	0.047	-0.065
-519.931	800.000	0.028	-0.081
-518.916	67.192	0.113	0.116
-517.902	-148.970	-0.322	0.026
-516.887	-32.009	0.044	-0.025
-515.872	800.000	-0.021	-0.076
-514.858	144.039	-0.130	-0.174
-513.843	-200.000	0.015	0.170
-512.829	-191.907	0.215	-0.002
-511.814	-41.769	0.158	0.081
-510.799	-78.294	-0.121	0.042
-509.785	-171.515	0.156	-0.005
-508.770	-73.032	-0.146	-0.054
-507.756	-141.384	0.169	0.017
-506.741	-81.003	0.274	-0.091
-505.726	590.486	0.061	0.151
-504.712	800.000	0.016	0.055
-503.697	-200.000	0.014	0.297
-502.683	513.279	-0.115	0.270
-501.668	-41.020	0.169	0.088
-500.653	-71.027	0.267	0.101
-499.639	42.945	-0.240	0.220
-498.624	4.588	0.204	-0.151
-497.610	-72.799	-0.233	-0.086
-496.595	-74.241	-0.446	0.162
-495.581	800.000	-0.110	-0.375
-494.566	-158.809	0.149	0.009
-493.551	-200.000	0.034	0.372
-492.537	756.274	0.047	0.128
-491.522	17.410	0.177	-0.141
-490.508	25.674	0.163	-0.136
-489.493	33.795	0.283	0.248
-488.478	-200.000	0.016	-0.240
-487.464	86.476	0.170	-0.188
-486.449	-200.000	0.014	0.173
-485.435	-156.216	0.225	0.014
-484.420	-200.000	0.009	0.276
-483.405	800.000	0.022	-0.086
-482.391	165.300	-0.214	0.304
-481.376	-200.000	-0.002	0.111
-480.362	171.066	-0.160	0.230
-479.347	47.775	-0.301	0.282
-478.332	-200.000	-0.011	-0.075
-477.318	-140.089	0.291	-0.031
-476.303	-200.000	0.088	-0.509
-475.289	-65.271	-0.205	-0.083
-474.274	-200.000	0.077	-0.527
-473.259	-54.682	-0.072	-0.033
-472.245	241.893	-0.146	-0.246
-471.230	-41.722	-0.390	0.201
-470.216	37.253	-0.315	0.280
-469.201	-48.808	-0.227	-0.109
-468.186	554.222	-0.048	0.116
-467.172	800.000	0.059	-0.251
-466.157	-200.000	-0.026	-0.166
-465.143	800.000	-0.113	-0.336
-464.128	-132.631	-0.581	-0.075
-463.113	-16.880	-0.096	-0.061
-462.099	800.000	-0.060	-0.194
-461.084	-5.472	-0.252	0.174
-460.070	13.510	-0.124	0.096
-459.055	-69.334	0.329	0.127
-458.040	800.000	0.047	-0.178
-457.026	392.183	0.057	-0.120
-456.011	282.853	-0.181	0.327
-454.997	800.000	-0.060	-0.214
-453.982	-1.258	0.141	0.100
-452.968	-86.559	-0.124	0.038
-451.953	41.477	-0.094	-0.085
-450.938	22.751	-0.363	-0.299
-449.924	528.487	0.058	0.138
-448.909	150.653	-0.118	0.161
-447.895	-152.283	-0.072	-0.005
-446.880	-200.000	0.008	0.263
-445.865	36.230	-0.197	-0.174
-444.851	608.594	-0.059	0.149
-443.836	-200.000	0.026	0.195
-442.822	172.011	0.207	-0.298
-441.807	203.224	0.061	0.094
-440.792	75.709	0.299	0.317
-439.778	-62.557	0.047	0.019
-438.763	-104.531	-0.246	-0.057
-437.749	800.000	-0.026	0.108
-436.734	-81.558	0.192	-0.063
-435.719	-56.194	-0.176	-0.079
-434.705	-109.712	-0.169	-0.036
-433.690	-38.819	-0.236	0.125
-432.676	-44.297	-0.062	0.031
-431.661	690.633	0.079	0.207
-430.646	408.030	0.155	0.329
-429.632	116.880	-0.209	0.257
-428.617	-27.170	0.056	-0.033
-427.603	-58.651	0.203	-0.088
-426.588	219.828	0.202	-0.324
-425.573	59.913	-0.361	-0.357
-424.559	392.557	-0.097	0.203
-423.544	352.453	0.008	-0.015
-422.530	526.673	-0.189	-0.447
-421.515	800.000	0.041	0.152
-420.500	-101.086	0.244	-0.060
-419.486	53.965	0.251	-0.242
-418.471	-145.204	-0.355	-0.032
-417.457	301.770	-0.150	-0.278
-416.442	800.000	0.020	-0.061
-415.428	-108.508	0.169	0.036
-414.413	-136.726	0.081	0.009
-413.398	50.237	0.287	0.271
-412.384	21.959	-0.064	0.052
-411.369	800.000	0.060	-0.233
-410.355	342.780	-0.060	0.117
-409.340	613.070	0.102	0.255
-408.325	-200.000	-0.006	0.126
-407.311	-200.000	-0.038	-0.248
-406.296	-53.907	0.171	-0.078
-405.282	-200.000	-0.065	0.292
-404.267	-200.000	-0.026	-0.144
-403.252	-131.457	-0.171	0.023
-402.238	-200.000	-0.057	-0.287
-401.223	-158.409	0.081	0.005
-400.209	-3.817	0.276	0.192
-399.194	-200.000	0.007	-0.346
-398.179	133.149	-0.316	-0.409
-397.165	-200.000	0.017	0.098
-396.150	-99.461	-0.306	0.077
-395.136	604.001	0.152	-0.378
-394.121	-200.000	0.007	0.191
-393.106	-63.990	0.208	0.085
-392.092	-50.410	0.162	0.077
-391.077	-8.989	0.058	0.039
-390.063	-115.004	-0.123	-0.023
-389.048	800.000	0.078	0.306
-388.033	598.213	0.077	0.192
-387.019	22.189	0.132	0.108
-386.004	159.382	0.160	0.224
-384.990	86.108	-0.183	-0.202
-383.975	356.449	0.193	-0.384
-382.960	-200.000	0.014	-0.219
-381.946	-40.821	0.178	0.092
-380.931	70.109	-0.052	0.054
-379.917	0.446	-0.147	0.105
-378.902	728.764	-0.026	0.068
-377.888	26.778	-0.059	0.050
-376.873	29.762	-0.193	0.164
-375.858	-200.000	-0.057	0.321
-374.844	-9.801	0.116	-0.078
-373.829	0.262	-0.053	-0.038
-372.815	-200.000	0.069	-0.338
-371.800	-13.733	0.200	-0.130
-370.785	-136.525	0.169	0.020
-369.771	68.107	0.184	-0.188
-368.756	19.247	-0.045	0.036
-367.742	-54.840	0.222	-0.100
-366.727	97.863	-0.232	-0.267
-365.712	-162.814	0.088	0.004
-364.698	-109.851	-0.189	-0.040
-363.683	71.700	-0.099	0.103
-362.669	-33.769	-0.284	-0.156
-361.654	-121.858	0.476	0.078
-360.639	800.000	0.107	-0.375
-359.625	115.702	0.193	-0.236
-358.610	76.063	0.070	-0.074
-357.596	-123.589	0.355	0.056
-356.581	533.710	0.067	-0.160
-355.566	800.000	0.050	-0.188
-354.552	561.967	0.055	0.132
-353.537	800.000	-0.068	-0.288
-352.523	800.000	0.068	-0.269
-351.508	-76.670	-0.532	-0.187
-350.493	800.000	0.054	-0.173
-349.479	115.649	-0.127	0.155
-348.464	362.538	-0.094	-0.188
-347.450	-200.000	-0.014	0.104
-346.435	88.487	-0.215	0.238
-345.420	-200.000	0.017	0.460
-344.406	-92.313	0.318	-0.090
-343.391	-200.000	0.008	-0.208
-342.377	326.466	-0.083	0.160
-341.362	-200.000	0.028	0.328
-340.348	800.000	-0.093	0.340
-339.333	75.879	0.122	0.129
-338.318	0.896	0.199	-0.143
-337.304	478.804	0.135	0.304
-336.289	800.000	0.039	0.163
-335.275	-200.000	-0.004	0.293
-334.260	556.213	-0.085	0.204
-333.245	-83.151	0.270	0.087
-332.231	-200.000	-0.026	-0.152
-331.216	305.313	-0.220	0.409
-330.202	-61.714	-0.135	0.056
-329.187	-14.320	0.181	0.116
-328.172	165.291	-0.052	-0.074
-327.158	-41.900	-0.394	0.202
-326.143	96.278	-0.146	-0.167
-325.129	-111.167	0.400	0.082
-324.114	106.971	-0.156	0.185
-323.099	-200.000	0.113	-0.529
-322.085	318.274	-0.074	0.139
-321.070	-49.993	-0.217	-0.103
-320.056	192.745	0.163	-0.246
-319.041	-200.000	0.005	-0.318
-318.026	47.287	0.109	-0.102
-317.012	-66.242	0.170	-0.068
-315.997	-117.766	-0.107	-0.019
-314.983	-51.279	-0.195	0.091
-313.968	-89.577	-0.210	0.061
-312.953	-200.000	0.040	0.308
-311.939	-200.000	0.031	0.244
-310.924	-62.797	0.177	-0.073
-309.910	800.000	-0.092	0.307
-308.895	-1.923	-0.126	0.088
-307.880	800.000	0.112	0.431
-306.866	-31.748	-0.046	0.026
-305.851	154.068	-0.083	0.113
-304.837	-118.880	0.167	0.029
-303.822	-46.253	0.132	0.065
-302.807	-16.265	0.450	0.285
-301.793	2.715	-0.184	-0.133
-300.778	126.516	-0.068	-0.086
-299.764	-151.852	-0.194	0.014
-298.749	-200.000	-0.011	0.158
-297.735	150.737	0.408	-0.553
-296.720	-111.710	0.374	-0.076
-295.705	3.948	0.085	0.062
-294.691	200.664	0.162	-0.248
-293.676	-24.355	0.213	-0.126
-292.662	68.268	-0.063	0.065
-291.647	800.000	0.093	0.267
-290.632	-21.332	0.077	-0.047
-289.618	-157.619	-0.078	-0.005
-288.603	122.804	0.229	-0.286
-287.589	127.094	-0.192	0.242
-286.574	-72.700	0.069	0.025
-285.559	-2.687	0.175	0.122
-284.545	211.830	-0.180	-0.283
-283.530	144.827	0.185	-0.247
-282.516	-137.124	0.167	0.019
-281.501	800.000	0.043	0.133
-280.486	443.593	0.095	-0.207
-279.472	130.007	-0.114	0.145
-278.457	-118.155	-0.332	-0.059
-277.443	-131.393	0.520	0.069
-276.428	-29.030	-0.364	-0.208
-275.413	-92.483	0.367	0.103
-274.399	128.732	-0.068	0.086
-273.384	625.746	0.056	0.141
-272.370	-26.935	0.208	0.121
-271.355	414.803	0.079	0.167
-270.340	-23.027	0.200	-0.120
-269.326	139.205	0.166	-0.217
-268.311	800.000	-0.120	0.361
-267.297	82.997	0.049	0.053
-266.282	203.616	-0.100	-0.153
-265.267	482.559	0.140	0.317
-264.253	-132.603	-0.082	0.011
-263.238	288.252	-0.122	-0.219
-262.224	-64.473	-0.223	0.090
-261.209	720.795	-0.019	-0.052
-260.195	-181.329	-0.256	0.005
-259.180	-11.825	0.089	0.058
-258.165	-200.000	0.038	-0.243
-257.151	800.000	0.040	0.163
-256.136	-200.000	-0.018	0.091
-255.122	-200.000	0.007	-0.244
-254.107	55.341	0.071	0.068
-253.092	-200.000	0.025	0.129
-252.078	-200.000	0.036	0.160
-251.063	-47.067	-0.098	0.047
-250.049	97.503	-0.312	-0.357
-249.034	186.311	-0.112	-0.165
-248.019	69.656	-0.083	-0.085
-247.005	209.578	0.123	0.192
-245.990	800.000	0.018	0.069
-244.976	39.120	0.150	0.134
-243.961	-132.223	0.189	-0.024
-242.946	800.000	0.054	-0.207
-241.932	148.818	0.090	0.122
-240.917	162.261	0.195	0.272
-239.903	-200.000	0.038	0.196
-238.888	-88.323	-0.101	0.030
-237.873	408.825	0.053	0.112
-236.859	800.000	-0.103	-0.293
-235.844	6.278	-0.105	-0.077
-234.830	-45.826	0.099	0.049
-233.815	-71.238	0.077	0.029
-232.800	-109.579	-0.036	-0.008
-231.786	-72.041	0.230	-0.085
-230.771	63.835	0.178	0.178
-229.757	-35.519	-0.133	0.072
-228.742	5.773	-0.016	0.012
-227.727	10.684	-0.260	0.197
-226.713	-27.919	-0.107	-0.062
-225.698	-179.096	0.127	-0.003
-224.684	-200.000	0.016	0.238
-223.669	-200.000	0.036	0.281
-222.655	800.000	-0.060	-0.198
-221.640	-66.028	-0.109	-0.043
-220.625	-33.634	0.216	-0.119
-219.611	171.589	0.111	-0.158
-218.596	800.000	0.080	0.306
-217.582	-117.979	-0.037	-0.007
-216.567	-200.000	-0.010	0.074
-215.552	-200.000	0.021	-0.202
-214.538	204.589	-0.103	-0.159
-213.523	152.627	0.104	0.141
-212.509	45.330	-0.128	0.117
-211.494	800.000	-0.013	-0.038
-210.479	686.223	0.034	0.087
-209.465	152.438	0.178	0.241
-208.450	-97.547	-0.187	0.048
-207.436	109.406	-0.136	0.162
-206.421	144.046	0.148	0.196
-205.406	128.476	-0.176	-0.223
-204.392	-116.172	-0.315	-0.058
-203.377	-98.691	0.137	0.035
-202.363	-200.000	0.048	-0.211
-201.348	800.000	-0.035	-0.136
-200.333	94.773	0.293	0.331
-199.319	122.638	-0.149	0.186
-198.304	-64.130	-0.026	0.011
-197.290	-100.525	-0.047	-0.011
-196.275	0.382	-0.066	-0.047
-195.260	-42.253	0.064	0.032
-194.246	-144.924	-0.234	-0.021
-193.231	59.617	0.299	0.293
-192.217	589.195	-0.111	-0.271
-191.202	41.639	-0.320	0.288
-190.187	-45.216	-0.348	0.172
-189.173	-190.433	-0.081	0.001
-188.158	-21.772	-0.130	-0.079
-187.144	-55.221	0.364	-0.162
-186.129	-200.000	-0.014	0.073
-185.114	131.058	-0.097	0.123
-184.100	-172.697	0.299	0.009
-183.085	-200.000	-0.029	-0.395
-182.071	-3.057	-0.226	0.157
-181.056	83.117	-0.206	0.223
-180.042	5.727	0.122	-0.090
-179.027	-200.000	-0.007	-0.137
-178.012	251.476	-0.072	-0.122
-176.998	-125.139	0.132	-0.020
-175.983	293.227	-0.071	0.129
-174.969	443.494	0.088	-0.191
-173.954	3.516	-0.199	-0.144
-172.939	-144.019	0.213	0.020
-171.925	319.190	-0.046	0.086
-170.910	-200.000	0.003	-0.027
-169.896	-200.000	0.017	0.390
-168.881	154.699	0.171	-0.234
-167.866	399.584	-0.117	-0.244
-166.852	800.000	0.078	-0.251
-165.837	-200.000	-0.007	-0.184
-164.823	56.563	0.165	0.159
-163.808	-5.482	0.226	-0.154
-162.793	539.073	-0.071	0.169
-161.779	-123.601	-0.103	0.016
-160.764	-133.727	0.239	0.030
-159.750	800.000	-0.012	0.043
-158.735	201.781	-0.213	0.326
-157.720	800.000	0.036	0.106
-156.706	-106.259	-0.253	0.056
-155.691	277.802	0.132	-0.233
-154.677	-129.134	0.163	-0.023
-153.662	-14.542	0.149	0.095
-152.647	387.775	-0.071	-0.146
-151.633	-200.000	-0.080	-0.448
-150.618	800.000	0.052	0.199
-149.604	-49.025	0.263	0.125
-148.589	-200.000	-0.040	-0.212
-147.574	-45.010	-0.124	-0.061
-146.560	365.377	-0.091	0.181
-145.545	-144.234	0.195	0.018
-144.531	-200.000	-0.045	0.265
-143.516	36.435	0.024	0.021
-142.502	-106.853	-0.311	-0.068
-141.487	-28.927	0.125	-0.071
-140.472	292.676	-0.086	-0.155
-139.458	373.117	0.069	-0.139
-138.443	-159.700	-0.285	-0.016
-137.429	-200.000	-0.033	-0.245
-136.414	163.242	0.204	-0.284
-135.399	-44.232	0.187	0.093
-134.385	-57.905	-0.208	-0.090
-133.370	210.255	0.081	0.125
-132.356	-36.981	-0.186	0.099
-131.341	465.353	-0.027	-0.061
-130.326	-94.085	-0.245	0.067
-129.312	27.065	-0.180	-0.149
-128.297	-138.320	0.133	0.015
-127.283	5.192	-0.437	-0.319
-126.268	-68.056	-0.147	0.057
-125.253	-144.076	-0.192	-0.018
-124.239	800.000	-0.054	-0.182
-123.224	10.521	0.203	-0.153
-122.210	175.309	0.126	0.181
-121.195	302.250	-0.125	0.230
-120.180	-200.000	0.037	-0.318
-119.166	800.000	0.013	-0.052
-118.151	800.000	-0.085	-0.240
-117.137	-67.683	-0.098	0.038
-116.122	266.872	-0.067	0.115
-115.107	-200.000	0.010	0.059
-114.093	-200.000	0.038	-0.319
-113.078	-87.376	0.178	-0.053
-112.064	-200.000	0.030	0.224
-111.049	-24.288	0.241	-0.143
-110.034	35.411	-0.224	0.195
-109.020	-147.236	-0.263	-0.022
-108.005	-41.570	-0.323	-0.164
-106.991	28.993	0.116	-0.098
-105.976	310.178	0.123	0.228
-104.962	-157.351	-0.211	0.013
-103.947	-119.249	0.114	-0.020
-102.932	-200.000	-0.007	0.153
-101.918	-159.914	0.238	-0.013
-100.903	-164.619	0.205	0.009
-99.889	421.680	0.049	-0.103
-98.874	107.903	0.193	0.227
-97.859	43.195	-0.283	-0.255
-96.845	-200.000	0.032	-0.198
-95.830	-200.000	-0.018	0.246
-94.816	800.000	0.027	0.087
-93.801	-147.964	-0.009	0.001
-92.786	-200.000	0.091	-0.493
-91.772	-87.635	0.239	0.071
-90.757	5.119	0.105	0.076
-89.743	-41.852	-0.226	-0.115
-88.728	-126.821	-0.145	0.021
-87.713	38.766	0.209	-0.184
-86.699	143.662	0.154	-0.202
-85.684	115.847	-0.392	-0.475
-84.670	18.182	0.132	-0.104
-83.655	-123.904	0.207	0.032
-82.640	-200.000	0.001	0.186
-81.626	10.128	-0.201	-0.151
-80.611	224.023	-0.251	-0.402
-79.597	-112.223	0.076	-0.015
-78.582	23.026	-0.281	-0.228
-77.567	-121.080	0.235	0.039
-76.553	481.735	0.082	-0.185
-75.538	153.688	0.057	-0.077
-74.524	-163.524	-0.089	-0.004
-73.509	16.103	0.136	0.106
-72.494	776.489	0.125	0.339
-71.480	-29.361	0.345	-0.195
-70.465	168.646	0.043	0.061
-69.451	800.000	-0.063	0.219
-68.436	107.643	0.074	-0.087
-67.422	-62.995	-0.251	-0.103
-66.407	-200.000	0.005	-0.166
-65.392	800.000	0.092	0.375
-64.378	200.608	-0.107	0.163
-63.363	-1.145	0.131	0.092
-62.349	-74.582	-0.295	0.105
-61.334	7.819	-1.092	-0.809
-60.319	173.978	0.217	0.310
-59.305	-200.000	-0.180	-0.903
-58.290	563.717	0.461	1.103
-57.276	800.000	0.527	1.612
-56.261	-200.000	94.080	565.858
-55.246	557.294	1365.307	3252.299
-54.232	153.820	2573.237	3484.949
-53.217	117.481	2164.008	2630.297
-52.203	47.666	1624.752	1497.823
-51.188	39.447	1361.398	1204.977
-50.173	36.125	1319.005	1147.677
-49.159	57.918	1367.485	1322.345
-48.144	62.631	1385.821	1368.516
-47.130	39.794	1339.860	1187.816
-46.115	36.056	1322.443	1150.069
-45.100	35.776	1317.712	1144.243
-44.086	35.805	1315.109	1142.111
-43.071	35.737	1312.590	1139.475
-42.057	35.661	1310.627	1137.276
-41.042	35.650	1309.342	1136.052
-40.027	35.752	1307.669	1135.156
-39.013	35.720	1305.696	1133.211
-37.998	35.660	1303.684	1131.066
-36.984	35.857	1302.259	1130.945
-35.969	35.906	1300.132	1129.336
-34.954	35.846	1298.510	1127.532
-33.940	35.944	1296.866	1126.635
-32.925	36.029	1295.817	1126.174
-31.911	35.991	1294.411	1124.685
-30.896	35.997	1292.943	1123.402
-29.881	35.984	1291.834	1122.318
-28.867	36.155	1289.876	1121.565
-27.852	35.999	1288.611	1119.517
-26.838	36.096	1287.282	1118.881
-25.823	36.095	1285.806	1117.546
-24.809	35.862	1284.770	1115.251
-23.794	35.885	1283.192	1113.968
-22.779	35.944	1281.853	1113.106
-21.765	35.920	1280.711	1111.931
-20.750	35.831	1279.225	1110.081
-19.736	35.754	1278.306	1108.799
-18.721	35.700	1277.333	1107.597
-17.706	35.772	1275.696	1106.549
-16.692	35.778	1274.114	1105.170
-15.677	35.833	1273.188	1104.637
-14.663	35.829	1271.895	1103.450
-13.648	35.664	1271.397	1102.024
-12.633	35.735	1270.323	1101.457
-11.619	35.691	1269.806	1100.717
-10.604	35.786	1268.389	1099.983
-9.590	35.787	1267.118	1098.845
-8.575	35.740	1266.587	1098.076
-7.560	35.714	1265.874	1097.265
-6.546	35.693	1264.963	1096.311
-5.531	35.722	1263.925	1095.534
-4.517	35.740	1263.190	1094.954
-3.502	35.767	1262.032	1094.059
-2.487	35.681	1260.831	1092.488
-1.473	35.750	1256.710	1089.263
-0.458	34.383	1242.051	1068.854
0.556	30.645	1224.004	1029.379
1.571	26.965	1228.817	1012.844
2.586	25.931	1244.276	1019.652
3.600	25.112	1233.458	1006.105
4.615	18.267	1158.984	909.047
5.629	7.069	1079.140	790.673
6.644	1.955	1057.314	749.526
7.659	1.597	1054.300	745.571
8.673	1.445	1052.888	743.763
9.688	1.504	1051.510	743.009
10.702	1.906	1050.343	744.083
11.717	8.789	1060.407	784.965
12.731	18.981	1075.484	846.473
13.746	23.797	1080.588	874.166
14.761	24.447	1081.438	877.973
15.775	24.414	1080.907	877.302
16.790	24.212	1079.867	875.391
17.804	24.253	1079.065	874.863
18.819	24.356	1078.561	874.884
19.834	24.466	1078.462	875.264
20.848	24.422	1078.329	874.866
21.863	24.332	1077.871	873.976
22.877	24.399	1076.692	873.270
23.892	24.377	1076.068	872.577
24.907	24.360	1075.785	872.186
25.921	24.314	1074.666	870.978
26.936	24.338	1072.922	869.604
27.950	24.339	1071.505	868.385
28.965	24.162	1069.860	866.115
29.980	24.295	1067.962	865.145
30.994	24.352	1067.624	865.071
32.009	24.329	1066.252	863.775
33.023	24.260	1065.015	862.358
34.038	24.233	1064.585	861.807
35.053	24.420	1064.364	862.453
36.067	24.506	1062.731	861.471
37.082	24.652	1061.965	861.474
38.096	24.656	1061.404	860.965
39.111	24.798	1060.448	860.794
40.126	24.618	1059.075	858.739
41.140	24.309	1057.225	855.681
42.155	23.954	1056.069	852.968
43.169	24.066	1055.055	852.613
44.184	24.064	1054.638	852.189
45.199	23.958	1053.579	850.753
46.213	23.965	1052.964	850.213
47.228	24.090	1051.791	849.784
48.242	24.317	1050.349	849.625
49.257	24.387	1049.620	849.298
50.271	24.457	1049.383	849.362
51.286	24.434	1048.516	848.476
52.301	24.434	1047.580	847.644
53.315	24.312	1046.527	846.137
54.330	24.398	1045.388	845.550
55.344	24.442	1044.834	845.236
56.359	24.301	1043.792	843.650
57.374	24.141	1042.913	842.110
58.388	24.224	1042.223	841.868
59.403	24.096	1041.416	840.538
60.417	24.071	1040.173	839.346
61.432	24.061	1039.868	838.974
62.447	24.087	1039.449	838.688
63.461	24.166	1038.638	838.331
64.476	24.139	1037.312	837.058
65.490	24.089	1036.217	835.865
66.505	24.074	1035.574	835.203
67.520	24.106	1035.584	835.288
68.534	23.899	1033.690	832.717
69.549	23.656	1032.747	830.745
70.563	23.690	1031.652	829.950
71.578	23.683	1031.191	829.474
72.593	23.418	1030.522	827.623
73.607	23.627	1030.045	828.142
74.622	23.867	1029.590	828.826
75.636	23.876	1028.831	828.179
76.651	23.790	1028.084	827.109
77.666	23.805	1026.768	826.046
78.680	23.911	1026.196	826.003
79.695	23.906	1025.781	825.572
80.709	24.016	1025.169	825.516
81.724	23.928	1024.569	824.554
82.739	24.072	1023.112	823.976
83.753	24.396	1022.693	825.063
84.768	24.654	1021.758	825.426
85.782	24.742	1021.019	825.165
86.797	24.616	1020.607	824.176
87.812	24.450	1019.481	822.428
88.826	24.525	1018.736	822.101
89.841	24.725	1017.992	822.346
90.855	24.731	1016.824	821.360
91.870	24.644	1015.650	819.938
92.884	24.409	1014.869	818.158
93.899	24.361	1014.152	817.286
94.914	24.559	1013.064	817.247
95.928	24.441	1011.746	815.572
96.943	24.246	1010.562	813.654
97.957	24.024	1009.457	811.678
98.972	23.818	1008.492	809.894
99.987	24.069	1007.854	810.451
101.001	24.379	1007.469	811.480
102.016	24.356	1006.313	810.375
103.030	24.321	1005.277	809.308
104.045	24.121	1004.018	807.316
105.060	24.090	1003.138	806.397
106.074	24.191	1002.635	806.379
107.089	24.444	1002.056	806.986
108.103	24.172	1001.289	805.070
109.118	24.089	999.740	803.376
110.133	24.015	999.021	802.392
111.147	23.980	997.608	801.029
112.162	23.860	996.584	799.597
113.176	23.982	996.217	799.781
114.191	23.946	995.451	798.934
115.206	23.706	993.818	796.476
116.220	23.624	993.643	795.900
117.235	23.812	992.553	795.796
118.249	23.685	992.056	794.760
119.264	23.603	990.989	793.469
120.279	23.790	990.237	793.631
121.293	23.875	989.390	793.261
122.308	23.795	988.775	792.343
123.322	23.834	987.381	791.325
124.337	23.590	986.539	789.497
125.352	23.263	984.149	786.062
126.366	23.139	983.634	785.031
127.381	23.989	983.251	788.425
128.395	24.285	983.247	789.664
129.410	24.415	982.348	789.449
130.424	24.419	981.322	788.570
131.439	24.220	981.044	787.396
132.454	24.292	979.879	786.710
133.468	24.266	978.723	785.598
134.483	24.454	978.182	785.924
135.497	24.659	976.966	785.776
136.512	24.619	976.352	785.037
137.527	24.635	975.428	784.295
138.541	24.589	975.265	783.893
139.556	24.577	974.315	783.008
140.570	24.722	973.067	782.570
141.585	24.594	972.386	781.393
142.600	24.597	971.078	780.289
143.614	24.817	970.577	780.776
144.629	24.936	969.831	780.624
145.643	24.779	968.162	778.528
146.658	24.533	967.611	776.948
147.673	24.429	966.016	775.148
148.687	24.329	965.407	774.156
149.702	24.275	964.513	773.136
150.716	24.302	963.162	772.103
151.731	24.390	962.791	772.118
152.746	24.463	962.746	772.328
153.760	24.770	961.726	772.767
154.775	24.847	960.817	772.302
155.789	24.804	959.794	771.227
156.804	24.644	959.027	769.852
157.819	24.600	958.489	769.163
158.833	24.813	957.740	769.410
159.848	24.800	956.798	768.527
160.862	24.654	955.399	766.712
161.877	24.841	954.069	766.379
162.892	24.729	953.482	765.359
163.906	24.719	952.324	764.318
164.921	24.518	951.571	762.786
165.935	24.759	950.638	763.000
166.950	24.775	949.610	762.174
167.964	24.685	949.137	761.347
168.979	24.487	947.880	759.429
169.994	24.591	946.863	758.988
171.008	24.778	946.497	759.422
172.023	24.673	945.879	758.413
173.037	24.607	944.421	756.895
174.052	24.383	943.300	754.985
175.067	24.396	943.101	754.812
176.081	24.571	942.407	754.929
177.096	24.597	941.706	754.411
178.110	24.129	940.972	751.783
179.125	23.982	939.962	750.290
180.140	24.192	939.102	750.420
181.154	24.303	939.268	750.954
182.169	24.542	939.037	751.708
183.183	24.753	938.812	752.348
184.198	24.506	938.170	750.729
185.213	24.608	937.248	750.356
186.227	24.772	935.989	749.968
187.242	24.767	935.673	749.626
188.256	24.854	934.930	749.330
189.271	24.776	934.379	748.495
190.286	24.519	933.094	746.326
191.300	23.851	931.858	742.483
192.315	23.078	930.277	737.931
193.329	23.125	929.861	737.733
194.344	24.051	930.340	741.910
195.359	24.547	930.480	744.022
196.373	24.636	929.862	743.833
197.388	24.547	929.070	742.762
198.402	24.393	928.797	741.839
199.417	24.514	928.068	741.694
200.432	24.470	925.942	739.747
201.446	24.201	926.044	738.649
202.461	24.267	925.632	738.529
203.475	23.321	923.880	733.150
204.490	22.637	922.332	729.032
205.504	23.591	922.641	733.156
206.519	24.175	922.588	735.457
207.534	24.306	922.228	735.646
208.548	24.646	922.198	736.960
209.563	24.454	920.774	734.967
210.577	24.421	920.223	734.326
211.592	24.825	919.757	735.549
212.607	24.820	918.928	734.804
213.621	24.713	918.755	734.159
214.636	24.802	917.673	733.596
215.650	24.842	916.815	733.008
216.665	24.878	916.402	732.761
217.680	24.805	915.185	731.425
218.694	24.624	913.868	729.569
219.709	24.195	913.783	727.684
220.723	24.384	913.380	728.067
221.738	24.610	912.740	728.415
222.753	24.601	912.026	727.744
223.767	24.735	911.630	727.912
224.782	24.920	911.636	728.602
225.796	24.839	911.089	727.774
226.811	24.226	909.266	723.762
227.826	23.658	907.395	719.908
228.840	23.819	907.460	720.549
229.855	23.896	906.869	720.329
230.869	23.449	906.301	718.003
231.884	23.870	906.305	719.648
232.899	24.687	906.091	722.716
233.913	24.537	905.358	721.461
234.928	24.402	904.704	720.333
235.942	24.552	904.031	720.337
236.957	24.174	903.517	718.340
237.972	24.270	902.573	717.915
238.986	24.434	901.899	717.974
240.001	24.373	901.444	717.301
241.015	24.365	900.892	716.767
242.030	24.511	900.307	716.825
243.045	24.633	900.174	717.147
244.059	24.665	899.675	716.812
245.074	24.691	898.438	715.867
246.088	24.359	897.119	713.428
247.103	24.565	896.999	714.093
248.117	25.054	897.216	716.156
249.132	25.191	897.162	716.598
250.147	25.509	896.606	717.360
251.161	25.511	895.823	716.675
252.176	25.462	895.388	716.068
253.190	25.496	894.836	715.701
254.205	25.633	894.509	715.919
255.220	25.577	893.557	714.873
256.234	25.432	893.044	713.822
257.249	25.417	892.117	712.958
258.263	25.336	891.738	712.271
259.278	25.524	890.750	712.165
260.293	25.557	889.846	711.512
261.307	25.426	889.429	710.594
262.322	25.226	888.594	709.076
263.336	24.426	886.533	704.212
264.351	23.485	884.743	699.022
265.366	23.582	884.560	699.197
266.380	24.613	885.218	703.717
267.395	25.199	885.206	705.952
268.409	25.000	884.164	704.277
269.424	25.195	884.019	704.864
270.439	25.088	883.464	703.941
271.453	25.362	882.800	704.425
272.468	25.595	882.199	704.794
273.482	25.535	882.241	704.533
274.497	25.217	880.703	701.998
275.512	24.719	880.161	699.553
276.526	25.341	879.416	701.332
277.541	25.402	879.436	701.523
278.555	25.059	878.764	699.585
279.570	25.101	877.558	698.727
280.585	25.045	876.900	697.925
281.599	25.064	876.332	697.485
282.614	24.487	875.204	694.282
283.628	24.497	874.829	693.961
284.643	24.869	874.215	694.859
285.657	24.670	872.884	692.967
286.672	24.275	872.183	690.817
287.687	24.840	872.318	693.052
288.701	24.891	871.768	692.753
289.716	24.612	870.503	690.606
290.730	24.689	870.016	690.459
291.745	24.269	869.019	687.985
292.760	24.567	869.499	689.456
293.774	25.524	869.805	693.327
294.789	25.839	869.336	694.106
295.803	25.864	868.711	693.645
296.818	25.971	868.058	693.471
297.833	25.383	867.009	690.312
298.847	25.282	866.087	689.130
299.862	25.617	865.996	690.281
300.876	25.687	866.055	690.538
301.891	25.748	865.044	689.903
302.906	25.321	864.165	687.505
303.920	25.327	864.209	687.503
304.935	25.738	863.756	688.655
305.949	25.823	862.886	688.226
306.964	25.470	862.121	686.209
307.979	25.649	861.642	686.447
308.993	26.094	861.331	687.836
310.008	25.981	861.122	687.179
311.022	25.677	860.099	685.143
312.037	25.602	859.446	684.276
313.052	25.346	858.168	682.226
314.066	24.384	856.805	677.431
315.081	24.066	856.768	676.135
316.095	25.041	856.780	679.787
317.110	25.530	856.310	681.204
318.125	24.632	854.871	676.602
319.139	23.725	852.844	671.512
320.154	23.600	852.817	670.957
321.168	24.568	853.434	675.043
322.183	25.238	853.759	677.774
323.197	25.344	853.122	677.608
324.212	25.541	853.015	678.205
325.227	25.585	852.379	677.806
326.241	25.580	851.833	677.292
327.256	25.354	850.941	675.672
328.270	25.346	850.282	675.062
329.285	25.076	849.485	673.355
330.300	24.850	848.729	671.846
331.314	25.014	848.579	672.282
332.329	25.510	848.480	674.007
333.343	25.683	847.956	674.177
334.358	25.526	847.756	673.370
335.373	25.593	847.813	673.608
336.387	26.133	846.835	674.790
337.402	26.199	847.026	675.129
338.416	26.056	846.574	674.174
339.431	26.180	846.194	674.278
340.446	26.271	846.004	674.403
341.460	26.263	845.274	673.733
342.475	25.972	844.818	672.224
343.489	26.039	844.616	672.255
344.504	26.423	843.854	673.020
345.519	26.594	843.732	673.496
346.533	26.423	843.671	672.755
347.548	26.529	842.801	672.393
348.562	26.384	842.460	671.526
349.577	26.490	841.669	671.229
350.592	26.509	840.941	670.657
351.606	26.326	840.457	669.533
352.621	26.331	839.301	668.573
353.635	26.243	838.625	667.650
354.650	25.630	836.916	663.969
355.665	24.635	835.806	659.360
356.679	25.020	835.637	660.588
357.694	25.343	835.301	661.454
358.708	25.441	834.522	661.141
359.723	25.855	834.433	662.536
360.738	26.158	834.313	663.494
361.752	26.204	834.027	663.376
362.767	26.408	833.643	663.763
363.781	26.936	833.091	665.198
364.796	26.754	832.913	664.330
365.810	26.845	832.743	664.472
366.825	26.798	831.938	663.598
367.840	26.576	830.923	661.916
368.854	26.025	830.292	659.344
369.869	26.189	829.973	659.630
370.883	26.197	829.180	658.972
371.898	25.985	828.911	657.925
372.913	26.260	828.563	658.595
373.927	26.341	828.168	658.515
374.942	26.568	827.597	658.828
375.956	26.573	827.121	658.411
376.971	26.663	827.114	658.674
377.986	26.951	826.240	658.966
379.000	26.906	825.737	658.344
380.015	26.605	825.748	657.202
381.029	26.687	824.931	656.791
382.044	26.808	824.283	656.655
383.059	26.862	823.779	656.390
384.073	26.841	823.342	655.908
385.088	26.781	822.740	655.152
386.102	26.594	821.938	653.783
387.117	26.569	821.216	653.058
388.132	26.151	819.992	650.522
389.146	25.757	818.936	648.210
390.161	26.313	818.960	650.173
391.175	26.561	818.873	650.938
392.190	26.196	817.643	648.592
393.205	24.784	815.820	642.023
394.219	23.446	814.039	635.770
395.234	23.261	813.709	634.794
396.248	24.890	815.292	641.819
397.263	26.390	815.981	647.682
398.278	26.267	815.893	647.115
399.292	26.127	814.901	645.768
400.307	25.998	814.736	645.120
401.321	26.213	814.178	645.387
402.336	26.531	814.342	646.599
403.350	27.030	813.906	647.977
404.365	27.118	813.946	648.266
405.380	27.478	813.394	649.050
406.394	27.572	812.775	648.833
407.409	27.487	812.287	648.083
408.423	27.445	812.170	647.784
409.438	27.479	811.552	647.354
410.453	27.444	811.187	646.883
411.467	27.418	810.950	646.543
412.482	27.529	810.209	646.287
413.496	27.615	809.986	646.358
414.511	27.606	809.366	645.774
415.526	27.522	809.015	645.141
416.540	27.330	808.478	643.975
417.555	27.196	807.715	642.838
418.569	27.107	807.591	642.365
419.584	27.138	806.802	641.792
420.599	26.882	806.416	640.526
421.613	106.326	1279.715	1436.890
422.628	91.724	1348.688	1436.997
