DTS Sentinel unit serial number:	SN413079Multiplexer serial number:	ORYXHardware model number:	OX4-SRSoftware version number:	ORYX F/W v4.00 Oryx Data Collector v3.7.2.0data status	okinstallation	princeton_trtdifferential loss correction	single-endedforward channel	channel 1reverse channel	N/Adate	2019/09/10time	20:24:11forward acquisition time	60.00reverse acquisition time	0.00gamma	496.2192k internal	0.2326k external	0.2326temperature offset calibration	0.9937default loss term (dB/km)	0.3790temperature slope calibration	1.0000multiplexer offset coefficient	1.0000multiplexer slope coefficient	1.0000fibre end	0.00T internal ref (°C)	32.12T ext. ref 1 (°C)	-0.31T ext. ref 2 (°C)	25.23length (m)	temperature (°C)	Stokes	anti-Stokes-747.200	9.489	-0.137	0.105
-746.185	-179.807	-0.098	0.002
-745.171	7.463	0.182	0.137
-744.156	800.000	-0.058	-0.176
-743.142	-106.185	0.322	-0.073
-742.127	217.291	-0.130	-0.209
-741.112	294.921	-0.147	-0.270
-740.098	-97.881	0.129	-0.034
-739.083	-36.541	-0.334	0.181
-738.069	-137.162	-0.195	-0.022
-737.054	800.000	0.050	0.197
-736.039	648.968	-0.066	0.171
-735.025	-200.000	0.018	0.403
-734.010	-200.000	-0.022	0.274
-732.996	-110.831	-0.160	0.033
-731.981	2.299	0.091	0.066
-730.966	13.605	0.378	0.296
-729.952	-200.000	-0.010	0.049
-728.937	-38.395	-0.065	0.035
-727.923	92.763	0.047	-0.053
-726.908	-160.266	0.089	-0.005
-725.894	424.790	0.067	-0.145
-724.879	-119.225	0.044	-0.008
-723.864	-62.150	0.073	0.031
-722.850	-159.963	-0.293	-0.016
-721.835	800.000	-0.118	-0.391
-720.821	-200.000	-0.040	-0.319
-719.806	-200.000	0.025	-0.173
-718.791	-127.510	0.197	-0.029
-717.777	-40.475	0.293	0.153
-716.762	697.578	-0.032	-0.084
-715.748	-58.475	0.338	0.148
-714.733	-85.260	-0.442	-0.139
-713.718	-99.456	0.358	0.091
-712.704	-173.924	-0.283	-0.008
-711.689	18.222	-0.279	0.225
-710.675	321.280	-0.073	0.139
-709.660	251.628	0.054	0.092
-708.645	-28.076	-0.183	-0.107
-707.631	-110.948	-0.165	0.034
-706.616	42.233	-0.104	-0.096
-705.602	-200.000	-0.049	-0.366
-704.587	32.503	-0.189	0.164
-703.572	164.545	0.038	0.054
-702.558	-90.866	-0.306	-0.089
-701.543	-163.260	-0.245	-0.012
-700.529	-35.842	-0.052	-0.028
-699.514	-200.000	-0.023	0.312
-698.499	20.958	0.158	0.129
-697.485	800.000	0.090	-0.257
-696.470	170.649	-0.197	-0.284
-695.456	-112.047	0.161	0.033
-694.441	-13.719	-0.306	-0.199
-693.426	-200.000	-0.030	0.226
-692.412	-200.000	-0.001	0.020
-691.397	-87.728	-0.023	-0.007
-690.383	101.681	-0.192	-0.225
-689.368	-200.000	-0.045	-0.230
-688.354	-200.000	0.022	-0.370
-687.339	-97.817	0.144	-0.037
-686.324	-43.563	0.138	0.070
-685.310	-37.342	0.168	-0.090
-684.295	292.702	-0.130	-0.239
-683.281	-140.050	0.138	0.015
-682.266	-144.309	0.451	0.042
-681.251	-17.753	0.029	0.018
-680.237	70.154	-0.050	-0.052
-679.222	-64.943	0.134	-0.054
-678.208	-178.733	-0.101	-0.002
-677.193	800.000	-0.050	0.163
-676.178	209.724	-0.142	0.224
-675.164	163.314	0.130	-0.183
-674.149	-200.000	-0.014	-0.146
-673.135	-122.115	-0.250	-0.041
-672.120	117.567	-0.149	0.185
-671.105	123.431	-0.076	0.096
-670.091	-200.000	0.067	-0.297
-669.076	-75.883	-0.103	0.037
-668.062	163.385	0.279	-0.394
-667.047	66.478	-0.147	0.150
-666.032	26.356	0.150	0.126
-665.018	395.048	0.091	-0.191
-664.003	18.476	-0.112	-0.090
-662.989	-65.231	-0.218	0.088
-661.974	-52.014	-0.234	0.109
-660.959	15.477	0.172	-0.136
-659.945	296.939	-0.171	-0.316
-658.930	-200.000	-0.020	-0.195
-657.916	-200.000	-0.017	-0.139
-656.901	-200.000	-0.004	0.162
-655.886	-150.806	0.192	0.015
-654.872	22.828	0.160	-0.132
-653.857	200.304	0.103	-0.159
-652.843	-174.703	0.190	0.005
-651.828	-66.721	-0.085	-0.034
-650.814	98.463	-0.192	-0.223
-649.799	800.000	0.027	0.076
-648.784	35.656	0.079	-0.070
-647.770	-59.592	-0.098	0.042
-646.755	107.194	0.034	-0.040
-645.741	44.120	-0.194	-0.179
-644.726	131.874	0.035	-0.045
-643.711	33.651	-0.185	0.162
-642.697	82.578	-0.134	-0.146
-641.682	800.000	0.017	-0.057
-640.668	122.078	-0.163	0.204
-639.653	-200.000	-0.006	0.157
-638.638	-49.864	0.431	0.205
-637.624	-200.000	0.019	-0.535
-636.609	-59.429	-0.191	0.082
-635.595	40.510	-0.210	0.190
-634.580	-200.000	-0.053	-0.318
-633.565	42.155	0.340	0.310
-632.551	-105.114	0.205	-0.047
-631.536	-86.172	0.230	0.071
-630.522	-164.170	-0.364	-0.017
-629.507	-93.490	-0.108	0.030
-628.492	-10.062	-0.087	0.058
-627.478	-47.514	-0.216	0.106
-626.463	16.492	0.137	0.109
-625.449	-62.247	0.089	-0.037
-624.434	-32.511	-0.183	-0.103
-623.419	428.958	0.109	0.237
-622.405	-65.745	0.161	-0.065
-621.390	437.689	0.052	0.115
-620.376	-200.000	-0.018	-0.149
-619.361	692.978	0.067	-0.176
-618.346	-133.193	-0.084	-0.011
-617.332	-100.073	-0.222	0.056
-616.317	24.065	0.143	-0.118
-615.303	800.000	0.139	-0.422
-614.288	174.883	-0.029	-0.042
-613.273	48.628	-0.117	0.110
-612.259	484.306	-0.060	-0.137
-611.244	800.000	0.052	0.182
-610.230	-44.873	0.302	-0.151
-609.215	23.089	0.113	0.093
-608.201	87.466	-0.159	0.176
-607.186	-124.840	0.144	-0.022
-606.171	-102.871	-0.225	0.054
-605.157	-17.772	0.094	-0.059
-604.142	-200.000	-0.027	-0.437
-603.128	-200.000	-0.021	0.211
-602.113	158.189	0.094	-0.130
-601.098	221.120	-0.106	-0.170
-600.084	-58.026	-0.161	-0.070
-599.069	179.763	0.192	-0.282
-598.055	342.639	0.224	0.439
-597.040	-153.467	-0.165	0.011
-596.025	800.000	-0.019	0.057
-595.011	-2.984	-0.143	0.100
-593.996	146.498	0.161	0.217
-592.982	72.942	-0.154	-0.162
-591.967	-94.216	-0.190	0.052
-590.952	800.000	0.029	0.091
-589.938	570.741	-0.066	-0.162
-588.923	-93.084	-0.042	-0.012
-587.909	451.308	-0.081	-0.179
-586.894	10.669	0.251	0.192
-585.879	-200.000	0.035	0.183
-584.865	-79.417	0.138	0.047
-583.850	-147.109	0.096	0.008
-582.836	-200.000	0.020	-0.338
-581.821	9.153	-0.265	-0.200
-580.806	-200.000	-0.004	-0.273
-579.792	-200.000	-0.025	0.150
-578.777	-12.431	0.285	-0.187
-577.763	-71.819	0.176	0.066
-576.748	800.000	-0.065	-0.192
-575.733	464.063	0.136	-0.304
-574.719	800.000	-0.079	0.325
-573.704	-5.411	0.326	-0.224
-572.690	-131.553	-0.277	0.037
-571.675	-156.194	0.307	0.019
-570.661	-200.000	0.015	-0.193
-569.646	129.938	0.120	-0.154
-568.631	50.882	-0.070	0.066
-567.617	180.403	0.052	0.076
-566.602	-62.812	-0.257	0.107
-565.588	-19.160	0.114	-0.071
-564.573	800.000	-0.055	-0.156
-563.558	67.884	-0.055	-0.057
-562.544	52.634	0.177	-0.170
-561.529	-65.496	-0.159	0.064
-560.515	153.780	0.225	0.309
-559.500	-121.189	0.236	0.040
-558.485	-101.190	0.297	-0.073
-557.471	-200.000	0.020	-0.124
-556.456	56.106	-0.306	0.297
-555.442	-200.000	0.035	0.210
-554.427	-149.737	-0.137	-0.011
-553.412	800.000	-0.040	0.174
-552.398	4.816	-0.087	-0.064
-551.383	-80.478	-0.231	-0.077
-550.369	-6.942	-0.218	0.148
-549.354	800.000	0.080	-0.278
-548.339	-186.038	0.117	-0.002
-547.325	780.913	0.150	-0.411
-546.310	-69.710	-0.312	0.119
-545.296	17.039	0.191	-0.152
-544.281	193.182	-0.085	-0.129
-543.266	30.722	-0.158	-0.136
-542.252	800.000	0.084	0.241
-541.237	325.026	0.067	0.127
-540.223	330.666	-0.117	0.226
-539.208	-134.160	-0.529	0.065
-538.193	646.950	-0.057	-0.144
-537.179	-103.334	-0.206	-0.049
-536.164	-89.045	0.147	0.044
-535.150	-67.068	0.375	0.148
-534.135	-200.000	0.022	-0.276
-533.121	-137.239	-0.254	-0.029
-532.106	800.000	0.068	-0.271
-531.091	-83.866	0.115	-0.037
-530.077	191.044	0.226	-0.340
-529.062	-200.000	-0.003	-0.322
-528.048	-110.364	0.225	0.047
-527.033	-200.000	0.004	0.048
-526.018	-61.356	-0.173	-0.073
-525.004	191.125	-0.154	-0.231
-523.989	140.992	-0.257	0.340
-522.975	19.250	-0.131	-0.105
-521.960	168.449	0.115	-0.163
-520.945	6.734	0.216	-0.160
-519.931	-137.184	-0.388	0.044
-518.916	125.061	-0.119	0.150
-517.902	121.453	0.050	-0.062
-516.887	-200.000	-0.012	0.325
-515.872	-85.715	-0.161	0.050
-514.858	-91.450	-0.099	0.028
-513.843	-27.930	-0.227	-0.131
-512.829	-200.000	0.019	-0.167
-511.814	-44.682	0.047	0.024
-510.799	-68.418	-0.166	0.064
-509.785	-200.000	0.034	-0.203
-508.770	-119.999	-0.223	-0.038
-507.756	-4.298	0.095	0.066
-506.741	9.632	0.169	0.128
-505.726	-131.920	-0.240	0.031
-504.712	800.000	-0.024	-0.094
-503.697	-200.000	0.041	-0.237
-502.683	-200.000	0.000	-0.269
-501.668	113.160	-0.296	0.358
-500.653	10.847	-0.307	0.234
-499.639	67.813	0.091	0.093
-498.624	-100.185	0.207	0.051
-497.610	-145.527	0.235	-0.021
-496.595	-200.000	-0.029	0.204
-495.581	-48.099	-0.198	0.095
-494.566	-107.154	-0.478	0.105
-493.551	-200.000	-0.025	0.160
-492.537	-200.000	0.011	0.104
-491.522	164.894	-0.065	0.092
-490.508	-200.000	0.071	0.412
-489.493	155.367	-0.235	0.323
-488.478	-200.000	-0.045	0.443
-487.464	0.228	0.066	-0.047
-486.449	-200.000	-0.026	-0.249
-485.435	-200.000	0.029	-0.215
-484.420	112.629	-0.153	0.185
-483.405	-88.689	-0.148	0.044
-482.391	-17.848	-0.239	0.150
-481.376	-200.000	0.008	-0.219
-480.362	-4.813	0.206	-0.141
-479.347	-24.555	-0.094	-0.056
-478.332	-116.510	-0.184	0.034
-477.318	-200.000	0.113	-0.000
-476.303	-176.795	-0.523	0.013
-475.289	-34.097	0.160	0.088
-474.274	-87.181	-0.219	0.066
-473.259	-118.913	-0.265	-0.046
-472.245	-78.548	0.281	0.096
-471.230	800.000	0.111	0.334
-470.216	-5.355	0.048	-0.033
-469.201	145.851	0.177	-0.237
-468.186	35.853	0.196	-0.172
-467.172	86.961	0.105	-0.116
-466.157	-200.000	0.076	-0.355
-465.143	-200.000	-0.016	0.157
-464.128	-200.000	-0.020	-0.156
-463.113	219.446	-0.038	-0.060
-462.099	-200.000	0.060	-0.285
-461.084	153.732	0.119	0.163
-460.070	-200.000	0.058	-0.289
-459.055	-26.766	-0.035	-0.020
-458.040	179.603	-0.109	0.159
-457.026	-200.000	-0.017	-0.528
-456.011	32.239	0.326	-0.281
-454.997	-44.333	-0.102	0.051
-453.982	-43.559	0.351	-0.177
-452.968	85.054	0.183	-0.200
-451.953	30.026	-0.244	0.208
-450.938	-103.060	-0.201	0.048
-449.924	123.700	0.227	-0.284
-448.909	662.246	0.071	-0.183
-447.895	75.272	-0.043	-0.046
-446.880	800.000	0.052	-0.159
-445.865	426.394	0.073	0.156
-444.851	800.000	-0.064	-0.180
-443.836	406.264	0.173	-0.364
-442.822	800.000	0.031	0.092
-441.807	-56.176	0.234	0.104
-440.792	-108.320	-0.131	0.028
-439.778	-82.222	-0.152	-0.049
-438.763	378.468	0.063	0.128
-437.749	-119.306	-0.143	0.025
-436.734	710.290	-0.063	-0.167
-435.719	-79.997	-0.152	0.051
-434.705	108.854	0.150	0.179
-433.690	-200.000	0.016	0.193
-432.676	-26.950	0.048	0.028
-431.661	800.000	0.080	0.228
-430.646	606.134	0.090	-0.223
-429.632	159.402	-0.260	0.361
-428.617	-93.829	-0.019	0.005
-427.603	42.089	-0.233	-0.210
-426.588	800.000	0.101	-0.343
-425.573	-112.178	-0.140	0.028
-424.559	21.276	-0.277	0.224
-423.544	221.906	-0.157	-0.251
-422.530	-77.115	0.184	-0.064
-421.515	-200.000	0.056	-0.335
-420.500	-71.433	-0.093	0.035
-419.486	-200.000	-0.009	0.049
-418.471	594.341	-0.072	0.178
-417.457	-163.594	-0.127	0.006
-416.442	-200.000	-0.023	-0.271
-415.428	191.381	0.118	-0.176
-414.413	-4.682	-0.147	0.101
-413.398	-108.368	-0.253	0.054
-412.384	-38.338	-0.061	0.032
-411.369	54.447	-0.023	0.022
-410.355	382.794	0.122	0.250
-409.340	25.575	-0.378	0.313
-408.325	14.918	0.086	-0.067
-407.311	-19.302	0.199	0.123
-406.296	197.766	-0.177	0.269
-405.282	195.770	0.118	-0.179
-404.267	-200.000	-0.031	-0.261
-403.252	-200.000	0.003	-0.170
-402.238	181.980	-0.023	0.034
-401.223	-200.000	0.007	0.238
-400.209	-76.157	0.308	0.108
-399.194	114.152	0.200	-0.242
-398.179	417.872	-0.106	-0.225
-397.165	-162.205	0.273	-0.014
-396.150	-82.008	-0.130	-0.042
-395.136	-95.673	0.161	0.043
-394.121	-49.568	0.134	0.064
-393.106	5.624	-0.303	-0.222
-392.092	13.203	0.073	0.056
-391.077	213.677	0.016	-0.025
-390.063	800.000	0.108	0.351
-389.048	-40.105	0.291	0.151
-388.033	71.837	-0.013	0.013
-387.019	65.086	-0.092	-0.093
-386.004	-114.051	-0.162	0.031
-384.990	800.000	-0.081	0.321
-383.975	128.686	0.208	-0.264
-382.960	-32.569	-0.111	-0.062
-381.946	-200.000	0.010	-0.201
-380.931	-103.757	0.131	0.030
-379.917	-200.000	0.036	-0.176
-378.902	130.518	0.208	-0.265
-377.888	800.000	0.044	0.164
-376.873	-44.775	0.283	0.140
-375.858	-200.000	-0.005	-0.052
-374.844	-61.573	0.328	0.137
-373.829	-200.000	-0.014	-0.086
-372.815	74.404	0.147	0.153
-371.800	485.636	0.148	0.335
-370.785	41.154	0.101	-0.091
-369.771	-200.000	-0.033	0.199
-368.756	83.719	0.193	-0.209
-367.742	14.748	-0.023	-0.018
-366.727	135.517	-0.106	-0.137
-365.712	-113.824	0.139	0.027
-364.698	-200.000	-0.032	0.291
-363.683	414.366	0.160	0.339
-362.669	52.935	-0.115	0.109
-361.654	418.822	-0.079	0.168
-360.639	-6.671	-0.145	0.098
-359.625	128.094	-0.052	0.065
-358.610	-127.348	0.258	0.037
-357.596	91.561	0.300	-0.335
-356.581	3.236	-0.013	0.009
-355.566	-133.143	0.149	0.019
-354.552	379.706	0.030	-0.060
-353.537	-200.000	-0.010	0.359
-352.523	-120.569	0.217	0.037
-351.508	702.616	0.143	0.375
-350.493	-142.257	0.299	-0.029
-349.479	-200.000	-0.019	0.150
-348.464	-92.372	-0.075	0.021
-347.450	44.838	0.036	-0.033
-346.435	-200.000	0.030	0.255
-345.420	49.573	-0.251	0.235
-344.406	-200.000	0.026	-0.149
-343.391	92.959	0.273	0.307
-342.377	329.885	0.060	-0.114
-341.362	753.162	-0.038	-0.101
-340.348	-200.000	-0.007	0.111
-339.333	9.569	0.115	-0.087
-338.318	651.348	-0.056	0.143
-337.304	-167.427	-0.342	-0.014
-336.289	73.119	-0.082	0.085
-335.275	282.204	-0.027	0.047
-334.260	800.000	-0.017	0.060
-333.245	800.000	0.065	0.244
-332.231	-144.860	0.149	0.014
-331.216	-63.992	-0.121	0.049
-330.202	-67.613	-0.536	0.208
-329.187	-200.000	-0.001	-0.294
-328.172	82.430	0.171	-0.184
-327.158	800.000	-0.046	-0.147
-326.143	19.355	-0.102	-0.081
-325.129	230.098	0.172	-0.279
-324.114	21.535	-0.073	0.059
-323.099	74.450	-0.272	-0.283
-322.085	78.681	-0.080	0.085
-321.070	148.084	0.127	0.170
-320.056	44.388	0.338	0.308
-319.041	229.331	0.072	0.116
-318.026	-200.000	-0.066	0.297
-317.012	651.456	-0.160	-0.407
-315.997	800.000	0.058	-0.189
-314.983	95.629	-0.191	0.216
-313.968	236.563	-0.036	0.058
-312.953	-44.209	0.287	-0.143
-311.939	-145.551	-0.243	0.022
-310.924	800.000	-0.082	0.325
-309.910	-200.000	-0.000	0.173
-308.895	-103.865	-0.193	-0.045
-307.880	729.550	0.058	0.153
-306.866	-200.000	-0.004	0.016
-305.851	-61.108	-0.055	-0.023
-304.837	3.759	0.039	0.028
-303.822	96.355	-0.227	0.257
-302.807	192.813	0.179	0.267
-301.793	188.026	-0.159	0.235
-300.778	-115.811	-0.233	-0.043
-299.764	-125.043	0.095	0.014
-298.749	274.354	0.094	-0.165
-297.735	-200.000	0.002	0.037
-296.720	344.047	-0.080	-0.155
-295.705	-67.090	-0.298	0.116
-294.691	-115.630	0.459	0.085
-293.676	48.921	-0.159	-0.148
-292.662	800.000	0.016	-0.068
-291.647	-33.078	0.173	-0.095
-290.632	552.658	0.015	-0.036
-289.618	-200.000	0.004	-0.083
-288.603	169.755	-0.288	-0.408
-287.589	491.723	0.021	0.047
-286.574	88.609	-0.150	-0.165
-285.559	58.463	0.199	-0.194
-284.545	26.328	0.153	0.127
-283.530	163.468	-0.299	0.417
-282.516	-200.000	0.057	0.311
-281.501	29.369	0.258	-0.217
-280.486	800.000	0.020	-0.079
-279.472	-18.090	-0.111	-0.069
-278.457	800.000	-0.118	0.349
-277.443	-200.000	-0.010	0.170
-276.428	16.081	0.122	0.095
-275.413	-200.000	0.015	0.116
-274.399	-38.430	-0.205	-0.107
-273.384	800.000	0.004	0.018
-272.370	-20.673	-0.221	0.135
-271.355	800.000	-0.044	0.150
-270.340	49.662	-0.215	-0.201
-269.326	4.774	-0.202	-0.147
-268.311	-200.000	0.021	-0.193
-267.297	-126.426	-0.197	0.029
-266.282	-137.758	-0.263	-0.029
-265.267	-200.000	0.014	-0.282
-264.253	60.998	-0.224	-0.220
-263.238	-103.217	-0.136	0.032
-262.224	-200.000	0.018	0.271
-261.209	-149.798	0.325	-0.025
-260.195	-75.927	0.349	-0.122
-259.180	507.777	-0.109	-0.250
-258.165	-80.456	0.103	-0.034
-257.151	-90.748	0.404	0.115
-256.136	-25.743	0.297	0.173
-255.122	83.930	-0.235	-0.254
-254.107	368.070	0.116	0.231
-253.092	-80.825	-0.297	0.098
-252.078	-154.503	0.170	-0.011
-251.063	332.825	0.256	0.489
-250.049	-200.000	0.023	0.136
-249.034	-111.085	0.404	0.082
-248.019	-68.181	-0.093	-0.036
-247.005	800.000	0.070	0.238
-245.990	288.041	-0.092	0.164
-244.976	16.196	0.052	-0.040
-243.961	-141.437	0.243	-0.024
-242.946	189.061	-0.015	-0.021
-241.932	49.945	0.209	-0.195
-240.917	10.715	0.159	0.120
-239.903	-200.000	-0.030	-0.265
-238.888	-200.000	0.418	-0.002
-237.873	49.481	0.282	0.263
-236.859	-200.000	-0.021	0.120
-235.844	-65.325	0.026	0.010
-234.830	800.000	0.056	-0.202
-233.815	292.244	0.177	-0.319
-232.800	-200.000	0.044	-0.372
-231.786	207.976	0.182	-0.280
-230.771	800.000	-0.102	-0.378
-229.757	-88.701	0.197	0.058
-228.742	437.990	-0.059	0.128
-227.727	-6.723	-0.127	-0.085
-226.713	-200.000	0.045	0.238
-225.698	-200.000	-0.025	0.167
-224.684	128.807	0.222	0.279
-223.669	-31.824	-0.157	0.087
-222.655	-164.867	0.019	-0.001
-221.640	800.000	-0.074	0.313
-220.625	74.951	0.358	0.373
-219.611	-19.573	0.302	0.185
-218.596	800.000	-0.033	0.142
-217.582	14.997	-0.169	-0.131
-216.567	800.000	-0.074	0.263
-215.552	81.154	0.060	0.064
-214.538	154.482	-0.031	0.042
-213.523	-200.000	-0.015	-0.099
-212.509	-116.674	0.135	-0.025
-211.494	-200.000	-0.008	0.092
-210.479	-200.000	0.036	-0.240
-209.465	145.364	-0.129	-0.171
-208.450	36.167	0.041	-0.035
-207.436	91.105	-0.246	-0.273
-206.421	-200.000	0.016	-0.080
-205.406	-25.634	0.190	0.111
-204.392	-107.629	-0.308	0.066
-203.377	-173.044	0.130	-0.004
-202.363	-93.333	-0.377	0.103
-201.348	-64.711	-0.298	-0.119
-200.333	800.000	-0.067	-0.258
-199.319	800.000	0.137	-0.384
-198.304	255.205	-0.062	-0.105
-197.290	-64.098	-0.263	0.106
-196.275	-113.663	-0.370	0.071
-195.260	288.189	0.061	0.109
-194.246	-102.611	0.020	0.005
-193.231	232.588	0.038	0.062
-192.217	-200.000	0.003	0.177
-191.202	-117.898	0.070	0.012
-190.187	143.999	-0.051	-0.067
-189.173	371.501	0.149	0.298
-188.158	78.000	0.177	-0.186
-187.144	-59.240	0.168	-0.071
-186.129	-21.154	-0.312	0.189
-185.114	-200.000	-0.027	0.232
-184.100	-26.502	0.140	-0.081
-183.085	81.477	0.129	-0.138
-182.071	-20.911	0.175	-0.106
-181.056	-200.000	-0.053	-0.252
-180.042	-200.000	0.023	-0.231
-179.027	-112.932	0.197	0.038
-178.012	-45.625	0.218	-0.107
-176.998	156.613	-0.189	-0.258
-175.983	-200.000	0.022	-0.171
-174.969	-200.000	0.001	-0.104
-173.954	-176.748	-0.233	0.006
-172.939	-200.000	0.024	0.468
-171.925	-74.886	-0.166	-0.059
-170.910	-128.503	-0.370	-0.052
-169.896	-78.488	0.273	0.092
-168.881	-200.000	0.048	-0.285
-167.866	97.386	0.146	0.165
-166.852	-37.111	0.111	-0.059
-165.837	-14.593	0.235	-0.149
-164.823	-185.879	0.269	-0.004
-163.808	50.151	-0.344	0.320
-162.793	-200.000	0.029	-0.326
-161.779	49.364	-0.162	0.150
-160.764	-124.051	-0.128	-0.020
-159.750	-200.000	-0.005	0.136
-158.735	126.522	0.185	-0.230
-157.720	-2.032	0.270	-0.187
-156.706	800.000	0.088	0.336
-155.691	89.860	-0.077	-0.084
-154.677	38.881	-0.257	0.226
-153.662	-60.985	-0.091	0.038
-152.647	-86.281	-0.253	0.077
-151.633	100.593	-0.147	-0.168
-150.618	-107.329	0.362	0.078
-149.604	-200.000	-0.022	-0.290
-148.589	800.000	0.044	0.136
-147.574	-200.000	0.005	-0.121
-146.560	-147.828	-0.055	0.005
-145.545	13.352	0.115	-0.088
-144.531	-114.335	-0.141	-0.027
-143.516	-48.195	0.333	-0.158
-142.502	29.146	0.029	0.024
-141.487	638.971	0.149	-0.373
-140.472	151.259	-0.176	0.236
-139.458	-52.525	0.048	-0.022
-138.443	-138.544	0.196	-0.021
-137.429	-165.659	-0.375	-0.016
-136.414	110.644	0.183	-0.217
-135.399	-15.942	0.283	0.178
-134.385	-148.176	-0.187	0.015
-133.370	66.322	0.254	-0.254
-132.356	-138.392	0.066	-0.007
-131.341	97.756	0.178	-0.202
-130.326	41.090	0.109	0.097
-129.312	29.828	0.255	-0.214
-128.297	669.914	-0.027	-0.069
-127.283	-200.000	0.003	-0.112
-126.268	322.379	0.100	0.188
-125.253	527.494	0.137	0.318
-124.239	-200.000	-0.070	0.371
-123.224	-151.215	-0.148	0.011
-122.210	-114.596	-0.222	0.042
-121.195	289.166	-0.127	0.226
-120.180	17.460	0.072	-0.056
-119.166	110.433	0.098	0.115
-118.151	99.732	0.112	-0.128
-117.137	-26.130	-0.088	0.051
-116.122	-119.904	-0.295	-0.050
-115.107	-96.384	0.232	-0.060
-114.093	-107.384	-0.077	-0.017
-113.078	-139.124	-0.279	-0.030
-112.064	-109.001	0.139	0.029
-111.049	-31.089	-0.355	-0.197
-110.034	-53.355	-0.212	-0.096
-109.020	-140.755	-0.265	0.027
-108.005	800.000	-0.027	0.112
-106.991	-13.895	-0.031	-0.020
-105.976	69.552	0.219	-0.221
-104.962	155.379	0.257	0.348
-103.947	5.793	-0.290	0.211
-102.932	41.107	0.232	0.206
-101.918	258.057	0.037	0.063
-100.903	800.000	-0.050	0.178
-99.889	-200.000	0.047	0.217
-98.874	-126.409	-0.406	0.059
-97.859	-142.560	-0.221	-0.021
-96.845	354.484	0.124	0.242
-95.830	557.846	0.078	-0.185
-94.816	-24.905	-0.242	0.141
-93.801	-86.143	-0.234	0.071
-92.786	292.731	0.126	0.226
-91.772	184.087	-0.150	0.218
-90.757	-200.000	-0.069	-0.362
-89.743	800.000	-0.052	0.188
-88.728	-150.745	0.050	0.004
-87.713	-179.991	-0.075	-0.002
-86.699	-80.371	-0.164	-0.054
-85.684	800.000	0.058	0.204
-84.670	-200.000	-0.076	0.581
-83.655	-10.799	-0.222	0.144
-82.640	-200.000	-0.104	-0.494
-81.626	-95.253	0.035	-0.009
-80.611	2.546	0.127	0.090
-79.597	49.705	-0.118	-0.109
-78.582	-1.791	0.226	-0.156
-77.567	29.048	0.036	0.030
-76.553	-43.315	-0.192	0.095
-75.538	-200.000	0.008	0.161
-74.524	-88.368	0.304	-0.089
-73.509	-20.935	-0.341	-0.205
-72.494	-200.000	-0.049	-0.227
-71.480	-105.351	0.312	0.070
-70.465	-169.219	-0.038	0.001
-69.451	-101.592	-0.491	0.117
-68.436	-114.128	0.104	-0.020
-67.422	9.898	-0.226	0.169
-66.407	-103.471	-0.324	0.075
-65.392	383.285	0.070	-0.141
-64.378	-46.074	0.177	0.086
-63.363	46.049	-0.242	0.220
-62.349	327.945	0.104	0.197
-61.334	27.317	-1.026	-0.846
-60.319	-8.401	0.600	0.396
-59.305	341.344	-0.372	-0.714
-58.290	548.227	0.433	1.018
-57.276	545.066	0.620	1.454
-56.261	-200.000	97.878	598.594
-55.246	611.947	1403.870	3446.837
-54.232	191.583	2597.775	3840.981
-53.217	117.988	2150.264	2600.541
-52.203	44.006	1605.519	1444.267
-51.188	35.752	1343.096	1158.685
-50.173	32.546	1301.275	1103.807
-49.159	54.098	1351.290	1275.510
-48.144	56.287	1366.804	1303.162
-47.130	35.714	1324.725	1142.427
-46.115	32.201	1307.000	1106.455
-45.100	32.084	1302.366	1101.805
-44.086	32.083	1299.633	1099.440
-43.071	31.991	1297.226	1096.825
-42.057	31.990	1295.459	1095.280
-41.042	32.028	1293.763	1094.025
-40.027	32.059	1291.678	1092.397
-39.013	32.058	1289.890	1090.834
-37.998	31.919	1289.044	1089.268
-36.984	32.126	1286.608	1088.369
-35.969	32.026	1285.550	1086.850
-34.954	32.107	1283.526	1085.565
-33.940	32.125	1282.267	1084.559
-32.925	32.142	1280.996	1083.539
-31.911	32.209	1279.083	1082.265
-30.896	32.156	1277.625	1080.685
-29.881	32.223	1276.305	1079.911
-28.867	32.273	1274.781	1078.865
-27.852	32.212	1273.526	1077.408
-26.838	32.367	1271.401	1076.456
-25.823	32.257	1270.415	1074.952
-24.809	32.262	1268.972	1073.716
-23.794	32.241	1268.264	1072.951
-22.779	32.319	1266.464	1071.835
-21.765	32.213	1265.479	1070.350
-20.750	32.250	1263.744	1069.053
-19.736	32.058	1262.637	1066.986
-18.721	32.074	1261.552	1066.113
-17.706	32.138	1260.433	1065.491
-16.692	32.096	1259.317	1064.269
-15.677	32.094	1258.212	1063.282
-14.663	32.054	1257.092	1062.066
-13.648	31.992	1256.097	1060.834
-12.633	32.130	1254.542	1060.254
-11.619	32.079	1254.348	1059.761
-10.604	32.040	1253.398	1058.695
-9.590	32.125	1252.096	1058.033
-8.575	32.077	1251.434	1057.161
-7.560	32.037	1249.941	1055.635
-6.546	31.984	1249.618	1055.018
-5.531	32.031	1248.646	1054.420
-4.517	31.990	1247.689	1053.345
-3.502	32.023	1247.077	1052.970
-2.487	32.160	1245.762	1052.586
-1.473	31.929	1242.316	1048.338
-0.458	30.377	1227.095	1026.881
0.556	24.673	1208.254	987.620
1.571	20.830	1212.933	969.997
2.586	19.962	1227.708	976.831
3.600	19.612	1217.206	966.428
4.615	14.238	1145.647	881.158
5.629	4.512	1069.548	774.281
6.644	0.009	1048.536	736.964
7.659	-0.313	1045.929	733.496
8.673	-0.416	1045.153	732.385
9.688	-0.539	1043.602	730.632
10.702	0.029	1041.880	732.128
11.717	5.788	1050.100	766.031
12.731	14.904	1063.166	820.407
13.746	18.606	1067.651	842.002
14.761	18.611	1067.642	841.944
15.775	18.648	1066.117	840.851
16.790	18.444	1065.018	838.906
17.804	18.311	1064.904	838.095
18.819	18.403	1064.744	838.345
19.834	18.325	1063.983	837.288
20.848	18.346	1063.333	836.807
21.863	18.344	1062.959	836.429
22.877	18.236	1062.384	835.372
23.892	18.195	1061.883	834.704
24.907	18.326	1060.958	834.541
25.921	18.252	1059.828	833.220
26.936	18.379	1058.251	832.523
27.950	18.373	1056.368	830.941
28.965	18.099	1054.670	828.204
29.980	18.242	1052.740	827.307
30.994	18.470	1051.776	827.578
32.009	18.310	1050.581	825.790
33.023	18.117	1049.385	823.847
34.038	18.153	1048.734	823.438
35.053	18.387	1047.817	823.772
36.067	18.414	1046.636	822.899
37.082	18.419	1046.427	822.686
38.096	18.590	1045.383	822.612
39.111	18.699	1044.542	822.402
40.126	18.649	1042.691	820.632
41.140	18.199	1041.180	817.219
42.155	18.022	1039.574	815.041
43.169	18.037	1038.837	814.463
44.184	18.154	1037.695	814.053
45.199	18.113	1036.850	813.122
46.213	18.168	1035.682	812.399
47.228	18.109	1034.784	811.340
48.242	18.328	1033.387	811.214
49.257	18.203	1033.093	810.316
50.271	18.382	1031.784	810.068
51.286	18.317	1031.166	809.200
52.301	18.344	1030.296	808.573
53.315	18.321	1029.434	807.717
54.330	18.290	1028.541	806.801
55.344	18.381	1027.484	806.330
56.359	18.286	1026.849	805.311
57.374	18.218	1025.207	803.635
58.388	18.235	1024.864	803.372
59.403	18.139	1023.698	801.938
60.417	18.032	1022.829	800.685
61.432	18.098	1022.660	800.791
62.447	18.322	1021.385	800.771
63.461	18.278	1020.937	800.139
64.476	18.282	1019.712	799.131
65.490	18.096	1018.811	797.487
66.505	18.341	1017.339	797.402
67.520	18.311	1017.255	797.125
68.534	18.097	1016.046	795.112
69.549	17.775	1015.212	792.894
70.563	17.932	1013.789	792.442
71.578	17.722	1013.844	791.440
72.593	17.760	1012.533	790.524
73.607	17.876	1012.149	790.689
74.622	18.168	1011.599	791.544
75.636	18.164	1010.698	790.750
76.651	17.965	1009.818	789.072
77.666	17.941	1008.999	788.248
78.680	18.108	1008.342	788.439
79.695	18.227	1007.436	788.210
80.709	18.080	1007.088	787.187
81.724	18.043	1006.104	786.180
82.739	18.252	1005.246	786.401
83.753	18.383	1004.468	786.322
84.768	18.661	1003.532	786.794
85.782	18.707	1002.204	785.897
86.797	18.553	1001.199	784.336
87.812	18.427	1000.522	783.161
88.826	18.507	999.757	782.854
89.841	18.627	998.768	782.558
90.855	18.530	997.668	781.187
91.870	18.495	996.735	780.229
92.884	18.503	995.242	779.024
93.899	18.359	994.866	778.007
94.914	18.566	994.325	778.457
95.928	18.435	992.951	776.716
96.943	18.285	991.433	774.781
97.957	18.070	990.577	773.071
98.972	17.883	989.321	771.179
99.987	18.029	988.715	771.299
101.001	18.362	987.763	771.988
102.016	18.360	987.331	771.573
103.030	18.398	986.077	770.697
104.045	17.965	985.002	767.843
105.060	17.911	983.913	766.681
106.074	18.237	983.269	767.574
107.089	18.575	982.792	768.648
108.103	18.408	981.886	767.128
109.118	18.328	980.137	765.335
110.133	18.345	979.471	764.821
111.147	18.112	978.101	762.647
112.162	17.962	977.345	761.319
113.176	18.038	976.812	761.176
114.191	18.071	975.854	760.510
115.206	17.870	974.422	758.434
116.220	17.983	973.754	758.347
117.235	18.044	972.807	757.815
118.249	17.981	971.851	756.724
119.264	17.967	971.129	756.029
120.279	17.984	970.616	755.638
121.293	18.125	969.619	755.421
122.308	18.031	968.739	754.254
123.322	18.029	967.378	753.118
124.337	18.050	965.778	751.897
125.352	17.519	964.195	748.266
126.366	17.512	963.252	747.438
127.381	18.029	963.260	749.648
128.395	18.502	961.989	750.662
129.410	18.679	960.860	750.487
130.424	18.575	960.168	749.427
131.439	18.281	959.666	747.686
132.454	18.391	958.094	746.876
133.468	18.315	957.650	746.131
134.483	18.532	956.643	746.225
135.497	18.767	955.347	746.169
136.512	18.693	954.926	745.454
137.527	18.741	953.546	744.519
138.541	18.620	953.097	743.579
139.556	18.778	952.016	743.351
140.570	18.800	950.731	742.380
141.585	18.773	949.887	741.537
142.600	18.468	949.344	739.733
143.614	18.714	948.739	740.254
144.629	18.852	948.112	740.296
145.643	18.747	946.867	738.806
146.658	18.672	945.355	737.239
147.673	18.582	944.450	736.079
148.687	18.448	943.534	734.726
149.702	18.547	942.538	734.310
150.716	18.575	941.611	733.644
151.731	18.504	941.544	733.221
152.746	18.784	940.702	733.699
153.760	18.923	939.999	733.678
154.775	18.672	939.438	732.104
155.789	18.818	938.746	732.125
156.804	18.663	937.419	730.365
157.819	18.625	937.136	729.917
158.833	18.836	935.862	729.758
159.848	18.652	935.403	728.552
160.862	18.653	934.071	727.454
161.877	18.798	933.078	727.232
162.892	18.896	932.279	726.958
163.906	18.824	931.097	725.669
164.921	18.841	930.216	724.991
165.935	18.942	928.872	724.302
166.950	18.785	928.668	723.419
167.964	18.823	927.453	722.571
168.979	18.658	926.519	721.086
169.994	18.742	925.418	720.515
171.008	18.851	924.927	720.525
172.023	18.810	923.688	719.328
173.037	18.529	922.792	717.389
174.052	18.433	921.968	716.286
175.067	18.638	921.605	716.796
176.081	18.677	921.290	716.650
177.096	18.684	920.365	715.895
178.110	18.469	919.174	714.012
179.125	18.374	918.543	713.061
180.140	18.484	917.715	712.813
181.154	18.446	917.726	712.601
182.169	18.718	917.421	713.432
183.183	18.879	916.700	713.475
184.198	18.771	915.630	712.134
185.213	18.786	914.750	711.448
186.227	18.908	914.450	711.655
187.242	18.853	913.804	710.862
188.256	18.795	913.122	710.028
189.271	18.957	911.928	709.709
190.286	18.631	910.877	707.481
191.300	18.277	910.019	705.296
192.315	17.477	908.922	701.089
193.329	17.560	908.209	700.818
194.344	18.289	908.574	704.038
195.359	18.595	908.329	705.041
196.373	18.788	907.118	704.832
197.388	18.645	906.369	703.604
198.402	18.482	906.063	702.634
199.417	18.649	905.195	702.584
200.432	18.285	903.937	700.058
201.446	18.069	903.490	698.765
202.461	18.174	902.770	698.573
203.475	17.430	901.191	694.258
204.490	16.921	899.863	691.096
205.504	17.876	900.176	695.168
206.519	18.398	900.024	697.116
207.534	18.356	899.739	696.660
208.548	18.670	899.615	697.782
209.563	18.621	898.202	696.426
210.577	18.664	897.504	695.998
211.592	18.907	897.022	696.544
212.607	18.865	896.093	695.593
213.621	18.915	895.663	695.399
214.636	19.079	894.873	695.386
215.650	18.910	894.150	694.082
216.665	18.988	893.559	693.874
217.680	18.872	892.661	692.648
218.694	18.437	891.525	689.956
219.709	18.313	891.364	689.272
220.723	18.656	890.526	689.941
221.738	18.746	890.186	689.979
222.753	18.566	889.446	688.622
223.767	18.859	888.740	689.188
224.782	19.064	887.968	689.349
225.796	19.005	887.475	688.671
226.811	18.298	886.062	684.685
227.826	17.706	885.547	681.862
228.840	18.034	884.891	682.605
229.855	18.073	883.478	681.611
230.869	17.768	882.672	679.712
231.884	18.091	883.106	681.275
232.899	18.827	882.832	683.934
233.913	18.917	881.874	683.489
234.928	18.840	881.230	682.624
235.942	18.846	880.648	682.138
236.957	18.478	880.015	680.124
237.972	18.481	879.308	679.530
238.986	18.601	878.941	679.663
240.001	18.703	877.659	679.013
241.015	18.824	876.843	678.802
242.030	18.666	877.088	678.307
243.045	18.856	876.462	678.512
244.059	18.927	875.598	678.063
245.074	18.771	874.644	676.651
246.088	18.377	873.647	674.268
247.103	18.595	873.608	675.037
248.117	19.273	873.185	677.316
249.132	19.332	872.722	677.129
250.147	19.176	872.399	676.207
251.161	19.357	871.755	676.356
252.176	19.382	870.997	675.808
253.190	19.530	870.435	675.890
254.205	19.681	869.618	675.789
255.220	19.599	869.164	675.054
256.234	19.623	868.019	674.199
257.249	19.507	867.455	673.248
258.263	19.506	866.811	672.685
259.278	19.518	866.110	672.127
260.293	19.562	865.076	671.437
261.307	19.328	864.691	670.168
262.322	19.191	863.601	668.735
263.336	18.524	861.581	664.526
264.351	17.385	860.047	658.874
265.366	17.446	860.031	659.040
266.380	18.596	860.293	663.634
267.395	19.181	860.019	665.629
268.409	18.988	859.702	664.578
269.424	19.305	858.912	665.132
270.439	19.435	858.047	664.902
271.453	19.381	857.904	664.528
272.468	19.500	857.192	664.375
273.482	19.681	856.253	664.281
274.497	19.194	855.499	661.770
275.512	18.898	854.488	659.793
276.526	19.327	854.252	661.198
277.541	19.321	853.821	660.783
278.555	19.221	852.813	659.562
279.570	18.959	851.992	657.864
280.585	19.101	851.713	658.134
281.599	19.224	850.190	657.369
282.614	18.744	849.388	654.861
283.628	18.740	849.039	654.518
284.643	19.193	848.674	655.904
285.657	18.720	847.545	653.176
286.672	18.433	846.651	651.336
287.687	19.010	846.823	653.606
288.701	19.001	846.233	653.056
289.716	18.740	844.889	650.974
290.730	18.697	844.414	650.388
291.745	18.444	843.531	648.692
292.760	18.703	843.337	649.463
293.774	19.649	843.737	653.296
294.789	19.928	843.387	654.018
295.803	19.962	842.875	653.692
296.818	19.946	841.779	652.725
297.833	19.652	840.638	650.677
298.847	19.496	840.274	649.750
299.862	19.723	839.810	650.185
300.876	20.022	839.697	651.166
301.891	19.706	838.948	649.341
302.906	19.301	837.544	646.678
303.920	19.506	837.471	647.331
304.935	19.700	837.211	647.802
305.949	19.635	836.598	647.024
306.964	19.711	835.810	646.644
307.979	19.808	835.380	646.617
308.993	20.039	834.686	646.886
310.008	19.810	834.244	645.632
311.022	19.704	833.384	644.512
312.037	19.706	833.456	644.519
313.052	19.444	832.170	642.491
314.066	18.889	830.810	639.321
315.081	18.602	830.192	637.722
316.095	19.314	830.167	640.293
317.110	19.804	829.689	641.685
318.125	18.972	828.657	637.745
319.139	18.178	827.482	633.844
320.154	18.152	827.358	633.597
321.168	18.954	827.264	636.437
322.183	19.441	827.321	638.227
323.197	19.719	826.800	638.799
324.212	19.858	826.602	639.100
325.227	19.772	825.731	638.055
326.241	19.803	824.965	637.519
327.256	19.708	824.224	636.540
328.270	19.580	824.054	635.882
329.285	19.452	822.971	634.517
330.300	19.265	822.791	633.637
331.314	19.422	822.281	633.766
332.329	19.843	821.557	634.694
333.343	19.924	821.233	634.686
334.358	19.940	820.727	634.297
335.373	20.055	820.341	634.362
336.387	20.198	820.795	635.183
337.402	20.173	820.196	634.572
338.416	20.096	819.555	633.737
339.431	20.177	819.236	633.730
340.446	20.293	818.925	633.857
341.460	20.202	818.074	632.812
342.475	19.960	817.986	631.806
343.489	20.184	817.319	632.051
344.504	20.298	817.062	632.210
345.519	20.429	816.658	632.318
346.533	20.550	816.311	632.435
347.548	20.441	816.390	632.043
348.562	20.767	815.413	632.415
349.577	20.511	815.146	631.223
350.592	20.605	814.029	630.641
351.606	20.615	813.487	630.202
352.621	20.517	812.533	629.052
353.635	20.411	811.713	627.978
354.650	19.816	810.165	624.579
355.665	18.974	809.168	620.717
356.679	19.283	808.914	621.582
357.694	19.704	808.442	622.682
358.708	19.651	807.727	621.886
359.723	20.177	807.355	623.437
360.738	20.288	807.537	623.922
361.752	20.381	806.805	623.632
362.767	20.672	806.302	624.233
363.781	20.781	805.769	624.157
364.796	20.838	805.476	624.078
365.810	20.755	805.305	623.595
366.825	20.678	804.722	622.813
367.840	20.643	804.051	622.110
368.854	20.253	802.921	619.789
369.869	20.339	803.347	620.370
370.883	20.382	802.738	619.999
371.898	20.254	801.717	618.700
372.913	20.266	801.620	618.610
373.927	20.450	801.332	618.990
374.942	20.591	800.852	619.066
375.956	20.604	800.444	618.743
376.971	20.648	800.237	618.685
377.986	20.872	799.649	618.970
379.000	20.803	799.114	618.258
380.015	20.709	798.366	617.292
381.029	20.770	797.660	616.905
382.044	20.794	797.430	616.759
383.059	20.688	797.089	616.065
384.073	20.656	796.615	615.531
385.088	20.826	796.016	615.617
386.102	20.819	795.245	614.941
387.117	20.714	794.629	614.039
388.132	20.409	793.514	612.046
389.146	20.040	792.945	610.254
390.161	20.184	792.639	610.474
391.175	20.597	792.274	611.589
392.190	20.405	790.952	609.843
393.205	19.194	789.105	604.120
394.219	18.078	787.940	599.263
395.234	18.103	787.797	599.189
396.248	19.435	789.138	604.829
397.263	20.777	789.909	610.071
398.278	20.729	789.501	609.535
399.292	20.356	788.530	607.427
400.307	20.605	788.328	608.089
401.321	20.561	787.944	607.584
402.336	20.872	787.846	608.540
403.350	21.146	787.272	609.001
404.365	21.351	787.331	609.707
405.380	21.406	786.832	609.460
406.394	21.500	786.510	609.481
407.409	21.400	785.749	608.489
408.423	21.393	785.281	608.049
409.438	21.529	784.980	608.234
410.453	21.481	784.810	607.883
411.467	21.434	784.138	607.147
412.482	21.484	783.687	606.918
413.496	21.485	783.495	606.717
414.511	21.522	782.722	606.195
415.526	21.620	782.403	606.231
416.540	21.305	781.986	604.767
417.555	21.113	781.188	603.431
418.569	21.204	780.876	603.451
419.584	21.086	780.232	602.491
420.599	20.974	779.680	601.628
421.613	157.921	1360.563	1794.168
422.628	136.495	1445.211	1794.274
