DTS Sentinel unit serial number:	SN413079Multiplexer serial number:	ORYXHardware model number:	OX4-SRSoftware version number:	ORYX F/W v4.00 Oryx Data Collector v3.7.2.0data status	okinstallation	princeton_trtdifferential loss correction	single-endedforward channel	channel 1reverse channel	N/Adate	2019/09/11time	18:04:11forward acquisition time	60.00reverse acquisition time	0.00gamma	496.2192k internal	0.2291k external	0.2291temperature offset calibration	1.0000default loss term (dB/km)	0.3790temperature slope calibration	1.0000multiplexer offset coefficient	1.0000multiplexer slope coefficient	1.0000fibre end	0.00T internal ref (°C)	44.03T ext. ref 1 (°C)	1.15T ext. ref 2 (°C)	39.03length (m)	temperature (°C)	Stokes	anti-Stokes-747.200	79.615	-0.149	-0.164
-746.185	-200.000	0.016	0.340
-745.171	-200.000	-0.009	0.115
-744.156	-183.450	-0.225	0.004
-743.142	155.155	0.192	0.270
-742.127	-61.343	0.286	0.123
-741.112	241.191	0.074	0.126
-740.098	-104.142	0.062	0.015
-739.083	243.643	-0.066	-0.114
-738.069	669.857	0.112	0.297
-737.054	-110.159	-0.253	0.054
-736.039	51.245	-0.137	0.133
-735.025	-28.314	0.505	-0.299
-734.010	642.266	0.051	-0.133
-732.996	-2.955	0.140	0.100
-731.981	800.000	-0.053	-0.167
-730.966	-101.048	0.259	0.065
-729.952	800.000	-0.060	-0.191
-728.937	-200.000	-0.017	-0.295
-727.923	-66.740	-0.170	-0.069
-726.908	-129.635	-0.181	0.026
-725.894	65.851	0.167	0.173
-724.879	-200.000	-0.037	-0.227
-723.864	118.933	0.024	0.031
-722.850	107.577	-0.089	0.108
-721.835	-200.000	-0.033	0.185
-720.821	-200.000	0.035	-0.331
-719.806	105.348	-0.173	-0.209
-718.791	14.110	0.218	-0.174
-717.777	-122.608	-0.328	0.054
-716.762	246.829	-0.059	-0.102
-715.748	800.000	0.078	-0.267
-714.733	-66.073	-0.150	0.061
-713.718	259.916	0.114	0.201
-712.704	-200.000	0.069	-0.317
-711.689	250.063	-0.138	-0.240
-710.675	-23.139	0.046	-0.028
-709.660	113.995	0.104	-0.129
-708.645	800.000	-0.011	0.039
-707.631	-200.000	-0.033	-0.159
-706.616	511.660	-0.076	-0.181
-705.602	-111.257	-0.062	0.013
-704.587	-142.424	-0.273	-0.028
-703.572	800.000	-0.041	-0.134
-702.558	800.000	0.026	-0.096
-701.543	173.160	-0.072	0.106
-700.529	-102.060	-0.079	-0.019
-699.514	-75.490	-0.086	-0.031
-698.499	10.164	0.045	-0.035
-697.485	93.445	0.212	0.245
-696.470	-62.534	-0.076	0.032
-695.456	274.306	-0.220	0.398
-694.441	-200.000	0.092	0.428
-693.426	-9.277	0.173	-0.118
-692.412	-200.000	0.043	0.308
-691.397	-40.767	-0.144	-0.076
-690.383	-200.000	-0.071	0.435
-689.368	644.763	0.108	-0.281
-688.354	-118.153	-0.248	-0.045
-687.339	-153.896	-0.219	0.015
-686.324	-170.474	-0.052	0.002
-685.310	-41.282	0.156	0.082
-684.295	205.478	0.160	0.254
-683.281	723.429	-0.155	-0.423
-682.266	-81.537	-0.112	-0.038
-681.251	-33.168	-0.369	0.209
-680.237	76.533	0.028	-0.031
-679.222	-82.085	0.109	-0.036
-678.208	797.362	-0.069	0.194
-677.193	-200.000	-0.027	0.148
-676.178	239.608	0.040	0.069
-675.164	-53.744	-0.242	0.113
-674.149	-92.312	0.300	0.086
-673.135	141.915	-0.039	0.053
-672.120	34.572	-0.303	-0.270
-671.105	-41.490	-0.166	-0.087
-670.091	-15.911	-0.294	-0.191
-669.076	-63.860	0.160	0.067
-668.062	-97.344	-0.274	-0.073
-667.047	-125.660	0.366	0.057
-666.032	276.620	-0.111	0.202
-665.018	-111.492	0.173	-0.036
-664.003	125.424	-0.109	0.141
-662.989	-3.210	-0.308	0.219
-661.974	-154.026	-0.187	-0.013
-660.959	325.415	-0.228	-0.445
-659.945	171.680	-0.216	-0.317
-658.930	-200.000	-0.007	-0.280
-657.916	-147.793	0.343	0.029
-656.901	303.397	0.110	-0.208
-655.886	-200.000	0.011	-0.200
-654.872	172.215	-0.086	-0.126
-653.857	37.217	-0.111	0.100
-652.843	-45.424	-0.259	0.131
-651.828	157.661	-0.084	-0.119
-650.814	287.248	-0.192	0.354
-649.799	-177.925	-0.337	-0.008
-648.784	491.267	-0.094	-0.220
-647.770	-200.000	-0.056	-0.320
-646.755	-200.000	-0.004	0.237
-645.741	112.028	0.114	-0.141
-644.726	-74.637	-0.400	0.147
-643.711	348.094	-0.036	-0.072
-642.697	124.129	-0.068	0.087
-641.682	272.982	-0.103	-0.185
-640.668	-26.442	-0.174	0.104
-639.653	21.757	0.122	0.101
-638.638	800.000	0.055	0.218
-637.624	-89.202	0.402	-0.121
-636.609	322.681	0.143	0.277
-635.595	-106.519	-0.020	0.005
-634.580	-200.000	0.009	-0.170
-633.565	-23.653	-0.223	-0.136
-632.551	-66.797	-0.222	0.090
-631.536	-73.868	0.143	0.053
-630.522	-200.000	-0.022	-0.259
-629.507	-45.933	-0.213	0.107
-628.492	800.000	0.038	0.161
-627.478	15.529	-0.063	-0.050
-626.463	634.698	0.049	-0.127
-625.449	-30.746	-0.399	-0.230
-624.434	-200.000	-0.002	0.023
-623.419	35.787	-0.047	-0.042
-622.405	-74.374	-0.233	0.086
-621.390	-200.000	0.039	0.230
-620.376	44.447	0.323	0.302
-619.361	67.884	0.182	-0.190
-618.346	128.064	-0.176	-0.228
-617.332	297.733	0.098	-0.184
-616.317	125.894	-0.186	0.239
-615.303	-59.284	0.256	0.112
-614.288	-200.000	-0.022	0.218
-613.273	-126.175	0.469	0.072
-612.259	-33.766	-0.274	-0.154
-611.244	28.133	-0.120	-0.103
-610.230	-71.830	0.609	-0.231
-609.215	-200.000	-0.013	-0.085
-608.201	-120.498	-0.184	0.032
-607.186	-77.925	0.172	-0.060
-606.171	-98.407	-0.095	0.025
-605.157	-58.046	-0.222	0.099
-604.142	12.376	-0.167	-0.131
-603.128	-200.000	-0.002	-0.010
-602.113	74.823	0.039	0.042
-601.098	-148.653	0.126	-0.010
-600.084	235.840	-0.046	-0.077
-599.069	-200.000	0.025	0.213
-598.055	-15.006	-0.082	0.054
-597.040	-3.845	-0.104	-0.074
-596.025	156.579	-0.045	-0.063
-595.011	17.623	-0.133	-0.108
-593.996	705.001	-0.060	0.162
-592.982	331.863	-0.022	-0.044
-591.967	27.363	0.072	-0.061
-590.952	-113.123	0.097	-0.019
-589.938	155.643	0.178	-0.249
-588.923	-42.455	-0.069	0.036
-587.909	800.000	0.024	-0.086
-586.894	-77.771	0.118	0.041
-585.879	800.000	0.087	-0.333
-584.865	-27.052	0.098	-0.058
-583.850	-200.000	0.018	-0.103
-582.836	-200.000	0.083	-0.525
-581.821	85.148	-0.120	-0.134
-580.806	-36.193	0.118	-0.065
-579.792	106.763	0.046	-0.055
-578.777	621.914	0.148	-0.379
-577.763	-27.047	-0.081	-0.048
-576.748	-156.372	-0.111	0.007
-575.733	-181.355	0.193	0.004
-574.719	3.887	-0.239	-0.178
-573.704	386.092	-0.118	0.248
-572.690	-105.731	0.102	-0.024
-571.675	-50.434	-0.068	-0.033
-570.661	29.890	-0.263	-0.228
-569.646	-200.000	0.016	-0.166
-568.631	1.172	0.126	0.092
-567.617	76.998	-0.281	0.303
-566.602	-200.000	0.071	0.400
-565.588	4.287	0.299	0.223
-564.573	-25.831	0.180	-0.108
-563.558	800.000	-0.093	-0.370
-562.544	-100.165	0.156	0.040
-561.529	-160.660	-0.115	0.006
-560.515	647.123	-0.113	-0.293
-559.500	-102.050	-0.091	-0.022
-558.485	-46.680	0.218	-0.109
-557.471	-135.415	-0.243	0.030
-556.456	-163.784	-0.088	-0.004
-555.442	-184.800	-0.192	-0.003
-554.427	-144.325	-0.311	-0.029
-553.412	-81.795	-0.223	-0.074
-552.398	-63.113	-0.376	0.158
-551.383	-158.707	0.392	-0.023
-550.369	66.266	0.101	0.104
-549.354	-200.000	0.007	0.294
-548.339	-154.792	0.111	-0.007
-547.325	800.000	-0.017	-0.057
-546.310	42.364	0.174	-0.161
-545.296	-200.000	0.004	-0.030
-544.281	52.332	-0.179	0.173
-543.266	302.138	0.157	-0.295
-542.252	-134.648	0.424	-0.052
-541.237	171.684	-0.171	0.250
-540.223	-78.339	0.263	0.092
-539.208	-0.468	0.419	-0.302
-538.193	-86.975	-0.156	0.048
-537.179	107.537	-0.226	0.274
-536.164	242.269	-0.211	0.359
-535.150	-200.000	0.002	0.164
-534.135	174.731	-0.111	-0.164
-533.121	82.852	0.168	0.186
-532.106	-200.000	0.020	-0.440
-531.091	800.000	-0.088	0.291
-530.077	-121.316	-0.134	0.023
-529.062	-158.365	-0.221	0.013
-528.048	-63.800	-0.412	0.171
-527.033	-173.546	0.054	-0.002
-526.018	800.000	0.092	-0.391
-525.004	-41.718	0.317	0.165
-523.989	182.275	-0.154	-0.231
-522.975	119.580	0.167	-0.209
-521.960	-200.000	-0.018	-0.332
-520.945	800.000	0.097	-0.302
-519.931	-18.481	0.265	-0.168
-518.916	-65.464	-0.383	0.156
-517.902	488.601	0.141	0.327
-516.887	-17.495	0.075	-0.048
-515.872	800.000	-0.114	0.323
-514.858	178.650	-0.010	-0.015
-513.843	125.430	0.085	0.109
-512.829	346.869	-0.079	0.158
-511.814	-134.334	0.253	0.032
-510.799	-200.000	0.020	0.115
-509.785	-115.053	-0.010	0.002
-508.770	-127.808	0.253	-0.037
-507.756	195.469	-0.176	0.271
-506.741	-200.000	-0.002	0.206
-505.726	732.069	0.107	0.290
-504.712	-32.323	0.143	-0.081
-503.697	-73.721	0.223	0.082
-502.683	792.001	-0.055	-0.154
-501.668	-200.000	-0.045	-0.000
-500.653	800.000	-0.141	-0.405
-499.639	416.212	-0.103	-0.223
-498.624	86.169	0.090	-0.101
-497.610	-200.000	-0.055	-0.329
-496.595	38.633	0.207	-0.187
-495.581	-66.604	-0.306	-0.123
-494.566	800.000	-0.011	-0.035
-493.551	227.375	0.173	0.286
-492.537	-57.725	-0.262	-0.116
-491.522	158.058	0.053	0.075
-490.508	-47.003	0.320	-0.158
-489.493	339.200	-0.051	-0.101
-488.478	800.000	0.030	-0.108
-487.464	188.514	-0.126	0.190
-486.449	264.191	-0.086	-0.151
-485.435	238.284	-0.016	-0.026
-484.420	-144.198	0.014	0.001
-483.405	-200.000	0.004	-0.264
-482.391	250.120	0.170	-0.292
-481.376	14.711	0.141	0.112
-480.362	800.000	-0.066	-0.224
-479.347	90.944	-0.126	-0.143
-478.332	-200.000	-0.067	-0.319
-477.318	399.395	0.118	0.251
-476.303	90.749	-0.227	0.258
-475.289	114.382	-0.148	0.183
-474.274	81.720	0.297	-0.326
-473.259	594.601	0.079	-0.197
-472.245	-9.824	-0.042	0.028
-471.230	101.442	-0.305	0.360
-470.216	-200.000	-0.086	0.425
-469.201	8.170	-0.141	0.107
-468.186	86.317	-0.275	-0.307
-467.172	169.378	0.121	-0.174
-466.157	-64.443	-0.250	0.103
-465.143	130.499	0.031	-0.041
-464.128	-200.000	0.006	0.349
-463.113	-200.000	0.013	0.265
-462.099	-152.664	0.127	-0.009
-461.084	-200.000	-0.000	-0.030
-460.070	-49.264	-0.023	-0.011
-459.055	135.636	-0.096	-0.126
-458.040	342.797	0.135	0.268
-457.026	-65.937	0.162	0.066
-456.011	-200.000	0.021	-0.113
-454.997	-65.740	0.142	0.057
-453.982	-21.558	-0.248	-0.153
-452.968	-187.622	-0.270	-0.004
-451.953	24.669	0.067	0.056
-450.938	-152.157	-0.369	-0.027
-449.924	-200.000	-0.019	-0.086
-448.909	-200.000	-0.010	0.555
-447.895	-200.000	0.005	-0.117
-446.880	19.350	0.177	-0.144
-445.865	27.290	0.323	0.275
-444.851	-200.000	0.012	0.100
-443.836	-34.936	-0.143	-0.079
-442.822	-200.000	-0.013	-0.220
-441.807	-200.000	-0.023	-0.166
-440.792	-64.652	-0.080	0.033
-439.778	-200.000	0.062	0.282
-438.763	160.135	0.228	0.322
-437.749	-200.000	0.003	0.170
-436.734	-46.365	-0.245	0.122
-435.719	-43.410	-0.397	-0.203
-434.705	116.786	0.198	-0.246
-433.690	-168.252	0.470	-0.018
-432.676	-200.000	-0.133	0.000
-431.661	-62.051	0.215	0.091
-430.646	-62.900	0.164	-0.068
-429.632	25.580	0.204	-0.172
-428.617	396.109	0.091	0.192
-427.603	-67.515	0.119	-0.047
-426.588	-200.000	0.011	0.192
-425.573	41.787	0.043	-0.039
-424.559	-17.373	0.056	0.035
-423.544	800.000	-0.022	-0.065
-422.530	65.861	-0.294	0.301
-421.515	-133.291	-0.443	0.057
-420.500	12.367	0.071	-0.055
-419.486	-36.062	0.163	0.089
-418.471	-89.254	-0.183	0.055
-417.457	26.874	0.113	-0.096
-416.442	45.616	-0.243	-0.227
-415.428	-200.000	-0.027	-0.235
-414.413	-200.000	0.016	-0.075
-413.398	-100.439	0.117	-0.029
-412.384	110.208	0.316	0.384
-411.369	482.857	0.175	0.402
-410.355	428.178	-0.078	0.169
-409.340	73.490	-0.086	0.091
-408.325	-91.908	0.312	-0.090
-407.311	48.895	-0.055	0.053
-406.296	108.987	0.029	-0.035
-405.282	260.657	0.130	0.227
-404.267	-200.000	0.066	0.329
-403.252	-114.159	0.157	-0.031
-402.238	800.000	-0.065	0.282
-401.223	1.329	-0.208	-0.151
-400.209	-101.064	0.291	0.072
-399.194	-110.755	0.524	-0.109
-398.179	800.000	0.048	-0.188
-397.165	233.822	0.131	0.218
-396.150	-126.821	-0.200	-0.030
-395.136	194.027	0.114	-0.174
-394.121	-200.000	0.011	-0.078
-393.106	405.430	0.125	-0.267
-392.092	289.429	0.090	0.165
-391.077	599.331	-0.160	0.401
-390.063	-7.382	-0.121	-0.083
-389.048	-83.737	-0.076	-0.025
-388.033	146.294	0.048	-0.065
-387.019	-200.000	0.055	0.346
-386.004	-27.325	0.216	-0.127
-384.990	69.327	-0.371	0.386
-383.975	-48.828	-0.145	-0.070
-382.960	15.252	-0.325	-0.257
-381.946	800.000	-0.056	-0.188
-380.931	159.392	0.286	-0.402
-379.917	-90.707	-0.236	-0.069
-378.902	-200.000	-0.008	0.044
-377.888	-86.851	-0.175	0.054
-376.873	-2.553	-0.393	0.278
-375.858	-200.000	-0.020	0.244
-374.844	24.247	-0.111	-0.092
-373.829	-71.142	-0.348	-0.132
-372.815	-127.329	-0.259	0.038
-371.800	-172.091	-0.198	-0.006
-370.785	49.950	0.157	-0.150
-369.771	88.301	-0.224	0.251
-368.756	-131.381	0.113	0.015
-367.742	-101.381	0.102	-0.025
-366.727	-147.798	-0.230	-0.019
-365.712	-105.529	0.063	0.014
-364.698	-111.101	0.260	-0.054
-363.683	-42.773	0.093	-0.048
-362.669	-48.914	0.248	0.120
-361.654	-41.758	-0.132	0.068
-360.639	345.366	-0.068	0.134
-359.625	385.820	0.138	-0.288
-358.610	546.822	-0.080	-0.194
-357.596	294.271	-0.017	0.032
-356.581	-200.000	-0.069	0.409
-355.566	271.978	-0.098	0.174
-354.552	-200.000	0.076	-0.349
-353.537	-200.000	0.019	-0.088
-352.523	171.947	-0.185	-0.268
-351.508	-169.520	0.155	-0.006
-350.493	-200.000	0.027	0.291
-349.479	800.000	0.092	0.307
-348.464	-103.352	0.157	-0.037
-347.450	-126.245	-0.235	0.035
-346.435	-200.000	0.011	0.063
-345.420	-200.000	-0.029	-0.258
-344.406	-55.177	-0.180	-0.082
-343.391	-189.812	-0.083	-0.001
-342.377	-89.643	0.126	0.037
-341.362	-98.594	0.059	0.015
-340.348	-200.000	0.023	0.209
-339.333	280.601	-0.233	0.421
-338.318	-26.427	0.102	0.060
-337.304	-40.363	-0.277	0.145
-336.289	800.000	-0.039	-0.161
-335.275	800.000	0.093	0.264
-334.260	-200.000	0.016	-0.245
-333.245	-44.086	0.275	0.139
-332.231	800.000	0.062	-0.256
-331.216	151.683	-0.109	-0.150
-330.202	-134.342	-0.177	0.022
-329.187	-149.602	0.094	0.008
-328.172	-200.000	0.045	0.330
-327.158	800.000	0.028	-0.091
-326.143	-85.126	0.493	-0.156
-325.129	458.627	-0.201	0.451
-324.114	134.770	-0.023	0.030
-323.099	-154.795	-0.083	-0.006
-322.085	92.445	0.055	-0.062
-321.070	-200.000	0.015	0.137
-320.056	315.402	0.073	0.139
-319.041	-28.655	-0.249	0.144
-318.026	-200.000	0.034	0.163
-317.012	55.594	-0.108	0.105
-315.997	-200.000	-0.018	0.190
-314.983	-200.000	-0.020	-0.126
-313.968	-88.808	0.273	0.082
-312.953	-200.000	-0.021	-0.180
-311.939	800.000	-0.040	-0.146
-310.924	-48.960	0.364	0.176
-309.910	-200.000	0.031	-0.292
-308.895	-102.674	0.265	0.064
-307.880	800.000	0.078	0.297
-306.866	-60.701	0.080	-0.034
-305.851	-67.990	-0.239	-0.094
-304.837	-95.206	-0.156	-0.042
-303.822	800.000	-0.052	0.160
-302.807	-92.707	-0.237	0.067
-301.793	800.000	0.084	0.252
-300.778	60.372	0.199	-0.199
-299.764	-108.161	-0.245	-0.053
-298.749	693.382	-0.057	0.149
-297.735	11.398	-0.188	0.145
-296.720	-200.000	0.027	0.000
-295.705	-120.780	-0.062	-0.011
-294.691	800.000	-0.123	0.386
-293.676	96.371	0.201	-0.232
-292.662	126.191	0.156	-0.198
-291.647	741.881	0.112	-0.302
-290.632	-68.362	0.124	0.048
-289.618	-162.252	0.278	0.014
-288.603	-200.000	-0.075	-0.371
-287.589	97.699	0.139	0.160
-286.574	12.728	0.107	-0.083
-285.559	20.059	0.215	-0.175
-284.545	24.818	-0.066	-0.055
-283.530	-122.689	-0.230	0.038
-282.516	296.083	0.035	-0.064
-281.501	23.594	0.104	0.086
-280.486	-27.624	0.200	0.117
-279.472	-94.042	0.414	0.114
-278.457	518.277	0.133	0.313
-277.443	63.989	-0.196	0.198
-276.428	800.000	0.048	-0.134
-275.413	-130.812	0.082	0.011
-274.399	195.266	0.123	0.187
-273.384	10.475	-0.157	0.120
-272.370	7.484	0.286	0.215
-271.355	251.674	0.399	0.682
-270.340	5.367	0.091	0.068
-269.326	-107.938	0.360	-0.079
-268.311	40.953	0.036	-0.032
-267.297	71.345	-0.161	0.168
-266.282	-200.000	0.000	-0.053
-265.267	800.000	0.057	-0.183
-264.253	197.013	-0.124	-0.189
-263.238	-110.296	-0.135	-0.028
-262.224	-200.000	0.016	-0.101
-261.209	311.576	-0.038	0.071
-260.195	154.347	0.118	0.163
-259.180	95.309	-0.252	-0.289
-258.165	-200.000	-0.033	-0.216
-257.151	242.411	-0.143	-0.241
-256.136	750.007	0.087	-0.235
-255.122	-178.569	0.102	-0.002
-254.107	-112.905	-0.065	-0.013
-253.092	472.580	0.064	-0.145
-252.078	-200.000	0.011	-0.322
-251.063	800.000	0.049	-0.212
-250.049	38.357	-0.117	0.105
-249.034	-99.259	0.345	-0.088
-248.019	-127.793	0.162	-0.024
-247.005	-200.000	-0.037	0.186
-245.990	660.350	-0.081	0.209
-244.976	250.520	-0.074	0.127
-243.961	-1.129	0.085	0.060
-242.946	3.198	-0.230	-0.168
-241.932	162.875	-0.149	-0.211
-240.917	800.000	-0.051	-0.202
-239.903	-200.000	0.010	0.202
-238.888	-158.370	-0.219	0.013
-237.873	800.000	0.090	-0.303
-236.859	-179.013	-0.289	0.007
-235.844	-103.932	0.226	0.053
-234.830	-200.000	-0.004	-0.066
-233.815	-91.285	-0.135	-0.039
-232.800	-117.535	0.206	-0.037
-231.786	-200.000	-0.018	-0.114
-230.771	68.812	-0.251	0.259
-229.757	-97.945	-0.113	-0.029
-228.742	800.000	-0.032	-0.101
-227.727	32.033	0.176	-0.152
-226.713	-200.000	0.013	0.209
-225.698	95.115	0.040	0.046
-224.684	353.012	0.075	-0.150
-223.669	46.449	0.212	0.198
-222.655	-41.612	-0.401	-0.207
-221.640	529.422	0.178	-0.421
-220.625	-123.921	0.211	0.033
-219.611	140.712	-0.058	-0.077
-218.596	-140.445	0.241	-0.025
-217.582	-153.571	-0.138	0.010
-216.567	-134.898	-0.043	0.005
-215.552	800.000	-0.083	-0.237
-214.538	433.567	-0.220	-0.479
-213.523	340.667	0.078	-0.152
-212.509	-200.000	0.060	0.355
-211.494	248.142	-0.160	0.272
-210.479	753.628	0.031	0.083
-209.465	337.155	-0.100	-0.195
-208.450	-21.211	-0.076	0.047
-207.436	132.381	-0.112	-0.145
-206.421	800.000	-0.054	-0.164
-205.406	155.553	0.072	-0.099
-204.392	-156.266	0.078	0.005
-203.377	121.693	0.143	0.179
-202.363	340.270	-0.042	-0.082
-201.348	-200.000	-0.036	0.328
-200.333	-34.763	0.159	0.087
-199.319	-200.000	0.021	-0.174
-198.304	-121.199	0.470	-0.079
-197.290	-22.866	-0.180	0.109
-196.275	-35.523	-0.189	0.103
-195.260	62.696	0.061	0.061
-194.246	-52.545	0.082	-0.038
-193.231	-200.000	-0.054	-0.398
-192.217	800.000	-0.022	0.074
-191.202	-85.741	0.162	-0.050
-190.187	-73.234	0.291	-0.107
-189.173	328.249	-0.042	-0.080
-188.158	-41.697	-0.152	0.078
-187.144	-200.000	0.002	-0.289
-186.129	-75.372	-0.130	-0.047
-185.114	-118.747	-0.254	-0.045
-184.100	-150.974	-0.026	-0.002
-183.085	27.665	-0.143	-0.121
-182.071	109.545	0.127	0.152
-181.056	325.313	-0.092	-0.177
-180.042	158.448	-0.158	-0.220
-179.027	-135.434	0.368	-0.044
-178.012	508.577	0.036	-0.084
-176.998	-19.568	0.222	0.138
-175.983	-95.099	-0.096	0.026
-174.969	63.013	0.042	-0.042
-173.954	800.000	0.029	0.097
-172.939	218.030	-0.075	0.120
-171.925	-7.082	-0.382	0.259
-170.910	108.921	-0.375	0.449
-169.896	-28.161	-0.169	-0.098
-168.881	216.710	-0.115	-0.183
-167.866	-70.931	-0.291	-0.110
-166.852	389.666	-0.181	0.376
-165.837	-200.000	-0.023	0.214
-164.823	-84.917	-0.196	0.062
-163.808	64.689	-0.028	0.028
-162.793	-104.117	0.121	-0.028
-161.779	-47.774	0.490	0.238
-160.764	-11.061	0.282	0.186
-159.750	16.645	0.210	-0.166
-158.735	33.622	0.071	-0.062
-157.720	168.257	-0.069	0.098
-156.706	41.445	0.104	0.094
-155.691	160.805	-0.265	-0.370
-154.677	-74.725	0.268	-0.096
-153.662	25.258	-0.085	0.071
-152.647	63.311	0.087	0.087
-151.633	524.592	-0.105	0.248
-150.618	-16.497	0.101	0.064
-149.604	423.712	0.124	0.267
-148.589	76.082	0.068	0.072
-147.574	-139.583	0.276	0.030
-146.560	-200.000	-0.009	0.384
-145.545	-200.000	0.039	-0.205
-144.531	-134.217	0.168	-0.021
-143.516	-30.909	-0.347	0.196
-142.502	215.802	0.138	-0.219
-141.487	-66.750	0.241	0.095
-140.472	-79.124	0.423	0.144
-139.458	541.238	0.178	-0.423
-138.443	-200.000	0.029	-0.186
-137.429	-62.256	0.146	0.061
-136.414	-39.136	-0.036	-0.019
-135.399	-70.773	0.213	-0.081
-134.385	18.655	-0.136	0.109
-133.370	-60.252	-0.404	0.172
-132.356	-10.450	0.507	0.336
-131.341	-130.996	0.074	-0.010
-130.326	-183.029	-0.295	-0.005
-129.312	-37.966	-0.109	-0.058
-128.297	28.489	0.088	0.075
-127.283	634.490	0.120	0.304
-126.268	-200.000	0.018	-0.129
-125.253	358.779	-0.129	-0.258
-124.239	-19.622	-0.182	0.113
-123.224	-153.605	0.232	-0.016
-122.210	558.862	0.080	-0.192
-121.195	51.814	0.130	0.124
-120.180	15.607	-0.202	-0.158
-119.166	-48.304	0.118	-0.057
-118.151	461.679	-0.091	-0.203
-117.137	11.337	-0.057	0.044
-116.122	-41.630	0.183	-0.094
-115.107	234.779	-0.118	0.194
-114.093	274.752	0.233	-0.412
-113.078	-129.461	-0.317	-0.044
-112.064	800.000	0.034	0.132
-111.049	-50.726	0.187	-0.088
-110.034	-81.747	-0.207	-0.068
-109.020	279.643	-0.048	-0.086
-108.005	-27.627	0.289	-0.168
-106.991	800.000	-0.049	-0.158
-105.976	-173.189	0.085	0.003
-104.962	800.000	0.031	0.126
-103.947	-200.000	0.090	0.461
-102.932	-182.311	-0.216	-0.004
-101.918	496.363	0.128	0.293
-100.903	-145.476	0.238	0.021
-99.889	-134.375	0.231	0.028
-98.874	-89.491	-0.241	-0.071
-97.859	93.079	0.130	-0.147
-96.845	-185.223	0.307	-0.005
-95.830	608.385	0.072	0.180
-94.816	-141.337	-0.135	0.014
-93.801	151.491	0.292	-0.397
-92.786	467.489	0.177	0.397
-91.772	-27.594	-0.062	-0.036
-90.757	800.000	-0.048	-0.135
-89.743	22.591	-0.079	0.065
-88.728	-160.823	0.447	-0.024
-87.713	91.634	0.120	-0.135
-86.699	-74.235	-0.217	-0.078
-85.684	800.000	0.110	-0.313
-84.670	238.202	0.105	-0.174
-83.655	-141.791	0.013	0.001
-82.640	-54.476	0.117	-0.053
-81.626	800.000	-0.137	-0.405
-80.611	-200.000	-0.002	-0.173
-79.597	25.091	0.213	-0.177
-78.582	-200.000	0.021	-0.251
-77.567	388.900	-0.134	0.277
-76.553	293.872	0.210	0.383
-75.538	25.339	-0.105	0.087
-74.524	281.280	0.159	0.283
-73.509	51.624	0.122	-0.115
-72.494	172.053	0.190	0.273
-71.480	171.436	0.006	-0.009
-70.465	-170.225	0.388	-0.014
-69.451	-200.000	-0.019	-0.211
-68.436	-164.282	-0.414	-0.019
-67.422	-200.000	-0.007	-0.316
-66.407	-72.734	-0.188	0.069
-65.392	300.260	-0.126	0.231
-64.378	-47.381	0.245	-0.119
-63.363	-200.000	-0.024	0.412
-62.349	197.506	-0.164	0.249
-61.334	36.951	-0.795	-0.702
-60.319	-92.128	0.300	0.085
-59.305	800.000	-0.048	-0.146
-58.290	27.680	0.481	0.404
-57.276	555.365	0.614	1.473
-56.261	-200.000	70.933	524.726
-55.246	609.775	1267.656	3156.608
-54.232	147.673	2489.191	3343.776
-53.217	123.764	2224.102	2782.714
-52.203	57.170	1669.396	1623.282
-51.188	48.470	1385.678	1293.692
-50.173	44.273	1337.803	1223.729
-49.159	61.858	1368.610	1358.916
-48.144	70.560	1387.901	1430.672
-47.130	48.425	1351.946	1261.731
-46.115	44.090	1335.742	1220.547
-45.100	43.951	1330.856	1215.198
-44.086	43.918	1328.439	1212.746
-43.071	43.849	1325.480	1209.589
-42.057	43.776	1324.056	1207.804
-41.042	43.730	1322.253	1205.837
-40.027	43.893	1320.572	1205.228
-39.013	43.958	1318.363	1203.548
-37.998	43.903	1316.976	1201.910
-36.984	43.974	1314.960	1200.443
-35.969	44.079	1313.369	1199.564
-34.954	44.144	1311.790	1198.454
-33.940	44.175	1310.111	1197.057
-32.925	44.203	1308.749	1195.930
-31.911	44.199	1307.047	1194.302
-30.896	44.103	1306.024	1192.756
-29.881	44.091	1304.513	1191.262
-28.867	44.180	1302.868	1190.230
-27.852	44.180	1301.213	1188.671
-26.838	44.033	1300.008	1186.665
-25.823	44.154	1298.295	1185.760
-24.809	44.126	1297.161	1184.517
-23.794	43.961	1296.080	1182.518
-22.779	44.065	1294.216	1181.376
-21.765	44.212	1292.534	1180.647
-20.750	44.064	1292.036	1179.286
-19.736	44.105	1289.931	1177.556
-18.721	44.096	1288.869	1176.491
-17.706	43.954	1287.956	1174.785
-16.692	44.003	1286.635	1173.818
-15.677	43.906	1286.102	1172.722
-14.663	43.921	1284.602	1171.393
-13.648	43.924	1283.455	1170.324
-12.633	43.998	1282.397	1169.735
-11.619	44.019	1281.690	1169.169
-10.604	43.978	1280.623	1167.910
-9.590	43.967	1279.727	1166.986
-8.575	43.895	1278.624	1165.519
-7.560	43.877	1277.843	1164.654
-6.546	43.958	1276.893	1164.208
-5.531	43.907	1275.617	1162.710
-4.517	43.933	1275.146	1162.383
-3.502	43.988	1274.142	1161.734
-2.487	43.891	1273.394	1160.449
-1.473	44.007	1269.448	1157.472
-0.458	43.022	1254.628	1138.352
0.556	38.183	1233.803	1094.077
1.571	33.690	1235.526	1070.233
2.586	32.186	1249.564	1073.713
3.600	30.503	1239.317	1055.264
4.615	21.690	1161.532	941.799
5.629	7.869	1075.939	803.023
6.644	1.598	1050.107	752.717
7.659	1.194	1047.383	748.706
8.673	0.942	1046.137	746.506
9.688	0.868	1044.561	744.951
10.702	1.366	1043.684	746.708
11.717	8.775	1054.964	791.430
12.731	19.680	1070.366	857.306
13.746	23.632	1074.254	879.977
14.761	23.596	1074.418	879.856
15.775	23.673	1073.711	879.578
16.790	23.490	1072.520	877.617
17.804	23.416	1072.106	876.836
18.819	23.459	1071.499	876.478
19.834	23.438	1071.190	876.043
20.848	23.618	1070.419	876.219
21.863	23.707	1069.569	875.889
22.877	23.412	1069.474	874.279
23.892	23.422	1068.809	873.706
24.907	23.450	1068.168	873.244
25.921	23.471	1066.968	872.286
26.936	23.444	1065.788	871.112
27.950	23.453	1064.063	869.670
28.965	23.249	1062.573	867.377
29.980	23.373	1060.569	866.271
30.994	23.596	1060.006	866.821
32.009	23.629	1058.933	866.029
33.023	23.354	1057.765	863.655
34.038	23.390	1057.138	863.246
35.053	23.530	1056.604	863.414
36.067	23.530	1055.347	862.309
37.082	23.661	1054.443	862.134
38.096	23.748	1053.998	862.114
39.111	23.816	1053.362	861.848
40.126	23.602	1052.095	859.698
41.140	23.285	1050.335	856.649
42.155	23.134	1048.566	854.401
43.169	23.023	1048.343	853.611
44.184	23.137	1046.995	852.987
45.199	23.101	1045.830	851.790
46.213	23.093	1044.912	850.925
47.228	23.283	1044.065	851.076
48.242	23.398	1043.102	850.764
49.257	23.484	1042.694	850.772
50.271	23.560	1041.634	850.195
51.286	23.605	1040.949	849.774
52.301	23.585	1040.115	848.924
53.315	23.628	1039.092	848.217
54.330	23.493	1037.678	846.347
55.344	23.543	1037.341	846.237
56.359	23.507	1036.139	845.009
57.374	23.315	1035.113	843.182
58.388	23.356	1034.579	842.866
59.403	23.253	1033.877	841.732
60.417	23.076	1032.906	840.025
61.432	23.230	1032.629	840.457
62.447	23.319	1031.788	840.122
63.461	23.316	1031.006	839.397
64.476	23.203	1029.925	837.906
65.490	23.168	1028.983	836.900
66.505	23.185	1028.220	836.284
67.520	23.115	1027.904	835.625
68.534	22.998	1027.081	834.327
69.549	22.728	1025.568	831.755
70.563	22.779	1025.035	831.489
71.578	22.754	1023.684	830.202
72.593	22.716	1022.773	829.210
73.607	22.796	1022.169	829.023
74.622	23.136	1021.547	830.042
75.636	23.281	1020.913	830.132
76.651	22.988	1020.157	828.070
77.666	22.806	1019.622	826.712
78.680	22.804	1019.270	826.341
79.695	23.041	1018.311	826.602
80.709	23.065	1017.868	826.280
81.724	23.138	1016.752	825.641
82.739	23.221	1015.701	825.101
83.753	23.510	1015.606	826.300
84.768	23.986	1014.021	827.149
85.782	23.858	1014.283	826.694
86.797	23.794	1012.831	825.140
87.812	23.594	1012.028	823.484
88.826	23.727	1010.956	823.156
89.841	23.872	1010.084	823.045
90.855	23.975	1008.892	822.478
91.870	23.824	1007.942	820.934
92.884	23.550	1007.251	819.035
93.899	23.549	1006.212	818.112
94.914	23.804	1005.020	818.244
95.928	23.751	1003.751	816.897
96.943	23.402	1002.845	814.481
97.957	23.169	1001.844	812.528
98.972	23.041	1000.323	810.633
99.987	23.242	999.874	811.118
101.001	23.560	999.114	811.887
102.016	23.616	998.164	811.298
103.030	23.488	997.180	809.843
104.045	23.272	996.513	808.244
105.060	23.162	995.257	806.652
106.074	23.258	994.887	806.717
107.089	23.632	993.870	807.523
108.103	23.532	993.304	806.539
109.118	23.324	991.804	804.306
110.133	23.259	990.865	803.179
111.147	23.071	989.772	801.367
112.162	23.031	988.966	800.464
113.176	23.149	988.224	800.326
114.191	23.148	987.310	799.509
115.206	22.893	985.931	797.173
116.220	22.800	985.454	796.299
117.235	22.956	984.507	796.163
118.249	22.956	983.507	795.283
119.264	22.776	983.006	793.998
120.279	22.947	982.297	794.125
121.293	23.020	981.609	793.825
122.308	23.061	980.279	792.864
123.322	22.950	979.185	791.415
124.337	22.870	978.027	790.048
125.352	22.504	976.337	786.978
126.366	22.240	975.566	785.109
127.381	23.030	975.367	788.407
128.395	23.490	975.262	790.301
129.410	23.503	974.658	789.801
130.424	23.458	973.503	788.591
131.439	23.545	972.864	788.394
132.454	23.500	971.648	787.136
133.468	23.511	970.561	786.236
134.483	23.619	970.075	786.253
135.497	23.839	969.370	786.582
136.512	23.891	968.540	786.073
137.527	23.880	967.867	785.407
138.541	23.838	967.234	784.637
139.556	23.819	966.255	783.688
140.570	23.864	965.673	783.348
141.585	23.792	964.989	782.408
142.600	23.867	963.293	781.293
143.614	24.074	962.687	781.642
144.629	24.137	962.422	781.634
145.643	23.882	960.817	779.143
146.658	23.779	959.724	777.738
147.673	23.668	958.730	776.375
148.687	23.620	957.744	775.298
149.702	23.675	955.992	774.053
150.716	23.566	955.626	773.214
151.731	23.656	955.206	773.198
152.746	23.970	954.361	773.810
153.760	23.774	954.186	772.747
154.775	23.883	953.114	772.283
155.789	23.968	951.988	771.672
156.804	23.824	951.712	770.757
157.819	23.884	951.092	770.445
158.833	23.920	950.273	769.869
159.848	24.035	949.160	769.396
160.862	23.958	947.783	767.881
161.877	23.882	947.174	766.993
162.892	23.869	946.165	766.052
163.906	23.994	944.326	765.034
164.921	23.898	943.561	763.932
165.935	24.001	942.904	763.773
166.950	23.974	942.238	763.050
167.964	23.867	941.250	761.726
168.979	23.809	939.895	760.311
169.994	23.658	938.895	758.792
171.008	23.907	938.901	759.794
172.023	23.846	938.272	758.959
173.037	23.686	936.956	757.142
174.052	23.677	935.802	756.107
175.067	23.515	935.453	755.067
176.081	23.604	935.240	755.207
177.096	23.785	934.229	755.092
178.110	23.415	933.447	752.823
179.125	23.303	932.371	751.415
180.140	23.380	931.845	751.249
181.154	23.383	931.918	751.253
182.169	23.670	931.811	752.318
183.183	23.950	931.110	752.869
184.198	23.921	930.376	752.089
185.213	23.730	929.746	750.706
186.227	23.831	929.211	750.633
187.242	23.708	928.418	749.408
188.256	23.931	927.346	749.415
189.271	24.061	926.994	749.612
190.286	23.744	925.214	746.774
191.300	23.188	924.353	743.676
192.315	22.370	922.676	738.829
193.329	22.229	922.492	738.024
194.344	23.205	922.632	742.165
195.359	23.685	922.761	744.215
196.373	23.984	922.192	744.945
197.388	23.710	921.456	743.139
198.402	23.640	920.994	742.404
199.417	23.757	920.163	742.160
200.432	23.593	919.277	740.696
201.446	23.383	918.586	739.196
202.461	23.363	918.389	738.890
203.475	22.600	916.903	734.453
204.490	21.866	914.847	729.687
205.504	22.727	915.081	733.391
206.519	23.532	914.888	736.516
207.534	23.362	915.162	735.963
208.548	23.706	914.490	736.783
209.563	23.626	913.638	735.703
210.577	23.613	912.595	734.743
211.592	23.998	912.362	736.085
212.607	24.023	911.420	735.363
213.621	24.033	910.802	734.838
214.636	23.864	910.625	733.934
215.650	23.933	909.431	733.190
216.665	24.036	908.768	733.016
217.680	24.019	908.018	732.275
218.694	23.625	906.624	729.469
219.709	23.409	906.292	728.250
220.723	23.600	906.150	728.854
221.738	23.779	905.246	728.799
222.753	23.668	904.713	727.848
223.767	23.939	904.337	728.594
224.782	24.147	903.789	728.939
225.796	24.135	903.270	728.407
226.811	23.584	901.678	724.807
227.826	22.798	900.703	720.750
228.840	22.876	900.468	720.820
229.855	22.973	899.632	720.479
230.869	22.780	898.336	718.595
231.884	23.078	898.252	719.675
232.899	23.739	898.683	722.649
233.913	23.572	898.298	721.595
234.928	23.693	897.308	721.226
235.942	23.675	896.718	720.616
236.957	23.285	895.932	718.338
237.972	23.460	895.288	718.470
238.986	23.459	895.082	718.236
240.001	23.537	894.073	717.678
241.015	23.629	893.741	717.718
242.030	23.619	893.241	717.213
243.045	23.794	892.728	717.444
244.059	23.830	892.536	717.373
245.074	23.643	891.477	715.706
246.088	23.522	890.199	714.126
247.103	23.647	889.741	714.202
248.117	24.174	890.070	716.522
249.132	24.424	889.653	717.127
250.147	24.522	888.897	716.846
251.161	24.737	888.495	717.323
252.176	24.793	887.895	716.998
253.190	24.719	887.635	716.430
254.205	24.873	886.896	716.385
255.220	24.936	886.276	716.073
256.234	24.740	885.683	714.749
257.249	24.575	884.855	713.358
258.263	24.580	884.184	712.773
259.278	24.701	883.418	712.575
260.293	24.770	882.615	712.141
261.307	24.681	882.252	711.430
262.322	24.499	881.363	709.926
263.336	23.795	879.508	705.573
264.351	22.712	877.784	699.834
265.366	22.786	877.281	699.664
266.380	23.802	878.075	704.266
267.395	24.287	877.730	705.846
268.409	24.360	877.101	705.567
269.424	24.440	876.682	705.484
270.439	24.501	876.011	705.122
271.453	24.611	875.212	704.852
272.468	24.737	874.777	704.935
273.482	24.800	874.404	704.822
274.497	24.408	873.516	702.500
275.512	24.079	872.408	700.252
276.526	24.228	872.934	701.200
277.541	24.454	872.186	701.424
278.555	24.370	871.247	700.278
279.570	24.248	870.198	698.894
280.585	24.364	869.804	698.968
281.599	24.499	868.749	698.590
282.614	23.633	868.253	694.739
283.628	23.604	867.747	694.159
284.643	24.150	867.045	695.670
285.657	23.853	865.930	693.555
286.672	23.343	865.207	690.926
287.687	23.975	865.420	693.500
288.701	24.164	864.697	693.596
289.716	23.774	864.034	691.483
290.730	23.626	863.160	690.149
291.745	23.408	862.504	688.715
292.760	23.761	862.070	689.679
293.774	24.568	862.698	693.253
294.789	25.119	862.049	694.807
295.803	25.018	861.906	694.239
296.818	25.122	860.873	693.747
297.833	24.754	859.887	691.468
298.847	24.432	859.099	689.532
299.862	24.947	858.939	691.331
300.876	25.130	858.758	691.831
301.891	24.999	858.038	690.683
302.906	24.410	857.167	687.652
303.920	24.586	857.065	688.187
304.935	24.909	856.669	689.051
305.949	24.954	855.807	688.471
306.964	24.787	855.010	687.126
307.979	24.865	854.887	687.265
308.993	25.181	854.631	688.214
310.008	24.958	854.240	686.980
311.022	24.990	852.967	686.022
312.037	24.844	852.257	684.830
313.052	24.553	851.100	682.727
314.066	23.721	849.636	678.318
315.081	23.372	848.990	676.409
316.095	24.163	849.302	679.615
317.110	24.748	849.527	681.969
318.125	23.938	847.752	677.400
319.139	22.846	846.422	672.121
320.154	22.821	845.917	671.565
321.168	23.651	846.489	675.120
322.183	24.296	846.827	677.781
323.197	24.649	846.178	678.544
324.212	24.723	846.027	678.643
325.227	24.932	845.256	678.758
326.241	24.769	844.286	677.301
327.256	24.613	844.041	676.452
328.270	24.615	842.755	675.370
329.285	24.363	842.062	673.802
330.300	24.152	841.381	672.401
331.314	24.411	841.037	673.045
332.329	24.743	840.907	674.135
333.343	24.997	840.693	674.857
334.358	24.775	840.503	673.810
335.373	24.898	839.998	673.811
336.387	25.277	839.928	675.121
337.402	25.290	839.968	675.141
338.416	25.238	839.259	674.316
339.431	25.392	838.962	674.594
340.446	25.423	838.760	674.492
341.460	25.430	838.178	673.988
342.475	25.210	837.683	672.707
343.489	25.227	837.393	672.476
344.504	25.552	837.161	673.450
345.519	25.812	836.405	673.752
346.533	25.674	836.293	673.087
347.548	25.891	835.567	673.254
348.562	25.653	835.050	671.891
349.577	25.701	834.373	671.466
350.592	25.682	833.605	670.717
351.606	25.614	832.571	669.571
352.621	25.596	831.900	668.906
353.635	25.411	831.316	667.689
354.650	24.736	830.055	664.112
355.665	23.911	828.402	659.671
356.679	24.254	828.127	660.666
357.694	24.791	827.557	662.140
358.708	24.571	827.338	661.094
359.723	25.108	826.991	662.744
360.738	25.356	826.635	663.317
361.752	25.511	826.610	663.809
362.767	25.863	826.258	664.769
363.781	26.131	825.801	665.327
364.796	26.100	825.602	664.993
365.810	26.146	825.009	664.627
366.825	26.036	824.963	664.126
367.840	25.816	823.924	662.424
368.854	25.374	822.798	659.834
369.869	25.485	822.413	659.876
370.883	25.463	821.737	659.194
371.898	25.381	821.543	658.682
372.913	25.382	821.494	658.586
373.927	25.582	820.852	658.746
374.942	25.743	820.440	658.944
375.956	25.781	820.218	658.848
376.971	25.832	820.294	659.039
377.986	26.059	819.638	659.283
379.000	26.089	818.688	658.567
380.015	25.950	818.186	657.602
381.029	25.961	817.486	657.021
382.044	26.016	817.194	656.927
383.059	26.112	816.662	656.790
384.073	26.064	816.161	656.154
385.088	26.028	815.360	655.322
386.102	25.718	814.958	653.815
387.117	25.879	813.850	653.452
388.132	25.412	813.089	651.089
389.146	25.069	811.958	648.888
390.161	25.324	811.645	649.501
391.175	25.891	811.614	651.469
392.190	25.516	810.810	649.412
393.205	24.214	808.701	642.972
394.219	22.727	806.885	636.114
395.234	22.491	806.882	635.204
396.248	24.076	808.257	641.950
397.263	25.767	808.970	648.556
398.278	25.637	808.630	647.757
399.292	25.274	808.109	645.975
400.307	25.298	807.527	645.542
401.321	25.546	807.038	645.985
402.336	25.842	807.136	647.068
403.350	26.122	807.084	647.976
404.365	26.481	806.586	648.804
405.380	26.628	806.610	649.293
406.394	26.871	805.903	649.537
407.409	26.676	805.470	648.433
408.423	26.564	805.309	647.845
409.438	26.786	804.519	647.947
410.453	26.934	804.151	648.122
411.467	26.731	803.661	646.945
412.482	26.703	803.259	646.465
413.496	26.779	803.001	646.469
414.511	26.853	802.930	646.620
415.526	26.764	802.207	645.663
416.540	26.722	801.168	644.618
417.555	26.298	800.714	642.690
418.569	26.567	799.983	643.002
419.584	26.435	799.821	642.345
420.599	26.279	799.270	641.295
421.613	83.414	1238.365	1295.688
422.628	71.000	1302.372	1295.825
