DTS Sentinel unit serial number:	SN413079Multiplexer serial number:	ORYXHardware model number:	OX4-SRSoftware version number:	ORYX F/W v4.00 Oryx Data Collector v3.7.2.0data status	okinstallation	princeton_trtdifferential loss correction	single-endedforward channel	channel 1reverse channel	N/Adate	2019/09/11time	21:12:11forward acquisition time	60.00reverse acquisition time	0.00gamma	496.2192k internal	0.2307k external	0.2307temperature offset calibration	1.0047default loss term (dB/km)	0.3790temperature slope calibration	1.0000multiplexer offset coefficient	1.0000multiplexer slope coefficient	1.0000fibre end	0.00T internal ref (°C)	36.39T ext. ref 1 (°C)	1.57T ext. ref 2 (°C)	30.75length (m)	temperature (°C)	Stokes	anti-Stokes-747.200	94.009	-0.106	-0.122
-746.185	-40.205	0.262	0.139
-745.171	800.000	0.036	-0.125
-744.156	-200.000	-0.030	0.400
-743.142	116.672	0.060	-0.075
-742.127	342.385	-0.100	0.199
-741.112	800.000	-0.069	0.260
-740.098	108.725	-0.303	0.369
-739.083	-116.723	0.257	-0.048
-738.069	12.446	-0.278	0.218
-737.054	722.110	-0.038	0.103
-736.039	-200.000	0.015	0.280
-735.025	395.869	-0.015	-0.033
-734.010	-200.000	-0.043	0.305
-732.996	44.373	0.132	0.123
-731.981	376.197	0.099	-0.205
-730.966	-144.629	0.120	0.011
-729.952	800.000	-0.078	-0.283
-728.937	-109.413	0.261	0.056
-727.923	15.914	-0.251	0.201
-726.908	713.978	-0.067	-0.181
-725.894	800.000	-0.045	0.195
-724.879	63.743	0.225	-0.230
-723.864	20.525	-0.128	0.105
-722.850	-52.735	-0.070	0.033
-721.835	32.978	-0.257	-0.226
-720.821	-42.157	-0.116	0.060
-719.806	219.873	-0.075	0.122
-718.791	800.000	-0.145	0.529
-717.777	-33.144	-0.366	-0.206
-716.762	-74.049	0.055	-0.020
-715.748	-2.347	0.138	0.099
-714.733	-200.000	0.000	0.173
-713.718	-56.580	-0.105	0.047
-712.704	-200.000	-0.012	-0.080
-711.689	-18.731	-0.146	-0.093
-710.675	427.343	-0.129	-0.282
-709.660	-31.665	0.236	-0.135
-708.645	291.122	0.137	-0.253
-707.631	696.690	-0.037	-0.100
-706.616	-132.813	-0.546	0.071
-705.602	-88.579	0.287	-0.087
-704.587	79.167	-0.053	-0.058
-703.572	-63.951	-0.093	0.039
-702.558	-66.324	-0.132	-0.053
-701.543	28.902	-0.077	-0.066
-700.529	-7.208	-0.024	-0.016
-699.514	-152.375	0.163	0.012
-698.499	-28.611	0.152	0.089
-697.485	-200.000	-0.005	0.057
-696.470	315.909	0.099	0.190
-695.456	800.000	0.049	-0.185
-694.441	-57.460	-0.224	-0.100
-693.426	23.251	-0.069	0.058
-692.412	-116.177	0.335	0.063
-691.397	-92.455	0.348	-0.099
-690.383	-105.636	-0.150	-0.034
-689.368	800.000	0.053	0.190
-688.354	-200.000	-0.004	0.308
-687.339	140.203	-0.183	-0.245
-686.324	-66.852	-0.282	0.113
-685.310	800.000	-0.045	-0.152
-684.295	-200.000	0.023	-0.202
-683.281	-183.189	0.185	0.003
-682.266	71.747	-0.209	-0.220
-681.251	115.749	0.143	-0.177
-680.237	-163.296	0.057	0.003
-679.222	-200.000	0.012	0.414
-678.208	800.000	0.051	-0.159
-677.193	-87.071	-0.435	0.134
-676.178	651.676	-0.150	-0.389
-675.164	-96.704	0.253	-0.067
-674.149	42.045	0.243	0.224
-673.135	-128.142	0.157	-0.023
-672.120	-3.543	0.131	-0.092
-671.105	257.848	-0.178	0.311
-670.091	-200.000	0.014	-0.202
-669.076	-200.000	-0.012	-0.327
-668.062	-35.264	-0.043	-0.024
-667.047	63.201	0.280	-0.284
-666.032	800.000	-0.065	0.253
-665.018	236.425	-0.138	0.232
-664.003	-99.991	-0.098	0.025
-662.989	133.552	0.016	0.021
-661.974	-74.554	-0.198	-0.072
-660.959	800.000	0.137	-0.418
-659.945	214.492	0.107	0.171
-658.930	32.015	-0.085	0.075
-657.916	-13.509	0.156	0.102
-656.901	-200.000	-0.009	-0.214
-655.886	800.000	0.049	0.143
-654.872	-116.829	0.243	-0.045
-653.857	-115.188	-0.190	-0.037
-652.843	-43.104	0.136	-0.070
-651.828	800.000	-0.064	0.196
-650.814	800.000	0.066	0.206
-649.799	23.639	0.063	-0.053
-648.784	177.735	-0.103	-0.151
-647.770	-200.000	-0.018	0.360
-646.755	-51.726	-0.081	0.038
-645.741	126.944	-0.127	0.163
-644.726	-93.983	-0.247	-0.069
-643.711	70.283	0.203	-0.212
-642.697	77.176	0.173	-0.186
-641.682	51.294	0.091	-0.088
-640.668	-47.518	0.486	0.239
-639.653	-106.177	0.079	-0.018
-638.638	-101.060	-0.397	-0.099
-637.624	781.914	-0.065	-0.181
-636.609	72.234	-0.265	-0.279
-635.595	-61.559	-0.136	0.058
-634.580	-30.031	-0.200	0.115
-633.565	-200.000	-0.017	0.090
-632.551	92.708	-0.099	0.113
-631.536	-72.931	-0.143	-0.053
-630.522	-96.122	-0.171	0.046
-629.507	-200.000	0.015	0.198
-628.492	387.557	-0.129	0.270
-627.478	-124.633	-0.250	0.039
-626.463	-173.443	-0.261	-0.008
-625.449	45.200	-0.196	0.182
-624.434	-168.985	-0.007	-0.000
-623.419	-37.770	-0.146	-0.079
-622.405	-81.011	0.150	-0.050
-621.390	12.659	0.284	0.222
-620.376	23.428	0.039	0.033
-619.361	-60.638	-0.470	0.202
-618.346	-31.108	-0.051	0.029
-617.332	150.210	0.153	-0.210
-616.317	-200.000	0.007	0.314
-615.303	-87.013	-0.162	0.050
-614.288	131.888	0.044	0.058
-613.273	22.265	-0.090	0.074
-612.259	800.000	-0.058	-0.206
-611.244	117.468	0.194	-0.241
-610.230	55.512	-0.064	0.062
-609.215	-41.991	0.129	0.067
-608.201	15.576	0.196	0.156
-607.186	-1.126	-0.328	-0.234
-606.171	287.976	0.114	-0.209
-605.157	-200.000	-0.007	-0.141
-604.142	-200.000	-0.033	-0.174
-603.128	316.554	-0.118	-0.225
-602.113	800.000	-0.069	0.274
-601.098	-200.000	-0.014	0.115
-600.084	-200.000	-0.006	0.035
-599.069	-86.229	-0.095	0.030
-598.055	500.688	-0.050	-0.116
-597.040	800.000	-0.154	0.546
-596.025	-152.330	-0.202	0.015
-595.011	-200.000	-0.001	-0.286
-593.996	-110.887	0.290	-0.060
-592.982	-200.000	0.138	-0.000
-591.967	568.550	-0.053	0.131
-590.952	800.000	-0.007	-0.027
-589.938	94.572	0.299	-0.344
-588.923	186.820	-0.160	-0.241
-587.909	152.419	-0.077	0.106
-586.894	-23.634	-0.234	0.142
-585.879	89.797	0.198	-0.223
-584.865	-42.913	-0.227	-0.116
-583.850	-27.556	-0.204	0.120
-582.836	-162.554	-0.410	0.020
-581.821	-200.000	0.013	0.150
-580.806	-138.142	0.261	0.029
-579.792	47.167	-0.122	0.114
-578.777	163.359	-0.267	-0.379
-577.763	12.045	-0.103	-0.080
-576.748	-34.592	-0.200	-0.111
-575.733	55.812	0.096	0.094
-574.719	-137.755	0.378	0.043
-573.704	800.000	-0.051	0.189
-572.690	-99.712	0.109	-0.028
-571.675	391.225	-0.162	0.340
-570.661	800.000	0.039	-0.158
-569.646	-81.527	0.265	-0.088
-568.631	380.707	-0.165	-0.342
-567.617	-136.582	-0.052	-0.006
-566.602	341.028	0.121	0.238
-565.588	-3.030	-0.306	0.216
-564.573	44.545	0.123	-0.114
-563.558	-200.000	-0.037	0.179
-562.544	205.573	-0.096	-0.150
-561.529	-200.000	-0.003	0.017
-560.515	-91.444	0.306	-0.088
-559.500	-73.887	-0.178	0.065
-558.485	800.000	0.057	0.201
-557.471	-73.792	0.150	-0.055
-556.456	60.005	-0.176	0.175
-555.442	248.946	0.086	0.148
-554.427	150.231	-0.177	0.243
-553.412	-0.296	0.074	0.053
-552.398	123.197	-0.023	-0.029
-551.383	-109.911	0.233	-0.049
-550.369	104.712	-0.154	0.183
-549.354	6.618	0.059	-0.045
-548.339	-9.401	-0.283	0.191
-547.325	222.321	-0.039	-0.064
-546.310	30.465	-0.041	0.036
-545.296	322.191	-0.118	0.227
-544.281	-129.614	0.106	0.015
-543.266	800.000	-0.106	0.328
-542.252	74.027	0.146	0.154
-541.237	-200.000	-0.009	0.243
-540.223	347.744	-0.037	0.074
-539.208	29.369	-0.354	-0.304
-538.193	-128.640	-0.342	-0.049
-537.179	-200.000	-0.000	0.246
-536.164	3.512	-0.135	0.099
-535.150	-200.000	-0.029	0.307
-534.135	-133.843	0.355	-0.045
-533.121	80.702	-0.205	0.222
-532.106	118.089	0.126	-0.157
-531.091	12.087	-0.241	0.187
-530.077	80.925	0.117	0.128
-529.062	-123.959	0.439	-0.070
-528.048	-120.792	-0.237	0.040
-527.033	68.695	0.232	-0.240
-526.018	306.802	-0.066	-0.124
-525.004	-33.830	0.044	0.024
-523.989	128.877	0.057	0.074
-522.975	-140.914	0.232	-0.024
-521.960	-154.976	-0.357	-0.024
-520.945	51.793	0.172	0.165
-519.931	-200.000	-0.006	-0.041
-518.916	-200.000	0.035	0.254
-517.902	-121.660	0.218	-0.036
-516.887	57.710	-0.071	0.070
-515.872	-76.963	0.098	0.034
-514.858	-51.289	-0.423	0.199
-513.843	156.123	0.055	-0.076
-512.829	-38.900	0.228	0.121
-511.814	98.165	0.263	0.306
-510.799	-200.000	0.011	0.240
-509.785	-62.023	-0.363	0.153
-508.770	44.962	0.197	-0.183
-507.756	-200.000	-0.003	-0.029
-506.741	115.204	0.167	-0.205
-505.726	9.789	0.332	-0.254
-504.712	-33.634	-0.300	-0.167
-503.697	161.351	-0.205	-0.289
-502.683	-4.931	0.355	-0.247
-501.668	800.000	-0.060	-0.261
-500.653	165.249	-0.112	0.159
-499.639	-4.580	-0.035	-0.024
-498.624	-120.861	0.227	-0.039
-497.610	112.936	-0.308	-0.376
-496.595	-7.226	0.257	-0.176
-495.581	-55.903	0.196	0.088
-494.566	61.144	0.104	-0.104
-493.551	-200.000	0.001	0.294
-492.537	63.677	-0.242	0.245
-491.522	800.000	0.052	0.164
-490.508	-200.000	0.054	0.296
-489.493	190.697	0.130	-0.197
-488.478	534.803	0.075	-0.179
-487.464	414.731	0.034	-0.073
-486.449	-180.764	0.140	0.003
-485.435	-200.000	0.041	0.233
-484.420	-200.000	0.007	0.341
-483.405	-200.000	0.010	0.067
-482.391	-3.270	-0.168	-0.118
-481.376	32.784	0.140	0.122
-480.362	96.691	0.091	0.105
-479.347	167.038	0.094	-0.134
-478.332	46.970	-0.484	-0.452
-477.318	269.518	0.166	0.294
-476.303	51.686	0.212	0.203
-475.289	462.753	0.122	0.274
-474.274	-63.311	-0.183	0.076
-473.259	115.947	-0.227	-0.280
-472.245	-200.000	0.016	0.096
-471.230	-200.000	-0.029	0.237
-470.216	-8.162	0.066	-0.045
-469.201	-144.725	0.509	0.047
-468.186	251.551	0.190	-0.325
-467.172	-72.311	0.197	-0.073
-466.157	800.000	-0.045	0.151
-465.143	-59.624	-0.256	-0.111
-464.128	800.000	-0.074	-0.217
-463.113	84.200	-0.065	-0.072
-462.099	800.000	-0.119	-0.508
-461.084	51.478	-0.134	0.128
-460.070	-200.000	0.005	-0.243
-459.055	15.095	-0.060	-0.047
-458.040	-136.777	-0.321	0.037
-457.026	-200.000	0.017	-0.123
-456.011	385.335	-0.065	-0.135
-454.997	-200.000	-0.051	0.275
-453.982	-200.000	0.013	-0.200
-452.968	26.710	-0.170	0.143
-451.953	-200.000	0.022	-0.151
-450.938	-200.000	0.027	-0.458
-449.924	639.892	-0.098	-0.251
-448.909	51.103	0.125	0.120
-447.895	-36.751	0.147	-0.079
-446.880	800.000	0.136	0.487
-445.865	392.492	-0.104	0.218
-444.851	-161.216	0.078	-0.004
-443.836	-200.000	-0.004	-0.209
-442.822	4.115	-0.079	0.058
-441.807	-42.568	0.274	-0.140
-440.792	35.739	0.224	0.198
-439.778	361.173	0.035	-0.070
-438.763	-120.311	0.311	0.053
-437.749	85.421	0.100	0.110
-436.734	-200.000	-0.010	-0.147
-435.719	-23.574	0.271	0.164
-434.705	416.450	0.198	0.425
-433.690	739.502	-0.097	-0.262
-432.676	735.852	0.086	-0.232
-431.661	800.000	-0.060	0.201
-430.646	520.689	-0.206	0.485
-429.632	317.075	-0.115	-0.218
-428.617	428.400	-0.139	-0.301
-427.603	178.291	0.115	0.168
-426.588	74.851	-0.183	0.194
-425.573	108.348	0.224	-0.269
-424.559	419.554	-0.049	-0.106
-423.544	277.410	-0.080	0.143
-422.530	-106.349	0.316	0.071
-421.515	379.198	-0.050	0.103
-420.500	-148.716	0.368	-0.030
-419.486	800.000	-0.025	0.099
-418.471	172.280	-0.139	-0.200
-417.457	152.035	0.232	-0.317
-416.442	-92.781	-0.316	-0.089
-415.428	-36.703	0.118	-0.064
-414.413	800.000	-0.072	-0.254
-413.398	-134.453	-0.153	-0.019
-412.384	18.181	-0.145	0.116
-411.369	-62.080	-0.050	-0.021
-410.355	76.882	-0.090	0.096
-409.340	-26.885	0.217	-0.127
-408.325	-0.559	-0.069	0.049
-407.311	202.530	-0.128	-0.198
-406.296	537.368	-0.076	-0.180
-405.282	-54.804	0.062	-0.028
-404.267	168.827	0.200	0.286
-403.252	800.000	0.039	0.139
-402.238	-71.288	-0.437	-0.164
-401.223	84.866	0.027	-0.029
-400.209	-179.048	0.220	-0.005
-399.194	142.356	-0.075	-0.100
-398.179	-42.437	0.052	0.027
-397.165	800.000	0.006	0.019
-396.150	-116.769	0.152	0.028
-395.136	-126.502	-0.071	0.011
-394.121	-84.375	0.215	0.068
-393.106	-200.000	0.079	-0.371
-392.092	-134.906	-0.289	-0.035
-391.077	-200.000	0.010	0.256
-390.063	-168.436	0.408	0.016
-389.048	-200.000	-0.026	0.254
-388.033	377.202	0.003	-0.007
-387.019	-132.210	-0.222	0.029
-386.004	800.000	0.067	-0.205
-384.990	176.233	0.140	-0.204
-383.975	211.796	-0.156	0.246
-382.960	1.497	0.105	0.075
-381.946	5.319	0.114	0.084
-380.931	77.620	0.142	0.152
-379.917	458.127	0.027	-0.060
-378.902	800.000	-0.044	-0.150
-377.888	-71.492	-0.288	-0.108
-376.873	155.876	0.046	0.064
-375.858	45.897	0.114	-0.105
-374.844	-200.000	0.042	0.191
-373.829	-112.345	0.266	-0.053
-372.815	-84.860	0.226	-0.071
-371.800	-69.741	0.166	0.064
-370.785	800.000	0.065	-0.206
-369.771	-116.125	0.030	0.006
-368.756	-19.760	0.127	-0.079
-367.742	-200.000	-0.002	-0.195
-366.727	-29.897	0.147	0.084
-365.712	328.179	-0.177	-0.340
-364.698	-200.000	0.033	-0.240
-363.683	-183.372	-0.224	-0.004
-362.669	286.173	0.026	-0.047
-361.654	800.000	-0.071	0.308
-360.639	370.701	0.078	-0.159
-359.625	-44.815	-0.227	0.113
-358.610	-10.010	-0.074	-0.049
-357.596	114.315	-0.215	-0.262
-356.581	-200.000	-0.084	-0.464
-355.566	-25.398	0.251	-0.149
-354.552	-162.016	-0.133	0.007
-353.537	-76.691	-0.423	0.149
-352.523	-150.521	-0.210	-0.016
-351.508	-200.000	-0.017	0.334
-350.493	800.000	-0.055	0.232
-349.479	-200.000	0.044	-0.352
-348.464	800.000	-0.147	-0.427
-347.450	43.183	0.165	-0.151
-346.435	239.527	-0.131	-0.218
-345.420	-123.891	-0.339	-0.053
-344.406	343.434	0.112	0.220
-343.391	1.957	0.337	-0.243
-342.377	96.488	0.195	-0.223
-341.362	68.065	-0.265	-0.272
-340.348	-28.870	-0.142	0.082
-339.333	-200.000	0.030	0.162
-338.318	-113.261	-0.177	0.035
-337.304	91.612	0.088	-0.099
-336.289	555.892	-0.177	0.427
-335.275	-160.298	-0.092	-0.005
-334.260	-200.000	-0.084	-0.000
-333.245	-200.000	-0.014	-0.078
-332.231	143.324	-0.184	0.245
-331.216	554.385	-0.133	-0.321
-330.202	-138.937	-0.288	0.031
-329.187	666.682	-0.203	-0.525
-328.172	197.479	0.159	0.243
-327.158	-45.580	-0.242	0.120
-326.143	5.366	0.050	0.037
-325.129	110.686	0.150	0.181
-324.114	-79.989	0.311	-0.105
-323.099	279.605	-0.130	-0.232
-322.085	-144.249	0.256	-0.024
-321.070	800.000	-0.029	-0.090
-320.056	-69.202	-0.117	0.045
-319.041	-27.430	0.190	0.111
-318.026	-74.287	0.295	0.107
-317.012	130.279	-0.201	0.258
-315.997	-79.920	0.437	-0.147
-314.983	-200.000	0.016	-0.222
-313.968	36.002	-0.320	0.282
-312.953	269.245	0.146	-0.256
-311.939	49.348	0.075	-0.070
-310.924	33.650	-0.123	0.107
-309.910	-159.592	0.318	-0.018
-308.895	736.011	-0.057	0.153
-307.880	244.333	-0.147	-0.246
-306.866	-73.396	0.147	-0.054
-305.851	83.979	0.084	0.091
-304.837	124.071	-0.152	0.191
-303.822	-33.490	-0.179	0.099
-302.807	20.958	0.141	0.114
-301.793	-191.659	-0.109	0.001
-300.778	119.453	0.084	-0.104
-299.764	-165.395	-0.524	-0.023
-298.749	430.661	0.038	-0.083
-297.735	-155.787	0.298	0.019
-296.720	-157.032	0.417	-0.025
-295.705	-120.548	-0.191	0.032
-294.691	167.501	-0.126	0.179
-293.676	647.705	0.129	0.330
-292.662	-23.942	0.252	0.150
-291.647	94.993	0.213	-0.242
-290.632	-69.089	0.226	0.087
-289.618	-61.067	-0.239	-0.101
-288.603	110.237	0.157	0.189
-287.589	154.007	-0.157	-0.215
-286.574	-2.764	0.251	0.175
-285.559	-17.863	-0.222	-0.139
-284.545	-156.349	-0.253	0.016
-283.530	800.000	0.030	-0.103
-282.516	800.000	-0.089	0.373
-281.501	-200.000	0.011	0.106
-280.486	78.294	0.167	0.178
-279.472	84.931	0.287	0.314
-278.457	-159.304	0.362	0.020
-277.443	-36.678	-0.386	-0.207
-276.428	66.816	0.194	-0.197
-275.413	-56.283	-0.113	-0.050
-274.399	-200.000	-0.337	-0.001
-273.384	56.166	-0.157	-0.152
-272.370	-77.168	0.247	0.086
-271.355	726.081	-0.039	0.104
-270.340	450.331	-0.086	0.188
-269.326	471.155	-0.102	-0.229
-268.311	-200.000	-0.047	0.255
-267.297	-200.000	-0.054	-0.245
-266.282	-34.608	0.237	-0.130
-265.267	122.815	-0.096	-0.120
-264.253	0.054	0.249	-0.177
-263.238	800.000	0.051	-0.208
-262.224	-39.299	0.196	-0.102
-261.209	-79.497	0.040	0.014
-260.195	49.636	-0.370	-0.348
-259.180	-78.365	-0.061	-0.021
-258.165	-172.209	0.497	-0.016
-257.151	80.075	0.062	0.067
-256.136	133.237	0.123	-0.159
-255.122	235.920	-0.098	-0.162
-254.107	276.502	0.087	-0.154
-253.092	-121.441	0.018	-0.003
-252.078	800.000	0.114	-0.352
-251.063	6.376	0.184	0.136
-250.049	592.595	-0.079	0.195
-249.034	706.697	0.079	-0.207
-248.019	28.214	-0.377	-0.318
-247.005	800.000	-0.046	-0.171
-245.990	-33.586	-0.146	-0.081
-244.976	-97.618	0.129	-0.033
-243.961	-200.000	0.064	0.290
-242.946	-89.324	0.227	0.067
-241.932	383.713	0.083	0.171
-240.917	800.000	-0.050	-0.180
-239.903	446.397	0.106	-0.233
-238.888	-142.050	0.289	0.029
-237.873	800.000	-0.071	0.201
-236.859	800.000	0.093	0.285
-235.844	-200.000	-0.079	0.373
-234.830	194.436	-0.311	0.470
-233.815	180.655	0.063	0.092
-232.800	800.000	-0.069	0.197
-231.786	-118.679	-0.365	0.064
-230.771	-64.904	0.220	-0.089
-229.757	-32.977	0.148	0.082
-228.742	-200.000	0.066	0.288
-227.727	70.378	-0.281	-0.289
-226.713	118.578	-0.160	0.197
-225.698	-121.885	0.220	-0.036
-224.684	128.561	0.085	0.108
-223.669	425.603	0.118	-0.253
-222.655	616.276	-0.030	0.076
-221.640	8.770	0.218	-0.164
-220.625	800.000	-0.017	0.069
-219.611	-60.754	0.322	-0.136
-218.596	170.001	0.262	0.373
-217.582	800.000	-0.046	-0.159
-216.567	34.857	-0.141	0.123
-215.552	42.906	0.058	-0.052
-214.538	-55.330	0.170	-0.076
-213.523	-128.965	0.246	0.034
-212.509	182.629	-0.139	-0.204
-211.494	-200.000	-0.004	-0.179
-210.479	800.000	0.064	-0.213
-209.465	277.633	-0.039	0.069
-208.450	-58.816	0.309	0.133
-207.436	117.836	0.069	0.084
-206.421	-200.000	-0.003	0.056
-205.406	523.946	0.109	-0.256
-204.392	-200.000	0.067	-0.311
-203.377	-200.000	-0.010	0.099
-202.363	31.467	-0.229	0.196
-201.348	562.242	0.158	0.379
-200.333	-109.931	0.275	0.057
-199.319	-200.000	-0.012	-0.097
-198.304	101.112	0.216	-0.250
-197.290	-62.496	-0.136	-0.056
-196.275	151.733	-0.062	0.085
-195.260	800.000	0.060	0.193
-194.246	-54.846	0.242	-0.109
-193.231	410.929	0.037	0.077
-192.217	-160.479	-0.095	0.005
-191.202	138.376	0.120	0.157
-190.187	-200.000	-0.013	0.241
-189.173	19.621	-0.209	-0.167
-188.158	556.712	-0.046	-0.110
-187.144	-65.921	-0.205	0.082
-186.129	85.753	0.085	0.093
-185.114	255.512	-0.064	0.109
-184.100	534.583	-0.119	-0.282
-183.085	-107.238	-0.086	0.019
-182.071	35.630	0.232	-0.202
-181.056	555.661	0.030	0.071
-180.042	84.700	-0.055	0.060
-179.027	92.817	-0.224	0.252
-178.012	45.982	-0.318	0.293
-176.998	800.000	0.077	-0.318
-175.983	-164.492	-0.097	-0.004
-174.969	205.281	0.111	-0.171
-173.954	144.120	-0.165	-0.218
-172.939	302.542	-0.162	-0.297
-171.925	128.179	0.184	0.233
-170.910	-168.625	0.143	-0.005
-169.896	-200.000	-0.028	-0.277
-168.881	800.000	-0.083	0.237
-167.866	-51.026	-0.252	-0.118
-166.852	-32.480	-0.453	-0.251
-165.837	-115.116	0.073	-0.014
-164.823	140.674	0.057	0.075
-163.808	-95.624	0.131	-0.035
-162.793	-200.000	0.008	0.260
-161.779	800.000	-0.052	0.199
-160.764	-5.891	0.315	0.214
-159.750	-19.382	0.101	-0.062
-158.735	-54.034	0.217	-0.098
-157.720	448.943	0.101	0.222
-156.706	204.666	0.167	0.258
-155.691	-58.895	0.078	-0.034
-154.677	-156.272	-0.189	0.012
-153.662	-139.091	-0.198	-0.021
-152.647	-81.986	-0.148	-0.048
-151.633	-93.206	-0.245	0.068
-150.618	334.746	-0.177	0.340
-149.604	-200.000	0.026	0.263
-148.589	-92.368	0.333	0.093
-147.574	-29.978	-0.130	-0.074
-146.560	800.000	0.055	0.211
-145.545	-95.367	0.367	0.098
-144.531	800.000	-0.088	0.317
-143.516	-2.527	-0.075	-0.052
-142.502	-200.000	0.017	0.230
-141.487	-83.972	0.174	-0.055
-140.472	265.332	-0.103	0.178
-139.458	-22.155	0.108	-0.065
-138.443	800.000	0.111	0.479
-137.429	138.409	-0.172	0.225
-136.414	-28.504	0.330	0.189
-135.399	-98.016	-0.379	0.097
-134.385	45.175	-0.102	-0.094
-133.370	-152.383	-0.403	0.029
-132.356	-27.143	0.190	0.110
-131.341	-49.206	0.073	-0.035
-130.326	-124.749	0.072	0.011
-129.312	-200.000	-0.043	0.351
-128.297	-5.099	0.144	0.099
-127.283	125.971	-0.187	0.234
-126.268	-200.000	-0.004	-0.062
-125.253	-101.891	0.116	0.028
-124.239	38.688	0.091	0.081
-123.224	67.805	0.204	-0.207
-122.210	-17.495	-0.149	0.093
-121.195	127.903	0.061	-0.077
-120.180	-85.227	0.147	0.046
-119.166	392.771	-0.079	0.163
-118.151	-200.000	-0.003	0.090
-117.137	165.817	-0.096	0.134
-116.122	-200.000	-0.024	0.137
-115.107	102.090	0.102	-0.118
-114.093	800.000	-0.059	0.166
-113.078	-200.000	-0.017	-0.101
-112.064	-19.666	0.378	-0.232
-111.049	800.000	-0.078	-0.301
-110.034	-65.207	-0.333	0.133
-109.020	133.272	-0.081	-0.104
-108.005	374.954	-0.070	0.142
-106.991	7.400	0.102	-0.076
-105.976	5.825	-0.096	-0.071
-104.962	-109.273	-0.064	-0.013
-103.947	67.711	0.073	0.074
-102.932	-80.118	-0.101	-0.033
-101.918	800.000	0.022	0.071
-100.903	-86.887	0.402	-0.122
-99.889	-126.809	0.051	0.008
-98.874	800.000	-0.057	0.180
-97.859	-200.000	0.041	0.272
-96.845	254.363	0.163	-0.276
-95.830	91.906	0.061	0.068
-94.816	-200.000	-0.040	-0.196
-93.801	-200.000	-0.037	-0.203
-92.786	214.125	-0.012	-0.018
-91.772	469.593	-0.054	0.121
-90.757	411.461	-0.147	0.310
-89.743	-5.440	-0.354	0.241
-88.728	-101.926	0.251	-0.060
-87.713	-58.989	-0.077	-0.033
-86.699	239.133	-0.104	-0.172
-85.684	271.788	-0.107	-0.188
-84.670	-140.906	-0.023	-0.002
-83.655	-46.568	-0.311	-0.151
-82.640	-23.653	-0.192	-0.114
-81.626	-111.276	0.325	-0.066
-80.611	-200.000	-0.018	-0.281
-79.597	-77.203	0.008	-0.003
-78.582	28.485	0.316	0.265
-77.567	119.782	0.277	0.340
-76.553	800.000	0.041	-0.162
-75.538	-200.000	0.018	0.089
-74.524	800.000	0.059	0.254
-73.509	58.832	0.317	-0.309
-72.494	-40.801	-0.106	-0.054
-71.480	23.227	0.112	0.091
-70.465	-200.000	0.017	0.152
-69.451	-200.000	0.018	0.332
-68.436	48.081	0.144	-0.133
-67.422	62.647	-0.121	0.120
-66.407	288.540	-0.030	0.053
-65.392	-113.939	0.144	0.028
-64.378	-200.000	-0.012	0.077
-63.363	7.120	0.229	0.169
-62.349	-200.000	-0.021	0.425
-61.334	58.873	-0.865	-0.842
-60.319	-200.000	0.024	0.349
-59.305	800.000	-0.210	-0.737
-58.290	16.162	0.625	0.487
-57.276	800.000	0.466	1.784
-56.261	-200.000	91.202	543.936
-55.246	532.250	1365.880	3198.819
-54.232	152.483	2575.825	3481.240
-53.217	116.717	2172.488	2638.211
-52.203	48.000	1631.314	1508.679
-51.188	39.822	1367.238	1214.369
-50.173	36.506	1324.653	1156.694
-49.159	57.878	1371.696	1328.274
-48.144	62.389	1390.181	1373.529
-47.130	40.270	1345.083	1197.213
-46.115	36.498	1327.723	1159.139
-45.100	36.283	1322.921	1153.616
-44.086	36.218	1320.599	1151.156
-43.071	36.176	1318.244	1148.812
-42.057	36.155	1316.157	1146.824
-41.042	36.233	1314.462	1145.760
-40.027	36.396	1312.309	1144.808
-39.013	36.292	1310.606	1142.659
-37.998	36.287	1309.062	1141.240
-36.984	36.531	1307.011	1140.844
-35.969	36.339	1305.690	1138.514
-34.954	36.412	1303.709	1137.175
-33.940	36.396	1302.237	1135.747
-32.925	36.358	1301.147	1134.532
-31.911	36.569	1299.244	1134.064
-30.896	36.450	1298.403	1132.587
-29.881	36.498	1297.125	1131.706
-28.867	36.532	1295.491	1130.439
-27.852	36.490	1293.706	1128.591
-26.838	36.487	1292.166	1127.180
-25.823	36.450	1291.417	1126.269
-24.809	36.513	1289.346	1124.784
-23.794	36.437	1288.001	1123.128
-22.779	36.473	1286.599	1122.066
-21.765	36.505	1285.209	1120.998
-20.750	36.451	1284.391	1119.928
-19.736	36.350	1283.171	1118.232
-18.721	36.298	1281.991	1116.856
-17.706	36.350	1280.602	1115.907
-16.692	36.356	1279.255	1114.722
-15.677	36.366	1278.376	1113.966
-14.663	36.469	1276.768	1113.115
-13.648	36.385	1275.411	1111.407
-12.633	36.307	1275.082	1110.628
-11.619	36.305	1274.485	1110.053
-10.604	36.309	1273.452	1109.129
-9.590	36.404	1272.304	1108.634
-8.575	36.405	1271.182	1107.619
-7.560	36.226	1270.898	1106.298
-6.546	36.232	1269.945	1105.458
-5.531	36.291	1268.906	1104.846
-4.517	36.365	1267.642	1104.129
-3.502	36.289	1267.027	1103.115
-2.487	36.288	1266.211	1102.351
-1.473	36.250	1262.117	1098.527
-0.458	34.735	1246.937	1076.745
0.556	30.842	1228.043	1035.503
1.571	27.023	1232.514	1017.824
2.586	25.951	1247.730	1024.210
3.600	25.159	1236.275	1010.260
4.615	18.037	1161.591	911.306
5.629	6.857	1081.599	792.659
6.644	1.981	1059.038	752.065
7.659	1.516	1056.210	747.701
8.673	1.435	1054.622	746.113
9.688	1.340	1053.422	744.731
10.702	1.907	1052.372	746.700
11.717	8.648	1062.440	787.020
12.731	19.094	1076.996	849.558
13.746	23.679	1082.829	876.782
14.761	24.226	1083.874	880.253
15.775	24.251	1083.300	879.831
16.790	24.167	1082.103	878.368
17.804	24.043	1081.825	877.451
18.819	24.197	1081.119	877.559
19.834	24.333	1080.507	877.656
20.848	24.369	1080.063	877.395
21.863	24.331	1079.711	876.843
22.877	24.279	1078.960	875.901
23.892	24.241	1078.042	874.889
24.907	24.236	1077.681	874.495
25.921	24.317	1076.502	873.857
26.936	24.163	1075.363	872.106
27.950	24.169	1073.497	870.540
28.965	24.065	1071.565	868.389
29.980	24.105	1070.019	867.258
30.994	24.372	1069.445	868.016
32.009	24.403	1068.095	866.994
33.023	24.104	1066.966	864.547
34.038	24.302	1065.855	864.528
35.053	24.376	1065.205	864.286
36.067	24.341	1064.796	863.705
37.082	24.439	1063.518	863.068
38.096	24.473	1063.252	862.941
39.111	24.511	1062.636	862.547
40.126	24.312	1061.614	860.681
41.140	24.048	1059.158	857.344
42.155	23.878	1057.668	855.242
43.169	23.927	1056.904	854.784
44.184	24.085	1055.784	854.562
45.199	23.938	1054.997	853.145
46.213	24.004	1054.292	852.815
47.228	24.049	1053.866	852.614
48.242	24.132	1052.675	851.967
49.257	24.412	1051.845	852.560
50.271	24.283	1051.713	851.762
51.286	24.324	1050.647	851.020
52.301	24.375	1049.677	850.399
53.315	24.332	1048.315	849.015
54.330	24.393	1047.145	848.283
55.344	24.393	1047.039	848.125
56.359	24.232	1045.918	846.378
57.374	24.098	1044.851	844.804
58.388	24.064	1044.155	844.004
59.403	23.927	1043.426	842.689
60.417	23.887	1042.658	841.805
61.432	23.997	1041.649	841.440
62.447	24.055	1041.605	841.603
63.461	24.123	1040.593	841.029
64.476	24.023	1039.354	839.482
65.490	23.912	1038.870	838.493
66.505	24.107	1037.869	838.529
67.520	24.034	1037.322	837.672
68.534	23.781	1036.422	835.679
69.549	23.534	1035.072	833.356
70.563	23.469	1034.641	832.631
71.578	23.565	1033.234	831.876
72.593	23.407	1032.632	830.577
73.607	23.554	1032.183	830.831
74.622	23.928	1031.598	832.035
75.636	23.923	1030.769	831.271
76.651	23.656	1030.094	829.408
77.666	23.760	1028.913	828.865
78.680	23.799	1028.932	828.991
79.695	23.840	1028.293	828.594
80.709	23.816	1027.429	827.711
81.724	23.813	1026.624	826.977
82.739	24.016	1025.461	826.911
83.753	24.313	1025.629	828.352
84.768	24.511	1024.484	828.272
85.782	24.604	1023.814	828.089
86.797	24.513	1022.840	826.806
87.812	24.320	1021.826	825.021
88.826	24.521	1020.759	825.016
89.841	24.582	1020.088	824.682
90.855	24.516	1019.352	823.709
91.870	24.624	1017.997	823.039
92.884	24.379	1017.072	821.092
93.899	24.376	1015.996	820.137
94.914	24.660	1014.956	820.527
95.928	24.384	1014.158	818.544
96.943	24.186	1012.999	816.629
97.957	23.923	1011.936	814.493
98.972	23.702	1011.089	812.731
99.987	24.081	1010.069	813.572
101.001	24.162	1009.774	813.633
102.016	24.174	1008.512	812.596
103.030	24.143	1007.128	811.267
104.045	23.983	1006.607	810.047
105.060	23.961	1005.205	808.747
106.074	23.961	1005.189	808.663
107.089	24.416	1004.371	810.002
108.103	24.276	1003.224	808.371
109.118	24.133	1001.473	806.239
110.133	24.121	1000.824	805.592
111.147	23.758	999.941	803.167
112.162	23.769	998.952	802.353
113.176	23.971	998.176	802.569
114.191	23.812	997.546	801.276
115.206	23.605	996.456	799.399
116.220	23.429	995.874	798.069
117.235	23.737	994.507	798.285
118.249	23.632	994.026	797.358
119.264	23.498	993.293	796.097
120.279	23.778	991.874	796.144
121.293	23.654	991.919	795.553
122.308	23.826	990.778	795.340
123.322	23.794	989.133	793.804
124.337	23.589	988.432	792.255
125.352	22.985	986.900	788.264
126.366	23.011	985.754	787.394
127.381	23.791	985.875	790.896
128.395	24.273	985.296	792.504
129.410	24.336	984.352	791.954
130.424	24.259	983.323	790.717
131.439	24.359	982.348	790.306
132.454	24.393	981.194	789.455
133.468	24.139	981.022	788.127
134.483	24.180	980.514	787.827
135.497	24.488	979.368	788.197
136.512	24.382	978.824	787.221
137.527	24.534	977.591	786.832
138.541	24.669	976.374	786.377
139.556	24.399	976.126	784.922
140.570	24.468	975.180	784.392
141.585	24.616	974.103	784.106
142.600	24.531	973.153	782.901
143.614	24.685	972.512	782.990
144.629	24.814	971.679	782.815
145.643	24.516	970.374	780.390
146.658	24.415	968.983	778.765
147.673	24.360	968.127	777.768
148.687	24.154	967.572	776.354
149.702	24.176	966.431	775.467
150.716	24.232	965.306	774.738
151.731	24.323	964.326	774.279
152.746	24.572	964.234	775.216
153.760	24.567	963.562	774.585
154.775	24.733	963.082	774.853
155.789	24.519	961.750	772.785
156.804	24.635	961.264	772.828
157.819	24.706	960.406	772.375
158.833	24.835	959.627	772.239
159.848	24.759	958.652	771.056
160.862	24.579	957.235	769.075
161.877	24.613	956.608	768.649
162.892	24.704	955.575	768.141
163.906	24.626	954.298	766.714
164.921	24.611	953.486	765.930
165.935	24.630	952.952	765.513
166.950	24.604	951.826	764.429
167.964	24.604	950.921	763.634
168.979	24.444	950.010	762.153
169.994	24.425	948.669	760.927
171.008	24.618	948.924	761.887
172.023	24.586	947.932	760.890
173.037	24.381	946.758	759.007
174.052	24.340	945.443	757.711
175.067	24.359	945.219	757.545
176.081	24.416	944.439	757.096
177.096	24.437	943.652	756.484
178.110	24.158	942.649	754.432
179.125	23.881	941.998	752.674
180.140	23.876	942.218	752.763
181.154	24.194	941.568	753.519
182.169	24.413	941.461	754.296
183.183	24.619	940.897	754.647
184.198	24.415	940.363	753.289
185.213	24.466	939.108	752.433
186.227	24.664	938.379	752.616
187.242	24.603	937.903	751.910
188.256	24.656	937.105	751.426
189.271	24.791	936.428	751.387
190.286	24.279	935.493	748.420
191.300	23.716	933.788	744.629
192.315	22.995	932.359	740.405
193.329	22.984	931.762	739.821
194.344	23.843	932.574	743.996
195.359	24.389	932.125	745.854
196.373	24.566	931.524	746.048
197.388	24.378	931.117	744.868
198.402	24.319	930.323	743.923
199.417	24.535	929.554	744.144
200.432	24.194	928.765	742.023
201.446	24.186	927.845	741.190
202.461	24.101	927.592	740.572
203.475	23.343	925.175	735.429
204.490	22.546	924.065	731.178
205.504	23.406	924.692	735.178
206.519	23.968	924.624	737.386
207.534	24.081	924.184	737.438
208.548	24.547	923.908	739.084
209.563	24.321	922.848	737.236
210.577	24.215	922.236	736.244
211.592	24.692	921.918	737.895
212.607	24.599	921.086	736.780
213.621	24.648	920.635	736.555
214.636	24.639	920.082	736.012
215.650	24.575	918.899	734.738
216.665	24.661	918.646	734.822
217.680	24.646	917.633	733.885
218.694	24.240	916.423	731.186
219.709	24.145	915.767	730.208
220.723	24.507	915.075	731.075
221.738	24.540	914.633	730.793
222.753	24.439	914.397	730.129
223.767	24.470	913.892	729.785
224.782	24.699	913.519	730.358
225.796	24.733	913.013	730.028
226.811	24.055	911.409	725.916
227.826	23.549	909.894	722.587
228.840	23.741	909.478	722.974
229.855	23.789	908.864	722.616
230.869	23.486	908.029	720.656
231.884	23.767	907.780	721.539
232.899	24.553	907.623	724.539
233.913	24.218	907.577	723.077
234.928	24.363	906.587	722.814
235.942	24.176	906.127	721.628
236.957	24.106	904.971	720.358
237.972	24.113	904.359	719.835
238.986	24.256	903.715	719.836
240.001	24.235	903.368	719.413
241.015	24.226	902.623	718.720
242.030	24.440	902.358	719.306
243.045	24.399	902.336	719.061
244.059	24.777	901.570	719.910
245.074	24.576	900.231	717.966
246.088	24.083	899.327	715.205
247.103	24.370	899.367	716.323
248.117	24.994	899.181	718.617
249.132	25.311	898.631	719.383
250.147	25.210	898.605	718.897
251.161	25.401	897.927	719.055
252.176	25.319	897.418	718.255
253.190	25.503	896.508	718.199
254.205	25.585	896.182	718.201
255.220	25.451	895.674	717.195
256.234	25.246	895.026	715.795
257.249	25.316	893.847	715.068
258.263	25.366	893.307	714.773
259.278	25.442	892.628	714.466
260.293	25.520	892.088	714.284
261.307	25.293	891.306	712.692
262.322	25.022	890.408	710.837
263.336	24.452	888.708	707.156
264.351	23.401	886.443	701.139
265.366	23.491	886.327	701.338
266.380	24.461	886.936	705.597
267.395	24.897	887.343	707.579
268.409	24.781	886.572	706.445
269.424	25.122	885.981	707.257
270.439	25.151	885.214	706.697
271.453	25.202	884.849	706.542
272.468	25.444	884.272	706.971
273.482	25.415	883.852	706.460
274.497	25.068	882.347	703.833
275.512	24.675	881.234	701.342
276.526	25.167	881.590	703.492
277.541	25.310	881.365	703.810
278.555	25.101	880.241	702.035
279.570	24.876	879.596	700.578
280.585	24.898	879.417	700.459
281.599	25.135	878.046	700.228
282.614	24.381	876.910	696.322
283.628	24.396	876.691	696.142
284.643	24.749	876.530	697.329
285.657	24.451	874.835	694.760
286.672	24.159	873.903	692.825
287.687	24.770	874.132	695.319
288.701	24.718	873.613	694.644
289.716	24.474	872.546	692.786
290.730	24.443	871.939	692.122
291.745	23.965	871.574	689.920
292.760	24.472	870.969	691.343
293.774	25.465	871.184	695.295
294.789	25.658	871.064	695.887
295.803	25.723	870.740	695.815
296.818	25.971	869.685	695.870
297.833	25.236	868.840	692.296
298.847	25.230	867.697	691.301
299.862	25.628	867.448	692.575
300.876	25.756	867.475	693.027
301.891	25.613	867.064	692.088
302.906	25.144	866.075	689.435
303.920	25.349	865.719	689.877
304.935	25.714	865.431	690.990
305.949	25.576	864.622	689.752
306.964	25.419	863.711	688.362
307.979	25.562	863.277	688.504
308.993	25.802	863.357	689.426
310.008	26.002	862.361	689.332
311.022	25.617	861.678	687.257
312.037	25.446	860.799	685.841
313.052	25.206	859.682	683.975
314.066	24.222	858.536	679.256
315.081	23.920	857.971	677.598
316.095	24.976	858.032	681.608
317.110	25.369	857.979	683.001
318.125	24.561	856.519	678.706
319.139	23.385	855.363	673.269
320.154	23.450	854.890	673.080
321.168	24.362	855.162	676.697
322.183	25.235	854.835	679.689
323.197	25.337	854.405	679.674
324.212	25.433	854.575	680.111
325.227	25.518	853.781	679.739
326.241	25.333	853.134	678.466
327.256	25.343	852.382	677.846
328.270	25.067	852.181	676.581
329.285	25.040	851.172	675.620
330.300	24.872	850.016	674.011
331.314	25.125	849.734	674.678
332.329	25.411	849.922	675.846
333.343	25.656	849.472	676.349
334.358	25.685	848.887	675.933
335.373	25.659	848.759	675.673
336.387	25.867	848.569	676.243
337.402	26.087	848.523	676.971
338.416	26.027	848.098	676.348
339.431	26.153	847.851	676.564
340.446	26.362	847.082	676.671
341.460	26.106	846.651	675.309
342.475	25.836	846.105	673.804
343.489	26.067	845.774	674.344
344.504	26.232	846.081	675.146
345.519	26.293	845.508	674.859
346.533	26.226	845.127	674.243
347.548	26.318	844.093	673.703
348.562	26.435	843.537	673.634
349.577	26.305	843.224	672.840
350.592	26.246	842.633	672.091
351.606	26.340	841.882	671.781
352.621	26.205	841.242	670.709
353.635	26.053	840.386	669.404
354.650	25.496	838.787	666.007
355.665	24.498	837.303	661.076
356.679	24.860	837.108	662.206
357.694	25.369	836.857	663.828
358.708	25.255	836.133	662.775
359.723	25.780	835.796	664.387
360.738	25.954	835.209	664.502
361.752	26.138	834.883	664.863
362.767	26.365	835.355	666.016
363.781	26.652	834.814	666.582
364.796	26.848	834.126	666.695
365.810	26.879	833.808	666.497
366.825	26.779	833.411	665.751
367.840	26.484	832.119	663.579
368.854	26.264	831.276	662.043
369.869	26.210	830.683	661.312
370.883	26.203	830.615	661.175
371.898	26.103	830.104	660.344
372.913	25.977	829.849	659.621
373.927	26.112	829.710	659.945
374.942	26.340	829.187	660.306
375.956	26.567	828.416	660.462
376.971	26.587	828.358	660.431
377.986	26.756	827.950	660.662
379.000	26.740	827.264	659.997
380.015	26.560	826.608	658.761
381.029	26.502	826.219	658.181
382.044	26.688	825.844	658.502
383.059	26.717	825.119	657.969
384.073	26.833	824.403	657.760
385.088	26.600	824.277	656.757
386.102	26.415	823.455	655.375
387.117	26.407	822.526	654.546
388.132	25.976	821.397	652.032
389.146	25.733	820.433	650.333
390.161	26.041	820.391	651.354
391.175	26.498	820.206	652.797
392.190	26.218	818.916	650.707
393.205	24.639	817.273	643.662
394.219	23.226	815.264	636.941
395.234	23.042	815.021	636.034
396.248	24.784	816.514	643.413
397.263	26.223	817.806	649.554
398.278	26.231	816.945	648.841
399.292	25.915	816.641	647.408
400.307	26.022	815.824	647.087
401.321	26.229	815.323	647.373
402.336	26.605	815.006	648.414
403.350	26.988	815.159	649.847
404.365	27.060	815.332	650.185
405.380	27.410	814.832	650.982
406.394	27.435	814.092	650.420
407.409	27.417	813.634	649.933
408.423	27.202	813.909	649.326
409.438	27.414	813.040	649.335
410.453	27.419	812.759	649.070
411.467	27.326	812.029	648.100
412.482	27.294	811.791	647.738
413.496	27.477	811.289	647.928
414.511	27.465	811.081	647.663
415.526	27.533	810.139	647.097
416.540	27.258	809.524	645.571
417.555	27.139	808.714	644.446
418.569	27.201	808.367	644.332
419.584	27.117	808.239	643.876
420.599	26.923	807.391	642.457
421.613	105.550	1277.840	1433.203
422.628	91.071	1346.378	1433.305
