DTS Sentinel unit serial number:	SN413079Multiplexer serial number:	ORYXHardware model number:	OX4-SRSoftware version number:	ORYX F/W v4.00 Oryx Data Collector v3.7.2.0data status	okinstallation	princeton_trtdifferential loss correction	single-endedforward channel	channel 1reverse channel	N/Adate	2019/09/10time	23:12:11forward acquisition time	60.00reverse acquisition time	0.00gamma	496.2192k internal	0.2331k external	0.2331temperature offset calibration	0.9941default loss term (dB/km)	0.3790temperature slope calibration	1.0000multiplexer offset coefficient	1.0000multiplexer slope coefficient	1.0000fibre end	0.00T internal ref (°C)	29.87T ext. ref 1 (°C)	-0.32T ext. ref 2 (°C)	23.20length (m)	temperature (°C)	Stokes	anti-Stokes-747.200	-11.547	0.129	0.085
-746.185	-88.056	-0.212	-0.064
-745.171	-50.651	0.412	0.195
-744.156	43.272	-0.234	0.215
-743.142	189.481	-0.158	0.238
-742.127	-124.519	-0.200	0.031
-741.112	-122.177	0.250	-0.041
-740.098	348.563	-0.126	0.251
-739.083	800.000	-0.010	-0.041
-738.069	-28.429	0.218	0.127
-737.054	-112.908	0.092	-0.018
-736.039	293.357	-0.143	-0.262
-735.025	-125.311	0.452	0.070
-734.010	-115.417	-0.173	0.033
-732.996	-176.663	-0.291	-0.007
-731.981	114.038	-0.095	0.116
-730.966	800.000	-0.009	-0.027
-729.952	-84.127	-0.199	0.064
-728.937	-133.832	-0.384	0.048
-727.923	-121.055	-0.254	-0.043
-726.908	69.988	-0.255	0.265
-725.894	-200.000	0.005	0.078
-724.879	-125.373	0.154	-0.024
-723.864	-81.600	-0.355	-0.117
-722.850	-163.388	0.094	0.005
-721.835	-78.058	0.262	-0.091
-720.821	63.645	0.181	-0.183
-719.806	-87.942	-0.360	-0.109
-718.791	-200.000	-0.012	-0.696
-717.777	-200.000	0.003	-0.378
-716.762	-130.133	-0.089	-0.012
-715.748	16.678	0.138	0.110
-714.733	-80.274	-0.155	0.052
-713.718	-145.270	-0.172	-0.016
-712.704	-96.788	0.194	0.051
-711.689	-200.000	0.067	-0.514
-710.675	-200.000	-0.014	-0.373
-709.660	800.000	-0.121	0.517
-708.645	-200.000	0.003	-0.134
-707.631	250.692	0.099	-0.169
-706.616	800.000	0.051	0.209
-705.602	-200.000	-0.033	0.166
-704.587	-138.589	-0.355	-0.039
-703.572	-61.151	-0.099	0.042
-702.558	800.000	0.022	0.077
-701.543	-151.931	-0.178	-0.013
-700.529	-200.000	0.032	0.188
-699.514	-162.265	-0.292	0.015
-698.499	-99.981	-0.225	-0.056
-697.485	-200.000	-0.052	-0.384
-696.470	-123.191	-0.178	-0.029
-695.456	6.720	0.175	-0.131
-694.441	-35.952	-0.215	-0.117
-693.426	-200.000	0.013	0.170
-692.412	-39.084	-0.224	0.118
-691.397	38.957	0.158	0.142
-690.383	-200.000	-0.003	-0.052
-689.368	-82.925	-0.677	0.220
-688.354	87.014	0.096	-0.106
-687.339	-200.000	-0.009	0.188
-686.324	-200.000	-0.003	-0.204
-685.310	-91.284	-0.305	-0.088
-684.295	800.000	-0.033	-0.097
-683.281	-22.207	0.298	0.181
-682.266	-200.000	0.003	0.143
-681.251	-200.000	-0.014	0.262
-680.237	208.428	0.042	0.065
-679.222	800.000	0.010	0.040
-678.208	105.783	-0.102	0.121
-677.193	52.548	-0.026	-0.025
-676.178	-24.228	0.125	-0.075
-675.164	8.261	-0.163	0.123
-674.149	6.861	-0.359	-0.268
-673.135	113.996	-0.250	0.305
-672.120	800.000	-0.046	0.138
-671.105	-166.935	0.252	0.010
-670.091	-145.970	0.138	0.012
-669.076	-139.682	-0.243	0.026
-668.062	162.177	0.152	0.214
-667.047	33.880	0.067	0.058
-666.032	-6.875	-0.175	-0.120
-665.018	-3.699	-0.186	0.130
-664.003	-135.898	-0.241	0.029
-662.989	-200.000	0.018	0.119
-661.974	4.226	0.109	-0.080
-660.959	-21.496	-0.239	0.147
-659.945	101.985	0.061	-0.071
-658.930	-132.681	0.151	-0.019
-657.916	87.630	-0.353	-0.392
-656.901	-26.246	0.147	0.086
-655.886	81.840	0.039	-0.043
-654.872	83.431	-0.155	-0.169
-653.857	-200.000	0.002	-0.248
-652.843	-145.997	-0.091	-0.008
-651.828	188.534	0.100	-0.149
-650.814	-135.851	-0.154	-0.018
-649.799	306.792	0.089	0.167
-648.784	-99.439	0.339	-0.085
-647.770	-56.150	-0.302	0.135
-646.755	-200.000	-0.026	0.200
-645.741	517.175	-0.122	0.286
-644.726	-200.000	0.036	-0.208
-643.711	-132.339	-0.121	-0.016
-642.697	-152.997	0.287	0.020
-641.682	455.327	0.025	0.055
-640.668	-116.309	-0.437	-0.081
-639.653	400.619	0.081	0.171
-638.638	83.452	-0.088	-0.096
-637.624	800.000	-0.078	-0.275
-636.609	-109.492	0.090	0.019
-635.595	-54.397	0.239	-0.109
-634.580	139.762	0.162	0.214
-633.565	-139.069	-0.105	0.011
-632.551	-200.000	-0.051	-0.288
-631.536	-122.239	-0.020	0.003
-630.522	-151.207	0.259	-0.019
-629.507	469.438	-0.107	-0.242
-628.492	-125.294	-0.376	0.058
-627.478	-200.000	0.051	0.227
-626.463	17.984	-0.055	0.044
-625.449	-47.731	0.102	-0.050
-624.434	435.004	0.062	-0.135
-623.419	186.934	0.134	-0.199
-622.405	69.002	-0.166	-0.171
-621.390	-131.229	0.230	0.031
-620.376	-109.054	-0.180	0.038
-619.361	-122.436	-0.129	-0.021
-618.346	-69.426	-0.238	-0.091
-617.332	800.000	0.074	-0.210
-616.317	800.000	-0.032	0.133
-615.303	294.548	-0.164	-0.301
-614.288	-200.000	-0.021	0.231
-613.273	-55.204	-0.048	0.022
-612.259	-4.425	-0.249	0.172
-611.244	343.953	0.116	-0.228
-610.230	15.697	0.219	-0.173
-609.215	-150.558	-0.226	-0.017
-608.201	640.570	-0.107	0.273
-607.186	-200.000	0.040	-0.217
-606.171	34.074	-0.021	0.019
-605.157	274.473	0.044	-0.078
-604.142	187.760	-0.146	-0.218
-603.128	281.566	-0.133	0.238
-602.113	391.218	-0.041	-0.085
-601.098	800.000	0.101	-0.400
-600.084	-106.226	-0.280	-0.063
-599.069	-125.743	-0.028	0.004
-598.055	-176.164	-0.407	-0.011
-597.040	-102.598	0.141	-0.034
-596.025	180.637	-0.121	-0.178
-595.011	-48.991	-0.187	-0.090
-593.996	172.604	-0.251	-0.361
-592.982	466.185	-0.024	-0.053
-591.967	12.069	0.187	-0.144
-590.952	800.000	-0.023	-0.064
-589.938	-200.000	-0.008	-0.151
-588.923	-33.610	0.171	-0.094
-587.909	-110.703	-0.197	0.041
-586.894	-200.000	0.003	0.232
-585.879	-200.000	0.006	-0.230
-584.865	3.184	-0.037	-0.027
-583.850	-21.281	0.239	-0.146
-582.836	-108.477	-0.208	0.045
-581.821	-70.690	-0.081	-0.031
-580.806	392.139	-0.060	-0.124
-579.792	-121.968	0.344	-0.057
-578.777	-200.000	-0.013	0.128
-577.763	-120.850	-0.318	0.054
-576.748	-200.000	0.037	0.293
-575.733	412.805	-0.089	0.189
-574.719	66.080	0.070	0.071
-573.704	-110.285	-0.065	0.014
-572.690	-14.260	0.221	0.143
-571.675	-94.157	-0.193	0.053
-570.661	14.586	-0.104	-0.081
-569.646	46.159	-0.265	0.246
-568.631	17.268	0.274	0.218
-567.617	21.791	-0.070	-0.057
-566.602	385.006	0.084	-0.173
-565.588	-48.634	0.236	-0.113
-564.573	-21.842	-0.301	-0.183
-563.558	143.835	-0.072	0.096
-562.544	-200.000	0.033	0.445
-561.529	-171.382	0.272	-0.009
-560.515	133.884	0.080	-0.104
-559.500	222.345	-0.355	-0.571
-558.485	464.760	0.171	0.383
-557.471	-50.180	0.148	0.070
-556.456	-200.000	-0.016	-0.088
-555.442	-149.659	-0.168	-0.013
-554.427	-67.127	-0.192	-0.076
-553.412	-136.356	0.068	-0.008
-552.398	-111.337	0.168	0.034
-551.383	800.000	0.016	-0.061
-550.369	-200.000	-0.031	0.157
-549.354	152.891	-0.238	-0.325
-548.339	7.133	0.122	-0.091
-547.325	-182.756	0.338	-0.006
-546.310	-168.148	0.258	-0.010
-545.296	85.086	-0.121	-0.133
-544.281	-58.410	0.274	-0.119
-543.266	800.000	0.061	-0.266
-542.252	-6.306	0.081	-0.055
-541.237	-122.357	-0.231	-0.038
-540.223	260.569	-0.072	-0.124
-539.208	-146.584	-0.161	-0.014
-538.193	500.208	-0.086	-0.198
-537.179	-70.184	0.253	-0.096
-536.164	92.978	0.099	-0.112
-535.150	705.013	0.123	-0.325
-534.135	-200.000	0.019	0.308
-533.121	93.134	0.171	0.193
-532.106	28.732	-0.057	-0.049
-531.091	110.106	-0.102	-0.122
-530.077	22.138	-0.237	0.193
-529.062	-43.132	0.253	-0.128
-528.048	-200.000	0.000	-0.270
-527.033	365.868	0.069	0.138
-526.018	-159.519	0.295	0.016
-525.004	-66.227	-0.149	-0.059
-523.989	233.566	-0.178	-0.292
-522.975	-44.487	-0.180	-0.090
-521.960	466.843	-0.047	0.105
-520.945	-94.690	-0.382	0.104
-519.931	-107.321	-0.132	0.029
-518.916	800.000	0.060	-0.237
-517.902	337.738	-0.133	-0.257
-516.887	20.231	-0.171	-0.138
-515.872	38.739	0.194	0.173
-514.858	204.827	-0.188	0.290
-513.843	484.554	-0.196	-0.445
-512.829	154.732	0.145	-0.199
-511.814	-97.186	-0.365	-0.095
-510.799	56.914	-0.229	0.222
-509.785	9.965	-0.286	0.217
-508.770	-154.290	-0.194	0.013
-507.756	-200.000	-0.007	0.329
-506.741	-45.703	-0.118	-0.058
-505.726	-200.000	0.003	0.077
-504.712	-25.899	0.121	0.071
-503.697	800.000	0.101	-0.314
-502.683	-60.031	-0.173	0.074
-501.668	7.695	-0.181	0.135
-500.653	-32.262	0.312	0.174
-499.639	-136.751	0.281	-0.032
-498.624	495.510	-0.059	0.136
-497.610	-167.534	-0.244	-0.010
-496.595	-49.335	-0.066	0.031
-495.581	-200.000	-0.017	0.141
-494.566	-55.345	0.445	0.199
-493.551	800.000	-0.037	-0.133
-492.537	127.557	-0.182	0.231
-491.522	-26.245	-0.227	-0.133
-490.508	247.388	-0.084	0.141
-489.493	-200.000	0.010	-0.046
-488.478	-33.756	0.283	0.156
-487.464	106.637	-0.270	0.319
-486.449	-158.323	0.220	-0.013
-485.435	25.264	-0.205	0.170
-484.420	-53.777	-0.345	-0.157
-483.405	-22.259	-0.141	0.085
-482.391	-28.840	-0.428	-0.245
-481.376	-200.000	0.008	-0.121
-480.362	37.719	-0.170	-0.150
-479.347	-6.168	0.228	0.155
-478.332	262.309	0.085	0.147
-477.318	-31.833	0.297	-0.166
-476.303	-166.127	0.105	0.004
-475.289	262.789	-0.090	0.156
-474.274	192.957	-0.007	-0.011
-473.259	55.714	-0.238	-0.230
-472.245	-6.687	-0.160	0.108
-471.230	800.000	-0.083	-0.273
-470.216	800.000	-0.078	0.293
-469.201	117.167	0.113	0.138
-468.186	-47.304	0.271	-0.131
-467.172	-60.818	0.295	0.125
-466.157	316.976	0.111	0.209
-465.143	114.271	-0.074	-0.090
-464.128	-70.246	0.221	-0.083
-463.113	-84.193	0.311	-0.098
-462.099	800.000	-0.035	-0.132
-461.084	22.285	-0.098	0.080
-460.070	800.000	0.079	0.264
-459.055	-200.000	0.024	0.178
-458.040	-12.679	-0.109	0.071
-457.026	315.381	0.101	-0.189
-456.011	290.626	-0.074	-0.134
-454.997	800.000	-0.049	0.175
-453.982	74.494	-0.069	0.072
-452.968	579.863	-0.084	-0.205
-451.953	-161.744	-0.049	0.002
-450.938	-200.000	0.073	0.369
-449.924	-144.308	0.245	0.023
-448.909	-19.390	-0.285	-0.176
-447.895	-200.000	0.041	0.570
-446.880	-200.000	-0.043	0.284
-445.865	-200.000	0.000	0.018
-444.851	107.876	-0.388	0.460
-443.836	-87.989	0.168	0.050
-442.822	141.243	0.092	-0.121
-441.807	-77.105	-0.218	0.075
-440.792	469.231	-0.176	-0.392
-439.778	-43.817	0.400	0.200
-438.763	-190.940	-0.249	-0.003
-437.749	529.461	0.034	0.080
-436.734	-114.385	-0.162	-0.031
-435.719	-200.000	-0.001	-0.276
-434.705	-33.209	0.193	-0.106
-433.690	-121.495	0.258	0.043
-432.676	486.641	-0.077	0.174
-431.661	10.406	-0.253	0.192
-430.646	-3.670	-0.105	-0.073
-429.632	-200.000	0.020	-0.147
-428.617	800.000	-0.092	0.374
-427.603	-105.423	0.112	0.025
-426.588	-56.729	0.284	-0.125
-425.573	396.340	0.105	-0.218
-424.559	-2.987	-0.124	-0.086
-423.544	299.555	0.084	-0.153
-422.530	147.221	0.138	0.184
-421.515	-143.936	-0.182	0.017
-420.500	75.100	-0.138	-0.144
-419.486	53.363	0.125	0.119
-418.471	-136.967	0.176	-0.020
-417.457	800.000	-0.110	-0.316
-416.442	59.812	-0.101	0.099
-415.428	457.708	-0.030	0.067
-414.413	71.236	-0.078	0.080
-413.398	-19.123	-0.099	-0.061
-412.384	-121.418	-0.128	-0.021
-411.369	-200.000	-0.002	0.079
-410.355	-45.595	-0.175	-0.086
-409.340	-190.742	-0.293	0.003
-408.325	-200.000	0.047	0.223
-407.311	-54.068	-0.239	0.108
-406.296	447.740	-0.072	-0.157
-405.282	188.587	-0.145	-0.215
-404.267	58.785	0.044	-0.043
-403.252	-133.657	0.246	0.031
-402.238	-117.869	-0.179	-0.032
-401.223	62.004	0.024	-0.023
-400.209	403.634	0.040	0.084
-399.194	-95.043	0.182	-0.049
-398.179	728.325	-0.053	0.141
-397.165	-200.000	-0.034	-0.224
-396.150	-85.043	0.285	0.089
-395.136	-200.000	-0.002	-0.055
-394.121	140.817	0.102	0.133
-393.106	-164.240	-0.159	0.007
-392.092	800.000	-0.077	0.227
-391.077	800.000	0.017	-0.058
-390.063	67.804	0.019	-0.019
-389.048	200.493	0.071	0.108
-388.033	-137.496	-0.227	0.025
-387.019	-200.000	0.081	0.355
-386.004	208.785	-0.205	0.318
-384.990	-129.173	0.048	0.007
-383.975	-200.000	0.023	-0.140
-382.960	-115.671	-0.139	0.026
-381.946	681.760	-0.115	-0.298
-380.931	-200.000	0.029	-0.167
-379.917	567.456	-0.127	0.306
-378.902	-200.000	0.011	0.198
-377.888	143.125	0.177	0.233
-376.873	591.624	-0.083	-0.204
-375.858	134.163	-0.061	0.079
-374.844	21.826	-0.192	0.155
-373.829	72.511	0.133	0.138
-372.815	136.189	0.093	0.120
-371.800	44.141	-0.227	-0.206
-370.785	-21.478	-0.333	0.201
-369.771	-140.405	0.292	0.030
-368.756	-134.353	0.043	-0.005
-367.742	800.000	0.027	-0.084
-366.727	84.198	0.076	0.083
-365.712	257.866	-0.126	-0.215
-364.698	79.892	-0.121	0.129
-363.683	800.000	0.168	0.463
-362.669	-200.000	-0.034	0.235
-361.654	84.881	-0.146	-0.158
-360.639	-200.000	0.050	0.234
-359.625	-59.037	-0.284	0.121
-358.610	158.685	-0.173	-0.238
-357.596	-18.768	0.043	-0.027
-356.581	-54.134	0.175	0.079
-355.566	553.490	0.078	-0.185
-354.552	127.487	0.130	0.163
-353.537	237.584	0.151	0.248
-352.523	-104.472	-0.173	0.040
-351.508	159.891	0.083	-0.115
-350.493	-111.935	0.394	-0.079
-349.479	800.000	0.125	-0.421
-348.464	-200.000	0.095	-0.471
-347.450	-152.023	0.283	0.020
-346.435	392.759	-0.089	-0.183
-345.420	800.000	0.134	0.373
-344.406	104.438	-0.125	-0.145
-343.391	-170.798	-0.172	-0.006
-342.377	99.445	-0.049	0.057
-341.362	188.349	-0.096	0.143
-340.348	800.000	-0.083	0.240
-339.333	-49.085	0.336	-0.159
-338.318	268.489	-0.156	-0.271
-337.304	-200.000	0.004	-0.138
-336.289	714.590	-0.045	-0.119
-335.275	800.000	-0.065	-0.214
-334.260	293.290	-0.055	0.100
-333.245	532.754	0.045	-0.105
-332.231	28.968	0.086	0.072
-331.216	-91.448	-0.298	-0.084
-330.202	-91.875	-0.109	0.031
-329.187	-200.000	0.028	-0.160
-328.172	800.000	-0.091	0.322
-327.158	800.000	-0.039	-0.167
-326.143	682.294	-0.102	-0.264
-325.129	345.721	0.065	-0.127
-324.114	28.345	0.070	0.058
-323.099	91.392	0.055	-0.062
-322.085	800.000	-0.122	0.349
-321.070	-142.942	0.291	-0.028
-320.056	-153.123	0.090	-0.006
-319.041	800.000	-0.100	0.299
-318.026	37.338	-0.192	0.168
-317.012	800.000	-0.027	0.082
-315.997	-131.237	0.253	-0.033
-314.983	213.047	0.224	0.350
-313.968	-200.000	-0.020	0.181
-312.953	-200.000	0.030	-0.145
-311.939	64.253	-0.222	0.221
-310.924	69.731	0.207	0.211
-309.910	-121.392	0.281	-0.046
-308.895	357.540	0.084	0.166
-307.880	45.223	0.123	0.113
-306.866	-100.199	-0.293	0.072
-305.851	800.000	-0.070	-0.284
-304.837	18.736	0.139	0.110
-303.822	-44.516	0.220	-0.109
-302.807	425.064	0.122	0.259
-301.793	153.120	0.150	-0.203
-300.778	-130.295	0.381	-0.051
-299.764	-22.379	0.125	-0.075
-298.749	-33.884	0.264	-0.144
-297.735	-140.320	0.402	0.042
-296.720	-86.416	-0.064	0.019
-295.705	67.792	0.207	-0.209
-294.691	-66.809	0.280	-0.110
-293.676	196.643	0.112	0.169
-292.662	-55.060	-0.268	0.119
-291.647	262.006	0.066	0.114
-290.632	-200.000	0.025	0.132
-289.618	-91.305	-0.186	0.053
-288.603	5.239	-0.281	0.205
-287.589	-200.000	0.031	-0.148
-286.574	-143.189	0.498	0.047
-285.559	292.154	-0.157	-0.284
-284.545	106.507	-0.202	-0.236
-283.530	-178.027	0.108	-0.003
-282.516	-200.000	-0.001	-0.088
-281.501	800.000	-0.014	-0.041
-280.486	31.967	0.277	0.236
-279.472	-106.658	0.219	-0.048
-278.457	-200.000	-0.003	0.235
-277.443	74.041	-0.027	-0.029
-276.428	36.117	0.121	-0.106
-275.413	55.145	0.141	-0.135
-274.399	800.000	0.032	0.122
-273.384	-7.813	0.262	0.175
-272.370	800.000	0.068	0.210
-271.355	208.177	0.109	-0.169
-270.340	-200.000	0.024	-0.291
-269.326	315.262	0.190	-0.353
-268.311	215.828	0.148	0.233
-267.297	-134.449	-0.108	0.013
-266.282	57.592	-0.034	-0.033
-265.267	-39.101	-0.240	-0.125
-264.253	375.836	-0.155	-0.313
-263.238	-200.000	-0.061	-0.323
-262.224	-90.353	-0.372	-0.107
-261.209	775.409	0.110	0.297
-260.195	-107.404	-0.195	0.042
-259.180	-96.182	0.241	0.063
-258.165	-130.867	-0.174	0.023
-257.151	770.115	-0.047	0.126
-256.136	381.029	-0.060	0.121
-255.122	495.785	0.072	0.164
-254.107	-200.000	-0.013	-0.172
-253.092	-200.000	0.038	0.226
-252.078	-3.260	-0.085	-0.058
-251.063	70.548	-0.222	0.226
-250.049	5.725	-0.349	0.255
-249.034	382.748	0.150	0.305
-248.019	800.000	0.071	0.195
-247.005	-97.190	-0.181	0.047
-245.990	144.514	0.089	-0.117
-244.976	800.000	0.131	-0.416
-243.961	-20.199	-0.070	-0.042
-242.946	-73.406	0.509	0.183
-241.932	800.000	0.106	-0.321
-240.917	-107.931	0.435	0.093
-239.903	13.793	-0.196	-0.151
-238.888	310.033	-0.127	-0.235
-237.873	-149.395	0.300	-0.024
-236.859	59.076	-0.292	-0.283
-235.844	-200.000	0.019	-0.146
-234.830	67.787	0.214	-0.215
-233.815	-108.838	-0.265	-0.056
-232.800	-82.473	0.427	-0.137
-231.786	4.169	0.087	-0.063
-230.771	24.817	0.151	0.124
-229.757	111.906	0.225	-0.269
-228.742	-200.000	-0.007	-0.063
-227.727	-56.810	-0.204	-0.089
-226.713	207.384	0.230	0.353
-225.698	-1.780	0.171	0.119
-224.684	-157.870	-0.251	0.015
-223.669	-149.058	-0.117	-0.009
-222.655	36.756	0.121	0.105
-221.640	-103.339	0.211	0.049
-220.625	-24.155	0.086	0.051
-219.611	191.867	-0.171	-0.253
-218.596	6.085	-0.167	0.122
-217.582	-197.329	0.156	0.001
-216.567	-166.379	0.076	-0.003
-215.552	-200.000	0.035	-0.191
-214.538	-200.000	0.013	-0.229
-213.523	-200.000	-0.025	-0.233
-212.509	-82.595	0.312	0.100
-211.494	226.942	-0.172	-0.275
-210.479	-85.277	0.076	-0.023
-209.465	302.897	0.043	0.078
-208.450	-129.574	-0.426	0.058
-207.436	-200.000	-0.023	0.124
-206.421	-123.788	-0.139	0.022
-205.406	629.291	-0.129	-0.321
-204.392	-8.954	0.196	-0.129
-203.377	-200.000	0.018	-0.203
-202.363	-100.022	-0.200	0.049
-201.348	-200.000	0.092	0.532
-200.333	-134.627	0.332	0.040
-199.319	-200.000	0.010	-0.224
-198.304	-200.000	0.020	-0.119
-197.290	75.269	0.110	-0.114
-196.275	800.000	-0.107	0.329
-195.260	-19.595	0.235	0.143
-194.246	-107.169	0.221	0.048
-193.231	-72.877	-0.114	-0.041
-192.217	-200.000	0.051	0.265
-191.202	-200.000	-0.013	0.414
-190.187	266.270	0.183	-0.315
-189.173	110.689	0.163	-0.193
-188.158	369.842	-0.131	0.261
-187.144	800.000	-0.106	0.346
-186.129	55.256	0.294	-0.280
-185.114	800.000	-0.106	-0.371
-184.100	-185.913	-0.303	0.004
-183.085	39.321	-0.126	-0.111
-182.071	52.999	0.207	-0.195
-181.056	31.867	0.100	-0.084
-180.042	99.695	-0.185	0.211
-179.027	140.697	-0.035	-0.046
-178.012	-7.974	0.166	0.110
-176.998	508.563	-0.108	-0.247
-175.983	-2.522	-0.134	-0.093
-174.969	-133.559	0.205	-0.025
-173.954	40.478	-0.146	0.129
-172.939	-87.706	0.189	-0.056
-171.925	-133.617	-0.206	-0.025
-170.910	395.612	-0.060	0.124
-169.896	800.000	0.101	-0.331
-168.881	-2.597	-0.184	-0.126
-167.866	62.918	0.038	0.038
-166.852	-200.000	0.015	0.138
-165.837	800.000	0.090	0.384
-164.823	98.261	0.156	0.176
-163.808	-200.000	-0.037	0.161
-162.793	-75.190	0.239	-0.084
-161.779	-125.803	-0.206	0.031
-160.764	-200.000	-0.009	-0.077
-159.750	-46.217	-0.158	-0.077
-158.735	17.831	0.205	0.161
-157.720	471.028	0.175	0.388
-156.706	461.493	0.064	0.140
-155.691	15.483	0.186	-0.144
-154.677	19.976	0.062	0.049
-153.662	244.295	-0.109	0.181
-152.647	255.022	0.182	0.306
-151.633	131.137	-0.102	-0.128
-150.618	215.714	-0.048	-0.075
-149.604	-108.535	0.342	-0.072
-148.589	-61.637	0.308	-0.127
-147.574	-200.000	-0.032	-0.225
-146.560	-30.616	0.203	-0.113
-145.545	294.184	-0.220	0.395
-144.531	197.984	-0.269	0.404
-143.516	163.554	-0.106	-0.147
-142.502	709.580	0.128	-0.332
-141.487	-200.000	0.010	-0.471
-140.472	119.006	0.118	0.144
-139.458	53.796	0.281	-0.265
-138.443	385.925	0.121	-0.245
-137.429	800.000	0.042	0.175
-136.414	48.735	0.152	-0.140
-135.399	460.650	-0.074	0.161
-134.385	-9.448	-0.325	0.213
-133.370	-174.987	0.145	0.004
-132.356	-200.000	-0.007	-0.261
-131.341	-65.111	0.402	0.159
-130.326	-200.000	-0.019	0.312
-129.312	-75.494	-0.161	0.056
-128.297	3.364	0.094	0.068
-127.283	772.027	0.173	0.464
-126.268	308.330	-0.166	0.305
-125.253	-51.780	-0.370	0.169
-124.239	-121.676	0.402	0.065
-123.224	49.202	0.148	-0.137
-122.210	149.086	-0.116	-0.155
-121.195	-97.141	-0.128	-0.033
-120.180	-72.657	-0.120	-0.043
-119.166	190.634	-0.196	-0.290
-118.151	118.054	-0.172	-0.208
-117.137	1.167	0.171	0.121
-116.122	-47.583	-0.069	0.033
-115.107	-109.355	0.257	0.054
-114.093	800.000	0.037	0.155
-113.078	58.821	-0.266	0.256
-112.064	-200.000	-0.051	-0.229
-111.049	58.875	-0.210	-0.203
-110.034	-32.839	-0.050	-0.027
-109.020	-170.503	0.212	0.007
-108.005	-38.144	0.033	-0.017
-106.991	-93.824	-0.110	0.030
-105.976	350.603	-0.039	-0.076
-104.962	-200.000	0.013	0.152
-103.947	-200.000	0.102	-0.443
-102.932	-11.472	0.165	0.106
-101.918	67.572	-0.124	-0.124
-100.903	800.000	-0.084	0.244
-99.889	-170.145	0.211	-0.007
-98.874	-77.372	0.128	0.044
-97.859	800.000	0.024	0.087
-96.845	175.949	0.173	-0.246
-95.830	-90.832	0.150	-0.042
-94.816	14.768	0.119	-0.091
-93.801	-200.000	0.068	-0.503
-92.786	-151.420	0.459	0.034
-91.772	335.613	0.094	-0.179
-90.757	-151.313	0.150	0.011
-89.743	744.571	0.091	0.241
-88.728	473.847	-0.078	0.172
-87.713	-102.491	-0.239	0.056
-86.699	-85.221	0.093	0.028
-85.684	101.449	-0.074	-0.084
-84.670	113.695	-0.151	-0.180
-83.655	800.000	0.056	-0.227
-82.640	320.117	0.136	0.254
-81.626	7.460	0.280	-0.206
-80.611	-64.537	-0.559	-0.223
-79.597	-200.000	0.004	-0.409
-78.582	-127.518	0.071	-0.010
-77.567	-39.403	0.106	0.055
-76.553	42.911	-0.333	-0.298
-75.538	-14.562	-0.053	-0.033
-74.524	-137.522	0.177	-0.020
-73.509	-200.000	0.038	-0.183
-72.494	369.210	-0.063	0.124
-71.480	-17.407	0.318	0.196
-70.465	-111.369	-0.016	0.003
-69.451	671.309	-0.052	0.132
-68.436	-200.000	-0.012	-0.315
-67.422	-57.703	0.184	0.079
-66.407	800.000	0.137	0.554
-65.392	169.985	-0.142	0.199
-64.378	800.000	-0.162	0.482
-63.363	800.000	-0.047	-0.184
-62.349	66.164	0.171	0.170
-61.334	56.047	-1.056	-1.005
-60.319	-57.476	0.460	0.198
-59.305	368.936	-0.477	-0.946
-58.290	575.194	0.454	1.086
-57.276	800.000	0.502	1.385
-56.261	-200.000	105.630	617.919
-55.246	516.707	1493.761	3421.485
-54.232	179.029	2683.486	3844.706
-53.217	113.307	2152.314	2558.598
-52.203	41.826	1590.451	1412.689
-51.188	33.406	1325.138	1127.139
-50.173	30.275	1284.000	1074.016
-49.159	54.573	1337.969	1263.380
-48.144	55.306	1353.938	1282.735
-47.130	33.497	1308.494	1113.340
-46.115	29.913	1291.340	1077.879
-45.100	29.848	1285.740	1072.784
-44.086	29.751	1283.524	1070.328
-43.071	29.684	1281.050	1067.839
-42.057	29.683	1279.122	1066.183
-41.042	29.879	1276.965	1065.471
-40.027	29.843	1275.349	1063.875
-39.013	29.762	1274.043	1062.274
-37.998	29.823	1272.325	1061.148
-36.984	29.887	1270.482	1059.939
-35.969	29.834	1268.725	1058.124
-34.954	29.819	1267.237	1056.756
-33.940	29.918	1266.011	1056.257
-32.925	29.979	1264.482	1055.288
-31.911	29.935	1263.026	1053.779
-30.896	29.941	1261.533	1052.530
-29.881	29.963	1260.242	1051.536
-28.867	30.004	1258.782	1050.508
-27.852	29.950	1257.620	1049.191
-26.838	30.046	1255.581	1047.991
-25.823	30.007	1254.667	1046.967
-24.809	29.914	1253.437	1045.370
-23.794	29.911	1252.145	1044.239
-22.779	30.002	1250.673	1043.483
-21.765	29.882	1249.698	1041.952
-20.750	30.016	1247.807	1041.086
-19.736	29.895	1247.156	1039.822
-18.721	29.938	1245.671	1038.781
-17.706	30.018	1244.536	1038.243
-16.692	29.820	1243.512	1036.237
-15.677	29.741	1242.303	1034.750
-14.663	29.797	1241.280	1034.166
-13.648	29.817	1240.174	1033.318
-12.633	29.800	1239.159	1032.336
-11.619	29.839	1238.492	1031.958
-10.604	29.836	1237.438	1031.022
-9.590	29.759	1237.274	1030.412
-8.575	29.790	1235.997	1029.481
-7.560	29.826	1234.874	1028.704
-6.546	29.715	1234.090	1027.394
-5.531	29.804	1233.072	1027.000
-4.517	29.822	1232.036	1026.199
-3.502	29.872	1231.066	1025.628
-2.487	29.748	1230.443	1024.380
-1.473	29.746	1226.716	1021.226
-0.458	28.162	1211.960	1000.251
0.556	22.510	1194.434	962.309
1.571	18.852	1199.908	946.523
2.586	17.918	1214.092	952.416
3.600	17.761	1203.021	942.782
4.615	12.980	1132.441	862.456
5.629	4.084	1059.504	763.161
6.644	-0.127	1039.955	728.619
7.659	-0.305	1037.156	725.733
8.673	-0.418	1036.046	724.347
9.688	-0.419	1034.611	723.276
10.702	-0.032	1032.784	723.798
11.717	5.693	1040.679	756.985
12.731	14.602	1053.727	809.816
13.746	18.968	1058.403	834.576
14.761	19.563	1059.768	838.465
15.775	19.647	1058.780	838.018
16.790	19.489	1057.890	836.474
17.804	19.349	1057.622	835.512
18.819	19.515	1056.938	835.701
19.834	19.608	1056.334	835.599
20.848	19.669	1055.781	835.380
21.863	19.570	1055.570	834.661
22.877	19.423	1055.232	833.613
23.892	19.436	1054.217	832.797
24.907	19.583	1053.702	833.026
25.921	19.617	1052.101	831.849
26.936	19.499	1050.999	830.337
27.950	19.394	1049.650	828.693
28.965	19.299	1047.686	826.616
29.980	19.388	1045.733	825.428
30.994	19.613	1044.382	825.365
32.009	19.598	1043.235	824.315
33.023	19.329	1042.821	822.627
34.038	19.480	1041.685	822.379
35.053	19.580	1041.024	822.263
36.067	19.643	1039.585	821.353
37.082	19.753	1039.088	821.409
38.096	19.802	1038.398	821.022
39.111	19.854	1037.588	820.559
40.126	19.708	1036.268	818.748
41.140	19.461	1034.389	816.027
42.155	19.212	1033.155	813.801
43.169	19.261	1031.740	812.846
44.184	19.294	1030.913	812.279
45.199	19.217	1030.037	811.155
46.213	19.288	1028.946	810.558
47.228	19.380	1027.922	810.109
48.242	19.503	1027.022	809.906
49.257	19.463	1026.686	809.385
50.271	19.512	1025.577	808.665
51.286	19.523	1024.908	808.120
52.301	19.527	1023.818	807.206
53.315	19.543	1022.647	806.285
54.330	19.513	1022.144	805.681
55.344	19.566	1021.450	805.309
56.359	19.426	1020.269	803.652
57.374	19.333	1019.289	802.379
58.388	19.381	1018.715	802.077
59.403	19.356	1017.702	801.093
60.417	19.264	1016.683	799.796
61.432	19.333	1016.035	799.535
62.447	19.515	1015.287	799.718
63.461	19.511	1015.036	799.428
64.476	19.479	1013.746	798.198
65.490	19.396	1012.212	796.535
66.505	19.463	1011.890	796.521
67.520	19.362	1011.338	795.546
68.534	19.256	1010.128	794.037
69.549	18.971	1008.857	791.656
70.563	19.093	1008.094	791.547
71.578	18.927	1007.787	790.474
72.593	18.835	1006.969	789.338
73.607	19.072	1005.820	789.457
74.622	19.292	1005.721	790.316
75.636	19.330	1004.849	789.738
76.651	19.186	1003.753	788.147
77.666	19.057	1003.136	787.004
78.680	19.119	1002.707	786.879
79.695	19.207	1002.297	786.890
80.709	19.227	1001.348	786.167
81.724	19.318	1000.242	785.644
82.739	19.295	1000.162	785.405
83.753	19.544	999.215	785.728
84.768	19.893	997.988	786.278
85.782	19.839	997.025	785.205
86.797	19.822	996.319	784.502
87.812	19.716	995.197	783.070
88.826	19.824	994.477	782.924
89.841	19.796	993.836	782.220
90.855	19.718	992.922	781.081
91.870	19.757	991.587	780.137
92.884	19.667	990.636	778.916
93.899	19.614	989.468	777.688
94.914	19.711	989.323	777.945
95.928	19.677	987.164	776.026
96.943	19.398	986.258	773.989
97.957	19.317	985.080	772.637
98.972	19.033	984.014	770.460
99.987	19.250	983.701	771.119
101.001	19.565	982.940	771.861
102.016	19.501	982.092	770.841
103.030	19.488	980.634	769.572
104.045	19.293	979.955	768.101
105.060	19.191	978.550	766.479
106.074	19.354	978.379	767.002
107.089	19.781	977.729	768.322
108.103	19.596	976.179	766.214
109.118	19.408	975.413	764.713
110.133	19.503	974.115	764.045
111.147	19.212	973.110	761.904
112.162	19.189	971.973	760.845
113.176	19.283	971.882	761.121
114.191	19.265	970.751	760.087
115.206	18.983	969.635	757.904
116.220	19.047	968.430	757.179
117.235	19.058	967.986	756.813
118.249	19.145	966.551	756.006
119.264	19.114	966.145	755.487
120.279	19.100	965.880	755.150
121.293	19.141	964.923	754.516
122.308	19.193	964.126	754.052
123.322	19.155	962.728	752.728
124.337	19.065	961.122	751.012
125.352	18.755	959.166	748.064
126.366	18.503	958.760	746.585
127.381	19.246	958.643	749.662
128.395	19.748	957.817	751.131
129.410	19.745	957.132	750.516
130.424	19.661	955.660	748.932
131.439	19.710	954.710	748.331
132.454	19.513	954.412	747.178
133.468	19.496	953.452	746.290
134.483	19.610	952.737	746.153
135.497	19.892	951.539	746.366
136.512	19.957	950.944	746.114
137.527	19.767	949.989	744.483
138.541	19.945	948.952	744.368
139.556	19.800	948.502	743.326
140.570	19.924	947.824	743.262
141.585	19.739	946.541	741.397
142.600	19.688	945.517	740.310
143.614	20.193	944.505	741.614
144.629	20.061	944.143	740.698
145.643	19.934	942.876	739.095
146.658	19.787	941.554	737.367
147.673	19.717	940.514	736.190
148.687	19.741	939.578	735.495
149.702	19.601	938.507	733.997
150.716	19.626	937.798	733.481
151.731	19.767	936.940	733.348
152.746	19.927	936.727	733.794
153.760	20.071	935.989	733.760
154.775	20.164	935.114	733.401
155.789	19.969	934.584	732.099
156.804	19.886	933.466	730.806
157.819	20.091	932.500	730.850
158.833	20.115	931.798	730.337
159.848	20.052	930.862	729.274
160.862	19.841	929.819	727.504
161.877	19.914	928.955	727.070
162.892	20.074	928.048	726.967
163.906	20.183	926.628	726.246
164.921	19.933	926.243	724.832
165.935	19.948	925.424	724.192
166.950	19.984	924.305	723.403
167.964	20.105	923.423	723.154
168.979	19.945	922.352	721.586
169.994	19.873	921.467	720.527
171.008	19.994	921.163	720.731
172.023	20.110	919.895	720.157
173.037	19.770	918.177	717.335
174.052	19.711	917.641	716.613
175.067	19.813	917.452	716.821
176.081	19.723	917.192	716.184
177.096	19.840	916.363	715.957
178.110	19.528	915.304	713.775
179.125	19.327	914.459	712.223
180.140	19.495	914.359	712.775
181.154	19.609	913.985	712.892
182.169	19.858	913.845	713.749
183.183	19.803	913.499	713.187
184.198	19.873	912.317	712.491
185.213	19.890	911.385	711.767
186.227	19.905	911.269	711.677
187.242	19.938	910.446	711.106
188.256	19.999	909.723	710.729
189.271	20.056	908.660	710.071
190.286	19.933	907.294	708.437
191.300	19.378	906.627	705.583
192.315	18.563	904.952	700.889
193.329	18.796	904.284	701.260
194.344	19.352	905.203	704.183
195.359	19.875	905.048	706.131
196.373	19.934	904.389	705.795
197.388	19.751	903.253	704.103
198.402	19.835	902.693	703.945
199.417	19.720	902.310	703.118
200.432	19.484	901.203	701.233
201.446	19.302	900.570	699.938
202.461	19.200	899.859	698.912
203.475	18.421	897.981	694.234
204.490	18.048	896.670	691.650
205.504	18.841	896.996	695.052
206.519	19.519	897.132	697.837
207.534	19.563	896.463	697.430
208.548	20.008	896.197	698.959
209.563	19.731	895.225	697.024
210.577	19.676	894.580	696.235
211.592	20.154	894.123	697.745
212.607	20.014	893.310	696.486
213.621	20.072	892.589	696.095
214.636	20.032	892.114	695.504
215.650	20.122	891.093	695.005
216.665	20.184	890.470	694.705
217.680	19.927	889.902	693.172
218.694	19.711	888.603	691.234
219.709	19.527	888.115	690.059
220.723	19.934	887.339	691.022
221.738	19.829	887.015	690.290
222.753	19.866	886.542	690.006
223.767	20.089	885.574	690.079
224.782	20.319	885.204	690.646
225.796	20.112	884.612	689.298
226.811	19.668	882.550	685.870
227.826	19.062	881.728	682.767
228.840	19.216	882.025	683.549
229.855	19.274	880.776	682.747
230.869	18.747	880.343	680.267
231.884	19.398	879.451	682.091
232.899	19.992	879.795	684.648
233.913	20.068	878.626	683.977
234.928	20.015	878.558	683.656
235.942	19.854	877.844	682.404
236.957	19.445	876.891	679.989
237.972	19.771	876.256	680.723
238.986	19.684	875.790	679.958
240.001	19.734	875.327	679.736
241.015	19.663	875.036	679.170
242.030	20.033	873.985	679.744
243.045	20.018	873.895	679.558
244.059	20.057	873.404	679.268
245.074	19.742	872.365	677.164
246.088	19.461	871.061	674.993
247.103	19.777	870.565	675.786
248.117	20.235	870.673	677.598
249.132	20.503	869.958	678.028
250.147	20.630	869.498	678.105
251.161	20.629	869.417	677.978
252.176	20.603	868.306	676.949
253.190	20.673	867.709	676.696
254.205	20.818	867.282	676.866
255.220	20.887	866.549	676.506
256.234	20.736	865.795	675.271
257.249	20.374	865.388	673.489
258.263	20.679	864.355	673.808
259.278	20.675	863.773	673.277
260.293	20.667	863.258	672.787
261.307	20.685	862.325	672.068
262.322	20.362	861.515	670.131
263.336	19.651	859.233	665.561
264.351	18.532	857.658	659.974
265.366	18.803	857.483	660.826
266.380	19.823	858.224	665.264
267.395	20.377	857.791	666.996
268.409	20.306	857.426	666.383
269.424	20.461	856.669	666.330
270.439	20.527	855.934	665.952
271.453	20.543	855.569	665.671
272.468	20.702	855.406	666.094
273.482	20.757	854.647	665.653
274.497	20.453	853.142	663.262
275.512	20.220	852.071	661.482
276.526	20.592	852.259	662.986
277.541	20.665	851.877	662.911
278.555	20.356	850.804	660.838
279.570	20.176	849.931	659.417
280.585	20.409	849.777	660.126
281.599	20.287	849.132	659.103
282.614	19.909	847.315	656.202
283.628	19.946	846.923	655.982
284.643	20.200	846.784	656.779
285.657	19.643	846.047	654.040
286.672	19.465	845.201	652.656
287.687	20.126	845.104	655.022
288.701	20.160	844.373	654.524
289.716	19.841	843.590	652.658
290.730	19.852	842.625	651.893
291.745	19.619	841.961	650.446
292.760	19.851	841.743	651.092
293.774	20.757	842.182	654.784
294.789	21.051	841.526	655.320
295.803	21.158	841.098	655.330
296.818	21.151	840.861	655.060
297.833	20.720	839.422	652.266
298.847	20.573	838.888	651.246
299.862	20.990	838.259	652.258
300.876	21.152	838.063	652.653
301.891	20.911	837.333	651.127
302.906	20.473	836.486	648.775
303.920	20.642	835.854	648.859
304.935	20.982	835.906	650.110
305.949	21.009	834.846	649.329
306.964	20.846	834.422	648.336
307.979	20.933	833.919	648.210
308.993	21.175	833.828	648.981
310.008	21.222	832.934	648.405
311.022	21.006	832.063	646.867
312.037	20.903	831.657	646.110
313.052	20.599	830.965	644.392
314.066	19.921	829.598	640.764
315.081	19.476	828.885	638.510
316.095	20.351	828.966	641.754
317.110	20.872	828.662	643.386
318.125	20.091	827.177	639.297
319.139	19.092	825.965	634.619
320.154	19.269	825.569	634.913
321.168	20.022	825.851	637.846
322.183	20.532	825.868	639.680
323.197	20.676	825.891	640.174
324.212	20.780	825.455	640.161
325.227	20.869	824.789	639.913
326.241	20.806	823.798	638.858
327.256	20.722	823.482	638.247
328.270	20.813	822.759	637.964
329.285	20.512	822.093	636.289
330.300	20.378	821.088	634.965
331.314	20.496	820.609	634.971
332.329	20.947	821.062	636.912
333.343	21.057	820.398	636.745
334.358	21.074	819.723	636.226
335.373	21.248	819.685	636.776
336.387	21.364	819.240	636.793
337.402	21.362	819.025	636.565
338.416	21.237	818.767	635.851
339.431	21.283	818.856	636.031
340.446	21.560	817.993	636.311
341.460	21.494	817.355	635.521
342.475	21.192	817.200	634.247
343.489	21.249	817.041	634.274
344.504	21.501	816.587	634.781
345.519	21.758	816.303	635.433
346.533	21.767	815.579	634.846
347.548	21.827	815.062	634.605
348.562	21.658	814.521	633.516
349.577	21.741	813.799	633.199
350.592	21.828	812.989	632.828
351.606	21.651	812.555	631.794
352.621	21.804	811.198	631.234
353.635	21.427	811.122	629.764
354.650	20.921	809.261	626.445
355.665	19.892	808.396	622.021
356.679	20.417	808.055	623.592
357.694	20.605	807.617	623.871
358.708	20.761	806.795	623.741
359.723	21.032	807.136	624.920
360.738	21.502	806.560	626.100
361.752	21.577	806.132	625.983
362.767	21.910	805.463	626.597
363.781	21.910	805.123	626.277
364.796	22.049	804.817	626.478
365.810	22.071	804.397	626.174
366.825	21.977	804.030	625.497
367.840	21.798	802.921	623.945
368.854	21.403	802.563	622.206
369.869	21.587	801.868	622.266
370.883	21.527	801.073	621.382
371.898	21.407	800.797	620.684
372.913	21.419	800.876	620.733
373.927	21.569	800.433	620.866
374.942	21.824	800.196	621.532
375.956	21.655	799.775	620.551
376.971	21.894	799.069	620.795
377.986	22.102	798.621	621.127
379.000	21.912	798.372	620.208
380.015	21.821	797.925	619.484
381.029	21.879	797.440	619.258
382.044	22.096	796.688	619.382
383.059	22.008	795.922	618.422
384.073	22.067	795.580	618.310
385.088	22.031	794.925	617.621
386.102	21.929	794.428	616.820
387.117	21.803	793.682	615.744
388.132	21.594	792.774	614.253
389.146	21.144	791.954	611.984
390.161	21.533	791.794	613.170
391.175	21.823	791.324	613.768
392.190	21.435	790.502	611.719
393.205	20.185	788.740	605.937
394.219	18.850	787.212	600.051
395.234	18.823	787.286	599.960
396.248	20.407	788.860	606.643
397.263	21.800	789.000	611.559
398.278	21.669	788.538	610.693
399.292	21.483	788.049	609.611
400.307	21.453	787.727	609.202
401.321	21.560	786.924	608.900
402.336	21.937	786.970	610.195
403.350	22.259	786.477	610.874
404.365	22.493	786.674	611.786
405.380	22.777	785.806	612.044
406.394	22.517	785.262	610.666
407.409	22.575	785.146	610.721
408.423	22.560	784.612	610.200
409.438	22.721	784.346	610.496
410.453	22.697	783.868	609.987
411.467	22.780	783.113	609.630
412.482	22.655	782.819	608.917
413.496	22.619	782.477	608.473
414.511	22.649	782.271	608.363
415.526	22.633	781.476	607.636
416.540	22.656	780.785	607.123
417.555	22.281	780.263	605.375
418.569	22.242	780.519	605.384
419.584	22.266	779.546	604.660
420.599	22.167	778.904	603.769
421.613	159.120	1362.438	1798.305
422.628	137.519	1447.440	1798.396
