DTS Sentinel unit serial number:	SN413079Multiplexer serial number:	ORYXHardware model number:	OX4-SRSoftware version number:	ORYX F/W v4.00 Oryx Data Collector v3.7.2.0data status	okinstallation	princeton_trtdifferential loss correction	single-endedforward channel	channel 1reverse channel	N/Adate	2019/09/10time	21:56:12forward acquisition time	60.00reverse acquisition time	0.00gamma	496.2192k internal	0.2331k external	0.2331temperature offset calibration	0.9934default loss term (dB/km)	0.3790temperature slope calibration	1.0000multiplexer offset coefficient	1.0000multiplexer slope coefficient	1.0000fibre end	0.00T internal ref (°C)	30.77T ext. ref 1 (°C)	-0.31T ext. ref 2 (°C)	24.03length (m)	temperature (°C)	Stokes	anti-Stokes-747.200	-93.763	-0.305	-0.085
-746.185	-200.000	-0.013	0.226
-745.171	108.858	0.239	0.288
-744.156	-156.551	-0.211	-0.013
-743.142	-162.549	-0.088	0.004
-742.127	-135.394	-0.036	0.004
-741.112	800.000	-0.057	-0.173
-740.098	127.408	0.202	0.258
-739.083	-152.346	0.306	0.022
-738.069	-69.063	-0.126	0.049
-737.054	-167.492	-0.396	-0.016
-736.039	-69.223	-0.164	0.064
-735.025	219.724	0.236	0.380
-734.010	112.837	-0.044	0.054
-732.996	800.000	-0.090	-0.260
-731.981	-200.000	-0.022	-0.175
-730.966	85.192	-0.212	-0.235
-729.952	-3.565	-0.209	0.146
-728.937	-79.124	0.080	-0.027
-727.923	-200.000	0.016	0.441
-726.908	-200.000	0.019	0.137
-725.894	-24.096	0.329	-0.198
-724.879	188.975	0.382	0.576
-723.864	43.367	-0.228	0.210
-722.850	-70.835	0.207	-0.079
-721.835	551.696	0.118	0.285
-720.821	-46.775	-0.228	-0.112
-719.806	-200.000	0.021	0.132
-718.791	11.663	0.218	-0.168
-717.777	44.702	0.124	0.115
-716.762	-200.000	0.018	-0.532
-715.748	-63.228	-0.215	0.089
-714.733	-1.871	0.331	0.234
-713.718	137.141	0.103	0.135
-712.704	800.000	0.055	-0.157
-711.689	-200.000	-0.066	-0.416
-710.675	-117.016	0.143	0.026
-709.660	-50.221	0.151	-0.072
-708.645	32.170	-0.052	-0.045
-707.631	-121.535	0.094	0.016
-706.616	-61.541	0.177	-0.075
-705.602	181.038	0.309	-0.456
-704.587	-115.834	-0.237	-0.045
-703.572	-75.004	0.163	0.059
-702.558	92.885	-0.215	-0.244
-701.543	-57.035	0.108	0.048
-700.529	800.000	-0.068	0.199
-699.514	-200.000	-0.011	-0.107
-698.499	800.000	0.069	-0.283
-697.485	-164.792	0.154	-0.007
-696.470	-34.890	0.202	0.111
-695.456	-200.000	-0.014	-0.162
-694.441	231.542	0.163	0.269
-693.426	160.886	0.133	0.187
-692.412	167.120	-0.181	-0.258
-691.397	-30.459	-0.364	-0.208
-690.383	-200.000	0.010	0.062
-689.368	-200.000	-0.032	0.000
-688.354	487.428	-0.121	-0.278
-687.339	32.075	-0.186	0.161
-686.324	-200.000	0.066	-0.298
-685.310	-42.936	-0.264	-0.135
-684.295	-200.000	-0.016	-0.205
-683.281	-200.000	0.393	-0.000
-682.266	101.458	-0.060	-0.070
-681.251	-127.973	-0.260	0.037
-680.237	-134.181	-0.131	0.016
-679.222	-3.402	-0.226	-0.158
-678.208	-41.070	-0.100	-0.052
-677.193	5.527	-0.153	0.113
-676.178	93.520	-0.137	-0.156
-675.164	800.000	-0.021	0.066
-674.149	-200.000	-0.082	0.448
-673.135	-164.686	0.134	-0.006
-672.120	-200.000	0.037	-0.221
-671.105	-200.000	-0.036	-0.335
-670.091	167.904	0.347	-0.495
-669.076	-161.401	-0.094	-0.005
-668.062	800.000	-0.047	0.154
-667.047	538.677	0.075	-0.180
-666.032	-31.450	0.154	0.087
-665.018	-10.293	0.055	-0.036
-664.003	508.878	0.062	-0.145
-662.989	-200.000	0.036	-0.362
-661.974	51.676	-0.177	-0.169
-660.959	-52.175	0.130	-0.061
-659.945	-98.917	0.094	0.024
-658.930	-143.838	-0.272	-0.026
-657.916	272.427	-0.274	-0.484
-656.901	14.967	-0.103	-0.081
-655.886	800.000	-0.086	-0.324
-654.872	357.932	-0.089	-0.179
-653.857	33.880	-0.205	-0.179
-652.843	800.000	-0.039	-0.133
-651.828	-158.978	0.186	-0.011
-650.814	800.000	-0.015	-0.049
-649.799	-139.497	-0.099	0.011
-648.784	-112.487	-0.296	-0.059
-647.770	-200.000	-0.033	0.460
-646.755	-181.322	-0.314	-0.006
-645.741	-146.703	0.266	0.023
-644.726	-200.000	0.044	0.259
-643.711	800.000	0.062	-0.179
-642.697	-152.886	-0.328	-0.023
-641.682	-200.000	0.027	0.518
-640.668	-72.520	0.029	0.011
-639.653	180.717	-0.199	-0.292
-638.638	524.341	-0.055	0.131
-637.624	63.801	0.093	0.094
-636.609	-30.130	0.220	0.125
-635.595	110.466	-0.145	0.174
-634.580	-200.000	0.027	-0.220
-633.565	-98.616	0.284	0.073
-632.551	-165.426	0.209	-0.009
-631.536	358.177	0.066	-0.133
-630.522	141.256	-0.144	0.191
-629.507	-6.766	0.081	0.055
-628.492	29.732	-0.339	0.289
-627.478	164.877	0.172	0.244
-626.463	-173.124	-0.274	-0.008
-625.449	3.313	0.081	0.059
-624.434	85.629	-0.167	0.184
-623.419	-200.000	-0.015	-0.081
-622.405	-200.000	-0.004	-0.306
-621.390	-63.822	-0.087	0.036
-620.376	-129.108	0.253	-0.035
-619.361	202.784	-0.055	-0.085
-618.346	-200.000	0.038	-0.355
-617.332	-76.793	0.228	0.080
-616.317	-200.000	0.002	-0.288
-615.303	-90.801	-0.489	-0.141
-614.288	658.969	-0.086	-0.221
-613.273	-200.000	0.006	0.372
-612.259	-60.851	0.293	-0.124
-611.244	396.410	0.032	-0.066
-610.230	-93.201	0.075	-0.021
-609.215	-34.990	0.244	-0.133
-608.201	185.346	0.011	-0.017
-607.186	79.600	-0.168	0.181
-606.171	-152.482	0.250	-0.018
-605.157	-200.000	-0.041	-0.275
-604.142	-200.000	0.031	0.179
-603.128	548.760	-0.076	-0.182
-602.113	-85.366	-0.062	-0.019
-601.098	-12.889	-0.117	-0.077
-600.084	-141.111	0.051	-0.005
-599.069	-194.916	-0.184	0.001
-598.055	-200.000	0.010	-0.189
-597.040	-200.000	0.004	0.238
-596.025	-144.739	-0.230	0.021
-595.011	800.000	0.035	-0.143
-593.996	800.000	0.157	-0.449
-592.982	-163.513	0.064	-0.003
-591.967	41.168	-0.127	-0.115
-590.952	-200.000	-0.010	0.125
-589.938	176.924	0.064	-0.093
-588.923	-200.000	-0.023	0.358
-587.909	167.269	0.152	0.216
-586.894	431.731	-0.084	-0.183
-585.879	800.000	-0.041	0.127
-584.865	246.653	-0.186	0.314
-583.850	-99.360	-0.508	0.128
-582.836	-62.345	-0.363	0.151
-581.821	800.000	-0.083	-0.247
-580.806	173.901	0.144	-0.208
-579.792	-186.395	-0.415	0.006
-578.777	174.952	-0.114	0.165
-577.763	15.809	-0.158	0.124
-576.748	-200.000	-0.012	0.110
-575.733	97.995	0.181	0.208
-574.719	150.827	-0.146	-0.198
-573.704	128.591	0.091	-0.116
-572.690	228.107	-0.135	0.219
-571.675	800.000	0.108	-0.348
-570.661	-200.000	0.019	-0.109
-569.646	538.959	-0.014	0.032
-568.631	-200.000	-0.023	0.105
-567.617	-105.422	-0.182	0.041
-566.602	800.000	0.079	-0.229
-565.588	800.000	0.161	-0.569
-564.573	-78.377	-0.275	-0.094
-563.558	-7.326	-0.179	0.121
-562.544	-37.655	0.400	0.213
-561.529	221.924	-0.244	-0.393
-560.515	1.421	-0.198	-0.142
-559.500	-106.975	0.208	0.046
-558.485	258.367	-0.066	0.113
-557.471	2.481	-0.098	-0.071
-556.456	14.342	-0.175	0.137
-555.442	584.193	0.063	0.155
-554.427	-200.000	0.004	-0.211
-553.412	429.473	0.135	-0.293
-552.398	-200.000	-0.029	-0.144
-551.383	47.369	-0.108	0.101
-550.369	-123.067	-0.134	0.021
-549.354	-100.957	0.063	-0.015
-548.339	-31.079	0.228	-0.128
-547.325	-127.152	0.126	0.018
-546.310	178.126	0.237	-0.346
-545.296	75.166	0.161	-0.170
-544.281	110.554	0.063	0.075
-543.266	1.320	0.190	0.137
-542.252	5.530	0.318	-0.235
-541.237	39.601	-0.127	0.114
-540.223	-140.897	0.361	0.037
-539.208	-200.000	0.016	0.148
-538.193	33.368	-0.308	-0.267
-537.179	-1.452	0.144	-0.102
-536.164	-200.000	-0.024	-0.190
-535.150	-200.000	0.130	0.633
-534.135	40.592	-0.078	-0.070
-533.121	-68.318	-0.241	-0.093
-532.106	-86.703	-0.147	-0.045
-531.091	-200.000	0.037	-0.396
-530.077	-200.000	0.028	-0.305
-529.062	800.000	-0.049	0.186
-528.048	-17.988	-0.089	0.056
-527.033	-131.837	0.215	-0.028
-526.018	-200.000	-0.023	-0.230
-525.004	800.000	-0.090	-0.285
-523.989	800.000	-0.089	-0.251
-522.975	800.000	0.093	0.293
-521.960	-1.104	0.195	-0.138
-520.945	-109.165	-0.256	-0.054
-519.931	-93.916	-0.299	0.082
-518.916	-200.000	0.037	0.275
-517.902	-116.580	0.320	0.059
-516.887	85.135	-0.142	-0.155
-515.872	-200.000	0.058	-0.297
-514.858	643.461	-0.045	-0.115
-513.843	-29.589	0.351	-0.200
-512.829	6.495	0.326	-0.242
-511.814	386.181	-0.067	-0.137
-510.799	-200.000	-0.001	0.181
-509.785	-53.970	-0.166	-0.075
-508.770	-77.845	0.251	-0.087
-507.756	-200.000	0.011	-0.123
-506.741	689.291	-0.032	0.082
-505.726	-172.812	0.222	0.007
-504.712	-24.886	0.190	-0.112
-503.697	464.296	0.078	-0.174
-502.683	800.000	0.036	-0.124
-501.668	-66.937	-0.239	-0.094
-500.653	-147.061	0.233	0.020
-499.639	-8.869	0.149	0.100
-498.624	30.269	0.212	-0.181
-497.610	-5.557	0.296	0.202
-496.595	-168.869	-0.270	0.010
-495.581	-200.000	0.011	0.121
-494.566	-200.000	0.037	0.163
-493.551	800.000	-0.027	0.093
-492.537	-200.000	0.007	0.275
-491.522	92.043	0.127	0.142
-490.508	-7.909	-0.153	0.103
-489.493	-38.539	-0.089	-0.047
-488.478	-32.264	0.232	-0.129
-487.464	147.304	0.015	0.021
-486.449	-183.000	-0.333	-0.006
-485.435	-10.690	-0.242	-0.159
-484.420	462.464	-0.116	-0.258
-483.405	-200.000	-0.014	-0.168
-482.391	-200.000	-0.005	0.124
-481.376	200.493	-0.038	0.059
-480.362	-76.789	0.248	0.087
-479.347	800.000	0.054	-0.183
-478.332	599.229	-0.087	0.215
-477.318	-51.878	-0.136	-0.063
-476.303	-41.734	-0.137	-0.070
-475.289	-200.000	-0.011	-0.212
-474.274	-200.000	-0.006	0.464
-473.259	128.804	-0.143	0.181
-472.245	-200.000	-0.045	-0.220
-471.230	136.070	-0.210	-0.273
-470.216	-200.000	-0.010	-0.123
-469.201	-200.000	0.007	-0.280
-468.186	19.910	0.298	0.239
-467.172	232.775	-0.163	-0.267
-466.157	-197.589	-0.504	-0.003
-465.143	-49.704	0.056	-0.027
-464.128	-11.133	-0.220	-0.144
-463.113	800.000	-0.022	-0.086
-462.099	146.351	0.118	0.157
-461.084	-131.556	0.107	0.014
-460.070	-44.887	0.244	0.121
-459.055	800.000	0.046	-0.184
-458.040	-186.709	0.199	-0.003
-457.026	14.410	0.279	0.217
-456.011	-6.689	0.199	-0.134
-454.997	-194.344	0.454	0.004
-453.982	-200.000	-0.017	-0.141
-452.968	800.000	0.037	0.125
-451.953	-102.504	-0.102	0.024
-450.938	39.832	-0.154	-0.137
-449.924	15.547	-0.295	0.230
-448.909	622.068	0.045	-0.112
-447.895	17.517	0.102	-0.081
-446.880	-47.808	0.365	-0.176
-445.865	101.122	0.038	0.044
-444.851	229.473	-0.080	0.129
-443.836	-200.000	0.013	0.170
-442.822	-76.630	-0.267	-0.093
-441.807	800.000	-0.035	0.144
-440.792	36.567	0.227	-0.199
-439.778	-138.430	-0.240	-0.026
-438.763	-200.000	-0.008	0.164
-437.749	333.925	0.143	-0.275
-436.734	102.908	-0.163	-0.190
-435.719	482.688	-0.106	0.240
-434.705	-115.828	0.212	0.039
-433.690	57.374	0.156	-0.151
-432.676	-104.112	0.188	-0.043
-431.661	-108.989	0.162	-0.034
-430.646	8.187	0.094	-0.070
-429.632	-11.934	0.210	-0.137
-428.617	-200.000	0.000	0.091
-427.603	-29.723	0.091	0.051
-426.588	-86.539	0.097	0.029
-425.573	-37.217	-0.231	0.123
-424.559	216.347	-0.124	0.195
-423.544	20.584	-0.035	0.028
-422.530	44.094	-0.244	0.222
-421.515	14.398	0.028	0.022
-420.500	418.945	-0.027	0.057
-419.486	143.868	0.132	0.175
-418.471	-14.579	-0.031	-0.020
-417.457	109.031	-0.156	0.186
-416.442	-59.176	-0.094	0.040
-415.428	297.227	-0.064	-0.117
-414.413	12.505	-0.271	-0.208
-413.398	800.000	0.058	-0.223
-412.384	-118.266	0.223	0.039
-411.369	-110.643	-0.344	0.071
-410.355	562.443	-0.099	0.239
-409.340	19.557	0.238	-0.190
-408.325	33.470	0.110	0.095
-407.311	-90.393	-0.054	-0.016
-406.296	63.219	0.184	0.183
-405.282	-48.443	0.249	0.119
-404.267	800.000	0.069	-0.233
-403.252	-200.000	0.000	0.180
-402.238	-45.847	-0.100	0.049
-401.223	-200.000	-0.052	0.235
-400.209	24.048	0.083	-0.068
-399.194	-200.000	0.010	0.094
-398.179	-23.405	-0.244	-0.146
-397.165	15.578	0.127	-0.099
-396.150	-72.197	0.093	0.034
-395.136	-200.000	0.029	-0.262
-394.121	80.120	-0.093	-0.099
-393.106	239.958	0.084	0.139
-392.092	31.637	-0.018	-0.015
-391.077	800.000	-0.063	0.187
-390.063	-200.000	-0.028	-0.310
-389.048	140.446	-0.036	-0.047
-388.033	800.000	0.095	0.287
-387.019	2.136	0.227	0.163
-386.004	36.690	-0.113	0.099
-384.990	-4.869	0.145	0.099
-383.975	-141.606	0.355	-0.036
-382.960	-151.303	0.344	-0.026
-381.946	-33.837	0.352	0.193
-380.931	-55.820	-0.049	0.022
-379.917	76.352	-0.051	0.054
-378.902	157.624	-0.118	0.163
-377.888	697.028	-0.102	0.266
-376.873	241.155	0.042	0.070
-375.858	-200.000	0.107	0.473
-374.844	800.000	0.111	0.346
-373.829	800.000	-0.086	0.299
-372.815	637.430	0.102	-0.258
-371.800	152.265	-0.102	-0.138
-370.785	60.244	-0.118	-0.116
-369.771	-118.312	-0.347	0.061
-368.756	12.666	-0.287	-0.219
-367.742	-200.000	0.137	0.000
-366.727	800.000	-0.052	-0.147
-365.712	-200.000	-0.083	-0.410
-364.698	-83.461	-0.121	-0.038
-363.683	18.309	-0.062	0.049
-362.669	-12.705	0.113	0.073
-361.654	800.000	-0.039	-0.128
-360.639	-46.876	0.208	-0.101
-359.625	800.000	0.075	0.215
-358.610	67.369	0.252	0.255
-357.596	-100.212	-0.188	0.046
-356.581	-84.164	-0.381	-0.120
-355.566	-20.213	-0.062	-0.038
-354.552	520.809	0.145	0.336
-353.537	289.953	0.140	0.251
-352.523	-200.000	0.028	0.144
-351.508	-200.000	-0.042	-0.198
-350.493	128.840	0.072	-0.091
-349.479	121.125	-0.077	0.095
-348.464	5.075	-0.020	-0.015
-347.450	595.130	0.084	0.206
-346.435	-32.058	-0.181	0.100
-345.420	-33.041	0.371	-0.204
-344.406	800.000	0.050	0.140
-343.391	307.454	-0.108	0.200
-342.377	800.000	0.037	-0.152
-341.362	295.881	0.115	-0.209
-340.348	-132.954	0.258	0.033
-339.333	369.402	-0.068	-0.135
-338.318	-52.587	-0.258	0.118
-337.304	-174.702	-0.140	0.004
-336.289	800.000	0.136	-0.426
-335.275	800.000	0.074	-0.256
-334.260	30.655	-0.049	0.042
-333.245	-200.000	-0.032	-0.245
-332.231	-200.000	-0.032	0.203
-331.216	253.027	0.079	0.134
-330.202	-194.619	-0.110	-0.001
-329.187	800.000	0.022	-0.073
-328.172	368.033	0.038	-0.076
-327.158	-200.000	0.022	-0.146
-326.143	-31.033	-0.122	-0.068
-325.129	429.989	-0.017	-0.037
-324.114	288.957	-0.136	-0.245
-323.099	57.024	-0.267	0.257
-322.085	8.671	0.155	-0.116
-321.070	-5.645	-0.080	-0.054
-320.056	800.000	-0.038	-0.116
-319.041	800.000	-0.038	0.110
-318.026	78.285	0.036	0.038
-317.012	-15.395	-0.184	0.116
-315.997	-200.000	-0.015	-0.079
-314.983	641.183	-0.079	-0.200
-313.968	111.431	-0.176	-0.210
-312.953	-200.000	0.012	0.279
-311.939	-103.031	-0.081	-0.019
-310.924	-88.891	-0.228	-0.067
-309.910	-100.908	-0.199	-0.048
-308.895	452.683	0.026	-0.058
-307.880	-21.745	-0.593	0.357
-306.866	-200.000	0.039	-0.238
-305.851	-109.491	0.219	0.046
-304.837	-200.000	-0.006	0.116
-303.822	-134.398	-0.176	0.021
-302.807	-114.520	0.122	-0.023
-301.793	293.165	-0.265	0.478
-300.778	-65.794	-0.123	-0.049
-299.764	800.000	-0.084	0.357
-298.749	428.990	0.084	0.181
-297.735	-200.000	0.069	-0.432
-296.720	-200.000	-0.059	-0.443
-295.705	-63.076	-0.194	0.079
-294.691	-86.665	-0.361	0.109
-293.676	-200.000	0.018	-0.132
-292.662	-170.974	0.196	-0.007
-291.647	-200.000	0.062	-0.300
-290.632	-200.000	-0.075	0.512
-289.618	14.684	0.026	0.020
-288.603	-51.350	0.162	0.075
-287.589	-27.164	0.286	-0.165
-286.574	-175.121	-0.198	0.005
-285.559	142.963	0.123	-0.162
-284.545	800.000	-0.015	0.055
-283.530	-200.000	-0.006	-0.051
-282.516	-170.545	-0.158	0.005
-281.501	-200.000	0.038	0.169
-280.486	-10.225	-0.087	-0.057
-279.472	-200.000	-0.032	-0.385
-278.457	303.393	0.124	-0.227
-277.443	-12.695	0.164	0.106
-276.428	-152.382	-0.022	-0.002
-275.413	-132.855	0.078	0.010
-274.399	90.516	-0.087	0.097
-273.384	200.065	-0.043	0.066
-272.370	-38.280	0.256	0.134
-271.355	-108.185	-0.181	0.039
-270.340	59.078	0.190	0.184
-269.326	-36.869	0.168	0.089
-268.311	-79.452	-0.249	0.083
-267.297	-138.921	-0.304	0.033
-266.282	-200.000	0.007	-0.424
-265.267	800.000	0.062	0.209
-264.253	-142.570	0.521	-0.050
-263.238	41.804	-0.096	0.086
-262.224	-58.815	0.078	0.033
-261.209	-2.184	-0.341	0.237
-260.195	24.942	0.165	0.135
-259.180	-54.726	0.030	-0.013
-258.165	-73.861	-0.240	0.086
-257.151	105.437	0.134	0.156
-256.136	800.000	0.087	0.277
-255.122	-105.057	0.178	-0.040
-254.107	188.644	-0.219	0.324
-253.092	-94.887	0.143	-0.038
-252.078	-77.156	0.072	0.025
-251.063	346.952	0.093	0.180
-250.049	419.560	-0.152	-0.322
-249.034	-155.749	-0.199	-0.013
-248.019	-73.312	-0.258	0.093
-247.005	228.410	0.072	-0.116
-245.990	-200.000	-0.003	0.055
-244.976	6.900	-0.157	-0.115
-243.961	-171.446	0.341	0.011
-242.946	800.000	-0.021	-0.073
-241.932	61.532	0.054	-0.053
-240.917	-1.644	-0.096	-0.067
-239.903	-55.904	0.101	0.044
-238.888	-75.993	0.112	0.039
-237.873	-90.302	-0.020	0.006
-236.859	-59.163	0.180	-0.076
-235.844	-62.601	-0.263	0.108
-234.830	56.825	-0.151	0.145
-233.815	-143.770	0.265	-0.025
-232.800	-200.000	-0.007	-0.148
-231.786	-116.105	-0.132	-0.024
-230.771	-200.000	-0.015	0.223
-229.757	-104.730	0.353	0.080
-228.742	-113.936	0.193	0.037
-227.727	-162.513	-0.193	-0.009
-226.713	800.000	-0.084	0.272
-225.698	800.000	0.006	0.018
-224.684	5.683	-0.155	-0.113
-223.669	401.733	0.119	0.247
-222.655	-68.836	-0.057	0.022
-221.640	800.000	0.087	0.263
-220.625	800.000	-0.022	-0.081
-219.611	-42.509	0.060	0.030
-218.596	-200.000	-0.022	0.181
-217.582	-129.338	-0.129	0.018
-216.567	-200.000	-0.033	-0.178
-215.552	307.436	0.146	0.269
-214.538	-200.000	-0.037	0.166
-213.523	122.350	-0.293	0.361
-212.509	519.558	0.125	0.289
-211.494	-200.000	-0.257	0.000
-210.479	150.185	0.062	-0.083
-209.465	-200.000	0.015	-0.354
-208.450	800.000	-0.087	0.307
-207.436	-143.286	-0.417	-0.039
-206.421	-200.000	0.013	-0.107
-205.406	325.453	0.100	-0.189
-204.392	240.815	-0.041	0.067
-203.377	132.387	0.271	-0.344
-202.363	-104.892	0.327	-0.074
-201.348	-200.000	-0.058	0.444
-200.333	35.096	0.295	-0.254
-199.319	-91.325	0.548	0.154
-198.304	-200.000	-0.010	-0.070
-197.290	-200.000	-0.013	0.124
-196.275	209.252	-0.112	0.172
-195.260	-116.122	0.154	0.028
-194.246	85.354	-0.152	0.164
-193.231	176.144	0.051	0.073
-192.217	-42.636	0.213	0.107
-191.202	190.316	-0.108	0.160
-190.187	-200.000	-0.008	-0.113
-189.173	-10.130	0.141	0.092
-188.158	-15.885	0.106	-0.067
-187.144	-81.707	-0.277	0.090
-186.129	30.568	0.274	0.231
-185.114	-74.600	0.086	0.030
-184.100	51.638	-0.225	0.211
-183.085	-28.620	0.280	0.159
-182.071	800.000	0.097	0.346
-181.056	-200.000	0.033	-0.394
-180.042	122.145	0.210	-0.258
-179.027	-27.813	0.145	0.083
-178.012	31.364	-0.375	-0.317
-176.998	240.390	0.123	-0.202
-175.983	-68.642	0.090	0.034
-174.969	289.037	-0.071	-0.127
-173.954	-28.331	0.177	0.101
-172.939	45.429	0.144	0.130
-171.925	-200.000	-0.006	-0.216
-170.910	-27.532	-0.346	-0.198
-169.896	41.160	0.215	-0.191
-168.881	-144.114	-0.342	-0.032
-167.866	189.145	0.107	0.158
-166.852	-31.841	0.022	0.012
-165.837	-200.000	-0.002	-0.059
-164.823	-159.336	-0.185	0.010
-163.808	186.712	-0.182	-0.267
-162.793	-200.000	0.017	-0.149
-161.779	800.000	0.109	-0.405
-160.764	-200.000	0.022	0.117
-159.750	-67.748	0.462	0.178
-158.735	3.852	0.114	0.082
-157.720	260.539	0.098	-0.167
-156.706	211.886	0.058	-0.090
-155.691	-77.333	-0.246	0.084
-154.677	36.046	-0.271	-0.235
-153.662	-33.483	-0.150	-0.081
-152.647	360.681	0.121	0.238
-151.633	2.804	-0.038	-0.027
-150.618	141.076	-0.169	-0.219
-149.604	-68.179	-0.447	0.171
-148.589	-14.412	-0.156	-0.099
-147.574	91.197	0.017	0.019
-146.560	46.729	0.022	-0.020
-145.545	800.000	0.104	0.306
-144.531	800.000	-0.030	0.111
-143.516	-83.385	-0.346	-0.109
-142.502	-134.731	-0.275	0.033
-141.487	427.976	-0.075	-0.160
-140.472	-53.791	-0.060	0.027
-139.458	-50.565	-0.088	0.041
-138.443	-144.559	0.215	-0.020
-137.429	-95.371	0.141	-0.037
-136.414	-11.443	0.207	-0.134
-135.399	-59.167	-0.225	0.095
-134.385	59.623	-0.187	0.181
-133.370	577.338	0.065	-0.157
-132.356	-99.072	0.220	-0.055
-131.341	180.706	0.139	-0.201
-130.326	60.497	-0.196	-0.191
-129.312	73.338	-0.079	-0.081
-128.297	-70.164	0.457	0.171
-127.283	61.122	0.088	-0.086
-126.268	-38.288	-0.145	0.076
-125.253	-137.299	0.036	-0.004
-124.239	-200.000	-0.019	-0.163
-123.224	221.253	-0.076	0.121
-122.210	-144.936	0.307	0.028
-121.195	417.434	0.105	-0.220
-120.180	-6.394	-0.220	-0.147
-119.166	178.966	0.109	0.156
-118.151	-107.931	-0.076	0.016
-117.137	241.687	-0.150	0.246
-116.122	-25.681	0.109	-0.063
-115.107	-98.226	0.125	0.032
-114.093	-69.331	-0.367	0.138
-113.078	-91.393	-0.028	-0.008
-112.064	-98.280	0.096	0.024
-111.049	-93.847	0.137	-0.037
-110.034	800.000	0.062	0.183
-109.020	-169.795	0.192	-0.007
-108.005	15.356	0.203	-0.157
-106.991	-86.364	0.201	0.061
-105.976	-172.135	-0.148	0.005
-104.962	-96.382	0.312	0.081
-103.947	44.141	-0.288	0.259
-102.932	-167.712	-0.127	0.005
-101.918	190.386	-0.090	0.133
-100.903	28.730	0.117	-0.098
-99.889	74.496	-0.170	-0.175
-98.874	564.660	0.080	-0.190
-97.859	-200.000	0.034	0.171
-96.845	-200.000	-0.013	0.256
-95.830	-93.621	-0.407	-0.110
-94.816	800.000	-0.035	-0.133
-93.801	-200.000	-0.010	0.188
-92.786	-152.626	0.333	0.023
-91.772	316.941	0.055	-0.101
-90.757	632.949	-0.120	-0.299
-89.743	509.800	0.146	0.333
-88.728	-67.527	-0.274	0.105
-87.713	-200.000	-0.005	0.027
-86.699	17.737	0.410	-0.320
-85.684	-200.000	-0.019	0.113
-84.670	-28.299	0.132	-0.075
-83.655	46.114	-0.163	0.148
-82.640	154.563	-0.088	-0.118
-81.626	150.558	0.036	-0.048
-80.611	-200.000	-0.023	-0.166
-79.597	-110.974	-0.064	-0.013
-78.582	-19.891	-0.129	-0.078
-77.567	-1.715	0.114	-0.079
-76.553	-31.269	0.058	0.032
-75.538	-18.057	-0.407	0.250
-74.524	26.415	-0.289	-0.237
-73.509	-47.228	0.468	-0.223
-72.494	49.500	0.214	0.197
-71.480	-26.102	0.051	-0.030
-70.465	723.076	0.048	0.125
-69.451	97.998	-0.137	0.155
-68.436	-43.152	0.387	-0.192
-67.422	800.000	0.038	-0.119
-66.407	-157.818	-0.297	0.017
-65.392	255.686	-0.027	-0.045
-64.378	-200.000	-0.009	-0.185
-63.363	350.544	0.152	0.296
-62.349	-200.000	0.055	0.251
-61.334	-6.574	-0.888	-0.593
-60.319	-200.000	-0.008	0.664
-59.305	-200.000	-0.253	-1.197
-58.290	176.413	0.803	1.143
-57.276	401.764	0.638	1.313
-56.261	-200.000	101.105	615.790
-55.246	543.003	1444.966	3377.468
-54.232	185.969	2639.664	3845.266
-53.217	115.609	2146.036	2570.659
-52.203	42.848	1590.130	1419.648
-51.188	34.382	1325.072	1132.913
-50.173	31.141	1283.265	1078.435
-49.159	55.082	1334.981	1263.549
-48.144	56.269	1350.861	1285.510
-47.130	34.596	1307.122	1118.644
-46.115	30.953	1289.923	1082.761
-45.100	30.661	1285.074	1076.960
-44.086	30.589	1282.494	1074.338
-43.071	30.555	1280.077	1072.072
-42.057	30.566	1278.414	1070.701
-41.042	30.615	1276.473	1069.320
-40.027	30.673	1275.364	1068.682
-39.013	30.694	1272.920	1066.708
-37.998	30.708	1271.121	1065.240
-36.984	30.730	1269.567	1064.018
-35.969	30.837	1267.643	1062.978
-34.954	30.665	1266.213	1060.753
-33.940	30.802	1265.086	1060.548
-32.925	30.821	1264.159	1059.836
-31.911	30.772	1262.675	1058.274
-30.896	30.806	1260.951	1056.976
-29.881	30.830	1260.006	1056.279
-28.867	30.994	1258.138	1055.602
-27.852	30.839	1257.052	1053.772
-26.838	30.961	1255.171	1052.845
-25.823	30.917	1254.018	1051.584
-24.809	30.852	1252.597	1049.984
-23.794	30.926	1251.364	1049.328
-22.779	30.896	1250.334	1048.254
-21.765	30.811	1249.198	1046.782
-20.750	30.947	1247.310	1045.920
-19.736	30.826	1246.403	1044.441
-18.721	30.700	1245.303	1042.772
-17.706	30.624	1244.326	1041.488
-16.692	30.746	1243.037	1041.047
-15.677	30.709	1242.003	1039.936
-14.663	30.781	1240.734	1039.230
-13.648	30.681	1239.682	1037.751
-12.633	30.699	1238.730	1037.016
-11.619	30.656	1238.561	1036.591
-10.604	30.660	1237.179	1035.416
-9.590	30.598	1236.165	1034.180
-8.575	30.638	1235.306	1033.643
-7.560	30.568	1234.317	1032.386
-6.546	30.772	1233.199	1032.541
-5.531	30.801	1232.462	1032.047
-4.517	30.718	1231.846	1031.029
-3.502	30.697	1230.985	1030.150
-2.487	30.688	1230.129	1029.343
-1.473	30.672	1225.958	1025.725
-0.458	29.058	1211.023	1004.389
0.556	23.181	1193.632	966.038
1.571	19.618	1198.197	950.088
2.586	18.780	1212.742	956.872
3.600	18.483	1202.783	947.286
4.615	13.596	1131.356	865.486
5.629	4.348	1056.912	763.160
6.644	-0.037	1037.339	727.764
7.659	-0.343	1034.567	724.277
8.673	-0.385	1033.473	723.244
9.688	-0.474	1032.064	721.764
10.702	-0.209	1030.850	722.127
11.717	5.439	1038.500	754.732
12.731	14.628	1051.110	808.531
13.746	18.864	1055.647	832.518
14.761	19.269	1056.468	835.053
15.775	19.245	1055.616	834.191
16.790	18.948	1054.816	832.044
17.804	18.933	1054.523	831.668
18.819	18.900	1054.324	831.277
19.834	19.007	1053.372	830.969
20.848	19.015	1052.903	830.565
21.863	18.980	1052.975	830.378
22.877	19.004	1051.696	829.415
23.892	18.943	1051.246	828.694
24.907	18.989	1050.491	828.245
25.921	18.957	1049.504	827.237
26.936	19.067	1047.522	826.132
27.950	19.113	1045.828	824.943
28.965	18.648	1044.937	821.942
29.980	18.861	1042.666	821.101
30.994	18.938	1042.014	820.882
32.009	19.065	1040.750	820.418
33.023	18.869	1038.909	817.962
34.038	18.987	1038.263	817.945
35.053	19.133	1037.425	817.904
36.067	19.083	1036.752	817.065
37.082	19.124	1036.285	816.817
38.096	19.291	1035.458	816.886
39.111	19.355	1034.469	816.337
40.126	19.169	1033.262	814.430
41.140	19.010	1031.068	811.881
42.155	18.824	1030.079	810.151
43.169	18.855	1028.732	809.168
44.184	18.817	1028.472	808.714
45.199	18.683	1026.975	806.834
46.213	18.705	1025.763	805.913
47.228	18.683	1024.677	804.884
48.242	18.865	1023.405	804.668
49.257	18.997	1022.736	804.689
50.271	18.950	1022.104	803.899
51.286	19.034	1021.430	803.693
52.301	19.103	1020.362	803.102
53.315	18.993	1019.484	801.826
54.330	19.003	1018.703	801.186
55.344	19.039	1017.674	800.478
56.359	18.937	1016.798	799.240
57.374	18.857	1015.488	797.769
58.388	18.970	1015.054	797.882
59.403	18.978	1013.830	796.885
60.417	18.764	1012.865	795.067
61.432	18.725	1012.606	794.614
62.447	18.973	1011.719	794.994
63.461	18.953	1010.918	794.200
64.476	18.848	1009.903	792.849
65.490	18.726	1008.912	791.440
66.505	18.888	1008.355	791.677
67.520	18.900	1007.494	790.985
68.534	18.745	1006.325	789.285
69.549	18.565	1005.251	787.550
70.563	18.413	1004.669	786.325
71.578	18.558	1003.900	786.319
72.593	18.466	1002.772	784.942
73.607	18.559	1002.506	785.094
74.622	18.799	1001.984	785.712
75.636	18.723	1001.484	784.905
76.651	18.605	1000.155	783.253
77.666	18.583	999.139	782.288
78.680	18.655	998.772	782.258
79.695	18.733	998.255	782.140
80.709	18.849	997.445	781.966
81.724	18.770	996.617	780.887
82.739	18.690	995.800	779.814
83.753	19.144	995.341	781.446
84.768	19.209	994.442	780.968
85.782	19.400	993.119	780.725
86.797	19.201	992.164	779.003
87.812	19.030	991.536	777.669
88.826	19.164	990.212	777.168
89.841	19.203	989.393	776.632
90.855	19.221	988.267	775.760
91.870	19.246	987.459	775.169
92.884	19.210	985.933	773.740
93.899	19.164	985.048	772.772
94.914	19.253	984.669	772.806
95.928	19.344	983.082	771.898
96.943	18.899	982.225	769.167
97.957	18.549	981.101	766.652
98.972	18.434	980.170	765.346
99.987	18.849	978.911	766.143
101.001	18.919	978.492	766.060
102.016	18.892	977.976	765.467
103.030	18.925	976.377	764.295
104.045	18.808	975.160	762.758
105.060	18.483	974.443	760.687
106.074	18.830	973.583	761.483
107.089	19.148	973.272	762.583
108.103	19.049	972.459	761.440
109.118	18.847	971.197	759.491
110.133	18.956	969.874	758.873
111.147	18.825	968.573	757.208
112.162	18.646	967.474	755.495
113.176	18.929	966.876	756.207
114.191	18.773	966.408	755.088
115.206	18.564	964.807	752.854
116.220	18.448	964.264	751.851
117.235	18.601	963.182	751.616
118.249	18.557	962.630	750.924
119.264	18.490	961.322	749.543
120.279	18.678	960.632	749.761
121.293	18.676	960.047	749.228
122.308	18.773	959.028	748.790
123.322	18.689	957.689	747.314
124.337	18.612	956.513	745.993
125.352	18.087	954.792	742.307
126.366	18.076	953.683	741.331
127.381	18.827	953.839	744.643
128.395	19.052	953.332	745.156
129.410	19.093	952.252	744.425
130.424	19.089	951.584	743.820
131.439	19.177	950.527	743.305
132.454	19.107	949.580	742.198
133.468	19.144	948.390	741.360
134.483	19.264	947.940	741.462
135.497	19.235	947.027	740.555
136.512	19.342	946.124	740.246
137.527	19.174	945.370	738.871
138.541	19.305	944.430	738.629
139.556	19.323	943.529	737.937
140.570	19.274	942.935	737.196
141.585	19.286	941.825	736.315
142.600	19.309	940.889	735.616
143.614	19.343	940.050	735.041
144.629	19.451	939.189	734.764
145.643	19.396	937.892	733.449
146.658	19.286	937.213	732.385
147.673	19.112	935.623	730.341
148.687	19.227	934.307	729.734
149.702	19.162	933.390	728.681
150.716	19.109	932.377	727.602
151.731	19.255	932.211	728.022
152.746	19.317	931.837	727.928
153.760	19.455	930.763	727.610
154.775	19.552	930.449	727.705
155.789	19.354	929.490	726.058
156.804	19.304	928.425	724.953
157.819	19.400	927.526	724.588
158.833	19.625	926.709	724.832
159.848	19.606	925.364	723.637
160.862	19.433	924.417	722.106
161.877	19.404	924.115	721.686
162.892	19.585	922.719	721.288
163.906	19.609	921.486	720.361
164.921	19.450	920.874	719.157
165.935	19.525	920.115	718.813
166.950	19.333	919.243	717.266
167.964	19.472	918.198	716.965
168.979	19.400	917.096	715.742
169.994	19.313	916.313	714.709
171.008	19.397	915.944	714.706
172.023	19.400	914.899	713.840
173.037	19.329	913.737	712.578
174.052	19.134	913.050	711.173
175.067	19.373	911.965	711.251
176.081	19.428	911.827	711.306
177.096	19.174	911.424	709.883
178.110	19.014	910.263	708.256
179.125	19.024	909.252	707.446
180.140	19.022	908.968	707.158
181.154	19.054	908.916	707.185
182.169	19.114	908.863	707.327
183.183	19.497	907.553	707.815
184.198	19.466	906.469	706.783
185.213	19.386	906.262	706.229
186.227	19.423	905.667	705.854
187.242	19.630	904.471	705.705
188.256	19.512	903.795	704.634
189.271	19.460	903.517	704.142
190.286	19.278	902.292	702.384
191.300	18.867	900.869	699.543
192.315	18.148	899.668	695.626
193.329	18.015	899.272	694.714
194.344	18.932	899.500	698.558
195.359	19.451	899.074	700.273
196.373	19.443	898.497	699.727
197.388	19.310	897.775	698.563
198.402	19.337	897.004	698.012
199.417	19.262	896.733	697.435
200.432	18.877	895.445	694.816
201.446	18.759	894.998	693.931
202.461	18.857	894.549	693.917
203.475	17.917	892.590	688.549
204.490	17.449	891.586	685.828
205.504	18.514	891.323	689.850
206.519	18.956	891.460	691.676
207.534	19.106	890.745	691.662
208.548	19.508	891.186	693.561
209.563	19.185	889.677	691.025
210.577	19.261	888.975	690.723
211.592	19.670	888.503	691.935
212.607	19.449	887.675	690.346
213.621	19.485	887.160	690.027
214.636	19.480	886.514	689.445
215.650	19.563	885.503	688.928
216.665	19.613	885.057	688.720
217.680	19.555	884.092	687.676
218.694	19.168	882.906	685.156
219.709	18.935	882.636	683.959
220.723	19.166	882.468	684.683
221.738	19.326	881.601	684.586
222.753	19.383	881.016	684.297
223.767	19.540	880.301	684.303
224.782	19.518	879.858	683.813
225.796	19.535	879.312	683.396
226.811	18.966	877.749	679.869
227.826	18.462	876.575	676.912
228.840	18.703	876.215	677.524
229.855	18.772	875.550	677.224
230.869	18.432	874.298	674.857
231.884	18.868	874.257	676.481
232.899	19.486	874.332	678.910
233.913	19.369	873.619	677.837
234.928	19.378	873.420	677.658
235.942	19.266	872.445	676.401
236.957	19.197	871.518	675.354
237.972	19.055	871.133	674.440
238.986	19.167	870.445	674.286
240.001	19.183	869.985	673.931
241.015	19.301	869.272	673.783
242.030	19.476	868.550	673.846
243.045	19.520	868.031	673.555
244.059	19.613	867.788	673.671
245.074	19.395	866.540	671.791
246.088	19.016	865.731	669.631
247.103	19.369	865.180	670.519
248.117	19.743	864.979	671.757
249.132	19.961	864.314	672.026
250.147	19.846	864.473	671.644
251.161	20.138	863.191	671.719
252.176	20.144	862.501	671.147
253.190	20.150	862.076	670.779
254.205	20.338	861.836	671.261
255.220	20.172	861.298	670.141
256.234	20.114	860.670	669.368
257.249	19.968	859.530	667.859
258.263	20.182	858.194	667.589
259.278	20.334	857.917	667.898
260.293	20.185	857.212	666.716
261.307	20.121	856.578	665.919
262.322	19.943	855.760	664.541
263.336	19.016	853.584	659.240
264.351	18.254	851.739	654.843
265.366	18.198	852.054	654.814
266.380	19.413	852.346	659.630
267.395	19.744	852.304	660.803
268.409	19.874	851.545	660.654
269.424	20.018	850.926	660.662
270.439	19.955	850.393	659.952
271.453	20.114	849.680	659.945
272.468	20.192	849.768	660.252
273.482	20.363	848.946	660.207
274.497	19.949	847.727	657.628
275.512	19.516	846.826	655.228
276.526	20.118	846.610	657.286
277.541	20.110	846.172	656.856
278.555	19.825	845.363	655.091
279.570	19.602	844.459	653.490
280.585	19.844	843.989	653.982
281.599	19.791	842.962	652.929
282.614	19.294	841.840	650.127
283.628	19.398	841.468	650.176
284.643	19.707	841.395	651.225
285.657	19.381	840.042	648.895
286.672	19.018	839.174	646.802
287.687	19.760	839.161	649.521
288.701	19.611	838.469	648.372
289.716	19.311	837.721	646.610
290.730	19.290	837.163	646.043
291.745	18.992	836.107	644.055
292.760	19.313	836.060	645.162
293.774	20.220	836.331	648.710
294.789	20.469	836.115	649.416
295.803	20.556	835.479	649.189
296.818	20.622	834.741	648.804
297.833	20.322	833.625	646.761
298.847	19.987	833.438	645.312
299.862	20.238	833.168	645.981
300.876	20.581	832.195	646.443
301.891	20.403	831.328	645.051
302.906	20.038	830.507	643.004
303.920	20.200	830.073	643.211
304.935	20.468	829.856	643.980
305.949	20.378	829.475	643.294
306.964	20.290	828.585	642.221
307.979	20.314	828.570	642.240
308.993	20.683	827.945	643.064
310.008	20.788	826.992	642.656
311.022	20.436	826.443	640.871
312.037	20.402	825.896	640.268
313.052	20.201	824.514	638.398
314.066	19.453	823.366	634.703
315.081	19.102	823.172	633.205
316.095	19.901	823.260	636.158
317.110	20.214	822.956	637.015
318.125	19.542	821.184	633.122
319.139	18.663	820.114	629.022
320.154	18.729	819.955	629.087
321.168	19.537	820.371	632.312
322.183	20.181	819.931	634.273
323.197	20.051	820.297	634.024
324.212	20.502	819.266	634.818
325.227	20.555	818.837	634.621
326.241	20.158	818.626	632.953
327.256	20.327	817.339	632.517
328.270	20.146	816.988	631.530
329.285	20.053	815.931	630.321
330.300	19.888	815.315	629.188
331.314	20.102	814.493	629.277
332.329	20.327	814.700	630.195
333.343	20.464	814.468	630.460
334.358	20.477	813.959	630.055
335.373	20.547	813.624	629.994
336.387	20.826	813.539	630.883
337.402	20.862	813.401	630.851
338.416	20.668	812.840	629.661
339.431	20.742	812.694	629.758
340.446	21.103	811.709	630.244
341.460	20.841	811.567	629.131
342.475	20.650	811.121	628.041
343.489	20.752	810.771	628.081
344.504	20.989	810.608	628.752
345.519	21.043	809.951	628.382
346.533	21.200	809.609	628.627
347.548	21.212	809.418	628.466
348.562	21.215	808.446	627.667
349.577	21.163	807.971	627.055
350.592	21.362	807.145	627.073
351.606	21.219	806.192	625.766
352.621	21.244	805.360	625.154
353.635	20.981	804.828	623.747
354.650	20.279	803.740	620.339
355.665	19.510	802.101	616.275
356.679	19.895	802.268	617.720
357.694	20.216	801.658	618.341
358.708	20.284	801.219	618.191
359.723	20.724	800.868	619.430
360.738	20.849	800.569	619.590
361.752	20.898	800.488	619.646
362.767	21.294	799.591	620.304
363.781	21.533	799.361	620.919
364.796	21.626	798.902	620.837
365.810	21.607	798.469	620.379
366.825	21.596	797.928	619.864
367.840	21.113	797.388	617.681
368.854	20.852	796.297	615.858
369.869	20.823	796.683	616.000
370.883	20.983	795.638	615.703
371.898	20.802	795.329	614.768
372.913	20.833	794.903	614.495
373.927	21.190	794.404	615.313
374.942	21.104	794.479	615.014
375.956	21.334	793.582	615.075
376.971	21.378	793.392	615.028
377.986	21.653	792.599	615.325
379.000	21.374	792.363	614.109
380.015	21.237	791.717	613.072
381.029	21.321	791.473	613.125
382.044	21.512	790.880	613.280
383.059	21.553	790.240	612.871
384.073	21.582	789.543	612.380
385.088	21.519	789.108	611.766
386.102	21.331	788.766	610.789
387.117	21.282	788.049	610.012
388.132	21.100	786.761	608.324
389.146	20.523	786.174	605.806
390.161	20.654	786.363	606.355
391.175	21.272	785.778	608.001
392.190	20.986	784.841	606.230
393.205	19.674	783.012	600.208
394.219	18.438	781.495	594.704
395.234	18.465	781.461	594.721
396.248	20.079	782.537	601.092
397.263	21.297	783.303	605.853
398.278	21.208	782.981	605.242
399.292	21.110	781.937	604.041
400.307	21.076	781.686	603.676
401.321	21.257	781.317	603.962
402.336	21.476	781.270	604.632
403.350	21.813	781.074	605.591
404.365	21.906	780.699	605.566
405.380	22.121	780.495	606.096
406.394	22.160	780.080	605.854
407.409	22.231	779.048	605.245
408.423	21.879	779.111	604.027
409.438	22.008	778.815	604.187
410.453	22.107	778.105	603.923
411.467	22.259	777.190	603.684
412.482	22.186	776.972	603.210
413.496	22.185	777.093	603.247
414.511	22.192	776.554	602.798
415.526	22.258	776.286	602.763
416.540	21.930	775.661	601.101
417.555	21.828	774.834	600.058
418.569	21.789	774.609	599.697
419.584	21.821	774.120	599.375
420.599	21.746	773.243	598.387
421.613	159.107	1361.748	1798.664
422.628	137.322	1447.504	1798.769
