DTS Sentinel unit serial number:	SN413079Multiplexer serial number:	ORYXHardware model number:	OX4-SRSoftware version number:	ORYX F/W v4.00 Oryx Data Collector v3.7.2.0data status	okinstallation	princeton_trtdifferential loss correction	single-endedforward channel	channel 1reverse channel	N/Adate	2019/09/11time	12:44:11forward acquisition time	60.00reverse acquisition time	0.00gamma	496.2192k internal	0.2295k external	0.2295temperature offset calibration	0.9943default loss term (dB/km)	0.3790temperature slope calibration	1.0000multiplexer offset coefficient	1.0000multiplexer slope coefficient	1.0000fibre end	0.00T internal ref (°C)	41.00T ext. ref 1 (°C)	0.20T ext. ref 2 (°C)	38.72length (m)	temperature (°C)	Stokes	anti-Stokes-747.200	800.000	-0.072	0.228
-746.185	-62.190	0.143	0.061
-745.171	166.210	0.087	0.126
-744.156	-37.726	0.064	0.035
-743.142	-200.000	0.032	0.169
-742.127	-22.142	-0.180	0.112
-741.112	-27.663	-0.246	0.146
-740.098	-142.102	-0.339	-0.034
-739.083	-43.762	0.253	0.130
-738.069	524.742	-0.079	0.189
-737.054	-200.000	-0.018	-0.106
-736.039	235.054	-0.054	-0.092
-735.025	800.000	0.100	-0.345
-734.010	-114.105	-0.429	-0.085
-732.996	60.450	-0.278	-0.281
-731.981	80.659	-0.254	-0.279
-730.966	296.183	0.130	-0.243
-729.952	237.510	0.171	0.290
-728.937	-200.000	-0.030	0.145
-727.923	29.494	-0.220	0.191
-726.908	8.813	0.193	0.149
-725.894	800.000	0.093	-0.265
-724.879	-3.736	-0.368	0.261
-723.864	44.143	0.204	-0.191
-722.850	474.815	0.210	0.485
-721.835	201.361	0.101	0.159
-720.821	705.085	-0.057	-0.154
-719.806	800.000	0.070	-0.254
-718.791	-118.910	0.351	0.063
-717.777	800.000	-0.097	-0.402
-716.762	800.000	-0.031	-0.123
-715.748	142.163	0.046	0.062
-714.733	-0.167	0.204	-0.148
-713.718	102.440	0.059	-0.071
-712.704	800.000	0.052	0.165
-711.689	-114.497	0.100	0.020
-710.675	-121.685	0.303	-0.051
-709.660	-113.673	0.168	0.033
-708.645	-200.000	-0.033	-0.308
-707.631	-200.000	-0.033	-0.179
-706.616	168.569	-0.131	0.191
-705.602	281.943	0.233	0.426
-704.587	8.555	-0.019	0.015
-703.572	56.385	0.140	0.139
-702.558	72.976	-0.142	0.151
-701.543	800.000	0.011	0.031
-700.529	-184.603	0.376	0.006
-699.514	-60.856	-0.085	0.037
-698.499	-119.691	0.180	0.032
-697.485	730.248	-0.109	0.297
-696.470	186.569	0.070	0.106
-695.456	171.144	-0.100	0.147
-694.441	-65.408	0.164	-0.067
-693.426	41.143	0.023	0.022
-692.412	800.000	-0.126	0.443
-691.397	-144.250	0.060	0.006
-690.383	-200.000	-0.016	0.088
-689.368	20.515	0.122	-0.101
-688.354	532.235	-0.083	-0.201
-687.339	130.746	0.053	-0.069
-686.324	116.373	-0.098	0.123
-685.310	-113.038	0.130	0.026
-684.295	-14.542	0.278	-0.182
-683.281	-117.059	-0.352	-0.065
-682.266	-8.124	-0.291	0.200
-681.251	800.000	0.039	0.152
-680.237	670.971	-0.033	0.087
-679.222	-200.000	-0.054	-0.253
-678.208	88.368	-0.122	0.138
-677.193	-200.000	0.014	0.264
-676.178	-70.313	-0.244	-0.094
-675.164	-200.000	-0.337	0.001
-674.149	-200.000	-0.004	-0.162
-673.135	-144.378	-0.145	0.014
-672.120	-75.505	0.252	-0.091
-671.105	-81.420	-0.088	0.029
-670.091	-157.453	-0.301	-0.018
-669.076	-69.457	-0.212	-0.083
-668.062	-133.795	-0.086	0.011
-667.047	-109.720	-0.126	-0.027
-666.032	107.544	-0.160	-0.193
-665.018	800.000	-0.064	-0.203
-664.003	-119.910	-0.131	-0.023
-662.989	6.180	-0.073	-0.055
-661.974	-48.970	0.114	0.056
-660.959	424.752	0.118	-0.260
-659.945	-16.109	0.142	0.092
-658.930	363.261	-0.111	-0.227
-657.916	-41.478	0.164	-0.086
-656.901	-69.026	-0.098	0.038
-655.886	-118.821	-0.227	-0.041
-654.872	-92.159	-0.205	-0.059
-653.857	-70.454	0.130	-0.050
-652.843	96.457	-0.212	-0.247
-651.828	52.557	-0.027	-0.027
-650.814	800.000	-0.060	-0.227
-649.799	-56.965	0.272	0.123
-648.784	-200.000	0.028	-0.228
-647.770	-40.787	-0.022	0.012
-646.755	-139.464	0.165	-0.018
-645.741	-74.625	-0.125	0.046
-644.726	-10.371	-0.399	0.269
-643.711	-14.940	0.021	-0.014
-642.697	-104.152	-0.323	0.076
-641.682	-130.058	0.225	0.031
-640.668	-171.588	0.232	0.008
-639.653	-200.000	0.010	0.065
-638.638	256.315	0.164	0.287
-637.624	-98.502	0.152	0.040
-636.609	-200.000	-0.002	-0.131
-635.595	-68.813	0.146	0.057
-634.580	800.000	0.018	0.054
-633.565	-74.366	0.221	0.081
-632.551	17.816	0.112	0.091
-631.536	622.794	0.062	0.158
-630.522	125.736	0.164	-0.211
-629.507	66.185	-0.125	-0.129
-628.492	483.611	0.053	-0.122
-627.478	-24.624	0.105	0.063
-626.463	-139.420	-0.143	-0.016
-625.449	-52.288	-0.150	-0.071
-624.434	-0.742	-0.159	0.114
-623.419	477.501	0.108	0.248
-622.405	-200.000	0.063	-0.385
-621.390	-200.000	0.052	0.245
-620.376	0.168	0.053	-0.039
-619.361	-136.212	0.429	0.051
-618.346	-109.198	0.234	-0.051
-617.332	91.661	0.157	-0.180
-616.317	-200.000	0.068	0.306
-615.303	200.617	-0.115	-0.179
-614.288	326.211	-0.092	-0.180
-613.273	-8.130	0.323	0.222
-612.259	-200.000	0.008	-0.145
-611.244	32.415	-0.033	-0.029
-610.230	109.286	0.132	-0.160
-609.215	482.397	-0.068	0.158
-608.201	86.094	-0.053	-0.059
-607.186	-200.000	-0.035	0.473
-606.171	800.000	-0.086	-0.332
-605.157	-84.810	-0.168	-0.054
-604.142	-200.000	-0.041	-0.398
-603.128	-110.608	-0.031	-0.007
-602.113	785.237	-0.097	-0.272
-601.098	-58.469	-0.086	0.038
-600.084	-112.058	-0.238	-0.049
-599.069	169.681	-0.188	-0.273
-598.055	85.978	-0.127	-0.142
-597.040	-140.912	-0.120	0.013
-596.025	26.212	-0.328	0.279
-595.011	162.839	-0.219	-0.312
-593.996	727.069	0.086	0.234
-592.982	800.000	-0.100	0.309
-591.967	-7.541	0.188	-0.130
-590.952	-145.574	0.053	0.005
-589.938	380.057	-0.096	0.200
-588.923	-36.823	0.391	-0.214
-587.909	124.025	0.123	0.157
-586.894	-113.033	-0.299	0.060
-585.879	593.734	0.026	0.065
-584.865	-200.000	0.006	0.161
-583.850	4.949	0.316	0.236
-582.836	525.511	-0.073	-0.175
-581.821	-200.000	-0.062	-0.387
-580.806	-200.000	-0.022	0.181
-579.792	-200.000	0.036	0.193
-578.777	-11.047	0.218	0.146
-577.763	-200.000	-0.007	-0.219
-576.748	-200.000	-0.004	-0.245
-575.733	123.200	-0.144	0.183
-574.719	-49.522	-0.256	-0.124
-573.704	800.000	0.170	0.583
-572.690	-200.000	0.060	-0.374
-571.675	-200.000	-0.027	-0.213
-570.661	-68.073	0.266	0.105
-569.646	-200.000	-0.024	0.118
-568.631	255.382	-0.117	-0.204
-567.617	82.627	0.209	-0.231
-566.602	147.511	-0.230	0.315
-565.588	-122.772	-0.218	0.036
-564.573	209.871	-0.135	-0.216
-563.558	132.084	0.118	0.154
-562.544	800.000	0.051	0.190
-561.529	800.000	-0.069	0.252
-560.515	20.266	-0.359	0.294
-559.500	-74.387	-0.130	-0.048
-558.485	271.235	0.239	0.428
-557.471	-65.033	-0.435	0.178
-556.456	-50.385	0.037	0.018
-555.442	588.393	-0.088	0.221
-554.427	-132.589	0.226	0.029
-553.412	-200.000	-0.032	0.412
-552.398	124.571	-0.189	-0.241
-551.383	243.339	0.097	-0.165
-550.369	91.138	-0.127	-0.145
-549.354	-58.695	0.152	0.067
-548.339	800.000	-0.128	0.417
-547.325	13.086	-0.257	-0.202
-546.310	381.343	0.107	-0.223
-545.296	54.591	-0.180	-0.176
-544.281	-75.880	-0.085	-0.030
-543.266	-84.910	0.283	-0.090
-542.252	768.273	-0.042	-0.117
-541.237	800.000	0.024	-0.085
-540.223	-95.537	0.132	0.036
-539.208	-167.452	0.107	-0.004
-538.193	-136.845	0.087	0.010
-537.179	-59.814	0.165	0.072
-536.164	-136.878	0.245	0.029
-535.150	-18.608	0.142	-0.090
-534.135	-200.000	-0.018	0.109
-533.121	-200.000	-0.044	-0.328
-532.106	-67.021	0.092	0.037
-531.091	13.292	-0.281	0.221
-530.077	-14.712	-0.128	-0.083
-529.062	-161.849	-0.053	-0.003
-528.048	-78.260	0.040	-0.014
-527.033	-46.463	0.392	-0.195
-526.018	-125.263	0.223	0.035
-525.004	-51.969	-0.132	0.062
-523.989	-168.225	0.135	0.005
-522.975	-88.350	0.249	0.075
-521.960	80.926	0.184	0.201
-520.945	800.000	-0.081	0.265
-519.931	78.465	0.098	-0.106
-518.916	-128.921	-0.107	0.015
-517.902	177.298	-0.129	0.190
-516.887	387.960	0.116	-0.243
-515.872	89.128	-0.150	-0.169
-514.858	-200.000	-0.064	-0.295
-513.843	800.000	-0.038	-0.134
-512.829	-200.000	0.025	0.209
-511.814	-200.000	-0.044	-0.294
-510.799	-200.000	0.004	0.257
-509.785	-200.000	0.000	-0.129
-508.770	-200.000	0.030	0.279
-507.756	-75.507	-0.228	0.082
-506.741	44.669	0.147	-0.137
-505.726	132.692	0.112	-0.147
-504.712	549.117	-0.123	-0.300
-503.697	-200.000	-0.044	-0.402
-502.683	441.255	-0.046	-0.101
-501.668	-127.800	-0.169	-0.025
-500.653	-52.930	-0.148	-0.069
-499.639	800.000	0.156	0.441
-498.624	-200.000	-0.024	0.189
-497.610	800.000	0.028	-0.114
-496.595	-126.805	-0.167	-0.025
-495.581	-200.000	0.033	-0.231
-494.566	800.000	0.070	-0.210
-493.551	-71.376	0.094	-0.035
-492.537	54.587	-0.137	0.134
-491.522	328.600	0.146	-0.283
-490.508	51.697	0.037	0.036
-489.493	-102.505	-0.100	0.024
-488.478	-200.000	-0.010	0.199
-487.464	-66.498	0.037	0.015
-486.449	745.123	-0.066	-0.181
-485.435	-101.308	0.247	0.061
-484.420	800.000	0.030	-0.132
-483.405	800.000	0.048	0.135
-482.391	-200.000	0.030	0.201
-481.376	-169.163	-0.179	-0.007
-480.362	309.162	0.071	-0.134
-479.347	79.637	0.187	-0.203
-478.332	-200.000	-0.048	0.416
-477.318	-69.423	0.265	-0.103
-476.303	211.991	0.041	-0.066
-475.289	-40.009	0.246	-0.130
-474.274	-200.000	-0.022	-0.194
-473.259	100.806	0.268	0.315
-472.245	619.216	-0.096	0.243
-471.230	-200.000	0.003	0.029
-470.216	39.357	0.023	0.020
-469.201	-104.029	-0.159	-0.037
-468.186	-116.770	-0.472	-0.088
-467.172	-136.375	0.318	0.037
-466.157	-52.697	0.155	0.072
-465.143	-152.934	-0.495	-0.035
-464.128	161.588	0.106	0.151
-463.113	278.299	0.125	-0.226
-462.099	-14.789	0.199	-0.129
-461.084	-114.115	0.078	-0.015
-460.070	745.013	0.026	-0.069
-459.055	-79.130	-0.437	0.150
-458.040	-66.690	-0.149	-0.060
-457.026	592.967	-0.093	-0.234
-456.011	329.823	0.046	-0.089
-454.997	-129.645	0.091	0.013
-453.982	-145.090	-0.262	-0.024
-452.968	-151.722	0.378	0.028
-451.953	550.068	0.018	0.045
-450.938	146.358	0.047	0.063
-449.924	375.107	-0.036	-0.074
-448.909	-154.867	-0.207	-0.014
-447.895	-200.000	-0.006	0.056
-446.880	9.155	0.082	0.062
-445.865	-71.976	-0.240	-0.090
-444.851	54.995	-0.229	-0.223
-443.836	-56.831	0.163	0.073
-442.822	-21.624	-0.004	0.002
-441.807	8.298	0.051	-0.039
-440.792	-19.144	-0.126	-0.079
-439.778	-92.270	-0.068	0.019
-438.763	800.000	-0.053	0.195
-437.749	343.540	0.204	-0.404
-436.734	800.000	0.028	-0.124
-435.719	51.021	0.275	0.263
-434.705	-200.000	0.018	0.119
-433.690	-14.477	0.190	-0.124
-432.676	-56.145	-0.123	0.055
-431.661	-200.000	0.045	-0.260
-430.646	245.148	-0.058	-0.098
-429.632	124.581	-0.149	-0.189
-428.617	-200.000	0.011	-0.206
-427.603	720.408	0.095	0.255
-426.588	-200.000	-0.033	-0.220
-425.573	-200.000	-0.049	0.361
-424.559	42.085	-0.340	-0.312
-423.544	-5.125	0.213	-0.148
-422.530	-63.012	-0.195	0.081
-421.515	10.675	-0.269	-0.207
-420.500	-42.004	-0.387	-0.200
-419.486	-104.981	0.298	-0.069
-418.471	-9.237	-0.133	0.090
-417.457	6.689	-0.125	0.094
-416.442	221.370	-0.068	0.110
-415.428	-200.000	0.038	-0.188
-414.413	56.968	0.390	0.384
-413.398	28.970	0.248	-0.212
-412.384	288.470	0.154	-0.281
-411.369	-49.543	-0.496	-0.239
-410.355	-48.574	0.283	-0.138
-409.340	228.211	-0.086	0.141
-408.325	185.690	-0.222	0.333
-407.311	-70.357	0.190	-0.073
-406.296	209.625	0.156	0.247
-405.282	-200.000	0.022	-0.165
-404.267	136.263	-0.051	-0.067
-403.252	-200.000	0.007	0.156
-402.238	263.249	0.053	0.092
-401.223	-200.000	0.001	0.331
-400.209	678.387	-0.045	0.117
-399.194	-6.036	0.263	0.181
-398.179	-200.000	0.011	-0.231
-397.165	-85.618	-0.460	0.144
-396.150	-92.836	-0.298	-0.084
-395.136	140.639	-0.113	-0.151
-394.121	-139.054	0.377	-0.041
-393.106	-200.000	-0.020	0.259
-392.092	110.277	0.152	-0.184
-391.077	-200.000	0.062	-0.358
-390.063	-71.443	-0.100	-0.038
-389.048	142.313	0.219	-0.293
-388.033	175.519	0.021	-0.031
-387.019	460.397	-0.031	0.070
-386.004	-124.165	0.089	0.014
-384.990	-200.000	0.062	-0.475
-383.975	-200.000	0.007	0.057
-382.960	110.054	-0.128	-0.155
-381.946	260.948	0.158	-0.276
-380.931	-181.139	0.168	0.003
-379.917	275.673	-0.045	-0.080
-378.902	12.132	-0.212	0.164
-377.888	241.752	-0.189	-0.318
-376.873	-200.000	-0.001	-0.034
-375.858	76.371	-0.248	-0.265
-374.844	-83.275	0.223	0.072
-373.829	403.718	-0.122	0.258
-372.815	222.237	-0.252	0.409
-371.800	-136.374	-0.114	0.013
-370.785	101.458	-0.072	-0.084
-369.771	800.000	0.081	0.253
-368.756	8.202	0.104	0.079
-367.742	260.610	0.136	0.236
-366.727	800.000	0.052	-0.176
-365.712	-200.000	-0.045	0.221
-364.698	64.708	-0.104	-0.106
-363.683	144.319	-0.065	-0.087
-362.669	800.000	-0.016	0.050
-361.654	132.542	0.085	-0.111
-360.639	201.551	0.080	0.123
-359.625	-200.000	-0.048	-0.259
-358.610	5.809	-0.274	-0.204
-357.596	40.081	-0.120	-0.109
-356.581	800.000	0.059	0.219
-355.566	-200.000	-0.003	0.096
-354.552	-61.077	-0.145	-0.062
-353.537	-58.087	0.210	-0.092
-352.523	-85.282	0.240	0.075
-351.508	800.000	0.079	0.309
-350.493	-100.776	-0.232	-0.058
-349.479	159.648	0.034	-0.047
-348.464	-74.325	0.106	0.039
-347.450	-59.585	0.222	-0.096
-346.435	-70.360	0.457	0.174
-345.420	48.186	-0.180	-0.170
-344.406	112.955	0.257	-0.313
-343.391	-200.000	0.009	0.251
-342.377	-68.480	-0.297	0.116
-341.362	112.407	0.072	0.087
-340.348	-200.000	0.020	-0.094
-339.333	426.418	0.108	0.234
-338.318	-48.933	-0.085	-0.041
-337.304	69.088	-0.134	-0.139
-336.289	208.846	-0.133	0.209
-335.275	575.273	0.041	0.102
-334.260	-200.000	-0.028	0.156
-333.245	-200.000	0.009	0.130
-332.231	800.000	0.149	0.415
-331.216	83.717	0.152	0.167
-330.202	-200.000	-0.034	-0.206
-329.187	61.846	0.214	0.214
-328.172	344.207	-0.157	-0.309
-327.158	12.184	-0.060	0.047
-326.143	-12.276	0.058	-0.038
-325.129	-200.000	-0.022	0.292
-324.114	-70.953	0.164	-0.062
-323.099	-80.289	-0.203	0.068
-322.085	-131.066	-0.217	0.029
-321.070	-200.000	-0.010	-0.063
-320.056	-7.599	0.167	0.114
-319.041	148.776	-0.229	-0.312
-318.026	90.445	0.100	0.113
-317.012	171.274	-0.057	-0.082
-315.997	-200.000	-0.006	-0.051
-314.983	-200.000	-0.027	-0.296
-313.968	94.648	0.182	0.208
-312.953	-44.697	0.344	0.173
-311.939	-200.000	-0.029	-0.449
-310.924	25.551	0.239	0.200
-309.910	123.807	0.090	0.113
-308.895	-12.537	-0.313	0.206
-307.880	-34.994	0.270	-0.148
-306.866	677.128	-0.121	0.316
-305.851	-200.000	0.024	0.125
-304.837	-96.716	0.154	-0.041
-303.822	446.798	0.123	-0.272
-302.807	240.500	0.074	0.123
-301.793	-130.388	-0.176	-0.024
-300.778	-54.400	-0.096	-0.044
-299.764	16.963	0.182	-0.145
-298.749	800.000	0.060	0.224
-297.735	-200.000	-0.015	0.192
-296.720	136.978	-0.054	-0.070
-295.705	499.191	-0.113	0.262
-294.691	-10.274	0.086	0.058
-293.676	-18.981	-0.046	-0.029
-292.662	-106.875	-0.286	0.064
-291.647	-49.178	0.107	0.051
-290.632	106.068	0.272	0.324
-289.618	800.000	-0.013	0.041
-288.603	390.480	-0.094	-0.195
-287.589	-200.000	-0.002	0.180
-286.574	-25.054	-0.299	0.178
-285.559	-11.430	-0.290	0.192
-284.545	800.000	-0.089	-0.259
-283.530	800.000	-0.015	0.046
-282.516	234.003	-0.171	-0.283
-281.501	54.686	0.257	-0.249
-280.486	-115.823	-0.255	-0.048
-279.472	10.047	0.479	0.365
-278.457	800.000	0.083	-0.297
-277.443	-173.150	0.155	-0.005
-276.428	-65.401	0.142	0.057
-275.413	-138.825	-0.425	-0.046
-274.399	340.077	0.208	0.408
-273.384	37.640	0.089	0.079
-272.370	-91.027	0.136	-0.039
-271.355	-109.131	-0.195	-0.042
-270.340	469.098	0.074	-0.166
-269.326	-200.000	-0.013	0.111
-268.311	105.168	-0.138	-0.164
-267.297	166.835	0.096	-0.136
-266.282	198.511	0.201	-0.309
-265.267	108.206	0.276	0.330
-264.253	34.094	-0.219	0.191
-263.238	25.155	0.064	-0.053
-262.224	168.836	-0.058	-0.083
-261.209	-7.315	-0.037	-0.025
-260.195	62.914	0.089	-0.090
-259.180	501.855	0.109	-0.253
-258.165	-138.374	-0.197	0.022
-257.151	87.591	0.015	-0.017
-256.136	231.279	-0.125	0.206
-255.122	184.239	0.164	-0.243
-254.107	-200.000	0.010	0.280
-253.092	14.192	-0.228	0.178
-252.078	-147.038	-0.196	0.017
-251.063	395.679	0.121	0.254
-250.049	-6.246	0.013	0.009
-249.034	281.585	0.050	-0.090
-248.019	-200.000	-0.017	-0.164
-247.005	32.886	-0.147	0.127
-245.990	-46.904	0.099	0.048
-244.976	-200.000	-0.001	0.023
-243.961	-88.671	-0.198	-0.059
-242.946	-6.012	0.083	-0.057
-241.932	77.908	-0.199	-0.212
-240.917	16.625	0.115	-0.091
-239.903	-195.715	0.251	-0.002
-238.888	-12.219	-0.089	0.059
-237.873	-200.000	-0.022	-0.187
-236.859	-200.000	-0.009	-0.100
-235.844	-50.950	0.142	0.067
-234.830	164.290	-0.130	0.183
-233.815	-179.809	0.077	-0.002
-232.800	-200.000	-0.000	0.028
-231.786	-91.904	0.218	0.062
-230.771	-27.715	0.305	-0.177
-229.757	-90.181	-0.200	0.058
-228.742	800.000	0.039	-0.152
-227.727	-115.557	0.218	-0.041
-226.713	161.457	0.100	0.140
-225.698	26.239	-0.102	0.086
-224.684	-145.405	-0.220	0.020
-223.669	-200.000	-0.019	-0.114
-222.655	-48.412	-0.231	0.111
-221.640	41.767	0.377	0.342
-220.625	217.680	-0.125	0.200
-219.611	39.604	-0.172	-0.154
-218.596	51.460	0.078	0.074
-217.582	0.765	-0.139	0.100
-216.567	94.983	0.131	-0.149
-215.552	-50.136	0.165	-0.078
-214.538	-140.637	0.350	0.036
-213.523	-69.806	-0.036	-0.014
-212.509	128.849	0.173	0.221
-211.494	-200.000	-0.006	0.455
-210.479	-73.146	-0.248	-0.091
-209.465	-200.000	-0.015	-0.307
-208.450	-41.610	-0.095	-0.049
-207.436	-125.507	-0.039	0.006
-206.421	492.460	0.165	-0.380
-205.406	35.515	-0.151	0.133
-204.392	58.342	-0.269	0.264
-203.377	-200.000	0.031	-0.421
-202.363	-9.747	-0.187	-0.125
-201.348	776.597	-0.085	-0.234
-200.333	800.000	-0.050	0.189
-199.319	800.000	0.087	0.305
-198.304	-87.754	-0.077	-0.023
-197.290	-107.545	-0.340	-0.075
-196.275	42.452	-0.088	0.080
-195.260	474.230	0.077	0.175
-194.246	-53.554	-0.230	-0.105
-193.231	429.318	0.143	-0.310
-192.217	800.000	0.038	-0.134
-191.202	89.919	-0.231	0.259
-190.187	-23.373	-0.164	0.098
-189.173	-70.442	0.260	0.099
-188.158	-53.782	-0.262	0.119
-187.144	-200.000	0.026	0.141
-186.129	100.633	0.065	0.075
-185.114	-128.226	0.055	-0.008
-184.100	184.240	-0.028	-0.042
-183.085	5.321	-0.278	-0.205
-182.071	35.072	-0.205	0.179
-181.056	63.420	0.160	-0.161
-180.042	800.000	0.041	-0.140
-179.027	153.489	-0.089	-0.122
-178.012	800.000	0.075	0.228
-176.998	47.533	-0.157	0.146
-175.983	612.590	-0.103	-0.258
-174.969	-65.701	0.169	-0.068
-173.954	25.963	0.051	0.043
-172.939	-68.516	-0.282	0.109
-171.925	119.048	0.087	0.107
-170.910	-200.000	-0.004	0.107
-169.896	-80.307	0.125	0.042
-168.881	86.420	0.143	0.157
-167.866	-75.775	0.040	0.014
-166.852	800.000	0.101	-0.296
-165.837	-23.476	-0.147	0.088
-164.823	327.977	-0.136	0.260
-163.808	512.558	0.019	-0.043
-162.793	-40.212	-0.407	-0.212
-161.779	141.406	-0.099	-0.131
-160.764	-200.000	-0.044	-0.207
-159.750	159.020	-0.098	0.137
-158.735	7.954	0.407	-0.305
-157.720	109.542	-0.295	0.353
-156.706	-192.381	-0.154	0.001
-155.691	5.892	0.252	-0.187
-154.677	37.117	0.049	0.043
-153.662	251.154	0.129	-0.219
-152.647	358.162	-0.074	0.147
-151.633	50.499	0.206	-0.195
-150.618	22.866	-0.194	0.159
-149.604	-178.097	0.397	-0.009
-148.589	15.481	-0.238	-0.187
-147.574	-67.485	0.191	0.075
-146.560	52.586	-0.043	0.041
-145.545	-200.000	0.062	-0.276
-144.531	-83.060	-0.110	0.035
-143.516	32.615	-0.195	-0.169
-142.502	-98.345	0.368	0.094
-141.487	800.000	0.057	-0.229
-140.472	307.707	0.098	-0.183
-139.458	-154.381	0.174	0.012
-138.443	-82.744	-0.112	-0.036
-137.429	800.000	-0.056	0.197
-136.414	-6.149	-0.309	0.210
-135.399	92.924	0.162	0.183
-134.385	-45.285	-0.130	0.065
-133.370	-111.189	-0.154	-0.031
-132.356	800.000	-0.075	-0.269
-131.341	-158.220	0.334	-0.019
-130.326	-132.486	-0.266	-0.034
-129.312	800.000	0.016	-0.064
-128.297	164.605	0.145	0.204
-127.283	-112.278	0.279	0.056
-126.268	142.781	0.227	-0.301
-125.253	308.795	-0.132	0.246
-124.239	-200.000	0.003	-0.077
-123.224	-146.589	-0.302	0.026
-122.210	-200.000	0.027	-0.127
-121.195	-200.000	0.015	-0.066
-120.180	800.000	-0.052	0.167
-119.166	150.806	-0.022	-0.030
-118.151	-200.000	0.022	-0.201
-117.137	-200.000	-0.009	-0.194
-116.122	133.500	-0.016	0.020
-115.107	-94.826	-0.051	0.014
-114.093	-150.051	-0.196	0.015
-113.078	755.535	0.128	-0.346
-112.064	46.312	0.169	0.156
-111.049	800.000	-0.070	-0.244
-110.034	-69.096	-0.218	-0.084
-109.020	482.268	-0.032	0.073
-108.005	120.794	0.180	0.223
-106.991	-200.000	-0.089	0.395
-105.976	349.469	-0.069	-0.135
-104.962	116.797	-0.051	-0.062
-103.947	-200.000	-0.051	-0.355
-102.932	-51.748	-0.204	0.095
-101.918	-200.000	-0.003	0.118
-100.903	-89.131	-0.179	-0.053
-99.889	-107.135	0.159	-0.035
-98.874	84.712	0.105	-0.115
-97.859	392.671	-0.016	-0.033
-96.845	27.703	-0.184	-0.155
-95.830	-66.575	0.497	-0.196
-94.816	800.000	0.027	-0.117
-93.801	214.286	0.196	-0.310
-92.786	-200.000	-0.014	-0.146
-91.772	115.575	-0.200	-0.243
-90.757	800.000	0.088	0.365
-89.743	468.991	0.068	-0.152
-88.728	-164.955	-0.324	-0.014
-87.713	-89.697	0.334	-0.098
-86.699	800.000	0.057	-0.233
-85.684	-24.944	0.364	0.215
-84.670	680.606	-0.084	-0.217
-83.655	164.798	-0.122	0.171
-82.640	-200.000	0.026	-0.321
-81.626	58.146	-0.392	-0.382
-80.611	-100.968	0.184	-0.045
-79.597	-111.890	-0.149	-0.030
-78.582	216.157	0.147	-0.232
-77.567	63.283	0.158	-0.157
-76.553	37.193	0.111	0.098
-75.538	-36.995	0.081	0.043
-74.524	800.000	-0.044	-0.192
-73.509	-156.247	-0.302	-0.019
-72.494	-17.743	-0.294	-0.184
-71.480	-200.000	-0.056	-0.277
-70.465	-200.000	-0.009	-0.178
-69.451	-176.032	-0.063	-0.002
-68.436	-200.000	0.022	0.156
-67.422	199.885	0.100	-0.153
-66.407	67.903	0.107	-0.109
-65.392	229.780	0.149	0.243
-64.378	-200.000	0.038	-0.257
-63.363	140.106	0.269	-0.353
-62.349	-82.093	-0.165	-0.053
-61.334	182.512	-0.634	-0.931
-60.319	-200.000	0.009	0.086
-59.305	-200.000	-0.201	-0.973
-58.290	423.626	0.348	0.745
-57.276	467.920	0.712	1.590
-56.261	-200.000	75.165	515.530
-55.246	535.924	1321.769	3121.391
-54.232	144.126	2573.963	3417.277
-53.217	117.153	2246.694	2747.349
-52.203	53.193	1685.360	1606.311
-51.188	45.076	1404.566	1287.712
-50.173	41.263	1358.542	1222.136
-49.159	59.329	1393.976	1366.243
-48.144	66.268	1412.918	1427.655
-47.130	45.199	1375.004	1261.166
-46.115	41.273	1358.700	1222.142
-45.100	40.919	1354.111	1215.801
-44.086	40.833	1351.686	1213.050
-43.071	40.912	1348.499	1210.626
-42.057	40.756	1346.886	1208.179
-41.042	40.800	1345.060	1206.762
-40.027	40.898	1343.361	1205.784
-39.013	40.924	1341.433	1204.164
-37.998	40.892	1339.437	1202.130
-36.984	41.027	1337.544	1201.196
-35.969	41.043	1335.764	1199.651
-34.954	41.145	1333.831	1198.478
-33.940	41.125	1332.191	1196.837
-32.925	41.143	1331.013	1195.838
-31.911	41.090	1329.756	1194.347
-30.896	41.208	1327.857	1193.303
-29.881	41.132	1327.007	1192.034
-28.867	41.068	1325.128	1189.913
-27.852	41.027	1323.582	1188.237
-26.838	41.100	1322.208	1187.392
-25.823	41.188	1320.434	1186.276
-24.809	41.113	1319.395	1184.845
-23.794	41.115	1318.201	1183.739
-22.779	41.096	1316.763	1182.288
-21.765	41.165	1315.209	1181.257
-20.750	41.166	1313.437	1179.624
-19.736	41.070	1312.417	1178.093
-18.721	40.940	1311.415	1176.378
-17.706	40.903	1310.451	1175.245
-16.692	40.927	1308.890	1173.943
-15.677	40.884	1308.240	1173.055
-14.663	40.905	1306.486	1171.563
-13.648	40.838	1305.332	1170.088
-12.633	40.886	1304.222	1169.329
-11.619	40.846	1303.925	1168.781
-10.604	40.980	1302.407	1168.157
-9.590	40.782	1302.003	1166.588
-8.575	40.846	1300.637	1165.695
-7.560	40.912	1299.645	1165.144
-6.546	40.888	1298.383	1163.829
-5.531	40.870	1297.734	1163.095
-4.517	40.895	1296.767	1162.328
-3.502	41.028	1295.461	1161.885
-2.487	40.939	1295.014	1160.922
-1.473	41.025	1291.209	1157.966
-0.458	40.291	1277.181	1141.109
0.556	35.366	1257.281	1103.257
1.571	31.450	1261.240	1083.985
2.586	30.181	1276.326	1089.399
3.600	28.668	1265.364	1071.130
4.615	20.134	1185.869	956.859
5.629	6.730	1098.888	817.591
6.644	0.645	1074.308	768.351
7.659	0.174	1071.877	764.154
8.673	0.047	1070.410	762.395
9.688	-0.074	1068.646	760.462
10.702	0.489	1067.828	762.657
11.717	8.302	1080.368	811.379
12.731	19.490	1096.174	880.576
13.746	22.922	1099.736	900.894
14.761	22.454	1098.401	897.336
15.775	22.139	1098.120	895.423
16.790	21.880	1097.390	893.426
17.804	21.932	1096.230	892.669
18.819	21.957	1096.391	892.846
19.834	22.064	1095.418	892.522
20.848	22.230	1094.414	892.469
21.863	22.063	1094.495	891.608
22.877	22.131	1093.286	890.887
23.892	21.998	1092.908	889.827
24.907	22.023	1092.037	889.166
25.921	22.014	1090.903	888.119
26.936	22.012	1089.748	887.086
27.950	22.046	1087.927	885.700
28.965	21.859	1086.098	883.191
29.980	21.937	1084.695	882.362
30.994	22.082	1083.601	882.122
32.009	22.123	1082.389	881.265
33.023	21.881	1080.897	878.758
34.038	21.832	1080.688	878.267
35.053	22.140	1079.656	878.889
36.067	22.130	1079.022	878.247
37.082	22.068	1078.629	877.542
38.096	22.283	1077.494	877.614
39.111	22.295	1077.323	877.456
40.126	22.197	1075.399	875.321
41.140	21.795	1073.611	871.788
42.155	21.633	1072.058	869.646
43.169	21.711	1071.443	869.460
44.184	21.773	1070.552	868.968
45.199	21.669	1069.111	867.203
46.213	21.698	1068.146	866.487
47.228	21.941	1067.556	867.135
48.242	21.961	1066.791	866.536
49.257	21.961	1066.152	865.940
50.271	22.138	1064.999	865.801
51.286	22.157	1064.092	865.076
52.301	22.146	1063.207	864.227
53.315	22.008	1062.509	862.907
54.330	22.000	1061.464	861.942
55.344	22.025	1060.706	861.374
56.359	22.012	1059.476	860.235
57.374	21.716	1058.732	858.107
58.388	21.983	1057.797	858.579
59.403	21.876	1057.061	857.383
60.417	21.655	1056.445	855.727
61.432	21.814	1055.471	855.638
62.447	21.873	1055.132	855.576
63.461	21.956	1054.040	855.015
64.476	21.855	1053.212	853.781
65.490	21.668	1052.383	852.124
66.505	21.782	1051.762	852.096
67.520	21.954	1050.814	852.090
68.534	21.613	1049.931	849.644
69.549	21.373	1048.665	847.380
70.563	21.351	1047.622	846.357
71.578	21.419	1046.711	845.872
72.593	21.261	1046.015	844.475
73.607	21.320	1045.499	844.266
74.622	21.612	1045.259	845.409
75.636	21.702	1044.402	845.073
76.651	21.560	1043.254	843.388
77.666	21.546	1042.872	842.937
78.680	21.654	1042.171	842.815
79.695	21.745	1041.384	842.541
80.709	21.689	1040.921	841.821
81.724	21.571	1040.392	840.756
82.739	21.851	1038.831	840.760
83.753	22.038	1038.273	841.131
84.768	22.299	1037.716	841.855
85.782	22.478	1036.390	841.558
86.797	22.374	1035.846	840.547
87.812	22.197	1034.447	838.495
88.826	22.295	1033.628	838.223
89.841	22.439	1032.653	838.041
90.855	22.377	1032.120	837.241
91.870	22.310	1031.067	835.993
92.884	22.097	1030.119	834.140
93.899	22.087	1028.863	833.002
94.914	22.152	1028.395	832.859
95.928	22.273	1026.835	832.095
96.943	21.900	1025.864	829.468
97.957	21.731	1024.545	827.531
98.972	21.578	1023.635	825.999
99.987	21.915	1022.851	826.882
101.001	22.139	1022.074	827.239
102.016	22.107	1021.622	826.649
103.030	22.004	1020.174	824.917
104.045	21.879	1019.056	823.355
105.060	21.673	1018.552	821.907
106.074	21.984	1017.643	822.559
107.089	22.232	1017.192	823.286
108.103	22.104	1015.890	821.558
109.118	21.969	1014.926	820.074
110.133	21.832	1014.408	818.946
111.147	21.808	1012.450	817.179
112.162	21.621	1011.698	815.631
113.176	21.772	1011.191	815.854
114.191	21.656	1010.224	814.458
115.206	21.471	1008.991	812.534
116.220	21.359	1008.567	811.602
117.235	21.605	1007.359	811.700
118.249	21.482	1006.795	810.601
119.264	21.485	1005.803	809.744
120.279	21.557	1005.216	809.532
121.293	21.455	1004.608	808.501
122.308	21.548	1003.345	807.843
123.322	21.577	1002.124	806.924
124.337	21.447	1000.457	804.910
125.352	21.030	998.691	801.500
126.366	20.837	998.261	800.200
127.381	21.531	998.308	803.352
128.395	22.003	997.810	805.046
129.410	22.174	996.831	804.970
130.424	22.117	995.959	803.933
131.439	22.043	995.196	802.907
132.454	22.058	994.522	802.363
133.468	21.997	993.517	801.198
134.483	22.213	992.776	801.515
135.497	22.422	991.804	801.611
136.512	22.386	991.060	800.778
137.527	22.367	989.976	799.742
138.541	22.474	989.421	799.712
139.556	22.389	988.732	798.697
140.570	22.514	987.947	798.557
141.585	22.455	986.707	797.219
142.600	22.423	985.817	796.285
143.614	22.705	984.535	796.455
144.629	22.787	984.541	796.757
145.643	22.479	983.178	794.197
146.658	22.325	981.618	792.171
147.673	22.277	980.673	791.122
148.687	22.165	979.538	789.635
149.702	22.149	978.456	788.620
150.716	22.205	977.323	787.888
151.731	22.151	977.271	787.534
152.746	22.468	976.628	788.365
153.760	22.576	975.409	787.794
154.775	22.643	974.908	787.619
155.789	22.482	974.479	786.484
156.804	22.466	973.198	785.309
157.819	22.578	972.245	784.972
158.833	22.681	971.435	784.707
159.848	22.646	970.739	783.919
160.862	22.391	969.540	781.747
161.877	22.531	968.552	781.502
162.892	22.608	967.600	781.006
163.906	22.524	966.496	779.677
164.921	22.324	966.172	778.459
165.935	22.532	964.626	778.063
166.950	22.465	963.716	776.966
167.964	22.399	963.488	776.424
168.979	22.287	961.927	774.601
169.994	22.286	961.175	773.925
171.008	22.645	960.047	774.523
172.023	22.549	959.546	773.630
173.037	22.297	958.704	771.778
174.052	22.124	957.700	770.144
175.067	22.306	956.962	770.279
176.081	22.353	956.436	769.991
177.096	22.149	955.826	768.541
178.110	22.092	954.429	767.100
179.125	21.745	954.185	765.321
180.140	22.013	953.422	765.812
181.154	22.076	953.285	765.908
182.169	22.373	952.949	766.867
183.183	22.514	952.431	766.993
184.198	22.395	951.841	765.933
185.213	22.344	951.124	765.066
186.227	22.529	950.147	765.017
187.242	22.375	949.824	764.020
188.256	22.574	948.618	763.845
189.271	22.520	948.147	763.166
190.286	22.305	946.854	761.128
191.300	21.733	945.808	757.746
192.315	21.052	944.137	753.398
193.329	20.892	944.068	752.589
194.344	21.802	944.105	756.478
195.359	22.339	943.775	758.464
196.373	22.582	943.030	758.842
197.388	22.308	942.570	757.225
198.402	22.413	942.054	757.196
199.417	22.438	941.635	756.901
200.432	22.177	940.295	754.634
201.446	22.012	939.476	753.204
202.461	21.981	939.271	752.839
203.475	21.217	937.399	748.002
204.490	20.460	935.660	743.309
205.504	21.342	936.392	747.601
206.519	21.912	936.323	749.914
207.534	21.904	935.855	749.441
208.548	22.342	935.825	751.219
209.563	22.325	934.293	749.853
210.577	22.145	933.899	748.704
211.592	22.643	933.766	750.652
212.607	22.482	932.739	749.072
213.621	22.512	932.088	748.612
214.636	22.596	931.397	748.349
215.650	22.448	930.473	746.911
216.665	22.634	930.204	747.420
217.680	22.625	928.710	746.115
218.694	22.172	927.822	743.418
219.709	21.956	927.416	742.113
220.723	22.403	926.555	743.248
221.738	22.301	926.152	742.428
222.753	22.441	925.476	742.410
223.767	22.453	925.156	742.138
224.782	22.594	924.951	742.503
225.796	22.680	924.182	742.182
226.811	22.114	922.852	738.670
227.826	21.310	921.731	734.330
228.840	21.577	920.602	734.484
229.855	21.810	919.721	734.693
230.869	21.295	918.869	731.790
231.884	21.669	919.106	733.482
232.899	22.456	919.095	736.700
233.913	22.245	918.034	734.905
234.928	22.292	917.970	734.986
235.942	22.285	917.415	734.447
236.957	21.851	916.586	731.905
237.972	21.988	915.638	731.654
238.986	22.087	915.078	731.557
240.001	22.171	914.089	731.051
241.015	22.272	913.754	731.136
242.030	22.393	913.338	731.243
243.045	22.506	913.015	731.388
244.059	22.568	913.016	731.581
245.074	22.330	911.847	729.595
246.088	21.914	910.850	727.006
247.103	22.343	910.140	728.153
248.117	22.900	910.434	730.628
249.132	23.023	910.107	730.812
250.147	23.150	909.473	730.760
251.161	23.247	908.962	730.686
252.176	23.149	908.718	730.019
253.190	23.219	907.788	729.495
254.205	23.354	907.044	729.391
255.220	23.383	906.567	729.062
256.234	23.323	905.356	727.776
257.249	23.198	904.505	726.516
258.263	23.125	904.411	726.077
259.278	23.179	903.711	725.672
260.293	23.314	902.815	725.442
261.307	23.161	902.153	724.218
262.322	22.986	901.399	722.833
263.336	22.392	899.151	718.540
264.351	21.144	897.401	711.995
265.366	21.296	897.375	712.528
266.380	22.465	897.894	717.644
267.395	22.761	897.803	718.716
268.409	22.815	896.763	718.038
269.424	22.935	896.613	718.343
270.439	23.088	895.994	718.405
271.453	23.152	895.178	717.945
272.468	23.327	894.950	718.411
273.482	23.336	894.122	717.719
274.497	23.008	893.177	715.568
275.512	22.494	892.059	712.532
276.526	22.872	892.321	714.205
277.541	23.116	891.959	714.837
278.555	22.889	890.822	712.949
279.570	22.758	890.300	711.937
280.585	23.059	889.671	712.585
281.599	22.966	888.633	711.319
282.614	22.282	887.540	707.628
283.628	22.188	887.427	707.098
284.643	22.603	887.005	708.368
285.657	22.359	885.663	706.252
286.672	22.157	884.647	704.572
287.687	22.536	884.860	706.199
288.701	22.717	884.019	706.191
289.716	22.384	883.327	704.242
290.730	22.282	882.878	703.414
291.745	22.126	881.720	701.804
292.760	22.355	881.614	702.573
293.774	23.291	882.146	706.673
294.789	23.820	881.586	708.269
295.803	23.578	881.187	706.924
296.818	23.694	880.448	706.731
297.833	23.137	879.430	703.632
298.847	22.957	878.801	702.353
299.862	23.301	878.697	703.575
300.876	23.577	878.196	704.209
301.891	23.613	877.061	703.379
302.906	23.020	876.702	700.677
303.920	23.297	875.998	701.150
304.935	23.555	876.281	702.336
305.949	23.653	875.282	701.862
306.964	23.350	874.510	699.984
307.979	23.369	873.937	699.538
308.993	23.657	874.127	700.766
310.008	23.778	873.060	700.324
311.022	23.502	872.263	698.537
312.037	23.377	871.604	697.452
313.052	23.053	870.598	695.312
314.066	22.303	868.814	690.884
315.081	21.851	868.263	688.610
316.095	22.898	868.402	692.766
317.110	23.250	868.722	694.342
318.125	22.463	866.925	689.761
319.139	21.388	865.513	684.374
320.154	21.400	865.462	684.319
321.168	22.241	865.800	687.817
322.183	22.993	865.537	690.485
323.197	23.085	865.111	690.446
324.212	23.322	864.873	691.119
325.227	23.417	864.178	690.871
326.241	23.291	863.712	689.949
327.256	23.230	863.048	689.119
328.270	23.070	862.765	688.209
329.285	22.816	861.756	686.357
330.300	22.726	860.757	685.149
331.314	22.939	860.130	685.415
332.329	23.422	860.258	687.333
333.343	23.558	859.961	687.560
334.358	23.426	859.422	686.559
335.373	23.652	859.164	687.166
336.387	23.877	859.190	687.997
337.402	23.908	859.184	688.049
338.416	23.923	857.885	687.008
339.431	23.930	857.943	687.021
340.446	24.083	857.746	687.390
341.460	23.971	857.271	686.519
342.475	23.737	856.755	685.144
343.489	23.869	856.282	685.212
344.504	24.234	855.736	686.121
345.519	24.349	855.475	686.291
346.533	24.302	855.177	685.814
347.548	24.101	855.117	684.929
348.562	24.324	853.864	684.721
349.577	24.283	853.169	683.949
350.592	24.300	852.452	683.376
351.606	24.187	852.074	682.582
352.621	24.172	850.886	681.510
353.635	23.872	850.541	680.029
354.650	23.323	848.812	676.489
355.665	22.281	847.462	671.377
356.679	22.806	847.182	673.099
357.694	23.238	846.667	674.277
358.708	23.305	845.898	673.857
359.723	23.629	845.952	675.076
360.738	23.769	846.243	675.778
361.752	23.852	845.491	675.436
362.767	24.334	845.082	676.878
363.781	24.515	844.326	676.898
364.796	24.627	843.901	676.923
365.810	24.593	843.625	676.512
366.825	24.516	843.767	676.274
367.840	24.263	842.626	674.345
368.854	23.954	841.444	672.173
369.869	23.955	841.210	671.930
370.883	23.937	840.820	671.487
371.898	23.981	840.413	671.269
372.913	23.965	840.115	670.913
373.927	24.268	839.356	671.388
374.942	24.139	839.399	670.877
375.956	24.374	838.738	671.176
376.971	24.417	838.608	671.173
377.986	24.664	837.857	671.441
379.000	24.507	837.412	670.436
380.015	24.523	836.414	669.638
381.029	24.611	835.920	669.510
382.044	24.633	835.543	669.234
383.059	24.643	835.121	668.874
384.073	24.565	834.630	668.129
385.088	24.498	834.210	667.482
386.102	24.279	833.269	665.853
387.117	24.276	832.560	665.217
388.132	24.023	831.441	663.321
389.146	23.546	830.421	660.673
390.161	23.926	830.502	662.095
391.175	24.363	830.097	663.337
392.190	24.115	828.969	661.456
393.205	22.768	827.216	655.003
394.219	21.354	825.168	648.086
395.234	21.135	825.478	647.459
396.248	22.708	826.447	653.997
397.263	24.387	827.253	660.803
398.278	24.189	827.285	660.037
399.292	23.766	826.590	657.857
400.307	23.927	825.974	657.906
401.321	24.022	825.366	657.712
402.336	24.421	825.698	659.396
403.350	24.772	825.429	660.416
404.365	25.044	825.272	661.238
405.380	25.276	824.795	661.651
406.394	25.392	824.292	661.616
407.409	25.275	823.592	660.568
408.423	25.293	823.114	660.192
409.438	25.277	823.053	660.024
410.453	25.190	822.784	659.430
411.467	25.094	822.167	658.525
412.482	25.198	821.237	658.103
413.496	25.431	820.888	658.619
414.511	25.257	820.846	657.888
415.526	25.210	820.539	657.413
416.540	25.141	819.583	656.337
417.555	24.966	818.592	654.846
418.569	24.963	818.679	654.845
419.584	25.023	817.724	654.243
420.599	24.821	817.302	653.110
421.613	92.322	1259.867	1369.207
422.628	79.402	1324.373	1369.326
