DTS Sentinel unit serial number:	SN413079Multiplexer serial number:	ORYXHardware model number:	OX4-SRSoftware version number:	ORYX F/W v4.00 Oryx Data Collector v3.7.2.0data status	okinstallation	princeton_trtdifferential loss correction	single-endedforward channel	channel 1reverse channel	N/Adate	2019/09/12time	04:00:11forward acquisition time	60.00reverse acquisition time	0.00gamma	496.2192k internal	0.2322k external	0.2322temperature offset calibration	1.0086default loss term (dB/km)	0.3790temperature slope calibration	1.0000multiplexer offset coefficient	1.0000multiplexer slope coefficient	1.0000fibre end	0.00T internal ref (°C)	32.06T ext. ref 1 (°C)	2.17T ext. ref 2 (°C)	26.08length (m)	temperature (°C)	Stokes	anti-Stokes-747.200	-98.311	0.258	-0.067
-746.185	66.263	0.184	0.189
-745.171	184.729	-0.068	-0.102
-744.156	-32.803	-0.129	0.072
-743.142	87.197	-0.269	0.300
-742.127	178.568	-0.106	-0.156
-741.112	25.804	0.112	-0.094
-740.098	114.531	0.178	-0.219
-739.083	-200.000	-0.021	-0.165
-738.069	-71.854	-0.247	0.093
-737.054	-86.837	-0.117	-0.036
-736.039	800.000	-0.048	-0.156
-735.025	107.054	-0.197	0.236
-734.010	800.000	0.048	0.198
-732.996	-200.000	-0.021	-0.266
-731.981	445.243	0.090	-0.200
-730.966	-113.974	-0.427	0.084
-729.952	-200.000	0.026	0.283
-728.937	643.960	-0.094	-0.243
-727.923	-78.265	-0.107	-0.037
-726.908	390.247	-0.164	-0.343
-725.894	-78.553	-0.449	-0.155
-724.879	114.909	-0.130	-0.161
-723.864	-80.664	0.176	-0.059
-722.850	84.436	-0.059	-0.065
-721.835	-200.000	0.017	-0.103
-720.821	800.000	-0.142	0.420
-719.806	800.000	-0.020	-0.066
-718.791	426.953	-0.107	-0.233
-717.777	-127.358	-0.051	0.008
-716.762	43.095	-0.048	-0.045
-715.748	-167.755	0.121	0.005
-714.733	-51.892	0.036	0.017
-713.718	-9.224	-0.136	-0.092
-712.704	537.221	0.076	0.181
-711.689	713.956	-0.082	0.221
-710.675	800.000	-0.113	-0.342
-709.660	-200.000	0.169	0.001
-708.645	-92.995	0.113	0.032
-707.631	-136.265	-0.196	-0.023
-706.616	495.966	0.146	-0.338
-705.602	186.550	0.108	0.162
-704.587	-81.836	-0.023	0.007
-703.572	30.556	-0.131	-0.113
-702.558	34.082	0.128	0.113
-701.543	-38.452	0.311	-0.166
-700.529	-200.000	0.017	-0.250
-699.514	-175.290	0.211	-0.006
-698.499	258.495	-0.065	0.114
-697.485	2.773	-0.150	0.110
-696.470	106.874	0.091	-0.109
-695.456	-76.917	0.343	0.121
-694.441	-200.000	-0.031	0.312
-693.426	259.323	-0.120	0.208
-692.412	539.194	0.202	-0.485
-691.397	-200.000	0.033	0.236
-690.383	67.064	-0.109	-0.112
-689.368	450.932	0.048	0.107
-688.354	-108.222	0.064	0.014
-687.339	-104.949	-0.086	-0.020
-686.324	-114.842	0.173	0.033
-685.310	2.835	0.173	-0.127
-684.295	250.130	0.036	-0.062
-683.281	-114.496	-0.254	-0.049
-682.266	-139.686	-0.211	0.023
-681.251	-200.000	-0.087	-0.677
-680.237	-76.474	-0.039	-0.014
-679.222	100.518	-0.048	-0.057
-678.208	-57.897	-0.155	-0.068
-677.193	60.809	-0.348	0.348
-676.178	800.000	0.039	-0.133
-675.164	-19.597	-0.045	-0.028
-674.149	-118.586	-0.120	0.021
-673.135	339.655	0.132	0.260
-672.120	-109.349	0.035	-0.007
-671.105	-31.475	-0.148	-0.084
-670.091	92.306	-0.168	-0.191
-669.076	-149.096	0.409	0.033
-668.062	800.000	0.099	-0.350
-667.047	16.764	0.197	0.157
-666.032	304.768	-0.031	0.059
-665.018	193.059	-0.139	0.211
-664.003	0.104	-0.048	0.035
-662.989	49.706	0.186	-0.176
-661.974	133.831	-0.274	-0.357
-660.959	202.823	-0.092	0.143
-659.945	-89.648	-0.193	-0.057
-658.930	800.000	0.122	0.341
-657.916	54.504	0.176	-0.171
-656.901	-47.393	0.229	-0.112
-655.886	-200.000	0.013	0.207
-654.872	73.754	-0.111	0.118
-653.857	-168.878	0.080	0.003
-652.843	36.660	-0.116	-0.103
-651.828	327.663	-0.129	0.249
-650.814	-90.508	0.107	0.031
-649.799	-135.424	-0.178	-0.021
-648.784	-200.000	0.019	0.105
-647.770	146.027	0.173	-0.234
-646.755	-200.000	0.025	-0.213
-645.741	49.318	0.231	-0.219
-644.726	-147.518	-0.176	-0.015
-643.711	-200.000	0.028	-0.145
-642.697	-2.810	0.164	0.115
-641.682	-149.744	-0.269	0.021
-640.668	35.480	0.119	0.105
-639.653	202.103	0.084	0.130
-638.638	23.633	-0.179	0.148
-637.624	-134.002	-0.205	-0.025
-636.609	41.745	-0.171	0.156
-635.595	-200.000	-0.041	-0.296
-634.580	60.023	-0.191	0.190
-633.565	128.231	-0.167	0.214
-632.551	8.693	-0.197	0.150
-631.536	-176.374	0.061	-0.002
-630.522	-200.000	0.011	-0.240
-629.507	93.295	0.069	0.078
-628.492	106.797	-0.219	0.262
-627.478	-10.945	0.186	0.124
-626.463	548.767	-0.145	-0.350
-625.449	177.345	0.126	-0.184
-624.434	800.000	-0.101	-0.289
-623.419	-200.000	0.004	-0.095
-622.405	378.814	-0.115	-0.237
-621.390	-135.980	-0.192	-0.023
-620.376	-82.004	-0.179	0.059
-619.361	-46.323	0.212	-0.105
-618.346	85.875	-0.202	-0.224
-617.332	510.778	-0.069	0.160
-616.317	-200.000	0.020	-0.193
-615.303	42.789	-0.107	-0.098
-614.288	-200.000	-0.004	0.294
-613.273	800.000	0.078	-0.220
-612.259	50.366	0.306	-0.291
-611.244	223.640	-0.068	0.110
-610.230	-118.580	0.414	0.074
-609.215	-106.295	-0.274	-0.062
-608.201	-158.846	0.273	-0.016
-607.186	213.318	0.044	-0.070
-606.171	-116.439	0.292	-0.054
-605.157	218.791	-0.138	0.221
-604.142	141.643	0.239	0.319
-603.128	312.272	0.112	-0.211
-602.113	-200.000	-0.017	-0.125
-601.098	-168.609	-0.273	0.010
-600.084	-127.568	0.186	-0.027
-599.069	-91.792	-0.199	-0.057
-598.055	-58.578	0.331	-0.144
-597.040	24.294	-0.131	-0.109
-596.025	800.000	0.117	-0.331
-595.011	107.099	0.201	-0.240
-593.996	800.000	-0.085	-0.315
-592.982	-136.953	0.206	0.024
-591.967	360.129	-0.079	0.159
-590.952	-55.738	0.207	0.093
-589.938	-200.000	-0.041	-0.331
-588.923	-138.024	-0.234	0.026
-587.909	-200.000	-0.044	-0.343
-586.894	-11.624	0.127	-0.084
-585.879	179.176	0.098	0.144
-584.865	-131.221	0.200	0.027
-583.850	-12.900	0.186	-0.122
-582.836	-106.990	-0.281	-0.062
-581.821	800.000	-0.093	0.361
-580.806	-63.198	-0.400	0.166
-579.792	49.950	0.043	0.041
-578.777	800.000	0.015	0.045
-577.763	-74.914	0.438	-0.158
-576.748	458.945	0.081	0.182
-575.733	800.000	0.071	0.290
-574.719	-164.529	0.256	-0.012
-573.704	800.000	0.075	-0.287
-572.690	-16.247	-0.154	-0.098
-571.675	-100.235	0.168	0.042
-570.661	4.039	-0.088	-0.064
-569.646	800.000	0.029	-0.080
-568.631	-200.000	0.006	-0.138
-567.617	-127.296	0.298	0.044
-566.602	-17.780	-0.273	0.172
-565.588	800.000	0.059	-0.239
-564.573	314.175	-0.124	-0.235
-563.558	-83.199	-0.171	0.055
-562.544	-138.313	0.258	-0.029
-561.529	-150.381	-0.322	-0.025
-560.515	-24.152	0.600	0.359
-559.500	162.934	0.155	-0.218
-558.485	21.542	0.094	-0.076
-557.471	-200.000	0.005	0.164
-556.456	-139.420	0.191	0.021
-555.442	137.410	0.134	-0.176
-554.427	-136.801	-0.166	-0.019
-553.412	-194.200	0.392	0.003
-552.398	-8.319	-0.294	0.199
-551.383	-200.000	-0.085	-0.427
-550.369	-53.500	-0.161	-0.074
-549.354	-81.026	0.181	-0.060
-548.339	-162.629	-0.125	0.006
-547.325	-5.440	0.100	0.069
-546.310	119.142	0.158	0.195
-545.296	157.345	0.203	-0.281
-544.281	117.821	-0.091	0.112
-543.266	7.278	-0.176	-0.132
-542.252	-200.000	-0.019	-0.124
-541.237	800.000	0.016	0.061
-540.223	257.943	0.172	0.297
-539.208	283.397	-0.101	0.182
-538.193	-86.409	-0.363	0.112
-537.179	252.618	0.054	-0.092
-536.164	-179.739	0.053	-0.001
-535.150	168.023	0.134	0.192
-534.135	89.116	-0.077	0.086
-533.121	800.000	0.114	-0.402
-532.106	30.101	-0.024	-0.021
-531.091	153.073	-0.241	-0.331
-530.077	800.000	-0.121	-0.504
-529.062	-200.000	0.004	-0.024
-528.048	800.000	0.080	-0.241
-527.033	-58.960	-0.243	0.105
-526.018	-113.285	0.187	0.037
-525.004	111.707	-0.145	0.176
-523.989	800.000	0.026	0.095
-522.975	69.710	0.044	0.045
-521.960	-177.838	0.195	-0.005
-520.945	320.988	0.086	-0.164
-519.931	-200.000	0.014	-0.203
-518.916	-0.721	0.069	0.049
-517.902	65.858	-0.186	-0.189
-516.887	231.352	0.058	-0.095
-515.872	-200.000	-0.005	-0.104
-514.858	-200.000	-0.006	0.098
-513.843	-200.000	0.042	-0.322
-512.829	603.264	0.107	-0.267
-511.814	32.359	0.123	0.107
-510.799	183.202	-0.219	0.324
-509.785	-200.000	0.038	-0.339
-508.770	-73.092	-0.270	-0.099
-507.756	82.219	0.303	-0.329
-506.741	170.959	0.194	-0.278
-505.726	-70.585	0.149	-0.056
-504.712	181.008	-0.016	-0.023
-503.697	197.261	0.162	0.247
-502.683	-200.000	0.014	-0.158
-501.668	90.741	-0.207	-0.232
-500.653	800.000	-0.054	-0.204
-499.639	800.000	-0.013	0.044
-498.624	44.116	-0.106	-0.097
-497.610	800.000	-0.108	0.381
-496.595	-99.071	0.110	0.028
-495.581	-144.155	-0.295	-0.028
-494.566	44.269	0.176	-0.161
-493.551	50.742	0.165	0.156
-492.537	-96.492	-0.221	-0.058
-491.522	800.000	0.090	-0.289
-490.508	-67.044	-0.185	-0.073
-489.493	39.045	-0.214	0.191
-488.478	-86.219	0.098	-0.030
-487.464	-154.597	-0.453	0.030
-486.449	50.901	-0.139	-0.131
-485.435	-200.000	0.018	0.169
-484.420	-45.150	-0.184	0.091
-483.405	-200.000	0.046	-0.281
-482.391	800.000	0.036	0.128
-481.376	-26.589	0.228	-0.133
-480.362	-54.384	0.177	0.080
-479.347	559.205	0.092	0.223
-478.332	90.242	0.236	0.264
-477.318	-200.000	-0.024	-0.167
-476.303	510.427	0.038	-0.089
-475.289	-200.000	-0.029	0.248
-474.274	-59.327	-0.161	-0.069
-473.259	35.280	-0.062	-0.055
-472.245	143.923	-0.044	0.059
-471.230	176.070	-0.024	-0.035
-470.216	-140.681	-0.458	0.047
-469.201	800.000	-0.052	0.151
-468.186	800.000	0.079	0.239
-467.172	-200.000	0.019	0.148
-466.157	161.111	0.109	0.152
-465.143	144.523	0.165	0.220
-464.128	-31.457	-0.174	0.098
-463.113	120.054	0.212	-0.263
-462.099	367.099	-0.174	-0.351
-461.084	-200.000	-0.029	-0.166
-460.070	386.863	-0.059	0.121
-459.055	-108.128	0.038	0.008
-458.040	-29.225	0.041	0.024
-457.026	800.000	-0.076	-0.241
-456.011	-127.737	0.322	-0.046
-454.997	1.810	0.153	0.110
-453.982	335.512	0.152	0.295
-452.968	45.552	0.246	0.227
-451.953	-122.654	0.278	-0.045
-450.938	-79.623	0.140	-0.047
-449.924	-101.181	-0.141	-0.034
-448.909	-200.000	-0.014	0.122
-447.895	-173.769	-0.268	0.008
-446.880	44.571	-0.252	0.231
-445.865	-200.000	0.003	0.260
-444.851	20.448	-0.178	0.144
-443.836	-200.000	0.012	-0.207
-442.822	-8.240	-0.055	-0.037
-441.807	-17.871	-0.156	0.098
-440.792	-128.162	0.334	0.048
-439.778	331.557	-0.231	0.445
-438.763	-200.000	0.035	0.156
-437.749	741.772	-0.056	0.151
-436.734	-144.111	-0.119	-0.011
-435.719	-200.000	-0.015	0.115
-434.705	-79.688	-0.324	0.109
-433.690	218.094	0.063	0.101
-432.676	800.000	0.069	0.209
-431.661	-200.000	-0.028	0.372
-430.646	-200.000	-0.032	-0.242
-429.632	-23.208	0.280	-0.168
-428.617	227.386	-0.169	0.274
-427.603	97.890	-0.198	0.228
-426.588	-95.303	0.480	0.129
-425.573	800.000	-0.014	0.053
-424.559	-200.000	-0.008	0.172
-423.544	392.032	-0.148	0.307
-422.530	-173.664	0.307	-0.009
-421.515	176.640	0.165	0.240
-420.500	-41.650	0.269	-0.138
-419.486	11.548	-0.168	0.129
-418.471	-139.302	-0.261	-0.028
-417.457	205.748	0.093	0.145
-416.442	-200.000	-0.063	-0.372
-415.428	-8.638	-0.095	0.064
-414.413	-27.525	-0.121	0.070
-413.398	123.335	-0.041	0.052
-412.384	242.789	-0.093	0.156
-411.369	35.968	0.325	0.285
-410.355	800.000	0.082	-0.273
-409.340	309.557	-0.069	0.128
-408.325	-103.888	0.166	-0.039
-407.311	800.000	0.037	0.140
-406.296	198.917	0.086	0.132
-405.282	800.000	0.103	-0.309
-404.267	-10.390	0.170	0.112
-403.252	122.261	0.179	-0.223
-402.238	23.092	0.188	-0.154
-401.223	-90.818	0.314	0.090
-400.209	-35.199	-0.141	0.077
-399.194	216.504	-0.141	0.223
-398.179	800.000	0.050	-0.212
-397.165	-200.000	-0.047	-0.226
-396.150	445.425	-0.112	0.245
-395.136	-200.000	0.048	-0.304
-394.121	-200.000	0.075	0.349
-393.106	-129.448	-0.321	-0.044
-392.092	-200.000	0.028	-0.442
-391.077	665.526	0.127	-0.328
-390.063	97.456	0.173	-0.198
-389.048	97.883	-0.031	0.036
-388.033	129.113	-0.098	0.125
-387.019	55.598	-0.100	0.096
-386.004	800.000	-0.022	0.086
-384.990	336.603	-0.097	-0.188
-383.975	431.739	-0.047	-0.101
-382.960	-166.154	-0.290	-0.012
-381.946	121.769	0.130	0.161
-380.931	800.000	0.035	-0.153
-379.917	-103.925	-0.280	-0.065
-378.902	-51.041	-0.304	-0.142
-377.888	300.914	0.201	0.369
-376.873	143.519	-0.163	0.216
-375.858	590.341	-0.131	-0.322
-374.844	-24.813	0.025	-0.015
-373.829	-27.711	0.233	-0.135
-372.815	270.817	-0.075	0.131
-371.800	382.355	0.079	0.163
-370.785	454.013	-0.083	-0.184
-369.771	-184.868	-0.363	-0.006
-368.756	-200.000	0.009	0.191
-367.742	-71.817	-0.190	-0.071
-366.727	294.383	-0.137	-0.250
-365.712	266.130	0.181	-0.314
-364.698	-200.000	-0.002	-0.171
-363.683	410.363	0.088	-0.185
-362.669	-80.070	0.173	0.058
-361.654	800.000	0.085	0.309
-360.639	-200.000	-0.054	0.331
-359.625	-41.435	-0.122	0.062
-358.610	800.000	-0.056	0.214
-357.596	-82.449	-0.434	-0.140
-356.581	243.051	0.190	0.316
-355.566	-200.000	0.034	0.371
-354.552	50.639	-0.060	-0.057
-353.537	-200.000	0.045	0.313
-352.523	50.350	0.086	0.081
-351.508	99.529	0.087	0.100
-350.493	691.306	0.084	0.219
-349.479	-200.000	-0.013	-0.413
-348.464	704.537	0.082	-0.214
-347.450	137.077	0.032	0.042
-346.435	-200.000	0.036	0.442
-345.420	100.918	-0.335	-0.388
-344.406	-200.000	0.028	0.454
-343.391	-15.322	-0.212	-0.135
-342.377	223.883	0.030	0.047
-341.362	319.820	0.010	0.020
-340.348	-2.919	-0.111	0.077
-339.333	143.871	-0.144	0.190
-338.318	73.164	-0.095	0.099
-337.304	-116.979	0.164	0.030
-336.289	-16.579	-0.117	-0.074
-335.275	200.297	-0.122	0.187
-334.260	47.240	0.053	-0.049
-333.245	800.000	0.049	0.146
-332.231	717.850	0.083	-0.220
-331.216	-56.119	0.174	0.077
-330.202	-151.988	-0.025	-0.002
-329.187	-126.859	-0.408	0.060
-328.172	-100.722	-0.319	-0.078
-327.158	161.770	-0.070	-0.097
-326.143	-92.994	-0.205	0.057
-325.129	188.028	0.178	-0.264
-324.114	-40.223	0.294	-0.152
-323.099	-200.000	-0.003	-0.086
-322.085	-85.408	-0.468	0.145
-321.070	-178.939	-0.313	0.007
-320.056	370.406	0.090	0.181
-319.041	-200.000	-0.059	0.351
-318.026	-119.043	0.228	0.040
-317.012	227.753	0.232	-0.375
-315.997	-86.806	0.267	-0.081
-314.983	-29.181	-0.147	-0.084
-313.968	-46.182	-0.287	-0.140
-312.953	-41.392	-0.098	0.050
-311.939	78.058	-0.150	-0.159
-310.924	-38.494	0.260	-0.137
-309.910	14.772	-0.076	-0.059
-308.895	11.284	-0.142	0.108
-307.880	-159.680	-0.209	-0.011
-306.866	7.347	0.123	-0.091
-305.851	8.140	0.215	0.161
-304.837	694.318	-0.099	-0.257
-303.822	-153.735	-0.164	-0.011
-302.807	-200.000	0.050	-0.414
-301.793	-123.384	-0.074	-0.012
-300.778	-43.866	0.268	0.134
-299.764	393.206	0.111	0.229
-298.749	310.893	0.117	-0.217
-297.735	-39.515	0.271	-0.141
-296.720	-9.980	-0.106	-0.070
-295.705	6.121	0.185	0.136
-294.691	60.826	0.261	-0.257
-293.676	20.930	-0.190	0.153
-292.662	634.953	-0.118	0.298
-291.647	14.450	0.337	0.261
-290.632	50.898	0.185	-0.174
-289.618	46.122	0.102	-0.094
-288.603	62.349	0.055	0.054
-287.589	120.006	0.156	0.192
-286.574	194.409	-0.035	-0.052
-285.559	156.068	-0.165	0.226
-284.545	676.333	0.144	-0.370
-283.530	-67.934	0.336	-0.130
-282.516	-86.581	0.180	0.055
-281.501	-200.000	0.005	-0.057
-280.486	-159.649	0.082	0.005
-279.472	-80.256	-0.363	0.121
-278.457	-132.998	0.123	0.015
-277.443	-8.955	-0.171	0.113
-276.428	-107.375	0.176	0.038
-275.413	232.128	-0.173	0.281
-274.399	212.375	-0.118	-0.185
-273.384	151.427	0.082	0.110
-272.370	-162.115	0.493	0.025
-271.355	-78.526	0.079	0.027
-270.340	63.573	0.079	0.079
-269.326	800.000	-0.039	0.134
-268.311	-17.242	-0.207	-0.129
-267.297	85.413	-0.034	-0.037
-266.282	463.966	-0.095	-0.211
-265.267	-200.000	-0.016	-0.181
-264.253	-180.443	0.135	-0.003
-263.238	-102.532	-0.428	0.101
-262.224	800.000	0.060	-0.197
-261.209	800.000	-0.080	-0.266
-260.195	-136.099	0.269	-0.031
-259.180	-200.000	-0.013	0.131
-258.165	202.947	-0.108	0.166
-257.151	-135.899	-0.055	0.006
-256.136	-152.889	0.064	0.005
-255.122	307.266	-0.079	-0.147
-254.107	-200.000	-0.034	0.395
-253.092	-52.917	0.354	-0.162
-252.078	245.212	0.161	0.269
-251.063	52.802	-0.152	0.144
-250.049	-200.000	0.021	0.217
-249.034	206.051	-0.104	-0.161
-248.019	-57.604	0.273	-0.119
-247.005	-5.568	-0.194	-0.132
-245.990	-111.917	-0.298	0.060
-244.976	-114.204	0.244	0.047
-243.961	46.320	-0.333	-0.306
-242.946	-134.369	-0.372	-0.045
-241.932	-200.000	0.050	0.292
-240.917	800.000	0.033	0.127
-239.903	12.366	-0.172	-0.131
-238.888	-121.120	0.459	-0.076
-237.873	-53.709	0.103	0.047
-236.859	-86.382	-0.162	0.049
-235.844	232.866	0.139	0.226
-234.830	212.869	-0.302	0.472
-233.815	-102.354	0.230	0.055
-232.800	-92.888	0.159	0.044
-231.786	672.487	-0.017	-0.044
-230.771	551.584	-0.084	-0.200
-229.757	-143.993	-0.238	0.022
-228.742	-200.000	-0.009	0.066
-227.727	-35.915	-0.210	0.113
-226.713	-104.156	-0.249	-0.057
-225.698	206.502	-0.063	0.097
-224.684	800.000	0.093	0.322
-223.669	-11.178	-0.123	-0.080
-222.655	-84.136	0.103	-0.032
-221.640	47.281	-0.140	-0.129
-220.625	41.258	0.069	-0.062
-219.611	800.000	0.056	0.169
-218.596	-88.720	-0.210	-0.062
-217.582	-2.464	0.106	0.074
-216.567	-40.262	0.251	-0.129
-215.552	-167.660	-0.183	0.007
-214.538	-67.699	0.441	-0.171
-213.523	-200.000	-0.022	0.146
-212.509	651.626	-0.076	-0.194
-211.494	99.163	0.065	-0.075
-210.479	800.000	0.058	-0.250
-209.465	-200.000	0.041	0.369
-208.450	-100.518	-0.139	0.034
-207.436	800.000	-0.055	0.158
-206.421	-40.459	0.150	0.077
-205.406	430.913	-0.145	0.312
-204.392	-16.717	-0.031	0.019
-203.377	-39.235	-0.019	-0.010
-202.363	27.439	0.120	0.100
-201.348	45.305	-0.234	0.214
-200.333	-30.561	-0.198	0.111
-199.319	288.512	-0.160	0.286
-198.304	28.561	-0.203	0.170
-197.290	15.474	0.108	0.084
-196.275	800.000	0.085	0.296
-195.260	800.000	-0.102	0.292
-194.246	749.988	0.030	0.079
-193.231	-200.000	0.002	0.088
-192.217	-200.000	0.004	0.084
-191.202	800.000	-0.036	-0.130
-190.187	95.292	-0.216	-0.243
-189.173	-33.675	0.250	0.136
-188.158	-66.388	0.192	0.076
-187.144	142.093	-0.066	0.087
-186.129	157.715	-0.109	-0.149
-185.114	29.376	-0.342	0.287
-184.100	159.165	0.118	-0.162
-183.085	-200.000	-0.008	-0.086
-182.071	-131.654	-0.092	-0.012
-181.056	14.264	0.069	0.054
-180.042	-157.952	0.108	-0.006
-179.027	107.855	0.212	-0.249
-178.012	-60.727	0.199	-0.083
-176.998	187.944	-0.190	-0.281
-175.983	-131.610	-0.160	-0.021
-174.969	197.525	0.180	-0.271
-173.954	259.034	0.181	-0.308
-172.939	-18.993	-0.260	-0.160
-171.925	-200.000	0.064	-0.313
-170.910	307.499	0.157	0.289
-169.896	800.000	0.018	-0.074
-168.881	383.398	0.180	0.365
-167.866	131.631	-0.207	-0.263
-166.852	-81.980	-0.220	-0.071
-165.837	-160.875	-0.144	0.008
-164.823	-200.000	-0.012	-0.058
-163.808	-27.021	0.254	-0.147
-162.793	-149.494	0.016	-0.001
-161.779	378.931	-0.110	-0.223
-160.764	116.320	-0.121	0.147
-159.750	-37.939	-0.168	0.088
-158.735	77.651	-0.101	-0.107
-157.720	171.167	0.125	0.177
-156.706	-93.949	0.307	0.083
-155.691	133.110	0.186	0.238
-154.677	584.287	-0.039	-0.096
-153.662	59.908	0.213	-0.208
-152.647	278.177	0.080	-0.140
-151.633	-33.929	-0.053	0.029
-150.618	409.881	0.086	-0.180
-149.604	68.978	0.149	-0.152
-148.589	33.786	0.106	-0.091
-147.574	455.549	-0.070	0.152
-146.560	-200.000	-0.003	-0.074
-145.545	-111.037	0.160	0.032
-144.531	-110.243	0.090	0.018
-143.516	-200.000	-0.044	0.301
-142.502	-100.897	-0.240	0.058
-141.487	4.385	0.245	0.177
-140.472	-5.529	0.075	0.051
-139.458	336.653	-0.143	-0.275
-138.443	-61.298	0.226	0.094
-137.429	-200.000	-0.049	0.274
-136.414	800.000	0.090	0.342
-135.399	-200.000	-0.009	-0.137
-134.385	-200.000	-0.006	-0.149
-133.370	-63.977	0.083	0.034
-132.356	-200.000	-0.036	-0.163
-131.341	-21.162	0.216	-0.130
-130.326	-119.682	-0.236	0.040
-129.312	800.000	-0.060	0.189
-128.297	-200.000	-0.003	0.214
-127.283	-82.785	-0.133	-0.042
-126.268	-130.200	0.291	0.039
-125.253	101.525	-0.120	0.138
-124.239	-20.775	-0.350	0.212
-123.224	-200.000	-0.042	0.227
-122.210	214.813	-0.135	-0.210
-121.195	-4.324	0.239	-0.163
-120.180	-82.222	0.187	0.060
-119.166	-55.435	-0.202	-0.089
-118.151	-200.000	-0.016	0.074
-117.137	-110.920	-0.147	0.030
-116.122	-1.492	0.288	-0.200
-115.107	-200.000	0.156	-0.680
-114.093	-75.118	-0.184	-0.065
-113.078	-200.000	0.012	0.101
-112.064	44.464	0.271	0.245
-111.049	-114.382	-0.323	-0.061
-110.034	707.574	0.118	0.307
-109.020	109.592	0.074	0.088
-108.005	-23.565	0.103	-0.061
-106.991	-137.559	-0.180	-0.020
-105.976	175.127	0.100	-0.143
-104.962	156.380	-0.131	0.178
-103.947	153.574	0.103	0.140
-102.932	-105.117	-0.383	0.086
-101.918	-200.000	0.005	0.238
-100.903	630.082	0.118	0.294
-99.889	-30.591	0.232	-0.129
-98.874	66.288	0.281	-0.281
-97.859	800.000	-0.112	-0.353
-96.845	405.704	0.126	0.262
-95.830	798.973	-0.066	0.178
-94.816	473.877	0.030	-0.068
-93.801	-114.666	0.088	0.017
-92.786	-49.044	0.152	-0.072
-91.772	-200.000	-0.013	0.077
-90.757	35.718	-0.080	0.069
-89.743	8.002	0.061	-0.045
-88.728	232.196	0.235	0.380
-87.713	-96.699	-0.270	0.070
-86.699	-200.000	-0.000	0.192
-85.684	66.784	0.044	0.044
-84.670	800.000	-0.068	-0.207
-83.655	-102.522	-0.232	-0.055
-82.640	-200.000	-0.058	0.362
-81.626	-46.878	-0.120	-0.058
-80.611	-129.757	0.426	-0.058
-79.597	-200.000	-0.026	-0.262
-78.582	800.000	0.118	0.393
-77.567	-200.000	-0.028	0.169
-76.553	-139.297	0.144	0.015
-75.538	98.752	0.176	-0.200
-74.524	-200.000	0.018	-0.425
-73.509	-200.000	0.029	0.216
-72.494	-138.215	0.228	-0.025
-71.480	-82.280	0.129	0.041
-70.465	-200.000	0.021	-0.419
-69.451	-132.599	-0.147	0.019
-68.436	24.811	-0.124	-0.102
-67.422	17.016	0.118	-0.092
-66.407	154.110	-0.162	0.218
-65.392	189.922	0.093	0.137
-64.378	524.855	0.060	0.139
-63.363	-88.243	0.191	-0.056
-62.349	-135.126	-0.171	0.020
-61.334	206.762	-0.546	-0.838
-60.319	76.638	0.628	0.656
-59.305	800.000	-0.306	-0.861
-58.290	800.000	0.435	1.318
-57.276	800.000	0.463	1.779
-56.261	-200.000	96.040	596.269
-55.246	568.040	1364.021	3259.118
-54.232	162.901	2539.274	3507.051
-53.217	113.751	2134.313	2550.879
-52.203	43.896	1599.284	1440.837
-51.188	35.530	1337.604	1154.986
-50.173	32.397	1296.015	1100.741
-49.159	54.334	1343.317	1271.984
-48.144	56.727	1360.309	1302.255
-47.130	35.684	1318.885	1139.554
-46.115	32.288	1301.965	1104.976
-45.100	32.066	1296.428	1098.936
-44.086	32.005	1293.816	1096.317
-43.071	31.910	1291.941	1094.135
-42.057	31.909	1289.402	1091.933
-41.042	31.912	1288.240	1090.924
-40.027	31.940	1286.098	1089.230
-39.013	31.985	1284.417	1088.022
-37.998	32.090	1282.281	1086.781
-36.984	32.045	1281.092	1085.465
-35.969	31.981	1279.756	1083.924
-34.954	32.068	1277.464	1082.439
-33.940	32.131	1276.185	1081.675
-32.925	32.105	1274.931	1080.422
-31.911	32.200	1273.051	1079.331
-30.896	32.176	1271.906	1078.179
-29.881	32.074	1270.937	1076.731
-28.867	32.195	1269.299	1075.991
-27.852	32.280	1267.329	1074.764
-26.838	32.317	1266.069	1073.868
-25.823	32.213	1264.989	1072.312
-24.809	32.157	1263.666	1070.828
-23.794	32.107	1262.790	1069.764
-22.779	32.144	1261.025	1068.435
-21.765	32.102	1260.220	1067.471
-20.750	32.142	1258.584	1066.271
-19.736	32.012	1257.313	1064.411
-18.721	31.954	1256.154	1063.062
-17.706	32.022	1255.027	1062.450
-16.692	32.187	1253.527	1062.069
-15.677	32.149	1252.292	1060.769
-14.663	31.958	1251.920	1059.334
-13.648	31.996	1250.500	1058.301
-12.633	31.981	1249.455	1057.292
-11.619	31.974	1248.516	1056.418
-10.604	31.961	1248.023	1055.886
-9.590	31.985	1246.474	1054.668
-8.575	31.920	1245.868	1053.746
-7.560	31.929	1245.013	1053.033
-6.546	31.934	1244.391	1052.492
-5.531	31.869	1243.520	1051.348
-4.517	31.895	1242.368	1050.480
-3.502	31.973	1241.537	1050.174
-2.487	32.076	1240.620	1049.930
-1.473	31.998	1236.291	1045.790
-0.458	30.444	1221.960	1025.058
0.556	27.867	1204.850	989.679
1.571	24.869	1210.991	978.276
2.586	24.272	1226.168	987.145
3.600	23.827	1215.900	976.349
4.615	17.696	1142.815	885.821
5.629	7.207	1066.311	775.345
6.644	2.499	1045.170	737.275
7.659	2.084	1042.706	733.481
8.673	2.100	1041.785	732.843
9.688	1.988	1039.943	730.948
10.702	2.622	1038.691	733.037
11.717	9.363	1048.995	772.716
12.731	19.566	1062.914	832.328
13.746	24.479	1068.861	860.660
14.761	25.261	1070.321	865.536
15.775	25.499	1069.522	865.956
16.790	25.324	1068.165	863.942
17.804	25.220	1068.398	863.552
18.819	25.347	1067.759	863.569
19.834	25.534	1067.093	863.856
20.848	25.445	1066.860	863.163
21.863	25.447	1066.493	862.798
22.877	25.245	1065.925	861.294
23.892	25.404	1065.017	861.245
24.907	25.330	1064.677	860.537
25.921	25.424	1062.847	859.434
26.936	25.362	1061.925	858.314
27.950	25.307	1060.111	856.513
28.965	25.076	1058.706	854.199
29.980	25.219	1057.142	853.543
30.994	25.553	1055.826	853.993
32.009	25.531	1055.436	853.498
33.023	25.457	1053.548	851.545
34.038	25.387	1053.130	850.796
35.053	25.420	1052.684	850.519
36.067	25.445	1051.934	849.957
37.082	25.429	1051.440	849.404
38.096	25.636	1050.555	849.593
39.111	25.819	1049.680	849.676
40.126	25.429	1048.414	846.736
41.140	25.266	1046.355	844.232
42.155	24.941	1045.534	841.968
43.169	24.964	1044.805	841.415
44.184	25.003	1043.474	840.449
45.199	24.994	1042.534	839.575
46.213	25.032	1041.735	839.038
47.228	25.251	1040.628	839.096
48.242	25.287	1040.192	838.839
49.257	25.460	1039.296	838.846
50.271	25.653	1038.089	838.698
51.286	25.591	1037.284	837.686
52.301	25.539	1036.905	837.064
53.315	25.437	1035.820	835.638
54.330	25.344	1035.267	834.688
55.344	25.464	1034.297	834.389
56.359	25.292	1033.364	832.765
57.374	25.241	1032.528	831.778
58.388	25.044	1031.989	830.360
59.403	25.109	1030.985	829.778
60.417	24.908	1030.280	828.211
61.432	25.117	1029.474	828.452
62.447	25.243	1028.838	828.452
63.461	25.224	1028.044	827.649
64.476	25.223	1027.126	826.831
65.490	25.152	1026.073	825.584
66.505	25.167	1025.597	825.198
67.520	25.203	1025.011	824.818
68.534	24.813	1024.352	822.422
69.549	24.754	1022.838	820.863
70.563	24.726	1021.682	819.737
71.578	24.701	1020.989	818.991
72.593	24.559	1020.020	817.492
73.607	24.638	1019.977	817.750
74.622	24.986	1019.632	818.991
75.636	24.945	1019.296	818.461
76.651	24.885	1017.989	817.065
77.666	24.679	1017.605	815.745
78.680	24.847	1016.920	815.890
79.695	24.973	1016.162	815.784
80.709	25.106	1015.583	815.853
81.724	25.073	1014.752	814.963
82.739	25.087	1014.351	814.633
83.753	25.400	1013.602	815.380
84.768	25.691	1012.794	815.976
85.782	25.824	1012.111	815.956
86.797	25.729	1010.886	814.466
87.812	25.531	1010.301	813.026
88.826	25.706	1008.926	812.640
89.841	25.672	1008.298	811.910
90.855	25.730	1007.657	811.583
91.870	25.573	1006.798	810.111
92.884	25.503	1005.530	808.704
93.899	25.375	1004.664	807.361
94.914	25.629	1003.872	807.795
95.928	25.504	1002.908	806.386
96.943	25.215	1001.836	804.159
97.957	25.034	1000.633	802.309
98.972	24.937	998.985	800.485
99.987	25.171	998.868	801.367
101.001	25.393	997.798	801.427
102.016	25.347	997.430	800.854
103.030	25.309	996.382	799.773
104.045	25.202	995.461	798.487
105.060	25.040	994.327	796.784
106.074	25.152	994.027	796.975
107.089	25.445	993.510	797.789
108.103	25.406	992.259	796.540
109.118	25.102	991.095	794.191
110.133	25.131	990.178	793.514
111.147	24.849	988.969	791.228
112.162	24.879	987.674	790.252
113.176	25.280	987.308	791.660
114.191	25.026	986.824	790.081
115.206	24.653	985.575	787.371
116.220	24.688	984.890	786.908
117.235	24.795	984.139	786.710
118.249	24.817	983.124	785.925
119.264	24.771	982.312	785.004
120.279	24.736	982.027	784.553
121.293	24.792	981.242	784.101
122.308	24.872	980.232	783.573
123.322	24.908	978.678	782.422
124.337	24.693	977.824	780.731
125.352	24.200	976.117	777.148
126.366	24.260	974.941	776.405
127.381	24.802	975.509	779.151
128.395	25.324	975.086	781.016
129.410	25.355	974.153	780.332
130.424	25.301	973.002	779.107
131.439	25.254	972.403	778.355
132.454	25.370	971.120	777.762
133.468	25.250	970.616	776.771
134.483	25.427	969.441	776.525
135.497	25.567	968.889	776.620
136.512	25.576	968.217	776.052
137.527	25.609	967.246	775.347
138.541	25.670	966.489	774.933
139.556	25.551	965.714	773.731
140.570	25.659	965.033	773.584
141.585	25.761	963.705	772.886
142.600	25.648	963.011	771.775
143.614	25.936	962.531	772.558
144.629	25.999	961.849	772.214
145.643	25.728	960.165	769.634
146.658	25.571	958.890	767.872
147.673	25.548	957.900	766.916
148.687	25.280	957.226	765.164
149.702	25.374	955.852	764.400
150.716	25.326	955.176	763.589
151.731	25.470	954.579	763.653
152.746	25.634	953.927	763.759
153.760	25.803	953.373	763.968
154.775	25.852	952.971	763.786
155.789	25.913	951.772	763.014
156.804	25.728	950.974	761.525
157.819	25.819	950.312	761.313
158.833	25.922	949.517	761.042
159.848	25.904	949.071	760.541
160.862	25.694	947.521	758.348
161.877	25.685	946.777	757.646
162.892	25.870	945.336	757.203
163.906	25.691	944.561	755.765
164.921	25.804	943.670	755.459
165.935	25.863	943.059	755.153
166.950	25.845	942.074	754.221
167.964	25.699	941.558	753.130
168.979	25.508	940.364	751.309
169.994	25.578	939.131	750.552
171.008	25.882	938.317	751.100
172.023	25.848	937.806	750.483
173.037	25.588	936.443	748.243
174.052	25.630	935.197	747.357
175.067	25.411	935.647	746.739
176.081	25.546	934.690	746.472
177.096	25.597	933.866	745.960
178.110	25.227	933.314	743.916
179.125	25.189	932.102	742.729
180.140	25.157	931.759	742.255
181.154	25.352	931.830	743.056
182.169	25.639	931.837	744.183
183.183	25.885	931.291	744.695
184.198	25.657	930.430	743.000
185.213	25.697	929.433	742.305
186.227	25.881	928.631	742.357
187.242	25.674	928.583	741.399
188.256	25.953	927.100	741.299
189.271	25.886	926.721	740.653
190.286	25.555	925.622	738.351
191.300	24.886	924.115	734.339
192.315	24.137	922.784	730.147
193.329	24.101	922.380	729.617
194.344	24.994	922.862	733.592
195.359	25.472	923.049	735.632
196.373	25.675	922.405	735.883
197.388	25.646	921.520	734.994
198.402	25.655	920.752	734.354
199.417	25.707	920.031	733.926
200.432	25.405	919.233	731.992
201.446	25.228	918.654	730.745
202.461	25.264	918.228	730.491
203.475	24.497	916.157	725.663
204.490	23.604	915.154	721.174
205.504	24.684	915.215	725.549
206.519	25.223	914.957	727.462
207.534	25.361	914.808	727.840
208.548	25.699	914.686	729.050
209.563	25.553	913.259	727.254
210.577	25.439	913.009	726.529
211.592	25.985	912.403	728.189
212.607	25.940	911.424	727.163
213.621	25.866	911.293	726.696
214.636	25.903	910.274	725.969
215.650	25.810	909.517	724.927
216.665	25.804	909.826	725.085
217.680	25.927	908.725	724.639
218.694	25.269	907.465	720.926
219.709	25.231	906.794	720.176
220.723	25.579	906.253	721.078
221.738	25.516	905.904	720.486
222.753	25.622	905.209	720.292
223.767	25.836	904.674	720.660
224.782	26.031	904.407	721.162
225.796	25.852	903.804	719.904
226.811	25.401	901.889	716.516
227.826	24.700	901.095	713.027
228.840	24.802	900.758	713.103
229.855	24.960	899.847	712.946
230.869	24.471	898.952	710.232
231.884	24.955	899.198	712.289
232.899	25.696	898.991	715.005
233.913	25.678	898.381	714.385
234.928	25.598	897.768	713.518
235.942	25.555	897.328	712.935
236.957	25.082	896.500	710.341
237.972	25.210	895.356	709.878
238.986	25.316	895.214	710.122
240.001	25.170	894.754	709.114
241.015	25.546	893.647	709.661
242.030	25.699	893.496	710.082
243.045	25.673	893.298	709.759
244.059	25.764	892.491	709.411
245.074	25.564	892.172	708.308
246.088	25.354	890.927	706.431
247.103	25.588	890.959	707.317
248.117	26.183	890.761	709.433
249.132	26.482	889.970	709.913
250.147	26.424	890.077	709.708
251.161	26.520	889.446	709.519
252.176	26.506	888.886	708.955
253.190	26.503	888.532	708.600
254.205	26.739	887.922	708.973
255.220	26.661	887.250	708.068
256.234	26.598	886.421	707.099
257.249	26.421	885.951	705.969
258.263	26.494	884.612	705.126
259.278	26.605	884.523	705.424
260.293	26.637	883.533	704.696
261.307	26.449	883.269	703.691
262.322	26.435	882.059	702.611
263.336	25.525	880.118	697.474
264.351	24.515	878.701	692.375
265.366	24.812	878.157	693.039
266.380	25.695	879.270	697.277
267.395	26.092	879.103	698.619
268.409	26.058	878.124	697.647
269.424	26.407	877.530	698.461
270.439	26.435	876.888	697.998
271.453	26.496	876.265	697.677
272.468	26.747	875.883	698.276
273.482	26.671	875.314	697.469
274.497	26.115	874.204	694.383
275.512	25.875	873.109	692.532
276.526	26.225	873.728	694.305
277.541	26.498	873.135	694.822
278.555	26.152	872.601	693.006
279.570	26.032	871.745	691.808
280.585	26.301	871.221	692.360
281.599	26.194	870.157	691.043
282.614	25.596	868.821	687.637
283.628	25.623	868.629	687.528
284.643	25.991	868.416	688.702
285.657	25.539	866.924	685.734
286.672	25.171	866.526	683.956
287.687	25.946	866.266	686.643
288.701	25.975	865.865	686.375
289.716	25.482	865.152	683.876
290.730	25.588	864.149	683.425
291.745	25.306	863.398	681.698
292.760	25.718	863.276	683.106
293.774	26.737	863.615	687.179
294.789	27.017	863.400	688.011
295.803	26.970	862.866	687.345
296.818	26.857	862.309	686.411
297.833	26.568	860.836	684.087
298.847	26.358	860.142	682.681
299.862	26.640	860.375	683.872
300.876	26.946	859.956	684.631
301.891	26.876	858.904	683.471
302.906	26.460	857.926	681.066
303.920	26.391	858.287	681.034
304.935	26.833	858.410	682.733
305.949	26.861	857.194	681.812
306.964	26.670	856.121	680.183
307.979	26.849	855.238	680.090
308.993	27.063	855.415	680.976
310.008	26.882	855.396	680.221
311.022	26.754	854.317	678.824
312.037	26.584	853.649	677.595
313.052	26.295	852.511	675.551
314.066	25.406	850.843	670.854
315.081	25.092	850.257	669.160
316.095	25.986	850.570	672.683
317.110	26.522	850.553	674.609
318.125	25.576	849.126	669.896
319.139	24.583	847.647	664.976
320.154	24.568	847.132	664.458
321.168	25.546	848.000	668.718
322.183	26.315	847.656	671.243
323.197	26.438	847.341	671.391
324.212	26.663	846.762	671.709
325.227	26.734	846.081	671.372
326.241	26.602	845.481	670.348
327.256	26.403	844.862	669.061
328.270	26.344	844.388	668.410
329.285	26.115	843.561	666.848
330.300	26.114	842.392	665.862
331.314	26.334	842.486	666.689
332.329	26.542	842.611	667.494
333.343	26.636	842.352	667.577
334.358	26.772	841.353	667.227
335.373	26.843	841.523	667.564
336.387	27.092	841.480	668.389
337.402	27.111	841.456	668.378
338.416	26.920	841.052	667.297
339.431	27.383	840.309	668.350
340.446	27.424	839.909	668.124
341.460	27.257	839.634	667.230
342.475	26.861	839.361	665.502
343.489	27.243	838.634	666.266
344.504	27.560	838.471	667.239
345.519	27.543	837.967	666.717
346.533	27.579	837.424	666.358
347.548	27.616	836.894	666.015
348.562	27.606	836.121	665.303
349.577	27.585	835.885	664.981
350.592	27.607	835.203	664.458
351.606	27.408	834.849	663.391
352.621	27.326	833.819	662.217
353.635	27.170	833.086	661.007
354.650	26.534	831.415	657.315
355.665	25.730	830.291	653.451
356.679	26.166	830.043	654.781
357.694	26.424	829.994	655.619
358.708	26.642	828.555	655.215
359.723	26.918	828.603	656.190
360.738	27.203	828.280	656.907
361.752	27.462	827.648	657.283
362.767	27.588	827.707	657.725
363.781	28.001	827.073	658.653
364.796	27.888	827.110	658.216
365.810	27.897	826.899	658.024
366.825	27.788	826.138	656.966
367.840	27.742	825.124	655.938
368.854	27.255	824.487	653.624
369.869	27.252	823.876	653.070
370.883	27.335	823.349	652.892
371.898	27.196	823.547	652.492
372.913	27.278	823.135	652.402
373.927	27.513	822.411	652.612
374.942	27.473	822.236	652.273
375.956	27.709	821.409	652.405
376.971	27.947	821.265	653.084
377.986	27.838	821.221	652.600
379.000	27.786	820.332	651.652
380.015	27.688	819.716	650.755
381.029	27.704	819.370	650.478
382.044	27.916	818.788	650.713
383.059	27.836	818.132	649.851
384.073	27.876	817.785	649.659
385.088	27.887	816.907	648.944
386.102	27.838	816.219	648.166
387.117	27.612	815.549	646.777
388.132	27.220	814.683	644.642
389.146	26.714	813.733	642.039
390.161	27.182	813.818	643.709
391.175	27.637	813.451	644.969
392.190	27.193	812.703	642.752
393.205	25.937	810.079	636.190
394.219	24.361	808.263	629.152
395.234	24.206	808.458	628.704
396.248	25.884	810.238	635.959
397.263	27.451	810.791	641.865
398.278	27.282	810.296	640.822
399.292	27.127	809.743	639.780
400.307	27.074	809.185	639.096
401.321	27.242	808.791	639.318
402.336	27.655	808.804	640.725
403.350	28.086	808.691	642.092
404.365	28.295	808.714	642.787
405.380	28.584	808.254	643.378
406.394	28.704	807.582	643.207
407.409	28.563	806.914	642.127
408.423	28.509	806.888	641.859
409.438	28.641	806.417	641.889
410.453	28.659	805.812	641.415
411.467	28.618	804.832	640.434
412.482	28.728	804.967	640.869
413.496	28.646	804.570	640.209
414.511	28.607	804.171	639.698
415.526	28.642	803.707	639.396
416.540	28.637	802.835	638.628
417.555	28.198	802.461	636.748
418.569	28.324	802.089	636.832
419.584	28.324	801.138	636.022
420.599	27.978	800.629	634.361
421.613	111.697	1286.860	1459.087
422.628	96.383	1357.701	1459.184
