DTS Sentinel unit serial number:	SN413079Multiplexer serial number:	ORYXHardware model number:	OX4-SRSoftware version number:	ORYX F/W v4.00 Oryx Data Collector v3.7.2.0data status	okinstallation	princeton_trtdifferential loss correction	single-endedforward channel	channel 1reverse channel	N/Adate	2019/09/12time	01:00:11forward acquisition time	60.00reverse acquisition time	0.00gamma	496.2192k internal	0.2319k external	0.2319temperature offset calibration	1.0077default loss term (dB/km)	0.3790temperature slope calibration	1.0000multiplexer offset coefficient	1.0000multiplexer slope coefficient	1.0000fibre end	0.00T internal ref (°C)	33.19T ext. ref 1 (°C)	2.07T ext. ref 2 (°C)	27.08length (m)	temperature (°C)	Stokes	anti-Stokes-747.200	-200.000	0.033	-0.187
-746.185	-200.000	-0.083	0.382
-745.171	-60.605	-0.484	0.208
-744.156	-200.000	0.063	0.400
-743.142	-200.000	0.001	-0.030
-742.127	-173.518	-0.167	-0.005
-741.112	-77.949	-0.138	-0.048
-740.098	125.925	0.097	-0.124
-739.083	-78.792	0.194	0.067
-738.069	-164.647	-0.188	0.009
-737.054	716.386	-0.032	-0.087
-736.039	156.957	-0.093	-0.130
-735.025	-200.000	0.013	0.083
-734.010	-200.000	0.007	-0.119
-732.996	-200.000	0.006	-0.085
-731.981	-65.366	-0.188	-0.076
-730.966	-118.392	-0.153	0.027
-729.952	797.726	-0.037	-0.102
-728.937	10.099	-0.261	-0.201
-727.923	-200.000	0.003	-0.098
-726.908	72.857	0.152	0.160
-725.894	-148.879	-0.241	0.020
-724.879	-58.762	-0.206	-0.090
-723.864	-72.351	-0.123	-0.046
-722.850	6.553	0.276	-0.207
-721.835	175.806	-0.125	-0.184
-720.821	-37.876	0.122	0.065
-719.806	-200.000	-0.009	-0.274
-718.791	-200.000	-0.084	-0.395
-717.777	800.000	-0.063	0.230
-716.762	-144.061	-0.292	-0.028
-715.748	178.660	-0.131	-0.193
-714.733	-33.262	-0.111	-0.062
-713.718	-71.996	-0.396	0.149
-712.704	103.126	0.193	-0.228
-711.689	-200.000	-0.038	-0.180
-710.675	418.589	-0.045	0.096
-709.660	60.821	0.141	-0.141
-708.645	182.530	-0.069	-0.103
-707.631	-25.019	-0.248	-0.148
-706.616	186.292	-0.132	-0.199
-705.602	-16.213	-0.079	0.050
-704.587	15.392	0.102	0.081
-703.572	-34.597	-0.072	0.040
-702.558	-43.499	0.232	0.118
-701.543	126.981	0.168	-0.215
-700.529	-74.746	-0.070	0.025
-699.514	-200.000	0.045	-0.468
-698.499	287.653	0.101	0.184
-697.485	-174.463	-0.245	0.007
-696.470	-200.000	0.066	-0.349
-695.456	-151.492	-0.119	0.009
-694.441	732.704	0.116	-0.313
-693.426	94.390	-0.080	0.092
-692.412	-10.843	0.128	0.085
-691.397	403.224	-0.016	0.035
-690.383	-200.000	0.020	-0.216
-689.368	371.026	0.129	-0.265
-688.354	-142.439	-0.210	0.021
-687.339	-132.378	-0.253	-0.033
-686.324	-68.852	-0.189	-0.074
-685.310	-144.357	-0.393	-0.037
-684.295	-175.012	0.176	0.005
-683.281	609.906	-0.055	0.138
-682.266	403.697	-0.238	0.505
-681.251	154.615	-0.263	-0.365
-680.237	251.209	0.055	0.094
-679.222	87.224	0.209	0.234
-678.208	46.635	-0.280	0.262
-677.193	72.873	-0.147	0.155
-676.178	-200.000	-0.044	-0.370
-675.164	-200.000	-0.023	-0.161
-674.149	-122.112	0.097	-0.016
-673.135	69.974	-0.169	-0.176
-672.120	420.773	0.056	-0.122
-671.105	12.278	-0.253	0.197
-670.091	158.802	0.093	-0.130
-669.076	-53.048	-0.230	-0.107
-668.062	-19.666	0.238	0.148
-667.047	-200.000	0.021	-0.250
-666.032	36.829	-0.075	-0.067
-665.018	-200.000	-0.011	-0.073
-664.003	161.394	0.067	-0.095
-662.989	51.698	0.183	-0.175
-661.974	800.000	-0.082	-0.257
-660.959	-77.591	-0.058	0.020
-659.945	-200.000	0.000	-0.093
-658.930	300.825	-0.145	-0.271
-657.916	-119.803	-0.045	0.008
-656.901	-38.096	0.386	0.207
-655.886	-200.000	0.064	-0.551
-654.872	106.354	0.065	0.078
-653.857	130.656	0.025	-0.033
-652.843	123.687	-0.121	-0.153
-651.828	-174.283	-0.149	0.004
-650.814	-133.158	-0.232	-0.030
-649.799	-159.676	-0.183	-0.010
-648.784	-144.664	-0.211	-0.020
-647.770	-200.000	0.000	-0.162
-646.755	16.650	0.245	-0.195
-645.741	-20.936	-0.128	0.079
-644.726	38.779	0.260	0.234
-643.711	800.000	0.050	-0.201
-642.697	-39.657	-0.447	0.236
-641.682	800.000	-0.036	0.153
-640.668	201.463	0.024	0.036
-639.653	-101.339	-0.221	0.054
-638.638	5.417	0.082	-0.061
-637.624	-131.005	0.219	-0.029
-636.609	-59.904	0.177	0.076
-635.595	64.601	-0.132	-0.135
-634.580	-88.896	-0.212	0.063
-633.565	-54.488	-0.323	-0.147
-632.551	-74.602	0.210	0.076
-631.536	248.800	-0.067	-0.115
-630.522	-6.386	-0.299	-0.205
-629.507	784.145	-0.068	0.188
-628.492	-116.409	-0.134	-0.025
-627.478	-200.000	-0.389	-0.000
-626.463	-15.556	0.239	0.154
-625.449	800.000	0.046	0.169
-624.434	-66.268	0.328	0.131
-623.419	-119.163	0.164	0.029
-622.405	125.325	0.076	-0.096
-621.390	424.887	0.179	-0.388
-620.376	-200.000	-0.002	0.044
-619.361	36.552	0.195	0.173
-618.346	382.696	-0.193	-0.400
-617.332	70.877	-0.199	-0.207
-616.317	189.741	-0.101	-0.153
-615.303	-113.970	0.361	0.071
-614.288	-109.990	0.090	-0.019
-613.273	124.320	-0.076	0.096
-612.259	49.746	0.156	-0.148
-611.244	53.638	-0.113	-0.109
-610.230	-127.917	0.248	-0.036
-609.215	633.292	0.043	-0.108
-608.201	800.000	0.018	0.080
-607.186	-6.663	-0.137	-0.094
-606.171	-103.034	-0.245	-0.059
-605.157	-58.500	-0.176	-0.077
-604.142	249.659	0.126	-0.215
-603.128	800.000	-0.007	0.028
-602.113	-92.070	0.137	-0.039
-601.098	-21.316	0.108	0.066
-600.084	800.000	-0.064	-0.181
-599.069	181.377	-0.189	-0.280
-598.055	-40.786	0.388	0.202
-597.040	120.773	0.077	-0.096
-596.025	-153.140	0.200	-0.014
-595.011	497.418	-0.027	-0.062
-593.996	-41.397	0.308	0.159
-592.982	-200.000	-0.008	0.455
-591.967	328.717	-0.053	0.103
-590.952	-200.000	0.007	0.215
-589.938	94.118	0.074	0.085
-588.923	800.000	-0.076	0.315
-587.909	153.022	0.127	-0.174
-586.894	467.362	-0.180	-0.406
-585.879	23.449	0.148	-0.122
-584.865	-86.124	0.238	0.074
-583.850	-99.444	-0.174	0.044
-582.836	-112.947	0.322	-0.064
-581.821	-200.000	0.017	-0.239
-580.806	-95.563	-0.101	-0.027
-579.792	359.349	0.045	0.091
-578.777	-105.475	0.144	-0.033
-577.763	-200.000	-0.029	0.131
-576.748	-200.000	0.006	0.311
-575.733	-78.794	-0.089	-0.030
-574.719	-52.966	0.169	0.078
-573.704	800.000	-0.082	-0.317
-572.690	-200.000	0.024	-0.144
-571.675	-30.739	0.141	-0.080
-570.661	-74.516	-0.199	0.072
-569.646	-143.262	0.079	-0.008
-568.631	800.000	0.059	0.216
-567.617	101.482	-0.158	0.184
-566.602	147.901	-0.122	-0.165
-565.588	-200.000	-0.013	0.157
-564.573	164.235	-0.229	0.325
-563.558	800.000	-0.112	-0.426
-562.544	-45.302	0.282	-0.141
-561.529	800.000	0.046	-0.185
-560.515	-181.102	-0.195	0.004
-559.500	364.646	0.035	0.070
-558.485	-163.954	-0.169	0.008
-557.471	460.836	0.124	0.278
-556.456	800.000	0.078	0.281
-555.442	80.248	-0.089	-0.097
-554.427	-73.259	0.051	-0.019
-553.412	-200.000	-0.071	-0.399
-552.398	72.562	0.082	-0.086
-551.383	-113.195	0.322	0.064
-550.369	98.001	-0.288	0.333
-549.354	-68.556	-0.058	0.022
-548.339	0.626	0.177	-0.127
-547.325	2.759	-0.044	0.032
-546.310	-62.382	0.074	-0.031
-545.296	-200.000	0.014	0.124
-544.281	-200.000	0.018	-0.432
-543.266	800.000	0.025	0.101
-542.252	-200.000	0.020	0.132
-541.237	-44.670	-0.108	-0.054
-540.223	-119.650	-0.112	0.019
-539.208	800.000	0.154	0.634
-538.193	-148.879	0.215	0.017
-537.179	220.549	0.101	-0.162
-536.164	325.178	0.056	0.107
-535.150	268.874	-0.081	0.142
-534.135	89.360	0.243	-0.272
-533.121	-200.000	-0.009	-0.236
-532.106	308.661	-0.070	0.131
-531.091	-40.510	0.135	-0.070
-530.077	-200.000	0.058	-0.321
-529.062	800.000	0.085	0.294
-528.048	121.203	0.092	0.115
-527.033	104.047	0.315	0.371
-526.018	-86.850	0.322	-0.099
-525.004	-119.600	-0.457	-0.079
-523.989	-139.096	-0.176	-0.019
-522.975	-200.000	0.006	0.159
-521.960	297.205	-0.090	0.166
-520.945	-66.422	0.176	-0.070
-519.931	-81.053	-0.234	-0.078
-518.916	-18.756	-0.561	-0.350
-517.902	-64.978	0.174	-0.070
-516.887	466.343	0.053	-0.120
-515.872	-200.000	0.024	-0.168
-514.858	145.185	-0.155	-0.208
-513.843	329.284	0.134	-0.258
-512.829	-41.178	0.133	-0.069
-511.814	-200.000	-0.021	0.274
-510.799	-17.344	0.279	0.176
-509.785	-200.000	0.054	-0.314
-508.770	416.016	0.207	-0.443
-507.756	135.448	-0.254	-0.332
-506.741	-200.000	-0.061	-0.282
-505.726	-195.897	-0.071	0.001
-504.712	800.000	0.046	-0.134
-503.697	-147.449	-0.270	0.023
-502.683	618.937	0.244	-0.615
-501.668	703.234	0.062	0.163
-500.653	-200.000	-0.043	-0.251
-499.639	800.000	0.058	-0.213
-498.624	791.927	0.055	0.151
-497.610	-200.000	0.020	0.284
-496.595	-94.648	0.283	0.077
-495.581	-130.765	-0.086	0.012
-494.566	-106.783	0.205	-0.046
-493.551	344.645	-0.235	0.462
-492.537	-200.000	0.030	-0.225
-491.522	-97.252	-0.304	0.079
-490.508	800.000	0.061	0.240
-489.493	-38.331	0.302	-0.160
-488.478	136.360	-0.191	-0.250
-487.464	-82.214	-0.200	0.065
-486.449	800.000	-0.053	0.187
-485.435	22.243	0.334	-0.273
-484.420	-200.000	-0.032	-0.147
-483.405	57.274	0.123	-0.121
-482.391	-200.000	0.016	0.183
-481.376	17.534	0.013	0.010
-480.362	-87.225	0.263	-0.080
-479.347	58.463	-0.160	-0.158
-478.332	277.663	-0.107	0.190
-477.318	800.000	0.047	0.180
-476.303	38.006	-0.238	0.212
-475.289	-118.331	-0.245	-0.044
-474.274	497.257	-0.165	-0.380
-473.259	800.000	-0.018	-0.078
-472.245	10.260	-0.168	-0.128
-471.230	28.759	-0.147	0.125
-470.216	617.864	-0.038	0.096
-469.201	201.550	-0.248	-0.382
-468.186	800.000	0.099	0.314
-467.172	-191.828	-0.191	-0.002
-466.157	-73.906	-0.225	0.082
-465.143	302.941	0.132	0.244
-464.128	215.791	-0.055	-0.087
-463.113	-74.101	-0.247	0.090
-462.099	800.000	-0.039	-0.144
-461.084	123.548	-0.066	0.082
-460.070	83.105	-0.097	0.106
-459.055	263.002	-0.204	0.354
-458.040	800.000	0.021	-0.061
-457.026	92.690	-0.091	0.102
-456.011	14.124	0.079	0.062
-454.997	-114.086	0.090	-0.017
-453.982	18.219	-0.107	0.085
-452.968	764.016	0.049	0.132
-451.953	-99.920	0.162	-0.041
-450.938	-23.728	-0.213	-0.128
-449.924	191.448	-0.170	0.256
-448.909	-12.209	0.067	0.044
-447.895	-14.235	0.292	-0.189
-446.880	-93.648	0.262	-0.072
-445.865	304.945	-0.076	0.142
-444.851	800.000	-0.017	0.056
-443.836	-15.803	0.025	-0.016
-442.822	-55.003	-0.203	-0.091
-441.807	-69.713	0.261	0.100
-440.792	-200.000	-0.006	0.105
-439.778	-200.000	-0.171	-0.001
-438.763	185.598	0.032	0.048
-437.749	800.000	0.063	-0.195
-436.734	-200.000	0.025	-0.215
-435.719	418.385	-0.104	0.221
-434.705	43.806	0.379	-0.347
-433.690	800.000	0.023	0.092
-432.676	-200.000	-0.014	0.135
-431.661	155.932	0.164	0.226
-430.646	-168.658	-0.315	0.012
-429.632	-8.920	-0.111	-0.074
-428.617	-64.216	0.164	0.067
-427.603	-50.266	-0.127	0.060
-426.588	-200.000	-0.015	-0.257
-425.573	-200.000	-0.030	0.225
-424.559	-116.182	0.040	-0.007
-423.544	-132.866	0.017	-0.002
-422.530	139.578	-0.354	0.466
-421.515	101.220	-0.180	-0.209
-420.500	5.023	0.050	0.037
-419.486	225.878	0.115	0.187
-418.471	90.951	0.218	-0.244
-417.457	-42.248	-0.323	-0.165
-416.442	400.919	0.027	-0.057
-415.428	-200.000	-0.020	0.129
-414.413	800.000	-0.087	-0.352
-413.398	-59.057	-0.083	-0.036
-412.384	-109.068	-0.330	-0.070
-411.369	114.210	-0.032	0.039
-410.355	-200.000	-0.013	-0.114
-409.340	-200.000	-0.025	-0.491
-408.325	800.000	0.045	-0.180
-407.311	-129.854	-0.302	0.041
-406.296	-30.699	0.259	0.147
-405.282	77.838	0.109	-0.115
-404.267	-200.000	-0.028	-0.273
-403.252	-95.915	0.253	-0.067
-402.238	21.811	0.242	-0.196
-401.223	236.596	-0.085	0.140
-400.209	-78.998	0.350	0.119
-399.194	-149.281	-0.093	0.007
-398.179	770.641	0.090	0.245
-397.165	-200.000	0.014	-0.091
-396.150	-119.776	-0.238	0.041
-395.136	-200.000	-0.046	-0.239
-394.121	201.958	-0.095	-0.146
-393.106	-138.493	-0.071	-0.008
-392.092	-192.446	0.181	0.002
-391.077	3.725	0.286	0.208
-390.063	394.900	0.083	-0.172
-389.048	-31.374	-0.057	0.032
-388.033	-127.588	0.187	0.027
-387.019	378.726	-0.123	0.251
-386.004	295.650	0.109	-0.199
-384.990	-200.000	0.027	0.188
-383.975	8.986	-0.050	0.038
-382.960	-93.622	0.144	-0.040
-381.946	-129.427	0.157	-0.022
-380.931	-200.000	-0.032	0.182
-379.917	-153.909	-0.128	-0.009
-378.902	800.000	0.099	-0.322
-377.888	800.000	-0.070	-0.278
-376.873	-57.317	-0.296	-0.130
-375.858	-18.970	0.323	-0.200
-374.844	-92.974	0.069	-0.019
-373.829	800.000	-0.070	0.257
-372.815	-36.598	-0.301	-0.161
-371.800	800.000	0.042	-0.120
-370.785	33.424	0.043	0.037
-369.771	-59.334	0.181	0.078
-368.756	-72.179	0.189	0.070
-367.742	170.280	0.177	0.253
-366.727	191.926	0.172	0.258
-365.712	-200.000	0.033	0.163
-364.698	283.181	-0.169	0.302
-363.683	-64.071	-0.159	-0.065
-362.669	16.398	-0.257	-0.202
-361.654	-146.192	0.282	0.025
-360.639	44.793	0.036	-0.033
-359.625	-80.133	0.146	0.049
-358.610	81.103	-0.082	0.089
-357.596	-38.590	0.178	0.094
-356.581	-101.798	-0.226	0.054
-355.566	-154.358	-0.176	-0.012
-354.552	48.194	-0.192	0.179
-353.537	-83.465	-0.239	-0.076
-352.523	-122.787	-0.077	0.012
-351.508	7.230	-0.142	0.106
-350.493	-200.000	0.020	0.102
-349.479	-200.000	-0.090	0.467
-348.464	-14.449	-0.139	-0.089
-347.450	492.033	0.047	0.108
-346.435	-122.315	-0.413	-0.067
-345.420	-59.169	0.167	-0.072
-344.406	515.037	-0.109	0.254
-343.391	-46.213	-0.088	0.043
-342.377	-200.000	0.021	0.311
-341.362	-200.000	-0.028	0.440
-340.348	187.313	-0.143	-0.213
-339.333	155.164	0.175	-0.240
-338.318	-152.255	0.231	0.017
-337.304	261.278	-0.075	0.129
-336.289	108.215	0.156	0.185
-335.275	-7.429	-0.251	-0.169
-334.260	-97.134	-0.319	-0.083
-333.245	108.263	0.086	-0.102
-332.231	267.596	0.162	-0.282
-331.216	185.942	0.030	-0.044
-330.202	-200.000	-0.075	-0.521
-329.187	-77.507	-0.148	0.051
-328.172	800.000	0.095	-0.265
-327.158	-97.100	0.317	-0.082
-326.143	-56.287	-0.227	-0.101
-325.129	-68.344	-0.258	-0.100
-324.114	-99.495	-0.068	0.017
-323.099	-102.734	0.336	0.080
-322.085	-10.296	-0.257	0.169
-321.070	24.993	-0.178	-0.147
-320.056	-181.026	-0.172	-0.003
-319.041	125.350	0.177	-0.222
-318.026	167.524	-0.184	0.260
-317.012	-23.678	0.120	-0.071
-315.997	-20.563	-0.233	0.142
-314.983	-97.928	0.292	-0.075
-313.968	189.475	-0.165	-0.245
-312.953	489.361	-0.074	0.169
-311.939	-111.180	0.211	0.043
-310.924	479.382	-0.070	0.158
-309.910	-200.000	-0.028	-0.124
-308.895	-27.340	0.134	0.078
-307.880	-200.000	-0.006	-0.031
-306.866	-200.000	-0.041	0.265
-305.851	-17.082	0.091	-0.057
-304.837	-29.537	-0.051	0.029
-303.822	91.577	0.245	0.274
-302.807	-200.000	0.036	0.194
-301.793	10.367	-0.120	0.091
-300.778	310.773	0.114	-0.212
-299.764	800.000	-0.091	0.253
-298.749	-200.000	-0.017	0.133
-297.735	691.895	0.127	0.331
-296.720	22.338	0.166	-0.135
-295.705	-111.416	0.443	-0.090
-294.691	-200.000	0.007	-0.224
-293.676	800.000	0.074	-0.206
-292.662	-131.254	0.144	-0.019
-291.647	-200.000	0.010	0.065
-290.632	284.413	0.049	0.087
-289.618	800.000	0.073	-0.298
-288.603	131.233	0.098	-0.126
-287.589	21.627	0.285	0.230
-286.574	40.349	-0.258	-0.231
-285.559	-58.682	0.269	0.116
-284.545	-27.602	0.088	-0.051
-283.530	-46.232	-0.192	0.094
-282.516	-56.473	-0.343	0.151
-281.501	-3.180	-0.217	0.150
-280.486	22.485	0.287	0.233
-279.472	-200.000	0.006	0.033
-278.457	-200.000	-0.009	-0.281
-277.443	-94.746	-0.200	-0.054
-276.428	800.000	-0.078	0.316
-275.413	-77.827	-0.080	0.028
-274.399	23.914	-0.147	0.120
-273.384	589.489	0.101	0.247
-272.370	-119.415	-0.081	-0.014
-271.355	-124.449	0.053	0.008
-270.340	271.170	0.131	0.229
-269.326	-200.000	-0.053	0.479
-268.311	-175.661	-0.174	0.005
-267.297	-104.094	-0.124	0.029
-266.282	-16.437	-0.218	0.137
-265.267	800.000	0.036	-0.128
-264.253	348.966	-0.060	-0.118
-263.238	467.001	0.088	0.197
-262.224	-31.540	0.052	0.029
-261.209	-2.246	0.117	-0.082
-260.195	-156.835	0.212	0.013
-259.180	800.000	-0.033	0.121
-258.165	-146.947	0.180	0.015
-257.151	-138.973	0.212	-0.023
-256.136	-200.000	-0.008	-0.153
-255.122	-59.168	0.126	0.054
-254.107	122.415	0.157	0.194
-253.092	80.634	-0.060	0.064
-252.078	-200.000	0.007	-0.125
-251.063	800.000	-0.031	-0.118
-250.049	249.251	-0.118	-0.199
-249.034	-100.300	-0.160	-0.039
-248.019	-200.000	0.001	0.066
-247.005	-52.221	-0.152	0.070
-245.990	490.479	0.076	0.172
-244.976	70.999	0.108	0.111
-243.961	-60.825	0.342	-0.144
-242.946	-200.000	-0.088	0.419
-241.932	199.601	-0.108	-0.165
-240.917	455.293	0.151	-0.333
-239.903	-104.555	-0.168	-0.039
-238.888	272.654	0.062	0.108
-237.873	-8.146	-0.091	-0.061
-236.859	800.000	-0.050	-0.208
-235.844	373.101	-0.048	0.096
-234.830	34.512	-0.100	0.086
-233.815	219.927	-0.021	-0.034
-232.800	-111.098	0.256	-0.052
-231.786	596.332	0.207	0.509
-230.771	800.000	-0.073	0.254
-229.757	329.685	0.059	0.112
-228.742	-200.000	-0.003	0.095
-227.727	-45.089	-0.058	-0.028
-226.713	-105.555	0.366	-0.082
-225.698	-85.577	-0.013	-0.004
-224.684	-122.395	0.292	-0.047
-223.669	100.051	-0.356	0.409
-222.655	-118.595	-0.348	-0.061
-221.640	-136.789	-0.605	-0.069
-220.625	-137.218	0.423	0.048
-219.611	388.409	-0.041	0.085
-218.596	36.636	-0.131	0.114
-217.582	-143.947	0.155	-0.014
-216.567	304.381	-0.071	0.131
-215.552	47.149	-0.340	-0.314
-214.538	-163.525	0.257	-0.012
-213.523	391.152	-0.092	0.189
-212.509	-146.277	-0.251	-0.022
-211.494	240.745	0.055	0.090
-210.479	-200.000	0.003	-0.295
-209.465	132.791	-0.159	-0.204
-208.450	-200.000	0.010	-0.410
-207.436	149.728	-0.254	-0.341
-206.421	800.000	-0.071	-0.263
-205.406	91.288	-0.058	0.064
-204.392	-75.167	-0.234	-0.083
-203.377	-200.000	-0.015	-0.128
-202.363	-200.000	0.041	-0.296
-201.348	-110.529	0.365	0.075
-200.333	154.102	0.112	0.152
-199.319	252.140	0.163	-0.275
-198.304	-200.000	0.030	0.259
-197.290	-113.287	-0.344	-0.067
-196.275	-200.000	0.021	0.105
-195.260	-20.274	0.203	0.124
-194.246	183.841	0.124	-0.181
-193.231	-113.512	0.290	0.056
-192.217	-13.314	0.296	0.190
-191.202	11.159	0.062	0.047
-190.187	-76.613	0.078	-0.027
-189.173	-200.000	0.025	-0.231
-188.158	-105.043	-0.278	0.063
-187.144	31.854	0.157	0.134
-186.129	-141.597	-0.233	0.023
-185.114	-80.808	0.335	-0.110
-184.100	-200.000	-0.067	-0.381
-183.085	-107.444	0.088	-0.019
-182.071	88.166	-0.107	-0.117
-181.056	-53.792	0.111	0.050
-180.042	-50.183	-0.265	0.124
-179.027	110.481	0.165	0.196
-178.012	1.869	-0.232	0.166
-176.998	186.251	-0.121	-0.178
-175.983	-18.707	0.162	0.100
-174.969	311.301	0.018	0.033
-173.954	123.733	0.041	-0.051
-172.939	-182.689	0.352	-0.006
-171.925	-114.807	0.353	-0.067
-170.910	45.413	-0.459	0.419
-169.896	-200.000	0.025	0.135
-168.881	325.050	-0.127	0.241
-167.866	124.352	0.073	-0.091
-166.852	2.198	0.058	0.041
-165.837	33.327	-0.119	0.102
-164.823	-200.000	-0.084	-0.363
-163.808	282.036	0.204	-0.361
-162.793	-188.602	-0.092	-0.001
-161.779	-200.000	0.018	0.242
-160.764	3.429	0.344	0.247
-159.750	79.662	-0.329	0.349
-158.735	800.000	0.052	0.224
-157.720	-78.975	0.161	0.054
-156.706	-200.000	0.033	-0.292
-155.691	63.172	-0.102	-0.101
-154.677	-143.635	-0.279	-0.026
-153.662	-29.816	-0.197	-0.111
-152.647	337.547	0.094	0.181
-151.633	38.256	0.092	-0.081
-150.618	24.429	-0.085	-0.070
-149.604	104.278	0.150	0.174
-148.589	52.456	0.173	0.163
-147.574	-114.905	-0.481	-0.091
-146.560	18.371	-0.149	-0.117
-145.545	-20.366	-0.410	0.250
-144.531	800.000	-0.001	-0.004
-143.516	-29.662	-0.254	-0.143
-142.502	-109.045	-0.227	0.048
-141.487	-200.000	-0.042	0.261
-140.472	273.327	0.102	-0.178
-139.458	-39.066	-0.247	-0.129
-138.443	-27.389	0.218	-0.125
-137.429	268.661	0.068	0.118
-136.414	800.000	0.036	0.122
-135.399	-16.325	0.396	0.249
-134.385	-50.682	0.020	-0.009
-133.370	336.113	0.135	-0.259
-132.356	-11.577	-0.358	0.232
-131.341	-43.470	-0.081	-0.040
-130.326	388.008	0.140	-0.286
-129.312	513.970	0.051	0.117
-128.297	-27.888	-0.041	0.024
-127.283	-15.056	0.066	0.042
-126.268	800.000	0.065	-0.211
-125.253	773.573	-0.016	0.043
-124.239	163.030	0.048	0.067
-123.224	-103.688	0.261	-0.060
-122.210	-109.553	-0.122	0.025
-121.195	800.000	0.100	-0.290
-120.180	198.538	-0.173	0.261
-119.166	-15.514	-0.250	0.158
-118.151	105.539	0.123	0.143
-117.137	800.000	-0.075	-0.221
-116.122	-200.000	0.000	0.108
-115.107	-137.696	-0.282	0.031
-114.093	217.279	0.098	-0.155
-113.078	20.948	0.228	0.183
-112.064	-14.457	-0.041	0.026
-111.049	-36.577	-0.171	0.091
-110.034	-29.486	0.012	0.007
-109.020	800.000	-0.020	0.081
-108.005	-88.262	0.245	0.072
-106.991	-55.099	0.221	-0.098
-105.976	75.369	0.159	-0.166
-104.962	-102.053	0.408	-0.097
-103.947	-154.490	0.176	0.012
-102.932	-76.911	0.310	-0.107
-101.918	-160.258	-0.366	0.020
-100.903	25.689	-0.222	-0.182
-99.889	105.355	0.201	-0.235
-98.874	-11.717	0.257	-0.166
-97.859	112.217	-0.153	0.183
-96.845	-200.000	0.070	0.342
-95.830	-200.000	-0.024	0.214
-94.816	-200.000	0.034	0.167
-93.801	103.847	0.140	0.162
-92.786	-147.090	-0.221	0.019
-91.772	-200.000	-0.026	0.184
-90.757	47.524	-0.110	0.101
-89.743	95.969	0.176	0.198
-88.728	709.086	0.089	0.231
-87.713	26.587	-0.082	-0.068
-86.699	-161.952	-0.232	0.012
-85.684	52.236	0.129	0.121
-84.670	-200.000	0.016	0.183
-83.655	-6.981	0.067	-0.045
-82.640	-67.998	0.103	0.040
-81.626	-51.388	-0.234	-0.108
-80.611	-5.703	0.200	-0.135
-79.597	173.868	0.037	-0.052
-78.582	600.096	0.055	0.134
-77.567	-108.227	-0.306	0.065
-76.553	-195.894	-0.144	0.001
-75.538	-156.666	-0.177	-0.011
-74.524	-145.674	0.432	-0.038
-73.509	-200.000	0.017	0.088
-72.494	-111.474	0.076	-0.015
-71.480	-44.302	-0.172	-0.085
-70.465	455.463	0.181	0.396
-69.451	34.698	-0.080	-0.069
-68.436	-188.499	-0.135	-0.002
-67.422	-111.640	0.162	-0.032
-66.407	443.406	0.095	0.205
-65.392	40.736	0.121	0.108
-64.378	-200.000	0.006	0.202
-63.363	-71.117	0.252	0.093
-62.349	120.374	0.043	-0.053
-61.334	-25.369	-1.017	-0.593
-60.319	126.792	0.408	0.509
-59.305	681.562	-0.410	-1.051
-58.290	314.281	0.495	0.918
-57.276	800.000	0.569	1.613
-56.261	-200.000	96.878	578.431
-55.246	546.170	1384.625	3260.475
-54.232	158.699	2561.608	3503.035
-53.217	112.170	2144.512	2552.603
-52.203	44.660	1606.524	1454.516
-51.188	36.701	1344.460	1169.350
-50.173	33.502	1302.946	1114.421
-49.159	55.385	1349.470	1285.519
-48.144	57.820	1366.433	1316.176
-47.130	36.768	1324.799	1152.466
-46.115	33.321	1307.530	1117.101
-45.100	33.137	1302.938	1112.051
-44.086	32.987	1300.388	1108.950
-43.071	33.112	1298.015	1107.610
-42.057	32.994	1296.134	1105.276
-41.042	33.001	1294.795	1104.131
-40.027	33.055	1293.077	1102.935
-39.013	33.163	1290.763	1101.546
-37.998	33.084	1289.217	1099.721
-36.984	33.259	1287.080	1098.872
-35.969	33.201	1285.752	1097.358
-34.954	33.284	1284.101	1096.386
-33.940	33.193	1283.152	1095.009
-32.925	33.310	1281.995	1094.655
-31.911	33.305	1279.873	1092.770
-30.896	33.281	1278.665	1091.555
-29.881	33.238	1277.649	1090.395
-28.867	33.341	1275.607	1089.207
-27.852	33.238	1274.451	1087.579
-26.838	33.331	1273.061	1086.885
-25.823	33.358	1271.269	1085.471
-24.809	33.294	1270.234	1084.174
-23.794	33.258	1268.879	1082.768
-22.779	33.257	1267.826	1081.819
-21.765	33.367	1266.227	1081.041
-20.750	33.280	1265.142	1079.575
-19.736	33.206	1263.631	1077.824
-18.721	33.041	1263.188	1076.462
-17.706	33.175	1261.831	1076.028
-16.692	33.068	1260.736	1074.441
-15.677	33.060	1259.678	1073.452
-14.663	33.108	1258.471	1072.654
-13.648	33.109	1257.395	1071.700
-12.633	33.114	1256.580	1070.990
-11.619	33.146	1255.641	1070.327
-10.604	33.065	1254.931	1069.221
-9.590	33.069	1253.663	1068.124
-8.575	33.076	1253.032	1067.583
-7.560	33.050	1251.872	1066.403
-6.546	33.206	1250.970	1066.471
-5.531	33.061	1250.469	1065.189
-4.517	33.006	1249.778	1064.245
-3.502	33.134	1248.326	1063.688
-2.487	33.162	1247.783	1063.341
-1.473	33.007	1243.847	1059.074
-0.458	31.611	1228.829	1038.508
0.556	28.835	1211.749	1002.680
1.571	25.355	1218.532	989.074
2.586	24.657	1234.724	998.230
3.600	24.340	1224.321	987.976
4.615	17.945	1150.855	895.199
5.629	7.273	1072.454	781.745
6.644	2.413	1050.890	742.421
7.659	1.999	1048.745	738.837
8.673	1.993	1046.858	737.414
9.688	1.857	1045.739	735.903
10.702	2.449	1044.542	737.851
11.717	9.373	1054.341	778.306
12.731	19.417	1068.937	838.046
13.746	24.276	1074.740	866.195
14.761	25.064	1076.060	871.011
15.775	25.246	1075.166	871.097
16.790	24.920	1074.350	868.777
17.804	25.023	1073.825	868.773
18.819	25.140	1073.390	868.915
19.834	25.110	1073.290	868.609
20.848	25.221	1072.312	868.276
21.863	25.178	1072.364	868.036
22.877	25.151	1071.616	867.223
23.892	25.108	1070.505	866.037
24.907	25.149	1069.719	865.524
25.921	24.991	1069.113	864.193
26.936	25.116	1067.201	863.173
27.950	24.989	1065.956	861.480
28.965	24.891	1064.197	859.511
29.980	25.114	1062.623	859.232
30.994	25.322	1061.745	859.443
32.009	25.252	1060.990	858.423
33.023	25.067	1059.666	856.394
34.038	25.025	1059.169	855.713
35.053	25.195	1058.229	855.689
36.067	25.139	1057.558	854.805
37.082	25.101	1057.223	854.275
38.096	25.433	1056.343	855.068
39.111	25.385	1055.629	854.186
40.126	25.366	1053.983	852.692
41.140	24.967	1052.349	849.400
42.155	24.739	1051.339	847.428
43.169	24.765	1050.367	846.697
44.184	24.761	1049.240	845.695
45.199	24.747	1048.181	844.698
46.213	24.814	1047.241	844.184
47.228	24.986	1046.633	844.430
48.242	25.063	1046.155	844.329
49.257	25.042	1045.437	843.575
50.271	25.200	1044.915	843.823
51.286	25.338	1043.339	843.125
52.301	25.284	1042.778	842.342
53.315	25.137	1042.019	840.965
54.330	25.148	1041.040	840.153
55.344	25.150	1040.295	839.488
56.359	25.068	1039.117	838.079
57.374	24.929	1038.347	836.737
58.388	24.880	1037.134	835.456
59.403	24.859	1036.331	834.636
60.417	24.721	1036.134	833.763
61.432	24.726	1035.530	833.225
62.447	24.889	1034.566	833.133
63.461	24.874	1033.788	832.364
64.476	24.843	1033.115	831.605
65.490	24.764	1031.662	829.997
66.505	24.956	1030.976	830.258
67.520	24.987	1030.509	829.953
68.534	24.669	1029.565	827.647
69.549	24.388	1028.503	825.422
70.563	24.489	1027.600	825.091
71.578	24.473	1026.819	824.317
72.593	24.321	1025.679	822.627
73.607	24.354	1025.608	822.650
74.622	24.722	1025.288	824.014
75.636	24.760	1024.519	823.497
76.651	24.706	1023.092	822.030
77.666	24.521	1022.646	820.749
78.680	24.631	1022.429	821.006
79.695	24.710	1021.534	820.582
80.709	24.745	1020.785	820.066
81.724	24.691	1020.045	819.151
82.739	24.837	1019.275	819.128
83.753	25.274	1018.774	820.654
84.768	25.499	1017.901	820.906
85.782	25.570	1017.299	820.673
86.797	25.422	1016.184	819.022
87.812	25.420	1014.616	817.677
88.826	25.270	1014.532	816.857
89.841	25.459	1013.280	816.636
90.855	25.436	1012.341	815.703
91.870	25.361	1011.826	814.873
92.884	25.348	1010.308	813.523
93.899	25.257	1009.521	812.404
94.914	25.375	1009.114	812.540
95.928	25.341	1007.987	811.402
96.943	25.043	1006.450	808.751
97.957	24.781	1005.185	806.480
98.972	24.780	1004.029	805.479
99.987	25.002	1003.592	806.058
101.001	25.132	1003.078	806.156
102.016	24.990	1002.398	804.901
103.030	25.006	1001.116	803.873
104.045	24.891	1000.341	802.660
105.060	24.800	999.075	801.169
106.074	25.054	998.364	801.661
107.089	25.265	998.472	802.621
108.103	25.141	997.170	800.950
109.118	24.892	995.791	798.660
110.133	24.978	994.207	797.703
111.147	24.658	993.731	795.827
112.162	24.629	992.629	794.745
113.176	24.830	992.120	795.162
114.191	24.611	991.284	793.448
115.206	24.351	990.101	791.279
116.220	24.429	989.426	791.012
117.235	24.507	989.017	790.964
118.249	24.591	987.766	790.262
119.264	24.523	986.883	789.186
120.279	24.510	986.451	788.713
121.293	24.595	985.814	788.508
122.308	24.728	984.706	788.141
123.322	24.551	983.475	786.304
124.337	24.333	982.081	784.163
125.352	24.001	980.821	781.631
126.366	23.922	979.718	780.335
127.381	24.585	980.269	783.614
128.395	25.192	979.292	785.421
129.410	25.153	978.616	784.638
130.424	25.199	977.235	783.666
131.439	25.250	976.183	782.972
132.454	25.125	975.921	782.148
133.468	25.120	974.850	781.202
134.483	25.111	974.091	780.485
135.497	25.260	973.692	780.745
136.512	25.384	972.321	780.113
137.527	25.368	971.840	779.588
138.541	25.404	970.943	778.959
139.556	25.287	970.590	778.096
140.570	25.458	969.553	777.937
141.585	25.490	968.316	777.014
142.600	25.303	967.476	775.463
143.614	25.551	967.346	776.360
144.629	25.598	966.280	775.641
145.643	25.442	964.812	773.721
146.658	25.363	963.252	772.064
147.673	25.293	962.127	770.791
148.687	25.171	961.278	769.522
149.702	25.181	960.171	768.608
150.716	25.110	959.544	767.736
151.731	25.258	958.725	767.643
152.746	25.553	957.963	768.227
153.760	25.440	957.860	767.596
154.775	25.683	956.842	767.746
155.789	25.381	956.485	766.104
156.804	25.440	955.300	765.341
157.819	25.495	954.682	765.012
158.833	25.544	954.491	765.000
159.848	25.563	953.187	763.967
160.862	25.540	951.776	762.670
161.877	25.508	950.824	761.705
162.892	25.593	949.627	761.038
163.906	25.568	948.525	759.982
164.921	25.403	948.382	759.101
165.935	25.521	947.245	758.625
166.950	25.492	946.246	757.635
167.964	25.474	945.076	756.557
168.979	25.436	944.299	755.706
169.994	25.261	943.456	754.228
171.008	25.433	943.264	754.730
172.023	25.671	942.340	754.923
173.037	25.346	940.743	752.216
174.052	25.171	940.201	750.982
175.067	25.251	939.693	750.849
176.081	25.372	939.112	750.821
177.096	25.129	938.641	749.363
178.110	24.892	937.291	747.232
179.125	24.794	936.314	745.977
180.140	24.774	936.527	745.997
181.154	25.054	936.231	746.863
182.169	25.521	935.281	747.982
183.183	25.620	935.483	748.487
184.198	25.501	934.157	746.868
185.213	25.371	933.872	746.035
186.227	25.415	933.349	745.734
187.242	25.459	932.180	744.917
188.256	25.706	931.309	745.174
189.271	25.582	930.839	744.221
190.286	25.168	930.239	741.964
191.300	24.662	928.496	738.418
192.315	23.798	927.173	733.735
193.329	23.777	926.529	733.074
194.344	24.792	927.474	737.944
195.359	25.461	926.891	740.173
196.373	25.521	926.364	739.931
197.388	25.329	925.833	738.654
198.402	25.462	925.297	738.706
199.417	25.434	925.000	738.289
200.432	25.071	923.721	735.715
201.446	25.012	923.135	734.939
202.461	25.170	922.106	734.702
203.475	24.192	920.533	729.382
204.490	23.324	919.318	724.806
205.504	24.390	919.690	729.397
206.519	25.073	919.234	731.760
207.534	25.023	919.313	731.552
208.548	25.440	918.873	732.839
209.563	25.147	918.083	730.951
210.577	25.217	917.349	730.588
211.592	25.598	917.168	731.928
212.607	25.670	915.941	731.176
213.621	25.588	915.477	730.409
214.636	25.483	915.226	729.717
215.650	25.459	914.345	728.855
216.665	25.789	913.513	729.463
217.680	25.622	912.751	728.115
218.694	25.121	911.635	725.133
219.709	24.996	910.931	724.002
220.723	25.360	910.764	725.279
221.738	25.411	910.197	724.966
222.753	25.303	909.876	724.214
223.767	25.565	908.904	724.432
224.782	25.819	908.581	725.133
225.796	25.706	908.375	724.448
226.811	25.060	906.668	720.428
227.826	24.439	905.243	716.736
228.840	24.623	904.929	717.164
229.855	24.724	904.053	716.811
230.869	24.292	903.511	714.589
231.884	24.736	903.225	716.074
232.899	25.456	903.082	718.782
233.913	25.401	902.363	717.925
234.928	25.253	901.908	716.910
235.942	25.245	901.351	716.371
236.957	25.095	900.257	714.838
237.972	25.006	899.959	714.186
238.986	25.149	899.207	714.095
240.001	25.093	898.614	713.339
241.015	25.034	898.637	713.056
242.030	25.425	897.544	713.681
243.045	25.412	897.411	713.460
244.059	25.609	896.412	713.383
245.074	25.267	895.923	711.576
246.088	25.042	894.965	709.862
247.103	25.343	894.935	710.967
248.117	25.800	894.843	712.640
249.132	26.214	894.286	713.771
250.147	26.231	893.805	713.390
251.161	26.245	893.379	713.041
252.176	26.370	892.537	712.798
253.190	26.288	892.602	712.464
254.205	26.452	891.713	712.338
255.220	26.338	891.510	711.664
256.234	26.310	890.332	710.550
257.249	26.221	889.903	709.795
258.263	26.178	889.313	709.093
259.278	26.381	888.261	708.986
260.293	26.292	888.159	708.494
261.307	26.120	887.302	707.073
262.322	26.035	886.291	705.875
263.336	25.212	884.585	701.237
264.351	24.329	882.797	696.311
265.366	24.446	882.356	696.358
266.380	25.496	882.925	700.843
267.395	25.924	882.997	702.505
268.409	25.935	881.915	701.624
269.424	26.168	881.530	702.164
270.439	25.985	881.429	701.311
271.453	26.127	880.377	700.962
272.468	26.401	879.865	701.556
273.482	26.467	879.453	701.422
274.497	25.930	878.547	698.557
275.512	25.634	877.679	696.657
276.526	26.067	877.599	698.211
277.541	26.172	877.263	698.287
278.555	26.060	876.056	696.830
279.570	25.842	875.494	695.481
280.585	26.074	874.942	695.875
281.599	25.929	874.203	694.669
282.614	25.166	873.013	690.724
283.628	25.261	872.593	690.695
284.643	25.851	872.112	692.524
285.657	25.400	871.074	689.906
286.672	25.091	870.058	687.852
287.687	25.622	870.688	690.327
288.701	25.707	869.938	690.001
289.716	25.286	868.878	687.484
290.730	25.322	868.271	687.083
291.745	25.174	867.030	685.473
292.760	25.343	866.983	686.021
293.774	26.373	867.499	690.303
294.789	26.661	867.220	691.120
295.803	26.656	867.246	691.062
296.818	26.659	866.002	690.020
297.833	26.351	864.634	687.695
298.847	26.180	864.126	686.582
299.862	26.466	864.193	687.661
300.876	26.673	863.852	688.115
301.891	26.514	862.995	686.771
302.906	26.143	862.047	684.546
303.920	26.281	861.869	684.868
304.935	26.635	861.389	685.768
305.949	26.629	860.538	685.007
306.964	26.287	860.307	683.467
307.979	26.473	859.514	683.483
308.993	26.866	859.374	684.793
310.008	26.699	858.974	683.782
311.022	26.605	858.090	682.664
312.037	26.500	857.117	681.435
313.052	26.018	856.542	679.102
314.066	25.243	854.927	674.848
315.081	24.866	854.146	672.756
316.095	25.881	854.653	676.912
317.110	26.302	854.419	678.247
318.125	25.559	852.707	674.044
319.139	24.411	850.971	668.315
320.154	24.394	850.982	668.198
321.168	25.268	851.400	671.741
322.183	26.122	851.437	674.907
323.197	26.016	851.247	674.299
324.212	26.236	851.282	675.091
325.227	26.379	850.334	674.814
326.241	26.284	849.884	674.041
327.256	26.200	848.945	672.922
328.270	26.123	848.099	671.907
329.285	25.811	847.541	670.245
330.300	25.730	846.661	669.191
331.314	25.854	846.580	669.527
332.329	26.358	846.576	671.335
333.343	26.500	846.006	671.352
334.358	26.563	845.435	671.075
335.373	26.666	845.087	671.118
336.387	26.838	844.956	671.594
337.402	27.033	844.242	671.686
338.416	26.890	844.220	671.083
339.431	27.069	844.286	671.737
340.446	27.167	843.836	671.682
341.460	27.113	842.823	670.615
342.475	26.904	842.637	669.635
343.489	26.924	842.460	669.512
344.504	27.262	842.259	670.537
345.519	27.275	842.057	670.365
346.533	27.440	841.090	670.145
347.548	27.446	840.871	669.933
348.562	27.334	840.107	668.854
349.577	27.357	839.077	668.059
350.592	27.294	838.549	667.348
351.606	27.241	838.404	666.978
352.621	27.126	837.599	665.859
353.635	27.006	836.879	664.789
354.650	26.279	835.107	660.663
355.665	25.505	833.335	656.379
356.679	25.946	833.408	657.988
357.694	26.420	833.037	659.364
358.708	26.435	832.187	658.688
359.723	26.662	832.223	659.484
360.738	26.970	832.015	660.383
361.752	27.128	831.762	660.698
362.767	27.198	831.504	660.690
363.781	27.483	831.296	661.500
364.796	27.714	830.578	661.709
365.810	27.647	830.240	661.139
366.825	27.837	829.902	661.500
367.840	27.371	829.098	659.112
368.854	26.872	828.290	656.608
369.869	27.014	827.684	656.582
370.883	27.071	827.366	656.476
371.898	26.887	826.977	655.445
372.913	27.142	826.956	656.293
373.927	27.141	826.123	655.570
374.942	27.338	825.588	655.796
375.956	27.369	825.209	655.550
376.971	27.498	824.987	655.781
377.986	27.722	824.608	656.225
379.000	27.650	823.829	655.290
380.015	27.440	823.352	654.096
381.029	27.481	822.841	653.780
382.044	27.661	822.250	653.898
383.059	27.696	821.867	653.663
384.073	27.824	821.185	653.520
385.088	27.769	820.461	652.691
386.102	27.358	820.196	650.951
387.117	27.404	819.314	650.360
388.132	26.971	818.325	647.971
389.146	26.636	817.249	645.866
390.161	26.979	817.220	647.009
391.175	27.512	816.980	648.660
392.190	26.998	816.207	646.159
393.205	25.671	814.065	639.694
394.219	24.228	811.964	632.864
395.234	23.995	812.299	632.243
396.248	25.731	813.739	639.481
397.263	27.234	814.419	645.298
398.278	27.270	813.869	644.933
399.292	26.847	813.325	642.944
400.307	26.798	812.636	642.169
401.321	27.073	812.367	642.872
402.336	27.400	812.414	644.010
403.350	27.857	812.298	645.479
404.365	28.032	812.173	645.938
405.380	28.443	811.395	646.714
406.394	28.489	811.118	646.598
407.409	28.200	810.784	645.256
408.423	28.213	810.370	644.915
409.438	28.351	809.993	645.044
410.453	28.281	809.638	644.456
411.467	28.241	808.754	643.557
412.482	28.391	808.536	643.854
413.496	28.355	808.339	643.512
414.511	28.301	807.823	642.857
415.526	28.447	807.027	642.676
416.540	28.179	806.301	641.102
417.555	27.923	805.943	639.866
418.569	28.207	805.565	640.502
419.584	28.028	805.236	639.559
420.599	27.753	804.437	637.905
421.613	110.857	1284.340	1455.122
422.628	95.769	1354.240	1455.209
