DTS Sentinel unit serial number:	SN413079Multiplexer serial number:	ORYXHardware model number:	OX4-SRSoftware version number:	ORYX F/W v4.00 Oryx Data Collector v3.7.2.0data status	okinstallation	princeton_trtdifferential loss correction	single-endedforward channel	channel 1reverse channel	N/Adate	2019/09/11time	23:44:11forward acquisition time	60.00reverse acquisition time	0.00gamma	496.2192k internal	0.2318k external	0.2318temperature offset calibration	1.0072default loss term (dB/km)	0.3790temperature slope calibration	1.0000multiplexer offset coefficient	1.0000multiplexer slope coefficient	1.0000fibre end	0.00T internal ref (°C)	34.02T ext. ref 1 (°C)	1.94T ext. ref 2 (°C)	27.64length (m)	temperature (°C)	Stokes	anti-Stokes-747.200	-41.228	0.266	0.139
-746.185	-133.397	-0.236	0.030
-745.171	421.252	0.089	-0.192
-744.156	-93.403	0.318	0.089
-743.142	-3.067	-0.183	-0.129
-742.127	-20.376	0.255	0.159
-741.112	-200.000	0.018	0.111
-740.098	-156.981	0.152	0.009
-739.083	25.072	-0.214	0.180
-738.069	-114.913	0.372	0.072
-737.054	800.000	-0.084	-0.258
-736.039	-115.963	-0.106	0.020
-735.025	-12.110	0.315	0.208
-734.010	6.325	-0.184	-0.139
-732.996	236.288	0.113	-0.190
-731.981	17.018	0.203	0.163
-730.966	-31.596	-0.097	0.055
-729.952	800.000	-0.083	-0.307
-728.937	681.423	0.022	0.059
-727.923	646.734	-0.023	-0.059
-726.908	357.121	-0.187	-0.377
-725.894	84.994	-0.100	-0.111
-724.879	174.809	-0.055	0.080
-723.864	113.255	0.153	0.188
-722.850	-19.408	0.036	-0.023
-721.835	188.905	-0.148	-0.224
-720.821	-73.582	-0.229	-0.084
-719.806	513.863	0.014	0.033
-718.791	190.277	-0.194	0.295
-717.777	800.000	0.028	0.093
-716.762	113.411	0.081	-0.100
-715.748	800.000	-0.039	-0.162
-714.733	-42.105	0.089	-0.046
-713.718	17.127	-0.318	0.255
-712.704	800.000	-0.114	0.385
-711.689	-103.897	0.282	-0.067
-710.675	-138.813	0.051	-0.006
-709.660	-200.000	0.001	-0.101
-708.645	174.984	-0.234	0.343
-707.631	-200.000	0.069	-0.374
-706.616	765.244	-0.088	-0.241
-705.602	12.909	-0.284	0.222
-704.587	-54.052	0.196	-0.090
-703.572	294.465	0.041	0.075
-702.558	267.223	-0.201	0.356
-701.543	-97.504	-0.179	-0.047
-700.529	-25.338	0.108	0.064
-699.514	-136.881	-0.254	-0.029
-698.499	-63.666	-0.060	-0.025
-697.485	-54.349	-0.248	-0.113
-696.470	-200.000	-0.000	-0.414
-695.456	-200.000	-0.002	-0.108
-694.441	-161.998	0.250	0.013
-693.426	92.254	-0.007	-0.008
-692.412	-58.534	-0.224	-0.098
-691.397	-31.191	-0.227	0.129
-690.383	-26.021	0.174	-0.103
-689.368	452.166	-0.071	0.158
-688.354	-77.726	-0.150	0.052
-687.339	17.486	-0.144	-0.116
-686.324	-200.000	0.021	0.220
-685.310	-10.955	-0.246	-0.164
-684.295	-69.171	-0.185	-0.072
-683.281	-65.773	0.301	-0.122
-682.266	-134.295	-0.058	0.007
-681.251	-136.625	0.097	-0.011
-680.237	134.831	0.115	-0.151
-679.222	59.312	0.087	-0.087
-678.208	205.883	0.045	-0.070
-677.193	-11.880	0.140	-0.093
-676.178	-98.664	0.042	0.011
-675.164	194.659	-0.027	0.042
-674.149	425.237	0.065	-0.141
-673.135	-84.222	-0.135	-0.043
-672.120	-73.278	0.179	-0.066
-671.105	-200.000	0.023	0.234
-670.091	-200.000	0.022	0.099
-669.076	-45.900	-0.272	-0.135
-668.062	382.030	-0.117	0.242
-667.047	144.278	-0.199	-0.268
-666.032	158.895	-0.239	-0.335
-665.018	121.430	-0.102	0.129
-664.003	496.658	-0.021	-0.049
-662.989	-200.000	0.011	0.112
-661.974	-200.000	-0.042	-0.321
-660.959	-62.026	0.151	-0.064
-659.945	800.000	0.118	-0.367
-658.930	-200.000	0.004	-0.379
-657.916	-61.722	-0.211	0.089
-656.901	800.000	0.014	-0.056
-655.886	443.028	-0.129	0.285
-654.872	800.000	0.077	0.254
-653.857	-200.000	0.048	0.256
-652.843	-182.985	0.252	0.005
-651.828	-98.280	-0.432	0.112
-650.814	77.576	0.244	0.262
-649.799	-79.379	0.161	-0.055
-648.784	800.000	0.021	-0.080
-647.770	-109.725	0.109	-0.023
-646.755	-200.000	0.006	0.057
-645.741	369.346	0.090	-0.184
-644.726	-158.278	-0.113	0.007
-643.711	800.000	-0.033	-0.132
-642.697	-77.823	-0.392	0.136
-641.682	-8.802	0.231	-0.156
-640.668	-67.800	-0.421	0.166
-639.653	800.000	0.042	0.149
-638.638	10.478	-0.091	0.070
-637.624	-78.068	0.049	0.017
-636.609	79.671	-0.142	-0.153
-635.595	-66.971	0.345	0.137
-634.580	249.054	-0.070	0.120
-633.565	-114.876	-0.030	-0.006
-632.551	-200.000	0.049	0.252
-631.536	-200.000	-0.004	0.077
-630.522	800.000	0.043	-0.155
-629.507	800.000	0.142	0.422
-628.492	-200.000	-0.021	-0.167
-627.478	800.000	0.114	-0.360
-626.463	-200.000	-0.059	-0.275
-625.449	-139.973	-0.263	-0.028
-624.434	-200.000	0.020	-0.123
-623.419	-93.341	0.212	0.059
-622.405	571.470	-0.009	0.023
-621.390	-107.168	-0.117	-0.026
-620.376	201.476	-0.091	0.140
-619.361	-102.765	-0.314	0.075
-618.346	35.658	0.118	0.104
-617.332	-89.394	0.139	0.041
-616.317	83.481	0.163	0.178
-615.303	61.858	0.066	-0.066
-614.288	225.741	-0.058	-0.094
-613.273	-10.131	0.312	-0.208
-612.259	195.661	0.052	-0.079
-611.244	-196.274	-0.240	-0.002
-610.230	210.083	0.095	0.150
-609.215	-200.000	-0.037	-0.352
-608.201	-32.407	-0.108	-0.061
-607.186	-129.091	-0.171	-0.024
-606.171	-114.613	-0.153	-0.029
-605.157	161.586	-0.034	-0.048
-604.142	-18.843	0.119	-0.075
-603.128	116.598	-0.182	-0.225
-602.113	-200.000	-0.019	-0.103
-601.098	48.371	0.057	0.053
-600.084	254.450	0.045	0.077
-599.069	92.959	-0.075	-0.085
-598.055	-200.000	0.008	0.059
-597.040	-200.000	-0.085	-0.387
-596.025	111.556	-0.102	-0.123
-595.011	-81.095	0.135	0.045
-593.996	-21.699	-0.035	0.022
-592.982	-93.771	0.113	-0.031
-591.967	22.461	-0.025	0.020
-590.952	110.108	-0.257	-0.311
-589.938	28.567	-0.090	-0.077
-588.923	-15.131	-0.214	-0.138
-587.909	-200.000	0.138	0.000
-586.894	266.409	0.099	0.175
-585.879	-189.492	0.336	-0.004
-584.865	18.706	-0.148	-0.119
-583.850	-109.657	-0.100	-0.021
-582.836	800.000	0.050	-0.183
-581.821	-38.087	-0.211	-0.113
-580.806	800.000	0.085	0.358
-579.792	74.909	-0.298	-0.315
-578.777	174.713	-0.092	-0.134
-577.763	-200.000	-0.022	-0.125
-576.748	275.920	-0.068	0.121
-575.733	29.307	0.087	0.074
-574.719	-93.541	-0.176	0.049
-573.704	511.592	0.240	-0.561
-572.690	-200.000	-0.004	-0.081
-571.675	101.700	-0.276	-0.324
-570.661	-116.022	0.387	0.073
-569.646	81.542	-0.247	-0.269
-568.631	-113.911	0.420	0.082
-567.617	234.276	0.253	0.419
-566.602	-118.105	0.095	0.017
-565.588	176.517	0.140	-0.205
-564.573	64.043	-0.077	0.078
-563.558	-28.799	0.235	-0.136
-562.544	-83.682	-0.157	-0.050
-561.529	-4.668	0.269	0.187
-560.515	98.216	-0.207	0.240
-559.500	-58.598	-0.024	0.011
-558.485	-41.605	0.185	0.096
-557.471	32.688	-0.367	-0.319
-556.456	-139.353	-0.196	-0.021
-555.442	-80.458	0.179	-0.060
-554.427	22.364	-0.139	0.114
-553.412	48.481	-0.059	0.056
-552.398	-98.386	0.183	-0.047
-551.383	214.675	0.057	0.091
-550.369	65.074	-0.091	-0.092
-549.354	-200.000	0.043	0.194
-548.339	-125.797	0.172	0.026
-547.325	800.000	-0.102	-0.430
-546.310	-12.125	-0.117	-0.077
-545.296	-6.343	-0.332	0.227
-544.281	88.854	0.272	0.304
-543.266	488.003	0.062	-0.142
-542.252	800.000	-0.080	0.294
-541.237	71.994	0.185	0.193
-540.223	-125.661	0.205	-0.031
-539.208	132.877	-0.088	-0.114
-538.193	111.340	0.188	0.227
-537.179	-200.000	-0.015	0.262
-536.164	800.000	-0.039	-0.151
-535.150	-89.682	-0.341	-0.100
-534.135	-102.541	0.216	0.052
-533.121	-62.494	0.371	-0.155
-532.106	78.420	-0.187	-0.201
-531.091	-61.732	0.137	0.058
-530.077	11.046	0.163	-0.125
-529.062	-74.523	0.230	-0.083
-528.048	13.786	-0.204	-0.159
-527.033	-14.931	0.124	0.080
-526.018	-106.540	0.227	-0.051
-525.004	51.549	-0.191	0.182
-523.989	800.000	0.040	0.117
-522.975	116.940	-0.106	-0.130
-521.960	94.086	0.132	0.150
-520.945	-56.815	0.105	-0.047
-519.931	-200.000	-0.038	0.258
-518.916	256.634	-0.106	0.183
-517.902	-88.780	0.139	-0.041
-516.887	85.552	-0.130	0.143
-515.872	1.934	-0.273	-0.197
-514.858	-115.726	-0.136	0.026
-513.843	620.639	-0.082	-0.206
-512.829	43.481	-0.037	0.034
-511.814	-123.815	0.237	0.038
-510.799	-69.415	-0.161	-0.062
-509.785	-36.239	-0.328	0.178
-508.770	361.525	-0.059	0.119
-507.756	-147.866	-0.321	-0.027
-506.741	-80.578	-0.114	0.038
-505.726	-165.222	-0.145	-0.006
-504.712	-82.879	-0.121	0.039
-503.697	-88.018	-0.228	-0.069
-502.683	36.952	0.168	0.149
-501.668	66.185	-0.055	0.056
-500.653	785.681	0.032	-0.089
-499.639	-200.000	0.016	-0.176
-498.624	-200.000	-0.038	-0.383
-497.610	219.322	0.039	0.062
-496.595	174.182	0.071	-0.103
-495.581	-200.000	-0.002	0.408
-494.566	238.163	0.064	-0.106
-493.551	15.570	0.073	0.058
-492.537	578.555	0.055	0.136
-491.522	88.299	0.082	0.091
-490.508	-33.769	0.214	0.118
-489.493	-200.000	0.024	0.119
-488.478	-168.719	0.468	0.018
-487.464	183.574	-0.134	0.199
-486.449	193.228	-0.187	-0.283
-485.435	-200.000	-0.002	-0.096
-484.420	-109.603	0.187	-0.039
-483.405	-200.000	0.020	-0.211
-482.391	94.078	-0.120	-0.136
-481.376	-67.132	-0.340	-0.134
-480.362	-117.576	0.407	-0.074
-479.347	57.943	-0.121	-0.119
-478.332	800.000	-0.018	0.071
-477.318	-27.347	-0.222	-0.130
-476.303	800.000	-0.031	0.099
-475.289	-150.002	-0.340	0.027
-474.274	75.271	-0.244	-0.258
-473.259	384.113	-0.062	-0.127
-472.245	127.634	-0.322	0.410
-471.230	54.485	-0.208	0.201
-470.216	725.268	-0.160	0.426
-469.201	251.820	0.235	0.400
-468.186	-200.000	-0.037	0.220
-467.172	115.390	0.077	0.094
-466.157	-91.863	-0.207	0.059
-465.143	-100.613	-0.323	-0.080
-464.128	-48.436	0.230	0.111
-463.113	655.883	-0.072	-0.184
-462.099	-18.023	-0.244	-0.153
-461.084	-32.024	0.355	0.199
-460.070	713.345	-0.030	0.079
-459.055	98.320	-0.056	-0.065
-458.040	147.139	-0.025	-0.033
-457.026	800.000	-0.060	-0.186
-456.011	196.267	0.220	-0.335
-454.997	-200.000	-0.017	0.158
-453.982	104.266	0.214	-0.252
-452.968	-92.882	0.117	-0.033
-451.953	-200.000	0.005	-0.068
-450.938	-133.971	-0.165	0.020
-449.924	67.064	0.119	-0.121
-448.909	-200.000	0.071	-0.398
-447.895	-91.583	0.044	-0.013
-446.880	237.114	0.013	-0.022
-445.865	-34.487	0.234	0.128
-444.851	384.596	-0.127	0.262
-443.836	34.423	-0.117	0.102
-442.822	-124.432	-0.370	0.058
-441.807	65.246	0.354	0.358
-440.792	-159.219	0.290	0.016
-439.778	-83.552	0.148	0.047
-438.763	-88.213	0.180	0.054
-437.749	187.215	0.245	-0.366
-436.734	27.337	-0.114	0.096
-435.719	-200.000	0.006	0.199
-434.705	4.224	-0.145	-0.106
-433.690	-43.235	-0.130	-0.066
-432.676	124.311	-0.214	0.269
-431.661	-200.000	0.010	0.076
-430.646	-197.707	-0.068	0.000
-429.632	-200.000	-0.021	0.134
-428.617	-16.200	0.189	-0.120
-427.603	5.136	-0.102	-0.075
-426.588	-200.000	-0.020	0.315
-425.573	-137.558	0.185	0.021
-424.559	-44.217	-0.133	-0.067
-423.544	508.670	-0.070	-0.163
-422.530	800.000	0.052	0.201
-421.515	-200.000	-0.002	0.109
-420.500	-95.600	-0.258	-0.069
-419.486	800.000	-0.054	0.167
-418.471	14.828	0.015	0.012
-417.457	-185.016	-0.297	-0.005
-416.442	-200.000	-0.057	0.444
-415.428	138.844	-0.228	0.299
-414.413	465.221	-0.202	0.452
-413.398	800.000	-0.066	0.195
-412.384	5.229	0.117	0.086
-411.369	11.624	0.211	0.162
-410.355	8.233	0.341	-0.256
-409.340	-39.052	-0.099	0.052
-408.325	-200.000	0.033	-0.253
-407.311	-125.808	-0.263	-0.040
-406.296	-83.177	-0.339	-0.109
-405.282	-122.587	-0.345	0.056
-404.267	-135.539	0.158	0.019
-403.252	95.427	-0.188	-0.214
-402.238	0.568	0.251	0.179
-401.223	-200.000	0.037	0.000
-400.209	304.824	-0.074	0.137
-399.194	-200.000	0.041	-0.178
-398.179	206.771	-0.084	-0.130
-397.165	381.673	0.009	0.018
-396.150	-6.567	-0.064	-0.044
-395.136	507.011	0.062	-0.144
-394.121	156.994	0.096	-0.132
-393.106	-200.000	0.017	0.231
-392.092	-33.774	0.143	0.079
-391.077	76.902	-0.145	0.154
-390.063	-168.268	0.111	0.004
-389.048	-32.850	0.325	-0.180
-388.033	32.535	-0.241	0.208
-387.019	-131.547	-0.399	-0.052
-386.004	-200.000	-0.021	0.153
-384.990	133.882	0.360	-0.465
-383.975	-44.004	0.192	0.096
-382.960	-109.997	-0.131	-0.027
-381.946	-100.692	-0.230	-0.057
-380.931	-97.610	-0.067	0.017
-379.917	547.671	-0.016	-0.037
-378.902	55.690	0.202	-0.195
-377.888	-79.639	0.119	0.040
-376.873	-200.000	-0.033	0.198
-375.858	148.863	-0.138	-0.187
-374.844	99.068	-0.148	0.171
-373.829	-200.000	0.008	0.114
-372.815	-15.852	0.117	-0.074
-371.800	28.302	-0.151	-0.127
-370.785	72.348	0.056	0.058
-369.771	105.247	0.046	0.054
-368.756	140.796	0.146	-0.192
-367.742	800.000	-0.135	0.401
-366.727	7.863	0.156	0.117
-365.712	800.000	-0.038	-0.110
-364.698	-46.979	0.148	-0.072
-363.683	-130.568	0.123	0.017
-362.669	225.649	-0.093	-0.151
-361.654	154.158	0.111	0.152
-360.639	800.000	0.053	0.184
-359.625	-7.765	0.177	-0.119
-358.610	-48.905	0.204	-0.097
-357.596	-200.000	0.009	0.293
-356.581	67.157	0.236	0.240
-355.566	800.000	0.099	-0.380
-354.552	159.181	0.096	0.134
-353.537	41.077	-0.078	0.070
-352.523	589.160	-0.115	0.282
-351.508	-196.177	-0.210	0.001
-350.493	-60.278	-0.166	0.070
-349.479	391.357	0.153	0.316
-348.464	-99.761	-0.174	0.043
-347.450	-84.562	0.053	-0.017
-346.435	466.849	0.241	0.538
-345.420	319.321	0.157	0.296
-344.406	83.464	-0.155	0.168
-343.391	-61.013	0.140	0.059
-342.377	800.000	-0.077	0.285
-341.362	-200.000	-0.013	-0.275
-340.348	-10.790	-0.194	-0.128
-339.333	-41.646	-0.123	0.063
-338.318	-200.000	0.040	0.229
-337.304	-109.389	0.173	0.036
-336.289	100.414	0.335	-0.388
-335.275	800.000	0.080	-0.241
-334.260	-46.032	-0.221	0.108
-333.245	800.000	0.104	0.317
-332.231	247.550	-0.099	0.167
-331.216	800.000	0.045	0.127
-330.202	-200.000	-0.018	0.351
-329.187	246.612	-0.314	-0.527
-328.172	109.682	0.122	-0.145
-327.158	-149.251	0.411	-0.033
-326.143	-58.478	0.165	0.071
-325.129	708.570	0.076	0.200
-324.114	239.948	-0.228	0.379
-323.099	-24.010	0.158	0.094
-322.085	218.314	0.078	0.124
-321.070	239.934	-0.112	-0.185
-320.056	800.000	0.030	-0.094
-319.041	-200.000	0.079	0.368
-318.026	-155.213	-0.376	0.024
-317.012	-200.000	0.027	-0.346
-315.997	-40.024	-0.253	-0.131
-314.983	800.000	-0.053	-0.214
-313.968	172.199	0.063	0.090
-312.953	-146.265	-0.262	-0.023
-311.939	-161.910	-0.538	0.027
-310.924	8.729	0.270	-0.202
-309.910	-93.363	0.261	-0.072
-308.895	-173.845	-0.318	-0.009
-307.880	-162.320	-0.406	-0.020
-306.866	-86.508	0.077	0.023
-305.851	-200.000	0.004	-0.386
-304.837	800.000	0.044	0.128
-303.822	-200.000	-0.010	-0.206
-302.807	-71.684	0.207	0.077
-301.793	-15.423	0.283	-0.180
-300.778	77.430	0.399	-0.422
-299.764	-200.000	-0.025	0.162
-298.749	-3.050	-0.113	-0.078
-297.735	-121.306	-0.087	-0.014
-296.720	-89.077	0.129	0.038
-295.705	-200.000	-0.003	0.044
-294.691	-200.000	-0.007	0.047
-293.676	-3.360	-0.086	-0.060
-292.662	-23.701	0.350	0.209
-291.647	-54.609	0.086	-0.039
-290.632	-200.000	0.036	0.210
-289.618	-200.000	0.026	0.209
-288.603	-104.340	0.265	-0.061
-287.589	533.347	-0.116	-0.272
-286.574	-4.441	-0.121	-0.083
-285.559	-45.107	-0.004	-0.002
-284.545	99.321	-0.172	0.197
-283.530	-46.854	-0.129	-0.063
-282.516	-200.000	0.043	-0.304
-281.501	106.960	-0.125	-0.148
-280.486	72.941	0.068	-0.070
-279.472	-43.563	-0.134	-0.067
-278.457	-33.025	0.158	-0.087
-277.443	800.000	-0.035	0.127
-276.428	19.398	-0.237	-0.189
-275.413	-154.736	0.249	-0.016
-274.399	79.628	0.117	-0.125
-273.384	463.651	0.028	0.063
-272.370	-84.944	0.511	0.159
-271.355	-200.000	0.011	0.303
-270.340	5.685	0.107	0.079
-269.326	800.000	0.164	-0.462
-268.311	36.443	0.129	-0.113
-267.297	524.248	0.116	0.270
-266.282	-94.259	-0.054	-0.015
-265.267	-200.000	-0.012	-0.178
-264.253	-64.795	0.173	0.070
-263.238	-117.167	-0.006	-0.001
-262.224	800.000	-0.078	-0.305
-261.209	-10.083	0.059	-0.039
-260.195	-116.308	-0.126	0.023
-259.180	-200.000	-0.022	-0.475
-258.165	99.654	-0.128	-0.147
-257.151	59.357	0.070	0.068
-256.136	369.958	-0.199	-0.399
-255.122	-200.000	-0.027	-0.297
-254.107	40.241	0.062	-0.055
-253.092	-30.658	0.041	-0.023
-252.078	-200.000	-0.017	-0.264
-251.063	-30.415	-0.148	-0.083
-250.049	156.064	0.169	0.231
-249.034	800.000	0.070	-0.222
-248.019	87.902	0.202	-0.222
-247.005	180.333	0.134	-0.195
-245.990	-200.000	0.036	0.291
-244.976	104.877	-0.083	0.097
-243.961	13.646	-0.164	0.126
-242.946	-129.206	0.257	0.036
-241.932	-24.821	-0.145	-0.086
-240.917	-190.208	-0.332	0.004
-239.903	196.396	0.180	-0.273
-238.888	345.409	-0.084	-0.165
-237.873	-55.975	0.317	-0.140
-236.859	-200.000	-0.009	0.082
-235.844	324.960	-0.040	-0.076
-234.830	800.000	0.054	0.185
-233.815	159.847	0.075	0.103
-232.800	120.474	0.279	0.344
-231.786	-14.627	0.325	-0.207
-230.771	73.810	0.066	-0.068
-229.757	115.325	0.273	0.331
-228.742	68.043	0.107	0.108
-227.727	-71.422	-0.206	-0.077
-226.713	-144.280	0.065	0.006
-225.698	-200.000	-0.041	0.272
-224.684	-124.170	0.288	-0.045
-223.669	-58.462	-0.428	-0.184
-222.655	15.656	0.277	-0.216
-221.640	2.688	-0.228	-0.164
-220.625	-25.992	-0.143	0.083
-219.611	-200.000	-0.050	0.300
-218.596	494.296	0.105	-0.240
-217.582	-6.120	0.199	-0.134
-216.567	-26.290	0.188	-0.109
-215.552	263.142	-0.113	-0.194
-214.538	-6.635	0.047	-0.032
-213.523	579.617	0.139	-0.338
-212.509	-0.496	-0.109	0.076
-211.494	-144.419	0.031	-0.003
-210.479	84.632	0.062	0.068
-209.465	-4.023	-0.187	0.128
-208.450	-200.000	0.040	-0.262
-207.436	141.989	-0.187	0.246
-206.421	172.264	-0.178	-0.254
-205.406	-168.378	-0.164	-0.006
-204.392	800.000	0.047	-0.179
-203.377	51.135	0.085	-0.080
-202.363	-200.000	-0.092	-0.511
-201.348	123.178	-0.047	-0.058
-200.333	-200.000	-0.040	0.282
-199.319	-80.254	-0.168	-0.056
-198.304	505.078	-0.054	0.124
-197.290	27.806	0.153	0.128
-196.275	-200.000	-0.000	0.103
-195.260	-183.454	-0.197	0.003
-194.246	-200.000	-0.010	0.304
-193.231	99.905	0.067	0.077
-192.217	15.523	-0.283	0.220
-191.202	-126.088	0.014	0.002
-190.187	-16.692	-0.089	0.056
-189.173	-152.492	-0.305	0.022
-188.158	165.807	0.174	-0.244
-187.144	-114.728	0.201	-0.038
-186.129	-200.000	-0.001	0.084
-185.114	81.722	-0.160	-0.171
-184.100	-5.755	0.185	0.125
-183.085	436.805	-0.193	0.416
-182.071	320.683	0.084	-0.157
-181.056	327.864	-0.070	-0.133
-180.042	43.179	0.051	0.046
-179.027	229.428	-0.124	-0.201
-178.012	191.789	-0.121	0.181
-176.998	-49.790	0.196	-0.092
-175.983	25.245	0.367	0.301
-174.969	68.353	-0.352	0.357
-173.954	-172.624	0.369	-0.011
-172.939	451.622	0.173	-0.378
-171.925	-7.147	-0.116	-0.078
-170.910	-23.807	0.155	0.092
-169.896	800.000	0.086	0.344
-168.881	-92.543	-0.563	0.157
-167.866	1.580	0.222	-0.158
-166.852	190.062	-0.101	-0.149
-165.837	-29.804	0.312	-0.176
-164.823	-153.521	-0.244	0.017
-163.808	182.845	-0.185	0.270
-162.793	-200.000	-0.003	0.278
-161.779	-78.317	-0.197	0.067
-160.764	800.000	0.066	-0.275
-159.750	-65.575	0.243	-0.097
-158.735	-73.950	-0.072	0.026
-157.720	-200.000	-0.018	0.119
-156.706	-6.381	0.187	0.126
-155.691	-22.596	-0.184	-0.110
-154.677	-146.651	0.127	-0.011
-153.662	293.534	-0.046	0.084
-152.647	296.312	0.195	0.353
-151.633	-200.000	-0.067	0.308
-150.618	-200.000	-0.003	0.302
-149.604	-200.000	-0.017	0.254
-148.589	-72.764	-0.015	-0.006
-147.574	800.000	-0.043	0.153
-146.560	-200.000	-0.040	0.217
-145.545	81.015	-0.315	-0.336
-144.531	-200.000	-0.010	0.098
-143.516	18.179	-0.081	0.064
-142.502	800.000	0.044	-0.134
-141.487	-200.000	0.026	-0.179
-140.472	-51.916	0.133	0.061
-139.458	-200.000	-0.003	0.022
-138.443	124.008	0.129	0.160
-137.429	147.083	0.110	0.147
-136.414	226.111	-0.150	-0.241
-135.399	14.331	-0.169	-0.131
-134.385	658.693	-0.068	-0.172
-133.370	-105.879	-0.065	-0.014
-132.356	-70.317	-0.055	0.021
-131.341	-59.382	-0.164	-0.070
-130.326	-98.381	0.159	0.040
-129.312	369.667	-0.050	0.100
-128.297	-66.585	-0.204	-0.080
-127.283	35.232	-0.152	0.132
-126.268	181.739	0.111	0.162
-125.253	-88.051	-0.217	0.064
-124.239	-171.328	-0.167	-0.006
-123.224	75.131	0.180	0.187
-122.210	-112.928	0.257	-0.050
-121.195	90.631	0.299	-0.330
-120.180	-200.000	0.072	-0.451
-119.166	-161.217	-0.105	-0.005
-118.151	-180.391	-0.124	-0.003
-117.137	352.679	0.120	0.236
-116.122	-85.937	0.042	0.013
-115.107	-200.000	-0.028	0.141
-114.093	6.823	0.238	0.175
-113.078	-64.401	0.099	0.040
-112.064	-132.529	0.345	-0.044
-111.049	73.414	-0.153	0.158
-110.034	-132.304	0.088	0.011
-109.020	392.980	0.102	0.210
-108.005	65.156	-0.348	0.347
-106.991	355.938	0.056	-0.110
-105.976	800.000	0.157	0.475
-104.962	252.192	0.203	0.342
-103.947	504.448	-0.045	-0.103
-102.932	-48.513	0.318	0.151
-101.918	181.438	0.034	0.049
-100.903	86.385	0.430	0.467
-99.889	14.079	0.149	0.114
-98.874	-200.000	0.015	-0.334
-97.859	303.983	-0.169	0.309
-96.845	-148.053	0.153	0.013
-95.830	-38.214	-0.165	-0.086
-94.816	398.275	-0.037	0.077
-93.801	65.048	0.251	-0.250
-92.786	-55.762	-0.113	0.050
-91.772	-5.355	0.050	-0.034
-90.757	-99.271	0.439	-0.109
-89.743	-78.867	-0.097	-0.033
-88.728	379.339	0.051	0.103
-87.713	314.916	0.053	-0.098
-86.699	-200.000	-0.017	0.238
-85.684	-115.046	-0.213	-0.040
-84.670	-57.709	-0.093	0.040
-83.655	-149.871	0.157	0.012
-82.640	-120.834	0.236	-0.039
-81.626	73.782	0.165	-0.170
-80.611	-200.000	-0.016	0.226
-79.597	-43.467	0.273	0.136
-78.582	-7.515	-0.094	-0.063
-77.567	99.683	0.095	-0.108
-76.553	-31.245	0.112	0.062
-75.538	163.422	-0.046	-0.063
-74.524	343.936	0.091	0.175
-73.509	-110.019	0.225	-0.046
-72.494	10.818	0.101	0.076
-71.480	88.628	-0.133	0.145
-70.465	140.016	0.088	-0.114
-69.451	-30.348	0.278	0.155
-68.436	-3.767	0.163	-0.112
-67.422	34.564	-0.269	-0.232
-66.407	-200.000	-0.028	-0.379
-65.392	154.650	0.248	-0.336
-64.378	-28.536	0.132	-0.075
-63.363	800.000	0.053	0.173
-62.349	-0.833	-0.022	-0.015
-61.334	14.674	-0.972	-0.748
-60.319	106.692	0.345	0.403
-59.305	-200.000	-0.196	-0.970
-58.290	434.141	0.359	0.767
-57.276	245.765	0.774	1.284
-56.261	-200.000	97.110	582.526
-55.246	543.667	1390.914	3270.249
-54.232	154.842	2583.092	3497.132
-53.217	112.551	2153.900	2567.854
-52.203	45.336	1611.223	1464.078
-51.188	37.443	1348.643	1177.856
-50.173	34.151	1306.976	1122.054
-49.159	56.383	1354.850	1296.976
-48.144	59.656	1372.232	1333.160
-47.130	37.676	1328.289	1161.289
-46.115	34.224	1310.247	1125.115
-45.100	34.012	1305.719	1119.934
-44.086	33.898	1303.635	1117.432
-43.071	33.793	1301.653	1115.068
-42.057	33.871	1298.873	1113.101
-41.042	33.955	1297.589	1112.447
-40.027	33.933	1296.502	1111.346
-39.013	33.924	1293.773	1108.907
-37.998	33.826	1292.591	1107.278
-36.984	34.003	1290.734	1106.674
-35.969	34.199	1288.258	1105.647
-34.954	34.115	1287.181	1104.193
-33.940	34.145	1286.098	1103.390
-32.925	34.152	1284.359	1101.896
-31.911	34.082	1283.365	1100.596
-30.896	34.130	1281.912	1099.583
-29.881	34.148	1280.470	1098.405
-28.867	34.165	1279.145	1097.327
-27.852	34.156	1277.530	1095.842
-26.838	34.167	1276.154	1094.683
-25.823	34.137	1274.831	1093.334
-24.809	34.087	1273.713	1092.042
-23.794	34.078	1272.448	1090.866
-22.779	34.162	1271.229	1090.258
-21.765	34.004	1270.195	1088.421
-20.750	34.167	1268.233	1087.632
-19.736	33.997	1267.269	1085.791
-18.721	33.894	1266.431	1084.443
-17.706	33.903	1265.076	1083.286
-16.692	33.982	1263.445	1082.301
-15.677	33.947	1262.695	1081.414
-14.663	33.891	1261.469	1080.003
-13.648	33.899	1260.736	1079.378
-12.633	34.093	1259.100	1079.034
-11.619	33.908	1259.207	1078.035
-10.604	33.910	1257.843	1076.832
-9.590	33.952	1256.835	1076.169
-8.575	33.851	1256.567	1075.324
-7.560	33.885	1255.103	1074.218
-6.546	33.913	1253.940	1073.339
-5.531	33.893	1253.388	1072.713
-4.517	34.029	1252.358	1072.556
-3.502	33.962	1251.502	1071.400
-2.487	33.893	1250.985	1070.525
-1.473	33.867	1246.615	1066.598
-0.458	32.281	1231.917	1045.175
0.556	29.225	1213.751	1007.304
1.571	25.613	1218.372	991.187
2.586	24.887	1234.284	999.991
3.600	24.484	1224.586	989.810
4.615	18.106	1150.979	896.884
5.629	7.360	1071.931	782.444
6.644	2.371	1050.861	742.813
7.659	1.903	1048.388	738.734
8.673	1.725	1047.055	736.867
9.688	1.774	1045.870	736.206
10.702	2.386	1044.645	738.234
11.717	9.382	1054.749	779.297
12.731	19.426	1069.565	839.281
13.746	24.139	1074.844	866.329
14.761	24.967	1075.262	870.620
15.775	24.810	1075.524	869.990
16.790	24.885	1073.878	868.948
17.804	24.748	1073.745	868.097
18.819	24.788	1073.349	867.894
19.834	24.960	1072.753	868.167
20.848	24.949	1072.523	867.854
21.863	24.938	1071.893	867.210
22.877	24.888	1071.185	866.320
23.892	24.824	1071.007	865.789
24.907	24.910	1069.903	865.238
25.921	24.870	1068.718	864.008
26.936	24.919	1067.316	863.036
27.950	24.934	1065.653	861.687
28.965	24.723	1063.974	859.238
29.980	24.811	1062.713	858.569
30.994	25.023	1062.086	859.001
32.009	25.115	1060.591	858.158
33.023	24.806	1059.274	855.539
34.038	24.957	1058.563	855.607
35.053	24.957	1058.132	855.184
36.067	24.977	1057.539	854.725
37.082	25.016	1057.150	854.520
38.096	25.230	1056.158	854.661
39.111	25.207	1055.623	854.046
40.126	25.068	1053.902	851.919
41.140	24.842	1052.149	849.354
42.155	24.588	1050.876	847.044
43.169	24.617	1050.251	846.605
44.184	24.628	1049.285	845.803
45.199	24.451	1048.389	844.166
46.213	24.636	1047.304	844.095
47.228	24.794	1046.661	844.247
48.242	24.920	1045.950	844.192
49.257	24.855	1045.549	843.487
50.271	24.911	1044.889	843.145
51.286	25.154	1043.535	843.118
52.301	25.003	1043.074	841.965
53.315	25.002	1041.976	840.998
54.330	24.809	1041.497	839.632
55.344	24.989	1040.785	839.827
56.359	24.969	1039.403	838.542
57.374	24.825	1038.050	836.703
58.388	24.611	1037.720	835.363
59.403	24.624	1037.149	834.891
60.417	24.572	1035.920	833.586
61.432	24.718	1035.070	833.507
62.447	24.639	1034.840	832.881
63.461	24.777	1034.087	832.843
64.476	24.850	1032.500	831.833
65.490	24.528	1031.893	829.771
66.505	24.582	1031.626	829.734
67.520	24.718	1030.773	829.609
68.534	24.532	1029.783	827.873
69.549	24.131	1029.050	825.353
70.563	24.233	1027.641	824.622
71.578	24.141	1026.992	823.602
72.593	24.017	1026.133	822.269
73.607	24.173	1025.581	822.475
74.622	24.349	1025.465	823.123
75.636	24.603	1024.263	823.252
76.651	24.347	1023.588	821.459
77.666	24.245	1022.858	820.332
78.680	24.416	1021.956	820.323
79.695	24.400	1021.356	819.694
80.709	24.379	1021.407	819.567
81.724	24.551	1020.456	819.522
82.739	24.622	1019.564	819.056
83.753	25.071	1018.968	820.562
84.768	25.227	1018.383	820.730
85.782	25.395	1017.179	820.457
86.797	25.262	1016.087	818.898
87.812	25.020	1015.832	817.513
88.826	25.172	1014.641	817.175
89.841	25.211	1013.739	816.555
90.855	25.164	1012.690	815.423
91.870	25.301	1012.198	815.578
92.884	25.160	1010.959	813.866
93.899	25.057	1009.616	812.249
94.914	25.221	1009.117	812.516
95.928	24.995	1008.048	810.562
96.943	24.911	1006.573	808.926
97.957	24.620	1005.442	806.628
98.972	24.498	1004.581	805.320
99.987	24.725	1004.000	805.804
101.001	24.905	1003.280	805.965
102.016	24.925	1002.338	805.226
103.030	24.750	1001.537	803.727
104.045	24.693	1000.571	802.623
105.060	24.600	999.414	801.206
106.074	24.604	999.181	800.970
107.089	24.995	998.464	802.072
108.103	24.997	997.085	800.905
109.118	24.748	995.647	798.564
110.133	24.722	994.851	797.740
111.147	24.357	994.036	795.390
112.162	24.351	992.781	794.288
113.176	24.631	992.345	795.115
114.191	24.496	991.380	793.671
115.206	24.152	990.475	791.352
116.220	24.134	989.620	790.517
117.235	24.419	988.666	790.946
118.249	24.205	988.382	789.703
119.264	24.167	987.674	788.897
120.279	24.308	986.652	788.637
121.293	24.349	985.759	788.036
122.308	24.512	984.574	787.737
123.322	24.378	983.586	786.283
124.337	24.192	982.364	784.421
125.352	23.619	981.097	780.817
126.366	23.645	980.111	780.079
127.381	24.397	980.356	783.511
128.395	24.903	979.701	785.136
129.410	25.071	978.487	784.830
130.424	25.048	977.306	783.710
131.439	24.898	976.709	782.507
132.454	24.845	976.454	782.004
133.468	24.842	975.320	781.013
134.483	24.834	974.893	780.566
135.497	25.136	973.772	780.916
136.512	25.229	972.681	780.376
137.527	25.134	972.330	779.612
138.541	25.184	971.078	778.755
139.556	25.136	970.589	778.088
140.570	25.229	969.827	777.813
141.585	25.180	968.987	776.855
142.600	25.204	967.754	775.901
143.614	25.348	967.416	776.188
144.629	25.511	966.352	775.968
145.643	25.335	965.143	774.167
146.658	25.069	963.963	772.010
147.673	25.036	963.354	771.309
148.687	24.915	962.132	769.744
149.702	24.953	960.687	768.683
150.716	24.886	960.136	767.886
151.731	24.967	959.334	767.524
152.746	25.127	959.330	768.140
153.760	25.386	958.140	768.228
154.775	25.371	957.921	767.917
155.789	25.332	957.008	766.950
156.804	25.302	956.121	766.042
157.819	25.242	955.494	765.219
158.833	25.376	954.986	765.317
159.848	25.474	953.685	764.621
160.862	25.322	952.782	763.185
161.877	25.364	951.616	762.362
162.892	25.403	950.606	761.651
163.906	25.314	949.040	759.953
164.921	25.258	948.691	759.366
165.935	25.422	947.512	759.051
166.950	25.314	946.896	758.034
167.964	25.311	945.886	757.144
168.979	25.164	944.870	755.645
169.994	25.213	943.896	755.004
171.008	25.350	943.678	755.340
172.023	25.288	942.942	754.423
173.037	25.190	941.662	752.922
174.052	24.996	940.724	751.293
175.067	25.111	940.186	751.278
176.081	25.140	939.931	751.130
177.096	25.143	939.058	750.378
178.110	24.855	938.024	748.279
179.125	24.623	937.361	746.715
180.140	24.878	936.775	747.247
181.154	25.027	936.770	747.802
182.169	25.168	936.701	748.269
183.183	25.318	936.332	748.533
184.198	25.211	935.068	747.009
185.213	25.298	934.268	746.668
186.227	25.265	934.071	746.303
187.242	25.207	933.512	745.553
188.256	25.484	932.438	745.777
189.271	25.373	931.979	744.885
190.286	25.193	930.633	742.998
191.300	24.566	929.271	739.249
192.315	23.762	927.503	734.456
193.329	23.658	927.390	733.871
194.344	24.446	927.923	737.486
195.359	25.165	927.832	740.317
196.373	25.198	927.103	739.806
197.388	25.143	926.655	739.156
198.402	25.140	925.920	738.490
199.417	25.202	925.388	738.258
200.432	25.000	924.067	736.307
201.446	24.781	923.382	734.796
202.461	24.871	922.857	734.685
203.475	24.033	921.046	729.745
204.490	23.265	919.911	725.635
205.504	24.136	920.111	729.295
206.519	24.645	920.279	731.447
207.534	24.734	920.084	731.592
208.548	25.365	919.484	733.632
209.563	25.030	918.552	731.454
210.577	24.996	918.131	730.914
211.592	25.419	917.754	732.276
212.607	25.411	916.737	731.366
213.621	25.405	916.063	730.737
214.636	25.439	915.576	730.426
215.650	25.272	914.843	729.096
216.665	25.557	913.964	729.487
217.680	25.478	913.299	728.573
218.694	25.003	912.081	725.613
219.709	24.871	911.493	724.545
220.723	25.133	911.131	725.254
221.738	25.320	910.172	725.183
222.753	25.109	909.926	724.071
223.767	25.171	909.707	724.083
224.782	25.504	909.298	725.034
225.796	25.445	908.830	724.362
226.811	24.747	907.108	720.116
227.826	24.207	905.939	716.952
228.840	24.290	905.696	717.027
229.855	24.488	904.555	716.856
230.869	24.099	903.624	714.494
231.884	24.447	903.980	716.111
232.899	25.303	903.524	719.118
233.913	25.059	903.268	717.871
234.928	25.171	902.246	717.443
235.942	25.063	901.688	716.506
236.957	24.763	900.948	714.658
237.972	24.824	900.370	714.377
238.986	24.884	899.581	713.929
240.001	24.930	899.108	713.671
241.015	25.027	898.774	713.731
242.030	25.203	898.073	713.812
243.045	25.190	898.097	713.715
244.059	25.379	897.567	713.982
245.074	25.127	896.453	712.033
246.088	24.807	895.668	710.077
247.103	25.131	895.264	710.979
248.117	25.576	895.445	712.823
249.132	26.015	894.669	713.881
250.147	26.073	894.051	713.553
251.161	26.184	893.687	713.637
252.176	25.980	893.513	712.632
253.190	26.193	892.375	712.499
254.205	26.338	892.318	712.962
255.220	26.357	891.645	712.438
256.234	26.081	891.094	710.847
257.249	26.027	889.971	709.677
258.263	26.028	889.745	709.435
259.278	26.181	888.944	709.336
260.293	26.087	888.624	708.648
261.307	26.063	887.859	707.881
262.322	25.814	887.103	706.239
263.336	25.121	884.677	701.535
264.351	24.061	883.194	696.156
265.366	24.143	883.001	696.264
266.380	25.369	883.500	701.387
267.395	25.617	883.405	702.216
268.409	25.658	882.644	701.712
269.424	25.860	882.111	702.011
270.439	25.876	881.106	701.210
271.453	26.058	880.800	701.614
272.468	26.055	880.548	701.339
273.482	26.291	879.915	701.689
274.497	25.698	879.035	698.624
275.512	25.349	877.848	696.267
276.526	25.951	877.870	698.555
277.541	25.849	877.988	698.191
278.555	25.693	876.777	696.563
279.570	25.503	876.059	695.198
280.585	25.739	875.273	695.424
281.599	25.841	874.277	694.963
282.614	25.130	873.292	691.381
283.628	25.122	873.017	691.069
284.643	25.530	872.546	692.207
285.657	25.182	871.266	689.792
286.672	24.781	870.976	687.961
287.687	25.352	870.880	690.019
288.701	25.501	870.108	689.918
289.716	25.198	869.053	687.858
290.730	25.161	868.470	687.194
291.745	24.911	867.407	685.336
292.760	25.117	867.747	686.331
293.774	26.260	868.221	691.019
294.789	26.454	867.882	691.431
295.803	26.491	867.168	690.941
296.818	26.530	866.396	690.416
297.833	26.029	865.040	687.364
298.847	25.969	864.523	686.665
299.862	26.171	864.409	687.283
300.876	26.463	864.541	688.437
301.891	26.336	863.371	686.962
302.906	25.937	862.420	684.631
303.920	26.124	861.957	684.910
304.935	26.401	862.086	686.005
305.949	26.327	861.158	684.925
306.964	26.140	860.729	683.814
307.979	26.175	860.418	683.641
308.993	26.605	860.280	685.097
310.008	26.587	859.455	684.311
311.022	26.247	859.053	682.647
312.037	26.053	858.157	681.140
313.052	25.816	856.966	679.241
314.066	25.053	855.057	674.799
315.081	24.767	854.640	673.333
316.095	25.612	855.074	676.796
317.110	26.096	854.805	678.344
318.125	25.150	853.365	673.589
319.139	24.294	851.742	669.038
320.154	24.084	851.716	668.169
321.168	25.144	852.221	672.484
322.183	25.812	852.064	674.804
323.197	26.008	851.933	675.375
324.212	26.119	851.697	675.544
325.227	26.320	850.849	675.562
326.241	26.086	850.116	674.048
327.256	26.101	849.482	673.538
328.270	25.921	849.043	672.459
329.285	25.649	848.183	670.707
330.300	25.562	847.032	669.414
331.314	25.687	847.217	669.966
332.329	26.121	846.834	671.217
333.343	26.378	846.360	671.739
334.358	26.396	845.999	671.459
335.373	26.340	845.692	670.947
336.387	26.685	845.591	672.088
337.402	26.778	845.670	672.435
338.416	26.761	845.136	671.888
339.431	26.671	845.223	671.566
340.446	26.965	844.721	672.195
341.460	26.742	844.006	670.742
342.475	26.496	843.770	669.585
343.489	26.581	843.069	669.283
344.504	26.874	842.720	670.029
345.519	27.042	842.543	670.449
346.533	27.233	841.963	670.633
347.548	27.281	841.305	670.226
348.562	27.080	841.047	669.221
349.577	27.017	840.261	668.305
350.592	27.060	839.415	667.734
351.606	27.144	838.683	667.398
352.621	27.018	837.629	666.038
353.635	26.698	837.403	664.626
354.650	26.138	835.694	661.160
355.665	25.219	834.227	656.580
356.679	25.753	834.208	658.459
357.694	26.083	833.689	659.198
358.708	25.914	833.168	658.111
359.723	26.306	833.223	659.526
360.738	26.844	832.543	660.891
361.752	26.901	832.215	660.782
362.767	27.129	832.336	661.647
363.781	27.416	831.908	662.293
364.796	27.593	831.209	662.323
365.810	27.616	830.735	661.968
366.825	27.516	830.584	661.426
367.840	27.164	829.332	659.095
368.854	26.791	828.426	656.965
369.869	26.806	828.353	656.905
370.883	26.966	827.909	657.074
371.898	26.822	827.218	655.944
372.913	26.827	827.114	655.822
373.927	26.984	826.790	656.075
374.942	27.277	826.111	656.538
375.956	27.164	825.929	655.927
376.971	27.395	825.341	656.235
377.986	27.652	824.899	656.751
379.000	27.334	824.605	655.313
380.015	27.302	823.710	654.430
381.029	27.261	823.362	653.948
382.044	27.452	822.868	654.184
383.059	27.355	822.503	653.487
384.073	27.494	821.934	653.476
385.088	27.430	821.084	652.513
386.102	27.235	820.455	651.256
387.117	27.074	819.844	650.137
388.132	26.903	818.704	648.567
389.146	26.353	817.868	645.883
390.161	26.703	817.867	647.073
391.175	27.251	817.630	648.785
392.190	26.865	816.526	646.475
393.205	25.518	814.060	639.678
394.219	23.951	812.701	632.982
395.234	23.952	812.640	632.880
396.248	25.552	813.575	639.248
397.263	26.958	814.945	645.270
398.278	26.879	814.569	644.633
399.292	26.671	813.660	643.120
400.307	26.653	813.210	642.642
401.321	26.894	812.555	642.922
402.336	27.373	812.523	644.537
403.350	27.608	812.699	645.451
404.365	28.008	812.305	646.498
405.380	28.180	811.912	646.735
406.394	28.193	811.863	646.684
407.409	28.185	810.923	645.850
408.423	28.140	810.524	645.317
409.438	28.049	810.711	645.087
410.453	28.078	810.478	644.947
411.467	28.203	809.399	644.471
412.482	28.013	809.348	643.704
413.496	28.148	808.656	643.573
414.511	28.246	808.211	643.507
415.526	28.208	807.881	643.051
416.540	28.086	806.835	641.735
417.555	27.825	806.392	640.408
418.569	27.916	805.601	640.045
419.584	27.940	805.383	639.899
420.599	27.573	805.257	638.455
421.613	109.623	1283.359	1449.170
422.628	94.671	1353.023	1449.277
