DTS Sentinel unit serial number:	SN413079Multiplexer serial number:	ORYXHardware model number:	OX4-SRSoftware version number:	ORYX F/W v4.00 Oryx Data Collector v3.7.2.0data status	okinstallation	princeton_trtdifferential loss correction	single-endedforward channel	channel 1reverse channel	N/Adate	2019/09/11time	09:32:11forward acquisition time	60.00reverse acquisition time	0.00gamma	496.2192k internal	0.2305k external	0.2305temperature offset calibration	0.9949default loss term (dB/km)	0.3790temperature slope calibration	1.0000multiplexer offset coefficient	1.0000multiplexer slope coefficient	1.0000fibre end	0.00T internal ref (°C)	34.73T ext. ref 1 (°C)	0.12T ext. ref 2 (°C)	30.92length (m)	temperature (°C)	Stokes	anti-Stokes-747.200	-21.902	0.249	-0.154
-746.185	800.000	-0.126	0.411
-745.171	36.750	0.062	-0.055
-744.156	800.000	-0.148	0.423
-743.142	744.729	-0.120	0.329
-742.127	-7.442	-0.086	0.059
-741.112	-132.816	-0.369	0.048
-740.098	-111.522	0.031	0.006
-739.083	-111.792	-0.218	-0.045
-738.069	-60.442	-0.333	-0.144
-737.054	-61.456	-0.070	-0.030
-736.039	501.361	0.123	-0.289
-735.025	371.058	0.178	0.368
-734.010	63.598	-0.239	0.244
-732.996	-27.021	0.228	-0.136
-731.981	-200.000	-0.062	-0.399
-730.966	-200.000	0.077	-0.377
-729.952	-200.000	0.037	-0.211
-728.937	-25.451	-0.216	0.130
-727.923	64.668	0.156	-0.160
-726.908	-42.570	0.110	0.057
-725.894	-200.000	-0.002	0.211
-724.879	-132.463	0.056	-0.007
-723.864	800.000	-0.014	-0.060
-722.850	119.785	-0.091	-0.115
-721.835	193.959	-0.077	-0.118
-720.821	800.000	-0.048	-0.183
-719.806	-200.000	0.023	-0.260
-718.791	-7.754	0.079	-0.055
-717.777	31.960	-0.265	-0.232
-716.762	19.857	0.165	-0.135
-715.748	68.130	-0.250	-0.260
-714.733	48.622	-0.117	0.111
-713.718	-72.565	0.304	-0.114
-712.704	64.196	-0.178	-0.182
-711.689	180.384	-0.118	0.176
-710.675	42.617	0.128	0.118
-709.660	-86.933	-0.118	-0.036
-708.645	268.535	-0.147	-0.261
-707.631	-181.064	-0.375	0.008
-706.616	168.670	0.125	-0.181
-705.602	-181.644	-0.071	0.001
-704.587	-71.468	0.187	0.071
-703.572	-116.815	-0.074	-0.014
-702.558	-200.000	-0.014	-0.298
-701.543	800.000	0.014	-0.050
-700.529	-200.000	0.047	-0.215
-699.514	-93.333	-0.046	-0.013
-698.499	22.707	0.070	-0.058
-697.485	98.217	-0.251	0.293
-696.470	154.598	0.131	0.183
-695.456	-200.000	-0.006	0.230
-694.441	-200.000	-0.011	0.179
-693.426	-56.472	0.019	-0.008
-692.412	14.474	0.183	-0.145
-691.397	83.758	0.294	0.326
-690.383	-200.000	-0.005	-0.033
-689.368	260.749	0.115	0.201
-688.354	-114.147	0.236	-0.046
-687.339	-15.047	-0.254	0.165
-686.324	-99.790	-0.029	0.007
-685.310	-200.000	0.010	0.243
-684.295	62.489	-0.103	0.104
-683.281	-127.584	0.157	-0.023
-682.266	-140.242	0.121	-0.013
-681.251	-158.522	-0.262	0.015
-680.237	800.000	-0.069	0.272
-679.222	144.851	-0.079	-0.107
-678.208	-200.000	0.004	-0.106
-677.193	-117.503	-0.096	0.018
-676.178	-200.000	-0.052	-0.239
-675.164	148.949	-0.112	0.154
-674.149	-15.373	-0.231	0.150
-673.135	-200.000	0.026	-0.153
-672.120	-200.000	-0.032	0.295
-671.105	-116.634	0.380	0.071
-670.091	800.000	0.049	-0.170
-669.076	-82.305	0.335	0.111
-668.062	-43.985	0.194	-0.099
-667.047	-90.735	0.178	-0.052
-666.032	-60.428	-0.078	0.034
-665.018	172.740	-0.137	-0.201
-664.003	20.772	-0.117	-0.096
-662.989	-150.119	-0.217	0.017
-661.974	-95.555	0.027	-0.007
-660.959	54.782	-0.193	-0.189
-659.945	-160.685	-0.035	-0.002
-658.930	70.483	-0.184	-0.193
-657.916	-100.272	0.078	0.020
-656.901	15.493	0.251	0.200
-655.886	-36.615	0.330	0.180
-654.872	-28.020	0.258	0.151
-653.857	-200.000	-0.006	-0.158
-652.843	-200.000	-0.011	-0.059
-651.828	99.505	-0.160	-0.188
-650.814	158.541	-0.075	-0.106
-649.799	800.000	0.014	-0.044
-648.784	800.000	0.042	-0.139
-647.770	36.863	0.081	-0.073
-646.755	244.507	-0.191	-0.326
-645.741	-172.335	-0.225	0.007
-644.726	-141.431	-0.294	-0.030
-643.711	108.724	-0.065	-0.079
-642.697	-200.000	0.012	0.117
-641.682	800.000	0.045	0.195
-640.668	800.000	0.058	-0.222
-639.653	138.298	-0.124	-0.164
-638.638	-65.455	0.234	-0.095
-637.624	800.000	0.040	0.134
-636.609	359.966	-0.041	0.084
-635.595	800.000	0.062	0.202
-634.580	-29.358	-0.170	0.099
-633.565	-109.662	0.198	0.042
-632.551	-48.647	-0.144	0.070
-631.536	-103.545	0.317	0.075
-630.522	-108.035	0.075	0.017
-629.507	-200.000	-0.030	0.196
-628.492	-124.535	0.208	0.033
-627.478	-81.246	-0.246	-0.082
-626.463	-33.621	-0.285	0.160
-625.449	-200.000	0.036	0.160
-624.434	-176.798	-0.544	0.014
-623.419	102.431	-0.158	-0.187
-622.405	-200.000	-0.012	0.210
-621.390	-17.311	0.060	0.038
-620.376	-32.955	0.122	0.068
-619.361	800.000	-0.079	0.260
-618.346	-171.465	0.078	-0.003
-617.332	800.000	-0.029	0.081
-616.317	-200.000	-0.014	-0.227
-615.303	105.705	-0.225	-0.269
-614.288	-101.512	-0.288	-0.071
-613.273	123.258	0.100	-0.126
-612.259	-200.000	0.007	-0.072
-611.244	68.449	-0.176	0.183
-610.230	71.928	0.198	0.209
-609.215	6.800	0.056	-0.042
-608.201	114.316	0.215	-0.265
-607.186	86.256	0.191	-0.213
-606.171	162.973	0.050	0.071
-605.157	-15.374	-0.118	-0.076
-604.142	232.861	0.035	-0.058
-603.128	-97.491	-0.200	0.053
-602.113	-96.212	-0.343	-0.092
-601.098	313.695	0.028	-0.054
-600.084	-186.890	-0.046	0.001
-599.069	127.165	-0.174	0.223
-598.055	-112.196	0.269	-0.055
-597.040	62.211	0.065	-0.066
-596.025	181.683	0.149	0.222
-595.011	62.306	0.188	0.190
-593.996	10.042	-0.343	-0.264
-592.982	37.743	-0.179	-0.161
-591.967	218.834	-0.027	0.044
-590.952	800.000	-0.095	-0.351
-589.938	-200.000	-0.009	-0.129
-588.923	-0.402	-0.162	0.116
-587.909	76.980	0.176	-0.189
-586.894	382.366	0.210	-0.437
-585.879	378.646	-0.083	-0.172
-584.865	466.272	0.093	0.212
-583.850	108.958	0.252	0.304
-582.836	800.000	-0.054	0.179
-581.821	800.000	0.098	0.404
-580.806	-87.104	-0.191	0.059
-579.792	-23.164	0.217	0.132
-578.777	800.000	-0.007	-0.032
-577.763	800.000	-0.094	-0.276
-576.748	-158.238	-0.457	-0.027
-575.733	-60.192	-0.214	0.092
-574.719	96.152	0.188	0.218
-573.704	-68.802	-0.339	-0.132
-572.690	57.638	0.144	0.142
-571.675	7.157	-0.147	0.111
-570.661	279.273	-0.132	-0.238
-569.646	-200.000	-0.021	0.173
-568.631	149.435	-0.214	0.293
-567.617	-55.475	-0.128	-0.058
-566.602	-94.710	0.193	0.053
-565.588	-4.502	-0.280	0.195
-564.573	-200.000	0.014	-0.084
-563.558	-161.943	-0.220	-0.011
-562.544	-11.694	-0.320	-0.212
-561.529	382.980	-0.068	-0.142
-560.515	-176.114	0.211	-0.006
-559.500	-200.000	0.015	0.135
-558.485	-89.108	0.176	0.052
-557.471	-200.000	0.022	-0.134
-556.456	-130.395	-0.446	0.061
-555.442	-200.000	-0.009	0.304
-554.427	-81.102	0.053	0.018
-553.412	800.000	0.045	-0.148
-552.398	-24.858	-0.175	0.105
-551.383	800.000	0.007	-0.028
-550.369	-45.158	-0.014	-0.007
-549.354	-103.678	0.210	-0.050
-548.339	-47.033	0.215	0.106
-547.325	-76.390	-0.087	-0.031
-546.310	-200.000	-0.027	-0.172
-545.296	-102.698	-0.283	0.068
-544.281	-90.039	0.109	0.032
-543.266	800.000	0.061	-0.228
-542.252	245.144	-0.099	-0.168
-541.237	54.518	-0.190	-0.185
-540.223	-50.248	0.126	0.060
-539.208	-134.019	-0.217	-0.027
-538.193	-62.507	-0.097	-0.041
-537.179	-31.511	-0.218	-0.124
-536.164	-36.864	0.064	-0.035
-535.150	-200.000	0.004	-0.118
-534.135	153.535	-0.170	-0.235
-533.121	-59.360	0.267	0.116
-532.106	800.000	-0.059	0.177
-531.091	-200.000	0.021	-0.320
-530.077	21.713	0.364	0.299
-529.062	800.000	0.092	0.360
-528.048	353.289	0.119	0.238
-527.033	497.001	0.055	0.127
-526.018	-138.306	0.317	0.035
-525.004	-74.736	0.079	0.029
-523.989	384.534	-0.032	-0.067
-522.975	-73.362	0.224	0.083
-521.960	-200.000	-0.003	-0.161
-520.945	-33.947	-0.223	-0.124
-519.931	-200.000	-0.031	-0.151
-518.916	312.375	0.130	-0.245
-517.902	-59.702	-0.277	-0.120
-516.887	-67.092	-0.184	-0.073
-515.872	-200.000	0.022	0.100
-514.858	329.771	-0.060	0.117
-513.843	-2.134	0.315	0.223
-512.829	41.057	-0.135	0.123
-511.814	66.977	-0.070	0.072
-510.799	521.091	0.133	-0.314
-509.785	415.965	0.099	-0.213
-508.770	441.212	0.098	0.217
-507.756	239.017	0.130	0.219
-506.741	-112.121	-0.313	0.063
-505.726	-200.000	0.019	0.227
-504.712	-200.000	-0.033	-0.220
-503.697	-52.893	-0.168	0.078
-502.683	322.733	0.125	-0.240
-501.668	-200.000	-0.005	0.028
-500.653	345.669	-0.093	-0.184
-499.639	-200.000	-0.085	-0.482
-498.624	-176.532	0.311	0.008
-497.610	-200.000	0.062	-0.301
-496.595	800.000	-0.036	-0.152
-495.581	238.793	-0.046	-0.078
-494.566	271.038	0.167	0.296
-493.551	800.000	-0.043	-0.124
-492.537	-86.835	-0.075	-0.023
-491.522	191.320	0.297	0.450
-490.508	-52.174	-0.125	-0.059
-489.493	-200.000	-0.018	0.219
-488.478	-35.879	0.118	0.064
-487.464	332.936	-0.054	0.106
-486.449	-200.000	-0.008	-0.207
-485.435	18.474	-0.167	0.134
-484.420	156.004	-0.126	0.174
-483.405	546.208	0.082	0.198
-482.391	-60.181	0.355	0.152
-481.376	2.478	0.153	0.111
-480.362	-141.791	-0.255	0.026
-479.347	0.285	-0.197	0.142
-478.332	502.214	0.086	0.201
-477.318	-38.172	0.240	-0.128
-476.303	289.365	0.203	-0.371
-475.289	353.133	-0.119	-0.238
-474.274	-13.951	0.354	0.230
-473.259	113.710	-0.160	0.196
-472.245	667.281	0.113	-0.295
-471.230	-76.766	-0.142	-0.050
-470.216	754.368	-0.114	0.310
-469.201	-200.000	0.039	0.176
-468.186	-110.325	-0.157	-0.033
-467.172	79.451	-0.217	-0.234
-466.157	99.441	0.203	-0.236
-465.143	24.254	-0.049	0.041
-464.128	6.499	0.077	0.058
-463.113	-200.000	-0.029	0.251
-462.099	7.708	-0.037	0.028
-461.084	182.079	0.177	0.262
-460.070	486.415	-0.044	-0.101
-459.055	37.309	-0.153	-0.136
-458.040	-88.313	-0.226	0.068
-457.026	-61.017	-0.378	0.161
-456.011	216.977	-0.102	-0.164
-454.997	-35.830	0.292	-0.159
-453.982	44.589	-0.128	-0.118
-452.968	-200.000	-0.079	-0.526
-451.953	800.000	0.053	0.155
-450.938	-109.256	-0.375	-0.080
-449.924	8.388	0.154	-0.116
-448.909	95.630	-0.226	-0.259
-447.895	187.585	0.142	-0.213
-446.880	110.717	-0.133	-0.160
-445.865	178.603	0.243	-0.357
-444.851	-42.089	-0.229	0.118
-443.836	96.401	-0.116	-0.133
-442.822	202.958	0.230	-0.358
-441.807	4.786	-0.087	-0.064
-440.792	-55.252	-0.114	-0.051
-439.778	800.000	0.052	0.177
-438.763	-155.126	-0.156	0.010
-437.749	-8.346	0.270	0.182
-436.734	-175.019	-0.080	0.002
-435.719	85.894	-0.093	-0.103
-434.705	-78.218	-0.233	-0.081
-433.690	-141.353	-0.231	-0.024
-432.676	-200.000	-0.022	-0.098
-431.661	-127.487	0.165	-0.024
-430.646	800.000	-0.022	-0.086
-429.632	98.083	-0.067	0.078
-428.617	-200.000	-0.002	-0.035
-427.603	7.539	0.463	0.348
-426.588	361.271	-0.150	0.303
-425.573	-200.000	-0.089	0.549
-424.559	464.528	0.111	0.249
-423.544	278.727	0.085	-0.153
-422.530	-18.554	0.228	0.143
-421.515	106.894	0.047	0.057
-420.500	-177.352	-0.139	0.003
-419.486	-31.837	0.251	0.142
-418.471	800.000	0.078	-0.330
-417.457	-41.901	0.264	0.136
-416.442	233.572	0.162	-0.268
-415.428	202.484	-0.052	0.081
-414.413	800.000	0.105	-0.303
-413.398	0.882	0.115	0.082
-412.384	389.489	-0.082	-0.172
-411.369	192.719	0.148	0.225
-410.355	81.873	0.082	0.089
-409.340	-22.349	-0.125	0.076
-408.325	-143.163	-0.299	0.029
-407.311	-200.000	0.002	-0.138
-406.296	-200.000	0.018	-0.241
-405.282	305.963	-0.146	0.273
-404.267	-157.351	-0.155	0.009
-403.252	61.153	-0.103	0.103
-402.238	-159.471	-0.141	0.008
-401.223	-112.496	-0.109	0.022
-400.209	566.856	-0.030	0.072
-399.194	800.000	-0.009	0.031
-398.179	800.000	-0.070	0.251
-397.165	-85.253	0.097	-0.031
-396.150	-70.431	0.039	0.015
-395.136	-200.000	-0.014	0.203
-394.121	95.150	-0.077	-0.088
-393.106	800.000	-0.015	0.052
-392.092	461.570	0.053	-0.118
-391.077	-174.396	-0.296	-0.009
-390.063	-200.000	0.040	-0.349
-389.048	-13.100	0.287	0.187
-388.033	-70.116	0.186	0.071
-387.019	-85.786	0.286	0.089
-386.004	-132.700	-0.083	-0.011
-384.990	800.000	-0.024	-0.080
-383.975	800.000	-0.036	0.102
-382.960	-173.861	-0.278	-0.008
-381.946	-200.000	0.026	0.442
-380.931	243.473	-0.210	-0.353
-379.917	-24.546	0.089	0.053
-378.902	731.723	-0.167	0.447
-377.888	10.210	0.139	-0.106
-376.873	-113.734	-0.350	-0.069
-375.858	-108.662	-0.050	0.011
-374.844	800.000	0.055	0.192
-373.829	-33.298	0.211	0.117
-372.815	-200.000	0.019	-0.156
-371.800	13.139	-0.540	-0.419
-370.785	43.074	0.361	-0.330
-369.771	400.797	-0.080	0.169
-368.756	800.000	0.076	-0.269
-367.742	1.535	0.216	0.156
-366.727	108.082	-0.162	0.193
-365.712	18.567	-0.255	-0.204
-364.698	-49.237	0.181	-0.087
-363.683	-121.914	0.169	-0.028
-362.669	-200.000	0.011	0.140
-361.654	-200.000	-0.009	-0.221
-360.639	800.000	-0.057	-0.157
-359.625	62.388	-0.082	-0.082
-358.610	-136.020	0.372	0.044
-357.596	800.000	0.037	-0.150
-356.581	-200.000	0.013	0.273
-355.566	185.775	0.159	0.237
-354.552	17.002	-0.267	0.212
-353.537	80.900	0.258	-0.279
-352.523	-26.028	0.204	0.120
-351.508	-36.161	-0.215	0.117
-350.493	-80.506	-0.100	-0.033
-349.479	128.645	-0.225	0.287
-348.464	-134.903	-0.352	-0.043
-347.450	-28.773	-0.126	0.073
-346.435	106.442	0.092	-0.109
-345.420	-72.720	-0.481	-0.177
-344.406	-200.000	-0.065	0.321
-343.391	7.673	-0.118	0.088
-342.377	-96.968	0.245	-0.064
-341.362	-200.000	0.037	-0.193
-340.348	-200.000	-0.002	0.081
-339.333	42.014	0.200	0.182
-338.318	279.030	-0.142	-0.254
-337.304	-108.531	-0.243	-0.052
-336.289	-71.203	-0.230	-0.087
-335.275	303.791	0.121	-0.224
-334.260	508.550	-0.250	-0.582
-333.245	147.964	0.147	-0.199
-332.231	800.000	0.057	0.174
-331.216	-139.781	-0.057	0.006
-330.202	414.424	0.163	0.348
-329.187	194.867	0.119	0.181
-328.172	168.369	0.257	-0.366
-327.158	-149.566	-0.148	0.012
-326.143	-39.505	-0.044	0.023
-325.129	-163.871	0.092	-0.004
-324.114	117.347	0.087	0.107
-323.099	309.618	-0.085	0.159
-322.085	-118.730	0.047	0.008
-321.070	-61.684	0.162	0.068
-320.056	162.178	-0.227	0.318
-319.041	-61.344	0.286	0.120
-318.026	-11.595	0.140	-0.092
-317.012	-148.041	-0.237	-0.020
-315.997	-59.571	-0.112	0.048
-314.983	-106.679	0.506	0.113
-313.968	800.000	-0.026	0.098
-312.953	42.027	0.186	0.169
-311.939	374.469	0.095	0.194
-310.924	131.173	0.071	0.091
-309.910	-95.041	0.124	-0.033
-308.895	695.708	-0.059	-0.156
-307.880	-49.428	0.229	0.109
-306.866	33.187	0.273	-0.237
-305.851	-200.000	-0.048	0.212
-304.837	129.555	0.074	-0.094
-303.822	330.961	0.061	-0.117
-302.807	-122.213	-0.233	0.038
-301.793	50.097	-0.124	-0.117
-300.778	-200.000	-0.037	-0.468
-299.764	672.081	-0.096	-0.249
-298.749	800.000	0.057	0.190
-297.735	-74.474	0.193	-0.070
-296.720	-131.994	-0.147	0.019
-295.705	-200.000	-0.002	-0.401
-294.691	800.000	-0.035	-0.105
-293.676	800.000	-0.044	0.143
-292.662	215.366	-0.258	0.409
-291.647	-200.000	-0.032	0.293
-290.632	205.068	0.072	0.112
-289.618	-200.000	0.029	0.255
-288.603	187.195	0.190	-0.283
-287.589	208.830	-0.022	-0.035
-286.574	-107.844	-0.119	-0.026
-285.559	164.655	0.107	-0.151
-284.545	-61.427	-0.128	0.054
-283.530	800.000	0.098	-0.399
-282.516	-200.000	0.032	0.264
-281.501	-89.704	-0.035	-0.010
-280.486	14.613	-0.130	-0.102
-279.472	-122.227	0.238	-0.039
-278.457	35.586	0.335	-0.294
-277.443	-39.574	0.191	-0.100
-276.428	-38.970	-0.251	0.132
-275.413	-54.597	-0.176	0.079
-274.399	-134.447	0.256	-0.031
-273.384	-200.000	-0.029	-0.127
-272.370	-96.679	-0.220	0.058
-271.355	-200.000	0.005	0.186
-270.340	-94.427	0.211	-0.057
-269.326	-58.548	-0.229	0.099
-268.311	-39.577	0.228	0.119
-267.297	-200.000	-0.067	0.296
-266.282	10.437	0.313	0.238
-265.267	76.383	-0.149	-0.158
-264.253	746.957	0.109	0.294
-263.238	-22.566	-0.297	0.179
-262.224	93.591	0.196	-0.222
-261.209	255.569	-0.164	-0.281
-260.195	-75.914	0.137	-0.049
-259.180	-19.211	0.371	0.230
-258.165	-82.566	0.212	0.069
-257.151	408.096	-0.122	0.258
-256.136	-87.950	0.209	0.063
-255.122	25.690	0.061	0.051
-254.107	-200.000	-0.078	0.397
-253.092	8.598	0.177	0.133
-252.078	-43.214	0.180	-0.091
-251.063	105.421	0.252	-0.297
-250.049	-116.642	0.269	0.049
-249.034	-50.980	-0.097	-0.046
-248.019	110.776	0.202	-0.242
-247.005	-19.664	-0.191	-0.118
-245.990	178.427	-0.155	0.226
-244.976	-54.076	-0.113	-0.051
-243.961	800.000	0.045	-0.131
-242.946	-12.971	-0.144	-0.094
-241.932	23.563	-0.341	-0.280
-240.917	-137.492	-0.082	0.009
-239.903	214.303	0.025	-0.039
-238.888	-144.477	0.081	-0.008
-237.873	-119.120	-0.307	-0.054
-236.859	519.174	0.137	-0.321
-235.844	29.766	0.138	0.117
-234.830	-101.024	0.132	0.032
-233.815	182.050	0.177	-0.260
-232.800	443.737	-0.037	0.081
-231.786	41.769	-0.101	-0.092
-230.771	-200.000	-0.018	-0.081
-229.757	-118.885	0.167	-0.029
-228.742	470.682	0.155	-0.348
-227.727	15.978	-0.135	0.106
-226.713	-43.661	0.232	-0.116
-225.698	700.463	0.132	-0.348
-224.684	-162.394	0.238	0.012
-223.669	800.000	-0.022	0.068
-222.655	11.058	-0.168	0.128
-221.640	119.889	0.149	-0.184
-220.625	-200.000	-0.013	0.113
-219.611	105.186	-0.097	0.114
-218.596	-200.000	-0.000	-0.342
-217.582	228.716	-0.145	0.236
-216.567	-166.829	-0.085	-0.004
-215.552	177.181	-0.083	0.120
-214.538	496.943	-0.104	-0.239
-213.523	-200.000	0.037	0.285
-212.509	408.534	-0.093	-0.195
-211.494	416.773	0.059	0.126
-210.479	-200.000	0.012	-0.079
-209.465	-5.199	0.099	0.068
-208.450	33.259	0.038	-0.033
-207.436	-53.582	-0.204	0.093
-206.421	212.762	0.075	0.117
-205.406	358.113	-0.079	-0.158
-204.392	369.794	0.101	0.204
-203.377	-200.000	0.018	0.110
-202.363	-49.451	0.272	0.129
-201.348	-122.267	-0.496	-0.081
-200.333	71.690	-0.191	-0.198
-199.319	-200.000	-0.003	0.019
-198.304	-200.000	-0.052	-0.236
-197.290	199.534	-0.084	0.129
-196.275	-91.026	0.048	-0.014
-195.260	800.000	0.032	0.109
-194.246	330.141	-0.076	0.145
-193.231	-88.499	0.289	0.086
-192.217	-6.633	-0.197	-0.134
-191.202	415.352	0.046	-0.097
-190.187	-18.071	0.291	0.182
-189.173	-124.897	0.353	0.054
-188.158	800.000	0.051	0.175
-187.144	-154.438	0.273	-0.018
-186.129	5.851	-0.211	-0.156
-185.114	0.309	-0.299	-0.213
-184.100	-73.191	0.103	-0.037
-183.085	-186.745	0.094	-0.001
-182.071	-9.626	-0.199	0.132
-181.056	-165.821	0.240	0.010
-180.042	-12.727	0.385	0.250
-179.027	203.171	0.223	0.343
-178.012	-128.523	0.220	-0.031
-176.998	-130.783	-0.202	0.027
-175.983	-70.240	-0.162	0.061
-174.969	157.226	0.075	-0.104
-173.954	52.871	0.022	0.021
-172.939	52.063	0.076	0.072
-171.925	143.951	0.148	0.196
-170.910	15.635	0.062	-0.048
-169.896	337.783	0.020	0.040
-168.881	49.364	0.275	-0.257
-167.866	468.590	0.068	-0.153
-166.852	-103.047	0.292	0.069
-165.837	800.000	-0.083	-0.290
-164.823	-200.000	0.063	0.368
-163.808	0.206	0.378	0.268
-162.793	800.000	0.054	-0.232
-161.779	1.434	-0.272	-0.195
-160.764	-89.746	-0.247	0.072
-159.750	-200.000	0.019	0.343
-158.735	-0.069	-0.105	0.074
-157.720	212.569	-0.104	0.164
-156.706	308.098	0.062	-0.115
-155.691	41.800	-0.128	0.115
-154.677	-76.383	0.134	0.047
-153.662	99.377	-0.164	0.189
-152.647	-200.000	0.065	-0.370
-151.633	-200.000	0.030	-0.227
-150.618	-6.457	0.095	-0.064
-149.604	-130.336	-0.267	0.036
-148.589	-189.515	0.131	0.002
-147.574	86.376	0.149	-0.163
-146.560	113.279	-0.068	0.081
-145.545	53.943	-0.096	0.092
-144.531	-200.000	-0.017	0.132
-143.516	-92.723	0.620	0.173
-142.502	26.734	-0.210	-0.175
-141.487	800.000	0.111	0.435
-140.472	62.228	0.086	-0.085
-139.458	-200.000	0.021	0.129
-138.443	-200.000	0.008	0.247
-137.429	785.084	0.075	0.203
-136.414	99.674	-0.158	-0.182
-135.399	48.742	-0.224	-0.209
-134.385	800.000	0.115	0.375
-133.370	800.000	0.035	0.138
-132.356	227.650	-0.174	-0.280
-131.341	8.779	0.144	0.108
-130.326	800.000	-0.076	-0.250
-129.312	800.000	0.019	-0.069
-128.297	202.786	0.086	-0.131
-127.283	-76.083	-0.303	-0.106
-126.268	7.364	0.181	-0.134
-125.253	-0.275	0.257	-0.182
-124.239	370.406	0.133	-0.268
-123.224	-28.040	0.225	-0.129
-122.210	800.000	0.087	-0.342
-121.195	32.553	0.169	0.145
-120.180	-26.133	-0.091	0.053
-119.166	52.642	0.027	0.025
-118.151	-106.957	-0.086	-0.019
-117.137	-60.192	0.160	0.068
-116.122	-108.534	0.282	0.060
-115.107	65.091	0.220	0.221
-114.093	-103.393	0.256	-0.060
-113.078	730.750	0.099	-0.263
-112.064	774.931	0.028	0.076
-111.049	388.680	-0.083	0.170
-110.034	190.431	0.054	-0.080
-109.020	-44.121	0.189	-0.094
-108.005	-100.630	-0.097	-0.024
-106.991	711.116	-0.070	0.185
-105.976	4.106	0.246	0.179
-104.962	16.386	-0.312	0.244
-103.947	-147.291	0.165	-0.014
-102.932	-128.738	0.230	-0.032
-101.918	-107.648	0.322	-0.070
-100.903	336.037	-0.062	-0.119
-99.889	-40.364	0.181	0.094
-98.874	68.238	0.027	-0.028
-97.859	585.432	-0.063	-0.154
-96.845	22.971	0.225	-0.183
-95.830	363.946	-0.161	0.322
-94.816	-130.553	-0.215	0.029
-93.801	-200.000	-0.003	0.041
-92.786	-142.749	0.156	-0.015
-91.772	122.889	0.255	-0.317
-90.757	-44.704	0.145	-0.072
-89.743	184.199	0.136	0.200
-88.728	221.718	0.054	-0.086
-87.713	-49.416	-0.044	0.021
-86.699	35.195	0.152	0.132
-85.684	-82.544	-0.152	0.049
-84.670	426.572	0.108	-0.231
-83.655	45.368	0.025	0.023
-82.640	153.888	-0.068	0.093
-81.626	30.373	0.368	-0.311
-80.611	26.561	0.098	-0.081
-79.597	-200.000	-0.004	0.195
-78.582	-147.933	0.197	0.016
-77.567	800.000	-0.029	-0.106
-76.553	96.400	0.098	-0.112
-75.538	247.819	-0.104	0.174
-74.524	188.044	0.134	0.198
-73.509	305.417	0.055	0.101
-72.494	-200.000	-0.008	-0.290
-71.480	800.000	0.033	-0.128
-70.465	87.608	-0.080	-0.087
-69.451	-62.647	0.207	0.085
-68.436	-36.749	-0.201	0.107
-67.422	-153.803	-0.158	0.011
-66.407	800.000	0.083	0.295
-65.392	-152.433	0.207	0.015
-64.378	36.879	0.264	-0.231
-63.363	106.173	0.306	0.359
-62.349	365.594	0.038	0.075
-61.334	31.573	-1.148	-0.978
-60.319	4.637	0.415	0.302
-59.305	800.000	-0.257	-0.774
-58.290	466.451	0.606	1.345
-57.276	506.657	0.698	1.603
-56.261	-200.000	94.260	525.866
-55.246	572.022	1374.386	3316.082
-54.232	184.721	2614.449	3838.798
-53.217	117.228	2204.319	2683.475
-52.203	46.066	1652.837	1515.550
-51.188	38.331	1384.942	1221.771
-50.173	34.942	1342.014	1163.289
-49.159	54.522	1391.329	1327.824
-48.144	58.510	1409.223	1369.564
-47.130	38.415	1363.386	1203.081
-46.115	34.865	1345.626	1165.767
-45.100	34.664	1341.081	1160.561
-44.086	34.576	1338.385	1157.648
-43.071	34.565	1336.001	1155.471
-42.057	34.617	1333.661	1153.715
-41.042	34.638	1332.221	1152.555
-40.027	34.626	1330.653	1151.080
-39.013	34.612	1328.747	1149.299
-37.998	34.692	1326.936	1148.170
-36.984	34.757	1324.546	1146.445
-35.969	34.768	1323.370	1145.450
-34.954	34.821	1321.217	1143.856
-33.940	34.770	1320.194	1142.617
-32.925	34.794	1318.719	1141.444
-31.911	34.812	1317.036	1140.049
-30.896	34.808	1315.977	1139.062
-29.881	34.798	1314.522	1137.694
-28.867	34.890	1312.732	1136.648
-27.852	34.860	1311.355	1135.237
-26.838	34.941	1309.476	1134.044
-25.823	34.852	1308.306	1132.459
-24.809	34.748	1307.070	1130.724
-23.794	34.887	1305.542	1130.185
-22.779	34.883	1304.002	1128.782
-21.765	34.887	1303.156	1128.027
-20.750	34.834	1301.822	1126.515
-19.736	34.726	1300.512	1124.701
-18.721	34.580	1299.580	1122.993
-17.706	34.593	1297.759	1121.450
-16.692	34.739	1296.527	1121.197
-15.677	34.587	1295.755	1119.595
-14.663	34.678	1294.313	1118.839
-13.648	34.640	1292.994	1117.428
-12.633	34.717	1291.947	1116.929
-11.619	34.655	1291.234	1115.906
-10.604	34.715	1290.558	1115.629
-9.590	34.578	1289.661	1114.012
-8.575	34.686	1288.114	1113.261
-7.560	34.544	1288.007	1112.293
-6.546	34.671	1286.895	1112.032
-5.531	34.680	1285.360	1110.709
-4.517	34.622	1284.970	1109.994
-3.502	34.675	1283.795	1109.243
-2.487	34.538	1283.311	1107.986
-1.473	34.723	1278.800	1105.117
-0.458	33.551	1263.687	1085.307
0.556	28.323	1245.264	1046.782
1.571	24.833	1250.026	1030.631
2.586	24.004	1265.700	1038.626
3.600	22.971	1254.396	1023.283
4.615	16.008	1177.519	922.501
5.629	5.011	1097.462	803.309
6.644	0.493	1075.325	764.193
7.659	0.007	1072.724	759.824
8.673	0.037	1071.166	758.803
9.688	-0.075	1069.678	757.118
10.702	0.421	1068.930	759.020
11.717	7.440	1079.459	802.005
12.731	17.334	1094.111	863.284
13.746	21.502	1098.537	887.897
14.761	21.977	1099.034	890.628
15.775	21.829	1098.386	889.278
16.790	21.632	1097.477	887.466
17.804	21.665	1096.849	887.046
18.819	21.778	1096.458	887.219
19.834	21.810	1096.143	887.052
20.848	21.857	1095.946	887.050
21.863	21.804	1094.890	885.850
22.877	21.759	1094.149	884.943
23.892	21.769	1093.639	884.504
24.907	21.732	1093.116	883.814
25.921	21.661	1091.847	882.351
26.936	21.777	1090.385	881.679
27.950	21.652	1088.928	879.794
28.965	21.474	1087.360	877.554
29.980	21.697	1084.956	876.655
30.994	21.857	1084.649	877.126
32.009	21.710	1083.412	875.318
33.023	21.519	1082.479	873.531
34.038	21.760	1081.146	873.580
35.053	21.813	1080.728	873.428
36.067	21.760	1079.768	872.314
37.082	21.880	1078.884	872.115
38.096	21.939	1078.705	872.189
39.111	21.996	1077.679	871.563
40.126	21.871	1075.980	869.496
41.140	21.529	1074.582	866.593
42.155	21.362	1073.090	864.488
43.169	21.443	1071.612	863.621
44.184	21.509	1070.914	863.309
45.199	21.292	1070.031	861.451
46.213	21.454	1068.852	861.225
47.228	21.535	1068.387	861.173
48.242	21.621	1067.109	860.486
49.257	21.696	1066.443	860.245
50.271	21.826	1065.572	860.100
51.286	21.867	1064.868	859.659
52.301	21.895	1063.946	858.977
53.315	21.742	1063.119	857.484
54.330	21.824	1061.858	856.791
55.344	21.708	1061.396	855.774
56.359	21.725	1060.045	854.695
57.374	21.614	1059.479	853.618
58.388	21.591	1058.532	852.670
59.403	21.385	1057.846	851.039
60.417	21.387	1056.603	849.973
61.432	21.353	1056.439	849.600
62.447	21.506	1055.699	849.672
63.461	21.591	1054.783	849.272
64.476	21.510	1053.872	848.070
65.490	21.517	1052.538	846.957
66.505	21.494	1052.073	846.398
67.520	21.601	1051.295	846.213
68.534	21.302	1049.917	843.585
69.549	21.023	1049.034	841.457
70.563	21.136	1047.853	840.980
71.578	21.010	1047.408	839.940
72.593	20.901	1046.458	838.582
73.607	21.107	1045.868	839.024
74.622	21.375	1045.711	840.113
75.636	21.394	1044.542	839.190
76.651	21.142	1044.225	837.649
77.666	21.209	1043.109	837.002
78.680	21.335	1042.214	836.816
79.695	21.295	1041.726	836.156
80.709	21.387	1040.990	835.934
81.724	21.281	1040.540	834.990
82.739	21.470	1039.783	835.210
83.753	21.844	1039.061	836.343
84.768	22.057	1037.992	836.421
85.782	22.194	1037.079	836.263
86.797	21.941	1036.019	834.133
87.812	21.693	1035.709	832.633
88.826	21.889	1034.624	832.615
89.841	21.999	1033.411	832.086
90.855	21.963	1032.600	831.192
91.870	22.012	1031.205	830.224
92.884	21.848	1029.985	828.395
93.899	21.813	1029.194	827.518
94.914	22.023	1028.253	827.678
95.928	21.844	1026.934	825.702
96.943	21.664	1025.735	823.819
97.957	21.452	1024.516	821.769
98.972	21.283	1022.949	819.646
99.987	21.693	1022.504	821.140
101.001	21.745	1021.753	820.710
102.016	21.671	1021.396	820.006
103.030	21.535	1020.648	818.696
104.045	21.347	1019.165	816.552
105.060	21.331	1018.174	815.611
106.074	21.489	1017.675	815.880
107.089	21.981	1016.867	817.449
108.103	21.728	1015.820	815.360
109.118	21.535	1014.347	813.206
110.133	21.587	1013.535	812.725
111.147	21.349	1012.053	810.365
112.162	21.164	1011.045	808.628
113.176	21.439	1011.095	809.871
114.191	21.423	1010.148	808.964
115.206	21.170	1008.553	806.448
116.220	21.095	1008.083	805.655
117.235	21.265	1006.900	805.421
118.249	21.270	1006.174	804.790
119.264	21.163	1005.587	803.758
120.279	21.194	1004.490	802.956
121.293	21.315	1003.567	802.701
122.308	21.202	1002.968	801.634
123.322	21.182	1001.801	800.538
124.337	21.072	1000.148	798.640
125.352	20.583	998.727	795.200
126.366	20.525	998.204	794.448
127.381	21.221	998.043	797.429
128.395	21.694	997.442	799.035
129.410	21.829	996.099	798.504
130.424	21.819	995.445	797.863
131.439	21.788	994.433	796.841
132.454	21.802	993.470	796.065
133.468	21.682	992.549	794.711
134.483	21.781	992.052	794.693
135.497	22.068	991.184	795.223
136.512	21.983	990.188	793.972
137.527	22.045	989.013	793.239
138.541	22.097	988.571	793.048
139.556	22.058	987.756	792.147
140.570	22.062	987.488	791.881
141.585	22.146	985.726	790.775
142.600	21.950	984.859	789.132
143.614	22.245	984.117	789.793
144.629	22.192	983.618	789.082
145.643	22.082	982.469	787.597
146.658	21.932	980.596	785.357
147.673	21.859	979.393	783.998
148.687	21.868	978.741	783.446
149.702	21.812	977.297	781.969
150.716	21.904	976.425	781.613
151.731	21.865	976.336	781.300
152.746	22.089	975.613	781.649
153.760	22.232	974.830	781.589
154.775	22.118	974.613	780.840
155.789	22.132	973.130	779.644
156.804	22.053	972.664	778.849
157.819	22.086	971.766	778.207
158.833	22.240	970.898	778.125
159.848	22.190	969.939	777.066
160.862	22.129	968.587	775.647
161.877	22.120	967.474	774.645
162.892	22.169	966.915	774.348
163.906	22.245	965.490	773.471
164.921	22.209	964.177	772.195
165.935	22.238	963.728	771.891
166.950	22.045	963.250	770.596
167.964	22.099	962.214	769.936
168.979	21.973	960.696	768.098
169.994	21.927	959.831	767.141
171.008	22.126	959.330	767.539
172.023	22.166	958.632	767.087
173.037	21.965	957.588	765.309
174.052	21.686	956.944	763.511
175.067	21.774	956.019	763.088
176.081	21.872	955.653	763.156
177.096	21.979	954.506	762.635
178.110	21.499	953.666	759.815
179.125	21.346	953.396	758.868
180.140	21.597	952.492	759.169
181.154	21.711	952.422	759.540
182.169	22.016	952.245	760.654
183.183	22.083	951.806	760.527
184.198	22.088	950.489	759.429
185.213	21.979	949.978	758.480
186.227	22.138	949.036	758.350
187.242	22.114	948.470	757.724
188.256	22.099	947.929	757.162
189.271	22.128	947.541	756.911
190.286	21.883	945.808	754.403
191.300	21.320	944.432	750.824
192.315	20.618	942.906	746.529
193.329	20.623	942.465	746.138
194.344	21.367	943.072	749.745
195.359	22.041	942.780	752.336
196.373	21.961	942.668	751.833
197.388	21.900	941.810	750.822
198.402	21.980	940.602	750.136
199.417	21.994	939.974	749.629
200.432	21.736	938.847	747.562
201.446	21.537	938.547	746.408
202.461	21.675	937.721	746.275
203.475	20.808	935.838	741.022
204.490	20.111	934.445	736.889
205.504	20.970	935.096	740.991
206.519	21.559	934.954	743.317
207.534	21.566	934.659	743.047
208.548	22.232	934.173	745.418
209.563	21.902	933.350	743.299
210.577	21.914	932.338	742.475
211.592	22.133	932.240	743.261
212.607	22.197	931.262	742.684
213.621	22.175	930.594	741.993
214.636	22.122	930.041	741.263
215.650	22.217	928.977	740.748
216.665	22.218	928.752	740.507
217.680	22.148	927.692	739.302
218.694	21.733	926.573	736.604
219.709	21.632	925.603	735.343
220.723	21.851	925.302	735.956
221.738	22.063	924.816	736.394
222.753	21.922	923.803	734.934
223.767	22.158	923.458	735.579
224.782	22.232	923.376	735.760
225.796	22.204	922.916	735.208
226.811	21.625	920.834	731.070
227.826	21.013	919.527	727.417
228.840	21.097	919.556	727.724
229.855	21.197	918.470	727.216
230.869	20.964	917.462	725.384
231.884	21.396	917.084	726.819
232.899	21.986	917.303	729.381
233.913	21.912	916.971	728.744
234.928	21.985	915.996	728.207
235.942	22.007	915.589	727.911
236.957	21.618	914.818	725.623
237.972	21.740	913.799	725.253
238.986	21.669	913.521	724.676
240.001	21.626	913.021	724.039
241.015	21.839	912.247	724.240
242.030	22.003	911.891	724.570
243.045	22.194	911.256	724.788
244.059	22.246	910.905	724.659
245.074	22.113	909.761	723.139
246.088	21.653	908.993	720.573
247.103	21.829	908.711	721.008
248.117	22.460	908.563	723.418
249.132	22.583	908.137	723.523
250.147	22.678	907.540	723.373
251.161	22.965	907.025	724.075
252.176	22.826	906.264	722.831
253.190	22.787	906.214	722.567
254.205	22.924	905.705	722.661
255.220	23.029	904.494	722.059
256.234	22.878	903.947	720.943
257.249	22.610	903.516	719.440
258.263	22.846	902.353	719.411
259.278	22.965	901.754	719.355
260.293	22.880	901.229	718.529
261.307	22.797	900.386	717.454
262.322	22.629	899.503	716.005
263.336	21.879	897.379	711.212
264.351	20.736	895.706	705.197
265.366	20.943	895.215	705.584
266.380	21.961	896.316	710.512
267.395	22.417	895.916	711.975
268.409	22.463	894.618	711.070
269.424	22.714	894.213	711.698
270.439	22.608	893.761	710.844
271.453	22.782	893.166	711.012
272.468	22.997	892.849	711.561
273.482	23.120	892.145	711.430
274.497	22.595	890.728	708.132
275.512	22.213	890.310	706.200
276.526	22.606	890.379	707.772
277.541	22.742	889.683	707.702
278.555	22.570	888.749	706.207
279.570	22.342	887.986	704.624
280.585	22.542	887.486	704.967
281.599	22.363	886.808	703.650
282.614	21.938	885.594	700.928
283.628	21.924	885.055	700.382
284.643	22.331	884.587	701.573
285.657	21.927	883.339	698.912
286.672	21.731	882.558	697.454
287.687	22.258	882.812	699.689
288.701	22.394	881.704	699.292
289.716	21.897	881.166	696.827
290.730	21.990	880.550	696.647
291.745	21.651	879.737	694.597
292.760	21.892	879.479	695.287
293.774	22.894	879.773	699.430
294.789	23.305	879.494	700.775
295.803	23.275	878.668	699.936
296.818	23.221	878.387	699.434
297.833	22.833	877.233	696.924
298.847	22.545	876.527	695.163
299.862	23.059	876.456	697.075
300.876	23.224	875.900	697.221
301.891	23.057	874.790	695.619
302.906	22.617	873.770	693.014
303.920	22.788	873.724	693.588
304.935	23.119	873.747	694.848
305.949	23.134	872.688	694.001
306.964	22.974	871.778	692.591
307.979	22.958	871.762	692.452
308.993	23.303	871.409	693.463
310.008	23.341	870.275	692.647
311.022	23.004	869.654	690.775
312.037	22.932	869.475	690.292
313.052	22.685	868.706	688.654
314.066	21.957	866.572	684.064
315.081	21.571	866.139	682.159
316.095	22.450	866.529	685.832
317.110	22.781	866.620	687.132
318.125	22.001	864.626	682.459
319.139	21.023	863.268	677.530
320.154	21.086	862.873	677.403
321.168	21.894	863.603	681.057
322.183	22.693	863.498	684.012
323.197	22.703	863.436	683.941
324.212	23.032	862.669	684.547
325.227	23.071	861.776	683.928
326.241	22.989	861.155	683.060
327.256	22.751	860.919	681.893
328.270	22.702	860.172	681.050
329.285	22.582	859.109	679.686
330.300	22.280	858.383	677.886
331.314	22.601	858.437	679.108
332.329	22.856	857.960	679.651
333.343	23.168	857.512	680.435
334.358	23.046	857.013	679.511
335.373	23.176	856.928	679.884
336.387	23.497	856.687	680.865
337.402	23.417	856.890	680.657
338.416	23.282	856.600	679.851
339.431	23.500	855.743	679.945
340.446	23.698	855.373	680.348
341.460	23.592	854.676	679.329
342.475	23.367	854.050	677.908
343.489	23.504	853.698	678.096
344.504	23.657	853.504	678.465
345.519	23.815	853.302	678.850
346.533	23.823	852.884	678.487
347.548	23.895	852.144	678.114
348.562	23.938	851.583	677.772
349.577	23.779	851.493	677.031
350.592	23.762	850.398	676.038
351.606	23.680	849.860	675.236
352.621	23.710	848.680	674.354
353.635	23.676	847.939	673.576
354.650	23.021	846.187	669.647
355.665	22.110	845.261	665.404
356.679	22.478	844.894	666.451
357.694	22.856	844.620	667.602
358.708	22.685	843.834	666.279
359.723	23.213	843.664	668.080
360.738	23.466	843.565	668.894
361.752	23.605	843.057	668.958
362.767	23.920	842.989	670.032
363.781	24.168	842.489	670.508
364.796	24.251	841.505	669.976
365.810	24.135	841.747	669.674
366.825	24.158	841.326	669.366
367.840	23.800	840.085	666.977
368.854	23.641	838.885	665.371
369.869	23.681	838.546	665.193
370.883	23.773	838.146	665.161
371.898	23.493	837.968	663.912
372.913	23.668	837.524	664.154
373.927	23.752	837.404	664.317
374.942	23.792	836.864	663.979
375.956	23.872	836.498	663.926
376.971	24.104	835.724	664.118
377.986	24.205	835.614	664.351
379.000	24.139	835.229	663.739
380.015	23.946	834.424	662.323
381.029	24.001	834.048	662.171
382.044	24.227	833.261	662.325
383.059	24.165	832.940	661.784
384.073	24.195	832.517	661.498
385.088	24.141	831.419	660.367
386.102	23.841	831.139	658.975
387.117	23.729	830.236	657.786
388.132	23.427	829.153	655.753
389.146	23.078	828.002	653.497
390.161	23.436	827.907	654.685
391.175	23.861	828.020	656.286
392.190	23.621	826.508	654.144
393.205	22.213	824.510	647.324
394.219	20.824	822.877	640.879
395.234	20.882	822.549	640.780
396.248	22.438	824.196	647.737
397.263	23.778	824.879	653.145
398.278	23.760	824.476	652.701
399.292	23.449	823.807	650.971
400.307	23.440	823.458	650.607
401.321	23.620	823.002	650.848
402.336	24.175	822.775	652.644
403.350	24.515	822.638	653.722
404.365	24.597	822.856	654.138
405.380	24.878	822.334	654.692
406.394	25.050	821.470	654.576
407.409	24.726	821.194	653.115
408.423	24.670	820.845	652.575
409.438	24.981	820.228	653.160
410.453	24.984	819.986	652.921
411.467	24.783	819.488	651.735
412.482	24.722	819.248	651.266
413.496	24.868	818.904	651.465
414.511	24.901	818.453	651.169
415.526	24.799	818.112	650.468
416.540	24.617	817.215	649.036
417.555	24.471	816.515	647.895
418.569	24.436	815.958	647.266
419.584	24.611	815.362	647.371
420.599	24.338	814.734	645.829
421.613	153.038	1366.052	1791.796
422.628	133.151	1446.384	1791.909
